0.011224
-0.053646
0.083230
-0.013290
-0.003430
-0.009048
-0.000725
0.005471
0.049035
0.004075
0.040540
-0.028649
-0.002267
-0.039028
0.077887
0.076875
0.029753
-0.048124
0.085915
-0.003828
0.010250
0.032676
-0.001507
-0.005510
0.028397
0.063693
0.095565
0.149762
0.152519
0.230503
0.115362
0.162940
0.106538
0.245742
0.175350
0.164365
0.245597
0.133990
0.196282
0.230291
0.250191
0.138519
0.206114
0.153665
0.192587
0.183226
0.162493
0.190167
0.212803
0.123389
0.176085
0.184034
0.122854
0.023192
0.065514
0.120490
0.062649
0.071348
0.121820
0.113954
0.060546
0.043843
0.064299
0.122953
0.030326
0.083183
0.081576
0.089516
0.077542
0.078313
0.100374
-0.003451
-0.000950
0.074324
0.162216
0.205556
0.377989
0.691243
1.073926
1.307246
1.433787
1.410781
1.155246
0.762176
0.412859
0.085127
-0.125357
-0.099077
-0.221250
-0.158636
-0.052661
-0.033246
0.046618
0.164630
0.123327
0.130250
0.107983
0.035770
0.025425
0.164464
0.108123
0.121084
0.149712
0.104049
0.158435
0.149284
0.241303
0.279182
0.311830
0.251633
0.256605
0.379118
0.356443
0.355237
0.392915
0.370444
0.421660
0.540864
0.522204
0.466407
0.504088
0.490773
0.516663
0.546226
0.537585
0.617812
0.565305
0.569875
0.547598
0.587530
0.526217
0.549829
0.669091
0.579837
0.594261
0.573606
0.502303
0.512303
0.508173
0.456553
0.495789
0.438232
0.457476
0.469593
0.446213
0.413124
0.325867
0.287362
0.328497
0.318688
0.308178
0.210539
0.312464
0.286290
0.180838
0.211843
0.178445
0.142429
0.174096
0.149176
0.169104
0.182096
0.210561
0.126041
0.144405
0.098264
0.242340
0.100948
0.131654
0.155237
0.119464
0.102524
0.002893
0.120277
0.080785
0.029362
0.132788
0.079600
0.145769
0.026708
0.115698
0.076858
0.093908
0.031218
0.093162
0.097776
0.048038
0.071842
0.126324
0.125040
0.055700
0.083612
0.106672
0.072609
0.099874
0.023729
0.069590
0.162511
0.111702
0.041610
0.052554
0.081064
0.118936
0.123622
0.125404
0.064753
0.075889
0.119082
0.129697
0.040747
0.100507
0.148492
0.056946
0.088359
0.084014
0.061599
0.097241
0.060325
0.040161
0.092387
0.169227
0.169714
0.134028
0.138662
0.121566
0.129028
0.154222
0.110124
0.159945
0.189108
0.211229
0.199788
0.228712
0.170071
0.207857
0.279418
0.164287
0.244561
0.252589
0.225528
0.216958
0.308746
0.250012
0.289084
0.309080
0.184060
0.163217
0.186075
0.258349
0.196340
0.143105
0.223713
0.165820
0.167011
0.159099
0.150241
0.168322
0.116480
0.124433
0.113020
0.161076
0.120450
0.105592
0.173446
0.069015
0.129635
0.064936
0.060759
0.118115
0.072408
0.181108
0.068649
0.040994
0.066049
0.122517
0.124314
0.480629
0.721105
1.092950
1.364637
1.465772
1.428533
1.160688
0.833278
0.418409
0.083717
-0.047820
-0.130785
-0.099654
-0.065242
-0.088406
0.032085
0.085581
0.046080
0.161069
0.108442
0.090411
0.117996
0.092182
0.097427
0.133031
0.101316
0.133896
0.106145
0.208391
0.193568
0.219157
0.168285
0.216648
0.142407
0.225615
0.290336
0.318225
0.289552
0.352164
0.409090
0.440732
0.388308
0.446309
0.417790
0.411144
0.552205
0.448024
0.437537
0.488759
0.524706
0.531733
0.507889
0.591732
0.456538
0.567777
0.625779
0.563570
0.536236
0.535855
0.536231
0.556481
0.454436
0.447161
0.436359
0.411001
0.494560
0.427869
0.492076
0.370118
0.346580
0.290674
0.282413
0.325051
0.378310
0.236866
0.191602
0.231753
0.169568
0.208509
0.120310
0.217290
0.153101
0.140825
0.093084
0.072511
0.001439
0.064197
0.047283
0.110575
0.088099
0.019532
-0.029301
0.046644
0.099235
0.065956
0.026997
0.053946
0.017962
0.079673
0.113436
0.057912
-0.019067
-0.045922
0.035034
0.030206
0.032789
-0.094253
0.019167
0.007140
0.034423
0.044919
0.003378
-0.055938
-0.012626
0.068166
0.005807
0.021559
0.070422
0.049090
0.066840
0.054950
-0.038199
-0.023662
0.044043
0.016362
0.015013
0.019645
0.060901
-0.076950
0.000490
0.005366
0.057029
0.046113
0.012247
-0.023860
0.006011
0.125611
0.049914
0.041046
0.050205
-0.007244
0.038713
0.115332
0.051193
-0.021215
0.047643
0.062651
0.078817
0.065763
0.091713
0.134691
0.143886
0.084869
0.126164
0.031239
0.081326
0.096456
0.128579
0.083156
0.153626
0.117008
0.102631
0.074623
0.141237
0.180761
0.185772
0.188105
0.152393
0.165202
0.134852
0.112086
0.068897
0.081598
0.063470
0.128575
0.048327
0.099859
0.045627
0.109773
-0.008315
-0.028769
0.057340
0.039798
0.006832
0.023034
-0.017307
-0.007547
-0.096566
-0.002041
-0.058474
0.079358
0.055269
-0.108465
-0.056972
-0.051038
-0.081804
-0.038259
-0.040188
0.060589
0.227632
0.296197
0.720630
0.975113
1.282183
1.436786
1.315865
1.059625
0.679392
0.362305
-0.014863
-0.160064
-0.229170
-0.268073
-0.113769
-0.087095
-0.055806
-0.034166
-0.000462
-0.022027
-0.054219
-0.012805
0.141661
0.030995
-0.020263
0.020901
0.043595
0.098228
0.060959
0.057664
0.043025
0.119114
0.092798
0.084177
0.174485
0.161436
0.220346
0.232340
0.219615
0.270693
0.354392
0.248284
0.283486
0.342122
0.371355
0.403486
0.354425
0.451341
0.435734
0.433518
0.380504
0.503840
0.428898
0.430723
0.500159
0.486436
0.486675
0.575186
0.431726
0.510403
0.462861
0.544396
0.441106
0.402416
0.382894
0.360188
0.313299
0.396222
0.290830
0.284952
0.275793
0.269538
0.260512
0.278305
0.171276
0.186023
0.080886
0.103732
0.116806
0.089681
0.135775
0.096341
0.073037
0.025898
0.031809
0.044298
0.111798
0.027529
-0.019410
0.040031
-0.001761
-0.104561
-0.051584
-0.021515
-0.042480
-0.017531
-0.012709
-0.057202
0.001923
0.041847
0.023020
-0.018196
-0.000191
-0.008426
-0.082725
-0.053152
-0.067948
-0.035684
0.011020
-0.064998
-0.101884
-0.047241
0.022443
-0.083212
-0.035795
-0.105156
-0.071667
-0.066483
0.013173
-0.075675
0.021620
0.015053
-0.077376
-0.014461
-0.090013
-0.012614
0.018186
-0.055370
-0.036124
-0.134939
0.020297
-0.091220
-0.040446
-0.024833
0.007334
-0.048863
-0.003025
-0.052137
-0.097451
0.022570
-0.046492
-0.056607
-0.049605
-0.097430
-0.006204
-0.063231
0.053757
-0.007921
0.054142
-0.036152
0.001352
0.072252
0.093448
0.102941
0.082268
0.021170
0.124971
0.045957
0.076957
0.144080
0.095314
0.110882
0.125008
0.182864
0.181996
0.245002
0.170215
0.188939
0.102655
0.174822
0.181232
0.150798
0.031132
0.030380
0.065253
0.088803
0.027230
0.079455
0.040517
0.060692
0.045970
-0.012310
0.038692
0.037834
-0.019777
-0.005419
-0.029336
-0.029350
-0.025501
0.021417
-0.091710
0.026512
0.033923
-0.002314
0.015271
0.029541
-0.092545
-0.082959
0.023997
0.060796
0.192098
0.302575
0.728533
0.902266
1.327083
1.424107
1.308156
1.004830
0.761126
0.343403
-0.011540
-0.166431
-0.271499
-0.252701
-0.255214
-0.045734
-0.127064
0.028437
0.070034
-0.060800
0.056930
0.032045
-0.025204
0.076162
0.056325
0.094356
0.078112
0.110719
0.161840
0.085963
0.113316
0.125663
0.139976
0.209393
0.204967
0.192276
0.185121
0.263036
0.303383
0.366811
0.323094
0.320598
0.254170
0.338237
0.363978
0.455438
0.433555
0.523024
0.464452
0.485324
0.440497
0.463033
0.502718
0.529056
0.526185
0.525571
0.553631
0.504354
0.438229
0.483997
0.451352
0.443330
0.507825
0.462501
0.476084
0.477844
0.385964
0.374954
0.354120
0.318342
0.319556
0.327716
0.382640
0.286213
0.270958
0.242347
0.270750
0.232948
0.186093
0.186273
0.109284
0.095700
0.160689
0.030742
0.168522
0.022885
0.093629
0.051909
-0.013434
0.011488
0.033541
0.108789
0.038394
0.119363
0.056139
0.005325
0.070845
0.121607
0.064903
-0.009944
-0.019002
-0.084360
0.115505
0.029235
0.039379
0.036300
0.057038
0.043755
0.046296
0.004513
0.011316
0.075033
0.013257
0.090327
0.083300
-0.000129
0.014641
0.095331
0.029110
0.070151
0.028794
0.072591
0.006362
-0.017346
0.012516
0.056778
0.046180
0.039411
-0.010878
0.046715
0.037020
0.027121
0.076521
0.075754
0.043001
0.013508
0.017384
0.076890
0.049938
0.074801
0.061448
0.113121
0.036484
0.083679
0.109371
0.086786
0.033021
0.095282
0.106640
0.113986
0.135263
0.140845
0.148513
0.205291
0.164438
0.210672
0.170838
0.246256
0.234871
0.228652
0.232644
0.211814
0.217913
0.311858
0.220621
0.178270
0.193497
0.224368
0.287610
0.174036
0.294546
0.226442
0.182172
0.106188
0.118039
0.156228
0.174295
0.069006
0.160833
0.112223
0.140245
0.182423
0.194172
0.125411
0.051814
0.016959
0.091380
0.119599
0.023337
-0.015931
0.053851
0.064229
0.103676
0.080749
0.037546
0.101242
0.007322
0.023185
0.030768
0.116456
0.342463
0.448830
0.793026
1.189588
1.465540
1.416892
1.391046
1.147622
0.752177
0.428241
0.177315
-0.091778
-0.084688
-0.118799
-0.030080
0.052210
0.150418
0.024752
0.134124
0.105846
0.123685
0.121727
0.041100
0.084601
0.120825
0.193672
0.160624
0.200202
0.193041
0.206367
0.152926
0.286877
0.253448
0.288153
0.237698
0.295064
0.309830
0.340979
0.408302
0.363846
0.427371
0.454336
0.479014
0.408148
0.559159
0.504095
0.454302
0.485052
0.498017
0.530117
0.588753
0.547391
0.632148
0.544608
0.594780
0.662751
0.644872
0.593828
0.595024
0.582418
0.534580
0.636955
0.507287
0.568785
0.418699
0.568839
0.439788
0.391007
0.415676
0.414866
0.413692
0.374949
0.370496
0.396375
0.403059
0.210419
0.250345
0.289651
0.216612
0.320926
0.259589
0.235868
0.190224
0.224294
0.207272
0.180524
0.212208
0.172638
0.086067
0.085932
0.164056
0.115822
0.116871
0.085886
0.161124
0.097945
0.127520
0.100971
0.068380
0.099082
0.092615
0.091929
0.113839
0.040620
0.050751
0.098694
0.092125
0.071240
0.061124
0.124270
0.032803
0.030680
0.127951
0.028651
0.134228
0.115409
0.106214
0.095683
0.088756
0.122484
0.138843
-0.003013
0.085710
0.050052
0.127264
0.080787
0.078438
0.021294
0.070028
0.148253
0.114821
0.044128
0.118283
0.075761
0.113039
0.115464
0.162415
0.075188
0.080368
0.059070
0.068496
0.106425
0.063459
0.053603
0.139927
0.167625
0.152385
0.188707
0.126764
0.202129
0.134921
0.052175
0.167258
0.139817
0.190151
0.166885
0.151941
0.196861
0.235041
0.269670
0.202972
0.243817
0.206218
0.214701
0.245274
0.253302
0.211059
0.307366
0.207841
0.216382
0.295000
0.123722
0.216997
0.173737
0.155704
0.157685
0.062025
0.083383
0.112916
0.131144
0.094434
0.104905
0.047369
0.047610
0.011308
0.029531
0.067451
0.134689
0.068107
0.030943
0.131670
0.102620
0.101815
0.005781
0.079623
0.054296
0.115911
-0.024521
0.027987
0.096261
0.272770
0.462783
0.789284
1.031382
1.314281
1.492051
1.368169
1.083616
0.758716
0.346932
0.001757
-0.112250
-0.214629
-0.195545
-0.075641
-0.058571
-0.016485
0.080641
0.077838
0.071900
0.050862
0.081807
0.103263
0.056137
0.147854
0.037780
0.068109
0.153362
0.076895
0.125057
0.179712
0.230434
0.238047
0.195817
0.194459
0.208859
0.159764
0.218973
0.325552
0.317972
0.220854
0.349032
0.321927
0.370431
0.415826
0.425600
0.580494
0.418128
0.437985
0.527505
0.527737
0.484672
0.471291
0.580887
0.588228
0.578346
0.548071
0.600182
0.419829
0.457228
0.441764
0.555393
0.441581
0.351733
0.437412
0.445208
0.386217
0.349942
0.415304
0.354492
0.349850
0.255002
0.224349
0.227662
0.309189
0.217656
0.196789
0.224219
0.137295
0.125521
0.189603
0.118022
0.087318
0.087561
0.087796
0.108893
0.072194
0.042080
0.036947
0.057154
0.037049
-0.077799
0.100826
-0.027621
-0.028140
-0.010932
-0.004085
0.039404
-0.031721
-0.047286
-0.046776
-0.045409
-0.045534
0.013448
-0.078369
0.040907
-0.028182
-0.052496
0.027495
-0.063791
-0.008904
0.011491
-0.022422
-0.016969
0.005360
-0.050571
-0.047577
-0.067452
0.042784
0.049491
-0.010146
0.053895
-0.022336
0.027504
0.000506
-0.063173
-0.010262
-0.066223
-0.090078
-0.007870
-0.093397
-0.020681
0.006431
-0.081329
-0.086525
0.014388
-0.114440
-0.000210
-0.081237
-0.076858
-0.063619
-0.022344
-0.009604
-0.079778
-0.015570
-0.056232
-0.068850
-0.113498
0.055153
-0.004425
-0.015756
0.042006
-0.024730
-0.031895
0.020480
0.063468
0.040323
0.104707
0.001748
0.081900
0.189375
0.121370
0.061225
0.078184
0.082242
0.121543
0.077499
0.077981
0.107426
0.185068
0.100589
0.061374
0.159025
0.058145
0.051412
0.002651
0.032087
-0.047173
0.028134
-0.001372
0.024938
0.000920
-0.040516
-0.071583
-0.040877
-0.062181
-0.005856
-0.031817
-0.080177
-0.072398
-0.025212
-0.111701
-0.015659
-0.168772
-0.074988
-0.043440
-0.026705
-0.024208
-0.171778
-0.037480
0.123088
0.342688
0.665660
0.815664
1.197149
1.341966
1.246650
0.947428
0.638595
0.247553
-0.087912
-0.222701
-0.285801
-0.285984
-0.198891
-0.134634
-0.144181
-0.048515
-0.062650
-0.018600
-0.012078
-0.026176
-0.023748
-0.093481
-0.019962
0.006457
0.012584
0.015457
-0.015405
0.017574
0.028345
0.033332
0.109267
0.169561
0.016761
0.091578
0.130957
0.234941
0.113230
0.153811
0.252613
0.333999
0.231134
0.342248
0.418954
0.368710
0.404803
0.443773
0.458869
0.373690
0.345392
0.327224
0.439984
0.459736
0.422845
0.432767
0.450023
0.464806
0.446582
0.371141
0.487637
0.398528
0.397073
0.342524
0.327866
0.297987
0.309770
0.281553
0.307065
0.206714
0.234619
0.151274
0.168635
0.155811
0.195989
0.090536
0.106976
0.130283
0.042080
0.012451
0.020646
0.024218
0.015114
-0.011808
0.040114
0.028383
0.013234
-0.099784
-0.096747
-0.158468
0.017662
-0.014937
-0.013382
-0.088420
-0.060369
-0.123159
-0.095184
-0.021716
-0.059863
-0.019746
-0.104131
-0.028403
-0.065238
-0.128861
-0.103912
-0.157254
-0.138061
-0.117710
-0.052763
-0.086743
-0.085562
-0.004298
-0.057957
-0.056858
-0.106993
-0.058783
0.005898
-0.062838
-0.061093
-0.047300
-0.056433
-0.120502
-0.043268
-0.122069
-0.106781
-0.017127
-0.073156
-0.113548
-0.072187
-0.053083
-0.101005
-0.023292
0.031345
-0.138265
-0.059818
-0.134902
-0.063673
-0.123473
-0.052785
0.007947
0.025749
-0.064970
-0.002091
0.050097
-0.028218
-0.074593
-0.023956
0.040175
0.020238
-0.021893
-0.077232
-0.047939
0.093277
0.015287
0.086262
0.069269
0.033465
0.057843
0.051735
0.142224
0.071472
0.199667
0.133732
0.067016
0.176956
0.078760
0.039494
0.165184
0.124521
0.121338
0.024107
0.103268
0.134218
0.084868
0.026434
0.013197
0.053761
0.105876
-0.001154
0.066214
0.018879
-0.042208
0.033182
0.012381
0.011848
0.044571
-0.043913
-0.067250
-0.131155
-0.054471
-0.000811
0.050900
-0.107300
-0.049033
-0.082731
-0.066623
-0.044976
-0.024777
-0.073847
-0.058305
0.110718
0.300540
0.593340
0.945333
1.167700
1.384665
1.251077
1.053258
0.693041
0.264080
0.062069
-0.187251
-0.273590
-0.175310
-0.263609
-0.101132
-0.042568
-0.022122
-0.120552
-0.074734
-0.010374
-0.015340
0.028980
-0.030591
0.037682
-0.047115
0.042435
0.003130
0.097133
0.029981
0.104396
0.098950
0.094947
0.167754
0.187733
0.225281
0.192029
0.196903
0.243143
0.212114
0.271504
0.280531
0.337229
0.392600
0.470607
0.456204
0.393503
0.382722
0.448627
0.469328
0.490542
0.428481
0.465052
0.497221
0.564438
0.572912
0.472782
0.446896
0.548230
0.505893
0.487842
0.518948
0.496065
0.478484
0.405403
0.401131
0.350638
0.391979
0.359978
0.340475
0.386038
0.278539
0.228870
0.258915
0.254561
0.241296
0.117864
0.107422
0.128543
0.118222
0.133005
0.101504
0.130116
0.061488
0.073877
0.082859
0.065178
-0.006876
0.098596
0.042103
0.029382
-0.044897
0.037906
0.089534
0.084249
0.040779
-0.019599
0.052107
0.052656
0.039650
0.014105
0.036389
-0.008923
0.022585
0.068356
0.084731
0.060168
0.117968
-0.003509
-0.030411
0.000033
0.032570
-0.030105
0.001991
-0.068592
0.053846
-0.021775
0.020575
0.076766
-0.008403
0.011252
0.017717
-0.062474
0.009391
0.128340
0.014052
0.040002
0.035718
0.034755
0.034460
-0.010085
0.028856
0.021033
0.134072
0.019066
0.043559
0.085722
0.104042
0.083914
0.064475
0.074169
0.002907
0.064356
0.081840
-0.025155
0.034904
0.050970
0.027134
-0.017725
0.115348
0.058611
0.187924
0.034192
0.114798
0.122620
0.102423
0.097032
0.223481
0.157514
0.134737
0.169761
0.277321
0.267399
0.171171
0.144283
0.211252
0.251405
0.209933
0.188714
0.239334
0.262757
0.188323
0.138802
0.163380
0.162601
0.140911
0.146475
0.109737
0.106291
0.067090
0.082196
0.124939
0.028517
0.080910
0.088709
0.078963
0.005770
0.098290
-0.007327
0.004239
0.051750
0.075085
0.006404
0.060875
0.050394
0.004582
0.012894
-0.028549
0.074258
0.117109
0.166030
0.454802
0.693203
1.123663
1.344419
1.500000
1.334765
1.172475
0.761366
0.412997
0.074059
-0.155259
-0.183234
-0.213727
-0.120642
-0.074761
-0.033902
-0.015091
0.115097
0.041995
0.082132
0.162219
0.091432
0.088698
0.053161
0.146345
0.134518
0.143209
0.154529
0.087870
0.140419
0.189074
0.262477
0.242018
0.229662
0.219327
0.222643
0.384525
0.291372
0.334949
0.342215
0.376255
0.354354
0.389172
0.462486
0.450636
0.470883
0.457798
0.494722
0.546765
0.534444
0.572260
0.542061
0.532743
0.535168
0.540853
0.505905
0.549803
0.414556
0.557753
0.560431
0.507965
0.480745
0.460599
0.516079
0.448602
0.430381
0.412603
0.370331
0.313454
0.420517
0.337297
0.310583
0.262555
0.221634
0.198076
0.272368
0.265897
0.161256
0.251013
0.216174
0.117608
0.107068
0.107334
0.097050
0.127178
0.059730
0.122374
0.154478
0.128252
0.066767
0.144544
0.011804
0.084266
0.010226
0.093359
0.094604
0.110915
0.056601
-0.001806
0.087700
-0.021504
0.061310
0.010530
0.073243
-0.001986
0.081047
-0.009190
0.002522
0.087271
0.019212
0.048179
-0.040727
0.057765
0.057154
0.028568
0.051963
0.001195
-0.024374
0.044307
0.159747
0.076567
0.057888
0.095013
-0.002932
0.003542
0.037949
-0.077408
-0.007318
0.074836
0.120763
-0.018356
0.001873
-0.026043
0.023460
0.046560
0.058919
-0.014586
0.092900
-0.000857
0.022844
0.019772
-0.034833
0.013221
0.047137
0.062362
0.116481
0.028917
0.058275
0.085794
0.094025
0.055645
0.070272
0.099538
0.174820
0.060542
0.081234
0.027425
0.155276
0.110099
0.162595
0.094705
0.203074
0.196895
0.151424
0.153885
0.110546
0.213230
0.141018
0.128776
0.190666
0.055938
0.122848
0.096163
0.188014
0.082530
0.167285
0.128200
0.093818
0.059061
0.027612
0.039461
-0.002501
0.016738
-0.033846
-0.002818
-0.084070
-0.061778
0.008741
-0.083123
-0.062795
0.044154
-0.017923
0.064110
-0.079770
-0.108321
0.021546
0.014072
0.036311
-0.015498
0.093015
0.424286
0.546541
0.997679
1.218795
1.330286
1.304271
1.032053
0.701452
0.233369
0.061523
-0.134649
-0.299865
-0.150177
-0.249587
-0.048853
-0.094212
-0.095058
-0.056929
-0.019552
0.002980
0.007258
-0.070476
0.063906
0.017095
-0.007294
0.025497
0.084463
0.140819
0.059530
0.154502
0.151092
0.115900
0.168316
0.104858
0.175694
0.177208
0.154792
0.168565
0.214506
0.348335
0.253098
0.324994
0.377372
0.418430
0.365447
0.337784
0.380195
0.460476
0.404061
0.484918
0.413456
0.455990
0.523858
0.443136
0.444844
0.461461
0.511030
0.447230
0.439279
0.494700
0.460056
0.506976
0.374211
0.379700
0.341152
0.305017
0.323002
0.349106
0.318993
0.218318
0.231996
0.108156
0.202188
0.128536
0.171509
0.153699
0.085647
0.067373
0.032033
0.055395
0.033446
0.036039
0.049641
0.089852
0.069742
-0.065446
-0.040995
-0.077635
-0.040739
-0.029360
-0.065061
-0.111369
-0.069984
-0.070697
-0.022154
-0.006311
-0.025469
-0.092818
-0.053791
-0.058963
-0.051575
-0.113040
-0.061480
-0.049361
-0.075163
-0.100348
-0.069665
-0.074655
-0.085418
-0.092744
-0.024197
-0.138379
-0.033771
-0.037158
-0.090823
-0.080565
-0.101651
-0.059044
-0.014751
-0.075777
-0.058799
-0.069745
-0.112400
-0.138794
-0.068902
-0.154455
-0.146381
-0.081985
-0.145174
-0.079442
0.050251
-0.148461
-0.085519
-0.098880
-0.054370
-0.029792
-0.139814
-0.094615
-0.087377
-0.062608
0.018751
-0.098251
-0.139439
-0.016148
-0.041439
-0.016501
-0.085262
-0.066486
0.022325
0.002747
-0.078665
-0.116024
0.028690
0.014796
0.001680
0.053640
0.024736
0.048562
0.130926
0.083754
0.053457
0.062244
0.006822
-0.030624
0.094959
0.126684
0.069945
0.073360
0.003806
0.006527
0.100746
0.030150
-0.018851
0.036693
0.024802
0.071088
0.073636
-0.112582
-0.084839
-0.016848
-0.113275
-0.090489
-0.144853
0.011001
-0.037966
-0.093290
-0.045632
-0.090525
-0.099018
-0.147444
-0.133716
-0.087740
-0.071202
-0.072876
-0.101052
-0.201116
-0.094641
-0.122176
-0.024020
0.006675
0.292757
0.666984
0.927213
1.198989
1.357381
1.285872
1.002715
0.578115
0.278627
-0.062384
-0.281453
-0.453459
-0.323458
-0.235968
-0.244368
-0.107703
-0.091096
-0.099998
-0.060764
-0.021696
-0.073066
-0.035327
-0.090564
-0.041112
-0.046738
0.022725
0.002027
0.025403
0.062535
0.039792
0.025607
0.020495
0.031340
0.054770
0.088173
0.081410
0.193506
0.118488
0.222521
0.244939
0.284815
0.348623
0.388111
0.266345
0.306351
0.290109
0.267384
0.410836
0.337110
0.337458
0.412365
0.383569
0.428888
0.437028
0.424708
0.472051
0.419856
0.412646
0.447812
0.397723
0.430817
0.465891
0.322845
0.300284
0.285626
0.362982
0.296310
0.238116
0.236627
0.171882
0.106918
0.185911
0.199442
0.062765
0.132190
0.087576
0.129336
0.082947
0.022203
0.056323
0.038073
-0.003491
-0.009437
0.073801
-0.026866
0.050203
-0.046204
0.033674
0.005455
-0.036127
-0.041866
-0.089032
-0.031364
-0.040904
-0.135089
-0.029868
-0.018322
-0.061852
-0.086112
-0.075494
-0.047058
-0.072615
-0.081402
-0.053364
-0.065671
-0.078721
0.001772
-0.101014
-0.127139
-0.147147
-0.072026
-0.094811
-0.112921
-0.031286
-0.080779
-0.113676
-0.040780
-0.105013
-0.098581
-0.080770
-0.020684
-0.070849
-0.077912
-0.086266
-0.104290
-0.036436
-0.082981
-0.043049
-0.071045
-0.042273
-0.072635
-0.102058
-0.043948
-0.039794
-0.015912
-0.101857
-0.132628
-0.045985
-0.068518
-0.008748
-0.023583
-0.071298
-0.077019
-0.030736
-0.014078
0.055593
-0.030156
-0.058910
-0.006015
0.098176
0.034216
0.043311
0.085834
0.030372
-0.000846
0.128497
0.152945
0.059247
0.055990
0.026593
0.135499
0.109745
0.133560
0.153236
0.154204
0.173306
0.040794
0.106649
0.068548
0.106609
0.202469
0.116995
0.125723
0.141762
-0.001399
0.037230
0.097115
0.032690
0.067241
0.024724
-0.005040
0.105150
0.019412
0.024695
0.042387
-0.053243
-0.025430
-0.078468
0.005337
-0.056006
0.030001
-0.065126
-0.021864
-0.074325
-0.051313
-0.052311
-0.012489
-0.041946
-0.006172
0.184807
0.335336
0.678662
1.035581
1.368244
1.316695
1.206618
1.001037
0.653484
0.296205
-0.002792
-0.242553
-0.256147
-0.232286
-0.126028
-0.083730
-0.059153
0.036009
-0.046969
0.016080
-0.001407
0.021843
0.089804
0.063710
0.042141
0.057547
0.079670
0.067898
0.037241
0.066739
0.132531
0.107888
0.115530
0.141674
0.192253
0.214023
0.237561
0.183603
0.256907
0.303407
0.357106
0.325650
0.303637
0.341818
0.422165
0.498124
0.510690
0.499488
0.449808
0.496372
0.516259
0.571586
0.585485
0.544838
0.612159
0.519397
0.508840
0.529123
0.477426
0.453063
0.496969
0.499819
0.444458
0.454427
0.423940
0.509311
0.430141
0.352166
0.304222
0.363083
0.369022
0.286218
0.269115
0.244109
0.269262
0.187601
0.179109
0.235848
0.208342
0.160424
0.226523
0.196427
0.048697
0.055541
0.099226
0.113732
0.150324
0.107161
0.069198
0.079952
0.052828
0.049984
0.117728
0.054123
0.016516
0.103721
0.023429
0.171308
0.138153
0.038613
-0.043056
0.121456
0.092692
0.066962
0.055574
-0.027141
0.024004
0.046439
0.072276
0.061330
0.019173
0.109167
0.151762
0.050420
0.044309
0.175797
0.033783
0.038056
0.087475
0.101295
0.083904
0.073337
0.037203
0.037098
0.032353
-0.004004
0.045977
0.080424
0.027724
0.066216
0.090812
0.039223
0.059119
0.032950
0.102791
0.002742
0.004787
0.052828
0.024515
0.117612
0.080831
0.112310
0.078230
0.077020
0.053885
0.082416
0.123000
0.095529
0.068753
0.170510
0.125625
0.193215
0.081201
0.242483
0.190112
0.218835
0.227930
0.234090
0.152920
0.221262
0.197310
0.234171
0.234305
0.278321
0.216389
0.203513
0.281089
0.253576
0.287761
0.203174
0.219408
0.186737
0.204047
0.126391
0.124101
0.195420
0.161948
0.138312
0.148621
0.100753
0.122556
0.151317
0.176454
0.083366
0.088425
0.217436
0.088781
0.014314
0.122531
0.077484
0.129596
0.085456
0.101533
0.097352
0.127949
0.094590
-0.047983
0.001225
0.111382
0.092479
0.280600
0.380165
0.681159
1.083417
1.395084
1.395111
1.420918
1.165228
0.694229
0.435902
0.049264
-0.124931
-0.193538
-0.135525
-0.156677
0.002378
0.065246
0.045929
0.046428
0.171873
0.014145
0.065355
0.086684
0.113788
0.106829
