0.054817
0.103719
-0.002714
-0.042474
-0.049790
-0.019132
0.027991
-0.005314
-0.001134
-0.040577
0.056782
-0.047867
0.022904
-0.006907
0.019325
0.003188
0.088826
0.024315
-0.008619
-0.013995
0.021904
-0.018358
-0.007684
0.031638
-0.027426
0.012873
-0.003600
0.019279
0.095329
0.099844
-0.067690
0.046245
0.058847
-0.036714
0.049967
0.077860
0.034511
0.076591
0.061762
0.056188
0.139352
0.140695
0.047604
0.052844
0.055689
0.074258
0.105185
0.052533
0.177922
0.155626
0.165793
0.059323
0.150899
0.159381
0.189727
0.194918
0.228448
0.176397
0.176715
0.229896
0.303067
0.311177
0.132009
0.169094
0.237103
0.101545
0.103339
0.211644
0.122095
0.224842
0.093017
0.092804
0.053383
0.099752
0.074389
0.149225
0.108739
-0.006609
0.120701
0.059348
0.128916
0.074841
0.118235
0.078541
-0.025319
0.107844
0.032632
0.121734
0.056988
0.076560
0.056420
0.050308
0.035591
0.063235
0.159407
-0.038228
-0.005429
0.024379
0.041893
0.018292
0.042078
0.063655
0.076680
-0.006380
0.002901
-0.009745
0.102298
-0.001262
0.014736
-0.023762
0.083622
-0.036339
0.129480
0.289162
0.599318
0.978452
1.185617
1.500000
1.436871
1.372073
1.147925
0.747034
0.504198
0.259130
0.002767
-0.159415
-0.241297
-0.187897
-0.174606
-0.178341
-0.053679
-0.083725
0.012734
0.046276
0.045934
0.132227
0.092495
0.047911
0.046899
-0.003750
0.128240
0.035057
0.090893
0.015688
0.087874
0.086738
0.022596
0.131940
0.151121
0.152183
0.082122
0.057093
0.033562
0.030170
0.143760
0.095401
0.077896
0.130291
0.154299
0.206150
0.181367
0.233761
0.110420
0.183141
0.115020
0.196712
0.209859
0.169543
0.137404
0.264534
0.321431
0.291387
0.298640
0.311687
0.400598
0.424006
0.400563
0.467230
0.299535
0.420346
0.453888
0.466999
0.526297
0.500731
0.620653
0.526770
0.659471
0.550795
0.549454
0.612960
0.494935
0.557084
0.616425
0.574644
0.585842
0.614695
0.478120
0.543822
0.522095
0.544776
0.544577
0.458501
0.464014
0.495312
0.389713
0.417248
0.351082
0.372971
0.442394
0.299875
0.350507
0.296583
0.304962
0.280698
0.225972
0.243890
0.138976
0.187948
0.206743
0.141907
0.155993
0.075684
0.170787
0.103123
0.116320
0.155146
0.096271
0.133898
0.108346
0.107899
0.110057
0.138347
0.073609
0.155490
0.106479
0.072361
0.120712
0.121849
0.080115
0.020474
0.066972
0.094909
0.083373
0.160488
0.059524
0.054500
0.091051
0.101454
0.016660
0.110301
0.053967
0.115746
0.100199
0.074354
-0.015663
0.109408
0.149772
0.059593
0.058172
0.108315
0.054502
0.077793
0.052754
0.002327
0.053848
0.045253
0.081140
0.076820
0.057042
0.097486
0.016622
0.177153
0.118176
0.076784
0.098982
0.102341
0.033608
0.068768
0.073829
0.109435
0.115760
0.035901
0.138185
0.154339
0.036880
0.026380
0.015899
0.069956
0.085443
0.098726
0.024371
0.073942
0.035237
0.066041
0.024197
0.055411
0.005662
0.125539
0.036442
0.073520
0.075240
0.081371
0.107730
0.179947
0.044249
0.052437
0.056055
-0.007415
0.092699
0.054918
0.121443
0.156826
0.001409
0.140092
0.038479
0.085933
0.040062
0.073262
0.020252
0.099513
0.066063
0.030552
0.065983
0.110996
0.073791
0.029035
0.122961
0.011755
0.152627
0.077582
0.107422
0.020754
0.083398
0.032686
0.088696
0.057772
0.051177
0.054225
0.042685
0.062910
0.138572
0.128290
0.105530
0.129213
0.136742
0.131335
0.168056
0.223592
0.287672
0.184129
0.309329
0.201007
0.224544
0.208929
0.215266
0.204114
0.207917
0.147028
0.195510
0.249622
0.180222
0.100804
0.154712
0.157749
0.165388
0.070054
0.081602
0.116535
0.099978
0.056975
0.080000
0.065276
0.033957
-0.029814
0.049619
0.044705
-0.032911
0.091059
-0.035695
-0.011895
0.007229
0.038579
0.076804
0.033077
0.002069
0.016082
0.002961
-0.026088
0.023964
-0.009675
-0.031568
0.055619
-0.006587
-0.024033
0.009610
0.018503
0.036033
-0.011576
-0.028257
-0.019196
-0.018712
-0.030815
0.005406
0.009009
-0.087267
-0.072070
0.083184
0.203625
0.507706
0.851527
1.174946
1.317160
1.390891
1.314433
1.021350
0.727880
0.456679
0.180983
0.011119
-0.262992
-0.310154
-0.329953
-0.264763
-0.141848
-0.087337
-0.124494
-0.027533
0.010787
-0.019893
-0.047831
0.013192
-0.004925
0.040646
0.099225
0.020031
0.037195
-0.010088
-0.039342
0.024887
-0.010144
0.021278
0.030701
-0.020667
-0.028319
0.001016
0.064631
0.011483
0.093544
-0.004344
-0.028281
-0.031002
0.042355
0.012305
0.076349
0.096259
0.129921
0.004672
0.061671
0.002333
0.105976
0.134377
0.048641
0.090120
0.077551
0.173058
0.053708
0.210199
0.142641
0.233537
0.354625
0.238570
0.302997
0.277848
0.320382
0.366838
0.460577
0.456375
0.443443
0.392135
0.460393
0.433365
0.412984
0.378171
0.548020
0.516634
0.468601
0.475029
0.460678
0.417026
0.513825
0.499894
0.314533
0.388448
0.413261
0.402840
0.378912
0.383044
0.278237
0.396541
0.333244
0.312189
0.226489
0.219363
0.200771
0.178369
0.195262
0.092927
0.078583
0.208182
0.057294
0.201919
0.033867
0.059163
0.076406
0.063813
0.031054
-0.014087
0.030770
-0.009142
-0.001614
-0.020902
-0.029878
0.030732
0.002600
0.018377
-0.100253
-0.080790
-0.066607
0.020890
-0.045103
-0.009875
-0.016954
-0.085359
-0.034707
0.011333
-0.041081
-0.049899
-0.071573
-0.043306
-0.004317
-0.086008
-0.070099
-0.080231
0.010109
-0.073527
-0.143155
-0.067980
-0.062644
-0.011796
-0.090148
-0.049038
-0.097582
0.018472
0.019428
-0.106630
-0.025800
-0.017217
-0.085086
-0.116989
0.017426
-0.083809
-0.017114
-0.010461
-0.077860
-0.086605
-0.039969
-0.079177
-0.087320
-0.034901
-0.013135
-0.079349
-0.025404
-0.074960
0.022181
-0.031823
0.016946
-0.029222
-0.059219
-0.013586
-0.068981
0.011713
-0.108901
-0.129163
0.028049
-0.062201
-0.032338
-0.026162
-0.085414
-0.023847
-0.002826
-0.025986
-0.026629
0.006504
0.019196
-0.069083
-0.062307
0.027580
-0.053609
-0.148945
-0.012011
-0.022335
0.068817
-0.074662
-0.084824
-0.027607
-0.037410
0.037913
-0.008159
-0.062078
-0.086457
0.014609
-0.008362
-0.004651
-0.081402
-0.090070
-0.040598
-0.070837
-0.015447
-0.029298
-0.061759
-0.007368
-0.040450
-0.053944
0.027586
0.021186
-0.038724
0.037680
-0.027479
-0.069623
-0.010939
0.041555
-0.008406
0.004957
0.084205
-0.067249
0.043348
0.069531
0.010443
0.091725
0.015750
0.109526
0.143161
0.178688
0.060456
0.185214
0.191042
0.156630
0.173775
0.142316
0.130142
0.070845
0.167011
0.166728
0.167207
0.098769
0.038153
0.098822
0.091479
0.163827
0.018600
0.097166
0.087451
0.003594
-0.031796
0.041451
0.055263
-0.011731
-0.030112
-0.001390
0.015565
-0.043282
-0.013979
-0.018733
-0.059469
-0.011664
0.012540
-0.074020
-0.047959
-0.033485
0.004380
-0.034634
0.003886
-0.033123
-0.108814
-0.049454
0.058791
-0.092019
0.008756
-0.012169
-0.015072
0.005081
0.043329
0.001147
-0.037629
-0.048982
-0.023324
-0.099338
-0.150223
-0.149362
-0.087066
-0.083314
0.109419
0.478088
0.817696
1.123508
1.328430
1.385224
1.329224
1.185637
0.770699
0.506495
0.244866
0.013406
-0.188598
-0.301843
-0.394765
-0.217919
-0.269973
-0.215990
-0.051907
-0.016188
0.011206
0.021686
0.008319
0.032999
0.031166
0.005521
0.004240
0.008998
-0.033841
0.012457
0.014326
0.041309
-0.018279
-0.004302
0.081120
-0.052636
0.088014
0.004324
0.088504
0.054559
0.052481
0.023402
-0.000186
0.123979
0.084076
0.097818
-0.037265
0.087929
0.054942
0.064039
0.016357
0.090034
0.104553
0.194902
0.112425
0.107441
0.251722
0.244843
0.199368
0.226858
0.251024
0.286976
0.334731
0.342718
0.294425
0.362886
0.453746
0.443448
0.400782
0.446180
0.462609
0.493825
0.508097
0.509376
0.496823
0.511105
0.513385
0.461035
0.612037
0.537617
0.610133
0.491963
0.563393
0.525915
0.546388
0.551334
0.440634
0.507026
0.458198
0.422331
0.382877
0.438054
0.429340
0.341468
0.245095
0.360490
0.276432
0.321955
0.314237
0.247362
0.212271
0.189864
0.146209
0.169466
0.140097
0.155323
0.165324
0.088647
0.201177
0.106146
0.163208
0.126658
0.126805
0.105732
0.077799
0.099600
0.044483
0.057697
0.079792
0.094134
0.107487
0.114766
0.139598
0.092695
0.038281
0.055685
0.137279
0.060374
0.071683
0.060532
0.115473
0.029950
0.007689
0.044546
0.015175
0.091117
0.062723
0.042298
0.069279
0.007580
0.102056
0.016905
0.048606
0.037265
0.121992
0.088312
0.102266
-0.064915
0.072319
0.150641
0.108115
0.046325
0.013624
0.011918
0.092601
0.072656
0.077939
0.008682
0.124722
0.045971
0.091581
0.111663
0.161407
0.087473
0.110929
0.064322
-0.002344
0.005857
0.079954
0.070684
0.096251
0.077069
0.151722
0.107327
0.180474
0.042226
0.123197
0.140131
0.050195
0.108768
0.121823
0.137049
0.040244
0.177314
0.087350
0.069820
0.080015
0.098342
0.082983
0.057910
0.005901
0.044121
0.081143
0.150952
0.094510
0.183555
0.058593
0.125280
0.075021
0.075733
0.026214
0.135478
0.140529
0.024064
0.062771
0.022121
0.148884
0.057479
0.107911
0.095797
0.055052
0.126236
0.096545
0.072844
0.058632
0.123711
0.104066
0.119606
0.090047
0.076245
0.072978
0.187090
0.052200
0.145817
0.128623
0.109870
0.175570
0.162943
0.213576
0.173741
0.223382
0.222787
0.190274
0.269239
0.212008
0.313513
0.234381
0.212103
0.213981
0.220056
0.303341
0.228113
0.231536
0.246801
0.301631
0.176510
0.200851
0.240762
0.289015
0.182215
0.150917
0.177692
0.167523
0.128946
0.158729
0.224443
0.144846
0.079137
0.169655
0.079328
0.049103
0.072173
0.192870
0.055201
0.135636
0.052735
0.038762
0.036911
0.088067
0.079619
0.137592
0.059486
0.051542
0.116724
0.123192
0.116307
0.095184
0.104734
0.013618
0.114101
0.127960
0.041810
0.168929
0.077009
0.125816
0.120985
0.089276
0.072369
0.056594
0.087641
0.023499
-0.088759
-0.063894
0.037263
0.296659
0.510833
0.808662
1.079774
1.463275
1.496955
1.416015
1.243481
0.937719
0.617501
0.280006
0.100738
-0.084269
-0.213010
-0.183395
-0.301508
-0.121174
-0.040662
-0.044690
0.079389
0.037752
0.021724
0.078708
0.106113
0.019030
0.080886
0.086179
0.107311
-0.009732
0.144320
0.159892
0.076429
0.143245
0.092363
0.018381
0.129698
0.079085
0.098501
0.102144
0.062694
0.048636
0.115625
0.050639
0.031864
0.083869
0.134163
0.115662
0.074097
0.154997
0.166307
0.165784
0.226874
0.183792
0.163334
0.131138
0.204013
0.259539
0.233332
0.245022
0.292763
0.252494
0.345589
0.327603
0.363151
0.395242
0.387078
0.379502
0.467738
0.424471
0.488952
0.428300
0.491171
0.476135
0.510800
0.518971
0.500678
0.503976
0.573467
0.590969
0.547506
0.538315
0.484716
0.549906
0.508692
0.525112
0.469307
0.469295
0.500233
0.445348
0.470999
0.425128
0.276725
0.408071
0.363165
0.370494
0.245993
0.241645
0.317926
0.283500
0.185940
0.220624
0.162387
0.241967
0.225086
0.201699
0.080883
0.071433
0.110184
0.159639
0.126695
0.029676
0.080260
0.029206
0.057692
0.031533
0.003792
0.089369
0.027992
-0.027177
0.122085
-0.028184
-0.005592
0.040229
0.036573
0.066184
0.029192
-0.080752
-0.058116
-0.012022
-0.096330
-0.052349
0.029032
-0.015610
0.047736
-0.007265
0.065020
-0.003719
-0.005214
0.017738
0.026530
0.091651
0.021321
-0.039075
-0.015740
-0.007374
-0.031107
0.011662
0.017586
-0.057910
-0.052657
0.016850
0.027183
0.096847
-0.017863
0.026227
0.099626
0.065078
0.115006
-0.003971
0.047175
-0.060590
-0.009187
-0.023911
0.022939
-0.059442
-0.088382
-0.117644
-0.039667
-0.103892
0.002773
0.034471
-0.011541
-0.011849
-0.096211
0.078542
0.018574
-0.016118
-0.031263
-0.036878
0.045051
0.003545
-0.034020
0.001860
0.086183
-0.042060
-0.022190
0.037279
-0.087772
-0.028680
-0.161133
-0.006107
0.053052
0.030423
0.073286
0.009632
0.057497
-0.110823
-0.050972
0.013581
0.000487
0.002780
0.050069
-0.044129
0.066102
-0.073834
-0.047487
-0.094850
-0.029736
-0.012056
-0.044886
-0.076450
-0.042017
-0.068439
-0.066689
0.029937
-0.054391
-0.051260
0.006747
0.119371
-0.039824
-0.061773
-0.098902
-0.015971
-0.037001
0.016079
0.038685
-0.044761
0.026918
0.006773
-0.005509
0.117858
0.051658
0.063537
0.071586
0.031003
0.088804
0.131091
0.075969
0.167227
0.072065
0.126776
0.138316
0.130111
0.100802
0.209390
0.149447
0.068913
0.022728
0.129535
0.041648
-0.004099
0.003413
0.078733
0.046362
0.018078
0.005085
-0.005925
-0.016440
-0.107511
0.003433
-0.039233
-0.051980
-0.077359
-0.090702
0.020729
-0.007591
-0.067226
-0.101295
-0.065799
-0.042777
-0.080740
-0.047056
-0.140970
-0.031551
-0.065172
-0.142256
-0.041950
-0.100160
-0.093162
-0.094618
-0.073995
-0.100605
-0.057887
-0.081367
-0.048105
-0.027660
0.036219
-0.065950
-0.056690
-0.099448
-0.152831
-0.122104
-0.160639
-0.088982
0.051254
0.303009
0.701874
0.917073
1.194450
1.303638
1.338648
1.091091
0.838870
0.473308
0.294700
-0.053165
-0.173745
-0.397683
-0.379311
-0.352335
-0.329636
-0.237470
-0.199096
-0.157997
-0.118038
-0.185415
-0.054420
-0.111118
-0.036863
-0.104592
-0.078258
-0.076413
-0.032594
-0.127097
-0.037580
-0.061034
-0.083000
-0.082704
-0.113678
-0.125805
-0.049997
-0.062410
-0.100032
-0.010952
-0.065712
-0.054511
-0.056958
-0.039194
-0.127048
-0.090329
-0.006277
0.022897
-0.011329
-0.003727
0.021998
-0.066760
0.084173
0.106001
0.067041
0.117972
0.107702
0.129209
0.024965
0.067850
0.097418
0.173709
0.253132
0.217051
0.280957
0.303774
0.254104
0.223078
0.313193
0.331775
0.480822
0.335607
0.384299
0.316401
0.356605
0.461930
0.402590
0.401875
0.466204
0.495970
0.432299
0.445203
0.350299
0.393525
0.355505
0.362518
0.427769
0.361453
0.292325
0.394305
0.298909
0.298978
0.254854
0.261871
0.272713
0.166645
0.189109
0.203922
0.166914
0.145833
0.011506
0.204635
0.088084
0.103800
0.016139
0.050677
0.043590
0.004179
0.000739
0.043500
0.023645
-0.047513
0.039231
-0.007619
-0.064804
-0.040438
-0.074723
-0.013829
-0.066217
-0.078511
-0.091766
-0.004306
-0.143737
-0.114808
-0.022617
0.045066
-0.036612
-0.076423
-0.079763
-0.128560
-0.027459
-0.010807
-0.078807
-0.056363
-0.044882
-0.058482
-0.043767
-0.106369
-0.098847
-0.028959
-0.105846
-0.012148
-0.142769
-0.076933
-0.033181
-0.128377
-0.143782
-0.054642
-0.077601
-0.034507
-0.081748
-0.009387
-0.081801
-0.080053
0.056159
-0.086507
-0.051306
0.039538
-0.026777
-0.093502
-0.030262
-0.053933
-0.105032
-0.074971
-0.033399
-0.067953
-0.015396
-0.047324
-0.058109
0.031501
-0.043428
-0.060125
-0.052072
0.002982
-0.072486
-0.060207
-0.029244
-0.046380
0.033529
0.007676
-0.090171
0.048390
-0.026060
-0.011647
-0.077370
-0.009206
-0.054222
-0.001021
0.009418
-0.070597
0.039033
-0.042832
-0.082615
-0.082454
0.083863
-0.047558
-0.021304
-0.001960
-0.057939
-0.021776
0.021833
-0.017549
-0.053690
-0.069363
-0.057910
-0.072491
0.004038
-0.048068
-0.035251
0.002737
-0.032277
-0.012596
-0.074252
0.007577
-0.063420
0.124343
-0.082057
-0.043623
0.025977
-0.010810
-0.024266
-0.007840
0.050333
-0.011606
0.005574
0.016490
0.095599
0.100448
0.066382
0.015030
0.091943
0.059388
0.113299
0.083304
0.130673
0.182148
0.109294
0.164042
0.088052
0.124305
0.107777
0.195746
0.092197
0.069688
0.167611
0.125026
0.156768
0.155562
0.162669
0.111683
0.126421
0.067621
0.131350
-0.006753
0.035691
0.081759
0.046653
-0.038379
0.020983
-0.022787
0.058830
0.011597
0.056718
0.043066
-0.043991
-0.015740
-0.006457
0.041845
-0.070177
0.008336
0.018666
0.037310
0.055062
-0.026323
0.050133
-0.045778
0.001865
0.051169
0.002959
0.010865
-0.024088
-0.017527
-0.014294
0.013656
-0.014004
-0.023494
0.048825
-0.069416
-0.034670
-0.027507
-0.119611
-0.112957
-0.119031
-0.018581
0.086707
0.311578
0.695865
1.000114
1.346726
1.431847
1.359781
1.215064
0.967787
0.568712
0.341024
0.096560
-0.131671
-0.283796
-0.272798
-0.323792
-0.217929
-0.068010
-0.087434
0.022050
0.028516
-0.001978
0.078060
0.059641
0.056906
-0.003310
0.052162
0.025658
0.012893
0.049230
0.127065
0.110708
-0.018057
0.080612
-0.017249
0.065796
0.116884
-0.001274
0.013034
0.069315
0.030945
0.068242
0.104629
0.146838
-0.017769
0.123501
0.064221
0.109676
0.014917
0.051558
0.119163
0.138906
0.202880
0.190286
0.123868
0.122754
0.179170
0.212020
0.315861
0.267909
0.290969
0.227550
0.307193
0.284512
0.439222
0.335776
0.420377
0.399085
0.370535
0.457406
0.381315
0.469089
0.478261
0.487447
0.571247
0.540563
0.568701
0.589779
0.539997
0.504795
0.570797
0.556128
0.431505
0.511254
0.479311
0.535150
0.465824
0.482997
0.561169
0.473613
0.378927
0.384500
0.363589
0.469491
0.465117
0.267992
0.350975
0.240223
0.328396
0.264513
0.179010
0.216188
0.290477
0.134484
0.202759
0.073633
0.080015
0.115474
0.121462
0.112992
0.079203
0.088365
0.060225
0.093550
0.057709
0.126474
0.068213
0.020655
-0.028667
0.076947
0.068218
0.075232
-0.009535
0.060043
0.083020
0.060510
0.081172
-0.009116
0.023889
-0.018693
0.053355
0.024118
0.085771
0.082704
0.063125
-0.018905
0.061407
0.066860
0.006103
0.043675
0.018046
-0.007028
0.006914
0.085019
0.036185
0.060727
0.047333
0.152237
0.127717
0.024414
0.063775
0.117214
0.039746
0.010210
0.070775
0.033536
0.076802
0.075108
0.104118
0.010550
-0.014017
-0.030791
0.046035
0.043499
0.039207
-0.017588
-0.022851
0.022683
-0.090319
0.034460
0.050454
-0.002710
0.072708
0.047993
0.024721
0.005165
0.006711
0.023291
0.036422
0.084514
0.058073
0.125409
0.009732
0.023291
0.046327
0.036089
0.035254
0.065409
0.004326
0.016258
0.037541
0.069663
0.073438
0.037397
0.001306
0.061214
0.020564
0.103910
-0.049785
0.014376
0.002548
0.033284
-0.031700
0.016816
0.009983
0.087913
-0.003128
0.011565
0.055928
0.025339
-0.008037
0.070371
0.014245
0.118627
-0.020287
0.029711
0.032078
0.048849
0.072565
0.019400
0.036987
0.083549
0.067285
0.066493
0.074199
0.070872
0.088711
0.106994
0.094734
0.069780
0.175821
0.091094
0.134947
0.143252
0.170324
0.182978
0.189442
0.164393
0.092294
0.154291
0.183596
0.235083
0.118398
0.214061
0.180504
0.231638
0.169970
0.096942
0.083987
0.134865
0.102736
0.097304
0.139491
0.073079
0.033799
0.081825
0.021834
0.084145
0.066280
0.012276
0.007984
-0.061294
0.082104
-0.022074
-0.019296
-0.051859
0.022212
0.003732
-0.033586
-0.021560
0.042498
-0.022785
-0.020000
0.042104
0.048244
0.021099
-0.015779
0.053686
-0.039218
-0.021182
-0.089922
0.029118
-0.012593
-0.047215
-0.065106
-0.029705
-0.057926
-0.105869
-0.003708
-0.061138
-0.129300
-0.141867
-0.063328
-0.088336
0.075440
0.348050
0.570153
1.021881
1.209184
1.393788
1.415842
1.143130
0.918402
0.613340
0.337300
0.054813
-0.108862
-0.299098
-0.369587
-0.307190
-0.345825
-0.251564
-0.207254
-0.037719
-0.020676
-0.102957
-0.058437
0.030704
-0.076231
-0.007728
-0.101701
-0.112323
0.040065
-0.021868
0.033449
0.007860
-0.100923
-0.009023
-0.069001
-0.000228
-0.111294
-0.008042
0.006876
-0.011990
-0.039280
-0.020813
-0.023475
0.030621
-0.035436
0.039311
-0.008857
-0.016289
-0.053432
0.000618
0.082084
0.094919
0.077073
0.105592
0.071776
0.091164
0.185039
0.116437
0.128203
0.134765
0.215092
0.269684
0.186484
0.194435
0.244083
0.267427
0.312781
0.307812
0.305954
0.277755
0.405211
0.396302
0.376925
0.388276
0.454233
0.431442
0.447620
0.495558
0.515499
0.433781
0.410413
0.516059
0.462006
0.386577
0.346614
0.325049
0.377543
0.370194
0.334868
0.254760
0.258802
0.237469
0.325767
0.212172
0.275718
0.204643
0.230411
0.105203
0.158000
0.169201
0.060423
0.104715
0.035310
0.014767
0.071655
0.113519
0.040467
-0.071741
-0.035596
-0.031730
-0.039708
-0.140742
-0.017273
-0.054680
-0.032297
-0.048625
-0.062061
-0.094440
-0.101133
-0.041762
-0.086647
-0.030722
-0.142706
-0.045179
-0.157411
-0.088829
-0.022467
-0.082324
-0.111241
-0.144060
0.006410
-0.123009
-0.209807
-0.145804
0.039457
-0.069373
-0.072571
-0.068048
-0.058924
-0.108737
-0.108447
-0.054670
-0.067125
-0.106151
-0.143207
-0.060059
-0.050013
-0.086179
-0.061243
-0.045692
-0.146283
-0.077817
-0.099216
-0.086079
-0.169835
-0.085892
-0.067322
-0.092512
-0.149445
-0.108614
-0.104457
0.017776
-0.070074
-0.135322
-0.107821
-0.126868
-0.140982
-0.128149
-0.078629
-0.011110
-0.137027
-0.114989
-0.124435
-0.037105
-0.069742
-0.152952
-0.058596
-0.077510
-0.041458
-0.134767
-0.046953
-0.077387
-0.035498
-0.128931
-0.059168
-0.126701
-0.087175
-0.072109
-0.063364
-0.171001
-0.195707
-0.157895
0.006178
-0.065587
-0.159229
-0.076171
-0.151441
-0.067980
-0.074862
-0.044281
-0.085361
-0.160094
-0.074235
-0.054798
-0.147788
-0.007670
-0.023512
-0.054049
0.011628
-0.091101
-0.053627
-0.049325
-0.128714
0.014163
-0.046061
-0.144016
0.015213
-0.140286
-0.148611
-0.114933
-0.066055
-0.129188
-0.061405
-0.070345
-0.026113
-0.041011
0.008926
0.017657
-0.045253
-0.065836
-0.011682
-0.004392
0.031303
-0.010021
0.081502
0.056083
0.053622
0.084878
0.092432
0.036187
0.063169
0.043582
0.003276
0.132218
0.050844
0.071226
-0.003487
0.021155
0.088807
0.007352
-0.034876
-0.026033
-0.032556
0.012204
-0.062216
-0.027883
-0.112629
-0.047088
-0.057031
-0.065949
-0.048745
-0.006900
-0.034138
-0.051342
-0.119394
-0.122038
-0.012820
-0.056456
-0.083960
-0.075520
-0.042148
-0.043822
-0.037478
-0.088348
-0.051918
-0.127428
-0.003565
-0.127955
-0.062519
-0.123758
-0.088394
-0.072309
-0.120208
-0.048443
-0.141565
-0.143650
-0.045094
-0.057832
-0.097421
-0.117705
-0.120658
-0.173407
-0.155100
-0.165459
-0.061122
0.163469
0.414752
0.869214
1.208231
1.342147
1.309920
1.213086
0.938031
0.602774
0.332956
0.076102
-0.210099
-0.262038
-0.365749
-0.396503
-0.342419
-0.190484
-0.165063
-0.119225
-0.064797
-0.086767
-0.176964
0.068698
-0.101769
-0.047068
-0.083366
-0.042307
-0.082713
-0.068496
-0.045674
-0.062059
-0.084113
-0.152493
-0.041759
0.006252
0.009499
-0.074929
-0.000460
-0.012280
-0.031555
-0.049449
-0.006302
0.058924
-0.022841
0.055304
-0.005268
0.034448
-0.012270
0.016680
0.010222
0.069879
-0.026214
0.080131
0.067940
0.054877
0.170286
0.190068
0.074877
0.130122
0.129583
0.250543
0.247687
0.204746
0.301626
0.221497
0.278288
0.370753
0.359255
0.376730
0.506403
0.365326
0.406619
0.402893
0.373762
0.462899
0.498359
0.482172
0.493312
0.450487
0.522188
0.478894
0.411843
0.474491
0.387139
0.418568
0.452951
0.420808
0.397494
0.391471
0.371747
0.346836
0.353255
0.258512
0.373290
0.286326
0.187695
0.171742
0.184970
0.214953
0.183888
0.120100
0.127795
0.101822
0.042371
0.146403
0.096736
0.044584
0.059654
0.021553
0.027934
0.037245
0.053348
0.011238
0.057365
0.004579
-0.034268
0.020610
0.078547
-0.096877
0.038610
0.009190
-0.032327
-0.024307
0.044368
-0.001851
-0.038275
-0.007776
-0.008355
-0.007014
-0.015720
0.023256
0.042290
-0.013041
-0.013644
-0.016017
0.051197
0.038547
0.030543
0.088766
-0.028448
0.008205
-0.023866
-0.022543
0.103172
-0.004687
0.013223
0.026730
0.061422
-0.009213
-0.015465
0.063067
0.064387
0.020716
0.003234
-0.026561
-0.038229
0.062193
-0.042402
0.037866
0.070627
0.048281
0.081940
-0.002380
0.028748
0.043821
0.071476
0.038192
-0.001005
-0.071155
0.017948
0.038334
0.058334
0.091627
0.054239
0.021136
0.098696
0.021614
0.025408
0.046694
0.018063
0.076476
0.057608
0.060322
0.073370
0.051276
0.085646
0.009482
0.160115
0.026902
0.014010
0.030083
0.039926
0.121973
0.004489
0.186724
0.019418
0.030807
0.003868
-0.032067
-0.024069
-0.004187
-0.004203
0.030715
0.106829
0.021879
0.052989
0.039189
0.079706
0.050859
0.008095
0.006935
0.010577
0.012116
0.077842
0.055688
0.068947
0.050976
0.048873
0.126839
0.019164
0.029800
0.117602
0.045775
0.075210
0.032422
0.064093
0.171904
0.101073
0.169631
0.080401
0.108929
0.161750
0.117939
0.269472
0.181559
0.199227
0.221821
0.313004
0.204242
0.200620
0.150200
0.284623
0.187419
0.179286
0.252381
0.159186
0.180062
0.178564
0.232813
0.186997
0.192824
0.150666
0.122090
0.159420
0.073813
0.106284
0.104792
0.157890
0.160722
0.050515
0.045190
0.075680
0.075173
0.138055
0.034314
0.096709
0.073733
0.065011
0.040006
0.047157
0.033982
0.051213
0.068338
0.106962
0.037439
0.047731
0.111860
0.065322
0.097166
0.058388
0.015859
0.047473
0.018908
0.041328
0.039234
0.032434
0.038444
0.075109
0.053604
0.040020
-0.059272
0.071585
0.077537
0.105660
0.325092
0.633164
0.919318
1.275560
1.461623
1.483164
1.293683
1.095376
0.819373
0.444771
0.175366
0.070217
-0.167523
-0.247101
-0.326674
-0.228338
-0.168771
-0.065737
0.015665
0.023355
0.040351
0.059673
0.023347
0.104023
0.035732
-0.001143
0.126409
0.063669
0.091722
0.130626
0.068274
0.071078
0.136789
0.010809
