-0.063929
0.044741
-0.028933
-0.004777
0.055867
-0.045941
-0.015593
-0.006522
-0.017001
-0.014791
0.096160
0.045624
0.029171
0.010683
0.010621
-0.011489
0.047269
-0.007771
0.014824
0.043326
-0.021224
-0.011649
0.063775
0.029109
0.024400
-0.014258
0.015130
0.075003
0.013069
0.054170
0.038692
0.072696
0.155273
0.159087
0.117105
0.062932
0.071840
0.225058
0.165640
0.154007
0.135110
0.236160
0.152211
0.138600
0.144122
0.122039
0.185332
0.165334
0.225623
0.251867
0.195035
0.208546
0.198908
0.233449
0.169530
0.153942
0.047167
0.130770
0.191371
0.027966
0.129428
0.088466
0.085365
0.032690
0.054482
0.118800
0.073264
0.065595
-0.017529
0.059710
0.067082
0.115113
0.054880
0.044129
-0.023434
0.036907
0.012871
0.036201
0.109372
0.069116
0.100051
0.055120
0.053835
0.033974
0.013266
0.056644
-0.037763
0.033177
0.066581
0.254918
0.533477
0.795769
1.064304
1.392509
1.432461
1.266578
1.086584
0.816559
0.444118
0.122865
-0.153571
-0.195106
-0.208699
-0.141544
-0.042659
-0.004485
0.024365
0.095973
0.038088
0.039920
0.138957
0.049791
0.086578
0.157394
0.091669
0.134555
0.084938
0.148127
0.079637
0.063794
0.100789
0.140591
0.113489
0.206735
0.073040
0.082547
0.145980
0.207133
0.249833
0.156978
0.285910
0.245078
0.284461
0.285003
0.245730
0.262453
0.338277
0.300687
0.389939
0.381488
0.412180
0.436089
0.360091
0.462417
0.513677
0.475312
0.485495
0.593897
0.591005
0.526415
0.639359
0.581462
0.588540
0.587042
0.551325
0.603806
0.623174
0.535204
0.475050
0.514969
0.475951
0.432260
0.463086
0.504664
0.443973
0.397318
0.387627
0.290525
0.353201
0.364868
0.337536
0.305130
0.311919
0.352926
0.270949
0.338414
0.241322
0.233156
0.201532
0.167816
0.261207
0.111608
0.117620
0.141432
0.129645
0.127471
0.061813
0.094822
0.111980
0.062190
0.099551
0.106454
0.066755
0.156352
0.132701
0.101016
0.146367
0.173140
0.098809
0.128658
0.040527
0.077784
0.075606
0.078080
0.067563
0.096471
0.077368
0.049973
0.129012
0.137133
-0.002430
0.012034
0.047727
0.071375
0.098255
0.041989
0.053231
0.138975
-0.016412
0.048114
0.081228
0.067140
0.047583
0.061505
0.144255
0.117492
0.091672
0.053778
0.036804
0.047154
0.110624
0.074067
0.058886
0.071573
0.084977
0.112357
0.111513
0.116234
-0.009103
0.123976
0.031374
0.096455
0.061198
0.060884
0.171400
0.101912
0.078923
0.066257
0.014348
0.104423
0.098361
0.138237
0.119657
0.059423
0.055696
0.146180
0.057153
0.040743
0.145557
0.071963
0.071850
0.106522
0.109266
0.089038
0.054644
0.108289
0.077424
0.079307
0.167400
0.212455
0.249314
0.136250
0.249309
0.135962
0.251770
0.172325
0.254690
0.193983
0.229800
0.176261
0.215130
0.225729
0.195394
0.259288
0.334965
0.336112
0.153531
0.321026
0.153052
0.256838
0.199758
0.150849
0.089419
0.140089
0.049605
0.182628
0.084852
0.089578
0.112856
0.106149
0.110506
0.013989
0.095816
0.095181
0.025978
0.068413
0.037045
0.084469
0.046746
0.161971
-0.008389
0.092962
0.072087
0.031243
0.145284
0.080413
-0.015600
0.052890
0.019165
0.090081
0.018139
-0.020694
0.067304
0.202503
0.469786
0.671550
1.044809
1.327428
1.404740
1.372886
1.136160
0.828891
0.563302
0.152731
-0.086514
-0.159690
-0.258011
-0.192300
-0.179125
-0.020081
-0.067347
0.009913
0.028581
0.023397
0.006014
0.069254
0.060424
0.004797
0.088130
-0.001241
0.053532
0.082567
0.048961
0.027791
0.082303
0.095071
0.082948
0.158900
0.101353
0.150294
0.143518
0.112624
0.092108
0.218407
0.147560
0.162549
0.131682
0.321074
0.238402
0.336545
0.325177
0.284845
0.318109
0.351981
0.433992
0.367964
0.357758
0.488368
0.449309
0.430197
0.422275
0.490644
0.530827
0.477525
0.540542
0.516092
0.525487
0.453315
0.501293
0.512084
0.547709
0.534170
0.428330
0.567833
0.519310
0.425106
0.419624
0.315652
0.419695
0.320729
0.344661
0.301252
0.261776
0.248941
0.320816
0.192652
0.242224
0.219625
0.163945
0.107716
0.160208
0.151599
0.099622
0.116815
0.082977
0.017459
0.092411
0.040802
0.143680
0.048660
0.026673
0.062918
0.024696
0.041389
0.062634
-0.002443
-0.031768
0.066583
0.021363
0.059894
0.042084
0.069722
-0.000543
-0.027648
0.020370
0.047942
-0.016735
-0.002284
-0.033019
0.061191
0.016966
-0.000739
0.036264
-0.002639
-0.079476
-0.009068
0.013356
0.063271
0.031688
0.052286
-0.018503
0.015230
-0.035173
-0.050280
-0.041877
0.017878
-0.051640
-0.035011
0.023375
-0.064627
0.002888
-0.074959
0.048524
-0.038006
0.071532
-0.024697
-0.041659
-0.017275
0.028230
-0.085927
-0.092502
-0.023475
0.009668
-0.004685
0.005884
-0.018659
-0.028879
-0.001380
0.045234
0.044542
-0.068299
-0.016857
-0.027898
-0.058416
-0.086489
-0.082727
-0.037712
-0.041682
-0.031425
0.002528
0.081906
0.019021
-0.015244
-0.026370
-0.026667
-0.089043
-0.046945
0.056913
0.035801
0.087965
-0.102938
-0.066198
0.035989
0.029663
0.086423
0.016836
0.076033
0.083465
0.119230
0.090874
0.077589
0.057430
0.078509
0.095992
0.146941
0.104133
0.127718
0.139033
0.108836
0.125465
0.100762
0.126755
0.084863
0.117724
0.114450
-0.015869
0.052595
0.085681
0.007529
-0.009021
0.068502
0.008321
-0.007499
-0.009961
-0.041679
-0.013637
-0.047434
0.021408
0.052917
-0.081331
0.002792
-0.059605
-0.044976
-0.007148
-0.066338
-0.152117
-0.084823
-0.072587
0.002658
-0.099502
-0.086092
-0.118802
-0.081634
-0.083622
-0.120692
-0.159569
0.004634
0.040148
0.179955
0.508419
0.777303
1.105714
1.268179
1.350075
1.216537
0.830115
0.551001
0.218955
-0.112020
-0.278961
-0.301619
-0.230463
-0.215945
-0.100403
-0.018989
-0.090757
-0.045140
0.006924
-0.039826
0.026115
-0.080549
0.012226
-0.108960
0.003157
0.003846
0.046793
-0.022029
0.045638
-0.011808
0.063683
0.051382
0.101772
0.074620
0.082195
0.089269
0.107248
0.097677
0.108440
0.138572
0.110302
0.243411
0.170394
0.145787
0.198120
0.248700
0.251909
0.251742
0.325764
0.360716
0.290598
0.314121
0.374879
0.428860
0.392200
0.417908
0.436735
0.511546
0.464956
0.408017
0.399376
0.427415
0.526412
0.527418
0.503049
0.481446
0.476639
0.424206
0.433828
0.451015
0.390691
0.416396
0.348542
0.365244
0.381308
0.273486
0.214414
0.298337
0.232207
0.183513
0.220068
0.177167
0.251190
0.147543
0.188998
0.122667
0.018482
0.126237
0.153927
0.100654
0.026823
0.110477
0.026849
-0.016230
0.078252
0.042931
-0.026042
0.109360
0.049109
0.004666
0.025033
0.047596
-0.073044
-0.016608
0.118231
0.017596
-0.070112
0.017635
-0.105299
-0.034362
-0.048857
-0.001924
-0.015537
-0.027632
0.009382
-0.076975
0.046049
-0.012979
0.035524
-0.085978
-0.065611
-0.087299
-0.045228
0.004285
-0.013460
-0.005788
-0.000483
-0.021957
-0.050062
-0.034200
-0.052616
-0.029869
-0.000168
0.002667
0.049329
0.001574
-0.044815
0.122701
-0.036531
0.016816
-0.026601
-0.026394
-0.088756
-0.022720
-0.066225
0.098376
0.021853
-0.046734
0.036230
0.011026
0.023351
-0.026110
-0.038649
-0.004588
0.023983
-0.020845
-0.002392
-0.068835
-0.028617
0.001620
0.024526
0.083544
0.009461
0.040959
0.058366
0.018016
0.042737
0.028798
0.006484
0.037315
0.001413
0.095234
0.053957
0.060845
0.008341
0.022717
0.100568
0.052799
0.080549
0.105495
0.028137
0.045757
0.144956
0.199590
0.129021
0.185071
0.149852
0.210326
0.196108
0.228918
0.162071
0.184364
0.280818
0.109276
0.099551
0.150926
0.122923
0.166544
0.146114
0.143664
0.258833
0.135001
0.145107
0.110320
0.208308
0.045990
0.124472
0.099443
0.055146
0.076356
0.032932
0.054383
-0.077347
0.056084
-0.010922
0.058204
0.008849
-0.009202
0.018374
0.110644
0.029802
0.082928
0.058246
0.052593
0.057394
0.044604
0.073109
0.019599
0.008288
0.033714
-0.018685
-0.032243
0.072561
0.238841
0.531420
0.852890
1.079703
1.342760
1.376878
1.297110
1.189766
0.737431
0.476160
0.076428
-0.035248
-0.225641
-0.263671
-0.168996
-0.233100
-0.040895
0.001889
0.123361
0.124177
-0.005472
0.083034
0.089499
0.095465
0.114878
0.044923
0.158457
0.047553
0.076054
0.089849
0.092961
0.145916
0.059514
0.153552
0.184682
0.157279
-0.007028
0.233901
0.158615
0.183919
0.239508
0.241993
0.279365
0.275375
0.305791
0.301414
0.342783
0.402466
0.409143
0.393731
0.360924
0.410348
0.425041
0.512282
0.523884
0.524910
0.468865
0.508751
0.546213
0.548608
0.521853
0.563390
0.493865
0.506579
0.657787
0.521003
0.605230
0.608226
0.524338
0.542410
0.539193
0.482822
0.497041
0.503980
0.448719
0.514097
0.442524
0.392454
0.389590
0.364446
0.392287
0.395609
0.409171
0.281820
0.269773
0.246152
0.255664
0.224617
0.247725
0.202415
0.205640
0.185836
0.173387
0.252466
0.240821
0.161124
0.085224
0.161435
0.135511
0.087058
0.143267
0.073496
0.044588
0.090514
0.064909
0.086969
0.128608
0.058443
0.150742
0.127027
0.122702
0.074674
0.080178
0.095250
0.079560
0.071815
0.020019
0.067399
0.138662
0.094382
0.099661
0.169825
0.106488
0.090826
0.109289
0.113593
0.111640
0.085279
0.142210
0.165208
0.108417
0.110668
0.110202
0.073773
0.129220
0.073502
0.102489
0.057602
0.093516
0.096224
0.023486
0.081323
0.083559
0.063672
0.049319
0.152737
0.097254
0.127147
0.111189
0.120898
0.086954
0.131720
0.077485
0.109543
0.025359
0.119584
0.205848
0.056209
0.067804
0.114616
0.102457
0.201801
0.093060
0.044547
0.043903
0.064648
0.020917
0.102736
0.034013
0.138708
0.161956
0.135793
0.057302
0.031249
0.157662
0.164654
0.156892
0.158890
0.133675
0.074928
0.196062
0.198765
0.209594
0.205230
0.221155
0.215591
0.233726
0.241286
0.232301
0.253096
0.215884
0.246455
0.220915
0.240908
0.200692
0.286102
0.169222
0.286598
0.275081
0.227201
0.294997
0.153112
0.196794
0.116091
0.236678
0.137817
0.123627
0.156390
0.118885
0.113584
0.126634
0.100724
0.124041
0.090792
0.085529
0.124833
0.133336
0.088541
0.054994
0.071881
0.030152
0.109940
0.084269
0.125866
0.073144
0.038008
0.039386
0.118698
0.054854
0.083265
0.063933
0.028519
-0.004223
-0.026337
0.190571
0.342373
0.705806
1.005306
1.313845
1.500000
1.461130
1.202120
0.921068
0.513582
0.237522
-0.032309
-0.136275
-0.208974
-0.253652
-0.083921
-0.055104
0.033406
0.079729
0.042001
-0.016491
0.044638
0.108188
0.177114
0.051012
0.082931
0.137138
0.129848
0.053368
0.090768
0.083709
0.105121
0.092521
0.092187
0.090922
0.177463
0.176865
0.108700
0.195631
0.241122
0.250579
0.187387
0.229149
0.186539
0.217373
0.202660
0.289027
0.264992
0.329805
0.370812
0.355256
0.453506
0.340267
0.456372
0.452010
0.431684
0.477309
0.446757
0.499007
0.466856
0.550553
0.519873
0.515844
0.522003
0.567648
0.554804
0.489852
0.503478
0.551430
0.548836
0.481596
0.480550
0.473105
0.392496
0.376224
0.389915
0.354874
0.375887
0.313860
0.313494
0.298359
0.225907
0.259752
0.152482
0.269394
0.164161
0.215848
0.149315
0.094434
0.115744
0.027081
0.100335
0.113775
0.149217
0.015418
0.062622
0.088309
0.079613
0.036611
0.051783
0.061934
0.061878
0.034617
-0.038713
0.052491
-0.022357
0.000474
0.012393
0.019071
0.055285
0.022699
0.012318
-0.012455
-0.046716
0.009257
-0.022849
-0.050103
-0.052701
0.010007
0.002877
-0.020071
-0.042326
0.083238
-0.003745
0.007841
0.034598
-0.065441
-0.060119
0.005421
0.016748
-0.055571
-0.003408
-0.075684
0.029106
0.069352
-0.036178
-0.010324
-0.030152
0.010856
-0.008419
-0.047847
0.014349
-0.050360
-0.009449
-0.062194
-0.010107
-0.033800
0.044144
-0.084548
-0.037149
-0.006639
-0.056317
-0.020429
-0.031674
0.000675
0.024803
-0.073507
-0.023350
0.036423
-0.045993
-0.060586
-0.053901
0.036398
-0.085246
-0.035090
-0.048409
-0.032515
-0.048633
0.021428
-0.000276
-0.079319
-0.003110
-0.005479
0.017662
-0.015438
0.035136
0.048330
0.071582
0.052038
0.019034
0.051632
0.027920
0.079715
-0.013809
0.105085
0.036560
0.007811
0.112487
0.065528
0.109713
0.112744
0.155056
0.158208
0.069739
0.162537
0.145267
0.125458
0.119907
0.115663
0.094927
0.096322
0.139426
0.036676
0.083579
0.061374
0.054729
0.050733
0.013711
0.017991
0.031896
-0.027655
0.002155
-0.085855
-0.034293
-0.117725
-0.049550
-0.059584
-0.094411
-0.103105
-0.023472
-0.056870
-0.038838
-0.141490
-0.027604
-0.026210
-0.080597
0.049147
-0.132663
-0.004870
0.035708
-0.119502
-0.139940
-0.136118
-0.097376
0.039764
0.156519
0.416970
0.768715
1.025187
1.224479
1.316221
1.206199
0.973828
0.646596
0.239416
-0.081895
-0.267015
-0.322302
-0.322401
-0.267170
-0.194259
-0.196057
-0.023828
-0.081891
0.011018
-0.123781
0.065989
-0.031930
-0.086888
-0.109950
-0.054153
-0.032106
-0.082976
-0.046582
0.014694
-0.065817
-0.008032
0.020580
0.071396
0.018078
0.074221
0.055409
0.000733
0.073760
0.095158
0.064076
0.128203
0.048041
0.126734
0.131024
0.082764
0.125847
0.239762
0.236287
0.286252
0.252537
0.251640
0.303140
0.312796
0.309820
0.379213
0.314454
0.363676
0.380210
0.392605
0.384519
0.349251
0.457970
0.351901
0.398322
0.422394
0.392996
0.408137
0.392058
0.453435
0.447889
0.367994
0.350574
0.332480
0.269450
0.276297
0.275823
0.337667
0.319483
0.162333
0.163210
0.157076
0.197679
0.196508
0.079978
0.097297
0.156285
0.090411
0.036586
0.050498
-0.088187
-0.002269
-0.043686
0.021453
-0.061993
-0.049646
-0.013051
0.023349
-0.029847
-0.053249
-0.039964
-0.120630
-0.059574
-0.098867
-0.015658
-0.072129
-0.070735
-0.072980
-0.061029
-0.093941
-0.022225
-0.061999
-0.056510
-0.049989
-0.012324
-0.048677
-0.088799
-0.038494
-0.127302
-0.015630
-0.050494
-0.053563
-0.079730
-0.057428
-0.033759
-0.088459
-0.056495
-0.030752
-0.054349
-0.057162
-0.103497
-0.058956
0.008325
-0.081913
-0.022424
-0.082120
-0.096750
-0.095763
-0.106867
-0.084413
-0.054983
-0.040008
-0.106144
-0.010198
-0.088490
-0.068005
-0.013814
0.040567
-0.026877
-0.092867
-0.084483
-0.121198
-0.052902
-0.068614
0.012020
-0.031199
-0.079649
-0.041311
-0.082360
-0.139197
-0.137468
-0.015570
-0.004719
-0.064782
-0.058447
-0.084578
-0.037650
-0.091808
-0.001660
-0.067280
-0.055122
-0.117677
-0.006933
-0.002128
-0.012074
-0.010414
-0.025026
-0.010695
0.008637
-0.028125
0.007913
0.057689
0.059509
0.014675
0.101795
0.103951
0.124351
0.089154
0.157596
0.151354
0.113311
0.056167
0.175392
0.125819
0.011984
0.096142
0.129275
0.169215
0.145405
0.047487
0.069936
0.038412
0.018197
0.031803
0.027490
0.004544
0.146426
-0.007748
-0.035790
-0.026433
-0.035162
-0.070461
0.007186
-0.033915
-0.077985
-0.021891
0.013743
-0.050594
0.038668
-0.001577
-0.010810
-0.019868
-0.015411
-0.027002
-0.118410
0.060809
-0.065417
-0.026926
-0.086945
-0.068263
-0.009541
-0.058551
-0.114103
-0.052233
0.089849
0.365334
0.696935
0.940227
1.239280
1.315286
1.253734
1.079130
0.755404
0.396431
0.037882
-0.121836
-0.246778
-0.333840
-0.315104
-0.196130
-0.131029
-0.042494
-0.083567
-0.008607
-0.009685
0.017943
0.009587
-0.002287
-0.034560
0.052626
0.086183
-0.040797
-0.013068
0.039006
-0.017131
-0.016420
0.090656
0.041818
0.098407
0.096370
0.081371
0.127448
0.144504
0.148626
0.146386
0.136553
0.145420
0.213683
0.202655
0.241944
0.324862
0.279331
0.358030
0.317497
0.342856
0.348448
0.421075
0.415762
0.468865
0.483513
0.350889
0.435924
0.479977
0.443230
0.432481
0.473266
0.555434
0.530063
0.421541
0.447609
0.488948
0.489853
0.466331
0.485229
0.409555
0.434177
0.437304
0.357063
0.345371
0.394344
0.380491
0.364689
0.381759
0.272887
0.268094
0.348629
0.273320
0.216756
0.265644
0.263242
0.218472
0.127392
0.213380
0.117544
0.185826
0.028613
0.129309
0.070443
0.122887
0.145535
0.028027
0.203236
0.042755
0.043641
0.031294
0.065385
0.006533
-0.023446
-0.069776
0.052024
0.081384
0.047794
0.075891
-0.001975
0.046542
0.001840
-0.072345
-0.019926
0.056404
0.066186
0.067277
0.012613
0.104598
0.051964
0.113351
-0.048440
0.081389
-0.000782
0.105847
0.000982
-0.018234
0.052870
0.102005
0.023006
0.044486
0.035548
0.122589
-0.021743
0.040115
0.021218
0.017903
0.003629
0.110500
0.064505
0.015192
0.061265
0.025862
0.081250
0.051252
0.026810
-0.005219
0.001205
-0.000423
0.004201
0.072614
0.033554
0.107457
-0.002490
0.039957
0.012343
0.060937
0.058896
0.026666
0.010645
-0.030262
0.109272
0.017558
0.118120
0.016724
0.015321
-0.019372
0.037741
0.022587
0.102388
0.005705
0.054632
0.067761
0.109260
0.116101
0.153489
0.040780
0.150735
0.025851
0.078386
0.107424
0.087067
0.200091
0.147173
0.250877
0.155800
0.190374
0.216130
0.240270
0.146997
0.207942
0.260986
0.249599
0.255558
0.184081
0.174434
0.253414
0.183361
0.116183
0.194770
0.188040
0.152485
0.123927
0.159454
0.171636
0.065581
0.146146
0.080426
0.100991
0.020937
0.047063
0.042639
0.103613
0.011742
0.046362
0.053758
0.077305
-0.031199
0.085060
-0.005869
-0.007353
0.008906
0.068610
-0.001443
0.084108
0.055372
-0.022351
-0.032849
0.074526
0.038397
-0.026247
-0.021465
-0.047383
-0.028771
0.144035
0.362688
0.604299
0.971715
1.150175
1.236933
1.322587
1.214351
0.937975
0.592794
0.255038
-0.014985
-0.168437
-0.254988
-0.249692
-0.109862
-0.072420
0.035023
0.029183
-0.017003
0.079451
0.088542
0.072452
-0.045110
0.076009
0.003627
0.015520
0.071068
-0.000393
0.006493
0.092536
0.107580
0.179206
0.075639
0.006756
0.154506
0.131621
0.279572
0.104681
0.151821
0.149132
0.153085
0.174347
0.236406
0.297811
0.230356
0.280921
0.258626
0.306024
0.349725
0.354450
0.371580
0.370423
0.471601
0.331256
0.404886
0.466866
0.470280
0.510161
0.482676
0.483113
0.528834
0.510373
0.453508
0.582538
0.526433
0.453027
0.500080
0.509526
0.466258
0.475189
0.429353
0.485925
0.330641
0.434006
0.453300
0.424681
0.375451
0.319599
0.283030
0.416785
0.301383
0.216935
0.257727
0.257488
0.169942
0.144546
0.194051
0.150394
0.123499
0.080059
0.172474
0.099673
0.091405
0.062850
0.053981
0.096203
0.106497
0.053267
0.043532
0.045555
0.002050
0.065235
0.010457
-0.008138
0.023365
-0.008584
-0.041871
-0.027902
0.063311
-0.017651
0.001303
0.037497
0.090174
-0.030465
-0.004093
0.018302
-0.020162
-0.021135
0.055022
-0.074451
0.070232
0.053654
0.021445
0.046925
-0.032999
0.036430
0.031134
0.004915
0.029145
-0.034369
0.052799
0.018558
-0.052231
-0.000392
-0.020852
-0.007272
0.012467
-0.008998
-0.028030
0.121059
-0.075168
0.001770
-0.048856
-0.033551
-0.007758
0.037822
-0.090151
-0.042098
0.038044
-0.040898
0.013365
0.006690
-0.085855
-0.069293
0.006596
-0.040581
-0.039290
-0.016271
-0.054980
0.028025
0.036735
-0.098722
-0.031160
0.015735
-0.054544
-0.145624
0.047088
-0.030339
-0.001084
0.002187
0.014847
0.048537
0.016405
-0.022338
0.021476
0.028675
0.029385
-0.049649
0.023863
0.006175
0.087144
0.072164
0.020027
0.170819
0.071869
0.117739
0.104337
0.117826
0.106353
0.129494
0.052793
0.055228
0.165751
0.143304
0.140022
0.080552
0.123916
0.046234
0.070990
0.060360
0.043171
0.048235
0.033894
0.006330
0.017834
-0.021878
-0.054089
-0.026811
0.022909
-0.024581
0.013231
0.085793
0.013609
-0.070684
-0.007913
0.032725
-0.093825
-0.043204
-0.083733
-0.070658
-0.064495
-0.042987
0.017616
-0.083389
-0.066892
-0.044051
-0.072544
-0.079752
-0.078305
-0.065749
-0.077387
-0.103506
-0.102329
-0.025403
0.051455
0.346981
0.688005
1.126620
1.177474
1.294813
1.130345
0.973856
0.691229
0.240199
-0.057430
-0.212596
-0.326868
-0.290237
-0.332748
-0.203324
-0.153928
-0.131433
-0.220650
-0.195342
-0.101856
-0.055510
-0.074863
-0.046254
0.050357
-0.086446
-0.086145
-0.040290
-0.119955
-0.117352
0.022159
0.006003
-0.023767
-0.025132
-0.012234
-0.025323
0.028191
0.011881
0.074344
0.035107
0.046873
0.029981
0.136546
0.042846
0.070501
0.198313
0.241189
0.177645
0.240749
0.196956
0.231425
0.257969
0.223696
0.322373
0.375759
0.366737
0.328988
0.358726
0.411875
0.419736
0.399194
0.547833
0.364846
0.387984
0.370836
0.500466
0.393934
0.403906
0.435167
0.349855
0.331041
0.358671
0.414263
0.314785
0.350405
0.294761
0.225952
0.240640
0.235589
0.189361
0.138574
0.147654
0.143010
0.135693
0.149626
0.109975
0.062704
0.057396
0.042204
-0.023806
0.103032
-0.007479
0.029390
-0.068578
0.011552
-0.106787
-0.111469
-0.115586
-0.060300
-0.100827
-0.020805
-0.056829
-0.097150
-0.106229
-0.088649
-0.077085
-0.067534
-0.119689
-0.169007
-0.086776
-0.155214
-0.126796
-0.122118
-0.093397
-0.070808
-0.083587
-0.108212
-0.137871
-0.075826
-0.097762
-0.117000
-0.069073
-0.104628
-0.138610
-0.121697
-0.109647
-0.015309
-0.130354
-0.081974
-0.162734
-0.159717
-0.136847
-0.100010
-0.125636
-0.027084
-0.121876
-0.136668
-0.166827
-0.066669
-0.071158
-0.165214
-0.099374
-0.076616
-0.153417
-0.060654
-0.036857
-0.042978
-0.071707
-0.106908
-0.021690
-0.007260
-0.134631
-0.109842
-0.150023
-0.095585
-0.127043
-0.008083
-0.116317
-0.162254
-0.019166
-0.070849
-0.127077
-0.155713
-0.043974
-0.048388
-0.051972
-0.080707
-0.110098
-0.085081
-0.088209
-0.118289
-0.031513
-0.007616
-0.168148
-0.053782
-0.071678
-0.057346
0.004836
-0.055418
0.036871
0.050711
0.004067
0.076311
-0.014330
0.031683
0.023679
0.114796
0.063938
0.085314
0.110419
0.066151
0.067508
0.134703
0.069918
0.059455
0.101873
0.015841
0.090352
0.015183
0.004154
-0.033002
0.057087
0.031418
0.060456
-0.016595
-0.036350
-0.036491
-0.033621
-0.053442
-0.056707
-0.027606
-0.007847
-0.076310
-0.035081
-0.036157
-0.084276
-0.042330
-0.073829
-0.081288
-0.064186
-0.034548
-0.025999
-0.016272
-0.043217
-0.116881
-0.081446
-0.072770
-0.111375
-0.047275
-0.113354
-0.012205
-0.071904
-0.095865
0.037333
0.053915
0.322622
0.529707
0.836850
1.209893
1.232925
1.267280
1.036734
0.730858
0.360303
0.065238
-0.142723
-0.255849
-0.321706
-0.255563
-0.175359
-0.117904
-0.125798
-0.037583
-0.078452
-0.046150
-0.002565
0.024961
-0.037056
0.035536
0.044423
-0.046080
-0.019241
-0.008713
0.055979
-0.035076
0.006489
0.006177
0.033938
0.006071
0.006401
0.068166
0.084431
0.040672
0.024708
0.080882
0.139471
0.054377
0.227553
0.149706
0.152494
0.260867
0.264424
0.281496
0.332925
0.293259
0.316287
0.327653
0.246373
0.326141
0.328280
0.379357
0.396814
0.416892
0.372815
0.432529
0.426797
0.500582
0.504285
0.544878
0.465571
0.542515
0.412089
0.463163
0.410204
0.415443
0.391987
0.447533
0.379636
0.341444
0.382883
0.332371
0.275401
0.359105
0.290631
0.256931
0.316355
0.223992
0.209265
0.143503
0.144032
0.125314
0.209287
0.117631
0.114203
0.103557
0.105585
0.149185
0.044993
0.053899
0.035387
0.014125
0.050830
-0.014149
-0.061239
-0.023364
0.052838
-0.020976
0.052926
0.037105
0.012923
-0.073578
-0.064885
-0.045979
0.001745
0.019808
-0.029212
0.027480
0.058501
-0.017957
-0.042250
0.033239
-0.047531
0.021088
0.060390
-0.016017
0.022617
-0.036591
-0.010514
-0.009875
-0.066392
0.067449
-0.013561
0.048046
-0.081655
0.024810
-0.043570
-0.080459
-0.053979
0.042688
0.059481
0.004755
-0.008244
-0.008563
-0.002478
-0.008400
0.032725
0.040552
0.108530
0.012581
0.059560
0.024052
-0.008202
0.005409
-0.011185
0.016241
0.007419
0.032359
0.012736
0.131708
-0.010924
0.062235
0.050077
-0.082685
0.067708
0.022208
0.013924
0.019308
0.045878
0.048157
0.039947
0.112872
0.032408
0.055967
0.079249
0.082648
0.120683
0.081872
0.095602
0.073625
0.061501
0.036887
0.092572
0.144066
0.029935
0.089894
0.112136
0.096685
0.216516
0.149145
0.203695
0.167325
0.140128
0.154237
0.185192
0.173003
0.222631
0.167141
0.131304
0.186032
0.236943
0.206540
0.238818
0.214545
0.198300
0.124982
0.154790
0.179442
0.190166
0.154448
0.091748
0.141660
0.124482
0.123466
0.114381
0.145424
0.107337
0.124190
0.055020
0.070218
0.079604
-0.003620
0.097502
0.023340
0.093104
0.109306
0.043780
0.060665
0.134931
-0.015581
0.159241
0.035216
0.115766
-0.000415
0.029975
0.028052
-0.017781
0.005961
0.025885
0.160773
0.443611
0.481836
0.920339
1.238793
1.482804
1.483589
1.249877
0.960026
0.740538
0.251844
0.020274
-0.173127
-0.271093
-0.237802
-0.206790
-0.044532
-0.006956
0.048960
0.064489
0.039418
0.102398
0.089140
0.080474
0.076671
0.040113
0.054579
0.140313
0.144793
0.103468
0.147646
0.065073
0.130789
0.106483
0.082120
0.174078
0.169729
0.119008
0.209964
0.123507
0.205150
0.246072
0.237828
0.356227
0.255286
0.393994
0.288352
0.398990
0.369350
0.358840
0.382973
0.404223
0.438831
0.434790
0.433643
0.457449
0.471981
0.471650
0.593591
0.524280
0.562489
0.560774
0.547853
0.563860
0.598458
0.537319
0.574446
0.547941
