-0.035875
0.028567
0.025899
0.019540
0.064056
0.018494
-0.008477
0.016595
0.069580
0.045311
0.029587
0.015488
-0.013311
-0.006368
0.037903
-0.042821
-0.006096
0.037539
-0.046488
0.043973
0.090940
-0.030200
0.008681
0.015720
0.037283
0.083772
0.047980
0.071938
0.151589
0.161118
0.120452
0.116313
0.146266
0.219102
0.146369
0.086182
0.172983
0.163595
0.286887
0.234327
0.215830
0.166263
0.101093
0.171158
0.110985
0.162836
0.124935
0.082080
0.104748
0.133254
0.100671
0.123865
0.126776
0.121956
0.091430
0.086362
0.144772
0.076165
0.069379
0.007295
-0.010854
0.035541
0.074880
0.078423
0.053885
0.061799
0.018533
0.123421
0.036612
0.028728
0.139022
0.121552
0.203224
0.353856
0.642852
0.906865
1.192028
1.199211
1.140530
0.874180
0.629778
0.320166
0.015868
-0.119195
-0.166618
-0.168234
-0.045114
0.003003
0.135015
0.101271
0.103295
0.037389
0.029235
0.148182
0.046473
0.149640
0.159281
0.163628
0.146226
0.142495
0.119097
0.181916
0.172672
0.208032
0.220371
0.231624
0.238372
0.248431
0.271071
0.263043
0.325747
0.315937
0.379954
0.369268
0.354717
0.475953
0.451434
0.403978
0.527040
0.465463
0.494516
0.453662
0.450399
0.487991
0.530785
0.580543
0.505939
0.452283
0.458236
0.519787
0.486741
0.558906
0.495320
0.510080
0.436946
0.428687
0.388653
0.427701
0.391301
0.430756
0.378199
0.365118
0.318617
0.341879
0.347206
0.291429
0.276033
0.249783
0.126008
0.227003
0.229956
0.246385
0.211643
0.223840
0.186607
0.170205
0.180247
0.213356
0.081715
0.126692
0.111814
0.136580
0.158880
0.132456
0.132508
0.141692
0.089461
0.123949
0.094383
0.112070
0.173316
0.074264
0.190771
0.095755
0.134765
0.109031
0.126130
0.112020
0.124076
0.050628
0.046189
0.100883
0.115227
0.059761
0.136655
0.058449
0.140303
0.119525
0.116434
0.062548
0.078463
0.116048
0.069283
0.077163
0.110385
0.150195
0.078311
0.121888
0.151557
0.116631
0.085975
0.155726
0.155566
0.085975
0.063056
0.127120
0.140004
0.057716
0.118948
0.127607
0.155213
0.097865
0.113938
0.164742
0.213093
0.117666
0.175188
0.182311
0.212007
0.138259
0.148596
0.301591
0.234557
0.248334
0.174344
0.256733
0.171096
0.293409
0.239665
0.194310
0.223351
0.289224
0.243811
0.303315
0.228914
0.201777
0.272480
0.185932
0.277575
0.249707
0.168298
0.252089
0.174063
0.131053
0.156177
0.134275
0.184809
0.171626
0.163224
0.159823
0.141959
0.170452
0.158239
0.115156
0.129817
0.131953
0.110411
0.127942
0.162841
0.080319
0.136651
0.067542
0.138148
0.151461
0.282004
0.319177
0.659243
0.906213
1.157441
1.295583
1.261969
1.068311
0.723536
0.429864
0.090722
0.051669
-0.021305
-0.096636
0.039161
0.059040
0.093748
0.135987
0.180159
0.141885
0.114149
0.140128
0.235504
0.179583
0.155310
0.138556
0.240560
0.223481
0.194009
0.220868
0.236206
0.288746
0.248376
0.274287
0.306996
0.250676
0.297768
0.341018
0.396174
0.382378
0.447131
0.451037
0.357863
0.451222
0.428923
0.452635
0.522312
0.488639
0.418700
0.528981
0.587441
0.536053
0.523647
0.515121
0.543827
0.565103
0.479680
0.533034
0.516115
0.592154
0.449205
0.564847
0.429703
0.447448
0.488956
0.477854
0.456690
0.427102
0.452497
0.309350
0.352392
0.288078
0.331075
0.224688
0.229718
0.258804
0.252422
0.282275
0.260093
0.179668
0.140598
0.231964
0.233643
0.174906
0.218709
0.176348
0.122977
0.125507
0.065597
0.124299
0.130167
0.102598
0.142446
0.144584
0.102410
0.145892
0.125219
0.137284
0.068050
0.142752
0.061760
0.096284
0.089233
0.104707
0.072584
0.082638
0.100068
0.124021
0.068491
0.035521
0.098342
0.039966
0.099159
0.072231
0.048903
0.077946
0.135622
0.087033
0.095598
0.065155
0.063646
0.114790
0.034454
0.098877
0.096286
0.119205
0.069498
0.071710
0.073089
0.146787
0.086677
0.118162
0.103476
0.127568
0.021893
0.098200
0.163187
0.014422
0.110748
0.117552
0.137610
0.106509
0.135368
0.114064
0.137001
0.120595
0.098676
0.116669
0.185585
0.187897
0.173908
0.170081
0.103176
0.108551
0.247005
0.264202
0.200243
0.180938
0.193545
0.198979
0.229924
0.241205
0.237527
0.226958
0.203944
0.195401
0.186317
0.197958
0.206975
0.133794
0.220452
0.167881
0.103080
0.188573
0.140913
0.167966
0.104360
0.041641
0.114579
0.036947
0.095065
0.013393
0.106003
0.055133
0.064117
0.091607
0.140937
0.085924
0.022134
0.011095
0.007817
0.082464
0.161822
0.229428
0.569205
0.768249
1.014720
1.169805
1.212738
1.081041
0.840417
0.542780
0.231936
-0.005953
-0.066088
-0.085060
-0.124335
0.033637
0.027965
0.102740
0.069975
0.153181
0.125075
0.076485
0.117176
0.084618
0.089441
0.108199
0.197667
0.125098
0.202165
0.176758
0.218009
0.174907
0.184699
0.249728
0.263220
0.257763
0.282219
0.283289
0.324277
0.423959
0.375543
0.346894
0.403807
0.416685
0.429761
0.452884
0.438158
0.478823
0.492754
0.489346
0.519776
0.494442
0.510863
0.525369
0.487032
0.496016
0.498392
0.496251
0.497340
0.544749
0.428642
0.456728
0.437105
0.463293
0.383521
0.442009
0.341683
0.325027
0.334129
0.348989
0.257403
0.335894
0.293311
0.271924
0.264470
0.149299
0.225931
0.222537
0.233070
0.190898
0.203790
0.141015
0.133938
0.082547
0.141584
0.206790
0.091473
0.080700
0.066146
0.155927
0.121918
0.078164
0.109304
0.057813
0.068414
0.120191
0.085217
0.060853
0.140070
0.012312
0.065178
0.049457
0.087790
0.071120
0.040935
-0.002208
0.048226
0.091323
0.071823
0.099953
0.075192
0.001655
0.093182
0.071339
0.045683
0.088075
0.126476
0.002704
0.038053
0.064703
0.100583
0.025819
0.055666
0.007664
0.069975
0.091817
0.109764
0.036593
0.095687
0.034717
0.098485
0.085549
0.090813
0.062286
0.069951
0.073820
0.090567
0.077663
0.053220
0.149335
0.075781
0.208805
0.089671
0.063235
0.081979
0.118174
0.067710
0.091075
0.161516
0.145404
0.230423
0.223465
0.221412
0.181838
0.182079
0.147919
0.256693
0.233940
0.203420
0.148771
0.216322
0.181953
0.243507
0.239537
0.219462
0.177211
0.169939
0.272498
0.226733
0.145812
0.081350
0.146482
0.181110
0.184472
0.042002
0.116050
0.125917
0.115173
0.089463
0.177628
0.130943
0.074615
0.108034
0.087476
0.103987
0.105345
0.086414
0.122535
0.044535
0.061086
0.119138
0.157848
0.092810
0.226969
0.421525
0.650958
0.955286
1.140337
1.274739
1.193739
0.926521
0.671696
0.398513
0.126672
-0.079151
-0.105023
-0.068528
-0.049056
0.102668
0.078918
0.096863
0.113499
0.191299
0.109110
0.164488
0.164705
0.157617
0.136455
0.170954
0.162700
0.255681
0.275999
0.295502
0.194370
0.215731
0.227275
0.337247
0.352023
0.286573
0.352552
0.388669
0.349315
0.465179
0.423565
0.428492
0.448479
0.375829
0.453875
0.533575
0.524233
0.560443
0.538560
0.534681
0.513967
0.512016
0.596008
0.594039
0.584685
0.572094
0.532184
0.546391
0.576444
0.525136
0.560716
0.531823
0.504551
0.510257
0.386238
0.472245
0.450504
0.455098
0.420547
0.409038
0.330608
0.336356
0.425093
0.299107
0.318236
0.337152
0.280886
0.271098
0.285092
0.177975
0.180092
0.206046
0.263598
0.206172
0.137523
0.240652
0.213045
0.129947
0.119540
0.179040
0.180463
0.185047
0.139835
0.169203
0.113808
0.202024
0.111882
0.136698
0.124024
0.168633
0.167033
0.167264
0.212625
0.176859
0.153483
0.171727
0.117209
0.152298
0.196724
0.113279
0.113687
0.172216
0.159346
0.112764
0.169467
0.127009
0.168529
0.221478
0.176830
0.160712
0.106298
0.151722
0.190370
0.197043
0.115302
0.201890
0.201912
0.146550
0.182726
0.086218
0.209707
0.130936
0.159207
0.147841
0.221712
0.161011
0.191994
0.189263
0.193392
0.220414
0.249924
0.228121
0.247877
0.208938
0.295981
0.268945
0.270608
0.332511
0.214614
0.263781
0.294602
0.268365
0.297476
0.307917
0.338119
0.342239
0.331987
0.375189
0.271956
0.304033
0.379140
0.382322
0.338153
0.325575
0.265976
0.331495
0.316464
0.271178
0.291545
0.255243
0.262712
0.295455
0.210013
0.270974
0.300224
0.196001
0.255797
0.198926
0.244647
0.203539
0.313770
0.216086
0.195673
0.187414
0.154100
0.248311
0.270758
0.240002
0.165127
0.243755
0.246958
0.266126
0.357933
0.516422
0.693639
1.007340
1.185768
1.357679
1.359080
1.177034
0.855274
0.510618
0.250751
0.032399
0.097143
-0.002708
0.092804
0.160712
0.284676
0.177625
0.243424
0.233692
0.230923
0.334703
0.276337
0.319097
0.274746
0.319753
0.359530
0.314892
0.377739
0.311342
0.401815
0.424282
0.358622
0.371225
0.330668
0.446816
0.499413
0.478773
0.511577
0.503904
0.536504
0.598350
0.550568
0.523944
0.585376
0.615391
0.597425
0.569077
0.656892
0.595911
0.645999
0.673598
0.682809
0.680531
0.710451
0.674450
0.660092
0.658176
0.661966
0.621017
0.635528
0.643040
0.584429
0.566712
0.506368
0.540847
0.480794
0.620738
0.498074
0.461198
0.441521
0.445367
0.405733
0.424074
0.439972
0.455019
0.340626
0.384198
0.397512
0.337977
0.298199
0.341695
0.346695
0.313022
0.243021
0.291997
0.325565
0.242477
0.222331
0.275776
0.227034
0.213850
0.165073
0.182874
0.211786
0.237572
0.234506
0.296689
0.313635
0.184658
0.298962
0.232677
0.300637
0.259015
0.251067
0.205556
0.231936
0.277151
0.271542
0.213371
0.185339
0.254822
0.211591
0.239180
0.303048
0.259770
0.183778
0.250270
0.157942
0.237925
0.192020
0.209241
0.254864
0.276007
0.205574
0.232608
0.261306
0.278851
0.274766
0.250742
0.292394
0.203468
0.179635
0.241651
0.245281
0.245595
0.257360
0.266387
0.284743
0.303201
0.243917
0.184726
0.274389
0.284671
0.276419
0.267391
0.353122
0.293199
0.330167
0.278223
0.410865
0.386425
0.353654
0.417887
0.395453
0.433327
0.362168
0.380808
0.448127
0.376038
0.392695
0.362856
0.361042
0.346451
0.396170
0.380474
0.388512
0.370572
0.334811
0.301304
0.320918
0.306395
0.290367
0.241401
0.302759
0.256975
0.255554
0.343210
0.273274
0.275455
0.232920
0.233984
0.251386
0.251868
0.295476
0.206199
0.194743
0.253217
0.237070
0.218507
0.267978
0.256282
0.290962
0.441904
0.685083
0.955202
1.173085
1.401861
1.375523
1.296800
0.927608
0.678896
0.354913
0.077275
0.028921
0.043508
0.088386
0.153961
0.144231
0.192396
0.256219
0.252431
0.290179
0.263305
0.336134
0.284816
0.305142
0.313910
0.277137
0.369941
0.369037
0.273938
0.324838
0.367742
0.387343
0.424036
0.422082
0.471345
0.471553
0.462885
0.465614
0.494439
0.429692
0.533855
0.534191
0.569897
0.513725
0.591768
0.607581
0.567524
0.580062
0.600174
0.621581
0.601315
0.682412
0.661124
0.655398
0.666313
0.674770
0.672029
0.532914
0.623792
0.650021
0.554513
0.582109
0.533003
0.556344
0.535810
0.479362
0.555847
0.508384
0.471715
0.439484
0.461829
0.346509
0.478050
0.406551
0.360610
0.402954
0.329083
0.291281
0.320540
0.357289
0.338341
0.268224
0.210980
0.296188
0.301394
0.197457
0.235817
0.225236
0.189727
0.206734
0.212237
0.271265
0.266263
0.174508
0.214100
0.175672
0.226804
0.191596
0.202797
0.108565
0.256306
0.217870
0.214793
0.225686
0.122955
0.211383
0.203093
0.165180
0.215340
0.179926
0.195009
0.226554
0.214045
0.175343
0.118890
0.207777
0.172698
0.205176
0.168344
0.171887
0.174006
0.238295
0.142845
0.194704
0.147332
0.214127
0.170244
0.214613
0.165927
0.189586
0.235659
0.159106
0.213484
0.159543
0.176918
0.221427
0.197023
0.199685
0.198396
0.224466
0.268992
0.129006
0.264060
0.190949
0.216635
0.173851
0.186952
0.218371
0.277454
0.272619
0.338584
0.300737
0.290030
0.221318
0.310658
0.326234
0.280534
0.326653
0.277952
0.359790
0.314802
0.313609
0.333154
0.287798
0.327855
0.286599
0.298721
0.252536
0.228019
0.275776
0.230265
0.263946
0.182801
0.226552
0.280312
0.243410
0.181627
0.188035
0.206856
0.238370
0.121822
0.168177
0.195342
0.207057
0.145130
0.100107
0.190937
0.197277
0.191159
0.132515
0.118747
0.241542
0.323478
0.513759
0.804251
1.062670
1.261648
1.314845
1.185699
0.991541
0.680875
0.340837
0.115509
-0.007608
-0.057099
0.028443
0.049644
0.069965
0.151977
0.131694
0.193210
0.241495
0.168541
0.225382
0.151555
0.219576
0.255612
0.281873
0.235646
0.287901
0.265362
0.322454
0.286489
0.289640
0.325617
0.363310
0.360190
0.359225
0.334696
0.332447
0.452865
0.454360
0.434646
0.428463
0.421516
0.528238
0.520116
0.494228
0.577813
0.575787
0.557678
0.577485
0.534004
0.578134
0.694198
0.599542
0.584862
0.555107
0.568611
0.464540
0.625213
0.513504
0.533245
0.552963
0.563905
0.528058
0.514650
0.532004
0.459834
0.362684
0.482881
0.367615
0.422502
0.308538
0.345848
0.283416
0.326107
0.312116
0.316202
0.276703
0.273441
0.187951
0.167113
0.185114
0.185236
0.195699
0.177789
0.197956
0.172509
0.175600
0.133738
0.205914
0.111920
0.114716
0.157312
0.141698
0.173625
0.134127
0.100377
0.114265
0.114827
0.170939
0.195639
0.133870
0.168667
0.172323
0.173614
0.241001
0.109479
0.162321
0.096883
0.078514
0.154693
0.113996
0.110053
0.206125
0.119990
0.121441
0.155080
0.078984
0.160887
0.170522
0.194569
0.081124
0.275609
0.157232
0.095733
0.124047
0.074802
0.113169
0.095508
0.158962
0.207665
0.198449
0.191726
0.141142
0.153454
0.164035
0.164171
0.140337
0.158700
0.068316
0.203602
0.211826
0.217246
0.227243
0.201017
0.213769
0.187890
0.200362
0.158276
0.229623
0.280382
0.264713
0.314264
0.317210
0.234940
0.309271
0.280709
0.330060
0.253343
0.288357
0.335231
0.336853
0.290328
0.287272
0.238767
0.297375
0.290469
0.236871
0.300060
0.214227
0.187597
0.229527
0.230896
0.243313
0.237157
0.170054
0.208452
0.187167
0.177006
0.228749
0.222901
0.167077
0.143260
0.127809
0.137670
0.187399
0.161417
0.160397
0.147553
0.203799
0.152985
0.153510
0.315908
0.500580
0.773462
0.958119
1.248154
1.287944
1.257063
1.119277
0.811451
0.433624
0.222702
0.071235
0.007261
-0.005184
0.070256
0.167328
0.120235
0.083917
0.224623
0.185221
0.196128
0.251592
0.187673
0.201262
0.268319
0.251820
0.230239
0.236094
0.210798
0.274265
0.287721
0.274384
0.347151
0.387336
0.419780
0.351803
0.415575
0.393658
0.431041
0.494703
0.374289
0.481672
0.491646
0.558778
0.514802
0.547976
0.617179
0.582705
0.628756
0.603938
0.636898
0.647906
0.566865
0.596727
0.674872
0.636793
0.601942
0.619139
0.546353
0.644458
0.487053
0.551759
0.597932
0.561361
0.529637
0.528485
0.483848
0.470469
0.488416
0.433842
0.425942
0.439293
0.392882
0.402547
0.300329
0.327932
0.310698
0.370119
0.320624
0.301209
0.256341
0.330745
0.303080
0.234721
0.281412
0.250806
0.254465
0.258551
0.191943
0.214526
0.226300
0.212132
0.256606
0.251921
0.187690
0.112272
0.242050
0.161402
0.186880
0.190759
0.216988
0.236864
0.150561
0.161409
0.203102
0.204268
0.204573
0.197470
0.209261
0.177625
0.266409
0.261168
0.220380
0.218557
0.155495
0.309952
0.135212
0.238405
0.251295
0.234900
0.276767
0.197380
0.123443
0.261386
0.251740
0.176293
0.231661
0.206302
0.168381
0.131435
0.210676
0.222647
0.214348
0.230521
0.300323
0.200424
0.241761
0.214472
0.212205
0.236224
0.266298
0.259400
0.228484
0.290723
0.288145
0.244955
0.289628
0.296126
0.305834
0.288254
0.333122
0.309799
0.345167
0.350686
0.354196
0.412921
0.334512
0.405650
0.389107
0.311809
0.392263
0.387121
0.331835
0.392174
0.383272
0.419747
0.398008
0.350468
0.352452
0.292070
0.344330
0.323888
0.263623
0.266281
0.290987
0.289202
0.258344
0.300907
0.283805
0.326510
0.281757
0.278221
0.309350
0.295484
0.259115
0.247180
0.312149
0.276821
0.240213
0.286844
0.260246
0.331029
0.366681
0.536201
0.637377
0.967044
1.305503
1.500000
1.382981
1.261259
0.979736
0.692212
0.387338
0.193196
0.081904
0.104190
0.111661
0.141175
0.248765
0.281306
0.230139
0.324223
0.233602
0.279218
0.316770
0.282535
0.348682
0.334254
0.393201
0.376722
0.437250
0.415069
0.368688
0.422199
0.367017
0.366342
0.356505
0.471379
0.471879
0.536336
0.542979
0.504235
0.560209
0.601952
0.609159
0.612158
0.647094
0.598282
0.663546
0.660641
0.621223
0.663623
0.727206
0.730663
0.680745
0.775378
0.675653
0.718712
0.713520
0.647385
0.641452
0.674962
0.661935
0.664097
0.674443
0.625209
0.695483
0.639640
0.590108
0.606062
0.522300
0.558786
0.501145
0.433477
0.502045
0.473214
0.374041
0.467121
0.463790
0.370733
0.424701
0.364206
0.439353
0.333463
0.405884
0.297792
0.361558
0.360149
0.314317
0.350168
0.298724
0.306547
0.284540
0.268512
0.282635
0.213132
0.269713
0.254440
0.304563
0.285536
0.259786
0.339710
0.275894
0.275250
0.334190
0.333411
0.214249
0.214426
0.221159
0.243522
0.313111
0.316016
0.312620
0.274663
0.302553
0.261450
0.304539
0.225702
0.265015
0.244290
0.263359
0.295179
0.291330
0.307233
0.315921
0.267460
0.261557
0.255777
0.263869
0.268156
0.297108
0.315978
0.250402
0.268056
0.312030
0.220342
0.298461
0.278478
0.256233
0.267964
0.298267
0.248873
0.287926
0.252927
0.274926
0.270876
0.306660
0.307935
0.293352
0.276420
0.322229
0.389190
0.317146
0.407279
0.373817
0.456576
0.442070
0.458325
0.470191
0.378724
0.370793
0.393441
0.394087
0.445930
0.497738
0.387466
0.420728
0.355014
0.443711
0.367876
0.307448
0.372392
0.330395
0.349137
0.335536
0.310884
0.366389
0.313173
0.260321
0.300307
0.317809
0.352053
0.260667
0.255731
0.300106
0.326403
0.256369
0.346094
0.256496
0.331352
0.254265
0.231254
0.256409
0.247369
0.293392
0.535944
0.660184
0.954052
1.166313
1.344616
1.461088
1.300989
1.026519
0.751686
0.492310
0.192990
0.159866
0.143026
0.103090
0.175976
0.273006
0.318284
0.338104
0.304779
0.296215
0.241091
0.249313
0.320872
0.369969
0.296829
0.321691
0.350910
0.340481
0.363572
0.358389
0.351082
0.357791
0.411937
0.454867
0.411299
0.439316
0.415909
0.437090
0.545690
0.576929
0.486866
0.584699
0.580741
0.613397
0.568076
0.619389
0.602820
0.662243
0.656858
0.630988
0.684612
0.684967
0.611386
0.673310
0.631012
0.660000
0.638711
0.676049
0.733109
0.661968
0.630711
0.605284
0.584667
0.552744
0.647434
0.558892
0.494048
0.530390
0.464930
0.483635
0.465375
0.451258
0.416874
0.388575
0.405328
0.411956
0.375253
0.268219
0.368129
0.345279
0.269072
0.256326
0.264379
0.217529
0.265758
0.294495
0.218700
0.243755
0.238569
0.226138
0.267337
0.248419
0.286723
0.305519
0.252490
0.164627
0.171436
0.233823
0.154533
0.270920
0.233026
0.194744
0.157912
0.276161
0.185146
0.202474
0.191357
0.266272
0.183310
0.267201
0.235321
0.238917
0.231408
0.183395
0.265899
0.184998
0.183879
0.123408
0.237622
0.165547
0.274500
0.192753
0.200769
0.237726
0.195083
0.294440
0.207596
0.247238
0.200606
0.207480
0.230652
0.207992
0.121874
0.221694
0.183067
0.156548
0.208261
0.187033
0.198938
0.243234
0.293109
0.240696
0.171311
0.265575
0.152260
0.275947
0.274306
0.237489
0.288370
0.276891
0.283682
0.225946
0.336896
0.244519
0.361937
0.363672
0.327496
0.361684
0.359125
0.257794
0.360893
0.363480
0.312928
0.336568
0.291340
0.319630
0.282500
0.255674
0.278594
0.260306
0.303443
0.274293
0.267577
0.223363
0.275170
0.262924
0.228069
0.180661
0.182316
0.154080
0.188039
0.223895
0.263737
0.209404
0.184364
0.159429
0.170824
0.154293
0.165600
0.166346
0.134989
0.222097
0.434487
0.453179
0.773769
1.028525
1.198503
1.391839
1.302624
1.063508
0.791390
0.419011
0.152466
0.114177
-0.009752
0.078580
0.087173
0.174872
0.126928
0.124206
0.193616
0.170645
0.246446
0.230068
0.294669
0.165954
0.234097
0.225647
0.285277
0.312820
0.283199
0.327555
0.301810
0.297562
0.369315
0.376388
0.369416
0.404158
0.361544
0.356688
0.408988
0.377724
0.460004
0.546048
0.460825
0.499601
0.491150
0.561332
0.519338
0.611414
0.649375
0.552571
0.580855
0.625067
0.600254
0.612919
0.590957
0.648628
0.611729
0.597552
0.574194
0.509930
0.535247
0.470736
0.630537
0.460129
0.534642
0.446274
0.469220
0.475041
0.430760
0.367750
0.348509
0.361878
0.302444
0.329590
0.288226
0.301565
0.307763
0.314681
0.178601
0.279944
0.269585
0.250747
0.233463
0.220062
0.251561
0.294662
0.139629
0.219408
0.229270
0.210780
0.151297
0.165165
0.110458
0.115525
0.173819
0.235288
0.198116
0.169013
0.207575
0.128674
0.171656
0.173829
0.148854
0.177007
0.106565
0.124133
0.139508
0.230412
0.169487
0.103598
0.169470
0.154253
0.154447
0.189304
0.212466
0.159862
0.199595
0.139483
0.112397
0.218948
0.149228
0.128247
0.210341
0.130466
0.223612
0.190090
0.183736
0.096646
0.171432
0.207328
0.226088
0.165663
0.194490
0.050808
0.193829
0.155206
0.158024
0.208678
0.186165
0.207451
0.295273
0.123837
0.267284
0.269562
0.257125
0.253464
0.177659
0.249648
0.223231
0.268933
0.302532
0.376870
0.283701
0.384211
0.290187
0.301495
0.316883
0.298813
0.278252
0.377066
0.315945
0.282590
0.303334
0.255703
0.304595
0.280135
0.205629
0.326527
0.246862
0.253982
0.244722
0.298252
0.204125
0.227582
0.138582
0.258356
0.186669
0.161803
0.212793
0.209009
0.220066
0.215653
0.195070
0.203713
0.234702
0.254411
0.112901
0.161587
0.155853
0.252052
0.262206
0.254663
0.330871
0.455134
0.751954
0.941137
1.225562
1.311915
1.290216
1.209245
0.882124
0.569064
0.301723
0.156718
-0.022017
0.019552
0.025770
0.084620
0.178050
0.176208
0.250704
0.280810
0.180068
0.230610
0.272155
0.279096
0.271762
0.282332
0.297498
0.309162
0.312705
0.376626
0.375340
0.372235
0.343923
0.455320
0.371273
0.445421
0.437199
0.466223
0.398656
0.535917
0.513647
0.574509
0.589797
0.527198
0.602006
0.572883
0.571782
0.637887
0.549014
0.583649
0.635682
0.686966
0.655603
0.609097
0.654763
0.606998
0.569375
0.685239
0.640336
0.632089
0.656366
0.506203
0.558655
0.560554
0.583211
0.493169
0.508812
0.581508
0.545264
0.473373
0.456032
0.440822
0.463393
0.387833
0.365437
0.398552
0.397742
0.278286
0.373920
0.262767
0.351209
0.330381
0.268419
0.296759
0.309242
0.246491
0.244445
0.215639
0.231004
0.299203
0.279795
0.254962
0.221406
0.215305
0.243303
0.237318
0.305027
0.238733
0.233626
0.299962
0.376925
0.347059
0.230403
0.170176
0.214872
0.218920
0.203516
0.260736
0.199116
0.299247
0.264399
0.236318
0.198098
0.237090
0.246753
0.239494
0.261256
0.246433
0.322452
0.212229
0.222889
0.301385
0.300814
0.258264
0.264858
0.224043
0.252929
0.312844
0.241048
0.264190
0.221126
0.252832
0.256404
0.295007
0.267307
0.298560
0.277637
0.297071
0.272216
0.263615
0.275361
0.319336
0.270325
0.287774
0.309120
0.302392
0.310976
0.374167
0.306715
0.363207
0.382013
0.390236
0.386359
0.372039
0.379508
0.420234
0.348274
0.383713
0.415237
0.437078
0.435771
0.421604
0.448919
0.404769
0.399553
0.383047
0.405316
0.320342
0.429005
0.389141
0.366851
0.325737
0.404259
0.425519
0.318373
0.369936
0.289832
0.364676
0.249216
0.328250
0.290058
0.314953
0.404752
0.309554
0.279101
0.253713
0.266539
0.281116
0.303103
0.242751
0.249288
0.242472
0.338729
0.465338
0.674728
0.934637
1.244476
1.437917
1.405309
1.366335
1.028484
0.695664
0.455952
0.284420
0.106331
0.131653
0.177263
0.209640
0.276815
0.229268
0.271436
0.331702
0.284341
0.321445
0.379136
0.308424
0.353675
0.448036
0.318989
0.289824
0.467372
0.442645
0.427456
0.411920
0.469194
0.478225
0.460005
0.524607
0.527909
0.583242
0.532812
0.596280
0.613864
0.622513
0.608623
0.622247
0.698253
0.626336
0.662954
0.727327
0.708823
0.734349
0.741498
0.713375
0.730230
0.728558
0.701467
0.691246
0.751082
0.631423
0.669878
0.680436
0.674708
0.649246
0.667614
0.717536
0.598884
0.635538
0.615019
0.591134
0.667609
0.597919
0.486932
0.481456
0.535421
0.488064
0.502349
0.438326
0.481119
0.465527
0.358828
0.439641
0.424904
0.471618
0.339434
0.336651
0.295178
0.269786
0.361965
0.332302
0.361103
0.310127
0.315666
0.275846
0.239038
0.342784
0.369088
0.321030
0.323250
0.305847
0.289227
0.372920
0.314303
0.280652
0.271545
0.262974
0.279357
0.346951
0.302176
0.342244
0.370503
0.337374
0.269611
0.258067
0.273535
0.329650
0.347878
0.329517
0.365327
0.293687
0.269694
0.292248
0.316949
