0.085457
-0.543080
-0.009841
0.001637
-0.353261
-1.074969
0.203253
0.599904
0.379216
0.429087
-0.142984
0.011918
-0.107341
-0.584389
-0.390379
-0.398576
-0.837097
0.456892
-0.171746
-0.387594
-0.425731
0.184969
-0.170526
0.716812
-0.052460
-0.303370
0.143304
-0.078287
-0.026572
-0.413545
0.383211
0.078595
0.180031
-0.387394
0.340802
-0.227549
0.339447
-0.384860
-0.239746
-0.255013
0.236073
-0.116898
-0.365568
0.202721
0.074128
0.154710
0.715207
0.158052
0.307115
-0.332493
0.281670
0.427590
0.306177
-0.033479
0.371011
0.056280
0.331025
0.435850
0.150356
0.218651
0.238065
0.109844
0.108662
0.151091
-0.138692
-0.317307
0.533520
0.399885
0.088439
-0.168855
-0.242469
0.671546
-0.122587
-0.122802
-0.132468
-0.110549
-0.250097
-0.005894
0.256817
-0.025007
0.688038
-0.126787
-0.373631
0.137461
0.665660
0.199873
-0.261424
-0.445229
-0.120620
-0.493151
0.384520
0.008847
0.648963
-0.120348
0.530318
0.125906
0.285953
0.571436
0.426604
0.363121
0.927248
0.920686
0.612120
-0.010176
0.145790
0.152964
-0.229392
0.035579
-0.304474
-0.986023
-0.160396
-0.822073
-0.345353
-0.456635
-0.073586
-0.125524
0.182256
-0.319184
-0.341423
-0.150384
-0.217042
-0.143815
0.147055
0.334009
0.406379
-0.297293
0.008609
0.408731
0.276410
0.011824
-0.007976
-0.699353
0.254758
0.198506
0.305983
-0.065460
-0.444050
-0.405317
-0.599029
0.349049
0.015130
0.713171
-0.143566
-0.104374
-0.149378
0.437938
0.269811
0.379846
0.452239
0.294712
0.243899
-0.176167
0.399427
0.453629
-0.306926
-0.434642
0.196415
0.026010
0.476891
0.500068
0.473511
-0.298681
0.174232
0.499442
-0.052638
0.488364
0.203378
0.232353
0.481057
0.525825
0.090894
0.737598
0.812456
0.371383
0.390744
0.225560
0.356110
0.824708
0.177467
0.394304
-0.016831
0.073217
-0.351014
0.477085
0.610455
-0.230598
0.614286
-0.004286
0.206235
-0.394201
0.536750
0.555596
0.480717
-0.263872
0.004453
-0.361068
0.183282
0.292066
-0.280790
0.364297
-0.200274
0.128115
-0.334355
0.227343
0.030566
-0.490676
0.429696
-0.265275
0.325142
0.420636
-0.788089
-0.535614
-0.131506
-0.143480
-0.188005
1.185889
0.339270
0.377564
-0.163894
-0.139981
-0.403381
0.089526
0.497430
0.001217
-0.152915
-0.532128
-0.187046
0.377806
-0.443387
0.036305
0.058637
-0.045296
0.622146
-0.090006
0.463018
-0.620417
-0.555177
-0.127403
0.285967
0.061696
-0.765173
-0.018788
-0.082476
0.135567
0.165735
-0.035935
0.108537
0.147857
0.917247
-0.290230
0.438008
0.257809
-0.831300
-0.183032
-0.191247
0.350592
0.538456
-0.225860
-0.046695
-0.527694
0.091470
0.013222
-0.076611
-0.163536
0.775288
0.264203
0.580116
0.146452
0.050328
0.026245
-0.427452
0.349540
-0.681380
0.337336
-0.680730
0.442428
0.297014
0.472263
0.010298
-0.248791
0.095696
-0.016983
-0.940709
-0.199667
-0.054549
-0.020697
-0.140636
0.230279
-0.537693
0.107988
0.513048
-0.859266
-0.103462
0.251258
0.113711
0.474622
-0.060844
0.837421
0.048754
-0.085815
0.315607
-0.126301
-0.080364
-0.013886
-0.633469
0.047498
0.205893
0.008283
0.516391
0.266105
0.392905
-0.369032
0.295091
-0.256801
-0.564878
-0.433856
-0.193771
0.074890
0.044087
-0.364759
-0.213324
0.445610
-0.048969
0.063552
-0.005715
-0.101896
0.084627
-0.383581
0.166393
0.176846
-0.539987
0.635539
0.042101
0.106602
0.228484
-0.084518
0.391807
0.283503
0.147329
-0.157618
-0.255865
-0.023468
-0.315209
-0.474708
-0.296918
0.474522
0.213804
-0.325561
0.784860
0.376856
0.196047
0.828110
0.816765
0.541072
0.889842
0.473842
-0.271763
0.044799
-0.086266
-0.335750
-0.141991
0.071140
0.047958
-0.348433
0.110235
0.714603
-0.210813
-0.363860
-0.093452
-0.387541
0.841968
0.203532
0.102245
0.296668
-0.307713
0.320801
-0.059103
-0.344640
-0.109809
-0.124140
-0.465618
0.510215
0.166644
0.415963
0.291753
-0.352485
-0.080644
-0.280592
0.026510
0.336102
0.271678
0.052976
0.153595
-0.251722
0.434076
-0.073262
-0.210167
-0.083927
0.127874
-0.078902
-0.295833
-0.889587
0.168697
0.319112
-0.003848
0.598974
0.386199
0.451642
0.111536
0.243484
0.671727
0.367929
0.180502
-0.110269
0.185456
0.374024
0.485232
0.319539
0.967223
-0.497580
-0.133381
0.677108
0.048103
-0.139790
0.703335
0.703933
0.382685
0.364441
0.532543
-0.226021
0.925318
-0.429870
0.296141
0.426674
0.195219
-0.049173
0.529972
0.490459
-0.004710
-0.603255
-0.337472
-0.161705
0.474474
0.258623
0.290158
0.011872
0.190811
-0.212184
0.523451
0.017295
0.123767
0.340968
-0.420219
-0.102121
0.240711
-0.375822
0.005082
0.044485
-0.234824
-0.408979
-0.328980
-0.021871
-0.095947
-0.343836
0.316346
0.006227
-0.604054
-0.183167
0.142251
0.076374
-0.184215
-0.630440
-0.295501
-0.284833
0.058360
-0.417502
-0.065647
-0.202899
0.168273
-0.261517
0.155149
0.401868
0.140301
0.031137
-0.737549
0.232670
0.292428
-0.116161
0.136540
0.036847
-0.511071
-0.517335
-0.145930
-0.234644
0.132592
0.343722
-0.050106
-0.125295
0.788361
0.060947
-0.644201
-0.957097
-0.190083
-0.306685
0.072645
-0.569379
0.616745
0.277370
0.496978
-0.322735
-0.299642
-0.125612
-0.015917
0.229967
-0.090183
-0.415242
-0.617789
-0.241053
-0.281199
-0.661263
-0.154544
0.120513
-0.320766
-0.004098
-0.789741
0.676087
-0.405098
0.177051
-0.309978
0.282402
0.611611
-0.014818
-0.190074
0.400749
-0.367276
-0.367270
0.038143
0.492019
-1.073852
0.173733
0.331959
-0.042887
0.092817
-0.010708
0.117407
-0.168426
0.120082
-0.121283
0.222022
-0.055698
0.031845
0.413852
0.111797
-0.135604
0.168287
-0.443170
-0.147929
0.357475
0.551742
-0.050699
0.450322
0.026278
0.300781
0.553584
-0.291390
0.160971
-0.044682
-0.284696
0.121813
0.182727
0.024365
-0.302061
-0.167173
-0.409594
-0.435297
-0.037531
-0.329644
-0.213729
0.165161
0.046162
0.542006
0.651362
0.062201
0.239755
-0.143719
-0.670877
-0.164758
-0.113595
-0.028062
-0.436564
-0.457627
0.129707
-0.656507
0.179665
0.046339
0.719691
0.010503
0.573144
1.052717
0.738667
0.057497
0.168241
0.766811
0.113770
0.644520
-0.470537
-0.144363
-0.062834
-0.069207
0.780857
-0.048060
-0.245087
0.367147
-0.748298
0.124029
-0.258139
0.325147
-0.469001
0.019365
0.142477
-0.230137
-0.133881
0.195331
0.216131
0.128113
0.073860
-0.117633
0.170370
-0.103409
0.280291
0.328193
-0.566324
-0.150274
0.077032
-0.367080
-0.107038
0.650822
0.038249
0.075317
-0.647377
-0.356937
0.312949
-0.055288
-0.051534
-0.241135
0.543338
-0.319153
-0.115345
-0.036097
-0.053540
-0.069937
-0.366129
-0.128961
-0.213130
-0.217131
0.483041
-0.031396
-0.043073
0.782626
-0.295809
-0.031727
0.107763
0.582578
0.285546
0.210988
0.718603
0.374077
0.074204
0.698479
-0.225986
0.712905
0.197762
-0.238303
-0.532663
0.879605
0.260377
-0.105217
-0.158204
0.349041
0.198411
-0.603276
0.142045
0.747932
0.511260
0.018193
-0.242181
0.632588
-0.045506
0.037796
0.154112
0.369041
-0.040475
0.064874
0.221195
-0.079187
-0.046349
-0.389068
0.296960
-0.105310
-0.206628
-0.391205
-0.587026
0.718297
-0.461287
0.174307
0.152867
0.273494
-0.048274
0.413848
-0.181430
0.413249
0.384790
0.121947
0.381105
0.322270
-0.321973
0.368853
-0.368419
0.915590
-0.417845
-0.082339
-0.086755
0.206659
-0.475964
0.145551
-0.125652
0.118260
-0.423888
-0.043160
-0.395192
0.275916
-0.491563
-0.298352
1.102573
0.060399
-0.013240
-0.097218
-0.006925
-0.407172
-0.393479
0.230499
-0.506531
0.052927
0.327224
-0.155366
-0.646372
0.483742
-0.069398
0.603892
0.645766
0.206564
-0.504057
-0.456498
0.222467
-0.280600
0.109596
0.273251
0.353619
0.119573
-0.069602
0.032976
0.022094
0.333555
-0.194527
0.518594
-0.288587
0.186681
-0.123095
-0.259488
0.561514
-0.398884
0.672934
-0.059896
-0.236941
0.095725
-0.095980
-0.404851
-0.087677
0.208572
0.378190
0.403942
0.578634
-0.147812
-0.507718
-0.350363
0.361063
-0.280605
-0.157993
0.350547
0.370499
0.851830
0.518583
-0.232774
0.224030
-0.137966
0.099172
0.206893
-0.050496
1.044977
0.872890
-0.484550
-0.096780
0.650940
0.423005
0.195608
0.256640
0.168472
0.125889
0.264359
0.761810
-0.245086
0.460964
0.152796
-0.576030
0.222709
0.250365
0.109100
0.053564
0.000766
-0.054293
0.376285
-0.253506
-0.791508
-0.331772
0.070112
0.188064
0.654511
-0.101627
0.055471
0.391984
0.344282
-0.315217
0.241741
0.130457
-0.059768
0.070099
0.612984
-0.125633
-0.581060
0.001950
0.250324
0.725404
-0.289854
0.528426
0.030057
-0.339672
0.436215
1.061364
0.572865
0.665911
0.618349
1.042079
1.166382
-0.053253
0.534572
0.431481
-0.051719
-1.059203
0.638774
-0.067712
-0.378738
0.852506
-0.483597
0.279865
0.118692
0.650742
0.398222
0.439263
0.762341
-0.094996
0.567898
0.281738
-0.616752
0.546824
0.166518
0.162327
-0.010733
0.665450
-0.124475
-0.157938
0.235653
0.212998
0.174132
0.320749
0.775482
0.644875
0.000709
0.376138
0.295387
-0.139711
0.092969
-0.093016
0.536821
0.366819
-0.341194
0.665808
-0.100058
0.355543
0.194803
0.106013
0.385773
0.179804
0.211443
0.729185
-0.499636
0.122421
0.196126
0.238996
0.498776
0.254379
0.703380
0.059231
0.375911
1.331400
0.743784
0.475483
0.128325
0.700978
0.503596
0.227600
0.156339
0.394515
0.353397
0.432325
0.200206
-0.091448
-0.222228
0.203870
0.085059
0.373368
0.112189
0.718503
0.445916
-0.078978
-0.099145
0.445753
-0.071613
0.127703
0.520504
0.915744
-0.171699
0.098541
-0.179815
0.426250
0.075397
-0.305922
-0.430126
0.258147
-0.648952
-0.254795
-0.084823
0.474294
-0.010591
-0.042884
0.247273
0.600286
-0.088666
-0.142468
-0.277967
-0.203705
-0.109537
0.060747
0.212301
0.446780
0.446200
-0.247231
-0.507063
0.426110
0.021777
0.844954
0.637498
0.307055
-0.247843
-0.276299
0.630206
0.117173
0.205886
-0.009233
-0.411319
-0.212210
0.058495
0.043498
0.107716
0.100151
-0.482267
0.080021
-0.270957
0.070672
0.608341
0.154194
0.075087
-0.465665
0.052324
-0.229388
0.375438
0.021182
0.007139
-0.485307
0.128452
-0.321946
0.054797
-0.382653
0.155618
-0.587373
0.090085
-0.055430
-0.176209
0.529619
0.098495
0.034148
0.137255
0.028023
-0.200190
-0.229608
0.601271
0.145239
-0.226484
-0.389290
-0.133358
-0.633533
0.192222
0.250621
0.648286
0.100855
0.283727
-0.248148
0.601660
-0.371246
0.818194
0.090943
0.111783
0.132031
0.315431
-0.179342
0.271266
0.346150
-0.471647
0.321676
0.396837
-0.071698
-0.328375
0.199119
0.053046
0.596529
0.453657
0.341561
-0.189607
0.157567
0.273632
0.183668
0.512681
-0.161403
0.392855
0.591897
0.418236
-0.608188
0.734647
-0.149691
0.118998
0.139260
0.126820
0.255285
0.004869
0.405363
0.048875
-0.188204
0.954589
0.919823
-0.020924
0.312079
0.189555
-0.153903
-0.187252
-0.100366
0.567532
0.227019
-0.464668
0.181909
0.095838
-0.021048
-0.190210
0.313434
0.048838
0.016472
0.064030
0.079231
-0.086936
0.354931
0.117060
0.016911
-0.643986
-0.107010
-0.593601
-1.058519
0.130310
0.318849
0.339905
-0.157023
0.195536
1.084337
0.628781
0.295421
0.871300
0.823927
0.054573
0.043621
-0.148261
-0.121318
-0.351653
0.358785
-0.470879
-0.258567
0.407331
0.381586
-0.042736
0.303132
0.761086
0.144067
0.742020
0.110248
-0.308617
0.186621
0.287858
0.460875
-0.186825
0.205658
0.512903
-0.082926
0.045502
0.393491
-0.634794
0.520906
0.553389
-0.017359
0.203749
0.678731
0.163563
0.450950
0.441099
0.236376
0.042745
0.119098
-0.120448
-0.234363
0.331747
0.167029
-0.746489
0.489557
-0.481472
-0.005039
0.653878
0.096961
0.473487
0.783459
0.129945
-0.014397
0.218739
-0.038914
0.613075
0.490683
-0.487623
0.228863
-0.230373
-0.040943
-0.287561
0.232007
-0.094786
0.287743
0.394252
0.541675
1.213919
0.233982
0.070528
0.472958
0.274066
0.191862
0.074186
0.235073
0.507506
0.431505
-0.216512
-0.139551
0.383429
0.146548
0.134288
0.481831
0.517006
-0.701819
0.481116
0.235450
-0.196626
0.169395
-0.246557
-0.065843
0.387562
0.220354
-0.194280
-0.978378
-0.375849
0.186305
0.070456
-0.627758
0.180241
0.133026
-0.503839
-0.380539
0.421332
-0.070927
0.239404
0.456261
-1.006516
0.045395
-0.192736
0.664696
-0.580834
0.129411
-0.714262
0.173436
0.095314
0.184696
-0.372798
-0.244932
-0.612403
0.512611
-0.458969
0.261435
-0.214676
0.375848
0.339787
0.387396
-0.094897
0.541079
-0.011035
0.008989
-0.261517
0.585478
-0.015636
0.641409
-0.610180
-0.549892
0.092422
-0.128478
-0.612494
-0.387646
0.034219
-0.017162
-0.183844
-0.408445
-0.401857
0.567805
-0.461819
0.287693
-0.222478
-0.182263
-0.864327
0.309814
-0.582311
0.080404
0.130269
-0.221928
-0.105282
0.802822
0.527583
-0.299516
-0.015864
-0.237851
0.205449
-0.343375
-0.163326
-0.643289
-0.418708
-0.242169
0.111674
-0.066090
0.549147
-0.155520
-0.165861
-0.295790
-0.462796
-0.042017
0.404759
0.163107
0.549648
0.335515
-0.097589
0.769057
0.116191
0.081877
-0.068302
-0.656166
0.152747
-0.394155
0.071091
-0.381476
0.325624
-0.421886
-0.067799
0.146085
-0.038116
0.218413
-0.202170
0.859811
0.178007
-0.556350
-0.119241
0.210693
-0.224514
-0.371153
0.259850
0.230367
0.466683
0.019022
0.822940
-0.620367
0.281906
0.164312
0.017321
-0.675913
-0.175047
-0.081033
0.074295
0.494801
-0.276235
0.212004
0.279193
0.564344
-0.116464
0.422291
-0.056033
-0.576746
-0.699937
-0.201834
0.163317
0.359260
-0.273142
0.183978
-0.179872
0.127674
-0.349977
-0.389921
-0.469340
-0.596402
-0.546464
-0.379919
-0.162181
-0.204136
0.659427
-0.029171
0.917475
0.625408
0.454630
0.284685
0.170503
0.211200
0.174063
-0.060452
-0.022777
-0.018633
-0.204649
-0.287245
-0.038831
0.316458
-0.091737
0.349194
-0.365782
0.288242
-0.263802
0.192723
-0.313391
-0.092879
-0.038012
0.296064
-0.240336
-0.101649
0.635218
0.323780
-0.277860
0.533228
0.847582
0.632274
-0.082050
-0.116211
0.417263
0.156820
-0.209179
0.126341
0.718691
0.266227
0.059101
0.019509
-0.084334
-0.096747
0.416786
0.151460
-0.261300
-0.076911
0.145623
0.175124
-0.374492
0.766132
-0.194335
0.575433
0.114118
0.384686
-0.152488
0.285720
0.064602
0.382467
0.338514
0.819405
0.163093
0.263734
-0.307849
-0.091774
0.103792
-0.061760
-0.025974
0.267688
-0.079536
-0.032146
0.387684
0.252115
0.515054
0.230929
0.137869
-0.269143
0.380108
-0.002195
-0.104769
-0.142672
-0.009847
0.082988
0.144989
-0.070064
-0.170735
-0.297669
-0.202883
-0.416425
0.212131
0.206785
0.198898
0.294126
-0.155979
-0.387016
0.151463
-0.266014
-0.455737
0.220261
-0.416008
0.460365
0.039682
0.008841
0.185347
0.148847
0.297114
0.285409
0.208356
0.514145
-0.016046
0.522425
0.599262
0.331915
0.142339
0.436164
0.122931
0.050040
-0.179017
0.798164
-0.364783
0.142693
0.108669
-0.431425
0.345609
-0.019692
-0.079184
-0.293588
-0.018559
0.084556
-0.242348
0.166592
-0.186909
0.694720
-0.071887
-0.052809
-0.011515
0.347007
-0.262113
0.691597
-0.026890
0.624423
-0.619988
0.468227
0.202410
0.297576
0.263858
-0.072760
0.250916
0.149050
0.227448
-0.155518
-0.256606
-0.092695
0.223873
0.322507
0.391823
0.174748
-0.100550
0.323300
-0.197204
0.104345
0.005652
-0.319009
-0.232630
-0.147388
0.268191
0.045380
0.117885
0.470343
-0.288565
-0.242845
-0.054367
0.111267
0.104969
-0.340353
0.543312
-0.362110
-0.080800
0.339541
0.288574
-0.204867
-0.230678
0.133125
-1.274794
-0.324088
0.595577
-0.418304
0.147015
0.374091
-0.217954
0.159853
-0.207430
-0.170218
0.424106
0.276076
-0.383462
0.761507
0.173785
0.220723
0.134400
1.302542
-0.270290
-0.556816
-0.421759
0.408797
-0.376433
-0.309803
0.489048
0.417165
0.833102
0.489222
0.260624
0.311123
-0.517198
0.387493
0.810587
0.080038
0.418705
0.397493
-0.377977
0.257301
-0.108057
-0.520583
-0.026463
-0.853666
0.539916
-0.140558
0.145464
-0.589500
0.732784
-0.065352
-0.476752
-0.296179
-0.094897
-0.079517
-0.056317
0.385904
-0.062584
0.068594
-0.317351
0.061281
-0.798216
0.115109
-0.250446
-0.000247
0.007852
0.638213
-0.131283
-0.243881
1.389545
1.054987
0.825702
0.904408
0.536968
0.344636
0.458735
0.697960
0.017756
-0.474121
0.128636
-0.398134
-0.220468
-0.393758
0.322531
-0.375640
0.597463
-0.584717
-0.170085
0.209638
0.417204
-0.268631
0.324631
0.036444
-0.319017
-0.254598
-0.213445
-0.315431
-0.272419
0.089737
0.020692
-0.299035
-0.136427
-0.040898
0.611475
-0.207820
0.187071
0.108765
0.035076
-0.635352
-0.199512
-0.380044
-0.018087
0.393213
-0.047156
0.352919
0.462056
0.500994
-0.361217
0.197837
-0.531849
0.578273
-0.193232
0.265227
0.267509
0.444495
0.313736
0.488681
1.062304
-0.140172
-0.227239
0.413608
0.100323
0.817906
0.957106
0.226580
0.379471
-0.154195
-0.130343
0.194193
0.408146
0.445656
0.317353
0.424557
-0.228317
-0.332590
0.349005
0.034254
0.595375
-0.337364
0.167815
0.335590
-0.479443
0.357219
0.603225
0.311357
-0.396142
0.242657
-0.065213
0.364682
0.268618
0.853013
-0.097296
-0.545990
-0.223510
0.990256
0.172060
-0.407828
0.335701
-0.185144
-0.222703
0.535265
-0.108947
0.817288
0.176534
-0.171533
0.587907
-0.579841
0.545583
-0.326503
-0.240703
-0.280221
0.350576
0.351559
-0.046948
0.331019
0.016542
-0.800071
0.141115
0.236230
0.125781
0.227272
0.210253
0.005266
-0.668928
0.396902
-0.377551
0.404971
-0.133330
-0.773434
0.069976
-0.329146
-0.004867
0.269325
-0.373141
-0.195255
0.239018
-0.379125
-0.079960
0.510663
0.074405
0.078541
0.570175
-0.066762
0.090330
-0.181290
0.197919
0.218201
-0.083997
-0.015476
0.057261
-0.317303
-0.218427
0.092911
0.444558
-0.006151
-0.312824
-0.059471
0.232769
0.394609
0.255936
-0.111153
0.099931
0.506763
-0.481009
0.393547
0.063212
-0.094068
-0.068060
0.058137
-0.471822
-0.441099
0.728889
-0.280789
-0.016529
0.128775
-0.154761
0.200760
0.969742
0.640328
-0.738070
0.242553
-0.224686
0.036903
0.146523
0.254876
0.125105
0.189945
-0.030882
0.017056
0.192939
-0.259009
-0.198114
-0.641746
0.173569
0.245195
0.154124
-0.019280
0.145023
-0.717057
0.014562
-0.329981
0.276197
0.669520
0.006912
0.493242
0.577055
-0.130275
0.407636
-0.247684
0.518941
-0.804309
-0.104807
-0.031383
0.536744
-0.070558
0.450763
-0.535871
0.009255
-0.064279
0.580570
-0.311591
-0.255520
0.675941
-0.424337
0.455955
0.144956
0.574611
0.081309
0.065093
-0.303335
-0.459823
-0.536060
0.083361
0.379848
0.257785
0.021985
-0.442776
0.964973
-0.315376
-0.160397
-0.723079
0.082746
0.162696
-0.271715
0.016757
-0.472381
0.517950
-0.154922
-0.053601
0.291624
0.944095
0.579633
0.510868
0.860401
0.712058
-0.020759
-0.047752
-0.103023
0.276475
0.487812
-0.147081
0.027998
0.607277
-0.565308
-0.108565
-0.224716
0.504918
-0.289470
0.232644
0.181315
0.914012
-0.373058
0.193871
0.123662
0.377988
-0.105267
-0.575447
-0.188767
-0.394225
-0.409659
-0.429393
0.130615
0.130786
-0.662116
-0.311019
0.016981
0.814803
0.208522
0.778811
0.375393
0.048520
0.068092
0.181442
0.026655
-0.575823
0.621739
-0.005331
0.311689
-0.292924
-0.400153
0.026190
0.583549
-0.286914
0.471325
0.313838
0.863461
0.629064
0.837318
0.192940
0.678544
0.596436
0.575112
0.253482
-0.693178
0.458197
-0.329349
0.724105
0.153352
-0.558004
0.025311
-0.221602
0.453782
0.294241
0.100923
0.102739
0.316943
0.585178
0.540550
0.519904
0.396802
0.073425
0.466217
0.407559
0.799888
-0.578580
-0.213275
0.816040
0.058379
0.461787
-0.107690
0.260313
0.285789
-0.086117
-0.164806
-0.035464
-0.232676
-0.247769
0.085150
0.287563
0.108223
0.624633
0.274711
0.154586
-0.596416
0.750801
0.412543
0.104271
-0.225091
-0.140604
-0.067097
0.120990
-0.304239
-0.487003
-0.370129
0.068909
-0.135229
-0.120827
0.067005
0.481326
0.501804
-0.933299
0.019810
-0.352453
0.132299
-0.302135
0.721496
0.125214
0.383392
-0.193201
-0.394271
0.167247
0.007204
0.717182
0.218974
-0.192744
-0.247979
1.017172
-0.001243
-0.866579
-0.479866
0.507669
-0.091617
0.473047
-0.448551
0.104736
0.236897
-0.282473
-0.866937
-0.180775
0.276388
-0.748792
-0.813915
-0.326225
0.017729
-0.122812
-0.569219
-0.121645
0.015978
0.127755
0.856900
-0.082755
0.413553
0.234412
0.133191
-0.129574
0.498471
-0.115028
0.125416
0.213448
0.131121
-0.071795
-0.049694
0.575098
-0.229484
0.216463
-0.085063
0.024401
-0.049529
-0.294463
-0.575230
-0.722346
-0.264733
-0.534836
-0.088370
0.362654
-0.148320
-0.628530
0.812456
-0.710033
0.199400
-0.058953
0.470482
-0.337505
-0.376457
0.224848
0.213400
-0.473839
0.254149
0.105867
0.412965
-0.262650
0.090701
0.079236
-0.453275
-0.423516
-0.075905
-0.415864
0.545629
0.595717
0.465088
0.074049
-0.583363
0.361900
0.088341
-0.140486
-0.309648
-0.279671
-0.255810
-0.379005
0.089457
0.173713
0.859921
-0.468415
0.125764
0.003809
-0.327686
-0.215979
0.020229
0.218547
-0.107691
0.210402
-0.089245
0.313260
0.249246
-0.270862
-0.253328
0.013834
-0.186861
-0.682622
0.068437
0.358465
-0.160187
-0.330706
-0.432458
0.039462
0.206496
-0.411343
-0.071809
0.402324
0.927955
0.285547
1.500000
0.725766
0.512654
0.073674
0.675300
0.396717
0.169628
-0.153591
-0.310481
-0.808813
0.242708
-0.242664
-0.174872
0.293019
0.177257
-0.108715
-0.291931
-0.099369
0.576255
-0.246352
0.178590
-0.256294
-0.703200
-0.564867
-0.198734
-0.611211
-0.382107
0.083660
0.074574
0.353050
-0.199322
-0.138654
-0.339923
-0.138095
0.109888
0.188137
0.748916
-0.418232
-0.513289
-0.064599
0.092621
0.912897
-0.310810
-0.036060
0.573529
-0.110682
-0.719359
-0.328065
0.148201
0.229951
0.569710
-0.573930
0.189394
0.257416
0.058272
0.112053
-0.033605
0.108461
0.596478
-0.329771
0.216832
0.323778
0.270849
0.444518
0.140282
0.177158
-0.310830
0.166186
-0.076765
0.007636
0.437376
-0.310982
0.093885
0.466290
1.028037
-0.124471
-0.343798
0.202038
0.696909
-0.409109
0.289113
-0.848344
-0.289518
0.218447
-0.462084
0.530858
0.125320
0.302028
0.028739
0.112947
-0.056050
-0.604161
0.380716
-0.183494
-0.050796
0.523126
0.423417
0.288406
-0.083656
0.067728
-0.263013
0.086927
-0.374256
-0.047201
0.498288
-0.293418
-0.514224
-0.027049
0.232182
-0.285407
0.334539
0.004451
0.560616
0.292842
-0.215623
-0.461645
0.066130
0.224319
0.805585
-0.631903
-0.034346
0.458550
0.380035
-0.525545
0.053414
-0.312666
-0.144732
0.057184
0.083729
0.096929
-0.120014
0.196978
0.665289
0.359157
-0.189475
-0.236654
0.050636
0.300753
-0.201151
0.316554
0.491577
0.521597
-0.098409
-0.280585
-0.110113
0.579564
-0.047001
0.027158
0.034916
0.064008
-0.093406
-0.013531
0.104548
0.197678
0.356383
-0.187877
-0.413278
-0.200274
-0.214295
-0.107359
0.636028
-0.469176
0.363186
-0.098206
-0.317578
0.492848
0.284523
-0.118343
-0.307524
0.002985
0.351522
-0.231374
-0.347573
0.075804
0.027362
0.233284
0.085618
0.506337
-0.260180
0.022813
-0.083949
0.141903
-0.242882
-0.507380
-0.301615
-0.143152
-0.323636
-0.108376
0.172349
0.016128
-0.008226
0.026410
-0.205493
0.258468
0.318407
-0.073894
-0.376439
-0.711422
-0.437758
-0.366271
-0.079888
-0.300425
0.164687
0.065536
-0.267584
0.203490
-0.377690
0.183048
-0.479827
-0.134756
0.239649
-0.248779
0.189287
-0.219310
-0.241664
0.499815
0.387889
-0.670060
0.276129
-0.081997
-0.078456
0.188616
-0.341115
-0.129536
-0.327629
-0.610909
0.330986
-0.228633
-0.341805
0.180810
0.364652
-0.277487
-0.292887
-0.085654
0.049591
-0.228245
0.676278
0.407209
-0.502785
0.355481
0.066873
0.228706
0.500311
0.344708
-0.119481
0.868413
-0.289486
0.988517
0.484924
0.909741
0.181337
0.417647
0.668687
0.363815
0.625747
-0.048091
-0.535315
-0.198769
0.139697
-0.001034
-0.067442
-0.591821
0.054586
0.057702
0.363473
-0.410272
0.467675
0.226427
-0.517688
0.308709
-0.182670
0.170126
0.342088
0.000895
-0.164750
-0.510650
-0.394308
0.294496
0.042415
0.407987
-0.059193
-0.298037
0.379355
0.107549
-0.021793
-0.217820
0.143029
0.072114
-0.005720
0.408136
-0.335837
0.559232
-0.150075
-0.119206
-0.146995
0.965928
0.335962
-0.297159
0.078715
0.110757
-0.024286
0.334248
0.412454
0.444103
0.173826
0.160353
0.348988
0.861960
0.572197
0.082611
0.409375
0.499570
0.624652
0.053304
0.265887
0.364393
-0.234332
0.481816
0.183508
0.206378
0.051336
0.717619
0.317223
0.484504
0.055941
0.008083
0.072226
-0.017495
0.503607
0.806116
0.470557
-0.078413
-0.068371
1.165566
-0.041255
0.049041
0.040175
0.229101
-0.263677
0.012263
-0.446794
0.070966
0.273322
-0.219287
0.028954
-0.343257
0.378503
0.082626
-0.521323
0.288441
-0.045854
-0.025176
-0.120628
0.872368
0.156585
0.096431
-0.067776
-0.124051
0.165875
0.243791
0.015076
0.426927
-0.152430
-0.086354
-0.115673
0.009040
-0.218373
0.146902
0.295504
0.176397
-0.688285
-0.414242
0.136667
0.027481
0.628245
0.255909
0.243842
0.332571
-0.309664
-0.301645
-0.088406
0.242660
0.144014
0.324174
0.556676
0.504255
0.914768
-0.234167
-0.497951
0.361269
-0.180011
0.227074
-0.275588
0.546286
0.047268
0.043727
-0.063066
-0.102446
-0.025426
-0.481876
