-0.006783
-0.014053
0.016582
-0.005971
0.016210
-0.079515
-0.021065
0.058218
-0.000439
-0.037393
-0.040674
0.041823
0.065372
0.004555
0.044239
0.025554
-0.004947
0.046714
0.011364
0.035743
-0.013938
-0.074162
0.072541
0.016046
-0.005969
0.010758
0.048291
-0.032624
0.058211
0.006452
0.022420
-0.007155
0.077223
0.062353
0.093731
0.187827
0.062246
0.079305
0.065221
0.162605
0.211170
0.100031
0.115691
0.193270
0.199829
0.214325
0.156735
0.159861
0.196875
0.159497
0.118562
0.196669
0.200893
0.111013
0.180172
0.222806
0.155549
0.113362
0.165569
0.170147
0.145599
0.086868
0.139959
0.094671
0.164462
0.059923
0.096782
0.168435
0.066762
0.047382
0.132044
0.107730
0.056558
0.023186
0.086546
0.077703
-0.026059
0.061749
0.099209
0.074909
0.062276
0.023609
0.073146
0.086518
0.065171
0.032841
-0.018347
0.076635
-0.010642
0.048831
0.062248
0.009054
-0.051482
0.087516
0.050696
0.214502
0.525849
0.820455
1.088061
1.365021
1.500000
1.391863
1.203674
0.849657
0.491116
0.205675
-0.043977
-0.230639
-0.196049
-0.194591
-0.166703
-0.011423
-0.017766
0.114727
0.108454
0.126818
0.144371
-0.004852
0.048861
0.057874
0.117888
0.095599
0.113338
0.121608
0.088574
0.046923
0.155289
0.102065
0.140177
0.103304
0.126517
0.159024
0.219263
0.071985
0.176431
0.114002
0.140701
0.182434
0.185346
0.292444
0.332735
0.287051
0.219356
0.314391
0.318884
0.420028
0.418745
0.323905
0.427862
0.442247
0.473441
0.478893
0.489103
0.518128
0.541665
0.548444
0.539989
0.543830
0.647982
0.518396
0.642813
0.612650
0.665648
0.636195
0.601364
0.644712
0.641327
0.583519
0.553084
0.530874
0.541768
0.520647
0.525263
0.569241
0.483946
0.533810
0.382754
0.402102
0.418689
0.344920
0.290509
0.362703
0.308096
0.252702
0.201730
0.205709
0.229963
0.210564
0.238131
0.206250
0.179797
0.164441
0.189888
0.176834
0.102860
0.109958
0.031483
0.134792
0.171502
0.191507
0.095687
0.131833
0.095970
0.037292
0.133786
0.002488
0.052170
0.072793
0.093826
0.119156
0.063017
0.077834
0.090351
0.019226
0.170429
0.042626
0.149457
0.095509
0.141537
0.119825
0.125938
0.047525
0.057285
0.145566
0.075208
0.080273
0.001276
0.094382
0.047420
0.131058
0.077260
0.201966
0.069644
0.136398
0.075470
0.125897
0.085710
0.016104
0.019087
0.109350
0.119765
0.034406
0.097923
-0.007492
0.015640
0.022419
0.099947
0.115021
0.099736
0.031098
0.104172
0.088463
0.058451
0.112146
0.003855
0.050862
0.065602
0.121052
0.025385
0.092315
0.137456
0.150360
0.091649
0.034881
0.087446
0.082143
0.142936
0.087626
0.072590
0.102027
0.056994
0.099511
0.077016
0.103742
0.089958
0.064007
0.112313
0.109039
0.107822
-0.002796
0.115034
0.136904
0.041465
0.140725
0.159194
0.132994
0.094775
0.164401
0.154806
0.219963
0.147230
0.084389
0.241959
0.207070
0.184361
0.260107
0.286600
0.237015
0.294074
0.273356
0.224897
0.268953
0.142419
0.252108
0.114117
0.215968
0.154300
0.242695
0.179773
0.179016
0.239180
0.194857
0.102226
0.094625
0.127021
0.156179
0.221269
0.119265
0.091386
0.088387
0.082011
0.022284
0.096262
0.046305
0.080609
0.118687
0.100179
0.073566
0.018272
0.016533
0.071411
-0.029519
0.083489
0.035091
0.096228
-0.011341
0.029665
0.068655
-0.030556
0.046672
0.047112
0.024942
-0.067303
-0.007478
-0.007555
0.232640
0.506721
0.777194
1.127744
1.329378
1.448271
1.458852
1.125489
0.907437
0.461665
0.137256
-0.025240
-0.207344
-0.205471
-0.174610
-0.204494
-0.116737
-0.006585
-0.025562
0.025435
0.082578
0.011782
-0.054877
0.081610
-0.058677
0.066540
0.035039
-0.083575
-0.078861
0.028505
0.069629
0.031447
0.034767
0.073944
0.069888
0.051612
0.079563
0.045803
0.106645
0.063122
0.137099
0.070347
0.063451
0.106281
0.172047
0.128607
0.170001
0.259547
0.204156
0.238518
0.231029
0.374085
0.289086
0.310719
0.362357
0.376464
0.439803
0.424495
0.451715
0.458077
0.454637
0.473321
0.481899
0.465335
0.444211
0.452371
0.504132
0.536319
0.556021
0.595992
0.513688
0.508290
0.464277
0.476755
0.488854
0.418288
0.459280
0.402949
0.424174
0.438661
0.348729
0.266941
0.398177
0.303820
0.312045
0.273099
0.215171
0.154003
0.189103
0.189374
0.107589
0.156017
0.116735
0.101498
0.163442
0.081431
0.057748
0.088117
0.082826
0.061087
0.102238
0.001916
0.005050
-0.005287
-0.027393
-0.054057
0.033553
-0.118461
-0.003391
0.051947
-0.021071
0.002349
-0.027239
0.041046
-0.096267
-0.042994
-0.102584
-0.000392
-0.000803
-0.065563
0.008234
-0.006200
-0.051717
-0.035647
-0.032635
-0.031701
0.002139
-0.025307
-0.055285
-0.032954
-0.129564
-0.030673
0.010201
0.038763
-0.081483
0.027768
-0.051010
-0.095069
-0.032273
-0.027904
0.009841
-0.060466
-0.004879
-0.012162
-0.035295
0.068241
-0.036485
-0.011625
-0.029180
-0.038093
-0.009549
-0.026545
-0.043342
-0.071489
-0.093881
0.022751
-0.035142
-0.046531
0.085317
-0.015070
-0.014618
-0.024515
-0.063138
-0.072358
0.002200
0.043154
-0.066929
0.004693
-0.029414
-0.076382
-0.055640
-0.058566
0.030401
0.025623
-0.068710
-0.001219
0.034761
-0.001163
-0.027732
-0.037651
-0.070797
-0.047964
0.030147
0.037956
-0.023601
0.003225
-0.019032
0.007718
-0.019693
-0.033485
-0.000256
-0.010849
-0.037718
0.053018
0.072293
0.076851
0.057924
0.097933
0.109040
0.031961
-0.001727
0.154075
0.096671
0.194003
0.128864
0.115458
0.126808
0.101095
0.181752
0.097124
0.166828
0.045454
0.104891
0.063343
0.044232
0.029544
0.065129
-0.048685
-0.001734
0.133894
-0.006138
0.033387
0.024102
0.044088
-0.081090
0.054439
-0.019031
-0.023469
-0.034598
0.001155
-0.069695
-0.048301
-0.070900
-0.077371
-0.010720
-0.030837
-0.028017
-0.061404
-0.042236
-0.046543
-0.063426
-0.065046
-0.037448
-0.114681
-0.048937
-0.060521
-0.116296
-0.164789
-0.191014
-0.070693
0.131576
0.317007
0.768581
1.029012
1.291446
1.403643
1.273939
1.113244
0.772521
0.417990
0.130483
-0.181031
-0.344743
-0.327776
-0.240706
-0.215098
-0.093191
-0.125129
-0.062290
-0.071193
-0.052193
-0.006367
-0.008283
-0.004130
-0.037455
-0.122752
-0.084941
-0.077789
-0.048440
0.011386
0.017297
-0.078549
0.008302
-0.021720
-0.105244
0.023773
-0.016787
0.069386
0.087985
0.041347
0.069775
0.058332
0.106972
0.099234
0.228189
0.091417
0.034241
0.182281
0.214128
0.162047
0.246084
0.187352
0.311857
0.251134
0.318444
0.367604
0.416289
0.353149
0.395147
0.425705
0.462293
0.417165
0.480181
0.518211
0.451267
0.435732
0.539334
0.530929
0.521762
0.504125
0.506456
0.460008
0.522087
0.432354
0.521561
0.422108
0.317796
0.396221
0.359749
0.363632
0.384609
0.261219
0.234561
0.362862
0.318561
0.266386
0.199469
0.244104
0.215397
0.146180
0.100029
0.019213
0.138646
0.130124
0.126712
0.083329
-0.006424
0.030879
0.027854
0.005933
0.039629
0.094285
-0.028794
0.024135
0.116908
0.010635
-0.005510
-0.048523
0.069600
-0.011594
0.014625
0.059361
0.100191
-0.048078
-0.162088
-0.028215
-0.002652
-0.021604
0.074602
0.039810
0.013898
-0.020229
0.027868
-0.046393
0.050795
0.003301
-0.013605
0.031908
0.030140
0.017088
0.040232
0.042295
0.048430
-0.000951
-0.061361
0.013019
0.028343
-0.027094
0.018213
-0.006060
0.087667
0.039557
-0.024784
-0.042411
-0.009087
0.088616
-0.015426
0.026008
0.042971
0.036659
0.063435
-0.007471
0.065046
-0.026549
0.029879
0.010827
-0.040958
0.029151
0.036563
0.043176
0.043395
0.009208
0.088600
0.103006
0.001602
0.004777
0.040886
-0.062762
0.058155
0.015314
0.040275
0.011825
0.000119
0.034835
-0.065343
-0.039652
0.037004
0.061549
-0.038590
0.048343
0.110352
0.055805
0.019488
0.109164
0.024735
0.079006
0.029437
0.189544
0.043650
0.047967
0.047244
0.046999
0.095423
0.184791
0.137214
0.199589
0.199436
0.151229
0.200885
0.172892
0.199206
0.183960
0.213879
0.202657
0.247366
0.231446
0.225980
0.222371
0.106559
0.226843
0.248707
0.126394
0.197256
0.124472
0.139945
0.205507
0.124882
0.131649
0.118638
0.164089
0.015228
0.173957
0.090520
0.076975
0.090038
0.150350
0.094951
0.104367
0.060623
0.148625
0.031059
0.089410
0.069666
0.016833
0.035795
0.049448
0.059727
0.127764
0.093933
0.044133
0.026900
-0.009782
0.156846
0.090302
0.113314
0.068378
0.065487
0.027168
-0.026616
0.033145
0.141887
0.543050
0.753750
1.153231
1.366942
1.492284
1.429722
1.248094
0.985018
0.493841
0.208044
-0.001398
-0.213602
-0.197463
-0.249729
-0.035982
-0.115223
-0.031522
0.052524
0.054347
0.025588
0.090474
0.037560
0.086054
0.088801
0.033529
0.117463
0.106515
0.115560
0.093441
0.117336
0.156239
0.110114
0.106277
0.131695
0.034657
0.161142
0.107565
0.226865
0.114521
0.218212
0.206759
0.197741
0.197075
0.201053
0.243786
0.289449
0.300926
0.369777
0.368288
0.372534
0.375501
0.379629
0.473223
0.473850
0.375257
0.488043
0.513155
0.512469
0.487567
0.529436
0.554398
0.598033
0.570989
0.614867
0.614265
0.590061
0.619423
0.601681
0.527664
0.587241
0.540707
0.543371
0.535106
0.520190
0.620609
0.528444
0.497631
0.555998
0.492398
0.385263
0.465040
0.340834
0.315902
0.382743
0.339910
0.305202
0.240057
0.317370
0.237091
0.239659
0.196730
0.274898
0.162429
0.253882
0.162837
0.121180
0.076958
0.168883
0.159160
0.180124
0.013763
0.143385
0.246478
0.107087
0.131441
0.107359
0.085838
0.075817
0.142582
0.169120
0.111170
0.097107
0.148295
0.178098
0.124406
0.075706
0.071693
0.035568
0.133133
0.080108
0.005412
0.141480
0.044044
0.088588
0.138752
0.156131
0.072164
0.068379
0.087059
0.041841
0.106047
0.058201
0.057655
0.054355
0.065099
0.086387
0.157193
0.099038
0.107126
0.065998
0.104824
0.069554
-0.016163
0.112934
0.127351
0.138624
0.109342
0.044790
0.077849
0.103015
0.070399
0.150437
0.044343
0.085511
0.104951
0.064267
0.081525
0.001402
0.102353
0.132445
0.060755
0.149262
0.110257
0.131235
0.116693
0.077069
0.056352
0.148255
0.103391
0.059187
0.053390
0.074282
0.072066
0.068993
0.029511
0.040165
0.092416
0.214318
0.044219
0.097365
0.079029
0.121274
0.062040
0.102256
0.093604
0.083626
0.035894
0.133730
0.086062
0.160111
0.123036
0.085299
0.195189
0.147686
0.171147
0.208168
0.128247
0.274473
0.192174
0.217643
0.252461
0.241564
0.273005
0.304569
0.169077
0.169469
0.177980
0.260316
0.270741
0.226226
0.225872
0.160023
0.202987
0.138612
0.144947
0.238528
0.111200
0.157734
0.163003
0.124258
0.089911
0.091316
0.077588
0.071148
0.110271
0.073858
0.052329
0.074513
0.066941
0.024240
0.066233
0.073717
0.024397
0.011827
0.007435
0.058992
0.066977
0.026221
0.034101
0.068779
0.061796
-0.002375
0.041520
-0.007298
0.030597
0.046367
0.031779
-0.018861
0.052979
0.159053
0.447804
0.772149
1.120054
1.309358
1.407440
1.359642
1.187797
0.752810
0.526515
0.152188
-0.186485
-0.167002
-0.315881
-0.260625
-0.149999
-0.080169
0.000404
0.026995
-0.013214
0.046525
0.049830
-0.037041
0.062926
-0.002530
0.035299
0.013931
0.059491
0.032610
0.069587
0.057392
0.084463
-0.002940
0.023474
0.102338
0.067082
0.063207
0.167938
0.042799
0.020422
0.117945
0.096826
0.151885
0.076931
0.147099
0.163590
0.241049
0.266159
0.177877
0.253846
0.286094
0.283759
0.295384
0.301747
0.235012
0.289067
0.447855
0.323641
0.432701
0.495594
0.476285
0.429582
0.407432
0.467284
0.427437
0.413160
0.516471
0.513964
0.475797
0.498060
0.516624
0.466042
0.484000
0.444536
0.459428
0.433600
0.420541
0.342908
0.425796
0.376832
0.432382
0.330601
0.327435
0.263092
0.254901
0.317102
0.197158
0.242271
0.135560
0.230308
0.147697
0.135936
0.074699
0.091472
0.098174
0.026580
0.027242
0.068234
0.056138
-0.022477
-0.025726
-0.035468
-0.021995
-0.014487
0.027989
0.010481
-0.043084
0.027227
-0.065911
-0.073025
0.018118
-0.041109
-0.012801
0.086056
0.022900
-0.060113
0.022831
-0.041122
0.050672
-0.054817
-0.039012
0.024174
-0.082880
-0.074140
-0.016209
-0.038969
-0.013115
-0.079433
-0.032951
-0.002106
-0.027144
-0.035637
-0.092303
-0.011077
-0.061388
-0.068094
-0.053526
-0.043954
-0.084844
-0.053297
0.058591
-0.022730
-0.132341
-0.079070
0.000432
-0.025205
-0.047279
-0.024307
-0.080046
0.060512
-0.072949
-0.137562
-0.077254
-0.034247
-0.021786
-0.072263
-0.041187
-0.076555
-0.009503
-0.081985
-0.089877
-0.045484
-0.094536
-0.123353
0.008579
-0.048970
-0.108681
-0.068771
-0.077690
-0.109667
-0.105425
-0.090047
-0.073749
-0.068526
-0.151745
-0.048830
0.016361
-0.039814
-0.054757
-0.090572
-0.062534
-0.075651
-0.023121
-0.045643
-0.013550
-0.114199
-0.062969
-0.076014
-0.066943
-0.035393
-0.010560
-0.050291
0.079949
0.014066
0.003607
0.008542
0.011328
0.088899
0.058430
0.077785
0.107407
0.081860
0.059343
0.105194
0.034742
0.142122
0.076879
0.157798
0.115004
0.120553
0.050338
0.041326
-0.083179
0.104767
0.095633
0.066628
-0.014993
-0.007325
0.046626
-0.045317
0.001415
-0.031172
0.005474
-0.056591
-0.069315
-0.011099
-0.082515
-0.124404
-0.003596
-0.009781
-0.059350
-0.082788
-0.072899
-0.088682
-0.011182
-0.113061
-0.152479
-0.176064
-0.128101
-0.063567
-0.067141
-0.062508
-0.066949
-0.114073
-0.021332
-0.137211
-0.119093
-0.189439
-0.121514
-0.142505
0.089043
0.329697
0.641454
1.037772
1.243667
1.378224
1.324983
1.027349
0.730654
0.421431
0.119029
-0.131652
-0.353715
-0.352158
-0.415795
-0.246392
-0.205754
-0.197017
-0.175435
-0.075358
-0.089144
-0.017051
-0.026412
-0.045414
-0.083087
-0.120120
-0.051985
0.004853
-0.033387
0.024439
-0.076547
-0.009157
0.039188
-0.017543
0.001182
0.026309
-0.037814
-0.044611
-0.055381
0.035567
-0.011346
0.090802
0.020291
0.037532
0.061617
0.149429
0.092875
0.052893
0.184453
0.097630
0.129458
0.229229
0.225325
0.236932
0.236630
0.240896
0.325258
0.337676
0.343816
0.280710
0.313951
0.340121
0.438164
0.317873
0.416399
0.390468
0.491651
0.469003
0.369307
0.462467
0.414805
0.445831
0.426074
0.408181
0.459612
0.406276
0.355100
0.346284
0.404088
0.327979
0.312221
0.215812
0.259355
0.221482
0.200865
0.294509
0.216736
0.251313
0.160941
0.166056
0.135014
0.052134
0.067106
0.109865
0.015289
0.064997
-0.004018
0.063874
0.022582
-0.000365
-0.047233
0.024264
-0.153242
0.082413
-0.003818
-0.020814
-0.013828
-0.035761
-0.044791
-0.019608
0.025754
-0.080882
-0.025840
0.041967
-0.044782
-0.036000
-0.015897
-0.029981
-0.010461
-0.005845
0.055871
-0.039890
0.027009
-0.093270
-0.000308
-0.003947
-0.059077
-0.086726
-0.004198
-0.036003
-0.110972
0.004018
0.003494
-0.071751
0.000942
-0.059651
-0.021920
-0.062031
-0.065351
-0.119986
-0.067930
-0.039055
-0.014989
0.021760
0.022737
0.016415
-0.029717
0.014202
0.008408
-0.024021
-0.088874
0.033838
-0.119619
-0.065427
0.055379
-0.027722
-0.053681
-0.052037
-0.078432
-0.140285
-0.037736
-0.009507
-0.013075
0.017060
-0.032598
0.001405
0.041981
-0.057705
0.014519
0.027082
-0.047315
-0.060607
0.053454
-0.034272
-0.028788
0.072081
0.005415
0.044915
0.018824
-0.049355
0.019323
-0.001643
-0.005023
-0.022600
0.010635
-0.001387
-0.010909
0.054779
0.048827
0.078581
0.018552
0.050856
0.089859
0.119314
0.025140
0.096304
0.057278
0.162806
0.147732
0.146413
0.103234
0.201539
0.209987
0.179473
0.202578
0.182649
0.223144
0.160522
0.182287
0.148358
0.139825
0.180497
0.142569
0.090354
0.061904
0.089454
0.111312
0.103487
0.037810
0.039191
0.002578
0.008363
0.013225
0.091174
0.102952
0.045776
0.032284
0.066230
0.016650
0.001939
-0.019737
0.072059
0.020331
0.015099
0.012365
0.028730
0.015438
0.052845
0.015534
0.036908
0.061513
0.020879
-0.000277
0.057956
0.009618
0.008625
0.024965
-0.036615
-0.000526
-0.007316
0.166897
0.417173
0.710843
1.063483
1.337714
1.379501
1.282282
1.146628
0.861450
0.471854
0.228844
-0.044350
-0.247873
-0.237659
-0.236017
-0.128345
-0.123411
-0.055161
0.021134
0.088299
-0.004111
0.087807
0.016110
-0.036610
0.024279
0.022909
0.004625
0.132677
0.019389
0.089296
0.168868
0.052172
0.025373
0.112070
0.055074
0.117363
0.056922
0.019956
0.121117
0.114338
0.140386
0.175657
0.157412
0.195066
0.148312
0.284537
0.308038
0.287436
0.245045
0.274998
0.273286
0.355526
0.367232
0.391854
0.337254
0.537171
0.449982
0.532849
0.468959
0.516681
0.499806
0.481798
0.529275
0.570248
0.560744
0.573158
0.548780
0.531848
0.468872
0.522969
0.515364
0.556099
0.538089
0.570085
0.511080
0.509465
0.417629
0.462550
0.402033
0.395744
0.454155
0.358737
0.389239
0.369422
0.338442
0.278108
0.323451
0.289448
0.331416
0.254830
0.206815
0.178347
0.167405
0.176181
0.148120
0.133755
0.087228
0.127040
0.053453
0.074362
0.043326
0.072448
0.080818
0.139216
0.101234
0.070954
0.131261
0.048794
0.071597
0.087784
0.070452
0.050535
0.050127
0.073398
0.104949
0.064018
0.088145
-0.021392
0.009021
-0.030515
0.102268
-0.052971
0.032258
0.078092
0.113394
0.096209
0.004629
0.018729
0.059744
0.124979
0.092733
0.093190
0.033090
-0.000087
0.050825
0.036535
0.021931
0.050409
-0.021019
-0.023753
0.087668
0.022161
0.096691
0.045153
0.078524
0.041142
-0.020682
0.031156
0.118926
0.076476
0.063013
-0.015598
0.068912
0.046239
0.014064
0.023734
0.115707
-0.003085
0.000290
0.128193
0.100884
0.042981
0.011077
0.007533
0.021150
0.035780
0.046790
0.029089
0.057213
0.014732
0.020438
0.073348
-0.017699
0.149755
0.036885
-0.023617
0.073199
0.011252
0.051621
0.073836
0.037678
0.008736
-0.009812
-0.015607
0.020011
0.044186
-0.061214
0.074195
0.050353
0.097379
0.084173
0.145060
0.093181
0.095953
0.153003
0.199235
0.168063
0.154719
0.076083
0.134597
0.260260
0.246168
0.224960
0.183403
0.139905
0.204113
0.183111
0.272583
0.199141
0.195106
0.162829
0.129812
0.252793
0.097660
0.063077
0.132653
0.108565
0.139695
0.030799
0.081790
0.099814
0.002166
0.045683
0.020055
0.048125
0.034109
0.070056
0.054101
0.051603
0.094000
0.025699
0.112445
0.026115
-0.068255
0.097691
0.010369
0.033714
0.045821
-0.022113
-0.018351
0.014958
0.089000
0.052928
-0.062099
0.056055
0.050027
-0.034847
-0.059206
-0.090281
0.009284
0.172123
0.413718
0.763393
0.951728
1.374418
1.391716
1.320042
1.083861
0.747261
0.435263
0.043597
-0.149419
-0.205495
-0.268464
-0.338248
-0.169112
-0.111777
-0.041086
0.024901
-0.068416
0.023824
-0.105516
-0.048690
-0.005519
-0.005469
-0.033151
-0.038474
-0.001988
0.016219
-0.028020
0.050713
0.040454
0.008547
0.039942
0.007181
0.061871
0.050426
0.075975
0.065337
0.017193
0.027189
0.092001
0.099375
0.121750
0.095263
0.189425
0.171821
0.166261
0.192384
0.237333
0.288454
0.288458
0.233380
0.266631
0.238410
0.357338
0.329554
0.337761
0.362201
0.472072
0.429102
0.432881
0.435271
0.429618
0.465301
0.449259
0.456125
0.462225
0.450227
0.499076
0.384991
0.513055
0.455140
0.443514
0.398898
0.385357
0.422256
0.474110
0.397169
0.326692
0.250175
0.288670
0.305215
0.234324
0.234542
0.181741
0.099320
0.139713
0.190726
0.067394
0.074763
0.059434
0.103887
0.151964
0.119317
0.078183
0.021506
0.035385
0.034358
-0.059106
0.000513
-0.077221
-0.057707
0.031005
-0.107773
-0.045418
0.009892
-0.046172
-0.061177
-0.073024
0.012630
-0.052110
-0.076187
-0.038504
-0.069267
-0.081908
-0.050567
-0.105485
-0.083337
-0.059389
-0.043435
-0.082815
-0.107636
-0.166556
-0.038604
-0.098554
-0.130732
-0.070946
-0.082106
-0.113137
-0.103038
-0.081967
-0.088626
0.010708
-0.046804
-0.072891
-0.000605
-0.047510
-0.119667
-0.142943
-0.129280
-0.096826
-0.080836
-0.039492
-0.120136
-0.095517
-0.120812
-0.101398
-0.040657
-0.217098
-0.041086
-0.126034
-0.037986
-0.049716
-0.096603
-0.064592
-0.183873
-0.113959
-0.101718
-0.128006
-0.100844
-0.021578
-0.006140
-0.069899
-0.037023
-0.020755
-0.139947
-0.098371
-0.116110
-0.099575
-0.147833
-0.145211
-0.080827
-0.123272
-0.135657
-0.040251
-0.084302
-0.082976
-0.120675
-0.050880
-0.061247
-0.067793
-0.086831
-0.061241
-0.084579
-0.095918
-0.146155
-0.141577
-0.054442
-0.019837
0.019796
0.017412
0.018625
-0.003518
0.035572
0.026684
-0.008403
-0.004276
-0.033468
0.012486
0.056525
0.060715
0.053055
0.160136
0.065037
0.069916
0.033249
0.125743
0.054902
-0.045605
0.018106
0.069917
0.039904
0.076793
0.109137
0.029443
-0.069449
-0.001691
-0.079198
-0.031665
-0.075881
-0.044399
-0.050674
-0.090510
-0.138994
-0.013482
-0.029472
-0.073703
-0.092773
-0.056104
-0.032901
-0.104464
-0.061065
-0.130592
-0.085061
-0.112817
-0.089232
-0.074939
-0.081851
-0.113506
-0.194708
-0.084312
-0.024224
-0.130620
-0.087066
-0.087097
-0.139066
-0.110202
-0.124154
-0.136772
0.090025
0.334975
0.611501
0.955667
1.245640
1.319752
1.273359
1.068621
0.671453
0.400972
0.007778
-0.156702
-0.343089
-0.400632
-0.341711
-0.314908
-0.228590
-0.155846
-0.050778
-0.150390
-0.118562
-0.189361
-0.016527
-0.061810
-0.071975
-0.084435
-0.106069
0.014518
-0.023803
-0.070828
-0.125000
-0.032630
-0.092705
-0.125410
-0.039100
-0.079919
-0.035958
-0.096399
0.020299
-0.025347
0.003370
-0.009060
0.082491
0.021129
0.080432
0.118591
0.061557
-0.037873
0.096452
0.153206
0.170879
0.184417
0.156591
0.191081
0.260004
0.283329
0.351012
0.377784
0.365888
0.316500
0.383685
0.286308
0.327014
0.397004
0.405305
0.444632
0.381722
0.394203
0.422932
0.423206
0.409067
0.288401
0.406586
0.399906
0.405657
0.335868
0.335575
0.361065
0.372415
0.256325
0.269485
0.306645
0.229923
0.268585
0.230590
0.223610
0.208266
0.180867
0.073894
0.096518
0.096483
0.075287
0.137207
0.034979
0.104703
-0.029174
0.086229
0.002226
0.019662
0.024895
0.021362
-0.112385
0.034964
0.016075
-0.067661
-0.090671
-0.091614
-0.097775
0.005037
-0.074546
-0.005761
-0.071728
-0.014468
-0.099926
-0.084802
0.032857
-0.173137
-0.034782
-0.089008
-0.038862
-0.117933
-0.019679
-0.099504
-0.060535
-0.035254
-0.054131
0.015087
-0.022292
-0.084607
-0.084921
-0.042898
-0.000324
-0.042848
-0.025076
-0.050578
-0.034950
-0.041741
-0.066121
-0.054639
-0.088774
-0.050839
0.037078
-0.107224
-0.029346
-0.053406
-0.036209
-0.011865
-0.069738
-0.004063
0.024248
-0.100597
0.062986
-0.071483
-0.044748
0.029063
-0.026665
-0.033823
-0.039607
-0.020382
-0.016296
-0.053719
0.005615
-0.023050
-0.058348
-0.007241
-0.054643
-0.039591
-0.061757
-0.073883
-0.038805
0.007086
-0.034500
-0.143242
0.052360
-0.025434
-0.043882
-0.004192
0.033447
-0.023174
0.011980
0.001995
-0.014876
0.065005
-0.025096
-0.013045
0.029842
-0.022296
0.026043
-0.002388
0.051771
0.115903
0.063031
0.133776
0.016127
0.191903
0.114464
0.127776
0.152883
0.162185
0.057175
0.233903
0.251316
0.236993
0.200671
0.131517
0.222754
0.203321
0.224505
0.285562
0.179970
0.148924
0.176170
0.149870
0.204087
0.025980
0.076513
0.153908
0.086719
0.143307
0.045688
0.095506
0.052833
0.050353
-0.003987
0.051376
0.032251
0.026419
-0.012919
0.036704
0.048110
0.032716
-0.028196
0.037492
0.052939
-0.047036
0.029427
0.011426
-0.062445
0.086286
-0.031990
0.135517
0.012996
0.043418
0.067012
0.014182
0.006845
0.075756
-0.088598
-0.010486
0.027876
0.111799
0.296559
0.662520
1.179631
1.383201
1.367694
1.460394
1.133248
0.851435
0.465680
0.153187
-0.104162
-0.254983
-0.336112
-0.295024
-0.152126
-0.098129
0.006821
0.032438
-0.014316
0.043781
0.098127
-0.105691
0.070371
-0.001516
0.083491
0.087866
-0.050547
-0.016141
0.092679
0.091100
0.048369
0.008250
0.066681
0.076238
0.164424
0.106791
0.107715
0.147144
0.150128
0.089458
0.227467
0.198809
0.147749
0.167337
0.275657
0.289316
0.247765
0.258939
0.358280
0.298823
0.306464
0.391713
0.330441
0.429181
0.402460
0.503403
0.496611
0.433245
0.471663
0.501583
0.515667
0.557176
0.537097
0.535438
0.661182
0.577144
0.560910
0.576621
0.590394
0.625951
0.537553
0.574351
0.512515
0.462720
0.457697
0.498417
0.533796
0.444743
0.365856
0.423488
0.477749
0.438763
0.430528
0.390290
0.334801
0.263676
0.253833
0.256390
0.191610
0.232870
0.214409
0.234641
0.246257
0.117974
0.073457
0.070665
0.209794
0.070759
0.177363
0.173016
0.188023
0.118288
0.034957
0.150966
0.068070
0.137482
0.114873
0.028982
0.041924
0.163225
0.080080
0.044874
0.061294
0.037846
0.159141
0.088647
0.100142
0.102919
0.070256
0.069044
0.059288
0.010894
0.040635
0.126144
0.066686
0.090720
0.105831
0.054469
0.120515
-0.008440
0.057261
0.061981
0.081617
0.120249
0.096475
0.100968
0.038739
0.099450
0.073988
-0.002341
0.025496
0.048279
0.097527
0.066029
0.121883
0.077561
0.053371
0.011965
0.143128
0.099451
0.045437
0.045289
0.050828
0.074350
