-0.019826
0.004781
0.095991
0.026189
-0.019715
0.001929
-0.021027
0.070152
-0.026677
-0.006017
-0.027909
0.014249
-0.010648
-0.020817
0.012959
0.070719
0.048281
0.022772
0.025956
0.072339
0.129494
0.065398
0.018808
0.048642
0.094490
0.198099
0.144336
0.071767
0.120630
0.091284
0.211610
0.242191
0.325827
0.205837
0.213393
0.205934
0.248464
0.187437
0.131770
0.169543
0.137946
0.154929
0.109473
0.134497
0.181510
0.160713
0.092009
0.065665
0.079846
0.159978
0.094183
0.017320
0.076764
0.061336
0.011400
0.048608
0.075082
0.081525
0.078246
0.162943
0.018620
0.099757
0.129623
0.376644
0.575050
0.908218
1.136044
1.326701
1.335452
1.175915
0.885251
0.503969
0.153235
-0.097196
-0.015112
-0.006616
-0.044842
0.071514
0.040937
0.089537
0.204020
0.188359
0.131786
0.134132
0.156626
0.189615
0.226761
0.190558
0.238084
0.205042
0.293916
0.322191
0.375589
0.338968
0.355643
0.367124
0.346451
0.387187
0.384176
0.449622
0.538981
0.616429
0.585470
0.531060
0.602262
0.532587
0.611368
0.471583
0.540392
0.601529
0.615730
0.611138
0.620476
0.488587
0.576365
0.538005
0.510573
0.611744
0.545296
0.462666
0.483195
0.500409
0.447036
0.433443
0.411735
0.329866
0.430480
0.377911
0.332429
0.323682
0.306162
0.164460
0.193489
0.245898
0.199532
0.178539
0.266954
0.164156
0.176251
0.148978
0.173336
0.109276
0.140538
0.143174
0.148969
0.104251
0.145557
0.075171
0.062999
0.100868
0.163633
0.122776
0.062820
0.080768
0.069116
0.141892
0.056348
0.089870
0.111891
0.034193
0.117674
0.044260
0.082293
0.066953
0.067024
0.074639
0.112412
0.045335
0.098239
0.079958
0.039268
0.052207
0.125086
0.155382
0.125722
0.125199
0.064908
0.096034
0.104806
0.147345
0.070535
0.139922
0.223071
0.149672
0.157730
0.117148
0.088977
0.226931
0.153011
0.106802
0.107228
0.240488
0.216698
0.241521
0.150572
0.153032
0.208298
0.176683
0.228142
0.257363
0.235947
0.281865
0.288901
0.290464
0.227399
0.238483
0.314098
0.281900
0.250680
0.160033
0.215462
0.176316
0.134758
0.176160
0.225616
0.113512
0.193458
0.230856
0.148705
0.118016
0.114473
0.140949
0.088923
0.154644
0.091248
0.148743
0.149714
0.079794
0.051792
0.092708
0.161672
0.229122
0.436880
0.791965
1.086379
1.311783
1.438291
1.288432
1.160363
0.687264
0.293261
0.063235
-0.110385
-0.014116
0.020655
0.039727
0.158476
0.104767
0.169924
0.207512
0.128915
0.145903
0.171962
0.247944
0.261958
0.232638
0.292817
0.291818
0.286444
0.311577
0.321713
0.322168
0.375201
0.451396
0.431155
0.425367
0.451997
0.487230
0.510479
0.499908
0.472030
0.501879
0.571373
0.597395
0.509914
0.607411
0.595282
0.573555
0.641074
0.614578
0.625851
0.659100
0.547177
0.549332
0.596458
0.503317
0.570543
0.572623
0.454834
0.428003
0.466325
0.471701
0.368061
0.412226
0.367047
0.300091
0.362557
0.240654
0.236661
0.248161
0.252602
0.289750
0.258204
0.188264
0.161687
0.172839
0.168593
0.174634
0.116910
0.123812
0.096206
0.169003
0.077521
0.075170
0.081418
0.131124
0.074088
0.079386
0.061674
0.123400
0.046627
0.052277
0.011835
0.099643
0.091212
0.046154
0.070009
0.139906
-0.021382
-0.089129
0.070296
0.005350
0.087751
-0.032090
0.091875
0.047385
-0.017390
0.092448
0.048523
-0.029291
-0.000036
-0.004247
0.069532
0.100784
0.099526
0.057867
0.047717
-0.010251
-0.002565
0.047783
-0.009569
0.059018
0.045057
0.099709
0.113237
0.157761
0.103084
0.036898
0.055515
0.092326
0.162044
0.087673
0.161784
0.166200
0.217249
0.219673
0.185909
0.125833
0.206487
0.197785
0.225848
0.272008
0.272778
0.131701
0.198794
0.205467
0.161333
0.208302
0.169182
0.190137
0.133609
0.127744
0.190846
0.039955
0.068337
0.091415
0.106372
0.107981
0.034482
0.013612
0.009479
0.059845
0.066154
0.056114
0.026875
-0.027219
-0.016544
-0.000157
0.040595
0.076846
0.289714
0.519945
0.791749
1.136326
1.429167
1.304532
1.212779
0.784285
0.565576
0.223559
-0.086396
-0.192091
-0.207590
0.039628
-0.068572
0.057769
0.031072
0.132724
0.137607
0.087453
0.184099
0.038217
0.090574
0.144576
0.182190
0.164412
0.087628
0.244849
0.240833
0.263897
0.261344
0.372434
0.363982
0.348136
0.361666
0.373202
0.379230
0.472816
0.413562
0.439426
0.470752
0.526276
0.452643
0.450177
0.413731
0.489845
0.576992
0.526085
0.525413
0.530875
0.559784
0.499412
0.388949
0.482109
0.505059
0.365966
0.381960
0.479991
0.480751
0.301788
0.329470
0.282267
0.267085
0.130969
0.242866
0.233240
0.288648
0.165690
0.146753
0.155550
0.115974
0.125960
0.177610
0.084074
0.062397
0.072432
0.014762
0.021043
0.041451
0.010418
0.001353
-0.084547
0.032173
0.048662
-0.023253
0.013215
-0.008136
0.028009
-0.027616
-0.028127
-0.014716
0.016922
-0.015776
-0.041649
0.007338
0.001370
-0.019916
0.027940
-0.069590
-0.030104
0.012705
-0.011867
-0.017130
-0.070921
-0.009200
-0.040808
0.011948
-0.004693
-0.081445
0.032729
-0.046396
-0.013713
-0.026623
-0.038914
-0.055890
0.039089
-0.098569
-0.043422
-0.054981
0.003186
0.019958
-0.079046
0.003320
-0.043921
0.082360
0.001003
0.050954
0.060524
0.074750
0.011667
0.060730
0.038068
0.072310
0.110034
0.165778
0.181621
0.071547
0.040266
0.138861
0.168444
0.175331
0.187116
0.080904
0.063960
0.144450
0.085465
0.089884
0.080611
0.052770
0.080319
0.026545
0.048494
0.033356
0.061538
0.018792
0.066040
-0.018669
0.041366
-0.008801
-0.087439
0.003249
-0.085107
-0.014913
0.028253
-0.025495
-0.008449
0.007239
-0.034313
0.094393
0.330760
0.636241
0.957863
1.190987
1.279790
1.250028
0.998553
0.519586
0.280886
0.114028
-0.140496
-0.208634
-0.140029
-0.056420
-0.080472
-0.003635
-0.003767
0.059867
0.092849
0.002726
0.062634
0.063789
-0.000108
0.152941
0.080419
0.104701
0.182716
0.231698
0.160308
0.294310
0.251013
0.280223
0.260071
0.274744
0.311413
0.359232
0.310843
0.422205
0.400661
0.399918
0.470785
0.443354
0.430479
0.425039
0.460919
0.500811
0.438398
0.471607
0.543215
0.510846
0.448053
0.517293
0.490919
0.431620
0.347785
0.382092
0.396250
0.393627
0.259694
0.273820
0.344206
0.282424
0.291583
0.145051
0.246765
0.242723
0.197358
0.121802
0.185976
0.142175
0.082909
0.111460
0.059958
0.007553
0.089120
0.086859
0.068705
0.086936
0.079666
0.028418
0.036866
-0.112416
0.054470
-0.009423
-0.056856
-0.013993
0.030967
-0.072833
0.040125
-0.080847
0.023776
0.020852
-0.007946
0.041087
0.008098
-0.024007
-0.001610
0.010241
-0.013499
-0.008068
-0.029850
-0.075237
-0.074123
-0.058739
0.000150
-0.023581
-0.019610
-0.040466
0.022034
0.019169
-0.028864
-0.056526
-0.028072
-0.123266
-0.051186
-0.051416
0.000753
0.038768
-0.055830
-0.020987
0.013532
0.000540
-0.020094
0.005960
0.014913
0.083382
0.087248
0.058081
0.122174
0.136871
0.109037
0.073230
0.164273
0.149289
0.182216
0.149415
0.179462
0.171192
0.191495
0.141588
0.193204
0.223643
0.197885
0.114862
0.228032
0.109203
0.087236
0.125758
0.136688
0.069405
0.143432
0.152770
0.033436
0.084184
0.088712
0.074294
0.009086
0.051112
0.046166
0.033577
-0.050323
-0.023580
0.071879
0.035392
-0.012658
-0.035131
0.053667
0.147916
0.337346
0.492170
0.874423
1.134310
1.243034
1.393685
1.120595
0.801821
0.501135
0.195154
-0.026973
-0.122764
-0.094510
-0.063102
0.101726
0.051552
0.091475
0.067647
0.062681
0.098948
0.172275
0.152487
0.084266
0.192130
0.209132
0.174968
0.224016
0.231786
0.330463
0.242587
0.390155
0.265390
0.374484
0.339749
0.415652
0.449058
0.439621
0.384751
0.473398
0.440750
0.493573
0.509742
0.526635
0.485665
0.537167
0.498702
0.538570
0.561800
0.561252
0.576982
0.588133
0.642613
0.563859
0.548584
0.471332
0.578351
0.449457
0.426761
0.474188
0.404158
0.417204
0.362635
0.321484
0.290262
0.398033
0.254924
0.192197
0.311204
0.343573
0.249434
0.205630
0.128755
0.204605
0.147786
0.262517
0.184223
0.047301
0.124073
0.152574
0.117511
0.143267
0.136587
0.082348
0.024518
0.087634
0.024119
0.102889
0.130299
-0.011907
0.124695
0.093412
0.094519
0.067354
0.035663
0.083363
0.097796
0.109643
0.057832
0.076932
0.056394
0.094337
0.022923
0.129588
-0.031856
-0.006785
0.018391
0.071572
0.013698
0.064746
0.040817
0.032014
0.132300
0.145868
0.057185
0.050328
0.111191
0.043771
0.086576
0.081149
0.124912
0.123555
0.148398
0.141362
0.122515
0.191894
0.215991
0.175014
0.225583
0.193906
0.117645
0.176223
0.214191
0.209723
0.273317
0.241426
0.329363
0.256637
0.282347
0.276908
0.241299
0.274617
0.240427
0.280535
0.239956
0.258633
0.138706
0.239869
0.171079
0.186861
0.211859
0.219253
0.129617
0.184064
0.124858
0.142224
0.057444
0.120078
0.158218
0.124738
0.026736
0.057789
0.066363
0.090148
0.104270
0.136777
0.092581
0.164367
0.144034
0.285779
0.499220
0.722167
1.086923
1.266244
1.500000
1.320544
1.171886
0.682147
0.338797
0.121954
0.007986
-0.015477
0.002131
0.078149
0.108348
0.139500
0.104026
0.177099
0.139332
0.138043
0.182054
0.297032
0.224666
0.258355
0.328409
0.330714
0.266789
0.240244
0.327089
0.268538
0.387139
0.417764
0.458764
0.490192
0.470933
0.457705
0.461902
0.533783
0.542279
0.567717
0.578842
0.586377
0.638353
0.597745
0.577805
0.570288
0.535249
0.604089
0.614617
0.671287
0.523356
0.603902
0.599648
0.539210
0.585731
0.503210
0.542746
0.534046
0.510320
0.461111
0.459509
0.386384
0.382454
0.329401
0.317431
0.385668
0.379185
0.371874
0.317153
0.290170
0.236304
0.153904
0.216393
0.197506
0.196960
0.164704
0.155459
0.156645
0.095514
0.072871
0.050771
0.102990
0.109998
0.178620
0.111982
0.099150
0.009124
0.131376
0.082560
0.074623
0.144029
0.153495
0.144354
0.069670
0.052589
0.061037
0.123621
-0.001142
0.133860
0.106712
0.103349
0.163273
0.056270
0.142047
0.113941
0.061882
0.066030
0.119818
0.061036
0.034089
0.097199
0.063750
0.065748
0.049279
0.089756
0.117472
0.084119
0.115917
0.162091
0.113429
0.097177
0.127223
0.127396
0.193531
0.166782
0.100197
0.150784
0.076509
0.162552
0.166273
0.136447
0.182174
0.253606
0.197148
0.239258
0.182253
0.285131
0.228780
0.189793
0.200034
0.265889
0.216600
0.207825
0.282891
0.181001
0.193769
0.110600
0.180317
0.127051
0.175716
0.211755
0.175023
0.129799
0.176167
0.108726
0.048253
0.134460
0.082244
0.148104
-0.016028
0.079907
0.094602
0.066200
0.051500
0.078954
0.128002
0.052639
0.059953
0.342429
0.486151
0.822139
1.125106
1.340704
1.477797
1.150161
0.901559
0.511785
0.226070
0.025347
-0.103577
-0.061661
-0.054140
0.020184
0.069584
0.058703
0.033230
0.102044
0.101880
0.157803
0.138313
0.129001
0.229147
0.201719
0.191666
0.239482
0.229190
0.202591
0.286077
0.428952
0.325096
0.334737
0.349557
0.387476
0.424219
0.480092
0.457886
0.404220
0.395492
0.483199
0.521712
0.527839
0.534523
0.598682
0.546886
0.595468
0.614827
0.573958
0.575076
0.482438
0.544782
0.517260
0.479997
0.473470
0.572198
0.410310
0.334401
0.436333
0.400315
0.441389
0.363106
0.272513
0.303826
0.223957
0.257661
0.173894
0.155356
0.142807
0.113041
0.222541
0.158922
0.167005
0.080962
0.112605
0.058889
0.042475
0.032878
0.078836
0.062981
0.134495
0.070342
0.045205
-0.013831
0.060074
-0.005566
0.023469
0.005404
-0.057684
0.052988
0.047871
-0.004030
0.007719
-0.021997
-0.010564
-0.037504
-0.035063
-0.044350
-0.033513
-0.043500
-0.037009
-0.031967
0.006483
-0.066903
-0.022182
-0.003174
0.009911
0.000256
-0.040717
-0.061769
-0.075327
0.079700
-0.088007
-0.045462
-0.056215
0.050357
-0.038781
0.029925
0.008538
-0.042230
0.005772
0.037362
0.077627
0.053480
-0.018129
0.002639
0.031405
0.056154
0.111767
0.042862
0.036825
-0.000202
0.175339
0.123083
0.146529
0.106419
0.067965
0.083867
0.156687
0.086904
0.189549
0.114952
0.139007
0.197995
0.058495
0.180718
0.055805
0.149901
0.118271
0.145721
0.025446
-0.002821
0.054461
0.011040
0.070140
0.042648
-0.024648
-0.020644
0.009697
0.008065
0.031150
-0.095041
-0.068590
-0.021957
-0.098342
-0.079299
-0.066366
0.069162
0.136468
0.256525
0.635267
0.880582
1.072676
1.320729
1.236662
0.994542
0.719092
0.242750
0.084053
-0.151484
-0.204115
-0.182018
-0.074102
-0.039679
-0.062664
-0.091667
-0.052628
-0.023247
0.019939
0.136997
0.061300
0.050017
0.091892
0.168706
0.102017
0.100876
0.144523
0.131272
0.204763
0.204616
0.209331
0.251296
0.193985
0.263404
0.328867
0.284305
0.386690
0.367153
0.466735
0.365125
0.426955
0.474736
0.511944
0.436855
0.494811
0.463768
0.432370
0.459107
0.392165
0.386480
0.427387
0.436262
0.382858
0.358630
0.373477
0.451608
0.320526
0.339458
0.282278
0.235461
0.216235
0.195661
0.174761
0.184581
0.102800
0.171919
0.173112
0.030812
0.159443
0.142904
0.027247
0.092528
0.059513
-0.010014
0.019223
0.006929
0.001825
-0.081387
-0.080974
0.001658
-0.108691
-0.012333
-0.088435
-0.041354
-0.055494
-0.106011
-0.041885
-0.030787
-0.030074
-0.098316
-0.079439
-0.158230
-0.016556
-0.162181
-0.087565
-0.082993
-0.099088
-0.126400
-0.068870
-0.021090
-0.031022
-0.045543
-0.063436
-0.070948
-0.142225
-0.086084
-0.126681
-0.085214
-0.067392
-0.021455
0.016699
-0.161136
-0.049948
-0.047520
-0.123661
-0.081360
-0.065815
-0.031362
0.025711
-0.069526
-0.035087
-0.007925
-0.090905
-0.008900
0.005670
0.037706
-0.052612
0.082958
0.064428
0.066617
0.063759
0.143229
0.104006
0.103309
0.029560
0.053488
0.046557
0.086069
0.005471
0.139229
0.109228
0.054113
0.133332
0.112184
0.009370
0.039286
0.068568
0.044217
0.013515
-0.003848
-0.082049
0.099203
-0.076215
0.000134
-0.047266
-0.008107
-0.095227
-0.044786
-0.033238
-0.001631
-0.051412
-0.032980
0.027793
-0.065027
0.012757
-0.061677
-0.004759
0.169632
0.388344
0.764671
0.986972
1.180881
1.231181
1.161018
0.846516
0.450533
0.101731
-0.151993
-0.194561
-0.150153
-0.133605
-0.125426
-0.108255
-0.012968
-0.022865
0.062190
-0.038346
0.112054
0.052965
0.097024
0.152529
0.154485
0.106497
0.150282
0.083653
0.043191
0.154681
0.239086
0.162758
0.333617
0.282791
0.255980
0.333213
0.308867
0.321782
0.406448
0.346977
0.477131
0.409688
0.407137
0.504587
0.513326
0.439588
0.478614
0.494247
0.544246
0.406676
0.398302
0.413313
0.432510
0.394616
0.382689
0.411565
0.411373
0.357138
0.348714
0.315038
0.293659
0.330391
0.292417
0.309840
0.234548
0.212347
0.196999
0.108527
0.185381
0.113389
0.166647
0.098287
0.078638
0.016192
-0.003610
0.061549
0.004148
0.098883
0.120386
0.105143
0.008263
-0.006556
0.023013
0.011027
-0.007354
-0.052328
-0.000771
0.014643
-0.023386
-0.081918
-0.057381
0.057636
-0.041018
-0.017576
-0.012747
-0.024413
0.009192
0.035255
-0.036035
-0.077547
0.041033
-0.005491
-0.015974
-0.037701
-0.018310
0.092565
-0.027846
-0.021047
-0.034628
-0.085532
0.015321
0.046502
0.026014
0.018687
0.005062
-0.050142
-0.048905
0.056200
0.013036
0.063252
0.055048
-0.023756
-0.039985
0.042366
-0.003485
0.098919
0.128281
0.109504
0.075387
0.064534
0.098661
0.188037
0.145549
0.179258
0.114516
0.101829
0.140214
0.301474
0.183350
0.102942
0.171331
0.207254
0.114442
0.163617
0.183240
0.161641
0.194831
0.144378
0.147190
0.105082
0.046634
0.079598
0.107573
0.105334
0.064673
0.151998
0.062754
-0.006756
0.041041
0.022876
0.090428
-0.006621
0.010912
0.021710
-0.033902
-0.045547
0.010056
0.117266
0.172060
0.362622
0.591663
1.007752
1.220010
1.318420
1.278489
1.104491
0.748105
0.502530
0.143431
-0.020753
-0.086776
-0.056580
-0.117249
-0.011562
0.094623
0.077726
0.105235
0.203383
0.132319
0.170239
0.118386
0.127828
0.212588
0.146339
0.257326
0.164869
0.264346
0.247045
0.322543
0.315812
0.364320
0.360780
0.420256
0.344509
0.445433
0.458726
0.485759
0.449640
0.409862
0.527888
0.449908
0.529345
0.540243
0.517960
0.448596
0.475812
0.523064
0.528081
0.458658
0.552234
0.485484
0.501434
0.534826
0.521937
0.427497
0.489880
0.478407
0.473644
0.386222
0.414882
0.341771
0.315590
0.296766
0.318628
0.224130
0.279964
0.262683
0.267473
0.183001
0.221376
0.135757
0.106336
0.153933
0.169056
0.117531
0.163572
0.123569
0.118460
0.099467
0.043261
0.118772
0.028840
0.048723
0.059838
0.037498
0.035855
0.042588
0.038483
0.023257
0.112930
0.007220
-0.061311
0.087137
0.034237
0.042756
0.107448
-0.005508
0.153491
0.070397
-0.008478
0.005753
0.079663
-0.020862
-0.064170
0.024720
0.032030
0.084507
0.092891
0.142681
0.078847
0.086799
0.062520
0.018159
0.063202
0.083672
-0.004148
0.073236
-0.054762
0.071689
0.052365
0.132715
0.084198
0.096157
0.111414
0.144387
0.092176
0.146888
0.177747
0.094393
0.187929
0.170348
0.177330
0.299162
0.135997
0.210282
0.207434
0.237407
0.181373
0.213053
0.248793
0.201644
0.266799
0.171963
0.138721
0.176371
0.190962
0.134945
0.179537
0.206058
0.104966
0.194139
0.128774
0.052099
0.146299
0.074970
0.075708
0.056072
0.100741
0.076517
0.058587
0.023232
0.058910
0.107279
0.045562
0.032675
0.078625
0.155746
0.213019
0.523202
0.775890
1.093406
1.290958
1.383418
1.340454
0.873713
0.541025
0.279176
0.047040
-0.064458
-0.084065
-0.089064
-0.025952
0.058721
0.059569
0.131937
0.082058
0.094632
0.161121
0.209466
0.276393
0.099372
0.203410
0.241119
0.235044
0.284836
0.214688
0.281569
0.298547
0.155304
0.314661
0.290702
0.391503
0.397044
0.407771
0.287871
0.437608
0.422622
0.501285
0.462816
0.497741
0.524590
0.453352
0.510493
0.529943
0.585713
0.604203
0.549724
0.560195
0.488304
0.590085
0.481608
0.536288
0.496040
0.394553
0.390334
0.363609
0.376699
0.385240
0.337493
0.397841
0.343519
0.375714
0.303146
0.216872
0.197179
0.221927
0.182303
0.230254
0.179193
0.247229
0.081083
0.179067
0.072257
0.111438
0.111757
0.056606
0.008755
0.031928
0.069319
0.022230
0.028025
0.008339
0.115233
0.024472
0.099741
0.026456
0.045371
0.086442
0.092876
0.077398
-0.010900
0.007521
0.019125
-0.033516
0.039948
0.010285
-0.027427
0.003013
-0.017158
0.028593
-0.034797
-0.019470
-0.002593
-0.072738
0.073688
-0.081172
0.015412
-0.027206
0.013542
-0.012439
-0.103937
-0.013194
0.023294
0.039051
-0.039215
-0.028907
-0.017143
0.030567
0.073960
0.044373
0.050535
-0.034591
-0.079553
0.086915
0.023267
0.089704
0.136868
0.062549
0.107211
0.081378
0.110757
0.058459
0.096445
0.095341
0.128656
0.093573
0.149434
0.124418
0.137256
0.118790
0.172680
0.144635
0.166518
0.196161
0.048011
0.109241
0.191398
0.074278
0.086132
0.019034
0.059484
-0.007679
-0.053265
0.016590
-0.011776
-0.051216
0.019137
0.021246
0.010976
-0.007586
-0.079725
0.025520
-0.043759
-0.050066
0.091421
0.074210
0.265431
0.487413
0.862709
1.096434
1.331308
1.272884
1.065657
0.721140
0.334170
0.145187
-0.066283
-0.231283
-0.168803
-0.058111
-0.118525
0.005732
-0.026604
-0.044529
0.059961
0.042914
0.056805
0.061602
0.115029
0.054583
0.118517
0.196003
0.192808
0.174444
0.082670
0.176900
0.120726
0.311121
0.245936
0.257620
0.223784
0.331473
0.294262
0.367336
0.389028
0.310922
0.441479
0.487191
0.482163
0.486778
0.482760
0.453704
0.477529
0.443721
0.469605
0.448498
0.352162
0.384825
0.515529
0.377195
0.432868
0.357478
0.306993
0.356940
0.389700
0.217361
0.285440
0.267274
0.251070
0.158842
0.263443
0.170073
0.198998
0.159945
0.118961
0.137264
0.021785
0.012073
-0.009190
-0.097602
-0.031733
-0.040356
-0.025551
0.009845
-0.019847
0.073426
-0.026747
-0.098539
-0.020572
-0.032193
-0.057743
-0.097456
-0.019930
-0.100936
-0.023907
-0.040558
0.026898
-0.099995
-0.044795
-0.075630
-0.037009
-0.075908
-0.138064
0.043581
-0.070988
-0.104266
-0.013999
-0.076704
-0.077851
-0.029173
-0.133078
-0.058426
-0.065900
-0.136300
-0.173430
-0.000744
-0.077065
-0.072803
-0.034171
-0.110434
-0.097291
-0.088512
-0.131623
-0.098937
-0.048249
-0.068871
-0.011794
-0.032322
-0.023521
-0.120900
-0.046301
-0.017598
-0.029190
0.029099
0.039419
0.002719
-0.017619
0.022542
0.077334
0.037978
0.019998
0.133636
0.074085
0.054986
0.116181
0.106780
0.132695
0.091712
0.107383
0.057239
0.103242
0.019240
0.032317
0.035581
-0.026231
-0.002517
0.023545
0.051879
-0.035627
-0.033946
-0.015846
-0.110985
-0.103932
-0.079837
-0.030084
-0.092836
-0.064046
-0.137817
-0.097602
-0.154245
-0.049474
-0.073917
-0.068012
-0.069538
0.099220
0.369884
0.635681
0.854062
1.183005
1.216345
1.084429
0.896648
0.538787
0.161667
-0.093091
-0.224439
-0.223153
-0.252690
-0.120490
-0.122198
0.015610
-0.071078
-0.023335
0.092030
-0.057848
0.113492
0.026059
0.109576
0.104260
0.134989
0.008000
0.141057
0.182374
0.068938
0.224434
0.222606
0.098934
0.298227
0.186042
0.225306
0.301519
0.372221
0.269742
0.322850
0.338944
0.361196
0.406071
0.329224
0.453760
0.536257
0.369138
0.372192
0.450817
0.547653
0.526443
0.423815
0.464256
0.407862
0.340784
0.357982
0.294617
0.359181
0.261409
0.260826
0.278537
0.272397
0.249698
0.252103
0.209330
0.144042
0.147065
0.058040
0.074180
0.018331
0.066158
0.072705
0.142752
0.102088
-0.024751
0.001557
0.009357
-0.130492
-0.077802
0.005964
-0.077960
-0.047822
0.014981
-0.093263
-0.008405
-0.020207
-0.008332
-0.050582
-0.100490
-0.061009
-0.139697
-0.040986
-0.013134
-0.024924
-0.003655
-0.093324
-0.071593
-0.116762
-0.059642
-0.086500
-0.069536
-0.092228
-0.109169
-0.032088
-0.005302
-0.087445
-0.092944
-0.032329
-0.095926
-0.132999
-0.068979
-0.032730
-0.161926
-0.084165
-0.063840
-0.115081
-0.047245
0.002940
0.016839
-0.080361
-0.036061
0.009312
-0.030075
0.055944
-0.069234
0.042274
0.093641
0.039581
0.021972
0.001680
0.139396
-0.034671
0.059567
-0.040991
0.096071
0.049242
0.106151
0.037832
0.219108
0.000784
0.038248
0.122945
0.133352
0.123318
0.202312
0.127923
0.144311
0.130726
0.127478
0.068303
0.076619
-0.010950
0.060098
0.039674
-0.014820
-0.003802
0.071829
-0.055903
-0.040049
-0.067657
-0.056063
0.004494
0.035728
-0.063378
0.045322
-0.046171
0.100486
0.016220
0.233166
0.249260
0.570879
0.896018
1.117099
1.325043
1.244691
1.131765
0.878699
0.363704
0.102602
-0.097423
-0.158671
-0.159050
-0.046005
0.052470
0.039118
0.053014
-0.035551
0.109560
0.034208
0.092133
0.096784
0.162059
0.161349
0.068485
0.180581
0.215138
0.153048
0.172564
0.304099
0.248487
0.366771
0.219322
0.238079
0.379760
0.334018
0.367051
0.428496
0.482655
0.396246
0.422890
0.446231
0.493588
0.456486
0.498569
0.551888
0.526909
0.480462
0.529373
0.525508
0.503429
0.472035
0.487645
0.375912
0.439914
0.488571
0.498650
0.397216
0.373896
0.377738
0.337194
0.350718
0.309673
0.286791
0.306614
0.219829
0.248805
0.234973
0.188732
0.181648
0.100976
0.179766
0.146040
0.124261
0.103692
0.090225
0.135482
0.134786
0.131047
0.101124
0.098574
0.011909
0.000273
0.056579
0.070430
0.132860
0.048731
0.070550
-0.012827
-0.005473
0.006008
-0.036741
-0.009703
0.072245
0.015829
-0.074525
-0.038621
0.046386
0.075736
-0.016953
0.054927
0.036729
0.012984
-0.005029
0.015384
-0.010757
0.001524
0.042233
0.051159
0.053268
0.023432
0.026820
0.081276
0.067343
0.090393
0.053446
0.070821
0.039245
0.087737
0.054244
0.057261
0.080640
0.074181
0.031203
0.097271
0.169638
0.125271
0.241585
0.193897
0.227546
0.128898
0.253893
0.199745
0.240610
0.150620
0.206504
0.296946
0.135639
0.173015
0.241899
0.194790
0.229463
0.213855
0.175423
0.205556
0.169200
0.097408
0.179776
0.134489
0.166385
0.096984
0.075680
0.052899
0.098336
0.088992
0.075259
0.137528
0.161049
0.038478
0.111795
0.138949
0.133128
0.068888
0.111182
0.098798
0.084154
0.063693
0.139104
0.267176
0.454356
0.778698
1.115766
1.261499
1.447242
1.374621
1.082564
0.700773
0.355732
0.123787
-0.025085
-0.059514
-0.040894
0.052386
0.024881
0.110579
0.054044
0.195552
0.236288
0.114234
0.169784
0.209631
0.202659
0.201953
0.221407
0.256215
0.222322
0.384523
0.335693
0.337251
0.406376
0.330651
0.425230
0.462261
0.503737
0.498427
0.481143
0.487433
0.479277
0.517362
0.612830
0.555231
0.517329
0.535873
0.573600
0.538067
0.592247
0.538909
0.648037
0.621419
0.590782
0.506262
0.520267
0.558031
0.468665
0.537050
0.486383
0.517331
0.493187
0.379462
0.348603
0.389333
0.405534
0.311707
0.360553
0.259874
0.306805
0.192785
0.192892
0.172583
0.185859
0.152576
0.192585
0.194902
0.205431
0.108217
0.192133
