0.010448
-0.009164
0.036690
-0.007248
-0.007437
-0.019077
-0.015581
-0.037511
-0.056451
-0.005634
0.029762
0.058121
0.046069
-0.014360
0.000468
0.046777
0.067208
0.019303
0.057502
0.091449
0.031601
-0.034531
0.022187
-0.035842
0.108589
0.082828
0.103163
0.094485
0.142687
0.099420
0.048411
0.143967
0.097387
0.094574
0.099666
0.146545
0.128270
0.186481
0.065997
0.129868
0.258576
0.184589
0.104309
0.210198
0.192118
0.169704
0.139508
0.182911
0.190570
0.131746
0.130556
0.156694
0.181788
0.100138
0.154390
0.109658
0.151646
0.096392
0.076330
0.152432
0.116217
0.117617
0.054319
0.089235
0.035788
0.028707
0.085596
0.015514
0.007476
0.097081
0.011397
0.088926
0.079648
0.079070
0.098860
0.095886
-0.000555
0.079258
0.021814
0.007216
0.033992
0.041503
0.146092
0.474873
0.742379
0.929339
1.191209
1.323049
1.192013
1.022400
0.734319
0.384092
0.098497
-0.044260
-0.110769
-0.154588
-0.099882
-0.069688
0.027892
0.093781
0.067098
-0.000010
-0.032171
0.069173
0.083830
0.099770
0.145704
0.072285
0.113939
0.108714
0.077683
0.109469
0.081886
0.060821
0.131027
0.219951
0.136464
0.172988
0.224055
0.200702
0.197478
0.286254
0.181811
0.267074
0.369107
0.277647
0.402921
0.351787
0.380203
0.370893
0.419416
0.400834
0.486157
0.474471
0.551570
0.535520
0.522062
0.557193
0.562842
0.527833
0.496186
0.483807
0.537813
0.486045
0.522130
0.533781
0.577584
0.509414
0.496033
0.453459
0.454924
0.426999
0.392430
0.419063
0.440758
0.349449
0.342648
0.401224
0.374502
0.323440
0.341710
0.322009
0.296789
0.311575
0.241524
0.204813
0.220166
0.285066
0.195417
0.203292
0.159859
0.159353
0.105738
0.154789
0.141449
0.117335
0.151181
0.140652
0.147445
0.135390
0.125559
0.159613
0.164539
0.077517
0.115166
0.138301
0.164661
0.165754
0.107562
0.040881
0.112449
0.120751
0.170953
0.100366
0.067662
0.104045
0.111357
0.065376
0.085975
0.126547
0.092121
0.131687
0.121985
0.114552
0.063343
0.129793
0.166970
0.122208
0.049415
0.135797
0.062937
0.125551
0.156462
0.122645
0.098953
0.138881
0.063354
0.097068
0.149226
0.106244
0.065436
0.077970
0.140779
0.117819
0.125725
0.139615
0.093116
0.140070
0.084703
0.064175
0.099981
0.072680
0.097212
0.022784
0.102999
0.155186
0.085772
0.158650
0.121220
0.044876
0.134965
0.124983
0.149828
0.144703
0.139739
0.142535
0.153523
0.177461
0.201460
0.201952
0.171223
0.193354
0.281780
0.218559
0.208076
0.268893
0.298276
0.294382
0.195141
0.248954
0.258457
0.275039
0.236340
0.272225
0.264202
0.267690
0.219813
0.195717
0.168522
0.244484
0.186098
0.190953
0.277421
0.140800
0.147944
0.255851
0.183809
0.190203
0.098127
0.170208
0.176844
0.155967
0.136307
0.100566
0.185065
0.208702
0.108355
0.132234
0.134590
0.190850
0.125360
0.086513
0.130657
0.117929
0.108357
0.062164
0.095514
0.050290
0.093347
0.241540
0.358060
0.551546
0.899701
1.171765
1.313097
1.270839
1.124739
0.838664
0.484926
0.277073
0.028921
-0.068478
-0.078479
-0.106332
-0.005452
0.064834
0.070727
0.087002
0.062655
0.113932
0.038813
0.108266
0.172459
0.182473
0.171116
0.120901
0.189319
0.179382
0.168489
0.121812
0.143691
0.224675
0.186866
0.185126
0.263052
0.262130
0.275141
0.271127
0.241989
0.287165
0.263075
0.358820
0.343394
0.318823
0.373303
0.329864
0.351743
0.409555
0.395146
0.413464
0.494750
0.548388
0.489853
0.478429
0.498863
0.492784
0.519677
0.503225
0.506046
0.483920
0.502350
0.579345
0.513738
0.584590
0.484338
0.518302
0.466827
0.447409
0.448703
0.446917
0.394136
0.443370
0.395520
0.359492
0.280705
0.362993
0.354910
0.264518
0.315613
0.306977
0.261560
0.256362
0.233468
0.193485
0.205634
0.192717
0.086802
0.185699
0.194306
0.137289
0.163156
0.140065
0.092075
0.076796
0.164584
0.161954
0.106899
0.104602
0.179662
0.072429
0.100516
0.106020
-0.012680
0.133969
0.089420
0.092994
0.135433
0.091540
0.046603
0.101893
0.087948
0.113376
0.031905
0.120881
0.092736
0.063916
0.046956
0.104973
0.102078
0.019549
0.096642
0.141749
0.018754
0.051979
0.097539
0.057095
0.064192
0.059617
0.033693
0.057770
0.104828
0.020150
0.091993
0.110207
0.164122
0.080626
0.053995
0.062688
0.073503
0.048525
0.084479
-0.002727
-0.014135
0.053203
0.039374
-0.002998
0.043703
0.095900
0.055878
0.098690
0.031476
0.109164
0.098938
0.103445
0.109168
0.102132
0.112696
0.106424
0.086334
0.087164
0.153668
0.077153
0.062299
0.115623
0.130459
0.149096
0.115034
0.134500
0.184792
0.149981
0.197283
0.184822
0.174151
0.200682
0.182057
0.199843
0.270741
0.241783
0.183162
0.155931
0.214803
0.202761
0.240593
0.175625
0.197152
0.202813
0.195085
0.170756
0.183503
0.163142
0.128001
0.042604
0.083149
0.161297
0.098991
0.096109
0.009726
0.091203
0.073582
0.050561
0.040116
0.115275
0.063179
0.119954
0.105376
0.121177
0.076165
0.065222
0.102509
0.036896
0.094458
0.040272
0.017315
-0.026912
0.045744
0.044834
0.113553
0.296151
0.487222
0.706245
1.051780
1.168467
1.294898
1.140074
0.914278
0.629906
0.288801
0.054462
-0.160758
-0.201053
-0.177499
-0.108144
-0.038148
0.071531
0.077195
0.054274
-0.026651
0.071492
0.087654
0.072293
0.040873
0.043649
0.142806
0.075162
0.082631
0.103625
0.114524
0.106575
0.083146
0.109350
0.080236
0.227593
0.209793
0.154631
0.130622
0.251146
0.247972
0.250796
0.291612
0.358350
0.262412
0.301198
0.328415
0.365256
0.330439
0.294097
0.385623
0.395709
0.442834
0.374126
0.436306
0.461431
0.484430
0.545321
0.444288
0.531412
0.468566
0.493519
0.475944
0.462217
0.499926
0.408628
0.437233
0.519062
0.434325
0.422571
0.341373
0.454183
0.387931
0.343657
0.384232
0.373478
0.295376
0.342203
0.267288
0.218124
0.241333
0.240639
0.252285
0.250702
0.149463
0.253968
0.181542
0.143154
0.094685
0.147364
0.136695
0.091775
0.128737
0.131024
0.074952
0.163270
0.029478
0.079236
0.053695
0.117840
0.039166
0.193790
0.051665
0.105263
0.049460
0.077109
0.127562
0.063120
0.069137
0.023442
0.142918
0.123729
0.050190
0.065239
0.102696
0.070094
0.101670
0.089091
0.004955
0.003756
0.071911
0.028021
0.068773
0.138961
0.035719
0.122451
0.077648
0.100343
0.121902
0.126647
0.133457
0.089223
0.022613
0.097240
0.070868
0.051658
0.061518
0.044837
0.098974
0.094620
0.129256
0.121427
0.121831
0.083420
0.163321
0.066694
0.121223
0.136195
0.077145
0.166294
0.149094
0.152193
0.095149
0.121257
0.136986
0.173916
0.150622
0.130856
0.113551
0.041822
0.099191
0.095997
0.119131
0.111012
0.132960
0.174651
0.188716
0.184111
0.234247
0.232638
0.179160
0.250673
0.296660
0.223383
0.277372
0.290016
0.238580
0.287199
0.250359
0.229816
0.259449
0.264325
0.294958
0.293800
0.276911
0.147854
0.312306
0.244002
0.210482
0.188705
0.157594
0.165366
0.188194
0.221828
0.149164
0.235429
0.143813
0.105829
0.083358
0.191254
0.209193
0.200787
0.146127
0.116222
0.125598
0.107819
0.168436
0.112085
0.114024
0.189231
0.174765
0.180204
0.120596
0.150309
0.094866
0.048817
0.158210
0.146487
0.245087
0.378513
0.766909
0.971815
1.247956
1.321679
1.289804
1.091662
0.825896
0.483160
0.196216
0.027137
-0.097143
-0.080982
-0.023578
-0.003588
0.144333
0.211417
0.209140
0.099131
0.113793
0.177049
0.149565
0.199341
0.195853
0.219908
0.251013
0.174644
0.212972
0.152838
0.226519
0.257276
0.215869
0.223533
0.263787
0.201710
0.248077
0.297137
0.309297
0.290702
0.340035
0.370238
0.360161
0.435271
0.371907
0.472300
0.473908
0.458731
0.510675
0.521733
0.554289
0.497856
0.521975
0.662749
0.523623
0.621425
0.570455
0.546806
0.607479
0.605530
0.554645
0.608729
0.548518
0.558396
0.599031
0.562715
0.609217
0.551634
0.611578
0.492945
0.493863
0.489414
0.534614
0.463178
0.500847
0.509826
0.416158
0.424769
0.391626
0.402134
0.330107
0.369459
0.340147
0.327937
0.217481
0.333575
0.299131
0.292302
0.250297
0.295705
0.238702
0.288874
0.180460
0.267647
0.156320
0.179362
0.255249
0.211052
0.220347
0.205378
0.203788
0.178243
0.175640
0.287371
0.182576
0.193609
0.211334
0.270610
0.155292
0.254024
0.220197
0.194718
0.144793
0.217912
0.219057
0.264772
0.202153
0.238679
0.183910
0.211183
0.208112
0.211074
0.224936
0.158181
0.271046
0.133030
0.266470
0.263732
0.241177
0.246963
0.157321
0.257957
0.238802
0.230903
0.194838
0.163964
0.241885
0.236614
0.227264
0.251965
0.177414
0.216212
0.220247
0.196864
0.207580
0.242357
0.201228
0.196150
0.243905
0.213732
0.248897
0.266037
0.158525
0.269139
0.243334
0.177560
0.216843
0.224307
0.236882
0.223612
0.342396
0.238262
0.284333
0.246033
0.305937
0.299832
0.367764
0.284933
0.293148
0.356649
0.326667
0.379664
0.373709
0.366894
0.361027
0.410499
0.388258
0.365005
0.399226
0.304564
0.401254
0.421172
0.369556
0.379340
0.387212
0.381483
0.347880
0.329827
0.326588
0.345383
0.325317
0.294713
0.357773
0.259016
0.275063
0.282992
0.277054
0.235330
0.252007
0.217308
0.232293
0.212453
0.251580
0.183713
0.217460
0.249559
0.217690
0.261875
0.303474
0.230137
0.257963
0.222933
0.169208
0.232874
0.258941
0.170360
0.266249
0.322149
0.418135
0.699356
0.955663
1.188740
1.390144
1.419635
1.214332
1.000355
0.732472
0.408405
0.202122
0.029013
0.043914
0.065105
0.133284
0.212454
0.199572
0.196872
0.245611
0.255792
0.216427
0.255904
0.218739
0.200649
0.267679
0.332567
0.196016
0.348028
0.283512
0.264275
0.334080
0.303941
0.314372
0.291958
0.319618
0.349938
0.430379
0.421176
0.471003
0.407689
0.377269
0.470630
0.464269
0.526426
0.514199
0.495793
0.468492
0.587594
0.573677
0.548395
0.480085
0.697392
0.641517
0.608737
0.689256
0.668107
0.686075
0.649031
0.708494
0.649810
0.687460
0.677143
0.660054
0.598620
0.686971
0.627497
0.621225
0.637076
0.619035
0.576335
0.594336
0.533490
0.522379
0.501986
0.488932
0.504935
0.453130
0.376558
0.404030
0.363210
0.426965
0.402991
0.437148
0.347652
0.342519
0.336528
0.298732
0.272451
0.272093
0.286236
0.264088
0.253560
0.301166
0.264994
0.249000
0.250862
0.227929
0.238893
0.211307
0.197841
0.213398
0.239657
0.245722
0.155362
0.211830
0.237766
0.200353
0.227466
0.225320
0.270856
0.266142
0.224597
0.238458
0.190508
0.260563
0.202341
0.282228
0.284262
0.178135
0.235096
0.221594
0.288051
0.227026
0.247374
0.234222
0.199182
0.248282
0.240798
0.174461
0.235433
0.211893
0.199403
0.162071
0.182982
0.247333
0.153456
0.191444
0.240895
0.216798
0.166018
0.201840
0.212054
0.190921
0.239600
0.166465
0.235171
0.256343
0.220733
0.208194
0.229589
0.132218
0.144945
0.230920
0.177652
0.239024
0.193347
0.213519
0.220826
0.306521
0.126082
0.195283
0.240995
0.241516
0.289192
0.253518
0.278100
0.267858
0.381215
0.280029
0.260681
0.353614
0.303220
0.287978
0.332755
0.303913
0.383014
0.378564
0.339823
0.384269
0.336719
0.324256
0.420637
0.325379
0.360800
0.348922
0.369653
0.349342
0.266300
0.289316
0.290639
0.232229
0.270803
0.250555
0.207186
0.198454
0.239376
0.227144
0.206233
0.269222
0.213036
0.216863
0.145570
0.208883
0.170488
0.216133
0.178369
0.212754
0.156819
0.152598
0.135853
0.195556
0.175698
0.122713
0.133862
0.148776
0.153037
0.125255
0.326823
0.484150
0.784972
1.064044
1.337554
1.379061
1.325442
1.064753
0.789316
0.556373
0.228833
0.050878
-0.006238
-0.034873
0.004645
0.032406
0.125369
0.151034
0.154726
0.123201
0.199323
0.185352
0.164744
0.207141
0.152494
0.243670
0.267118
0.226000
0.143152
0.225092
0.214959
0.209736
0.227517
0.247085
0.263421
0.285687
0.266026
0.280384
0.340392
0.354729
0.354222
0.350763
0.435744
0.395061
0.484154
0.489056
0.416884
0.510933
0.458144
0.522294
0.495789
0.502070
0.516172
0.510329
0.537517
0.617719
0.623991
0.560909
0.555399
0.580170
0.576611
0.572667
0.609920
0.569337
0.528700
0.657010
0.574280
0.483985
0.589361
0.476807
0.440096
0.479653
0.560345
0.528648
0.390263
0.418606
0.402055
0.390707
0.387053
0.386889
0.292190
0.332995
0.293478
0.262416
0.280721
0.217685
0.238222
0.174037
0.202739
0.164537
0.234383
0.174459
0.108329
0.099501
0.137034
0.161730
0.203285
0.202326
0.163374
0.093644
0.156541
0.102134
0.162741
0.137242
0.164050
0.092166
0.150156
0.157891
0.167123
0.138615
0.117337
0.118679
0.170457
0.092946
0.120417
0.115666
0.076172
0.190043
0.059956
0.138075
0.090393
0.128695
0.223963
0.134828
0.145187
0.114469
0.090180
0.059848
0.214200
0.120460
0.147743
0.137635
0.141467
0.117979
0.148354
0.151859
0.168395
0.146872
0.077104
0.053310
0.168708
0.154350
0.213069
0.117805
0.093832
0.089408
0.134689
0.101145
0.169742
0.177541
0.100510
0.102077
0.208639
0.159625
0.178466
0.163571
0.131045
0.185384
0.157274
0.146691
0.154625
0.159902
0.099013
0.128188
0.171607
0.222415
0.187056
0.190217
0.261746
0.262059
0.323348
0.214791
0.202761
0.265486
0.282173
0.342210
0.313126
0.275577
0.362566
0.323228
0.371547
0.301055
0.317141
0.294414
0.237943
0.277820
0.265416
0.247120
0.235647
0.234601
0.264432
0.219809
0.160268
0.223007
0.158690
0.217120
0.309719
0.153292
0.250713
0.104983
0.222393
0.117971
0.156658
0.107030
0.165565
0.135895
0.133258
0.138062
0.152532
0.149203
0.144237
0.186019
0.158357
0.193754
0.098232
0.185282
0.187360
0.278401
0.432327
0.670375
0.839620
1.195115
1.304374
1.316585
1.153180
0.832046
0.594769
0.294752
0.106455
-0.104269
-0.127864
-0.015889
-0.012710
0.100492
0.088284
0.244355
0.156172
0.221834
0.228012
0.222992
0.192148
0.177020
0.147817
0.150351
0.239884
0.225420
0.244824
0.252672
0.221664
0.259881
0.238147
0.194901
0.253515
0.304731
0.325911
0.337850
0.354125
0.339550
0.361042
0.339407
0.421559
0.446177
0.379742
0.451305
0.445224
0.466017
0.536572
0.477628
0.537625
0.587848
0.585944
0.547949
0.589973
0.564601
0.667300
0.593308
0.611220
0.630462
0.626308
0.639510
0.481228
0.658173
0.593732
0.572487
0.526293
0.525842
0.439499
0.527831
0.500233
0.484611
0.484328
0.512373
0.474777
0.436206
0.429488
0.383890
0.398850
0.352986
0.290436
0.310593
0.330159
0.316460
0.319326
0.289032
0.240036
0.213186
0.231243
0.260038
0.169123
0.240870
0.257072
0.259761
0.163255
0.241191
0.225360
0.224986
0.202711
0.214838
0.237108
0.199966
0.169631
0.151830
0.190932
0.147285
0.130623
0.236590
0.267959
0.198853
0.195355
0.253073
0.270763
0.186715
0.177526
0.218070
0.154490
0.260043
0.228748
0.192424
0.187585
0.220838
0.211349
0.200967
0.199269
0.206433
0.235755
0.136256
0.183628
0.231905
0.215736
0.307000
0.185858
0.313005
0.161642
0.218593
0.206761
0.253604
0.280195
0.311023
0.274538
0.306821
0.199421
0.206928
0.180238
0.229807
0.214533
0.216018
0.192136
0.199493
0.264535
0.189462
0.226718
0.254474
0.245318
0.240696
0.244996
0.295274
0.224308
0.241326
0.223294
0.223061
0.291833
0.290589
0.291985
0.246042
0.321371
0.286468
0.242511
0.310522
0.277055
0.329164
0.404286
0.322691
0.364937
0.376397
0.378369
0.367220
0.393386
0.412169
0.426826
0.364831
0.368744
0.365304
0.383124
0.339361
0.361918
0.350284
0.328495
0.260063
0.264002
0.303151
0.301120
0.290269
0.238504
0.334924
0.204054
0.293264
0.273174
0.310097
0.273722
0.289402
0.302924
0.230552
0.266885
0.240091
0.297738
0.257897
0.249654
0.211812
0.196675
0.294896
0.196716
0.193599
0.240646
0.266759
0.335318
0.402884
0.678013
0.963376
1.264551
1.380701
1.500000
1.259237
1.095082
0.785680
0.450085
0.252424
0.064573
-0.024660
0.043003
0.144109
0.173795
0.263164
0.232088
0.280497
0.249459
0.234855
0.292990
0.294130
0.327883
0.351530
0.235693
0.248733
0.284199
0.308880
0.305737
0.337480
0.346271
0.393615
0.345369
0.401953
0.392250
0.405408
0.380515
0.396286
0.399489
0.437691
0.479552
0.533406
0.544608
0.607491
0.516938
0.553160
0.600265
0.617185
0.636989
0.644221
0.654871
0.697200
0.674021
0.569547
0.718468
0.759685
0.638024
0.712817
0.697908
0.687987
0.691642
0.749245
0.694776
0.661079
0.683478
0.733033
0.715194
0.675185
0.550210
0.634246
0.574678
0.524879
0.566585
0.533076
0.509620
0.481835
0.462610
0.526010
0.450991
0.414285
0.428908
0.400761
0.385131
0.361816
0.388406
0.325722
0.290345
0.323405
0.356753
0.352536
0.306721
0.264839
0.312148
0.302651
0.339010
0.278293
0.311121
0.307757
0.277630
0.250662
0.349610
0.261823
0.232351
0.318936
0.298239
0.255995
0.204867
0.249396
0.272799
0.222415
0.274379
0.321263
0.289071
0.300676
0.250298
0.270991
0.296426
0.257818
0.329099
0.346807
0.192849
0.279151
0.278158
0.274875
0.265982
0.207415
0.260264
0.216687
0.312991
0.167217
0.312330
0.276008
0.255194
0.255673
0.244954
0.300731
0.321634
0.314337
0.232681
0.315571
0.292979
0.249544
0.225467
0.227479
0.246261
0.307588
0.281510
0.243667
0.259509
0.228181
0.286317
0.272575
0.290519
0.278901
0.294923
0.343388
0.327041
0.299959
0.275369
0.368536
0.348687
0.248278
0.343542
0.306576
0.350429
0.362654
0.330172
0.356982
0.378961
0.322194
0.355651
0.353175
0.351468
0.435651
0.359593
0.405066
0.338093
0.369547
0.346086
0.439319
0.425683
0.441242
0.405210
0.353579
0.391178
0.367426
0.326854
0.337469
0.406147
0.331828
0.347415
0.330766
0.301099
0.306726
0.321978
0.303834
0.267581
0.211680
0.305558
0.336067
0.234820
0.285088
0.294932
0.219435
0.234247
0.303901
0.281931
0.253525
0.298005
0.212253
0.222740
0.215771
0.233116
0.238451
0.214552
0.229723
0.336050
0.579711
0.834681
1.149224
1.356037
1.496711
1.446088
1.150318
0.876892
0.635549
0.300540
0.156848
0.015940
0.030185
0.093604
0.108550
0.166686
0.219856
0.233103
0.230665
0.290570
0.325804
0.227217
0.312406
0.248966
0.291120
0.236226
0.234374
0.335166
0.297788
0.299697
0.242121
0.276720
0.328216
0.256981
0.344038
0.410850
0.394962
0.357232
0.453824
0.421311
0.395147
0.524533
0.471399
0.549450
0.487715
0.467765
0.537803
0.580670
0.533402
0.588260
0.593324
0.650097
0.631124
0.604000
0.681141
0.630196
0.674563
0.711415
0.599942
0.644899
0.612858
0.671289
0.651138
0.564327
0.642740
0.581769
0.549384
0.570656
0.577700
0.573952
0.606292
0.555607
0.436290
0.484269
0.525937
0.419639
0.484136
0.402085
0.478154
0.300678
0.385604
0.382050
0.383378
0.320369
0.239371
0.289771
0.260615
0.283283
0.226231
0.248287
0.329719
0.275806
0.299795
0.268991
0.220162
0.185742
0.221282
0.224643
0.261213
0.261500
0.155712
0.208552
0.161907
0.176329
0.203260
0.191358
0.221926
0.216919
0.225373
0.187707
0.147870
0.244160
0.195641
0.218489
0.258058
0.244641
0.186871
0.187114
0.227899
0.174333
0.226733
0.152748
0.217612
0.185903
0.170986
0.233904
0.137756
0.235614
0.172714
0.137164
0.191428
0.208450
0.236786
0.231339
0.150799
0.176730
0.154090
0.129569
0.145224
0.186708
0.152178
0.206211
0.150578
0.155429
0.151994
0.202578
0.159948
0.187852
0.182427
0.195912
0.217380
0.189216
0.219204
0.227160
0.139866
0.195628
0.207561
0.195501
0.234746
0.194797
0.264070
0.214168
0.205642
0.156109
0.172161
0.179004
0.207195
0.280762
0.299990
0.303572
0.299453
0.324511
0.312644
0.289804
0.322186
0.303105
0.362375
0.330511
0.301319
0.322542
0.332611
0.309861
0.328519
0.328205
0.251465
0.277401
0.329080
0.288681
0.270639
0.239427
0.252740
0.239338
0.216634
0.186238
0.253142
0.251162
0.190059
0.288156
0.135062
0.159510
0.112080
0.212940
0.151254
0.196959
0.196151
0.188431
0.154981
0.118648
0.200391
0.187443
0.211032
0.192730
0.191894
0.185434
0.146591
0.163089
0.257031
0.401264
0.614333
0.838123
1.145381
1.378808
1.341732
1.177615
0.955736
0.670848
0.314439
0.152315
-0.035488
-0.074191
0.077334
0.038471
0.135747
0.147447
0.111368
0.205885
0.142820
0.127299
0.209498
0.265799
0.255691
0.210662
0.168658
0.217757
0.213191
0.252072
0.226021
0.170698
0.211908
0.337346
0.246789
0.256904
0.261688
0.342464
0.275239
0.331485
0.273982
0.349110
0.349110
0.434276
0.394505
0.454416
0.407124
0.449725
0.489623
0.504744
0.554152
0.448328
0.577836
0.562444
0.558046
0.620323
0.582529
0.567866
0.623100
0.571553
0.628324
0.573714
0.574553
0.542590
0.596794
0.602859
0.529524
0.552623
0.526348
0.491364
0.573858
0.464794
0.526855
0.441573
0.416979
0.399515
0.424390
0.430402
0.380055
0.344186
0.375226
0.309993
0.291054
0.297799
0.356836
0.297147
0.300967
0.186777
0.230412
0.266225
0.258407
0.219066
0.204815
0.215394
0.219427
0.234595
0.181529
0.149624
0.197242
0.178938
0.221464
0.158076
0.183412
0.192812
0.153970
0.185357
0.161609
0.230203
0.209552
0.159871
0.186005
0.115132
0.184550
0.203351
0.134839
0.165473
0.152813
0.182052
0.082687
0.165144
0.139907
0.151693
0.163822
0.170591
0.187553
0.096597
0.175727
0.179115
0.197114
0.178933
0.201574
0.158491
0.199122
0.187961
0.144987
0.101699
0.213569
0.215083
0.147950
0.150620
0.185457
0.188372
0.188554
0.191048
0.144869
0.191484
0.158958
0.183921
0.179474
0.175411
0.215433
0.179154
0.141352
0.172991
0.179118
0.253575
0.211817
0.155093
0.206558
0.262132
0.214303
0.252533
0.197311
0.159447
0.252828
0.265086
0.245403
0.219077
0.257635
0.266334
0.324827
0.312942
0.315471
0.325897
0.317231
0.443095
0.336269
0.366013
0.362633
0.284141
0.298407
0.362892
0.348233
0.362439
0.299456
0.383445
0.352927
0.260362
0.307461
0.292856
0.270227
0.224424
0.279369
0.265132
0.270577
0.222177
0.287018
0.295002
0.177911
0.202011
0.210329
0.225986
0.207929
0.220506
0.216110
0.216647
0.238784
0.184264
0.177619
0.207902
0.221686
0.158607
0.203373
0.282930
0.234948
0.182809
0.204735
0.176668
0.356190
0.545358
0.836787
1.095950
1.304544
1.355185
1.366769
1.026438
0.836396
0.506887
0.164187
0.010012
-0.046264
0.000440
0.065284
0.155323
0.163458
0.260019
0.207985
0.243906
0.286929
0.211893
0.283994
0.219701
0.301044
0.264690
0.267966
0.271486
0.274618
0.288663
0.301774
0.319724
0.314774
0.406752
0.399873
0.325318
0.385621
0.416345
0.412984
0.420987
0.373456
0.485780
0.479941
0.530837
0.570574
0.495063
0.573559
0.615980
0.680210
0.644667
0.674529
0.621748
0.671402
0.680831
0.652895
0.729327
0.631011
0.703580
0.672006
0.699675
0.652790
0.667241
0.707607
0.661413
0.613625
0.704109
0.673568
0.621445
0.616435
0.574935
0.521278
0.547340
0.558790
0.512517
0.520903
0.565775
0.508621
0.514368
0.446266
0.442874
0.399015
0.378142
0.374080
0.360855
0.372668
0.365956
0.373929
0.301957
0.256843
0.298719
0.345172
0.261509
0.304948
0.222250
0.324456
0.316070
0.325377
0.329937
0.298601
0.268193
0.279723
0.284400
0.319881
0.269900
0.210215
0.289819
0.299157
0.323024
0.322312
0.282769
0.284197
0.222294
0.231417
0.328372
0.254970
0.303961
0.252057
0.261317
0.307489
0.286106
0.237417
0.339261
0.281628
0.292636
0.263151
0.302773
0.342054
0.272082
0.302575
0.379692
0.269731
0.314609
0.242660
0.307199
0.323485
0.315185
0.329534
0.261216
0.248222
0.280477
0.264465
0.271447
0.233899
0.202634
0.261277
0.289557
0.321247
0.265417
0.301068
0.183900
0.302364
0.248222
0.269279
0.283019
0.329103
0.325577
0.337589
0.281312
0.324142
0.375729
0.354507
0.321704
0.288567
0.293802
0.335909
0.382620
0.317758
0.422241
0.448099
0.331514
0.403339
0.419070
0.389118
0.455668
0.424739
0.413696
0.486849
0.434186
0.480226
0.442136
0.493440
0.442800
0.434859
0.460580
0.424574
0.471530
0.462703
0.420892
0.407899
0.414072
0.413444
0.363821
0.307404
0.327198
0.299300
0.290999
0.294184
0.287581
0.302385
0.350235
0.309777
0.330810
0.334524
0.284666
0.286220
0.313329
0.294630
0.364770
0.359714
0.263554
0.270610
0.368734
0.353886
0.265290
0.238413
0.293273
0.349113
0.411433
0.535552
0.739436
1.122301
1.480605
1.465385
1.395987
1.324637
1.034312
0.708267
0.372793
0.125686
0.066886
-0.017091
0.090850
0.202063
0.201061
0.227009
0.243657
0.353669
0.319843
0.372999
0.320321
0.262494
0.341981
0.355269
0.350492
