0.002606
0.053599
-0.039820
0.029255
-0.030216
-0.005640
-0.057369
-0.042107
0.033471
-0.012414
-0.003459
-0.015937
0.021283
-0.031786
0.030332
0.031296
0.074218
0.028938
0.065751
0.006956
-0.017177
0.041748
0.023587
0.071434
0.046410
0.028460
0.028323
0.031304
0.121532
0.133458
0.060843
0.124788
0.099773
0.107239
0.053211
0.116748
0.152739
0.150876
0.105545
0.134223
0.193983
0.135174
0.232697
0.267223
0.198475
0.218108
0.191288
0.188690
0.192641
0.204437
0.219429
0.111467
0.160759
0.082965
0.157874
0.109359
0.125995
0.099574
0.032794
0.125421
0.118892
0.076188
0.045702
0.082584
0.011065
0.059397
0.001847
0.059767
0.020431
0.019027
-0.010344
-0.017869
0.018763
0.043250
0.073181
0.003998
0.023988
0.033542
0.049220
0.039417
-0.022972
0.020641
0.181873
0.424639
0.711448
1.087760
1.238993
1.313867
1.287786
1.044242
0.779885
0.368014
0.085583
-0.133678
-0.249373
-0.171738
-0.143326
-0.067116
-0.008866
-0.023606
0.124829
0.063952
0.055961
0.085742
0.095181
0.089959
0.126748
0.135232
0.136842
0.110325
0.077277
0.126337
0.106899
0.063636
0.094683
0.161918
0.151523
0.219052
0.217730
0.125968
0.177861
0.246257
0.263678
0.353613
0.428003
0.368729
0.399678
0.390705
0.367232
0.503929
0.470068
0.418091
0.484737
0.451381
0.493072
0.615312
0.493726
0.526339
0.542173
0.632003
0.562327
0.558271
0.544468
0.578960
0.574656
0.572234
0.528614
0.530119
0.522586
0.503459
0.530067
0.481482
0.575802
0.404062
0.427127
0.392033
0.403006
0.326428
0.368889
0.307727
0.283441
0.291481
0.237330
0.256824
0.218516
0.229483
0.166834
0.225303
0.149190
0.196220
0.176576
0.172793
0.065734
0.074419
0.184765
0.079154
0.174154
0.091934
0.132174
0.159875
0.129409
0.075023
0.158217
0.053793
0.150516
0.113920
0.036063
0.100629
0.115706
0.163472
0.076412
0.020205
0.164379
0.076489
0.055319
0.160173
0.066336
0.081134
0.130880
0.013584
0.135583
0.114265
0.109652
0.050394
0.083789
0.069051
0.095887
0.133132
0.073261
0.071150
0.151299
0.105538
0.087464
0.103932
0.091522
0.155517
0.025775
-0.011025
0.122699
0.090514
0.089848
0.104217
0.122163
0.123701
0.112003
0.101299
0.128628
0.177898
0.026761
0.116617
0.057574
0.024322
0.149614
0.021316
0.139692
-0.049251
0.080595
0.101431
0.061213
0.079888
0.074581
0.174323
0.127264
0.033113
0.111025
0.222944
0.212410
0.137438
0.155900
0.197831
0.174989
0.188103
0.177730
0.184089
0.203327
0.127019
0.258567
0.231108
0.233053
0.288816
0.234694
0.201772
0.164334
0.230995
0.257979
0.277798
0.331337
0.244477
0.183327
0.239196
0.239938
0.230325
0.105005
0.172875
0.173568
0.061475
0.096246
0.071100
0.073315
0.078968
0.071777
0.083354
0.148439
0.076790
0.072409
0.023938
0.075318
0.046053
0.056773
0.123289
0.018380
0.094630
0.110687
0.087851
0.060677
0.027887
0.014113
0.049294
0.159911
0.184890
0.337812
0.618928
0.886504
1.244108
1.358556
1.391864
1.214014
0.900106
0.608598
0.289463
0.013669
-0.156499
-0.193157
-0.155037
-0.128390
0.075522
0.081350
0.070821
0.046411
0.137886
0.063114
0.063925
0.058094
0.060581
0.115899
0.084738
0.185147
0.125455
0.061050
0.132978
0.152032
0.112067
0.101403
0.156084
0.200841
0.132387
0.281652
0.236295
0.179418
0.204528
0.283474
0.262077
0.298336
0.332035
0.343567
0.398274
0.299655
0.380233
0.449431
0.422219
0.507327
0.474592
0.542118
0.510973
0.535230
0.512636
0.558336
0.565349
0.460884
0.523323
0.527569
0.511624
0.493406
0.482980
0.527426
0.490898
0.409383
0.453633
0.484662
0.430469
0.443019
0.414716
0.314606
0.306881
0.336489
0.310353
0.329145
0.248917
0.230399
0.145595
0.235665
0.163678
0.141444
0.046650
0.115764
0.182546
0.116764
0.044011
0.048798
0.104381
0.002132
0.060349
0.094056
0.046934
0.004263
-0.005025
0.046481
-0.057860
0.072704
0.046875
-0.057751
-0.021046
0.091178
-0.020703
-0.035450
-0.017549
0.061265
0.041748
0.005808
0.074072
0.016491
-0.028830
-0.022021
-0.027830
-0.053956
0.001158
-0.024870
-0.032152
0.020918
-0.024753
-0.040163
-0.001190
0.070436
-0.021548
0.027691
0.011372
0.018651
0.025286
0.002427
0.004675
-0.080707
0.031182
-0.063098
-0.046986
0.013524
-0.005355
-0.008703
-0.019628
-0.014078
-0.053079
0.045841
-0.084920
-0.029492
-0.075698
-0.032346
0.039408
-0.018929
-0.024743
-0.023995
0.012151
-0.036164
-0.031751
-0.053227
-0.034746
0.074347
-0.028348
0.045504
0.019138
-0.035935
-0.010350
-0.035935
-0.057716
0.132682
0.035766
0.108213
0.126095
0.089958
0.053533
0.074217
0.067182
0.041110
0.171080
0.085366
0.152419
0.089097
0.137420
0.160030
0.153842
0.104290
0.158985
0.214989
0.159739
0.158624
0.161216
0.045139
0.060883
0.080232
0.122760
0.070171
0.102049
0.012202
0.059867
0.068781
0.067883
0.056087
0.034253
0.072224
0.003097
-0.043052
0.003740
-0.042510
0.030475
-0.001038
-0.043102
-0.017378
-0.030198
-0.085687
-0.003244
-0.030815
-0.070589
-0.043753
0.073687
-0.141560
-0.041059
-0.085421
-0.014434
-0.011092
0.164301
0.386180
0.783029
1.085129
1.162834
1.223452
1.215658
0.827350
0.566785
0.096659
-0.019548
-0.190171
-0.270283
-0.243855
-0.241280
-0.148366
-0.084636
-0.013421
0.005994
-0.047967
0.016365
-0.004252
-0.004213
-0.066512
-0.050184
0.065442
0.017672
0.040143
0.070873
0.012737
0.073111
0.038696
-0.063910
-0.021499
0.108826
0.012056
0.073744
0.164389
0.100396
0.118216
0.256867
0.170604
0.177985
0.220252
0.212191
0.292340
0.288170
0.388784
0.341821
0.422629
0.410258
0.367272
0.392644
0.388756
0.403677
0.455606
0.379168
0.398487
0.457749
0.501365
0.409479
0.497973
0.400988
0.373085
0.486353
0.390120
0.360684
0.456722
0.348912
0.268226
0.413189
0.332309
0.309486
0.256596
0.221642
0.242316
0.244240
0.235443
0.228778
0.139582
0.174124
0.096881
0.143098
0.073459
0.123984
0.128640
0.050633
0.033914
0.050621
0.037399
-0.023540
-0.034048
0.018020
0.068094
-0.050253
0.071736
-0.033957
-0.047718
-0.002732
0.016479
-0.033268
-0.010758
-0.058459
-0.060848
-0.005751
-0.048441
-0.060451
-0.005031
-0.074741
-0.085578
-0.030462
0.000675
-0.021643
0.014929
0.047929
-0.099784
0.009024
-0.004296
-0.032473
-0.081604
0.052752
-0.018055
-0.053364
-0.019692
-0.081242
-0.011806
0.045050
-0.090905
-0.103699
-0.082009
0.008856
-0.059796
-0.032239
-0.004549
-0.027477
0.055452
-0.012730
-0.000526
-0.094663
-0.088535
-0.001255
-0.031264
0.010685
-0.018622
-0.065239
-0.058559
-0.030683
-0.084125
-0.040497
-0.095444
-0.037427
0.055739
-0.045242
-0.044974
-0.023691
-0.002527
-0.015692
-0.008756
-0.007456
0.045819
-0.035270
-0.029770
0.023008
-0.017807
0.043946
0.051727
0.072479
0.029000
0.106327
0.115124
0.080894
0.086527
0.072138
0.142248
0.213091
0.157707
0.109020
0.121647
0.093357
0.142660
0.169067
0.152991
0.181641
0.060643
0.177885
0.128436
0.052168
0.074066
0.085914
0.118591
-0.037373
0.087429
0.095541
0.132665
0.040737
-0.014876
-0.046074
-0.021664
0.056117
0.001174
-0.029478
0.074242
-0.037939
-0.063166
-0.020278
0.005120
0.022898
-0.015624
-0.002524
0.021027
-0.052198
-0.038538
-0.055602
0.017090
0.020652
0.011224
0.012061
0.179662
0.431522
0.546101
0.944774
1.240149
1.375139
1.291558
1.125358
0.775935
0.420269
0.133006
-0.088997
-0.224762
-0.196250
-0.163089
-0.111094
-0.040312
0.047248
0.068929
0.056492
0.019701
0.095523
0.094411
-0.050217
0.055902
0.038883
0.139856
0.132227
0.070384
0.068084
0.067539
0.085207
0.149866
0.096591
0.137951
0.184954
0.156188
0.200518
0.240371
0.188418
0.317263
0.264081
0.320457
0.278852
0.339133
0.285087
0.359439
0.400570
0.427863
0.448342
0.448405
0.436413
0.427082
0.418798
0.473406
0.451850
0.502859
0.597828
0.490469
0.494436
0.526415
0.550698
0.533853
0.504909
0.560325
0.566671
0.586929
0.478657
0.478043
0.418722
0.468018
0.400918
0.433817
0.431928
0.281199
0.241694
0.307464
0.265725
0.317970
0.273285
0.156614
0.235350
0.245222
0.208112
0.208754
0.227514
0.287825
0.143173
0.173299
0.117332
0.093680
0.086156
0.136580
0.163356
0.133803
0.058945
0.056879
0.145210
0.137984
0.078459
0.122234
0.094723
0.102973
0.095370
0.049801
0.129353
0.125517
0.019590
0.070533
0.114263
0.126907
0.087826
0.119064
0.027224
0.139920
0.043331
0.092292
0.021476
-0.023275
0.129181
-0.005378
0.083789
0.079669
0.060751
0.082846
-0.005723
0.118446
0.044848
0.043424
0.071061
0.028990
0.115512
0.102580
0.121081
0.029686
0.044763
0.045882
0.111498
0.135967
0.068558
0.133295
0.056469
0.082260
0.076422
0.127386
0.088409
0.033597
0.080534
0.108732
0.052810
0.086166
0.103501
0.077160
0.093936
0.009323
0.110851
0.104240
0.145774
0.141863
0.168656
0.045834
0.048251
0.094115
0.051258
0.148542
0.142722
0.156605
0.182685
0.233387
0.139648
0.173389
0.176716
0.226178
0.191852
0.219846
0.211744
0.213064
0.232115
0.315343
0.235473
0.250045
0.324732
0.226582
0.233481
0.328317
0.269589
0.234432
0.208495
0.250492
0.139837
0.214629
0.182616
0.122119
0.238395
0.171908
0.183152
0.150000
0.152691
0.121975
0.168014
0.045056
0.119731
0.094616
0.069098
0.078449
0.116889
0.055984
0.052615
0.156465
0.110719
0.075061
0.066120
0.005577
0.078578
0.168048
0.097524
0.114683
0.156668
0.343355
0.560782
0.890182
1.317260
1.413858
1.427176
1.253301
1.000835
0.677717
0.310976
-0.058202
-0.167657
-0.123593
-0.084010
-0.096789
0.004727
-0.106557
0.086456
0.076044
0.107805
0.112377
0.102574
0.187730
0.195723
0.141587
0.157106
0.097966
0.111410
0.069479
0.079696
0.181082
0.207929
0.117459
0.178884
0.195319
0.245871
0.214420
0.197315
0.295440
0.265469
0.306869
0.379956
0.359446
0.340722
0.388453
0.426610
0.420732
0.458862
0.549491
0.505580
0.467050
0.530962
0.551196
0.553673
0.515477
0.535253
0.586405
0.477266
0.517285
0.573893
0.596273
0.611656
0.518947
0.559386
0.560014
0.504269
0.560958
0.492989
0.563283
0.450523
0.510478
0.377391
0.369375
0.324938
0.387418
0.374328
0.329603
0.274663
0.320388
0.206959
0.272478
0.213108
0.244879
0.194348
0.083074
0.184276
0.219184
0.154612
0.147108
0.198119
0.219375
0.153026
0.030700
0.095940
0.040543
0.134103
0.019027
0.091840
0.095344
0.156442
0.019328
0.032915
0.077033
0.005594
0.086149
0.046724
0.046407
0.017306
0.042780
0.063186
0.089839
0.083282
0.049219
0.029683
0.075962
0.007870
0.017477
0.016949
-0.012258
0.074454
0.183215
0.027407
0.105717
0.042167
0.019075
0.110026
0.038213
0.011356
0.026562
0.052735
0.007183
0.013414
0.003510
0.033685
0.026666
0.059610
-0.006489
0.113493
0.032126
0.075775
0.099960
0.046722
-0.009040
0.010860
-0.009649
-0.044483
0.023996
0.069904
-0.011420
0.086052
0.006655
-0.024198
-0.037730
0.104005
0.007132
-0.009267
0.027749
0.055066
0.105068
0.043445
0.018738
0.085989
0.013092
0.128599
0.069231
0.172848
0.076265
0.166721
0.196445
0.092707
0.179615
0.154819
0.110632
0.152282
0.211140
0.174272
0.222434
0.221036
0.211125
0.165696
0.192574
0.212223
0.129855
0.114460
0.097913
0.084594
0.164521
0.110929
0.160659
0.041376
0.139304
0.084832
0.086718
0.095942
0.064451
0.043230
-0.006266
0.017776
-0.016599
-0.001583
0.015097
-0.016054
-0.018302
0.011729
0.020345
-0.007022
-0.020289
-0.027964
-0.052023
0.026308
-0.063782
-0.015848
-0.024911
-0.030871
-0.064993
-0.082003
0.004184
0.210703
0.377966
0.595470
1.069369
1.200895
1.327381
1.267427
1.036471
0.673221
0.323314
-0.028609
-0.178704
-0.252439
-0.311102
-0.222004
-0.096648
-0.116620
-0.037173
0.000606
0.085648
0.081968
-0.038884
0.038831
-0.023752
0.034536
-0.010222
-0.077506
0.042044
-0.005025
0.042438
0.068508
0.026030
0.056955
0.099757
0.114527
0.094184
0.082149
0.130786
0.119991
0.112315
0.160028
0.216938
0.171112
0.290685
0.276465
0.194866
0.251140
0.281353
0.394217
0.366804
0.376884
0.385179
0.375490
0.445194
0.413091
0.410990
0.366148
0.456717
0.446442
0.479797
0.415952
0.360359
0.497846
0.447112
0.384250
0.409792
0.405974
0.342199
0.390853
0.338478
0.262519
0.365826
0.253919
0.281510
0.221697
0.253844
0.232472
0.222591
0.146739
0.164686
0.121932
0.048176
0.086786
0.083311
0.054889
0.070234
0.011458
0.121072
-0.025271
0.020818
-0.018139
-0.022869
0.005535
-0.063491
-0.088559
0.018941
-0.028732
-0.033517
-0.105800
-0.033242
-0.052532
-0.066557
-0.032876
-0.017802
-0.045534
-0.056656
-0.101784
-0.089461
-0.087144
-0.076867
-0.022809
-0.062929
0.019068
-0.064372
-0.102608
-0.012617
-0.099534
0.006384
-0.027971
-0.190079
-0.070555
-0.083576
-0.083065
-0.021212
-0.022834
-0.077340
-0.038917
-0.086490
-0.117978
-0.076407
-0.099484
-0.037497
-0.171720
-0.042834
-0.049190
-0.005754
-0.060927
-0.030733
-0.104686
-0.063747
-0.118880
-0.149407
-0.110887
-0.104169
-0.019204
-0.022743
-0.067221
-0.082153
-0.031208
-0.020532
-0.020815
-0.103006
-0.089700
-0.057748
-0.054704
-0.193259
-0.036506
-0.058436
-0.114449
-0.023230
0.037316
-0.047522
-0.070604
-0.038377
-0.025962
-0.030977
-0.073162
0.040131
0.014957
0.021887
-0.013765
0.081648
0.069581
0.048482
0.063655
0.110454
0.070621
0.044466
0.127921
0.144539
0.012477
0.141138
0.085599
0.072862
0.113593
0.127643
0.021052
0.086278
0.107094
-0.011072
0.052374
0.024699
0.046545
-0.079581
-0.008054
-0.026017
-0.019040
-0.117506
0.001674
-0.089025
-0.066520
-0.062414
0.048782
-0.025580
-0.101214
-0.005055
-0.109658
-0.050809
0.008311
-0.119014
-0.080821
-0.082705
-0.149248
-0.143474
-0.059182
-0.076555
-0.073662
0.050032
0.197442
0.540431
0.872364
1.051078
1.272402
1.222924
1.054268
0.800834
0.327032
0.037728
-0.114581
-0.246728
-0.387814
-0.324022
-0.200437
-0.162903
-0.042349
0.036160
-0.006864
-0.086643
-0.043477
-0.097941
-0.108883
-0.027634
-0.051069
-0.063776
-0.066809
-0.018644
-0.049215
0.069330
-0.044802
-0.031517
-0.023127
0.020654
-0.007923
0.082670
0.079631
0.146536
0.181397
0.189783
0.072398
0.286732
0.203192
0.277314
0.285788
0.238503
0.338108
0.272863
0.270136
0.344319
0.374217
0.346957
0.360270
0.394257
0.380583
0.390674
0.453502
0.430859
0.448902
0.382120
0.437327
0.455164
0.426180
0.451003
0.364156
0.458568
0.383177
0.462870
0.285245
0.343108
0.276446
0.280423
0.273467
0.245296
0.257774
0.236550
0.237731
0.182787
0.101953
0.186746
0.123805
0.038265
0.130291
0.080899
0.132366
0.023723
0.047944
-0.039323
0.060720
0.027828
0.044483
0.030131
0.141262
-0.021044
0.026480
-0.000008
-0.058537
-0.047356
-0.024602
-0.044485
-0.048068
-0.043286
-0.033638
0.056934
-0.072309
0.019065
-0.016712
-0.018426
0.004799
-0.052830
-0.082686
0.016832
-0.007801
-0.102236
-0.074266
-0.000619
0.004342
-0.042923
-0.004250
0.023651
-0.017869
0.016989
-0.044367
0.009159
0.041521
0.040117
-0.003504
0.032391
0.006961
0.031682
0.037601
-0.009209
0.008114
-0.018373
-0.036628
-0.035512
0.075367
0.080791
-0.010886
-0.109287
0.044177
-0.061951
0.057261
0.010583
-0.039315
0.020507
0.000824
-0.020010
0.054073
0.028116
0.062159
0.012942
-0.099082
0.036987
0.043584
-0.001660
0.016496
0.044522
-0.079201
-0.028102
0.050938
0.055767
0.014476
-0.004517
0.074010
0.055949
0.002130
0.059587
0.082432
0.183339
0.122802
0.162654
0.105896
0.127061
0.179014
0.225924
0.143717
0.216909
0.207366
0.145361
0.176295
0.157839
0.184145
0.164675
0.177898
0.181951
0.249005
0.076521
0.117564
0.151475
0.116354
0.084549
0.109021
0.030966
0.005951
0.129978
0.045897
0.082382
0.055868
0.012010
0.013948
0.067402
0.006213
-0.001292
0.025691
-0.020078
-0.008184
-0.000127
0.073019
0.019837
-0.013374
-0.038227
0.023733
-0.005495
-0.029823
0.000045
0.074147
0.238194
0.443644
0.736037
1.156268
1.371080
1.378966
1.253282
0.972983
0.629119
0.378014
0.049651
-0.188487
-0.174757
-0.230008
-0.089207
-0.084755
0.005608
0.086499
-0.024195
0.063457
0.071874
0.122332
0.034355
0.064496
0.052054
0.105622
0.043542
0.062146
0.034995
0.106821
0.115497
0.110354
0.202512
0.189151
0.125919
0.226993
0.143559
0.238128
0.200613
0.246780
0.304149
0.262416
0.339435
0.352731
0.388077
0.321071
0.341684
0.391206
0.489370
0.401048
0.453117
0.478996
0.473579
0.524819
0.447065
0.489548
0.470929
0.536412
0.527144
0.588532
0.505487
0.422567
0.463260
0.504565
0.484706
0.464287
0.518572
0.432396
0.469966
0.466633
0.456476
0.391513
0.384861
0.385447
0.359456
0.328780
0.276738
0.230693
0.270159
0.231334
0.163006
0.215923
0.157685
0.182297
0.132073
0.167755
0.178678
0.119752
0.173276
0.114592
0.143126
0.066169
0.152263
0.131374
0.001340
0.099781
0.058180
0.041908
0.061759
0.105792
0.054434
0.088655
-0.038643
-0.020235
0.037433
-0.031651
0.028052
0.121707
0.031605
-0.042341
0.061356
0.035388
0.018532
0.019142
0.106894
0.015923
0.014053
0.107955
0.070141
0.011627
0.023518
0.043846
-0.005574
0.027142
0.054239
0.022868
-0.009870
0.067644
0.080581
0.029085
0.087690
0.065556
0.009860
0.086620
-0.013321
0.116565
0.042636
0.040414
0.006118
0.054263
0.034636
0.039195
0.042903
0.023025
0.065410
0.097686
0.069909
0.006699
0.068723
0.056649
0.018180
-0.007117
0.015773
-0.010738
0.007906
0.059822
0.001727
-0.015336
0.013651
0.055795
0.010072
0.126738
0.040968
0.074997
0.175154
0.103470
0.054231
0.125639
0.087272
0.167525
0.194155
0.080686
0.240798
0.210025
0.229554
0.177355
0.158473
0.208983
0.208948
0.166056
0.224079
0.153335
0.171953
0.162355
0.169441
0.173430
0.098345
0.131623
0.199054
0.166438
0.128725
0.093481
0.036886
0.011002
0.147483
0.080003
0.095397
0.112900
0.097951
-0.031995
0.013602
0.032363
0.003551
0.027051
0.073760
0.018724
0.025473
0.009500
-0.054363
0.040840
0.125892
-0.071362
0.062185
-0.009660
-0.001883
0.018709
0.033677
0.165481
0.401207
0.691713
1.008146
1.274641
1.374044
1.307066
1.028625
0.768378
0.410117
-0.011277
-0.145576
-0.154769
-0.190960
-0.216166
-0.021335
-0.061231
-0.028716
-0.002933
0.032890
0.052383
0.052784
0.060527
0.037754
0.006909
0.032995
0.009835
0.076204
0.076932
0.078523
0.100807
0.061730
0.142348
0.170329
0.123628
0.124345
0.046634
0.119341
0.214197
0.146106
0.195157
0.228172
0.263397
0.264087
0.260021
0.277729
0.316017
0.330343
0.303568
0.308880
0.419563
0.345733
0.424608
0.461286
0.483671
0.491079
0.402480
0.487222
0.440362
0.487102
0.486956
0.429705
0.403294
0.457440
0.389532
0.400885
0.445222
0.382039
0.431432
0.401121
0.339329
0.423900
0.363681
0.312055
0.245176
0.315096
0.157709
0.168382
0.313156
0.192959
0.132674
0.088769
0.119258
0.107810
0.126816
0.098735
0.012894
0.076332
0.047302
-0.018161
0.059956
0.057412
0.003104
0.012445
-0.052298
0.000297
-0.015631
0.014827
-0.075240
-0.043505
-0.058468
-0.118362
-0.069627
-0.055379
-0.030428
0.016150
-0.020555
-0.024449
-0.023806
-0.069924
-0.084680
-0.044504
-0.052154
-0.032542
-0.069518
-0.067348
0.009855
-0.104074
-0.050520
-0.133160
-0.052944
-0.068824
-0.085838
-0.097309
-0.118722
-0.098896
-0.024618
-0.134474
-0.094800
-0.124995
-0.149969
0.008630
-0.055009
-0.083711
-0.037034
-0.015328
-0.087290
-0.063303
-0.070426
-0.000542
-0.038288
-0.100598
-0.099182
-0.116839
-0.090321
-0.135287
-0.118744
-0.089295
-0.059128
-0.099198
-0.019489
-0.041425
-0.039606
-0.036942
-0.001813
-0.045387
-0.071578
-0.043312
-0.102920
0.031309
0.043955
-0.147791
-0.030808
-0.087086
-0.035577
-0.043838
-0.004529
-0.014587
0.063848
0.003138
0.030334
0.113594
0.007300
0.026455
0.045122
0.059772
0.122504
0.089925
0.076074
0.049309
0.125214
0.077677
0.140869
0.112778
0.078693
0.077512
0.081014
0.066448
0.071513
-0.002333
0.028053
0.024700
0.036659
0.006605
-0.016899
-0.006841
-0.037420
-0.021324
-0.027581
-0.106108
-0.060619
-0.113048
-0.149397
-0.095787
-0.093372
-0.035486
-0.055559
-0.151236
-0.024901
-0.086916
-0.136637
-0.063566
-0.098889
-0.068587
-0.103867
-0.154789
-0.135991
-0.012257
0.180713
0.453965
0.723686
1.068272
1.206963
1.208435
1.043530
0.688298
0.425118
0.132108
-0.135121
-0.305068
-0.385122
-0.332384
-0.263227
-0.117940
-0.193840
-0.131662
-0.024309
-0.094464
-0.074360
-0.066208
-0.050578
-0.029556
0.005675
-0.053940
-0.070974
-0.021758
-0.048808
-0.007829
-0.007298
-0.005658
-0.004401
0.045954
0.031060
0.098546
-0.017550
0.027121
0.123276
0.084326
0.112884
0.122731
0.200907
0.299235
0.171558
0.228729
0.230947
0.229940
0.209939
0.345299
0.333886
0.311123
0.349995
0.371322
0.376101
0.393190
0.339725
0.340988
0.405505
0.433933
0.402064
0.380235
0.399339
0.438888
0.366846
0.347565
0.317034
0.293927
0.313520
0.315952
0.217673
0.228648
0.203672
0.193590
0.169727
0.163393
0.146223
0.171529
0.104490
0.095831
0.055475
0.120422
0.037707
0.064992
0.038198
0.059254
0.007994
0.049390
0.027837
-0.003937
-0.077047
-0.058800
-0.040817
-0.095005
-0.002136
-0.088824
-0.026449
-0.066638
-0.053508
-0.039912
-0.071744
-0.048458
-0.069547
-0.059894
0.014638
-0.078031
-0.065774
-0.023958
-0.073652
-0.060283
-0.128240
-0.033581
-0.061232
0.022458
0.006446
-0.062298
-0.181798
-0.032288
-0.058301
-0.093039
-0.073362
-0.093504
-0.128679
-0.055718
-0.076620
-0.071187
-0.064533
-0.108044
-0.035496
-0.032218
-0.090170
-0.065056
-0.097321
-0.098506
-0.022583
-0.040771
-0.086557
-0.087329
-0.010914
-0.089576
-0.053146
-0.112836
-0.121194
-0.057591
-0.081577
-0.067679
-0.065558
-0.059391
-0.106081
-0.067681
-0.035540
-0.058157
0.027173
-0.144221
-0.055684
-0.109293
0.006277
-0.064615
-0.005057
0.002600
-0.067203
-0.063955
0.052577
0.058945
-0.041464
0.024408
-0.047852
0.056839
0.004311
0.043789
0.113774
0.111674
0.094045
0.081922
0.144305
0.107583
0.215713
0.096181
0.130016
0.091666
0.140977
0.050593
0.147045
0.108781
0.137087
0.097758
0.056706
0.025076
0.078779
0.053310
0.031787
0.143450
0.027431
-0.016453
0.030613
0.087205
-0.002751
-0.047078
-0.014160
0.008721
0.034454
-0.031858
0.036060
-0.037256
-0.011543
-0.050358
-0.014015
-0.031750
0.020232
-0.023561
-0.026049
0.015142
-0.030486
-0.070951
-0.055278
-0.072202
-0.077151
0.086817
0.363885
0.722739
0.950729
1.270372
1.389340
1.274294
0.972284
0.653918
0.323685
0.056842
-0.174705
-0.324594
-0.211389
-0.178882
-0.123914
-0.081494
0.048725
-0.026361
-0.002710
0.020817
-0.077803
0.022160
0.021421
-0.000555
-0.027644
-0.009225
-0.027327
0.045045
0.078132
-0.020492
0.152448
0.167873
0.068935
0.072934
0.184938
0.096899
0.144151
0.257028
0.208154
0.169499
0.229526
0.236702
0.272009
0.219372
0.315365
0.280307
0.427233
0.337655
0.362612
0.431207
0.419841
0.506410
0.480910
0.419204
0.453491
0.487256
0.577892
0.553793
0.596589
0.477467
0.468218
0.536363
0.493160
0.470315
0.576531
0.445321
0.518070
0.428104
0.463295
0.415794
0.448222
0.329750
0.384357
0.338531
0.264689
0.299638
0.310088
0.230821
0.192967
0.253839
0.148637
0.166201
0.188888
0.155234
0.168852
0.160580
0.151201
0.083020
0.086542
0.038185
0.101719
0.086271
0.121602
0.084393
0.070552
0.069200
0.024693
-0.027778
0.170323
0.034614
-0.017832
-0.012324
-0.026929
0.037531
0.016542
0.033146
0.016964
0.052339
0.083436
0.014476
0.055219
0.048542
0.028295
0.074374
0.036704
0.030310
-0.035473
0.033826
0.052139
-0.029601
0.051298
-0.021209
0.041071
0.108412
0.039136
0.096883
-0.027256
-0.010270
0.058831
0.037287
-0.013799
0.001815
-0.011412
0.059284
0.019517
0.015276
0.072436
0.000060
0.033327
0.067471
0.077704
0.090260
0.052907
0.063065
0.051875
0.028570
0.051137
0.100080
0.069782
0.031536
0.039209
0.010276
0.128295
0.011698
0.026827
0.133964
-0.002721
0.074717
0.135390
0.077518
0.077769
0.078816
0.049244
0.141696
0.120246
0.136778
0.083496
0.134887
0.183553
0.185796
0.220129
0.208965
0.219771
0.177951
0.207441
0.219676
0.212093
0.199723
0.229953
0.337947
0.227743
0.211430
0.280785
0.236293
0.242401
0.216503
0.174494
0.118689
0.147838
0.131424
0.137930
0.145921
0.110829
0.121531
0.121856
0.080193
0.100045
0.139955
0.066395
0.089489
0.148299
0.008709
0.100615
0.088403
0.088253
0.067820
0.114766
0.004701
0.029588
0.080120
0.130807
0.053852
0.004294
0.034116
-0.011700
0.044337
0.214251
0.338940
0.673055
0.890047
1.221886
1.500000
1.420353
1.159795
0.930148
0.567145
0.160738
-0.012831
-0.141201
-0.211089
-0.191787
-0.058356
-0.001188
0.021033
0.013672
0.108357
0.053218
0.104552
0.060338
0.063209
0.123109
0.044999
0.047862
