0.005797
0.032848
0.059928
0.001812
-0.025287
-0.027129
-0.016895
0.065176
0.027098
-0.020987
-0.003606
0.054998
-0.008259
-0.035337
0.001831
0.018505
0.013062
0.050929
0.047255
0.059618
0.039485
0.069762
0.096571
0.025438
0.055667
0.009110
0.069140
0.126645
0.095798
0.151722
0.115125
0.163256
0.181303
0.135146
0.157862
0.248122
0.165986
0.142455
0.209334
0.162270
0.203135
0.187393
0.190871
0.249857
0.174055
0.206291
0.136531
0.207011
0.162186
0.082768
0.170824
0.106430
0.011057
0.108208
0.131070
0.082806
0.115544
0.025888
0.033242
0.018686
0.147818
0.052798
0.080264
-0.005285
0.038316
0.084207
0.154969
0.132187
0.071575
0.072340
0.078347
0.032826
0.148699
0.162383
0.421179
0.692740
0.934486
1.178929
1.293630
1.211337
0.945426
0.669558
0.320575
0.083308
-0.084875
-0.201306
-0.113471
-0.039272
0.025597
0.082298
0.109593
0.079982
0.113808
0.049475
0.138832
0.162829
0.148161
0.183011
0.159239
0.143457
0.164518
0.122731
0.195178
0.160901
0.227220
0.277896
0.232416
0.291763
0.251202
0.284061
0.360567
0.325097
0.377358
0.374724
0.444752
0.367979
0.396636
0.464192
0.424349
0.462385
0.522192
0.471770
0.481066
0.497419
0.568421
0.553948
0.555191
0.487369
0.525695
0.576673
0.550377
0.495006
0.539581
0.488688
0.579263
0.402241
0.482405
0.417366
0.427880
0.390594
0.469414
0.346881
0.347457
0.349828
0.338025
0.307783
0.309104
0.361677
0.218454
0.238056
0.184520
0.327088
0.204245
0.207483
0.247009
0.117720
0.170702
0.198835
0.153517
0.205049
0.201078
0.198824
0.106420
0.136066
0.078852
0.165830
0.093646
0.143712
0.102123
0.151350
0.109155
0.105771
0.070756
0.159176
0.136920
0.143044
0.104628
0.194631
0.100510
0.121198
0.138494
0.106926
0.095599
0.107738
0.063908
0.130576
0.179076
0.105599
0.092756
0.105902
0.086042
0.084118
0.101827
0.031036
0.100949
0.102042
0.106583
0.128988
0.121934
0.154353
0.142172
0.137792
0.134511
0.131970
0.122008
0.119632
0.166313
0.186982
0.114081
0.133283
0.121055
0.131197
0.131733
0.174723
0.193112
0.208609
0.207345
0.165641
0.170458
0.188415
0.160542
0.188995
0.189665
0.204705
0.249717
0.233684
0.241289
0.280116
0.252841
0.279335
0.277629
0.241748
0.268616
0.231387
0.238797
0.270310
0.291658
0.316558
0.274113
0.202003
0.219860
0.200737
0.180869
0.241717
0.112564
0.214366
0.191721
0.188958
0.195194
0.151980
0.200855
0.099919
0.094413
0.176098
0.117746
0.114084
0.147634
0.107898
0.114991
0.119183
0.073599
0.105914
0.193609
0.152685
0.135025
0.131063
0.124952
0.198387
0.342289
0.532846
0.784317
1.143031
1.341085
1.389680
1.220264
1.014877
0.670851
0.338408
0.062215
-0.091598
-0.046963
-0.097477
0.056874
-0.004302
0.114886
0.145950
0.109529
0.191755
0.151179
0.214842
0.105200
0.192467
0.229547
0.199402
0.165135
0.199279
0.221505
0.268974
0.279055
0.266654
0.305307
0.341043
0.277958
0.256111
0.275822
0.370853
0.411460
0.380274
0.502660
0.434020
0.475284
0.467092
0.464947
0.519118
0.448116
0.459240
0.545608
0.539297
0.550727
0.547558
0.503091
0.559885
0.582344
0.544575
0.596127
0.555139
0.480391
0.512397
0.498636
0.516801
0.512617
0.458838
0.466430
0.392766
0.424213
0.436949
0.350852
0.335783
0.338626
0.370680
0.276796
0.325702
0.254876
0.237042
0.200374
0.289407
0.240974
0.218485
0.133927
0.114018
0.116926
0.152854
0.152077
0.162685
0.077886
0.107217
0.152130
0.154756
0.144016
0.047837
0.095940
0.095994
0.086934
0.132642
0.081582
0.104709
0.087185
0.113955
0.038790
0.164980
0.064059
0.127798
0.064708
0.094726
0.066812
0.119805
0.061139
0.099253
0.067535
0.161018
0.099734
0.157729
0.111063
0.055605
0.087254
0.113541
0.035029
0.075465
0.099045
0.147232
0.069095
0.094489
0.051768
0.049718
0.067073
0.125137
0.036732
0.098490
0.084289
0.051843
0.124853
0.115036
0.084146
0.182538
0.086763
0.049019
0.065995
0.066121
0.071948
0.112244
0.104405
0.111204
0.136672
0.144060
0.158320
0.139790
0.161046
0.190164
0.217132
0.219052
0.131466
0.204079
0.220715
0.169756
0.302479
0.230716
0.175327
0.247676
0.246336
0.248529
0.175709
0.197754
0.234247
0.243473
0.218035
0.133179
0.162455
0.175424
0.087002
0.154671
0.129420
0.150264
0.135280
0.131977
0.122572
0.044967
0.056707
0.120593
0.095039
0.115075
0.099952
0.034529
0.097548
0.083208
0.070107
0.025209
0.124321
0.052670
0.028708
0.083971
0.036949
0.090492
0.126985
0.251778
0.527059
0.779184
1.075804
1.285287
1.240260
1.070170
0.843422
0.497733
0.223928
-0.044238
-0.103087
-0.152787
-0.093976
-0.001034
0.021609
0.007573
0.115213
0.077760
0.145796
0.134271
0.074192
0.162115
0.076653
0.143634
0.129102
0.127690
0.255478
0.175850
0.104217
0.204813
0.168645
0.237916
0.206257
0.202374
0.339931
0.250831
0.331810
0.402983
0.338226
0.410068
0.366545
0.371444
0.452609
0.466658
0.509309
0.446424
0.453003
0.513563
0.569348
0.528577
0.453751
0.519264
0.546088
0.505751
0.531161
0.557717
0.477483
0.458897
0.528311
0.465311
0.403187
0.400121
0.431133
0.412674
0.460254
0.382189
0.308012
0.342865
0.319055
0.354912
0.253686
0.176822
0.245633
0.287190
0.179984
0.174069
0.182840
0.242731
0.157379
0.093315
0.142310
0.091163
0.187726
0.086135
0.141065
0.158009
0.153150
0.118253
0.066961
0.154793
0.067461
0.075555
0.106308
0.035917
0.068559
0.078965
0.122021
0.014976
0.166621
0.067661
0.070893
0.075357
0.078391
0.099193
0.052068
0.120169
0.063165
0.006090
0.046880
0.041911
0.017691
0.098093
0.025707
0.069883
0.011718
-0.019472
0.067694
0.095332
0.076826
0.080723
0.061822
0.056277
0.045424
0.067779
0.061280
0.086112
0.111778
0.088457
-0.002906
0.026213
0.072361
0.067644
0.067026
0.062660
0.105011
0.090300
0.056364
0.115799
0.107944
0.079516
0.077566
0.112289
0.149827
0.111017
0.167504
0.160317
0.210888
0.158777
0.101741
0.191178
0.167799
0.211633
0.230513
0.233639
0.178096
0.229087
0.230033
0.197699
0.215317
0.276790
0.232630
0.279567
0.153168
0.205079
0.238166
0.219491
0.225973
0.207111
0.200520
0.241168
0.161619
0.130108
0.233272
0.196189
0.142013
0.152469
0.148102
0.160249
0.155296
0.161373
0.142322
0.144287
0.010892
0.113225
0.089258
0.053456
0.083722
0.084292
0.110588
0.101579
0.053460
0.118999
0.146399
0.205533
0.334204
0.653756
0.869244
1.181733
1.307349
1.324389
1.110615
0.767020
0.537044
0.220492
-0.057855
-0.100690
-0.107006
-0.026245
-0.014663
0.053215
0.115840
0.117264
0.160704
0.057678
0.139059
0.092140
0.155616
0.234976
0.232034
0.196466
0.212836
0.183722
0.288482
0.272100
0.253712
0.274778
0.267291
0.402043
0.328221
0.385316
0.304938
0.416765
0.414920
0.471273
0.423886
0.401996
0.481826
0.454869
0.501025
0.567868
0.583123
0.619686
0.474250
0.551240
0.508300
0.517003
0.611932
0.588737
0.615011
0.578972
0.632825
0.588292
0.633053
0.564016
0.531408
0.558132
0.506218
0.477186
0.470287
0.511513
0.445002
0.386035
0.442007
0.425422
0.316408
0.419616
0.370351
0.338131
0.268310
0.335293
0.290574
0.321988
0.230581
0.182857
0.252518
0.235304
0.230672
0.241484
0.142619
0.173394
0.230980
0.171061
0.124775
0.163510
0.194913
0.194754
0.234051
0.142864
0.114374
0.245641
0.162288
0.134225
0.210076
0.189322
0.190579
0.133772
0.119532
0.178463
0.176921
0.240024
0.100599
0.097266
0.099640
0.208036
0.159101
0.137182
0.165705
0.197786
0.169248
0.180574
0.150933
0.189581
0.209052
0.132950
0.148767
0.231481
0.177493
0.170499
0.189497
0.169064
0.095193
0.223762
0.150062
0.125629
0.155665
0.183178
0.155027
0.166839
0.198663
0.196252
0.203957
0.252913
0.219264
0.235278
0.179093
0.180297
0.230982
0.195106
0.266534
0.285055
0.246735
0.299294
0.275434
0.290008
0.378274
0.237943
0.329200
0.316205
0.311536
0.317640
0.377869
0.339653
0.311671
0.368861
0.387531
0.390562
0.358724
0.434185
0.343910
0.330728
0.286234
0.307368
0.324517
0.388967
0.250834
0.369164
0.238303
0.289598
0.327049
0.197843
0.236265
0.290850
0.276817
0.237868
0.305193
0.292771
0.274548
0.211182
0.212702
0.197793
0.238865
0.168145
0.225061
0.299421
0.242118
0.217644
0.212178
0.321265
0.376221
0.512972
0.853615
1.044919
1.320885
1.365262
1.383573
1.220759
0.840798
0.537879
0.197051
0.073305
0.017504
0.091376
0.078700
0.135699
0.217653
0.172557
0.193524
0.265071
0.286569
0.257708
0.315328
0.261928
0.326356
0.269310
0.309513
0.313809
0.301465
0.369550
0.362888
0.362801
0.401548
0.443252
0.460511
0.407423
0.468248
0.465355
0.479255
0.459297
0.492227
0.532034
0.525974
0.620180
0.647997
0.643174
0.658429
0.680928
0.718276
0.671256
0.679995
0.669773
0.725324
0.716654
0.704688
0.700805
0.659617
0.712635
0.628604
0.596929
0.697864
0.644421
0.695247
0.627063
0.662718
0.548585
0.558541
0.551329
0.495650
0.533432
0.504470
0.573121
0.522690
0.436637
0.445901
0.335991
0.405746
0.372139
0.382945
0.312276
0.357574
0.403982
0.256957
0.380226
0.315319
0.284613
0.317228
0.260989
0.349051
0.297196
0.303683
0.272578
0.232596
0.313315
0.319726
0.207888
0.302412
0.323834
0.272366
0.210675
0.226623
0.273126
0.250065
0.225193
0.267715
0.274082
0.255556
0.239875
0.247292
0.187426
0.235615
0.229314
0.251806
0.277147
0.233066
0.308443
0.278014
0.279816
0.284509
0.206775
0.247565
0.300371
0.196134
0.234893
0.301827
0.275136
0.357138
0.244675
0.257535
0.262924
0.253490
0.239477
0.211473
0.233103
0.232178
0.266869
0.322084
0.292494
0.264469
0.218811
0.286431
0.306551
0.268572
0.277694
0.312552
0.306209
0.239116
0.355458
0.349891
0.286860
0.404750
0.324287
0.439017
0.355609
0.411834
0.374890
0.373555
0.330882
0.502550
0.404126
0.400148
0.387191
0.394692
0.401107
0.466141
0.417408
0.339608
0.256192
0.365320
0.393885
0.345953
0.388839
0.344825
0.323328
0.303233
0.301531
0.287872
0.224056
0.189889
0.258836
0.181185
0.305598
0.306029
0.243149
0.222169
0.198292
0.260064
0.256617
0.233263
0.278337
0.168328
0.284258
0.302230
0.198648
0.303978
0.354968
0.575851
0.911371
1.172563
1.348056
1.457384
1.453616
1.087872
0.809651
0.490804
0.263020
0.107304
0.010215
0.047161
0.112086
0.197448
0.230583
0.215320
0.304442
0.247051
0.337616
0.295699
0.237964
0.278999
0.289816
0.290093
0.327762
0.365849
0.354396
0.426085
0.322482
0.367840
0.391648
0.359156
0.439442
0.495669
0.483977
0.498778
0.454965
0.540333
0.479292
0.560315
0.556177
0.532034
0.577853
0.633433
0.548211
0.630140
0.644872
0.647196
0.718622
0.725925
0.675481
0.731494
0.605463
0.701305
0.676931
0.609597
0.683631
0.568336
0.627393
0.609121
0.589072
0.567432
0.594739
0.576052
0.563699
0.578650
0.529124
0.471923
0.486732
0.432239
0.418921
0.393345
0.311525
0.342127
0.372735
0.337819
0.379866
0.295896
0.297877
0.256418
0.381121
0.302069
0.247497
0.192718
0.218785
0.230576
0.248366
0.235421
0.314248
0.230975
0.297099
0.202718
0.264965
0.247263
0.165961
0.256003
0.266097
0.244302
0.232759
0.188966
0.202530
0.251458
0.125817
0.227018
0.135803
0.200444
0.178098
0.145212
0.248229
0.229478
0.197575
0.195933
0.093888
0.217260
0.161577
0.133305
0.107932
0.134787
0.234008
0.139753
0.162602
0.179830
0.239075
0.228176
0.175567
0.159798
0.156141
0.192945
0.193473
0.184052
0.257840
0.163956
0.187928
0.135704
0.143709
0.140926
0.214414
0.176828
0.213048
0.209124
0.198686
0.250498
0.151585
0.227945
0.180396
0.237801
0.228788
0.173073
0.271134
0.339784
0.282196
0.319095
0.253212
0.237836
0.391918
0.324901
0.325246
0.379365
0.300234
0.334494
0.390681
0.305069
0.307911
0.366361
0.302356
0.303549
0.256598
0.274049
0.159809
0.281014
0.265390
0.241705
0.213444
0.277211
0.180299
0.265784
0.183255
0.219712
0.186973
0.178926
0.161825
0.258264
0.171726
0.133971
0.237727
0.167569
0.111452
0.175048
0.141375
0.149237
0.178175
0.208511
0.245008
0.346800
0.617311
0.781254
1.102638
1.332054
1.410888
1.234839
1.026502
0.691332
0.351291
0.153830
-0.016576
0.024824
-0.043908
0.053339
0.090760
0.158230
0.150366
0.163197
0.203869
0.198135
0.200834
0.264653
0.134289
0.217791
0.221964
0.242181
0.273311
0.279506
0.251910
0.320697
0.283067
0.302611
0.330655
0.312312
0.335536
0.417973
0.423197
0.465201
0.432448
0.412963
0.551822
0.427215
0.542148
0.553285
0.543994
0.546252
0.585819
0.579049
0.593898
0.540283
0.548297
0.619281
0.596584
0.611196
0.614145
0.619220
0.542149
0.583172
0.535918
0.560283
0.517291
0.502008
0.495690
0.466406
0.430549
0.475146
0.397517
0.432681
0.432414
0.399122
0.437858
0.426117
0.395737
0.322954
0.310202
0.246384
0.232511
0.254027
0.246144
0.180225
0.190348
0.285077
0.300241
0.149125
0.194504
0.237653
0.147636
0.169775
0.120198
0.187821
0.181268
0.112026
0.114054
0.124300
0.132306
0.155318
0.142167
0.152805
0.156163
0.173150
0.085689
0.126431
0.130466
0.191128
0.115900
0.101058
0.202228
0.092278
0.128884
0.111752
0.093978
0.162150
0.181205
0.176988
0.162070
0.149239
0.226111
0.134079
0.169652
0.131676
0.117979
0.181791
0.170434
0.161893
0.155609
0.122627
0.089576
0.216326
0.132094
0.147698
0.144720
0.179274
0.164032
0.153282
0.234440
0.105072
0.170281
0.180330
0.123902
0.138799
0.152133
0.113144
0.189442
0.182369
0.150052
0.203608
0.294609
0.239536
0.248693
0.244231
0.265814
0.209489
0.338653
0.265703
0.267862
0.329630
0.252445
0.363375
0.333626
0.376100
0.278971
0.337410
0.287594
0.384803
0.336976
0.285077
0.285954
0.307087
0.264490
0.251812
0.234887
0.228465
0.281935
0.203572
0.214880
0.292804
0.136270
0.226153
0.194349
0.153454
0.161629
0.192764
0.169039
0.210185
0.130884
0.206388
0.187375
0.205842
0.161937
0.142935
0.115278
0.163362
0.187585
0.202921
0.359640
0.633631
0.987454
1.088853
1.379447
1.287526
1.295663
0.978227
0.602783
0.375829
0.063098
-0.011679
0.008450
0.080178
0.074316
0.172186
0.161830
0.188349
0.240026
0.231506
0.237316
0.201215
0.292318
0.240508
0.208280
0.254629
0.355277
0.275040
0.279388
0.291680
0.400602
0.369609
0.350881
0.356164
0.335188
0.453351
0.468346
0.492257
0.437989
0.384507
0.479177
0.510150
0.568968
0.565498
0.641014
0.635193
0.598582
0.593135
0.672208
0.593153
0.687209
0.656606
0.661921
0.664062
0.704721
0.597536
0.647709
0.624408
0.630884
0.684177
0.642679
0.588998
0.527631
0.545191
0.527276
0.518665
0.538636
0.527253
0.552513
0.414567
0.423965
0.425811
0.377621
0.396051
0.397105
0.407277
0.361120
0.331595
0.369478
0.290198
0.280853
0.306590
0.253664
0.353785
0.283526
0.283977
0.308700
0.270604
0.245060
0.236353
0.241129
0.280973
0.289390
0.241308
0.153105
0.236233
0.272728
0.198184
0.171098
0.307443
0.205182
0.243737
0.281102
0.323384
0.236826
0.234106
0.275628
0.207708
0.251688
0.205407
0.252818
0.213678
0.234299
0.209038
0.267629
0.178458
0.230040
0.233374
0.241092
0.245036
0.316804
0.213542
0.148620
0.200787
0.280652
0.183048
0.313768
0.296284
0.216567
0.184558
0.220771
0.263721
0.183909
0.345405
0.194547
0.301986
0.284900
0.272384
0.228831
0.290876
0.300007
0.299483
0.299200
0.279633
0.223368
0.300197
0.309127
0.302314
0.384230
0.300237
0.307310
0.361343
0.362373
0.368461
0.337991
0.364570
0.435058
0.407609
0.377814
0.435651
0.427174
0.402237
0.359276
0.435555
0.392448
0.398056
0.349007
0.357364
0.392087
0.432862
0.338264
0.407280
0.392074
0.331548
0.332995
0.309939
0.294557
0.329000
0.336616
0.323009
0.360888
0.299977
0.213520
0.309617
0.199137
0.354457
0.273846
0.256023
0.198392
0.333241
0.253318
0.285141
0.238061
0.267962
0.373058
0.485178
0.800518
1.029842
1.304273
1.487764
1.476219
1.304474
1.042745
0.699997
0.419347
0.252702
0.097180
0.110877
0.098126
0.243972
0.242760
0.334630
0.310585
0.258479
0.326549
0.297658
0.270866
0.238513
0.327034
0.389597
0.353676
0.298053
0.371521
0.491590
0.498843
0.421826
0.481630
0.492013
0.514529
0.463202
0.503946
0.592587
0.565966
0.545650
0.600863
0.631566
0.531467
0.686787
0.615484
0.639361
0.646452
0.621022
0.734239
0.744378
0.685238
0.690912
0.773801
0.727571
0.731037
0.724983
0.750520
0.712864
0.662717
0.712418
0.736755
0.761834
0.665399
0.670157
0.588981
0.590837
0.645129
0.573538
0.691347
0.581046
0.579298
0.536648
0.525893
0.431798
0.506692
0.531679
0.450778
0.384827
0.363478
0.359166
0.375726
0.386937
0.404413
0.382250
0.392922
0.342013
0.361275
0.235724
0.326191
0.251704
0.252794
0.302801
0.356902
0.223189
0.264975
0.223748
0.284913
0.308611
0.252486
0.307109
0.353663
0.295168
0.352893
0.274604
0.354452
0.294462
0.288317
0.267079
0.275400
0.239341
0.299450
0.282937
0.337745
0.286174
0.277911
0.267353
0.291175
0.232285
0.281080
0.257463
0.308693
0.285710
0.298476
0.332559
0.264461
0.312655
0.242863
0.324545
0.243481
0.339915
0.289090
0.227215
0.322061
0.300644
0.265211
0.280155
0.337855
0.321099
0.243549
0.251438
0.334663
0.248158
0.342556
0.211117
0.325325
0.292900
0.290720
0.330905
0.346145
0.315456
0.380143
0.362028
0.451438
0.405396
0.360998
0.411310
0.344214
0.448948
0.444711
0.516760
0.430003
0.452314
0.485381
0.350812
0.450215
0.442379
0.462779
0.432051
0.410523
0.331491
0.315149
0.383094
0.407060
0.326877
0.338113
0.305806
0.274239
0.322177
0.308785
0.379788
0.287695
0.306635
0.276502
0.253578
0.359989
0.249961
0.329446
0.293524
0.304146
0.303842
0.234067
0.217484
0.306889
0.297467
0.201080
0.393901
0.588157
0.782325
1.124952
1.327844
1.375599
1.429700
1.222802
0.921967
0.585177
0.340339
0.145849
0.076941
0.019463
0.186976
0.249364
0.248139
0.267655
0.275984
0.261994
0.272726
0.311577
0.288657
0.330464
0.297775
0.363423
0.369242
0.363443
0.378611
0.350877
0.364720
0.394567
0.384737
0.443600
0.443070
0.492834
0.510234
0.518156
0.510287
0.456507
0.555172
0.588142
0.659938
0.634311
0.626522
0.637921
0.665681
0.643561
0.692647
0.645706
0.702554
0.687681
0.671800
0.699594
0.673130
0.629497
0.652222
0.700281
0.704479
0.657386
0.665202
0.652610
0.636448
0.599605
0.608330
0.540866
0.563529
0.529032
0.533870
0.537615
0.487740
0.459127
0.479246
0.419589
0.314524
0.404564
0.372814
0.418485
0.367447
0.401514
0.350872
0.332476
0.256827
0.254917
0.277445
0.319417
0.316482
0.322227
0.234543
0.269218
0.287076
0.278675
0.242117
0.277423
0.203723
0.207391
0.160975
0.280187
0.215818
0.162270
0.241956
0.156317
0.247197
0.182694
0.247196
0.187473
0.196918
0.225106
0.188782
0.263572
0.178532
0.206123
0.233937
0.282230
0.228358
0.200513
0.186207
0.238175
0.130016
0.174985
0.232388
0.169644
0.114453
0.251226
0.186005
0.240562
0.219102
0.238181
0.164088
0.217607
0.189004
0.208687
0.225989
0.191276
0.215210
0.222363
0.210270
0.206781
0.224645
0.202247
0.248091
0.236090
0.173556
0.217124
0.273473
0.248821
0.291300
0.202937
0.256591
0.247448
0.316411
0.240757
0.237391
0.371733
0.357242
0.260879
0.394239
0.407619
0.306806
0.340869
0.357937
0.328588
0.371997
0.329562
0.271559
0.366595
0.291691
0.281040
0.331406
0.330846
0.304343
0.277099
0.319867
0.325119
0.210223
0.193169
0.217111
0.212326
0.169128
0.205977
0.211549
0.209454
0.238625
0.151735
0.185005
0.205155
0.199170
0.150242
0.232401
0.206804
0.168392
0.152070
0.101045
0.187067
0.162049
0.371348
0.539035
0.753714
1.112395
1.307191
1.401305
1.400961
1.104700
0.751740
0.502560
0.199181
0.046870
0.029050
0.082820
-0.017231
0.072235
0.152083
0.245937
0.256888
0.150131
0.207854
0.261401
0.234385
0.243889
0.204350
0.245800
0.202592
0.240435
0.187272
0.240910
0.298540
0.358437
0.317846
0.419946
0.320565
0.411506
0.392460
0.481029
0.453854
0.457348
0.505441
0.603215
0.498917
0.472647
0.484511
0.532082
0.686454
0.536071
0.603991
0.563179
0.640577
0.593608
0.572194
0.609126
0.628486
0.596678
0.640817
0.602510
0.671252
0.598726
0.585557
0.555407
0.505903
0.512149
0.551424
0.534465
0.524750
0.526285
0.471646
0.354529
0.343943
0.386512
0.326717
0.312079
0.414490
0.234171
0.339679
0.363526
0.242161
0.291382
0.305144
0.235673
0.283259
0.233827
0.236990
0.227013
0.221601
0.185916
0.147056
0.214680
0.171674
0.244690
0.160267
0.218113
0.183630
0.130454
0.189062
0.154479
0.225247
0.197301
0.191667
0.167184
0.191250
0.105483
0.078340
0.173278
0.163895
0.186051
0.162254
0.196517
0.132632
0.221003
0.225376
0.213595
0.181210
0.258578
0.154096
0.132527
0.195496
0.160439
0.220277
0.227924
0.166655
0.245572
0.213796
0.184379
0.161500
0.148604
0.198375
0.238953
0.172492
0.201955
0.235084
0.163135
0.176768
0.165604
0.145186
0.146805
0.151008
0.179772
0.268595
0.208824
0.204682
0.237526
0.186378
0.205789
0.240276
0.222846
0.273595
0.253136
0.219730
0.329160
0.315763
0.378192
0.295662
0.375649
0.396891
0.407339
0.299238
0.327469
0.363019
0.423141
0.283831
0.301001
0.425493
0.424756
0.335713
0.394243
0.297186
0.345016
0.312586
0.268190
0.337630
0.302827
0.263304
0.266497
0.272498
0.269433
0.226430
0.179450
0.222077
0.222352
0.245749
0.244545
0.251056
0.178442
0.105302
0.193597
0.142897
0.174879
0.209971
0.234537
0.225944
0.207141
0.273410
0.436422
0.600525
0.929969
1.161235
1.382299
1.433056
1.386706
1.014675
0.772429
0.497714
0.184488
0.062885
0.066215
0.104352
0.167874
0.197211
0.226951
0.221737
0.172075
0.259060
0.260160
0.237696
0.253825
0.236976
0.296676
0.307944
0.335573
0.419299
0.386559
0.332517
0.345173
0.329725
0.368104
0.399314
0.426996
0.470177
0.451821
0.504786
0.439388
0.526696
0.508465
0.565361
0.547389
0.667600
0.631256
0.568523
0.589941
0.563163
0.667671
0.682554
0.698235
0.708958
0.609280
0.704278
0.712843
0.764350
0.665756
0.661027
0.664626
0.676870
0.698977
0.641205
0.661338
0.600589
0.544573
0.613314
0.561838
0.507738
0.531326
0.461651
0.523365
0.495425
0.471862
0.431818
0.498759
0.401498
0.414586
0.336895
0.387436
0.460345
0.351107
0.318855
0.366003
0.280245
0.271086
0.287463
0.266781
0.276789
0.233113
0.318353
0.292861
0.254821
0.288195
0.173635
0.327212
0.313046
0.301442
0.231020
0.228064
0.262784
0.233393
0.252652
0.247471
0.261409
0.257139
0.291264
0.278681
0.216289
0.286185
0.289759
0.304963
0.295853
0.290520
0.305119
0.267558
0.286955
0.268913
0.185810
0.277304
0.193374
0.310878
0.336884
0.230812
0.257611
0.321810
0.284513
0.269933
0.267402
0.284001
0.291567
0.304060
0.289411
0.369399
0.267015
0.293315
0.315658
0.351535
0.269213
0.257491
0.355958
0.252525
0.320339
0.330251
0.279732
0.315873
0.311140
0.325151
0.349837
0.284418
0.330466
0.369043
0.397687
0.419239
0.419940
0.505785
0.441567
0.399870
0.366917
0.339171
0.480535
0.477087
0.401360
0.488107
0.454107
0.414458
0.435548
0.438690
0.408469
0.419920
0.393212
0.426667
0.408521
0.449648
0.385565
0.388100
0.348055
0.356221
0.325383
0.321302
0.367030
0.387065
0.330550
0.298121
0.308834
0.284384
0.289703
0.225719
0.303786
0.283869
0.345812
0.324910
0.308282
0.353818
0.306934
0.327359
0.518764
0.770177
1.023839
1.342057
1.481939
1.500000
1.424333
1.011779
0.765739
0.485784
0.251511
0.029629
0.197063
0.190452
0.146101
0.241838
0.257648
0.357494
0.269419
0.343206
0.350698
0.377984
0.374229
0.389574
0.286720
0.413438
0.360625
0.443022
0.389165
0.378564
0.395065
0.449355
0.483056
0.490308
0.463323
0.570332
0.518133
0.580411
0.569257
0.594418
0.607938
0.627739
0.628752
0.601078
0.683335
0.766571
0.692337
0.737351
0.723408
0.682951
0.777096
0.743287
0.804062
0.780564
0.747190
0.786273
0.793186
0.753146
0.792940
0.739799
0.705330
0.702725
0.706827
0.721018
0.729300
0.597222
0.623077
0.571782
0.563043
0.564607
0.520734
0.639996
0.507012
0.524435
0.509235
0.438422
0.453239
0.440427
0.433555
0.390801
0.399627
0.381048
0.381530
0.399571
0.344927
0.396234
0.288125
0.360560
0.337278
