0.030024
0.010102
0.021780
0.031291
0.033525
-0.004619
0.003167
-0.010469
0.053045
0.055374
0.016610
0.081787
-0.006196
0.004727
-0.020454
-0.071276
0.010043
0.011448
0.040222
0.009503
0.093082
0.069757
0.105148
0.100406
0.134106
0.180050
0.118101
0.066391
0.120578
0.131741
0.104295
0.127812
0.075498
0.137654
0.131091
0.188775
0.139025
0.133590
0.214825
0.214559
0.244195
0.225085
0.275771
0.255178
0.158474
0.200173
0.228990
0.176897
0.155716
0.146319
0.133092
0.097095
0.108320
0.107335
0.147296
0.121724
0.064967
0.240885
0.047499
0.079074
0.096346
0.020456
0.025918
0.011995
0.021887
0.089316
-0.008057
0.018564
0.044480
-0.000552
0.006229
0.028759
0.036978
0.049718
-0.009165
0.187412
0.481801
0.797586
1.074555
1.272591
1.491836
1.398089
1.017380
0.760659
0.362093
0.061541
-0.051879
-0.111022
-0.212342
-0.090971
-0.074692
0.031896
0.047447
-0.016003
0.092072
0.120146
0.125132
0.097768
0.148375
0.193191
0.128332
0.131913
0.228376
0.176275
0.195546
0.152904
0.206327
0.263699
0.249658
0.252349
0.276812
0.310626
0.313296
0.328606
0.381952
0.424614
0.411200
0.412494
0.392749
0.471164
0.511533
0.523324
0.541983
0.531811
0.520905
0.666017
0.527163
0.523953
0.533947
0.628195
0.535348
0.565315
0.620244
0.533357
0.526601
0.570431
0.586317
0.518307
0.518892
0.541811
0.501056
0.471751
0.472368
0.424881
0.431287
0.381327
0.353197
0.353907
0.297642
0.283794
0.282458
0.206918
0.216324
0.253332
0.225440
0.177145
0.182178
0.192042
0.135054
0.226212
0.110628
0.094106
0.096714
0.126217
0.143091
0.154343
0.133868
0.067060
0.193588
0.126367
0.131200
0.097181
0.111974
0.094910
0.068105
0.127802
0.053842
0.054349
0.144591
0.107084
0.081613
0.038570
0.136358
0.141255
0.122649
0.179166
0.138659
0.071218
0.120099
0.057060
0.085855
0.095601
0.044167
-0.034039
0.102883
0.137696
0.043844
0.042214
0.062045
0.040925
0.067604
0.099511
0.133877
0.080713
0.141754
0.086556
0.067166
0.093022
0.094311
0.078995
0.015272
0.077862
0.056359
0.055629
0.153249
-0.012686
0.069418
0.130291
0.123088
0.093221
0.164293
0.099294
0.123961
0.150975
0.151157
0.189489
0.077276
0.169841
0.211317
0.162374
0.174370
0.149378
0.228680
0.217544
0.299259
0.210606
0.203101
0.166401
0.245748
0.327755
0.254778
0.323466
0.242968
0.220217
0.301626
0.200436
0.178870
0.303839
0.192668
0.151924
0.100659
0.203635
0.253210
0.204933
0.138672
0.152780
0.101480
0.136621
0.160537
0.120227
0.138035
0.063116
0.104680
0.132189
0.140860
0.050962
0.125804
0.167341
0.056941
0.068219
0.127633
0.095002
0.031635
0.034300
0.116737
0.337816
0.398119
0.726989
1.131438
1.323074
1.500000
1.423617
1.133929
0.725545
0.481041
0.102465
-0.008289
-0.143869
-0.191581
-0.091200
-0.009881
0.118550
0.049807
0.061334
0.019530
0.061238
0.200778
0.059235
0.149885
0.176902
0.045923
0.150959
0.149442
0.122877
0.189770
0.138223
0.232890
0.196915
0.265057
0.218566
0.251259
0.300337
0.373531
0.304326
0.333844
0.331563
0.371534
0.455009
0.482999
0.477945
0.447074
0.428218
0.510891
0.545296
0.578946
0.552512
0.624017
0.568253
0.574315
0.567154
0.540473
0.506317
0.620104
0.520736
0.609212
0.608885
0.519747
0.549734
0.517767
0.545566
0.454591
0.464469
0.446449
0.320059
0.424071
0.324913
0.261874
0.315205
0.241790
0.309074
0.273643
0.169607
0.182360
0.224486
0.208199
0.173655
0.211131
0.133780
0.208201
0.141512
0.153531
0.113190
0.129140
0.108272
0.044136
-0.015996
-0.007550
0.039846
0.106580
0.083734
0.062454
0.053079
0.107005
0.043982
0.033992
-0.026978
0.023660
0.063131
0.048715
0.011278
0.008379
-0.018122
0.022625
-0.046780
-0.021515
0.026568
0.083847
0.016718
0.014436
-0.042966
-0.027859
0.103413
0.058129
0.076249
-0.042273
-0.062575
-0.009629
0.029950
0.044904
0.042573
-0.078474
-0.003458
0.061684
-0.011945
0.028408
0.006146
0.039770
-0.020992
0.040641
0.035131
-0.037951
-0.012360
0.091212
0.028688
-0.008521
0.024479
0.021348
0.000562
0.036042
-0.014892
0.002616
0.016421
0.050031
0.124611
0.022279
0.048338
0.100975
0.027446
0.071571
0.097253
0.148198
0.147051
0.114642
0.153616
0.086434
0.223604
0.168444
0.148784
0.155979
0.203438
0.095523
0.201056
0.165072
0.186407
0.213255
0.202720
0.170136
0.101102
0.189314
0.111735
0.156998
0.078375
0.072279
0.016180
0.066435
0.003527
0.072238
0.037166
0.020555
0.020551
-0.047714
0.001258
-0.009548
-0.053002
-0.020794
-0.054625
-0.064955
-0.039127
0.065887
0.031525
-0.069805
-0.099419
-0.096533
-0.004465
-0.014414
0.139924
0.391207
0.673047
1.054130
1.284554
1.342923
1.317282
1.043616
0.650316
0.319701
-0.060935
-0.184386
-0.313838
-0.233359
-0.177559
-0.111171
-0.001876
0.022331
-0.028876
0.006961
0.021762
0.073879
0.003222
-0.011652
0.011392
0.014958
0.057181
0.023628
0.082202
0.114809
0.028100
0.061749
0.135165
0.180032
0.153555
0.201807
0.191694
0.238091
0.203058
0.219185
0.307581
0.347598
0.335493
0.309023
0.343434
0.416305
0.385836
0.408001
0.382961
0.423771
0.489685
0.438683
0.443387
0.504095
0.504214
0.481394
0.480304
0.419056
0.433336
0.454202
0.487902
0.403354
0.461875
0.411870
0.445417
0.323189
0.308414
0.268142
0.271164
0.235484
0.310780
0.231216
0.226009
0.179604
0.169932
0.100622
0.119636
0.141671
0.097537
0.042051
0.094561
-0.007747
0.013310
0.061598
-0.035940
0.045858
0.047000
-0.018332
-0.037652
0.062900
-0.067562
0.044788
-0.029127
-0.037656
-0.065043
-0.023494
-0.007173
-0.014425
-0.104534
-0.080616
-0.107802
-0.010943
-0.038722
-0.052657
-0.046133
-0.010615
-0.049156
-0.018651
0.000697
-0.098900
0.016148
-0.019457
-0.117017
-0.077390
-0.027307
-0.054617
-0.048104
-0.119102
-0.028147
-0.154552
-0.029713
-0.031013
-0.054404
-0.084351
-0.066084
0.012517
-0.006215
0.030801
-0.024420
0.034780
-0.010374
-0.041843
-0.029468
-0.040419
-0.029529
-0.024077
0.031518
-0.058797
-0.054165
-0.023181
-0.052988
-0.091216
0.039986
0.000835
-0.020738
-0.009028
0.005944
-0.083673
0.014718
-0.035484
0.002264
-0.037204
0.036211
0.069827
0.130882
0.050056
0.078794
0.078044
0.118146
0.098425
0.149121
0.109598
0.138294
0.142599
0.084133
0.100196
0.137785
0.071067
0.077437
0.128171
0.148837
0.115994
0.161758
0.097179
0.081082
0.078037
0.088688
0.103197
-0.029856
0.011180
-0.000052
0.125236
0.055663
0.010442
0.010318
-0.045822
-0.071916
-0.038371
0.043091
0.007993
-0.051261
0.013214
-0.019943
0.026210
-0.054059
-0.038218
0.050683
-0.031429
-0.044736
0.050622
0.050259
0.332930
0.608066
1.039008
1.204854
1.361320
1.283404
0.978021
0.654377
0.287126
0.054133
-0.175619
-0.254648
-0.230297
-0.092406
-0.032773
-0.038730
0.000211
-0.042000
-0.018131
0.002602
0.059049
-0.008157
0.029244
0.079325
0.074382
0.094139
0.130995
0.151642
0.129258
0.160726
0.081587
0.153215
0.194765
0.210308
0.281967
0.251067
0.259249
0.339897
0.326100
0.282438
0.316517
0.307023
0.309930
0.381376
0.425870
0.361200
0.444375
0.497072
0.414867
0.432404
0.491335
0.509693
0.506890
0.490561
0.509609
0.520928
0.568743
0.545893
0.467497
0.438280
0.508771
0.563831
0.439869
0.416498
0.440703
0.424546
0.342501
0.431900
0.404621
0.395558
0.291550
0.331328
0.293011
0.201432
0.284668
0.218420
0.171618
0.154527
0.219057
0.120467
0.129599
0.172435
0.099597
0.051774
0.117373
0.087152
0.057247
0.077362
0.027355
0.006968
0.173600
0.068470
0.082964
0.054222
0.039633
-0.054944
0.101150
0.001974
-0.017169
-0.005715
0.111213
0.069727
0.081651
0.066539
0.054104
0.042210
-0.022489
-0.000865
0.028011
-0.003547
0.115118
0.031498
0.065599
0.010779
0.003038
-0.027364
0.010275
0.026899
0.022638
0.116355
0.091028
-0.056305
0.033154
0.056152
0.103825
0.027198
0.091614
0.068304
0.069754
0.013526
0.025175
0.019503
-0.032489
0.114972
0.126929
0.118001
0.058349
-0.017346
0.052243
0.026730
0.004106
0.054849
0.057741
0.040023
0.107012
0.120443
0.086904
0.117174
0.103653
0.138302
0.135588
0.140649
0.121959
0.170372
0.170605
0.217890
0.239026
0.254263
0.220976
0.231545
0.259147
0.256052
0.292523
0.314416
0.281451
0.246278
0.194389
0.274086
0.378603
0.222664
0.261674
0.104125
0.231532
0.156914
0.099749
0.123565
0.172368
0.207640
0.132263
0.165732
0.182128
0.156652
0.109824
0.069745
0.135247
0.052366
0.076732
0.145828
0.036980
0.141501
0.128256
0.071027
0.140199
0.014638
0.083473
0.168572
0.031147
-0.027894
0.123846
0.221048
0.453174
0.764338
1.092964
1.348124
1.460699
1.476735
1.179775
0.823762
0.415019
0.107378
-0.065251
-0.141100
-0.156146
-0.091897
0.066890
0.058335
0.019847
0.051559
0.053455
0.117181
0.140845
0.146716
0.158779
0.196484
0.135461
0.194373
0.175322
0.196552
0.238026
0.198772
0.223260
0.225010
0.271971
0.325636
0.365591
0.352778
0.302041
0.327560
0.398045
0.384956
0.447270
0.369036
0.466114
0.528644
0.537032
0.568196
0.648700
0.581137
0.613852
0.535119
0.573763
0.583957
0.601239
0.575560
0.593528
0.685640
0.625818
0.557939
0.551087
0.469359
0.616364
0.620387
0.531431
0.509335
0.498770
0.384714
0.451205
0.436041
0.430191
0.444401
0.352027
0.396686
0.303804
0.401805
0.295259
0.217421
0.275412
0.282443
0.231061
0.155169
0.202297
0.184132
0.149992
0.248809
0.159736
0.099552
0.170907
0.125542
0.135078
0.081660
0.108520
0.048950
0.089946
0.183354
0.059815
0.153590
0.021330
0.050482
0.065786
0.070504
0.097658
0.104533
0.148796
0.093146
0.126684
0.088706
0.062275
0.118455
0.132850
0.131442
0.155715
0.094514
0.068135
0.110260
0.115598
0.081951
0.010004
0.099076
0.066838
0.104404
0.071494
0.049966
0.016135
0.045981
0.051852
0.122561
0.056814
0.098886
0.146728
0.022025
0.087922
0.038540
0.096657
0.164399
0.076156
0.143256
0.100326
0.088770
0.109395
0.125429
0.084047
0.039854
0.093535
0.161810
0.018508
0.156927
0.092396
0.055514
0.149194
0.122841
0.129744
0.183493
0.174703
0.147615
0.168878
0.189871
0.269472
0.272823
0.180554
0.167960
0.195532
0.333929
0.237502
0.319543
0.272891
0.181766
0.179186
0.239973
0.272841
0.189196
0.199864
0.245685
0.189409
0.152210
0.164242
0.148873
0.138141
0.133825
0.111484
0.110343
0.034888
0.127264
0.083630
0.081679
0.068018
0.121572
0.039814
0.126538
0.102574
0.066683
0.058988
0.174581
0.111924
-0.011496
0.027775
0.080865
0.080577
-0.008217
0.126811
0.198350
0.417048
0.750728
1.037169
1.373378
1.489928
1.293294
1.117514
0.755469
0.370759
0.039683
-0.188348
-0.209880
-0.141110
-0.066030
-0.120150
-0.061521
0.057497
0.095340
0.032754
0.080460
0.115764
0.069045
0.141557
0.076157
0.099660
0.143856
0.201517
0.107331
0.103622
0.104608
0.233059
0.220641
0.207725
0.226496
0.258066
0.318853
0.250538
0.345589
0.332410
0.328532
0.394732
0.424401
0.372601
0.418637
0.374275
0.475735
0.412504
0.390849
0.447920
0.479192
0.558332
0.591236
0.565283
0.517064
0.478123
0.509770
0.553339
0.525896
0.475621
0.534715
0.505399
0.481741
0.408773
0.498705
0.377623
0.487800
0.321436
0.364783
0.296116
0.332291
0.213216
0.296073
0.326423
0.267339
0.233480
0.192378
0.165214
0.194773
0.057243
0.100250
0.113658
0.158361
0.069192
0.024398
0.057438
0.042685
0.002982
0.009994
-0.031700
0.000048
0.164919
0.075024
-0.055523
-0.014113
0.061901
0.016255
0.031802
0.011341
0.008753
-0.065744
0.034821
-0.090778
-0.005244
-0.050241
0.043906
-0.015261
0.034019
-0.108664
-0.074561
-0.078298
0.067525
-0.017593
-0.031021
-0.030608
0.010081
-0.025196
-0.016778
-0.020890
0.036574
-0.106675
0.013177
-0.038560
-0.094875
-0.053198
-0.066563
-0.022341
-0.008289
-0.020487
0.006918
-0.083588
-0.055352
-0.005658
0.001676
0.013698
-0.031973
-0.025414
-0.034014
-0.101879
0.010733
0.033571
-0.099396
-0.018778
-0.134738
0.061388
-0.051396
-0.005636
-0.022005
-0.059198
-0.036799
-0.008691
0.050034
-0.037796
0.004283
0.038032
0.046821
0.038397
0.102401
0.143101
0.082037
0.056394
0.104657
0.170825
0.057773
0.125805
0.140990
0.152074
0.110293
0.051695
0.143853
0.139828
0.066231
0.078598
0.063812
0.094257
0.038077
0.078874
0.067594
-0.000439
0.006799
0.028403
-0.073303
-0.028167
0.009080
-0.031726
-0.021858
-0.024471
-0.040189
-0.065142
-0.051494
-0.098240
-0.066518
-0.033406
-0.110988
-0.073339
-0.101466
-0.082762
-0.122998
-0.057414
-0.037248
0.084700
0.302855
0.606372
0.972585
1.256670
1.312127
1.230785
0.965780
0.598333
0.236111
-0.035642
-0.138638
-0.370036
-0.373098
-0.156494
-0.188430
-0.063404
-0.145877
-0.127827
-0.147788
-0.051402
-0.057067
0.002813
0.012189
-0.012531
-0.035466
0.077303
0.076297
0.005980
0.044418
0.015763
0.073684
0.044595
0.071453
0.170755
0.156471
0.202607
0.123247
0.224631
0.236781
0.118883
0.304923
0.294496
0.296316
0.413096
0.314649
0.346242
0.310778
0.318827
0.373213
0.457996
0.467569
0.444644
0.486652
0.406623
0.447532
0.437655
0.443072
0.401281
0.316746
0.369314
0.425199
0.420186
0.429571
0.313290
0.295671
0.237628
0.285182
0.285090
0.278195
0.192801
0.226849
0.107971
0.214452
0.254980
0.185403
0.164439
0.133783
0.089589
0.042503
0.181339
0.109892
-0.000148
0.026777
0.028331
-0.042735
-0.077875
-0.038282
0.027781
-0.024038
-0.154695
-0.084516
0.025805
-0.088785
-0.015331
-0.081216
-0.107852
-0.080587
-0.090495
-0.070680
-0.092058
-0.179405
-0.089415
-0.059081
-0.092019
-0.003148
-0.155678
-0.100511
-0.083760
-0.035324
-0.094581
-0.061933
-0.067946
-0.047438
0.018555
-0.072245
-0.094740
-0.026015
0.013400
-0.107971
0.005023
-0.056410
-0.057052
-0.121755
-0.041469
-0.006745
-0.078342
-0.052950
0.008055
-0.121663
-0.108432
-0.004418
-0.057306
-0.111160
-0.067496
-0.004725
-0.035293
-0.133117
-0.104592
0.009349
-0.151243
-0.036478
-0.069977
-0.049214
-0.028859
-0.018854
-0.008645
-0.039108
0.008223
0.020164
-0.087375
-0.002037
-0.096571
-0.004831
0.055063
0.078832
0.148441
0.087905
0.116526
0.079687
0.143055
0.138055
0.120551
0.145838
0.105063
0.197950
0.112769
0.144906
0.104067
0.137267
0.144218
0.109254
0.097457
0.100701
-0.045068
0.095449
0.102878
0.009457
-0.015071
0.059139
-0.064711
-0.087160
-0.085338
-0.024507
-0.072531
-0.010689
-0.060913
-0.025557
-0.052080
-0.087105
0.001920
0.042401
-0.085367
-0.029287
-0.016503
-0.048006
-0.034927
-0.093622
-0.023988
-0.014777
0.219086
0.352549
0.679809
0.925609
1.186561
1.332139
1.261978
1.047081
0.684565
0.275878
0.007660
-0.189756
-0.274210
-0.296803
-0.151913
-0.114410
-0.120984
-0.027866
-0.156215
0.042041
-0.040237
-0.059560
0.062863
0.035064
0.111158
0.045109
0.039200
0.119058
0.123585
0.055459
0.067922
0.117954
0.098186
0.092481
0.210699
0.209965
0.236110
0.263729
0.297584
0.291538
0.348112
0.285691
0.322910
0.397483
0.362302
0.379731
0.401633
0.355876
0.469444
0.496020
0.460259
0.525803
0.554188
0.532773
0.493551
0.577760
0.467938
0.483415
0.530087
0.500371
0.511535
0.397829
0.403380
0.442404
0.416626
0.413445
0.374808
0.361539
0.429810
0.332383
0.236679
0.250926
0.228313
0.272360
0.260622
0.266633
0.243072
0.202713
0.161958
0.153425
0.058951
0.049585
0.124342
0.050566
0.112178
0.067960
0.033137
0.091863
0.012741
0.011620
0.052426
0.147949
-0.073082
0.112006
-0.025602
0.055710
0.026957
0.027316
-0.095812
-0.053244
0.091709
-0.019083
0.037233
0.007164
-0.022312
0.021166
0.005629
0.074650
-0.034556
0.085499
-0.011421
0.065526
-0.027039
0.051750
0.075885
0.049955
0.057272
0.054389
0.015540
0.022537
-0.012193
0.039094
-0.042078
0.070891
-0.030673
-0.020626
0.046536
-0.009876
-0.000999
0.029180
0.004638
0.028208
0.029402
0.004878
0.003533
0.150419
0.022619
0.058540
0.026142
0.059573
-0.027551
-0.031288
0.117359
0.112149
0.090573
0.108164
-0.004462
0.036177
0.043789
0.017556
0.076475
0.068960
0.146954
0.052431
0.177621
0.142858
0.179737
0.128253
0.224749
0.219190
0.134894
0.217339
0.225404
0.229067
0.246072
0.198618
0.219626
0.141036
0.278402
0.217960
0.125147
0.198398
0.163290
0.162354
0.143818
0.149779
0.088068
0.215670
0.192808
0.051226
0.108304
0.142666
0.082021
0.110127
0.092670
0.048952
0.126483
0.049936
0.119590
0.012184
0.007131
0.119600
0.033247
-0.028019
0.024334
0.002756
-0.091678
0.034488
-0.122474
0.111888
0.161846
0.469657
0.742624
1.085086
1.303221
1.364784
1.377606
1.136108
0.753514
0.321461
0.111256
-0.073060
-0.234866
-0.127367
-0.131817
-0.011786
-0.003655
0.057240
0.110758
0.083185
0.047724
0.092738
0.114562
0.184962
0.112609
0.127598
0.092425
0.160756
0.149449
0.052768
0.249424
0.138344
0.287417
0.310644
0.227736
0.291568
0.211548
0.311811
0.422480
0.239432
0.367410
0.353592
0.379134
0.441855
0.485346
0.549974
0.509199
0.475906
0.507334
0.580112
0.607468
0.602064
0.488423
0.519636
0.464608
0.437111
0.553817
0.538162
0.559907
0.560807
0.456113
0.455645
0.446438
0.546581
0.467728
0.527109
0.441760
0.455682
0.366148
0.433423
0.311829
0.314470
0.295938
0.359938
0.274894
0.276346
0.267682
0.264138
0.118560
0.155796
0.256029
0.158370
0.151849
0.149752
0.070261
0.111712
0.167090
0.187070
0.085638
0.002066
0.032169
0.112677
0.051926
0.043914
0.098364
0.046309
0.036449
0.084858
0.024889
0.001609
-0.007051
-0.003804
-0.011408
-0.015225
0.066946
0.058812
-0.021597
0.097082
0.055960
0.028908
-0.022052
0.038830
0.060973
0.026890
0.041314
0.065629
-0.008838
0.020379
0.080667
0.081287
0.010757
0.097124
0.040066
0.000728
0.051465
0.093861
0.112580
-0.038070
0.085343
-0.104546
0.037179
0.007224
0.084224
0.043107
0.006767
0.013977
0.003191
0.050229
-0.010722
0.019845
0.017736
-0.043401
0.007990
0.032815
0.004051
0.014775
0.020039
0.053879
0.045065
0.065816
0.088971
0.021377
0.038531
0.134561
0.101229
0.107792
0.159795
0.208621
0.075793
0.219910
0.192054
0.207082
0.171308
0.127448
0.167679
0.177395
0.115782
0.246029
0.134801
0.203024
0.121164
0.178260
0.175794
0.142648
0.102176
0.093889
0.137876
0.009054
0.007060
0.060434
0.067209
0.071887
0.039437
0.007190
0.021715
0.080113
-0.056928
0.111994
0.026937
0.016259
0.004503
-0.022239
0.008749
-0.025038
-0.076677
0.002565
-0.015575
-0.070391
-0.106162
0.040942
0.168413
0.378955
0.639883
0.993105
1.212520
1.311074
1.335490
1.127484
0.731301
0.223798
-0.017201
-0.217557
-0.209705
-0.203462
-0.310078
-0.084001
-0.056025
-0.014901
-0.074120
0.000535
-0.054253
-0.086406
-0.004068
0.060725
0.035965
-0.034294
0.047433
-0.002114
0.092659
0.085906
0.104416
0.141465
0.070411
0.174678
0.166513
0.179687
0.153896
0.255820
0.255611
0.317444
0.323246
0.305976
0.334865
0.275617
0.364129
0.355288
0.418399
0.377164
0.441210
0.464701
0.410277
0.428888
0.419866
0.514321
0.410471
0.465770
0.356075
0.522687
0.455161
0.491557
0.428949
0.447398
0.420937
0.422458
0.384189
0.335849
0.297476
0.286030
0.301434
0.267731
0.325393
0.205512
0.255224
0.167874
0.142457
0.140883
0.112570
0.003132
0.073793
0.131512
0.033308
-0.003068
0.067116
0.034150
-0.073330
-0.014175
0.033071
-0.036520
-0.004453
-0.085572
-0.061666
0.028085
-0.047533
-0.010492
-0.064068
-0.073809
-0.074349
-0.094665
-0.035017
-0.020056
-0.099205
-0.082176
-0.120503
-0.087045
-0.099996
-0.091544
-0.092781
-0.086897
-0.060071
-0.095994
-0.077597
-0.022794
-0.162395
-0.131489
-0.013399
-0.151846
-0.124923
-0.139821
-0.134889
-0.088266
-0.133209
-0.134044
-0.101668
-0.052277
-0.209039
-0.068942
0.009537
-0.151710
-0.065458
-0.124840
-0.083343
-0.127140
-0.116847
-0.047868
-0.070828
-0.076870
-0.036859
-0.064917
-0.118187
-0.114080
-0.146278
-0.098793
-0.080324
-0.125124
-0.018778
-0.065017
-0.067044
-0.032652
-0.005950
-0.031246
-0.045233
-0.034223
0.020955
-0.027977
0.024562
0.028270
0.040868
0.044967
-0.017641
0.097015
0.061036
0.127490
0.129598
0.136720
0.032439
0.126230
0.078577
0.086180
0.093656
0.113984
0.035776
-0.003773
-0.008621
0.003609
-0.032819
0.044553
0.011076
-0.010027
0.024329
-0.024891
-0.033647
-0.045297
-0.086514
-0.062778
-0.158240
-0.051921
-0.131657
-0.107539
-0.059910
0.005000
-0.068727
-0.100703
-0.129220
-0.070390
-0.044368
-0.131842
-0.056948
-0.104371
-0.062887
0.016556
0.104821
0.344004
0.655141
0.963809
1.157007
1.259570
1.248903
0.956936
0.596023
0.221968
-0.079244
-0.179778
-0.289701
-0.228385
-0.205426
-0.174416
-0.175123
-0.062779
-0.008943
-0.124219
-0.106875
-0.104557
-0.014480
-0.110928
-0.011095
-0.052082
-0.007542
-0.052826
0.075624
0.031685
0.041392
0.068092
0.116503
0.046091
0.058131
0.138856
0.154212
0.117632
0.180000
0.141601
0.222074
0.237423
0.226511
0.243942
0.294305
0.325006
0.169983
0.287703
0.376073
0.391566
0.409527
0.455623
0.427373
0.364443
0.446481
0.453196
0.388007
0.424944
0.356948
0.373885
0.340798
0.439150
0.412778
0.371635
0.378542
0.369727
0.269588
0.220017
0.272407
0.222660
0.189938
0.253722
0.202465
0.149700
0.218156
0.116110
0.094179
0.127418
0.142680
0.036499
-0.014310
-0.009266
-0.040626
0.020017
0.005966
0.022200
-0.034425
-0.012137
-0.032885
-0.009311
-0.067027
-0.008118
0.018811
-0.048573
-0.075819
-0.158522
-0.108069
-0.089503
-0.094754
0.004796
-0.021742
0.013790
-0.120086
-0.063798
-0.070499
-0.121916
-0.120949
-0.059988
-0.040040
-0.001294
-0.068551
-0.050541
-0.123316
-0.063589
-0.168675
0.011598
-0.089872
-0.114553
-0.083593
0.044724
-0.019502
-0.042182
-0.079776
0.013967
-0.104731
-0.086639
-0.060837
-0.032463
-0.012816
-0.100856
-0.027581
0.007903
-0.008055
-0.022957
-0.095924
-0.078794
-0.046158
-0.008571
-0.067926
0.003548
-0.072074
-0.022391
-0.081849
0.000927
-0.030495
0.036895
-0.077434
-0.044470
-0.008236
-0.045251
0.014663
-0.004159
0.050060
0.041224
0.096325
0.055039
0.056156
0.071881
-0.002091
0.075889
0.175862
0.088220
0.218219
0.170674
0.143381
0.142249
0.185903
0.145585
0.206677
0.133408
0.104090
0.098514
0.098783
0.079937
0.045634
0.063429
0.097710
0.051895
0.055209
0.096944
0.055557
0.068567
-0.044304
-0.048964
0.042449
0.041277
-0.068376
0.068467
0.011627
0.049867
-0.019610
0.023835
-0.021370
-0.041844
0.001700
-0.049627
-0.070661
-0.074680
-0.022628
0.190809
0.194278
0.286267
0.627894
1.021894
1.204866
1.424007
1.328301
1.089566
0.714503
0.305307
0.038398
-0.155456
-0.312226
-0.328710
-0.191552
-0.125192
-0.110527
0.037416
-0.012029
0.046263
0.067465
0.024726
0.003836
0.146520
0.107351
0.053000
0.152787
0.052995
0.096672
0.099821
0.052610
0.170433
0.107193
0.191135
0.160364
0.239046
0.193367
0.224071
0.225321
0.272228
0.267636
0.373159
0.270167
0.405797
0.435356
0.483622
0.400552
0.470762
0.487037
0.534348
0.532083
0.535108
0.494422
0.477973
0.518646
0.489480
0.545543
0.526237
0.519257
0.490630
0.563332
0.431713
0.475352
0.488454
0.407419
0.458833
0.389158
0.413374
0.432934
0.291848
0.279740
0.220925
0.334359
0.296604
0.269511
0.140453
0.213195
0.238545
0.191239
0.224276
0.165696
0.135121
0.092465
0.158804
0.108151
0.122784
0.141352
0.084834
0.128249
0.061483
0.095854
0.061451
0.135364
0.023255
0.041871
-0.008636
0.056650
0.057122
0.031456
0.118623
0.099253
0.033875
0.030414
0.041658
0.032454
0.042000
0.112397
0.148178
0.073491
-0.038418
0.090705
0.042760
0.001626
0.064829
0.113138
-0.006704
0.101632
0.038797
0.120406
-0.016830
0.086115
0.055261
-0.026803
0.071615
0.094090
-0.006351
0.021712
0.028288
0.018901
0.106287
0.051702
0.017591
0.098557
0.105864
0.097003
0.044098
0.091634
0.086018
0.107013
0.029933
0.076503
0.116769
0.112941
0.055328
0.122133
0.087911
0.051940
0.133198
0.114177
0.035947
0.194215
0.057570
0.130533
0.160261
0.194057
0.117688
0.164215
0.192129
0.136501
0.192608
0.219132
0.270520
0.184449
0.221036
0.308602
0.200146
0.245398
0.253527
0.232133
0.234733
0.122599
0.276280
0.130498
0.289702
0.181740
0.186323
0.213280
0.154306
0.098507
0.070671
0.067383
0.098403
0.089202
0.048338
0.138392
0.041899
0.041803
0.014934
0.060686
0.066197
0.003806
0.061388
0.083897
0.101362
0.086518
0.147200
0.052706
0.024047
0.024327
0.084789
0.239907
0.473598
0.810003
1.139217
1.319596
1.498690
1.344477
1.112090
0.793308
0.367444
0.086996
-0.078484
-0.131471
-0.154916
-0.090772
-0.006357
0.031412
0.108621
0.026995
0.070934
0.114518
0.133614
0.109498
0.092880
0.153329
