0.012227
-0.027491
-0.003793
-0.022384
-0.007770
-0.046319
-0.048612
-0.009844
0.044872
0.006826
-0.002306
-0.011016
0.077757
0.044800
0.051264
-0.008407
0.014996
0.065624
0.043750
-0.087500
-0.016329
0.065657
-0.023931
-0.027263
-0.032909
-0.006051
0.006453
-0.002478
0.002645
0.001471
0.022145
0.069878
0.024419
0.018240
0.085056
0.047440
0.134467
0.051953
0.089089
0.098288
0.134277
0.047851
0.135212
0.158901
0.167650
0.193419
0.191842
0.152811
0.248421
0.211768
0.209842
0.244592
0.132124
0.205718
0.174103
0.139703
0.193989
0.166263
0.109480
0.133553
0.118423
0.122956
0.134397
0.133478
0.099269
0.070073
0.158667
0.041190
0.061915
0.037422
0.085167
0.062732
0.078069
0.095596
0.066895
0.130634
0.013298
0.077048
0.051738
0.154912
0.123927
0.006427
0.053006
0.037342
0.059047
0.024419
0.090068
0.033870
0.045851
0.028438
-0.060745
0.035058
0.021847
-0.014364
0.004953
0.227661
0.388867
0.729958
1.065353
1.361981
1.368095
1.344046
1.069550
0.885181
0.529477
0.216297
-0.030525
-0.277793
-0.228319
-0.171699
-0.146901
-0.085369
0.085790
0.003423
0.073513
-0.005274
0.065039
0.126669
0.102276
0.151210
0.080640
0.096842
0.078603
0.033343
0.122761
0.117152
0.121765
0.072084
0.142695
0.153121
0.129386
0.115267
0.110438
0.096720
0.146587
0.162622
0.206202
0.155468
0.225003
0.175894
0.264093
0.244998
0.362621
0.319569
0.253421
0.355582
0.352588
0.379153
0.431703
0.430600
0.443334
0.390485
0.413965
0.530608
0.486772
0.585459
0.615483
0.486008
0.492896
0.547208
0.642593
0.530371
0.565661
0.570946
0.586365
0.574231
0.583443
0.552590
0.547174
0.528766
0.643590
0.495458
0.508251
0.473215
0.480032
0.341778
0.423296
0.329973
0.387054
0.349146
0.326014
0.234736
0.251943
0.241286
0.252061
0.273015
0.229264
0.213603
0.138155
0.206005
0.179420
0.155690
0.233997
0.126704
0.106579
0.116394
0.130771
0.147606
0.161025
0.111267
0.097827
0.029721
0.086200
0.113079
0.092931
0.072792
0.056691
0.081374
0.115983
0.077893
0.100995
0.112779
0.064009
0.075078
0.154446
0.083749
0.021619
0.119720
0.093711
0.118035
0.121531
0.068260
0.102168
0.032077
0.019613
0.097242
0.131973
0.076887
0.111390
0.086613
0.123381
0.089348
0.131417
0.046751
0.047257
0.080151
-0.023930
0.080757
0.069953
0.096893
0.101289
0.066824
0.134193
0.056690
0.143177
0.016732
0.082267
0.059899
0.058561
0.090581
0.016500
0.066264
0.056831
0.057492
-0.013588
0.117874
-0.056472
0.026703
0.140963
0.068779
0.025685
0.079102
0.091640
0.014456
0.042752
0.032830
0.027585
0.071894
0.032474
0.039342
0.116141
0.075050
0.023172
0.048924
0.104355
0.116334
0.100610
0.103612
0.038081
0.145329
0.100799
0.135678
0.067946
0.130241
0.073829
0.150090
0.188508
0.198431
0.185933
0.080035
0.171828
0.144703
0.172617
0.190041
0.158839
0.189194
0.160561
0.196898
0.181425
0.262574
0.198861
0.203966
0.148475
0.232975
0.223406
0.213510
0.297430
0.060520
0.158574
0.202804
0.158499
0.095093
0.133898
0.110373
0.162177
0.045617
0.048490
0.113788
0.077243
0.027114
0.078792
0.070599
0.101644
0.096015
0.002305
0.118987
0.022712
0.016195
0.060227
0.048393
0.011937
0.021152
0.062836
0.092567
-0.039414
0.032411
0.113239
-0.051547
0.075610
-0.009545
0.037149
-0.122432
-0.053123
-0.025838
-0.036940
0.161355
0.429874
0.721799
1.054708
1.342807
1.346479
1.262120
1.079763
0.781409
0.427320
0.180615
-0.087448
-0.177604
-0.261657
-0.222237
-0.206113
-0.108599
0.012925
-0.041446
0.016175
0.040655
0.078661
0.100315
0.055461
0.108536
0.011357
0.020856
0.007988
-0.051891
0.123041
0.016177
0.117600
-0.010192
0.025062
0.044534
0.104470
0.047236
0.055340
0.099566
0.113011
0.148977
0.138725
0.170351
0.113435
0.137118
0.155987
0.216056
0.210376
0.178704
0.235255
0.327946
0.250149
0.284897
0.292115
0.286989
0.369962
0.381388
0.386174
0.456539
0.405164
0.396527
0.443409
0.410290
0.583929
0.471719
0.439312
0.454943
0.470641
0.530140
0.463299
0.536189
0.547321
0.364050
0.443529
0.496924
0.481779
0.392827
0.439029
0.395587
0.365147
0.320035
0.330653
0.347415
0.279924
0.192683
0.291557
0.239099
0.171043
0.145335
0.149451
0.072746
0.153585
0.159602
0.106198
0.149141
0.049104
0.150596
0.050251
-0.011957
0.091225
0.032509
0.021184
0.101428
0.039185
-0.074857
0.059842
0.072412
0.011549
0.042149
-0.084387
-0.028585
0.008479
-0.035699
0.000667
0.041822
-0.082938
0.017198
0.011161
-0.028729
0.001370
-0.033289
0.016985
-0.024493
-0.046527
-0.082358
-0.044719
0.001863
-0.002324
-0.136078
-0.093133
0.019477
0.032184
-0.021121
-0.014016
0.009679
-0.042785
-0.033804
-0.037214
-0.059632
-0.022341
-0.076663
-0.008220
-0.105263
-0.016729
-0.006674
-0.011823
-0.068980
-0.036615
-0.085371
-0.022756
0.007220
-0.085710
-0.031727
-0.058386
0.005170
-0.076794
-0.006630
0.031469
-0.003039
0.026686
-0.103068
-0.067804
0.023338
-0.055637
-0.075601
-0.030937
-0.089199
-0.051936
0.000099
0.058848
-0.044058
-0.034581
0.017808
-0.063606
-0.045041
-0.070443
-0.089130
-0.109028
-0.006616
0.015521
-0.037307
-0.008508
-0.029569
-0.043913
0.005674
0.003890
0.009725
0.037664
-0.000765
0.052501
0.042513
0.001651
0.059034
-0.004627
0.089710
0.160521
0.135661
0.096100
0.117663
0.064929
0.143226
0.095227
0.173975
0.173059
0.176756
0.170811
0.243960
0.171366
0.138214
0.068994
0.019394
0.039352
0.101508
0.118377
0.045227
0.027648
-0.023358
-0.022354
0.024534
0.042090
0.059080
-0.073436
0.020705
0.010208
0.061200
0.066897
0.021444
-0.094347
-0.043108
-0.038356
-0.069741
-0.030791
-0.026499
-0.093754
0.036870
-0.020203
-0.013846
0.032237
-0.070011
-0.032043
-0.050406
-0.052345
-0.037672
-0.046606
-0.020248
-0.099112
-0.103640
-0.093911
-0.162396
-0.055377
0.085788
0.421209
0.615452
0.941983
1.231348
1.348989
1.335149
0.960488
0.738689
0.504362
0.122118
-0.136557
-0.332411
-0.286774
-0.307401
-0.309630
-0.175701
-0.078948
-0.101087
-0.007271
0.075509
-0.032099
-0.020038
-0.001712
0.029573
-0.014223
0.047166
-0.082821
-0.062740
0.073363
-0.004543
-0.005801
-0.014950
0.062898
0.027601
0.009587
0.044791
0.012582
0.036248
0.034711
0.059770
0.052711
0.050798
0.075601
0.039131
0.118768
0.155145
0.259335
0.193875
0.216210
0.215331
0.155838
0.261170
0.264114
0.293034
0.359115
0.406670
0.388491
0.375948
0.451073
0.402123
0.428078
0.451136
0.377300
0.486096
0.491273
0.429550
0.454652
0.446283
0.498600
0.484648
0.414369
0.428469
0.486902
0.432575
0.433737
0.438765
0.358891
0.452534
0.363594
0.328351
0.235657
0.271600
0.280145
0.296469
0.148913
0.195679
0.167863
0.118170
0.152099
0.179249
0.232779
0.098669
0.044169
0.092101
0.058752
0.053689
0.116947
0.079852
0.099090
0.034994
-0.005720
-0.036228
-0.008691
0.026160
-0.033668
-0.018615
0.063696
-0.018257
0.019869
-0.001120
0.030143
-0.016392
0.019630
0.044338
0.034850
-0.026128
-0.011951
0.020336
-0.026956
0.062788
-0.020048
-0.047349
-0.001954
-0.010524
0.012185
0.033448
0.027244
0.032732
0.074169
0.056365
-0.042679
-0.006728
-0.025444
-0.043135
-0.031188
0.033138
-0.034497
0.013414
0.010603
-0.039012
0.083397
-0.012796
0.007478
-0.026583
0.018849
0.054558
-0.011322
-0.025052
0.012839
0.033271
-0.028124
0.036147
0.003384
0.001183
0.062167
0.028718
-0.004846
-0.011490
0.080459
-0.010967
0.057148
0.016214
0.015947
0.019544
0.006726
0.083114
0.013963
0.046727
0.030371
0.033054
0.028928
0.069974
-0.023560
0.012571
-0.087320
-0.026470
0.004886
0.020165
0.056101
0.048709
-0.021670
0.075367
0.103774
0.030332
-0.011962
0.115979
0.017473
0.106150
0.054600
0.081279
0.101210
0.130149
0.208491
0.086523
0.109707
0.132201
0.101601
0.181858
0.138930
0.180024
0.204088
0.156447
0.191225
0.234432
0.171485
0.237876
0.110390
0.179981
0.288063
0.208282
0.217059
0.200856
0.165642
0.165217
0.155189
0.121890
0.128387
0.153572
0.120604
0.146513
0.080314
0.141479
0.053916
0.111551
0.033819
0.080335
0.072736
0.073127
0.088087
0.006595
0.045724
0.077582
0.022836
0.080341
0.000016
0.132133
0.052270
0.023653
0.072805
0.043655
0.062979
0.064724
0.059769
0.050381
0.052527
0.000165
-0.051827
0.035950
0.049833
0.236991
0.428536
0.753921
1.064101
1.327923
1.500000
1.440723
1.136453
0.827917
0.521787
0.206384
-0.034647
-0.162671
-0.207224
-0.181654
-0.114677
-0.053245
0.014631
0.070926
0.109770
0.085917
0.039353
0.067897
0.103116
0.122127
0.080922
0.083131
0.071908
0.091475
0.075577
0.124238
0.148925
0.148301
0.124840
0.099429
0.043361
0.073111
0.199026
0.194635
0.180155
0.214304
0.125966
0.233187
0.168722
0.276043
0.326224
0.287275
0.301073
0.279588
0.326610
0.345674
0.361113
0.392541
0.410033
0.380868
0.468492
0.495193
0.422315
0.468531
0.454570
0.578551
0.508849
0.525529
0.539269
0.609827
0.547337
0.591170
0.612950
0.501945
0.567688
0.543952
0.599551
0.615058
0.543845
0.597330
0.522998
0.475202
0.475206
0.459329
0.397388
0.394477
0.430316
0.358300
0.387216
0.356064
0.262121
0.329901
0.240456
0.279887
0.204168
0.220337
0.264423
0.223083
0.166515
0.148018
0.183800
0.171835
0.194868
0.165064
0.090747
0.128232
0.191156
0.127737
0.183038
0.135047
0.146462
0.117234
0.079654
0.082543
0.159868
0.146143
0.005638
0.025326
0.074457
0.071621
0.057262
0.078971
0.075719
0.052078
0.136690
0.088945
0.041965
0.131386
0.125609
0.067091
0.118929
0.139708
0.087636
0.107102
0.075479
0.089081
0.077037
0.120378
0.167387
0.093644
0.069813
0.086028
0.123456
0.024838
0.062465
0.104497
0.119781
0.109013
0.073534
0.100750
0.061490
0.077946
0.055934
0.066326
0.095951
0.108056
0.035400
0.110333
0.111674
0.020946
0.087276
0.090574
0.071609
0.100151
0.044107
0.103906
0.072963
0.123609
0.092035
0.045291
0.136290
0.042775
0.104068
0.137508
0.131391
0.084130
0.176648
0.035760
0.077369
0.092136
0.100443
0.113193
0.098781
0.107485
0.070936
-0.007551
0.096123
0.050532
0.045367
0.074844
0.097919
0.118560
0.045547
0.055814
0.079157
0.099370
0.123332
0.181064
0.123405
0.154676
0.089841
0.168282
0.220809
0.162421
0.261970
0.177116
0.200837
0.201697
0.288110
0.254573
0.250637
0.218928
0.211472
0.167858
0.202877
0.164832
0.160158
0.163079
0.187454
0.164872
0.138979
0.210882
0.152780
0.150089
0.089805
0.167286
0.136720
0.064241
0.080841
0.120250
0.062399
0.056986
0.113812
0.019104
0.087645
0.003155
0.092295
0.014384
-0.024392
0.062512
0.042355
0.046159
0.062722
-0.001979
0.055312
0.072010
0.073147
-0.017448
0.004166
0.081116
0.132167
-0.010021
-0.011790
-0.035727
0.007389
0.159694
0.367583
0.730707
1.100314
1.279119
1.327501
1.333966
1.120205
0.786663
0.462242
0.161922
-0.063064
-0.152500
-0.258036
-0.293968
-0.166637
-0.080474
0.022157
0.004940
0.012417
0.064303
0.010059
0.059540
0.037981
-0.025233
-0.023745
0.100729
0.052576
0.029850
-0.019557
0.086094
0.092410
0.026074
0.048891
0.016911
0.084839
0.072409
0.096341
0.161684
0.056867
0.125175
0.108465
0.175247
0.184806
0.120982
0.216526
0.282674
0.194912
0.246191
0.198469
0.273689
0.213380
0.229370
0.334851
0.406662
0.397321
0.306978
0.407257
0.439025
0.400098
0.446419
0.508252
0.514254
0.418088
0.435398
0.466574
0.520157
0.521144
0.572845
0.585529
0.436505
0.499804
0.508542
0.400445
0.380108
0.498419
0.352073
0.367906
0.362161
0.396749
0.316858
0.320090
0.343077
0.307072
0.171525
0.232643
0.217703
0.180627
0.171784
0.176065
0.127210
0.115706
0.122858
0.139590
0.018987
0.027659
0.065033
0.057026
0.048462
0.037528
-0.100340
-0.015157
-0.043629
-0.010885
-0.014272
-0.034216
0.001604
0.009502
-0.072661
0.038958
-0.063611
-0.020271
-0.062949
-0.100679
-0.030060
-0.064757
-0.079771
-0.024533
-0.022710
-0.008141
0.013740
-0.022877
-0.002035
0.030366
-0.088470
-0.013503
-0.112976
-0.107100
-0.086535
-0.088566
-0.055620
-0.039877
-0.052930
-0.100227
-0.057322
-0.043860
-0.003272
-0.126067
-0.031006
-0.046829
-0.131640
-0.050093
-0.016402
-0.079811
-0.008290
-0.019363
-0.064199
-0.004739
-0.032622
-0.103903
-0.026689
-0.083947
0.004770
-0.073595
-0.123928
-0.078084
-0.133764
-0.095866
0.032423
-0.139993
-0.099673
-0.096486
-0.001067
-0.084646
-0.034785
-0.071516
-0.029692
-0.112809
-0.126984
-0.002847
0.053470
-0.107694
-0.115962
-0.097317
-0.064269
-0.047471
-0.039614
-0.117256
-0.052185
-0.093541
-0.059555
0.042290
-0.019381
0.025791
-0.010688
-0.090989
-0.059039
-0.016637
0.012194
-0.082449
-0.039979
0.003881
0.010674
0.009037
-0.001187
0.038025
0.024251
0.004894
0.078608
0.064869
0.071593
0.060680
0.089307
0.157339
0.042920
0.071209
0.108448
0.115420
0.101727
0.071148
0.072913
0.111377
0.039783
0.019398
0.063792
0.042194
0.019125
0.027000
0.013687
-0.052948
-0.004321
-0.009806
-0.042139
-0.019609
-0.050124
-0.013861
-0.052978
0.011105
-0.035287
0.019690
0.032011
-0.052420
-0.097580
-0.051216
0.043974
-0.085452
-0.063527
-0.066380
-0.124665
-0.058228
-0.150537
-0.090712
0.010799
-0.084672
-0.069963
-0.115094
-0.083413
-0.155042
-0.107925
-0.026101
-0.021244
0.274498
0.708245
0.952299
1.210255
1.281459
1.191694
1.002083
0.708013
0.378169
0.055134
-0.215690
-0.360737
-0.303165
-0.338648
-0.312591
-0.199753
-0.118213
-0.124602
-0.135447
0.000046
-0.043730
-0.075197
-0.121179
-0.068364
-0.100974
-0.068639
-0.063990
0.005968
0.009552
-0.063292
-0.051808
0.000610
-0.052114
-0.014166
-0.029412
0.008442
0.094429
-0.084648
-0.018667
0.032733
0.037175
0.021855
0.050510
0.037580
0.078546
0.199842
0.082959
0.126863
0.110365
0.218072
0.171022
0.236294
0.239741
0.159276
0.248857
0.283733
0.345258
0.326613
0.339444
0.381256
0.355582
0.426522
0.440056
0.432236
0.374988
0.405297
0.432986
0.443061
0.390712
0.454256
0.475802
0.466811
0.385081
0.419612
0.384270
0.425720
0.401630
0.287526
0.291486
0.263980
0.242402
0.243384
0.264276
0.228406
0.178837
0.224060
0.141621
0.136958
0.021445
0.073243
0.137340
0.022984
0.061087
-0.011349
0.101385
-0.005362
0.017474
0.035812
0.011146
-0.003999
-0.037526
-0.028719
-0.080388
0.005614
-0.112901
-0.029828
0.020606
-0.063868
-0.004779
-0.017342
-0.076062
-0.051033
-0.054388
-0.082081
-0.062847
-0.009608
-0.045807
-0.117026
-0.004874
-0.105619
0.022620
0.039793
-0.086502
-0.047691
-0.065056
-0.018266
-0.095262
0.039799
0.025769
-0.028829
-0.044344
-0.013893
-0.039527
-0.046355
-0.007440
0.068378
-0.039898
-0.028191
-0.084634
0.004607
-0.059954
-0.019151
-0.044099
-0.069064
-0.067360
-0.017914
0.008224
-0.091273
-0.084701
0.005965
-0.085243
-0.054152
-0.063926
-0.070528
-0.033198
-0.007528
-0.045223
-0.068754
-0.095103
0.057116
-0.018309
0.004183
-0.051164
-0.041878
0.032252
0.067358
-0.050453
0.010040
-0.015865
0.052967
-0.067215
0.000143
-0.032846
0.000396
0.007983
-0.005818
-0.041295
0.014720
0.002944
-0.003974
-0.051392
-0.029078
-0.020767
0.006090
0.023239
0.028889
0.046405
0.079455
-0.040164
-0.004644
0.116742
0.084502
0.115012
0.109946
0.161352
0.057101
0.118884
0.170665
0.216866
0.143720
0.246071
0.118777
0.149923
0.107470
0.232280
0.163791
0.168446
0.180940
0.135992
0.194117
0.177343
0.088081
0.078059
0.193850
0.070829
0.120893
0.073045
0.047589
0.076168
0.058567
0.135470
0.049652
0.059064
0.009347
-0.008256
0.053939
0.054850
0.056060
-0.024589
0.014896
0.035941
-0.020796
0.037272
-0.000558
0.026803
-0.018935
0.097822
-0.047691
0.040349
-0.027360
0.079430
-0.076619
0.006002
0.081145
-0.006097
-0.127771
-0.033734
-0.008853
0.052456
0.234666
0.439471
0.718221
1.074186
1.245047
1.354614
1.283434
1.142361
0.842975
0.509063
0.216891
-0.031697
-0.194424
-0.313235
-0.260992
-0.218281
-0.124750
-0.094215
-0.067731
0.036005
0.001713
0.088708
0.023570
0.061449
0.020157
0.009201
0.033103
0.018819
0.054433
0.080785
0.004833
0.072767
0.117649
0.122300
0.053016
0.178239
0.040340
0.045362
0.139670
0.081748
0.012706
0.191850
0.134311
0.249156
0.163559
0.211115
0.188414
0.269870
0.273255
0.284996
0.277275
0.290518
0.291598
0.356187
0.403650
0.433863
0.353375
0.419919
0.404043
0.399201
0.494979
0.471344
0.524681
0.518221
0.406478
0.496922
0.574389
0.540263
0.551378
0.582903
0.565682
0.463701
0.511067
0.443642
0.537335
0.513977
0.392516
0.545230
0.343838
0.447881
0.420819
0.368768
0.402151
0.226018
0.341874
0.269673
0.265699
0.292568
0.228282
0.202014
0.216664
0.168084
0.194978
0.111512
0.129470
0.129917
0.125116
0.026648
0.113472
0.104459
0.111188
0.199971
0.023230
0.064520
0.082301
0.119260
0.085629
0.049243
0.016486
0.072391
0.046138
0.119455
0.066310
0.058823
0.062679
0.041296
0.051749
0.062222
0.049523
0.046224
0.006174
0.107875
0.030259
-0.020033
0.023470
0.052386
0.029728
0.128550
0.047844
0.036215
0.056067
0.032589
0.077181
-0.042750
0.053241
0.116736
0.092802
0.021489
0.042667
0.010601
0.069013
0.102455
0.070696
0.041814
0.101971
-0.059052
0.038533
0.036581
0.003396
0.061839
0.007448
0.101135
-0.033722
0.164011
0.061568
0.053818
0.078663
0.007794
0.049352
0.075077
-0.014249
0.038960
0.033314
0.016664
0.063585
0.060968
0.062366
0.059207
-0.006844
0.008370
0.005199
0.073613
0.052149
0.101542
-0.004849
0.019244
0.012058
0.034008
-0.026125
0.056289
-0.003698
0.041030
0.031094
0.002092
0.006780
-0.028947
0.067494
0.126577
0.096625
0.042536
0.074920
0.084607
0.093592
0.110420
0.119346
0.055910
0.129969
0.174004
0.132142
0.204839
0.197176
0.120762
0.206022
0.152815
0.163459
0.249480
0.159204
0.168912
0.224387
0.167273
0.212779
0.114910
0.186893
0.105482
0.174450
0.133714
0.112885
0.062328
0.073267
0.097268
0.021392
0.045600
0.012729
0.039842
0.071213
0.029775
0.040281
0.056463
0.043157
0.053723
0.048869
0.063674
0.079016
-0.073980
0.033958
0.071774
0.012548
0.063726
0.016925
-0.016980
0.100394
-0.038009
-0.012629
-0.011158
-0.044283
0.011290
0.019856
-0.046977
-0.054874
0.030895
0.173944
0.377285
0.684509
0.958084
1.233621
1.311514
1.359814
1.149636
0.766771
0.364999
0.101880
-0.086111
-0.311637
-0.312859
-0.265190
-0.232949
-0.151887
-0.061294
-0.011170
-0.005119
-0.062898
-0.022778
0.038202
0.014656
0.019684
0.018344
-0.014799
-0.039564
-0.060442
-0.007256
0.001414
0.073895
0.037420
0.017564
0.009997
0.053813
0.049092
0.054317
0.114465
0.020451
0.135970
0.048095
0.094733
0.088218
0.096534
0.048995
0.166532
0.235944
0.204163
0.218947
0.218372
0.208539
0.138475
0.210612
0.330360
0.265204
0.382862
0.304309
0.364778
0.444080
0.432376
0.395975
0.374160
0.336226
0.375135
0.413184
0.506748
0.491389
0.383615
0.529376
0.450813
0.374559
0.327072
0.449988
0.385539
0.355973
0.452780
0.303236
0.324322
0.331708
0.279294
0.305506
0.297987
0.281044
0.317885
0.146177
0.117147
0.205253
0.101693
0.073771
0.036502
-0.024288
0.094748
0.050204
0.033312
0.063544
0.061363
0.005480
-0.040875
-0.065453
0.034406
0.036802
-0.036595
-0.031888
-0.034629
-0.089191
-0.010964
-0.048042
-0.059318
-0.053836
-0.004415
-0.084782
-0.073693
-0.074734
-0.062173
-0.051837
-0.090940
-0.070016
-0.034490
-0.094318
-0.048196
-0.052649
-0.090364
-0.072606
-0.037137
-0.060653
-0.021040
-0.055448
-0.103751
-0.067103
0.035686
-0.053037
-0.124908
-0.094414
-0.099583
-0.083058
-0.062432
-0.064806
-0.080397
-0.081942
-0.145692
-0.035887
-0.131199
-0.068500
-0.108068
-0.053029
-0.018962
-0.033065
-0.067168
-0.088904
-0.077633
-0.027111
-0.016481
-0.127181
-0.018274
0.008217
-0.027509
-0.035115
-0.010648
-0.052716
-0.084457
-0.114942
-0.114147
-0.126713
-0.083190
-0.075078
-0.115457
-0.113953
-0.112466
-0.051991
-0.098340
-0.102270
-0.097360
-0.064466
-0.090413
-0.149512
-0.157371
-0.031428
-0.041764
-0.164401
-0.137449
-0.100742
-0.005268
-0.005985
-0.090033
-0.009652
-0.072583
-0.073807
-0.005498
-0.013117
-0.116238
-0.027277
0.022034
-0.071558
0.114617
0.006759
0.019636
-0.006803
0.058013
0.124478
0.024336
0.029335
0.161579
0.102207
0.016897
0.058543
0.074477
0.131958
0.064947
0.001388
0.132073
0.139020
0.015694
0.002714
0.045141
-0.028374
0.067754
0.037783
-0.015214
-0.057485
-0.054812
-0.026463
-0.035101
-0.056687
-0.054890
-0.065132
-0.088968
-0.174151
-0.035596
-0.034372
-0.076486
-0.118812
-0.022486
-0.174798
-0.128050
-0.114879
-0.040455
-0.081442
-0.155839
-0.149311
-0.064983
-0.117845
-0.092571
-0.082991
-0.109296
-0.086059
-0.128117
-0.164714
-0.131563
-0.079158
0.112597
0.255440
0.627229
0.910533
1.192529
1.358400
1.109627
1.070432
0.714304
0.425009
0.043876
-0.155861
-0.322859
-0.337203
-0.287349
-0.312840
-0.151354
-0.247153
-0.137015
-0.073981
-0.074628
0.006671
-0.046860
-0.082938
-0.012177
-0.116918
-0.020588
-0.023154
-0.050990
-0.051953
-0.063474
-0.056420
-0.035922
-0.008002
-0.052847
-0.036625
-0.015560
-0.017943
-0.084848
-0.056891
0.010549
0.045189
0.035442
0.048165
0.057469
0.034226
0.042347
0.143968
0.073565
0.142743
0.173181
0.249765
0.230815
0.321050
0.321119
0.228476
0.374210
0.287767
0.329837
0.373777
0.312534
0.367747
0.371332
0.418957
0.429428
0.328628
0.450116
0.482937
0.458648
0.421260
0.405923
0.420626
0.360180
0.387440
0.364579
0.336664
0.328638
0.384455
0.291511
0.355699
0.261602
0.244743
0.274791
0.186086
0.212374
0.177099
0.188381
0.143549
0.110166
0.118169
0.134233
0.092984
0.032995
0.080844
0.005624
0.100546
-0.027954
-0.045192
-0.053055
-0.032696
-0.084341
-0.048454
-0.011148
-0.094840
-0.045333
-0.045054
-0.015291
-0.095564
-0.021149
-0.067035
-0.109764
-0.082908
-0.002997
0.058142
-0.103222
-0.049531
-0.027029
-0.028990
-0.041347
-0.070066
-0.106037
-0.043774
-0.066976
-0.030045
-0.045011
-0.017992
0.024815
-0.053389
-0.112211
-0.106091
-0.031231
-0.068215
0.044741
-0.004958
-0.073883
-0.001421
-0.053034
-0.094534
-0.085894
-0.012037
-0.089318
-0.062722
-0.080268
-0.020311
-0.005517
-0.076610
-0.085888
-0.021266
-0.063135
0.015635
0.014177
-0.040308
-0.054601
-0.009168
0.069852
0.022619
0.008552
-0.092737
-0.062221
0.002758
0.000032
-0.046533
-0.010997
0.050833
-0.012279
-0.068546
-0.002957
-0.012080
0.064660
0.050198
0.080461
0.063070
-0.037541
-0.004909
-0.065958
0.025511
0.037824
0.007292
-0.044202
-0.056776
0.013758
-0.001340
-0.046104
0.012183
-0.003157
0.068702
0.013684
0.005666
0.009821
0.023843
0.001281
0.122285
0.030564
0.153161
0.070272
0.124084
0.140239
0.094324
0.139750
0.103093
0.157894
0.184840
0.165376
0.183353
0.191960
0.116060
0.197645
0.108497
0.173463
0.150911
0.167619
0.131790
0.093987
0.180722
0.036035
0.079988
0.008633
0.022075
0.104846
0.097425
0.091568
0.060726
0.050913
0.007682
0.048188
0.037590
0.047529
0.031939
0.007970
0.069695
-0.021919
-0.017069
0.036018
0.001673
0.102246
0.079068
0.061771
-0.004370
0.023048
-0.011409
0.078965
0.060870
0.047737
0.011295
0.029647
0.007480
-0.058403
-0.091477
-0.051319
-0.012504
0.162136
0.397525
0.703852
1.018859
1.265962
1.396118
1.313345
1.055560
0.805144
0.491993
0.152987
-0.040129
-0.138588
-0.237082
-0.215426
-0.205348
-0.012309
-0.028615
-0.028254
0.033372
0.057999
0.061444
-0.016237
0.005858
0.002639
0.005289
0.142852
0.078818
0.053480
-0.022926
0.007893
0.115608
0.032643
-0.006134
0.131320
0.185928
0.133107
0.071082
0.186332
0.124181
0.159938
0.175290
0.177229
0.113139
0.196037
0.177803
0.217785
0.247905
0.274354
0.268740
0.269932
0.254903
0.336955
0.399144
0.384879
0.354645
0.392519
0.405854
0.464896
0.446211
0.471988
0.520059
0.507301
0.527812
0.510877
0.526547
0.501185
0.540541
0.529467
0.546903
0.534227
0.526508
0.490071
0.452256
0.411932
0.551748
0.486161
0.456500
0.449193
0.373486
0.358272
0.421123
0.380592
0.297562
0.356481
0.249548
0.276289
0.230171
0.299300
0.178967
0.204148
0.264940
0.237224
0.169700
0.110841
0.204256
0.179582
0.192223
0.164026
0.050014
0.136501
0.142506
0.043983
0.146395
0.049256
0.081118
0.023920
0.132650
0.114215
0.041789
0.047201
0.000283
0.067317
0.060804
0.088692
0.042955
0.048409
-0.016912
0.062256
0.135120
0.002752
0.152690
0.055633
0.030583
0.089838
0.146378
0.023867
0.095457
0.070714
0.103798
0.076158
0.094749
0.056759
0.074909
0.171832
0.063897
0.016813
0.151447
0.078800
0.020521
0.090517
0.033311
0.094600
0.042584
-0.028948
-0.018962
0.061909
0.014388
0.132756
0.001110
0.046536
0.081737
0.146087
0.100928
0.083081
