-0.084190
-0.055350
0.071108
0.001683
-0.035395
-0.025209
-0.001121
0.042450
-0.019008
0.065313
0.049267
0.011163
0.000681
0.064061
0.029653
0.059622
0.048459
-0.027694
0.034371
0.077934
0.107565
0.008801
0.130121
-0.005335
0.110600
0.032232
0.111334
0.099305
0.179689
0.213383
0.112263
0.092809
0.248305
0.195830
0.165850
0.149227
0.191679
0.208608
0.225155
0.221679
0.207060
0.222863
0.259176
0.270276
0.194119
0.134010
0.191444
0.140659
0.167673
0.194985
0.042315
0.083629
0.157740
0.094255
0.102421
0.110154
0.031902
0.106752
0.010485
-0.010212
0.053264
0.125876
0.070753
0.038482
0.023179
0.025920
0.008427
0.022357
0.034856
0.103436
0.191637
0.429232
0.670503
1.151424
1.367608
1.453137
1.319066
1.130610
0.826264
0.294022
0.099040
-0.010844
-0.114014
-0.119518
-0.113150
0.092262
0.067304
0.046720
0.051968
0.087430
0.098281
0.177013
0.119915
0.129436
0.140538
0.181673
0.251658
0.326367
0.234386
0.229327
0.179152
0.275844
0.317164
0.301423
0.283947
0.417790
0.427907
0.442798
0.339257
0.385412
0.478583
0.427339
0.455206
0.521949
0.452887
0.529644
0.584927
0.573413
0.582977
0.511877
0.595668
0.605031
0.592411
0.617145
0.601122
0.591155
0.504883
0.550203
0.574151
0.629207
0.547630
0.507893
0.518514
0.499504
0.507318
0.389245
0.364562
0.393753
0.359249
0.386483
0.256886
0.309534
0.244784
0.239599
0.247055
0.366965
0.264496
0.260059
0.190968
0.240836
0.192167
0.154575
0.180717
0.157182
0.127415
0.142775
0.187599
0.109394
0.054396
0.121432
0.149002
0.013111
0.061527
0.037751
0.130896
0.076430
0.110378
0.164604
0.141807
0.064447
0.168965
0.128922
0.096917
0.120392
0.057520
0.191868
0.108396
0.155615
0.239183
0.027449
0.095440
0.089074
0.041146
0.065395
0.173440
0.085591
0.076268
0.104574
0.080722
0.092995
0.096332
0.097108
0.091735
0.061260
0.128118
0.093788
0.155758
0.071243
0.103845
0.056355
0.068547
0.030533
0.059516
0.090821
0.142225
0.084999
0.161911
0.020204
0.108447
0.115059
0.141987
0.199979
0.193765
0.155411
0.222683
0.252000
0.210320
0.295258
0.227366
0.174801
0.236313
0.255590
0.267830
0.238715
0.249850
0.324864
0.287380
0.265667
0.328552
0.246793
0.218953
0.164425
0.159185
0.228509
0.233903
0.200630
0.195743
0.160859
0.117379
0.168481
0.139513
0.156601
0.111340
0.172696
0.142086
0.071079
0.110198
0.033690
0.140652
0.113120
0.132222
0.037465
0.120323
0.111754
0.005293
0.053058
0.116992
0.116175
0.363584
0.628347
0.941701
1.246378
1.375599
1.500000
1.232992
0.969497
0.583861
0.264716
0.064717
-0.061709
-0.110070
-0.112688
-0.050151
-0.082505
0.113939
0.158837
0.120789
0.101588
0.166274
0.112965
0.126004
0.239916
0.147355
0.201242
0.146908
0.130250
0.198618
0.313388
0.252393
0.217453
0.340294
0.303640
0.401774
0.341145
0.312241
0.444530
0.477371
0.459274
0.428055
0.571085
0.472984
0.436920
0.561604
0.597813
0.598717
0.666201
0.567934
0.573909
0.503327
0.554621
0.549452
0.568951
0.569498
0.563331
0.487543
0.589254
0.543806
0.567359
0.569345
0.420477
0.409881
0.484620
0.389170
0.443121
0.385521
0.333478
0.294966
0.284486
0.277401
0.306496
0.300912
0.259004
0.250300
0.147522
0.206568
0.090147
0.246865
0.146670
0.079164
0.114567
0.119842
0.176474
0.012010
0.064993
0.066230
0.039669
-0.004699
-0.011077
0.059970
0.048487
0.112999
0.001860
0.019243
0.041141
0.052183
0.026757
0.013250
0.068686
0.014923
-0.005249
0.030857
0.053508
0.016542
0.081660
0.051758
0.089033
0.001989
0.024490
-0.002851
0.070944
0.042874
0.093078
0.016099
0.014756
0.059387
0.062431
0.000894
0.073455
-0.047165
0.002763
0.069049
0.095249
-0.062199
0.020274
0.035311
0.026119
0.043402
-0.027945
0.053253
-0.014292
0.001067
-0.031732
-0.039051
0.095451
0.157264
0.033182
0.091916
0.089844
0.128277
0.096111
0.127369
0.058722
0.156118
0.087694
0.141200
0.213511
0.103396
0.170241
0.227805
0.122492
0.115879
0.246200
0.170725
0.145413
0.175300
0.165870
0.144501
0.115894
0.160363
0.110653
0.122986
0.076688
0.033945
0.057874
0.014731
0.092587
0.075111
0.066116
0.067076
0.068891
-0.024201
0.042004
0.073621
0.004335
0.087793
0.042702
-0.017196
0.017585
0.002318
-0.099762
0.067575
-0.006032
-0.033956
-0.000791
0.019929
0.162882
0.397165
0.702681
1.037401
1.232363
1.334921
1.327756
0.983214
0.642220
0.335002
-0.004004
-0.050360
-0.227274
-0.179626
-0.105458
-0.154861
-0.037271
-0.018246
-0.099254
-0.007829
0.012934
0.040174
0.021014
0.060474
0.214324
0.147639
0.142786
0.185748
0.118540
0.267907
0.162061
0.157738
0.185475
0.273957
0.281826
0.297159
0.233006
0.368710
0.272015
0.302311
0.331953
0.416606
0.380425
0.366123
0.281800
0.462898
0.407133
0.483598
0.510789
0.388337
0.446596
0.446486
0.468157
0.559410
0.452082
0.516841
0.433762
0.379405
0.420597
0.387941
0.417637
0.414361
0.366015
0.481999
0.318877
0.293165
0.310353
0.289883
0.290743
0.243553
0.202188
0.122246
0.210489
0.116417
0.225475
0.150038
0.200862
0.129317
0.056390
0.070094
0.147787
-0.010237
0.047591
0.132568
0.034386
-0.081193
-0.021220
0.114099
0.010930
-0.008973
-0.015999
-0.052264
-0.120486
-0.005450
-0.114827
-0.041817
-0.017071
-0.057808
-0.048244
-0.073670
-0.063833
-0.051584
-0.054046
-0.113508
-0.076758
-0.079913
0.041114
-0.014783
-0.015684
-0.031981
0.012023
-0.056463
-0.071855
-0.060191
0.027323
-0.117146
-0.040133
-0.099038
-0.059621
-0.065228
0.007691
-0.109473
-0.013441
-0.107800
-0.045024
-0.024857
-0.010553
0.003729
0.018524
0.004322
-0.010451
-0.042813
-0.017604
-0.009812
-0.036435
-0.018117
0.062436
-0.055940
-0.016053
-0.009407
-0.004083
0.060919
0.019646
0.006802
0.022466
0.128287
0.074724
0.130431
0.198332
0.125549
0.086269
0.084844
0.158584
0.162333
0.128955
0.168184
0.152774
0.186325
0.159086
0.082792
0.189755
0.087107
0.066721
0.105583
0.136002
0.053945
0.143668
0.091192
0.034968
0.083223
0.088230
0.017949
-0.027535
-0.046716
0.017155
0.011749
-0.073937
0.067528
-0.004099
-0.092272
-0.014708
-0.098610
-0.074789
-0.056615
-0.063277
-0.027571
-0.053742
0.064465
0.259041
0.449670
0.818582
1.112119
1.327053
1.450445
1.222742
0.883420
0.501585
0.113872
-0.107685
-0.292978
-0.217595
-0.209414
-0.051603
-0.090798
0.021028
0.015142
-0.047516
-0.035699
-0.003178
-0.063795
0.105890
0.088209
0.009678
0.171795
0.119961
0.091485
0.130565
0.176469
0.107592
0.187980
0.307143
0.240411
0.185126
0.261540
0.303247
0.280145
0.294787
0.323598
0.391471
0.469750
0.478307
0.485082
0.528381
0.477387
0.444543
0.520439
0.453110
0.424512
0.433659
0.590402
0.599288
0.519807
0.480860
0.518373
0.454195
0.478763
0.463858
0.484964
0.453521
0.397871
0.450353
0.408236
0.273408
0.336648
0.426152
0.238993
0.247869
0.309525
0.212633
0.224639
0.125467
0.114416
0.228180
0.133278
0.144253
0.195964
0.163776
0.094944
0.028935
0.105398
0.093964
0.045939
0.126612
0.091898
-0.002180
0.026560
0.013728
-0.008397
0.018549
0.093935
0.039645
-0.008183
0.017147
0.023694
-0.009184
0.021131
0.042088
-0.021641
-0.027890
0.031165
0.012958
0.055746
0.008254
0.002794
-0.037887
0.082745
0.036319
0.077019
0.001316
0.038608
-0.012325
-0.008153
0.009885
0.093912
0.017842
-0.086143
0.101676
0.021299
0.007913
0.056102
0.036113
-0.027223
0.022348
0.050721
-0.010377
0.077873
0.014318
0.027175
0.003336
0.037210
0.036949
0.025937
0.052221
0.084092
0.138903
0.031385
0.089411
0.080139
0.146566
0.110609
0.099646
0.146202
0.114673
0.129586
0.141756
0.247933
0.272653
0.275175
0.202794
0.174588
0.178717
0.161554
0.159870
0.279818
0.192748
0.259046
0.273432
0.125269
0.219239
0.224595
0.238267
0.113804
0.183213
0.130427
0.191073
0.132646
0.080709
0.081694
0.094913
0.136095
0.064258
0.086116
0.141085
0.089721
0.104869
0.100590
0.102334
0.015018
0.052367
0.038548
0.026092
0.014131
0.051660
0.082362
0.168941
0.251952
0.445378
0.792709
1.047497
1.391015
1.440735
1.366823
1.145259
0.773580
0.401061
-0.000393
-0.048052
-0.190604
-0.098783
0.020022
-0.002569
0.068427
0.077628
0.047606
0.085896
0.147643
0.136888
0.156306
0.161469
0.209394
0.273561
0.226256
0.194092
0.316717
0.275481
0.315040
0.309998
0.243445
0.271916
0.408122
0.365438
0.431268
0.419664
0.480598
0.467301
0.465640
0.518454
0.533694
0.551329
0.461531
0.551065
0.599927
0.566730
0.537086
0.616530
0.591100
0.642988
0.595358
0.575793
0.621030
0.588849
0.546852
0.576523
0.528869
0.617419
0.538201
0.508847
0.471786
0.479076
0.463260
0.449103
0.413336
0.330564
0.393702
0.428217
0.350139
0.238713
0.319098
0.376568
0.297510
0.186875
0.217185
0.239894
0.231790
0.213202
0.167290
0.151686
0.146756
0.161537
0.080947
0.152328
0.115728
0.154067
0.150111
0.062931
0.089764
0.258859
0.065013
-0.012802
0.119208
0.093304
0.098778
0.048035
0.136167
0.054803
0.082977
0.034814
0.124136
0.128857
0.119551
-0.029673
0.161014
0.111000
0.105358
0.113162
0.145851
0.103341
0.056958
0.113753
0.140373
0.090905
0.040928
0.088992
0.073543
0.103766
0.168688
0.097822
0.121380
0.139244
0.184845
0.044462
0.086289
0.146565
0.116211
0.033700
0.117988
0.038705
0.162954
0.094238
0.155756
0.192189
0.108284
0.133381
0.109023
0.184206
0.212480
0.105608
0.082264
0.192424
0.270503
0.134975
0.133911
0.219528
0.241902
0.233219
0.246696
0.290509
0.357249
0.271924
0.291880
0.304186
0.374257
0.262389
0.277670
0.202249
0.246899
0.226961
0.261541
0.244660
0.232607
0.190927
0.244707
0.171243
0.096049
0.120056
0.125950
0.151155
0.086948
0.137131
0.108723
0.115492
0.117223
0.064699
0.140081
0.070612
0.053949
0.053477
0.095658
0.031422
0.095012
0.072766
0.128895
0.165418
0.334086
0.601030
0.905521
1.205326
1.373984
1.432011
1.254999
0.929320
0.579544
0.229624
-0.054557
-0.135830
-0.149159
-0.102300
-0.013603
0.071850
0.073165
0.114364
0.149115
0.158639
0.016276
0.142668
0.132224
0.171241
0.161695
0.211179
0.237446
0.135925
0.259000
0.227551
0.241071
0.282007
0.284260
0.409200
0.312928
0.387426
0.334111
0.357241
0.437266
0.409501
0.418903
0.478504
0.553862
0.513734
0.432299
0.503706
0.512095
0.537248
0.547596
0.531795
0.505407
0.560154
0.606077
0.545291
0.600372
0.592419
0.531203
0.546795
0.543890
0.430948
0.471707
0.448134
0.363484
0.508423
0.341535
0.303210
0.345160
0.360652
0.281681
0.259731
0.284971
0.165994
0.259615
0.179694
0.222415
0.188779
0.169224
0.136862
0.145329
0.134546
0.106036
0.062746
0.113587
0.104390
0.076550
0.040006
0.098256
0.112085
0.159740
0.095890
-0.018714
0.003073
0.003727
-0.035238
0.035639
-0.005659
0.044784
0.024778
0.015893
0.110031
0.106916
0.069637
0.014652
0.048926
0.008145
0.049543
0.085574
0.003163
0.066616
-0.076479
0.013821
-0.003250
0.010054
0.021139
0.050609
0.013400
0.029286
0.058638
-0.000319
-0.007235
0.077922
0.061853
0.047607
-0.005371
-0.054570
0.064940
-0.011912
0.027288
0.005019
0.034450
0.018256
0.058486
0.019129
0.009049
0.019750
0.036138
0.029775
0.090178
-0.054893
0.064431
0.121181
0.017270
0.009090
0.087453
0.079684
0.183271
0.123485
0.148046
0.167873
0.168692
0.139735
0.114675
0.194409
0.135266
0.179959
0.163950
0.103662
0.155050
0.118983
0.152589
0.124639
0.172444
0.088438
0.103726
0.069884
0.073432
0.078445
0.139563
0.103471
0.098124
0.019961
-0.038141
0.016642
-0.022564
0.013372
-0.014791
-0.000795
-0.072927
0.049592
-0.011860
-0.044578
-0.014104
-0.027242
0.013341
-0.026527
-0.056531
0.014213
0.160897
0.416774
0.704538
0.954487
1.250827
1.374092
1.391522
0.923086
0.556822
0.263639
-0.046508
-0.239064
-0.243213
-0.175196
-0.162504
-0.046653
-0.023346
-0.058039
-0.038168
-0.005977
0.021618
0.010320
0.075424
-0.045574
0.075555
0.091842
0.060494
0.033598
0.100687
0.122529
0.189353
0.152674
0.115445
0.188576
0.283603
0.313186
0.264316
0.205766
0.279121
0.350448
0.399473
0.396877
0.475513
0.363498
0.363412
0.398859
0.402942
0.478320
0.426806
0.531910
0.431970
0.480139
0.491106
0.452091
0.472362
0.460879
0.413111
0.383850
0.401306
0.387608
0.369815
0.395660
0.417450
0.334915
0.329020
0.309634
0.260921
0.223533
0.250434
0.235280
0.156441
0.124943
0.101608
0.114041
0.138321
0.138445
0.060741
0.088733
0.092932
-0.032416
-0.030663
0.019998
0.052409
-0.064681
-0.002312
-0.047984
0.070054
-0.104859
-0.029338
-0.087055
-0.075235
-0.068846
-0.040774
0.052990
-0.149147
-0.064502
-0.061848
-0.079478
-0.043551
-0.092756
-0.032338
-0.105204
-0.018234
-0.067693
-0.080506
0.002432
-0.093830
-0.070495
-0.027208
-0.089872
-0.030362
-0.124871
-0.100132
0.012599
-0.079601
-0.037517
-0.139929
-0.162156
-0.132032
-0.104429
-0.157009
-0.074800
-0.078132
-0.123977
-0.088083
-0.164400
-0.166023
-0.132216
-0.079791
-0.058777
-0.070832
-0.058797
-0.163029
-0.114962
0.007535
-0.088942
-0.098164
-0.023219
-0.008734
-0.077382
0.045558
0.014368
0.055850
-0.024021
-0.052027
0.048073
-0.008563
-0.058521
0.103996
-0.002777
0.078938
0.087741
0.187470
0.064653
0.112596
0.098285
0.095631
0.137769
0.069838
0.059931
0.140330
0.132610
0.028136
0.011829
0.047091
0.063684
0.057265
0.026281
-0.010551
0.001902
-0.033028
0.041610
-0.089820
0.019352
-0.062706
-0.120854
-0.051442
0.033767
-0.127237
-0.077053
-0.031476
-0.035473
-0.036757
-0.176067
-0.058349
-0.076702
-0.078845
0.020789
0.231838
0.449732
0.817353
1.032544
1.226140
1.291902
1.116646
0.777042
0.439149
0.058915
-0.186941
-0.321686
-0.347325
-0.222071
-0.130875
-0.132014
-0.015531
-0.130770
0.009919
-0.044608
0.095585
-0.052901
0.059669
0.007559
-0.010706
0.002890
0.069233
0.035841
0.076690
0.097368
0.022189
0.056902
0.086990
0.145207
0.162130
0.243459
0.218296
0.235174
0.234711
0.251022
0.297386
0.360942
0.315139
0.376568
0.340179
0.412740
0.430222
0.380879
0.383460
0.449011
0.475299
0.499591
0.554137
0.465403
0.548678
0.382336
0.402840
0.441852
0.461681
0.447575
0.407923
0.334508
0.401210
0.370532
0.330502
0.342712
0.271193
0.288939
0.181277
0.286083
0.234674
0.231973
0.187212
0.179966
0.100720
0.085227
0.069590
0.023188
0.043342
-0.037454
0.048738
0.020538
-0.123965
0.037592
-0.009642
-0.040963
-0.015129
0.008642
0.108587
0.065609
-0.003193
0.009960
-0.031583
-0.032495
-0.024629
-0.040487
-0.034146
-0.021255
-0.021493
-0.053508
-0.066351
-0.051967
-0.034120
-0.064944
0.048393
-0.091081
-0.015485
-0.015103
-0.040833
-0.032051
-0.044663
-0.111682
-0.038577
-0.057725
-0.097268
-0.019848
-0.094076
-0.019817
-0.080292
-0.094438
-0.008702
-0.050699
-0.026742
0.026062
0.022798
-0.076679
0.032577
-0.012847
-0.035135
-0.055359
-0.017375
-0.071807
0.015254
-0.027705
-0.006790
-0.030828
0.017328
0.050078
-0.014156
-0.010093
-0.001409
0.082996
0.091548
-0.013713
0.129722
0.058818
0.079229
0.151791
0.128831
0.100574
0.115391
0.142910
0.219517
0.133108
0.146259
0.180550
0.143504
0.165990
0.138839
0.131465
0.158581
0.207074
0.135699
0.108550
0.183407
0.068339
0.105184
0.117187
0.141045
0.029827
0.093720
-0.024292
0.134752
0.066328
0.014629
0.086224
0.008297
0.002353
0.015853
0.028470
-0.015475
-0.074285
-0.057019
-0.004010
-0.026758
0.064617
0.077195
0.225273
0.394599
0.615685
1.030740
1.353262
1.371176
1.354756
1.084454
0.688930
0.364486
0.077188
-0.125293
-0.132444
-0.119717
-0.142532
-0.061795
0.021753
0.113285
0.068665
0.076097
0.091053
0.101321
0.158967
0.059276
0.236766
0.206060
0.095261
0.123641
0.129565
0.143202
0.210679
0.250467
0.246105
0.225854
0.263754
0.341239
0.365286
0.396705
0.446055
0.389769
0.425422
0.446234
0.388413
0.463452
0.416139
0.493489
0.479688
0.531672
0.452218
0.572242
0.602955
0.662894
0.631471
0.499209
0.629564
0.534890
0.532199
0.579294
0.436851
0.461168
0.486728
0.470792
0.481327
0.441916
0.468596
0.482371
0.360968
0.422435
0.314052
0.332011
0.253302
0.219418
0.218647
0.216112
0.207204
0.247559
0.267071
0.172265
0.161997
0.166091
0.080893
0.146262
0.072027
0.137231
0.144042
0.086724
0.144579
0.082505
0.028676
0.062322
0.057039
0.058066
0.080228
0.076803
0.057514
0.120503
0.002794
-0.007499
-0.021200
0.106938
0.138958
0.088943
0.142993
0.147647
0.117498
-0.001098
0.027900
0.052468
-0.059603
0.031550
0.097248
0.090099
0.076763
0.022808
-0.009298
-0.003017
0.019373
0.007761
0.025859
0.061121
0.019615
0.026927
0.118568
0.055772
0.005360
0.002412
-0.047869
0.023810
0.059199
0.057492
0.031399
-0.038553
0.034991
0.158453
0.084130
0.095040
0.088248
0.123350
0.087898
0.145965
0.245952
0.115186
0.096303
0.114800
0.225239
0.128599
0.142723
0.158497
0.120287
0.215556
0.164048
0.182927
0.252354
0.297593
0.269152
0.219753
0.283054
0.211350
0.323738
0.195307
0.239774
0.228447
0.130705
0.231483
0.100693
0.165450
0.154711
0.096297
-0.013908
0.133094
0.091662
0.046038
0.068519
0.030747
0.054688
0.055542
0.047818
0.141998
0.040612
0.066662
0.057843
0.033116
0.018435
-0.022953
-0.029845
-0.025670
0.143828
0.142386
0.301257
0.584202
0.841315
1.259997
1.410805
1.313704
1.193212
0.970353
0.492428
0.172374
-0.063388
-0.089410
-0.231715
-0.120025
-0.073389
-0.020994
0.065305
0.099847
0.037949
0.024219
0.065522
0.136570
0.060831
0.142241
0.170745
0.164342
0.184766
0.199877
0.144592
0.276934
0.216091
0.157344
0.220306
0.310070
0.275949
0.366923
0.367519
0.291018
0.369693
0.357989
0.427616
0.378353
0.493961
0.454536
0.453697
0.539063
0.449525
0.470869
0.513291
0.478831
0.497691
0.530770
0.499588
0.471344
0.546252
0.602230
0.443683
0.456708
0.500800
0.408722
0.472504
0.389395
0.393930
0.443922
0.425497
0.403040
0.368631
0.311678
0.189444
0.211991
0.299266
0.266524
0.267741
0.186590
0.218008
0.163648
0.137574
0.111475
0.122479
0.219868
0.094075
0.076006
0.061902
0.021374
0.109838
0.073915
0.116650
0.019628
0.066568
0.081572
-0.018875
0.031769
-0.001904
-0.000141
-0.076391
0.054214
0.011192
0.038838
-0.045257
0.056450
0.008013
-0.022345
-0.000694
0.073768
-0.015220
-0.009769
-0.009921
-0.014706
0.007276
-0.033448
0.037422
0.020624
0.033394
-0.057024
-0.092852
-0.054478
-0.012746
-0.041348
0.019341
0.011286
-0.036440
-0.052461
-0.020087
0.003940
-0.010723
-0.011939
0.022116
0.000348
0.093311
0.039682
0.016490
0.051280
-0.037391
-0.063755
-0.020625
0.063122
0.007334
0.054959
-0.022414
-0.000058
-0.001611
0.017429
-0.030832
0.034219
0.003729
0.131552
0.095343
0.093386
0.054265
0.075646
0.191643
0.141793
0.155273
0.125121
0.141833
0.159520
0.164043
0.153731
0.145385
0.104475
0.120244
0.116108
0.009868
0.099903
0.103802
0.094247
0.028736
-0.014332
0.022502
-0.014412
-0.058991
-0.048903
-0.077575
0.034309
-0.017763
0.003114
-0.045574
-0.133053
0.052316
-0.068087
0.016119
0.001006
-0.122992
-0.023672
-0.123083
0.023430
-0.014806
0.125580
0.381438
0.625633
0.992147
1.187454
1.332732
1.223611
0.950609
0.603557
0.242843
-0.055706
-0.268929
-0.273366
-0.224486
-0.112148
-0.110228
-0.035296
-0.046996
-0.176628
-0.054118
-0.026749
0.001313
-0.010570
0.050874
0.000472
0.091734
0.062413
0.023836
0.014407
0.073096
0.103666
0.092275
0.140456
0.144376
0.327638
0.207686
0.318450
0.153401
0.178154
0.328991
0.290413
0.337851
0.436071
0.373725
0.384747
0.471174
0.442532
0.413695
0.418546
0.348983
0.401463
0.429445
0.432437
0.396139
0.405396
0.423474
0.421560
0.409389
0.383728
0.446795
0.300032
0.385565
0.352205
0.286650
0.398624
0.300485
0.214172
0.191793
0.133508
0.102152
0.052444
0.143612
0.148793
0.092941
0.066482
0.036403
0.076267
0.109871
-0.026213
0.046037
0.006925
0.011951
-0.086401
-0.081006
-0.099364
-0.021563
-0.094949
-0.050562
-0.088856
0.000129
-0.072910
-0.024422
-0.114259
-0.066576
-0.103800
-0.075927
-0.100955
-0.042885
-0.053419
-0.034822
-0.157472
0.048546
-0.133990
-0.055266
-0.066611
-0.172352
-0.115122
-0.076619
-0.088192
-0.152566
-0.029779
-0.053977
-0.098245
-0.104488
-0.107542
-0.009470
-0.044722
-0.075139
-0.099900
-0.120348
-0.130020
-0.111026
-0.169572
-0.099842
-0.125086
-0.155466
-0.099610
-0.121678
-0.080617
-0.075461
-0.182203
-0.181256
-0.102804
-0.140674
0.021645
-0.114539
-0.077571
-0.081243
-0.071227
0.031318
0.009636
-0.011961
0.063050
0.026744
-0.069438
0.056332
-0.027433
0.129078
0.023388
0.057442
0.074455
0.005951
0.055964
0.104616
0.090688
0.084778
0.037852
0.055333
0.103170
0.038694
0.039032
0.068413
0.028973
-0.014610
-0.000153
0.037046
0.042210
-0.122066
0.018052
-0.057314
-0.088091
-0.043795
0.011508
-0.014054
-0.045311
-0.058058
-0.060703
-0.147611
-0.064197
-0.112131
-0.157420
-0.057362
-0.091655
-0.148254
-0.060909
-0.093275
0.004551
0.037236
0.125228
0.454275
0.732927
1.036169
1.188205
1.321032
1.097880
0.751254
0.355527
0.069540
-0.214403
-0.297455
-0.343572
-0.224952
-0.135568
-0.078593
-0.080591
-0.027131
-0.019419
-0.057218
0.033990
-0.060750
0.025634
-0.108565
-0.047900
0.071630
0.067387
0.068851
0.152749
0.037451
0.215449
0.183604
0.152948
0.137923
0.173064
0.219222
0.208934
0.276537
0.357329
0.346997
0.339519
0.323826
0.389627
0.298878
0.374278
0.400669
0.397538
0.449257
0.438830
0.450996
0.498816
0.446521
0.354988
0.456440
0.450625
0.449140
0.476583
0.385781
0.409747
0.354686
0.372710
0.352072
0.418361
0.352003
0.270035
0.246015
0.293096
0.372985
0.266636
0.219014
0.180764
0.153908
0.199430
0.153984
0.088644
0.107570
0.135750
0.047482
0.032747
0.048360
-0.028199
0.098427
0.010274
0.015574
-0.005172
-0.081835
-0.027816
-0.038176
-0.061187
-0.033094
0.034050
-0.026211
0.034685
-0.088714
-0.068199
-0.006108
0.025221
-0.019597
-0.052868
0.004771
-0.045037
-0.045690
0.037795
-0.046220
-0.065323
-0.077443
-0.145503
-0.079940
-0.030385
0.010115
-0.025932
-0.040279
-0.021971
-0.056245
-0.024437
0.000659
-0.023008
-0.005344
0.004714
-0.037277
-0.043329
-0.027386
-0.106134
0.001408
-0.003672
-0.002829
-0.085019
-0.021005
-0.045457
-0.039333
-0.028322
0.001893
-0.038684
-0.029492
-0.022217
-0.028309
-0.008826
-0.064773
0.069508
0.023870
0.054364
-0.000098
0.047619
0.112601
0.161715
0.167868
0.106751
0.137690
0.107710
0.109379
0.186680
0.144866
0.154578
0.142525
0.123838
0.165354
0.187544
0.133814
0.153477
0.162999
0.193981
0.190502
0.095660
0.065306
0.184494
0.105724
0.057280
0.122589
0.036755
0.068635
0.104590
0.050730
0.086589
0.000080
0.042120
0.009120
0.009769
0.053348
0.035888
0.110479
0.075765
-0.042147
0.001345
0.066137
-0.004884
-0.037175
0.119549
0.301759
0.360683
0.676240
0.984559
1.338126
1.433657
1.370917
1.145618
0.693341
0.311685
0.070850
-0.088992
-0.172902
-0.117594
-0.114696
-0.014432
0.016956
0.085890
0.103773
0.087573
0.095885
0.079626
0.040825
0.183013
0.183132
0.058938
0.168783
0.121553
0.173849
0.101199
0.265033
0.203134
0.184717
0.279721
0.277923
0.237840
0.348970
0.342050
0.396583
0.368608
0.465743
0.487580
0.516901
0.427343
0.523114
0.526885
0.503964
0.644279
0.606796
0.477648
0.564636
0.588192
0.549507
0.572969
0.543277
0.513735
0.563740
0.646614
0.563697
0.603340
0.456845
0.420143
0.466975
0.445610
0.478623
0.345337
0.338900
0.317376
0.331130
0.336262
0.313601
0.284756
0.261053
0.231190
0.278164
0.279844
0.270071
0.220818
0.179460
0.131215
0.145825
0.187605
0.069738
0.091201
0.088312
0.094838
0.103558
0.130101
0.151856
0.107537
0.122939
0.070932
0.050175
0.089245
0.058884
0.105312
0.089853
0.080191
0.027815
0.079102
0.094872
0.189456
0.088808
0.054642
0.001088
0.107900
0.113685
0.072854
0.022833
0.034861
0.108050
0.084285
0.033645
0.001989
0.051436
0.045522
0.138866
0.133009
0.079223
0.026268
0.027472
0.136338
0.075689
0.026706
0.092524
0.016248
0.036113
0.091466
0.105010
0.020317
0.077835
0.041995
-0.038015
0.043554
0.103474
0.185527
0.067220
0.144261
0.111377
0.164926
0.132164
0.111699
0.149012
0.195475
0.214060
0.157420
0.138645
0.160216
0.172727
0.227188
0.266689
0.264690
0.232652
0.341798
0.283996
0.246483
0.228934
0.259329
0.184390
0.228604
0.264273
0.255344
0.166814
0.202358
0.157566
0.170134
0.170365
0.190260
0.143288
0.115894
0.125136
0.174163
0.077719
0.123094
0.135729
0.052228
0.054412
0.205108
0.095024
0.082878
