0.046881
-0.046995
0.031552
0.015541
0.003089
0.036851
-0.020658
0.044249
-0.015031
0.085747
0.007848
-0.006152
0.022234
0.009342
0.060924
-0.016918
-0.014673
-0.028220
0.015205
0.000896
0.000729
-0.001786
0.028145
0.059901
0.081725
0.028577
0.068876
0.027771
0.006650
0.021077
0.091328
0.074476
0.036758
0.056030
0.215900
0.168574
0.148534
0.144227
0.121052
0.120703
0.123364
0.116282
0.164900
0.185656
0.233966
0.272486
0.231010
0.164137
0.186396
0.151570
0.182691
0.165312
0.181339
0.170410
0.208785
0.107661
0.101131
0.189861
0.101474
0.100610
0.052382
0.090900
0.014711
0.083812
0.066007
0.106872
0.100313
0.062957
0.007245
0.087492
0.036756
-0.004810
-0.002106
0.059483
0.080122
0.002435
-0.018076
0.087224
0.077766
0.088528
0.042406
0.037754
-0.027048
0.022516
0.030306
0.056051
0.133324
0.433784
0.746372
1.113298
1.301328
1.431428
1.329429
1.117676
0.726397
0.424906
0.107427
-0.070297
-0.186393
-0.224932
-0.172982
-0.101879
-0.082067
-0.041629
0.092459
0.029725
0.095440
0.016029
0.071392
0.121781
0.023803
0.147954
0.081390
0.090204
0.107770
0.046750
0.184283
0.075021
0.093874
0.141925
0.188123
0.186140
0.224628
0.170937
0.262235
0.155609
0.198947
0.243944
0.257702
0.275944
0.243305
0.398895
0.305712
0.337734
0.330825
0.425756
0.438892
0.506147
0.421164
0.549638
0.462526
0.557928
0.565740
0.530282
0.506841
0.548382
0.555581
0.559747
0.566208
0.552550
0.539675
0.559461
0.560050
0.536220
0.558977
0.478182
0.498712
0.451958
0.411708
0.448905
0.382059
0.428845
0.383842
0.397777
0.266004
0.326241
0.312571
0.290533
0.258157
0.275563
0.286302
0.215508
0.217035
0.135676
0.195775
0.251451
0.132391
0.249845
0.182242
0.109823
0.098057
0.136515
0.083388
0.161132
0.098588
0.094625
0.104593
0.150214
0.067873
0.084436
0.078942
0.041937
0.102118
0.093554
0.076080
0.068671
0.133617
0.108254
0.127683
0.098356
0.043289
0.113449
0.123535
0.081883
0.050791
0.102922
0.135776
-0.024366
0.088478
0.127748
0.121088
0.060734
0.013048
0.104442
0.017449
0.177380
0.083388
0.097075
0.098292
0.069649
0.123585
0.180791
0.069050
0.061943
0.015935
0.104686
0.055314
0.134357
0.073249
0.017154
0.058957
0.165300
0.071921
0.097312
0.054094
0.068050
0.065040
0.079289
0.044753
0.119717
0.121677
0.023370
0.001783
0.162690
0.110457
-0.050000
0.011037
0.120449
0.172164
0.092546
0.155986
0.148163
0.061177
0.110147
0.048998
0.043168
0.158199
0.145032
0.147376
0.081452
0.182617
0.152627
0.122641
0.141480
0.237009
0.155265
0.195880
0.143060
0.294618
0.252986
0.311049
0.222821
0.203356
0.238444
0.228089
0.235828
0.180950
0.278160
0.164795
0.220849
0.192872
0.196394
0.156262
0.150466
0.188309
0.202281
0.124615
0.178498
0.135850
0.138944
0.126326
0.100733
0.059220
0.124550
0.051564
0.174676
0.068340
0.061875
0.011779
0.074776
0.131799
0.107180
0.034245
-0.017647
0.065656
0.048949
0.168872
0.026430
0.053818
0.059785
-0.017773
0.038537
0.041025
0.151739
0.366869
0.636487
1.029300
1.212167
1.423154
1.473963
1.154495
0.868407
0.487421
0.211789
-0.100254
-0.090979
-0.196676
-0.223567
-0.149329
-0.068493
0.066090
0.074183
0.042527
0.103763
0.096485
-0.024980
0.080053
0.081241
0.092250
0.097034
0.111622
0.074721
0.117242
0.138206
0.129170
0.116536
0.084097
0.156612
0.154561
0.170405
0.101998
0.193704
0.161250
0.151313
0.313309
0.258343
0.259169
0.176163
0.254230
0.256180
0.389206
0.311177
0.338578
0.353171
0.364992
0.428471
0.535970
0.515204
0.452014
0.504297
0.481104
0.501695
0.517856
0.530378
0.514098
0.494049
0.443721
0.492859
0.459049
0.528856
0.464021
0.456825
0.474631
0.492624
0.420142
0.401115
0.365103
0.386607
0.389860
0.333456
0.277745
0.304190
0.257798
0.282117
0.291049
0.223621
0.169269
0.234384
0.168946
0.133535
0.076067
0.124933
0.093849
0.100879
0.001479
0.153119
0.059065
0.027190
0.052138
0.028684
0.068345
0.013484
-0.003711
0.005605
-0.036004
0.065627
0.025135
-0.015122
0.005784
-0.020770
0.005309
0.051436
0.098751
-0.022583
-0.017992
-0.061831
-0.045700
-0.004702
0.001644
-0.062473
0.058135
-0.003789
-0.000067
0.003223
0.039934
0.038866
-0.029855
0.002858
-0.030417
0.045423
0.049309
0.008700
0.026556
-0.023044
-0.082577
0.016929
-0.042653
-0.003698
0.001200
0.070905
0.002835
0.057683
-0.067947
0.010918
-0.041041
-0.087547
0.005692
-0.021996
-0.034818
-0.099573
-0.017881
-0.034443
-0.014648
-0.035115
-0.017213
0.050125
-0.020020
0.071647
-0.028094
0.063049
-0.140497
-0.070372
-0.085249
-0.035769
-0.040027
-0.058074
0.042916
0.074627
-0.045359
0.026362
-0.025035
0.002687
0.029385
-0.029741
-0.006075
0.110306
0.071369
0.079421
0.089045
0.082418
0.159004
0.095357
0.139417
0.131472
0.096453
0.112271
0.118907
0.151667
0.119238
0.185089
0.180581
0.181118
0.161805
0.193572
0.165871
0.097780
0.099457
0.079927
0.089434
0.025450
0.047064
0.067734
0.018451
0.001357
0.024585
-0.051331
-0.034440
0.007825
-0.035124
0.106131
0.035152
-0.055073
0.029836
-0.051898
-0.068776
-0.006337
-0.015436
-0.055360
-0.061230
-0.009089
-0.001191
-0.027956
-0.023363
-0.128927
-0.045413
-0.038702
-0.051672
-0.054520
-0.093494
-0.096926
0.020243
0.195828
0.477097
0.854049
1.140034
1.245443
1.265431
1.013108
0.829046
0.493229
0.146763
-0.080493
-0.242144
-0.337785
-0.304066
-0.172692
-0.085273
-0.129878
-0.054734
-0.068511
0.015907
-0.032828
-0.073805
0.014581
0.036783
0.042114
-0.013757
0.020237
0.043128
0.070931
0.021482
0.049559
0.006426
-0.007182
0.072157
0.114234
0.041006
0.062375
0.079275
0.076441
0.112009
0.154414
0.154666
0.199008
0.228337
0.220233
0.277337
0.217113
0.304077
0.289217
0.292822
0.219295
0.407209
0.306932
0.376538
0.381864
0.429522
0.375401
0.404188
0.403258
0.448144
0.454495
0.448120
0.493349
0.453261
0.443697
0.458306
0.436879
0.411337
0.353948
0.498472
0.306975
0.378073
0.290742
0.326541
0.309250
0.302880
0.233213
0.270936
0.261315
0.183058
0.130099
0.085052
0.107307
0.107272
0.190527
0.099216
0.123318
0.057612
0.100610
-0.023524
0.062022
-0.001817
0.058556
-0.048505
0.009030
-0.036447
-0.000081
0.028023
0.004752
0.058929
0.019995
0.042240
0.015289
-0.014558
-0.055046
0.028338
0.015456
-0.015961
0.019525
-0.005998
0.053004
-0.038128
-0.034351
0.016209
-0.032728
-0.010114
0.015119
-0.071325
-0.082075
-0.028493
-0.003585
-0.021660
-0.038028
0.008396
-0.020669
-0.054834
0.000119
-0.025524
-0.076931
0.092984
-0.032808
0.016758
-0.062040
0.047969
0.000423
-0.015134
0.057128
0.060577
-0.046173
0.029096
-0.034748
-0.050097
-0.021803
-0.025042
-0.038945
-0.015893
-0.001178
0.032522
0.031788
-0.035913
-0.083453
-0.000321
-0.018180
0.046252
0.035651
0.003889
0.005615
-0.027307
-0.001649
0.030715
-0.022448
-0.016869
0.014920
0.063352
0.037587
-0.027215
0.059872
0.027052
0.007355
-0.020452
0.004130
0.076423
0.077821
0.087977
0.156275
0.020085
0.093704
0.113309
0.097093
0.102715
0.095459
0.210859
0.129590
0.167467
0.225729
0.210296
0.230293
0.150468
0.113909
0.200963
0.174649
0.215974
0.087145
0.172555
0.118657
0.163655
0.089040
0.039213
0.044622
0.066895
0.056262
0.030489
0.064802
0.056717
0.083676
0.015356
0.117021
-0.003117
0.104918
-0.012572
0.024155
0.068933
0.031343
-0.015085
0.088806
0.038373
-0.031249
0.010792
0.030668
0.029728
0.061485
0.002575
0.099357
-0.041770
-0.002087
0.030264
0.114225
0.278332
0.443703
0.753164
1.061785
1.284640
1.351955
1.308886
1.007121
0.693657
0.369810
0.007627
-0.127593
-0.314113
-0.268831
-0.128632
-0.068234
-0.056992
-0.001315
0.004602
-0.016676
0.122675
0.075305
0.042727
0.066256
0.093485
0.072200
0.074452
0.005099
0.085312
0.069176
0.141834
0.103539
0.089361
0.172499
0.100002
0.090068
0.163264
0.201084
0.203180
0.214942
0.097604
0.213263
0.240486
0.302229
0.324287
0.323839
0.340051
0.393768
0.422973
0.331461
0.434387
0.466781
0.462731
0.449243
0.475323
0.556617
0.555056
0.545086
0.478254
0.503114
0.488873
0.537967
0.470565
0.532925
0.503844
0.606393
0.512652
0.584458
0.496704
0.558613
0.398462
0.425726
0.529185
0.378744
0.359061
0.423634
0.331450
0.341231
0.295987
0.238588
0.302951
0.264935
0.224171
0.242562
0.206626
0.247136
0.233517
0.192615
0.239250
0.207781
0.130889
0.156729
0.154875
0.127390
0.171577
0.146050
0.050185
0.070239
0.082868
0.092512
0.024619
0.100025
0.078599
0.082035
0.104917
0.120288
0.134176
0.072084
0.006575
0.076550
-0.008073
0.090276
0.137621
0.116014
-0.024263
0.066940
0.046749
0.021699
0.064837
0.094884
0.045569
0.115295
0.051988
0.077358
0.008475
0.109883
0.099294
0.075496
0.163817
0.111809
0.049900
0.083535
0.074070
0.147451
0.024244
0.048310
0.056827
0.121693
0.119297
0.101591
0.104777
0.108752
0.126210
0.128026
0.059795
0.018520
0.033864
0.139746
0.134414
0.021505
0.067468
0.130766
0.042409
0.105264
0.067591
0.121973
0.078339
0.102639
0.055468
0.070134
0.113959
0.047572
0.109408
0.053206
0.068966
0.063657
0.164481
0.059044
0.125041
0.170265
0.096644
0.092658
0.118138
0.159432
0.168888
0.202938
0.165201
0.201903
0.177655
0.144710
0.177493
0.189705
0.234333
0.161692
0.231068
0.284961
0.251469
0.276261
0.222341
0.235014
0.205718
0.270549
0.239405
0.193826
0.202667
0.250086
0.235262
0.217760
0.195595
0.174776
0.171223
0.145247
0.064097
0.158368
0.118199
0.174453
0.139683
0.079946
0.115751
0.139702
0.092201
0.093479
0.077967
0.074804
0.104615
0.140702
0.119834
0.076532
0.089117
0.080825
0.094660
0.078474
0.067328
0.136187
-0.001638
0.015277
0.138010
0.261070
0.456778
0.732846
1.061487
1.301210
1.500000
1.277874
1.157283
0.871775
0.409375
0.116494
-0.054667
-0.197322
-0.194707
-0.115113
-0.035963
-0.015128
0.032412
0.123424
0.014762
0.114440
0.110506
0.024401
0.121762
0.126727
0.090125
0.098824
0.044972
0.080171
0.110458
0.101505
0.009409
0.199493
0.189942
0.163181
0.150310
0.259549
0.211256
0.278152
0.227920
0.208274
0.310284
0.214477
0.334672
0.253066
0.297834
0.363500
0.307912
0.301407
0.438834
0.476864
0.460398
0.455337
0.481368
0.522435
0.485065
0.486932
0.493483
0.497575
0.490838
0.566663
0.547292
0.524204
0.586586
0.546172
0.520126
0.555439
0.501469
0.546140
0.437713
0.460967
0.400928
0.473778
0.448958
0.376208
0.365512
0.387676
0.329526
0.332281
0.330593
0.276448
0.257502
0.213493
0.221004
0.224223
0.188494
0.096672
0.148243
0.166046
0.071705
0.112278
0.028336
0.104545
0.109057
0.081692
0.086086
0.035248
0.070276
-0.003598
0.011678
0.071579
0.123939
-0.024221
0.013315
0.072666
-0.011123
0.002572
-0.014508
0.038783
0.052903
0.086183
0.008711
0.000928
0.040172
0.029888
0.009844
0.061689
0.028516
0.053202
0.053706
-0.024247
-0.036614
0.020288
-0.023237
-0.007131
0.036290
0.059827
0.062448
0.079814
0.015397
0.040104
-0.010042
-0.031075
0.056250
-0.036656
-0.008585
0.017937
0.012860
-0.031238
0.006847
0.052822
-0.013734
-0.014731
-0.020720
-0.031562
-0.024003
-0.043187
-0.020629
-0.050660
0.031778
-0.008544
-0.003072
-0.017746
0.028297
-0.013833
0.082890
-0.037984
0.020107
-0.038878
0.064048
-0.002509
-0.072107
0.007253
0.018167
-0.016488
0.070576
0.036223
-0.047887
0.080441
-0.013017
0.054047
0.011830
0.053842
0.109084
0.105936
0.106015
0.015295
0.060545
0.105931
0.141654
0.120931
0.092092
0.093804
0.064808
0.115863
0.111722
0.066194
0.180678
0.140984
0.150766
0.120365
0.146033
0.039110
0.166648
0.112398
0.092681
0.054200
0.068751
-0.006977
-0.012200
0.075225
0.051706
0.080740
-0.033474
0.056499
-0.015614
-0.034110
-0.046528
-0.025466
-0.002020
0.030799
-0.024699
0.033466
-0.087054
0.032393
-0.060978
-0.061858
-0.044337
-0.057784
-0.099054
-0.052707
-0.121614
-0.053572
-0.085427
-0.107434
-0.142357
-0.011775
0.004526
0.215251
0.578645
0.845179
1.205247
1.279752
1.290126
1.152321
0.751128
0.444329
0.043994
-0.103058
-0.270677
-0.300923
-0.313421
-0.275100
-0.185990
-0.052787
-0.077807
-0.018602
-0.084204
-0.084575
-0.051461
-0.080815
0.012234
-0.028540
-0.016669
-0.084608
-0.025263
-0.004833
-0.009226
0.018120
0.009131
-0.018544
0.045865
0.035219
0.027049
0.080508
0.093590
0.018326
0.079563
0.088702
0.160517
0.122281
0.208155
0.186657
0.281874
0.262115
0.272076
0.183535
0.298020
0.250095
0.271741
0.329348
0.332467
0.375860
0.419194
0.324865
0.373009
0.436265
0.452579
0.369640
0.489573
0.414438
0.470902
0.418444
0.363930
0.421913
0.399667
0.403581
0.407593
0.334425
0.388137
0.359271
0.242728
0.325146
0.360848
0.248554
0.178350
0.203388
0.115252
0.121733
0.140199
0.135192
0.168736
0.116267
0.038838
0.077496
-0.034488
0.105928
0.049654
-0.033627
-0.081548
-0.053857
-0.001169
0.004115
-0.077265
0.060654
-0.092575
-0.156338
-0.039749
-0.018233
-0.039085
-0.114027
-0.132652
-0.105612
-0.065323
-0.098692
-0.036457
-0.055839
-0.007587
-0.044867
-0.113672
-0.157753
-0.083418
-0.053672
-0.105645
-0.116604
-0.090012
-0.001858
-0.047653
-0.061938
0.100547
-0.019932
-0.110849
-0.102464
-0.011925
0.001807
0.006122
-0.086127
-0.102822
-0.104025
-0.156654
-0.024024
-0.099601
-0.048017
-0.130143
-0.125708
-0.037258
-0.113647
-0.144878
0.009917
-0.086422
-0.086737
-0.056889
-0.108001
-0.125742
-0.049635
-0.052812
-0.092567
-0.077544
-0.115637
-0.054068
-0.007537
-0.065722
-0.041562
-0.007357
-0.050868
0.011781
-0.071916
0.002800
-0.122483
-0.101402
-0.068199
-0.075931
-0.073714
-0.047856
-0.003157
-0.068338
0.014635
-0.036082
-0.032079
0.009172
-0.024267
-0.012429
-0.005298
0.037969
0.104620
0.109797
0.032227
0.057065
0.135085
0.126938
0.020461
0.118440
0.044096
0.061371
0.087213
0.067663
0.073527
0.114978
0.171120
0.022918
0.040990
0.092386
0.041986
-0.023625
-0.044740
-0.000205
0.000461
0.079662
-0.042153
0.022759
-0.025821
-0.029164
-0.020999
-0.027388
-0.091435
0.006243
-0.023898
-0.051562
-0.059446
-0.056909
0.030640
-0.026898
-0.033506
-0.076504
-0.054334
-0.006355
0.023221
-0.026268
-0.062528
-0.167411
-0.077965
-0.071307
-0.167182
-0.044327
-0.018053
0.165983
0.441893
0.765127
1.037220
1.197728
1.324614
1.143079
0.791796
0.546891
0.237837
-0.073171
-0.227506
-0.286284
-0.321506
-0.219233
-0.145728
-0.097140
-0.018931
-0.075216
-0.007721
-0.133214
-0.033626
-0.039072
-0.031651
0.073407
-0.039392
0.001687
-0.026050
-0.080538
0.022279
0.042021
-0.000064
0.017161
0.000012
0.055186
0.049834
0.043443
0.076477
0.125933
0.221105
0.074931
0.154953
0.103120
0.237166
0.213910
0.317607
0.211698
0.269566
0.290963
0.304962
0.298166
0.328640
0.366254
0.367326
0.372096
0.446660
0.463195
0.488046
0.476197
0.410821
0.468255
0.536794
0.472524
0.438242
0.510419
0.441225
0.365289
0.419536
0.483861
0.465704
0.363943
0.334002
0.321983
0.385991
0.301638
0.280233
0.292685
0.268684
0.305040
0.265612
0.210336
0.214838
0.164971
0.156846
0.057121
0.104911
0.063822
0.155717
0.080921
0.089562
0.088417
-0.003537
0.012570
0.093493
0.008346
-0.011549
0.068219
-0.026188
0.046858
0.037679
0.016481
0.111384
0.067012
0.050442
-0.036763
0.013862
0.014585
-0.016876
-0.015709
0.028824
0.044389
-0.011459
-0.019987
0.080187
-0.105252
0.034625
0.021606
0.019206
-0.042018
-0.016327
-0.023641
-0.056040
0.035503
0.000955
-0.083668
0.043058
-0.003428
0.115882
0.049393
0.018476
0.060127
0.033060
0.050963
0.045701
0.032316
-0.047472
0.017528
-0.031654
0.068337
-0.058207
0.046109
-0.037183
-0.058498
-0.022989
0.025552
-0.029376
0.042688
0.002158
0.059741
0.044933
0.030412
-0.020839
0.006545
0.011421
-0.043369
-0.021270
-0.010089
-0.055851
0.005688
-0.014573
0.027189
0.027795
-0.006073
-0.009351
0.011637
0.011045
0.030975
0.050562
0.062293
0.061503
0.084878
0.053468
0.045453
0.126233
0.004603
0.086221
0.088654
0.080480
0.158342
0.153329
0.152657
0.207228
0.201242
0.255128
0.191233
0.223506
0.152533
0.191319
0.162704
0.215638
0.259715
0.318865
0.203089
0.173058
0.182942
0.139520
0.108766
0.161547
0.073933
0.143925
0.114054
0.106408
0.036807
0.026924
0.052177
0.009331
0.052678
0.070943
0.040532
0.101000
-0.058210
0.117082
0.058046
0.113090
-0.025535
0.040260
0.037987
0.061292
0.062425
0.127158
0.031182
0.035523
0.019755
-0.026581
0.016290
0.006900
0.111927
0.235580
0.486126
0.811790
1.114093
1.315885
1.383035
1.314514
1.026349
0.700175
0.412905
0.125777
-0.094975
-0.257196
-0.224168
-0.106760
-0.094647
0.026085
0.042054
0.045056
0.097685
0.044485
0.108579
0.106974
0.011146
0.060808
0.048146
0.083157
0.076027
0.080996
0.132109
0.073497
0.122128
0.125233
0.136996
0.073205
0.148916
0.126817
0.215096
0.237604
0.137861
0.167572
0.230695
0.296849
0.260866
0.310234
0.287572
0.323468
0.368854
0.408491
0.476392
0.384288
0.324854
0.453038
0.503709
0.434903
0.433198
0.493510
0.536242
0.565370
0.526424
0.500466
0.496389
0.541340
0.511135
0.517199
0.454007
0.443933
0.578167
0.476852
0.521190
0.464199
0.459351
0.477406
0.424628
0.343695
0.406549
0.336783
0.349413
0.335532
0.228246
0.247000
0.212946
0.171110
0.283054
0.139779
0.090584
0.116118
0.128719
0.058365
0.089437
0.126217
0.098636
0.028625
0.069972
0.111081
0.081421
0.055329
0.086281
0.000728
0.071493
0.102317
0.033997
0.015395
0.001764
0.006841
-0.058040
0.061803
0.044607
-0.011577
0.011141
-0.071624
0.067550
0.014428
0.128064
0.034865
-0.003131
0.039729
-0.026469
0.022298
0.072269
0.090397
-0.023344
0.056444
0.052011
-0.002562
0.103850
0.076558
0.043405
0.057541
0.007223
0.080543
0.009308
-0.001241
-0.010698
-0.014651
0.003447
0.040261
0.034344
0.045271
-0.015597
-0.032782
0.020987
0.077026
0.004308
0.058280
0.086240
0.070713
0.004108
-0.076851
-0.035861
0.044809
-0.071839
-0.038513
0.101531
0.029073
-0.049675
0.072874
0.034506
0.042189
0.045733
-0.032673
0.033471
-0.029344
0.025155
0.016160
0.049786
0.002958
-0.021138
0.041603
-0.009135
0.032939
0.046816
0.056503
0.065328
-0.004516
0.078611
0.093970
0.063269
0.094166
0.078670
0.148040
0.232963
0.134078
0.199315
0.115958
0.187648
0.215155
0.061262
0.146532
0.186820
0.148432
0.134923
0.150221
0.125983
0.117103
0.074026
0.115130
0.083800
0.004876
0.077497
-0.001647
0.078108
0.070884
-0.006161
0.008936
0.053940
-0.027538
-0.061171
0.012166
-0.035215
-0.046636
-0.052541
0.007071
-0.082504
-0.049982
-0.057215
-0.050271
-0.101044
-0.100884
-0.013298
-0.028466
-0.093875
0.018133
-0.099745
-0.069148
-0.096953
-0.013918
0.103500
0.322032
0.583048
0.855096
1.154146
1.291958
1.213500
1.023688
0.713217
0.408963
0.120857
-0.126196
-0.263680
-0.316044
-0.267615
-0.215990
-0.112756
-0.087644
-0.017230
-0.066126
0.005563
-0.008379
-0.002746
-0.084326
-0.010587
0.029160
-0.038249
-0.035753
-0.025522
-0.005420
-0.007527
0.068004
-0.036356
0.061836
0.039404
-0.016647
0.005907
0.093871
0.107588
0.061122
0.144974
0.105981
0.129086
0.188535
0.193332
0.252132
0.272838
0.215809
0.245722
0.342834
0.282721
0.402045
0.366229
0.358588
0.386922
0.398342
0.313591
0.361397
0.432215
0.438520
0.460012
0.368882
0.333520
0.411986
0.411892
0.411732
0.338413
0.336855
0.361251
0.386765
0.414418
0.333811
0.278456
0.316882
0.343429
0.159505
0.234531
0.305639
0.206346
0.180036
0.102436
0.117333
0.033133
0.133078
0.011021
0.077156
0.120421
0.016065
0.007444
0.043376
-0.023939
0.077862
-0.045514
0.017456
-0.039917
-0.002096
-0.033720
-0.017962
-0.090370
-0.140337
-0.047056
-0.068635
0.005085
-0.032958
-0.022458
-0.062621
-0.073248
-0.103945
-0.071030
-0.033838
-0.114932
-0.062208
-0.050669
-0.060304
-0.088330
-0.093725
-0.084193
-0.099696
-0.065497
-0.073850
-0.143551
-0.133982
-0.041583
-0.123975
-0.057560
-0.045948
-0.090837
-0.093724
-0.024984
-0.081717
-0.085382
-0.044796
-0.082595
-0.121039
-0.074260
-0.068249
-0.089561
-0.082933
-0.098987
-0.078303
-0.119808
-0.044315
-0.111109
-0.096804
-0.099608
-0.079275
-0.108621
-0.041801
-0.132980
-0.089172
-0.056506
-0.078936
-0.055354
-0.115464
-0.054546
-0.072471
-0.118742
-0.148968
-0.148355
-0.084278
-0.057663
-0.077679
-0.063361
-0.096159
-0.115555
-0.124905
-0.069116
-0.097280
-0.005422
-0.030303
-0.097912
-0.023501
-0.068461
-0.018805
-0.071625
0.035808
-0.002983
-0.015212
0.075843
0.014852
0.099862
0.039560
0.005664
0.045553
0.009778
-0.014628
0.047298
0.053788
0.087734
0.055445
0.109515
0.091165
-0.004914
0.030414
0.067926
-0.059435
-0.009916
-0.039533
0.009332
-0.038968
-0.015774
-0.003813
-0.031283
-0.013509
-0.029086
-0.121665
-0.124033
-0.078013
-0.064247
-0.184658
-0.056945
-0.089472
-0.089102
-0.055308
-0.137259
-0.073305
-0.109088
-0.127302
-0.129828
-0.121834
-0.112630
-0.020915
-0.099887
-0.057579
-0.148577
-0.128543
-0.102556
-0.049734
0.150756
0.440824
0.799556
1.106382
1.230078
1.224160
1.086354
0.812459
0.465562
0.138368
-0.180616
-0.277824
-0.376568
-0.334949
-0.242876
-0.157652
-0.087175
-0.070613
-0.091366
-0.150264
-0.091160
-0.072298
-0.078960
-0.097473
-0.059034
-0.127096
-0.015740
-0.048222
-0.036469
-0.021848
-0.092139
0.023233
0.030412
0.054605
-0.015098
0.053784
0.079600
0.066275
0.072597
0.080301
0.080499
0.157706
0.163941
0.162104
0.158567
0.163986
0.148970
0.242493
0.232805
0.245068
0.355596
0.315928
0.456936
0.323032
0.388285
0.365152
0.413878
0.389746
0.422526
0.414747
0.394854
0.423318
0.424004
0.429268
0.450557
0.425847
0.449590
0.492934
0.424916
0.352337
0.397952
0.350563
0.332332
0.274337
0.263071
0.224169
0.229545
0.285484
0.173401
0.279704
0.117012
0.103275
0.153130
0.135612
0.171012
0.032684
0.060067
0.027737
0.070052
0.015641
0.046155
0.074785
0.034024
0.029363
-0.055004
0.019391
-0.039115
-0.058933
-0.134234
-0.018191
-0.036110
-0.070395
-0.073287
-0.005088
-0.009685
-0.078216
-0.107178
-0.054432
0.030570
-0.030052
-0.007762
-0.089684
-0.045880
-0.034570
-0.022242
-0.050961
-0.057340
-0.038541
-0.059790
-0.042659
0.048937
-0.009482
0.057465
-0.005688
0.021645
-0.072665
-0.019980
-0.041573
-0.031438
-0.085980
-0.042106
-0.000007
0.030737
-0.069676
-0.009884
-0.028604
-0.064001
-0.021791
-0.018232
0.011228
0.018811
-0.061827
-0.072657
0.036085
-0.032196
0.001979
0.004563
0.028025
-0.039076
0.049691
-0.027410
0.001719
-0.002598
0.031731
0.025851
-0.025586
0.014316
0.084844
0.083395
-0.052808
-0.026060
0.045723
-0.018084
0.081695
-0.000958
-0.019202
-0.036303
0.009350
-0.027380
0.051241
0.075966
0.127308
0.083530
0.056525
0.095512
0.009726
0.129004
0.057210
0.190119
0.161320
0.144911
0.157776
0.181326
0.180274
0.155090
0.153495
0.213823
0.202118
0.248672
0.229408
0.228376
0.206242
0.169483
0.158333
0.101195
0.095675
0.143076
0.101906
0.068473
0.061410
0.190162
0.003709
0.086205
0.064331
0.064294
0.079140
0.024549
0.060265
0.054599
-0.008565
-0.004759
0.016209
0.092642
0.015652
0.044688
0.044617
0.036762
0.035048
0.079771
0.002594
0.055092
0.022067
0.086816
0.025940
0.037533
0.076149
0.108134
0.236842
0.484473
0.809902
1.026241
1.284201
1.400746
1.232470
1.088811
0.582307
0.294169
-0.005345
-0.207263
-0.259926
-0.303623
-0.129480
-0.146445
0.046797
-0.012724
0.035259
0.028253
0.051635
0.068678
0.077366
0.049935
0.050022
0.094963
0.037817
0.118310
0.132858
0.026346
0.126563
0.091696
0.211165
0.154071
0.178451
0.142166
0.190347
0.213710
0.243604
0.180574
0.192537
0.248649
0.270379
0.302737
0.303942
0.362572
0.389548
0.406285
0.312591
0.420316
0.389062
0.374236
0.447859
0.475220
0.446982
0.468998
0.509710
0.497340
0.533912
0.527012
0.489374
0.574161
0.558864
0.481253
0.526544
0.571049
0.508560
0.544481
0.493273
0.478305
0.447372
0.434689
0.432688
0.377582
0.360861
0.447560
0.406999
0.313466
0.345651
0.269728
0.387253
0.249012
0.213879
0.228822
0.083747
0.223278
0.186900
0.211683
0.123309
0.210124
0.174663
0.147698
0.130634
0.127725
0.137976
0.149251
0.108525
0.023970
0.089413
0.066464
0.110858
0.109714
0.117348
0.146274
0.081175
0.067087
0.023263
0.094429
0.055550
0.019318
0.063552
0.080795
0.030683
0.130839
0.043017
0.112654
0.025295
0.035894
0.013194
0.108608
0.099195
0.131720
0.020346
0.031787
0.063807
0.041411
0.030811
0.085999
0.120513
-0.030831
0.114286
0.090110
0.076810
0.020898
0.036863
0.020798
0.074171
0.008089
0.072913
0.041541
0.093667
