-0.023645
-0.079262
0.061199
0.038142
-0.019086
0.023389
-0.003848
-0.046243
-0.019481
0.058307
-0.085764
0.031795
0.062774
-0.007018
0.048097
-0.046946
0.066326
-0.072118
0.030822
0.051162
-0.002189
0.028127
-0.045382
0.066823
0.028573
0.070161
0.094374
0.040091
0.045490
0.017999
0.041132
0.087960
0.084593
0.173766
0.068246
0.108250
0.131760
0.127078
0.146197
0.119776
0.135534
0.182058
0.230767
0.204112
0.347668
0.193903
0.167058
0.228275
0.223644
0.185439
0.137162
0.145649
0.130682
0.215267
0.235094
0.105384
0.142422
0.152429
0.081592
0.080399
0.133662
0.096474
0.071635
0.156512
0.042675
0.056221
0.023149
0.051784
-0.020561
0.060147
0.076779
0.070688
0.041824
0.022188
0.079098
0.063355
0.046854
-0.008024
0.085661
0.004444
0.109527
0.084603
0.081746
-0.034982
-0.044157
-0.044688
-0.066902
0.046403
0.052884
0.239816
0.480478
0.818175
1.103871
1.354581
1.471339
1.409258
1.099842
0.764803
0.366115
0.087565
-0.153700
-0.174713
-0.190891
-0.211477
-0.125452
0.050536
0.080794
0.051977
0.061409
0.112611
0.074213
0.079873
0.082462
0.110524
0.197443
0.174748
0.157280
0.118296
0.168679
0.086756
0.094885
0.108029
0.081439
0.098719
0.090084
0.118789
0.209600
0.236114
0.268217
0.231894
0.233854
0.210248
0.230070
0.374329
0.345721
0.307008
0.287372
0.381184
0.378941
0.483754
0.481504
0.466664
0.380343
0.452453
0.466558
0.425800
0.502418
0.623824
0.547907
0.536055
0.617940
0.589348
0.546666
0.576918
0.626669
0.642631
0.561921
0.542013
0.537754
0.489995
0.492841
0.476060
0.542669
0.469692
0.523395
0.390534
0.428779
0.402939
0.378588
0.355037
0.365772
0.313522
0.250433
0.259271
0.285351
0.246187
0.266059
0.167092
0.192224
0.250985
0.252366
0.139552
0.098401
0.143468
0.106195
0.089736
0.148608
0.133978
0.187915
0.130486
0.101130
0.093299
0.060257
0.098740
0.192552
0.063333
0.066802
0.064019
0.101575
0.073552
0.098449
0.149282
0.093794
0.115513
0.045531
0.065061
0.119517
-0.008083
0.088340
0.212867
0.032952
0.109083
0.146897
0.108309
0.053863
0.169803
0.061915
0.067071
0.136535
0.083807
0.125771
0.090641
0.100404
-0.019247
0.172358
0.049803
0.142398
0.070752
0.139809
0.078357
0.139891
0.101361
0.076515
0.108857
0.096976
0.064569
0.084086
0.079008
0.094521
0.062713
0.084374
0.226564
0.079197
0.160291
0.135316
0.016323
0.080291
0.066439
0.096035
0.107224
0.100629
0.100102
0.179202
0.081136
0.077616
-0.011590
0.062095
0.107666
0.135739
0.060430
0.120081
0.113365
0.098191
0.090284
0.122908
0.131652
0.024045
0.113706
0.089446
0.102692
0.198189
0.170750
0.120668
0.196572
0.211092
0.244489
0.256836
0.216238
0.254978
0.247656
0.269516
0.273766
0.216037
0.238068
0.250719
0.262005
0.227631
0.217065
0.233864
0.148541
0.238071
0.193747
0.139678
0.106379
0.112194
0.100630
0.153683
0.053891
0.097158
0.065533
0.043419
0.081749
0.114749
0.074992
0.025556
0.135160
0.013758
0.005933
0.002501
0.069558
0.024544
0.135119
0.113733
-0.008191
0.048402
0.137942
0.137722
0.038938
0.096279
0.035961
0.052514
0.023606
0.077063
0.139477
0.401257
0.689379
0.993422
1.373899
1.432106
1.344821
1.073747
0.794900
0.514133
0.100160
-0.047624
-0.263611
-0.266504
-0.264849
-0.034744
-0.089511
-0.020959
0.013260
0.064692
0.053847
0.144408
0.003662
0.036414
0.079038
0.151037
0.037106
0.049476
0.065628
0.161994
0.136797
0.035362
0.084169
0.105999
0.084217
0.109557
0.122902
0.120156
0.166337
0.148214
0.139340
0.195874
0.198209
0.240735
0.202101
0.214972
0.308077
0.352221
0.339575
0.331634
0.417128
0.350306
0.361131
0.394358
0.412877
0.450124
0.477293
0.489177
0.480855
0.448000
0.478769
0.524391
0.520687
0.513899
0.580256
0.459153
0.508593
0.484619
0.517791
0.474095
0.472082
0.401442
0.514503
0.450583
0.402066
0.369146
0.323071
0.336279
0.340397
0.292767
0.300186
0.246564
0.213005
0.183635
0.182996
0.195822
0.136229
0.148839
0.126916
0.183353
0.074513
0.070911
0.125974
0.039070
0.077166
0.060333
0.099356
0.051790
0.056299
0.049592
0.048071
0.027970
0.061880
0.018939
0.053031
0.016348
-0.107298
0.011478
0.063880
0.010009
-0.066002
-0.010547
0.041908
-0.004836
-0.045575
-0.010323
0.024957
0.018557
0.034717
0.098230
-0.052367
-0.007152
0.058193
-0.078563
-0.012066
-0.011518
-0.053943
0.020283
-0.056790
-0.020410
-0.015511
0.053754
-0.012375
-0.027236
-0.047119
-0.030805
-0.001649
-0.013878
-0.018346
-0.013822
-0.014602
-0.110672
0.014319
-0.025023
0.008968
-0.013452
0.009075
0.008078
-0.042720
-0.003461
-0.056697
-0.012076
-0.026306
-0.037573
-0.121460
-0.035686
-0.056520
-0.107267
-0.012696
-0.079967
-0.021571
0.003639
0.009969
-0.079456
0.055032
-0.093427
0.026841
-0.005017
-0.045333
-0.068851
-0.046274
-0.027113
-0.007683
-0.045757
-0.071528
0.017622
-0.016625
-0.022456
0.089340
0.064302
0.039803
0.058622
0.106663
0.042877
0.024805
0.054562
0.043469
0.036993
0.077117
0.112127
0.145912
0.151617
0.129560
0.063258
0.188394
0.170713
0.148043
0.185128
0.065728
0.060086
0.094124
0.087072
0.014395
0.115316
0.060261
0.077639
-0.041600
0.003258
0.097890
0.030159
-0.055500
-0.053325
-0.058532
-0.031370
-0.038140
-0.040751
-0.004097
0.035051
-0.044953
-0.082573
-0.011083
-0.026517
0.008703
-0.099019
-0.055731
-0.082564
0.006852
-0.091518
-0.075032
-0.113495
-0.039675
-0.037370
-0.065475
-0.065272
-0.017929
0.280426
0.589280
0.824079
1.112116
1.302122
1.284614
1.153603
0.827501
0.634699
0.209825
-0.051255
-0.222054
-0.314960
-0.304734
-0.260221
-0.218360
-0.068280
-0.044515
-0.035562
-0.122011
0.010170
-0.061481
-0.019782
-0.070598
-0.034610
-0.081037
-0.022590
-0.079845
0.009595
0.020394
0.058694
0.055760
0.028863
0.016925
0.121673
-0.027694
0.017490
0.120941
0.043715
0.059818
0.181512
0.085014
0.152756
0.127388
0.183100
0.264341
0.161510
0.329120
0.306262
0.299979
0.346784
0.308194
0.402806
0.302399
0.390859
0.387488
0.426581
0.401145
0.386193
0.509698
0.429988
0.439133
0.497642
0.425907
0.414295
0.431127
0.427873
0.454435
0.403244
0.339677
0.406362
0.370701
0.426427
0.408694
0.298333
0.372854
0.311786
0.234980
0.282893
0.253191
0.260716
0.182211
0.183631
0.159021
0.152756
0.101869
0.102731
0.045521
0.048220
0.020916
0.043601
-0.047913
0.072850
0.053544
0.018634
-0.004289
-0.024699
0.038875
-0.003108
0.018505
-0.044607
-0.003279
-0.038387
0.042522
-0.038525
-0.003910
0.003864
-0.006964
0.025882
-0.084387
-0.010475
0.031008
-0.016971
-0.068896
-0.115209
-0.018544
-0.032249
-0.047957
-0.004777
0.010960
0.010557
-0.062205
0.022244
-0.058375
0.019105
0.031078
-0.049881
-0.009191
0.004317
-0.003035
0.010102
-0.078830
0.002761
-0.001188
-0.075713
-0.064380
-0.013294
-0.036310
0.012535
-0.056412
0.001456
-0.020410
-0.021211
-0.049515
0.070454
0.038941
-0.017078
0.005134
-0.101141
-0.050125
0.005757
-0.082827
0.037098
-0.041789
0.012832
0.033270
-0.022039
-0.040519
0.050963
0.067846
0.021561
0.090689
0.039318
0.007192
0.017417
-0.028599
0.053733
0.077432
0.013904
0.041460
0.055588
0.079886
0.081645
0.119802
0.079989
0.025026
0.002054
0.032478
0.061203
0.067298
0.103937
0.162848
0.094498
0.085744
0.157034
0.155054
0.157331
0.181189
0.199424
0.100269
0.137670
0.163990
0.206513
0.222843
0.175818
0.198177
0.134762
0.232709
0.128661
0.048907
0.110630
0.159814
0.162359
0.044456
0.137574
0.131112
0.132596
0.143746
0.131946
0.067734
0.071325
0.093037
0.131320
0.155384
-0.036630
0.030746
0.056780
0.049655
-0.070074
-0.049134
0.099914
0.066817
0.059281
0.084957
0.013648
0.086238
-0.009762
0.005665
0.023236
0.083249
0.044233
-0.029063
0.077031
0.100343
0.164083
0.440515
0.733994
1.166561
1.377297
1.427243
1.401554
1.136012
0.709423
0.439164
0.046674
-0.049873
-0.206862
-0.201743
-0.156172
-0.066413
0.011124
0.057040
0.032705
0.045184
0.048194
0.051466
0.040841
0.042699
0.047554
0.041084
0.110451
0.073249
0.065043
0.071865
0.116293
0.180489
0.146670
0.164340
0.084752
0.169522
0.183172
0.225701
0.167590
0.150599
0.213933
0.166365
0.222678
0.268354
0.252982
0.364543
0.295669
0.381824
0.350982
0.431057
0.436531
0.426784
0.513525
0.414332
0.475313
0.515255
0.550581
0.503486
0.547735
0.465003
0.556149
0.456250
0.549376
0.592186
0.601040
0.524183
0.653356
0.604947
0.531431
0.545556
0.560536
0.492673
0.377858
0.467430
0.521624
0.402864
0.507039
0.482114
0.401590
0.293220
0.300674
0.336113
0.365312
0.366977
0.251723
0.289198
0.362719
0.203341
0.261901
0.195777
0.141057
0.223318
0.190176
0.107550
0.117408
0.140907
0.119593
0.092615
0.093687
0.095403
0.152397
0.069897
0.047653
0.064405
0.042702
0.085494
0.123110
0.148127
0.088870
0.169444
0.043773
0.049605
0.035774
0.137383
0.099994
0.109372
0.109588
0.025744
0.032732
0.102388
0.108161
0.154344
0.089854
0.032417
0.132901
0.131872
0.008780
0.014699
0.128381
0.158317
0.147856
0.054816
0.080243
0.098035
0.093031
0.069173
0.046670
0.143372
0.076091
0.003982
0.130151
0.099387
0.065138
0.096482
0.075232
0.138872
0.055572
0.126772
0.103720
0.126852
0.133015
0.122093
0.078357
0.149127
0.078032
0.062384
0.049169
0.152339
0.123894
0.120188
0.110755
0.102616
0.101408
0.073149
0.111361
0.140685
0.072491
0.109405
0.142649
0.080928
0.091707
0.104272
0.113150
0.069871
0.112420
0.057685
0.080122
0.135186
0.170181
0.161577
0.195284
0.165534
0.200833
0.234939
0.215365
0.207092
0.137869
0.221565
0.293640
0.301379
0.277479
0.186548
0.272317
0.304164
0.215677
0.257523
0.318967
0.198327
0.150833
0.227654
0.207968
0.232554
0.173369
0.194695
0.215237
0.137352
0.145724
0.161327
0.130055
0.074608
0.161160
0.099038
0.075846
0.103634
0.144921
0.117382
0.066363
0.098764
0.073451
0.036796
0.181911
0.052510
0.017738
0.085909
0.143940
0.039644
0.092037
0.057338
0.106296
0.064461
0.035637
0.069602
-0.044605
0.033133
0.100596
0.382493
0.657593
0.992803
1.317317
1.500000
1.495996
1.193572
0.932429
0.582896
0.286431
-0.007616
-0.112264
-0.204092
-0.165589
-0.102893
0.022078
-0.056440
0.038759
0.105300
0.016065
0.106418
0.072292
0.094302
0.021365
0.078827
0.091487
0.067563
0.085025
0.109848
0.101267
0.069871
0.173802
0.032356
0.104156
0.168375
0.162841
0.179879
0.124800
0.203875
0.254374
0.177365
0.146835
0.237480
0.260989
0.316998
0.259647
0.302613
0.373546
0.358844
0.420927
0.477214
0.389657
0.434138
0.452563
0.435537
0.529757
0.421249
0.558150
0.606780
0.511926
0.533226
0.519814
0.523688
0.573094
0.629640
0.551452
0.442234
0.523713
0.452140
0.553743
0.481538
0.430866
0.465703
0.337690
0.356162
0.392547
0.385129
0.345998
0.414309
0.389545
0.297860
0.280606
0.194333
0.181978
0.304801
0.162780
0.090596
0.112818
0.255979
0.137278
0.046270
0.117168
0.093406
0.065330
0.100391
0.005551
0.025331
0.085981
0.011148
0.083450
0.037265
-0.051759
0.058042
0.103001
0.029334
0.107865
0.046881
0.006015
0.039925
0.019550
0.039562
0.013143
0.097638
-0.039568
-0.032719
0.050143
-0.010054
0.023712
-0.008591
-0.011918
-0.006892
0.024922
-0.026559
-0.041470
-0.008854
-0.002470
0.019078
0.007525
-0.033479
-0.103508
-0.009319
-0.030940
-0.024287
-0.013224
-0.047843
-0.043765
-0.017731
-0.010276
-0.001741
0.002093
-0.001672
0.001429
-0.010492
0.079875
-0.031373
-0.012062
-0.030151
-0.075055
-0.007460
0.000658
-0.050730
-0.005697
-0.057502
-0.041087
-0.000016
-0.012604
0.024185
0.027922
0.032299
-0.003057
-0.022416
-0.067913
0.038566
-0.094694
0.013819
0.007733
0.003701
-0.050487
-0.037026
-0.029562
0.059789
-0.032330
-0.006590
0.034316
-0.041529
0.042624
0.059212
-0.008387
0.048499
-0.018601
0.027507
0.100578
0.059882
0.070881
0.150402
0.185962
0.009185
0.135628
0.098953
0.117943
0.208664
0.089953
0.088946
0.060318
0.050373
0.017748
0.033587
0.158452
0.012703
0.061165
0.034087
0.042808
0.085292
-0.014014
0.000654
0.071374
0.065687
0.012356
-0.018596
-0.021871
0.017419
-0.040222
0.033876
0.036263
-0.053565
-0.110488
-0.035870
-0.045795
0.005786
-0.098196
-0.046931
-0.057685
-0.111830
-0.057350
-0.046379
-0.065034
0.019046
-0.037478
-0.030596
-0.113313
-0.117855
-0.061562
-0.082273
-0.053356
0.147267
0.445003
0.763488
1.117891
1.341983
1.345741
1.140572
0.913748
0.556671
0.123727
-0.086492
-0.293209
-0.321214
-0.337350
-0.241157
-0.200082
-0.168662
-0.079020
-0.110762
-0.033667
-0.113870
-0.080200
0.003245
-0.070426
-0.108976
-0.031762
-0.052693
-0.008315
-0.089951
-0.056260
-0.038097
-0.051882
-0.034162
0.022600
0.042962
0.095271
0.038303
0.019030
0.073460
0.132572
0.066032
0.161604
0.076790
0.127312
0.195029
0.133913
0.179424
0.230322
0.207331
0.236187
0.250302
0.286196
0.350131
0.321276
0.304697
0.333692
0.381307
0.342608
0.382541
0.380478
0.362993
0.451595
0.360684
0.399998
0.416318
0.420731
0.379619
0.390257
0.335776
0.387210
0.367090
0.381428
0.361960
0.330964
0.316712
0.269444
0.291167
0.301095
0.250596
0.196695
0.197171
0.174149
0.187952
-0.020150
0.166173
0.030123
0.114171
0.153669
0.085639
0.009421
0.011011
0.005966
0.083705
-0.037369
-0.010568
-0.015085
0.027886
0.002721
-0.056103
-0.022091
0.014118
-0.061942
-0.071578
0.004490
-0.086083
-0.058145
-0.120797
-0.035200
-0.110023
-0.050413
-0.032086
-0.045515
-0.121630
-0.137656
-0.078124
-0.122600
-0.093331
-0.059324
-0.170345
-0.142445
-0.045708
-0.013772
-0.025604
-0.098240
-0.037745
-0.111715
-0.161450
-0.051695
-0.085397
-0.098679
-0.061266
-0.068352
-0.053255
-0.010310
-0.124438
-0.096859
-0.146143
-0.105141
-0.006756
-0.113155
-0.133971
-0.082554
-0.081952
-0.133950
-0.080532
-0.036064
-0.088725
-0.058257
-0.080364
-0.069121
-0.044255
-0.111574
-0.037402
-0.115370
-0.127077
-0.058223
-0.048622
-0.005033
-0.043620
-0.064347
-0.012921
-0.080410
-0.108450
-0.023498
-0.003901
0.004059
-0.013025
-0.027262
0.061643
-0.049083
-0.095323
-0.086719
-0.009357
-0.017346
-0.047429
-0.091695
0.066345
-0.041306
0.065527
0.031129
0.077996
-0.014687
0.103716
0.111134
0.086714
0.024084
0.057922
0.108537
0.131734
0.079473
0.173257
0.200779
0.085838
0.155074
0.106657
0.175262
0.044610
0.057871
0.093040
0.123815
0.063002
0.073378
0.057447
0.024706
-0.026409
-0.021290
0.054196
0.047587
0.084462
-0.034834
0.020056
-0.069022
-0.001240
-0.026347
0.024960
-0.018028
-0.050937
-0.036158
-0.051135
-0.042654
0.001801
-0.026067
-0.066811
-0.060320
-0.018212
-0.057622
-0.041175
0.012655
-0.050183
-0.095200
-0.099593
-0.022899
-0.070357
-0.013199
0.064397
0.403244
0.668501
1.025910
1.302270
1.409638
1.283685
1.121531
0.778468
0.366191
0.129248
-0.184675
-0.286716
-0.287929
-0.303660
-0.230708
-0.122518
-0.072893
-0.032020
-0.048682
-0.006468
0.021719
-0.039633
-0.077898
-0.017977
-0.021972
0.100752
-0.013150
0.056525
-0.008031
-0.010171
0.041248
0.060474
0.067047
0.034782
0.009282
0.088972
0.103902
0.135872
0.176894
0.176320
0.145707
0.206986
0.192748
0.234756
0.230349
0.213014
0.240975
0.287373
0.354137
0.331900
0.348394
0.421227
0.355908
0.354177
0.455315
0.433605
0.427844
0.449817
0.510352
0.480617
0.434919
0.427562
0.540417
0.502819
0.484952
0.412880
0.524952
0.468724
0.445478
0.474162
0.443552
0.408398
0.395850
0.389658
0.410791
0.419783
0.378179
0.340272
0.280085
0.276129
0.278904
0.277761
0.248385
0.252939
0.179057
0.182469
0.119518
0.106653
0.120469
0.119991
0.158236
0.129075
0.090846
-0.034593
0.048765
0.002443
-0.004409
0.037330
0.060309
0.062258
0.024767
-0.004200
-0.004543
0.031642
-0.000484
0.043149
-0.063490
0.021969
0.031361
0.020300
-0.065296
0.062587
0.054601
-0.003406
-0.009905
0.027267
0.088330
0.014064
-0.004683
0.051491
0.151327
-0.035973
0.062490
0.082638
0.058762
0.020996
0.026480
0.085234
0.027008
-0.050469
-0.008405
0.121277
0.035124
0.024394
0.032753
0.062119
0.022198
0.093555
0.063086
0.039692
0.146344
0.013440
-0.029763
0.026141
0.093836
0.014603
0.045276
0.006856
0.048894
0.078952
0.017945
-0.024461
-0.002744
-0.006361
-0.049556
0.025612
-0.004367
-0.025002
0.009875
0.074951
0.093918
-0.002977
0.043101
0.034229
-0.072859
0.012074
0.016784
0.034287
0.071277
0.047764
0.057113
0.121383
0.117237
-0.004879
0.099067
0.132450
0.099223
0.110492
0.125861
0.078699
0.132714
0.040791
0.129722
0.213772
0.090479
0.135075
0.183961
0.245954
0.115612
0.189467
0.178756
0.167343
0.142333
0.168848
0.191990
0.248669
0.182818
0.082571
0.273225
0.160822
0.187455
0.089043
0.216999
0.172566
0.091926
0.073305
0.080295
0.068173
0.120537
0.074883
0.110516
0.021704
0.140622
0.036308
0.063234
0.019469
0.078738
0.054677
0.052535
0.031236
0.054098
0.040822
0.042111
0.111273
0.048975
0.022996
0.055733
0.057514
0.046362
-0.012996
-0.016686
-0.076226
0.075604
0.132878
0.273484
0.590208
0.898418
1.186766
1.443312
1.353888
1.239321
0.915851
0.593073
0.276437
-0.062768
-0.158039
-0.235592
-0.279701
-0.246764
-0.045532
-0.016031
0.046610
0.082097
0.090727
0.070237
0.079373
0.012261
0.014855
0.112198
0.067835
0.031392
0.020712
0.104270
0.096382
0.150743
0.184055
0.064322
0.116834
0.146728
0.063425
0.070944
0.081804
0.141393
0.156635
0.106816
0.152668
0.314540
0.225832
0.327044
0.270804
0.325397
0.305209
0.347891
0.395552
0.370555
0.372602
0.453038
0.400536
0.442773
0.420592
0.478509
0.438444
0.478497
0.465282
0.489845
0.594390
0.546489
0.516159
0.555790
0.453870
0.540650
0.561556
0.436071
0.455554
0.478638
0.435774
0.392248
0.462086
0.437718
0.374694
0.365479
0.407278
0.273605
0.327725
0.255792
0.149875
0.264360
0.201056
0.203719
0.223516
0.141371
0.125608
0.168886
0.042708
0.133296
0.116434
0.170874
0.110602
0.064715
0.076693
0.100882
-0.021340
0.019396
0.063104
-0.001735
0.068878
0.043265
0.043481
0.060086
-0.028962
0.010989
0.054041
0.012228
0.008771
-0.002722
-0.080541
0.056941
-0.045944
0.026859
0.036221
0.060518
-0.039719
0.026453
-0.012921
-0.070985
0.068980
-0.006919
-0.047872
0.035762
0.039393
-0.051234
-0.029798
-0.005981
0.054892
-0.034785
-0.074521
-0.014471
0.015857
-0.016403
0.067110
0.062747
-0.036557
-0.035212
-0.132921
0.058725
0.086529
-0.031740
-0.010086
-0.070306
-0.002203
0.039030
0.013977
-0.017553
0.016679
0.002902
0.010089
0.014395
-0.042606
-0.029304
-0.041575
-0.010558
-0.052021
-0.024305
0.015135
0.016826
0.001779
-0.012970
-0.034524
-0.009535
0.004042
-0.041778
-0.072464
-0.040971
0.007507
0.010205
0.037260
-0.019672
0.040431
-0.040876
0.042621
0.010119
0.027922
0.019172
0.082368
0.132502
0.042449
0.090512
0.038993
0.094158
0.108165
0.111686
0.124656
0.168470
0.093502
0.095518
0.130050
0.184665
0.113547
0.144387
0.054691
0.127353
0.100017
0.183321
0.152712
0.105701
0.038784
0.005074
0.086882
0.036505
-0.019716
0.028552
0.041101
0.023920
-0.049066
-0.077255
-0.041431
-0.041951
-0.129503
-0.076189
-0.070520
-0.028757
0.010426
0.003696
-0.085612
-0.035839
-0.013300
-0.075968
-0.068149
-0.031359
-0.014775
-0.073838
-0.027653
-0.149972
-0.120912
-0.038023
-0.128668
-0.153206
-0.037561
0.125288
0.358104
0.729576
0.972691
1.304366
1.336499
1.179304
0.886762
0.524793
0.294088
-0.097592
-0.229548
-0.318351
-0.325995
-0.236711
-0.168121
-0.108567
-0.123825
-0.058645
-0.132340
-0.069902
-0.124621
-0.076226
-0.085179
0.021578
-0.108906
-0.063693
-0.029683
-0.029420
-0.033939
-0.024832
0.008666
0.040153
-0.046677
-0.021612
-0.024906
-0.033242
0.055726
-0.018070
0.042716
0.072143
0.118387
0.017175
0.064535
0.157692
0.153318
0.089143
0.299401
0.270273
0.187722
0.224485
0.275983
0.427794
0.326213
0.262582
0.273286
0.264527
0.440953
0.335038
0.400496
0.421352
0.434783
0.327850
0.339322
0.448301
0.384285
0.509566
0.436983
0.360105
0.343996
0.382528
0.292732
0.232473
0.310502
0.302292
0.263304
0.244710
0.278067
0.176764
0.226869
0.183534
0.097577
0.199897
0.147424
-0.004083
0.052607
0.062954
0.021199
-0.010766
0.010985
-0.043167
-0.005042
0.005923
-0.013628
-0.016009
-0.063600
-0.088835
-0.113511
-0.037330
-0.096084
-0.102571
-0.090124
-0.126781
-0.124156
-0.091541
-0.070054
-0.043626
-0.073373
-0.102445
-0.078595
-0.044304
-0.079399
-0.084915
-0.110465
-0.077936
-0.122669
-0.126291
-0.092945
-0.096337
-0.056374
-0.079430
-0.111017
-0.150206
-0.166170
-0.066417
-0.143739
-0.090731
-0.099743
-0.054192
-0.088832
-0.111083
-0.082992
-0.064039
-0.072842
-0.142918
-0.043853
-0.165989
-0.045740
-0.073849
-0.033398
-0.106197
-0.102790
-0.102221
-0.111820
-0.094249
-0.086575
-0.010135
-0.064456
-0.091630
-0.142859
-0.087382
-0.130912
-0.114536
-0.056343
-0.125585
-0.050589
-0.138946
-0.148054
-0.041921
-0.128365
-0.086994
-0.099181
-0.084156
-0.143471
-0.174242
-0.139730
-0.142075
-0.065424
-0.123022
-0.045949
-0.057214
-0.011564
-0.128301
-0.037437
-0.040593
-0.117105
-0.036573
-0.138405
-0.051039
0.000272
0.000981
-0.006794
0.030079
0.000536
0.048550
-0.018683
0.033363
0.031613
0.080186
0.066783
0.101617
0.100667
0.099736
0.098243
0.116163
0.042147
0.145378
0.093864
0.001252
0.106994
0.045992
0.029684
0.013135
0.035915
0.041636
-0.053085
-0.069543
-0.037199
-0.021253
0.000589
-0.053439
-0.039878
-0.047951
-0.079580
-0.006383
-0.056984
-0.032732
-0.131868
-0.110945
-0.040666
-0.082854
-0.107356
-0.101579
-0.058759
-0.147490
-0.047916
-0.057326
-0.064593
-0.100758
-0.060995
-0.036989
-0.048910
-0.110207
-0.058679
0.058316
0.219370
0.640586
0.941006
1.139080
1.377373
1.260203
1.064422
0.788646
0.378473
0.106712
-0.126155
-0.275723
-0.328664
-0.376342
-0.187452
-0.180821
-0.121628
0.016428
-0.003617
-0.089813
-0.056110
-0.063026
-0.056382
-0.045759
-0.044993
0.033626
-0.106326
-0.015376
0.004179
0.000545
0.008295
0.061641
-0.017680
0.020861
0.023260
0.008312
0.013612
0.062605
0.039182
0.144919
0.113646
0.114162
0.147984
0.252565
0.168588
0.143448
0.257084
0.283332
0.317040
0.315774
0.283927
0.366065
0.348327
0.327677
0.390960
0.427477
0.362530
0.446056
0.582096
0.435776
0.523495
0.468270
0.485909
0.444222
0.455283
0.518225
0.452866
0.461890
0.445970
0.508522
0.398125
0.454176
0.393265
0.410158
0.360013
0.321897
0.380153
0.335891
0.258586
0.236238
0.317823
0.232935
0.214163
0.213714
0.101505
0.247161
0.044832
0.074808
0.095763
0.109256
0.194669
0.120213
0.067923
0.098655
0.018764
0.023493
0.040452
0.016285
0.041155
0.080534
0.026454
0.021339
0.024669
0.009844
-0.057092
0.032525
0.047292
0.051451
0.134687
0.018806
0.061109
-0.038104
-0.046609
0.081422
-0.006613
-0.016242
0.022182
0.026583
0.014965
0.009401
0.085457
0.055478
-0.018441
0.019184
0.004418
-0.004571
0.116299
-0.010997
0.076392
0.054984
-0.000800
-0.061330
0.061851
0.064178
-0.031523
0.013330
-0.005155
0.068187
-0.085701
-0.008540
0.035920
0.064024
-0.026840
0.026566
0.071195
0.082278
-0.009371
0.044046
0.095871
0.010360
-0.030113
0.090225
0.029155
0.111237
0.057392
0.004059
0.072286
0.007130
0.077163
0.053199
0.026141
0.104509
0.109951
0.035672
0.053843
0.077647
0.028317
0.072538
0.045724
0.083340
0.003379
0.091295
0.049749
0.147522
0.091366
0.027095
0.092188
-0.008935
0.062769
0.115832
0.099087
0.201650
0.149031
0.176633
0.234306
0.160551
0.253100
0.255478
0.214402
0.191961
0.242192
0.241788
0.188698
0.227402
0.261230
0.209858
0.144940
0.233854
0.219403
0.164685
0.148316
0.119749
0.171042
0.172612
0.197423
0.176021
0.145870
-0.002557
0.066061
0.105102
0.027653
0.016333
0.089063
0.100313
0.094773
0.042230
0.051375
0.047935
0.173788
0.006068
0.102261
0.102231
0.123635
0.047701
0.084912
0.102119
0.025216
0.102551
0.121131
-0.026954
-0.053737
0.043940
-0.007353
0.211083
0.379630
0.580406
0.899179
1.242822
1.443785
1.435921
1.289966
0.957948
0.639235
0.276779
0.045492
-0.149921
-0.267580
-0.225980
-0.149483
-0.045568
0.028173
0.033650
0.047772
-0.048132
0.084233
0.098554
0.060813
0.099913
0.142913
0.117675
0.165468
0.115521
0.102359
0.108439
0.136639
0.160761
0.183589
0.121112
0.095483
0.120080
0.186351
0.201817
0.153854
0.180860
0.285378
0.256656
0.346214
0.226268
0.312242
0.254501
0.255923
0.348548
0.293503
0.355115
0.429273
0.440975
0.434954
0.470754
0.448129
0.488399
0.446587
0.505816
0.488734
0.547252
0.509592
0.574110
0.629492
0.591313
0.508143
0.600535
0.533952
