-0.005106
0.058703
-0.044492
0.097953
-0.023339
0.069153
-0.110771
-0.043126
0.006325
-0.035339
-0.008094
0.011094
0.110275
0.103964
0.032512
0.024664
0.038075
0.022914
0.072390
0.057087
-0.039990
0.023271
0.074497
0.013550
0.024149
0.062401
0.039117
0.047053
0.065883
0.050439
-0.036847
0.065087
0.071187
0.141444
0.036990
0.123424
0.110115
0.203756
0.159951
0.178070
0.177888
0.110666
0.111953
0.232361
0.224659
0.189591
0.280749
0.249076
0.198159
0.104865
0.132293
0.180976
0.136301
0.203297
0.146157
0.209166
0.096842
0.057466
0.138398
0.127947
0.181218
0.082863
0.132784
0.068008
0.063607
0.049792
0.084812
0.047230
0.033177
-0.034227
0.002348
-0.042233
0.086792
-0.010531
0.074052
0.098670
-0.010959
0.004647
0.022992
-0.012746
0.051627
-0.001262
0.026749
-0.004445
0.002280
-0.019740
0.025272
0.124141
0.304089
0.644570
0.971944
1.353988
1.377573
1.490980
1.258374
0.903132
0.555623
0.309387
0.050159
-0.183701
-0.203352
-0.152510
-0.071200
0.019815
-0.009174
0.018013
0.075409
0.071748
0.141960
0.051122
0.056337
0.106077
0.082293
0.037549
0.180795
0.096128
0.149989
0.108429
0.135990
0.144319
0.233217
0.144682
0.196721
0.114457
0.059571
0.143019
0.229421
0.176717
0.258469
0.327205
0.298035
0.225748
0.289891
0.365673
0.344715
0.357068
0.410741
0.460504
0.392492
0.497745
0.459096
0.466489
0.511620
0.535112
0.543500
0.531885
0.566014
0.509980
0.540092
0.561229
0.621872
0.590003
0.553497
0.543176
0.535483
0.589193
0.544582
0.462438
0.493459
0.487380
0.480736
0.480024
0.507488
0.425502
0.370678
0.379921
0.386269
0.338941
0.294902
0.341523
0.267901
0.191238
0.328697
0.240758
0.280449
0.218427
0.239856
0.222899
0.147826
0.153051
0.117828
0.140729
0.183897
0.069597
0.094645
0.107698
0.152704
0.101466
0.097406
0.137128
0.074179
0.125387
0.108339
0.091220
0.145408
0.137750
0.061183
0.124660
0.026419
0.032178
0.077209
0.016265
0.133804
0.091632
0.102267
0.081802
0.157823
0.092786
0.115108
0.070928
0.129855
0.081979
0.132813
0.116732
0.114732
0.090642
0.094636
0.037282
0.004061
0.080697
0.122246
0.059732
0.079010
0.175459
0.067408
0.027550
0.089946
0.105323
0.032031
0.086538
0.101058
0.100802
0.038996
0.076202
0.080056
0.136142
0.123293
0.088034
0.104318
0.069649
0.092933
0.073935
0.093997
0.110308
0.085032
0.013718
0.113263
0.080610
0.123475
0.085540
0.037081
0.071471
0.129134
0.113457
0.106376
0.100701
0.112340
0.197608
0.144793
0.057970
0.189632
0.164087
0.127760
0.085883
0.074958
0.120914
0.180533
0.191165
0.196307
0.279245
0.146658
0.273205
0.204102
0.192893
0.273156
0.238713
0.393550
0.238316
0.234585
0.217853
0.189257
0.296170
0.288914
0.167088
0.271499
0.236450
0.243625
0.124543
0.196242
0.228947
0.151469
0.145398
0.150269
0.155304
0.124411
0.140036
0.118526
0.139658
0.127951
0.151850
0.142566
0.107525
0.084706
0.024824
0.089150
0.044567
0.042746
0.077319
0.001486
0.081529
0.033746
0.026383
0.074130
0.031047
0.032204
0.046913
-0.033080
-0.004798
0.270680
0.363933
0.696703
1.039870
1.395217
1.406293
1.363050
1.156439
0.899846
0.453522
0.204585
-0.057051
-0.173235
-0.194078
-0.176077
-0.038158
-0.039401
0.028837
0.037986
0.007846
0.111158
0.016127
0.076775
0.033136
0.060593
0.107974
0.007559
0.122882
0.000496
0.047707
0.082993
0.163282
0.027950
0.155844
0.221176
0.087874
0.178135
0.166548
0.158912
0.186685
0.221008
0.217631
0.180295
0.265409
0.255209
0.254945
0.324145
0.303420
0.265742
0.241513
0.412519
0.406740
0.443686
0.424353
0.572343
0.523081
0.488601
0.534227
0.528946
0.486568
0.489415
0.484318
0.501995
0.511153
0.546121
0.497332
0.523607
0.609133
0.513161
0.491083
0.438204
0.533867
0.383316
0.360931
0.444653
0.340045
0.355650
0.357301
0.267946
0.324949
0.243895
0.261925
0.227143
0.213299
0.151013
0.164902
0.162867
0.214313
0.180732
0.148620
0.147995
0.081175
0.109195
0.068797
0.092476
0.060204
0.019582
0.106750
0.056753
0.064028
0.084248
0.042568
0.044525
0.007403
-0.047797
-0.071422
0.000320
0.119724
0.056352
0.017586
0.033076
0.016212
-0.029564
-0.090734
-0.053973
-0.042933
-0.053015
-0.014244
0.037452
-0.041465
-0.022599
-0.066434
-0.014167
0.042093
0.024438
-0.094988
-0.029161
0.034495
-0.098646
0.004607
0.109957
-0.009743
-0.045700
-0.030985
-0.080336
0.004719
-0.064745
-0.051556
0.037146
-0.002711
0.013923
0.027780
-0.075965
0.002110
-0.046405
-0.015636
-0.130801
-0.048876
0.010808
-0.046226
0.078933
-0.038167
-0.056031
-0.065501
-0.091885
-0.054714
0.031769
0.030843
-0.044608
-0.116130
0.042242
-0.033555
-0.061571
-0.027387
-0.052119
0.041804
0.046283
-0.095810
-0.037899
-0.016497
-0.032382
0.047104
0.104061
-0.019272
0.006225
-0.007229
0.016865
-0.035048
0.119217
-0.005650
0.005184
0.082478
0.120159
0.103794
0.141591
0.085817
0.204277
0.162258
0.139278
0.138510
0.156956
0.147561
0.176792
0.108178
0.165902
0.068925
0.097924
0.116793
0.086446
0.009873
0.054854
0.040100
0.062932
0.036080
0.041400
-0.081361
-0.061952
-0.005333
-0.003459
0.031635
-0.028339
-0.056212
-0.048008
-0.035801
-0.020564
-0.016864
-0.098380
-0.017092
-0.027727
-0.039884
-0.040994
0.003053
0.005373
-0.095264
-0.071188
-0.032535
-0.108401
-0.019129
-0.093308
-0.092602
0.039513
0.064894
0.359811
0.732395
0.991894
1.244311
1.379380
1.343878
0.999581
0.690584
0.286341
0.002861
-0.188584
-0.321921
-0.391726
-0.191658
-0.160288
-0.071839
-0.135627
-0.024686
0.016755
-0.037556
-0.033231
-0.038429
-0.044510
-0.009571
-0.085078
0.001692
-0.031219
0.008022
-0.054668
-0.005656
-0.018171
0.084096
-0.048787
0.080712
0.096210
0.022335
0.143091
0.118652
0.156934
0.053609
0.185419
0.131874
0.248068
0.169774
0.210741
0.218100
0.248849
0.232324
0.285203
0.261680
0.358734
0.302879
0.429959
0.478119
0.407138
0.434611
0.369542
0.462002
0.429248
0.530396
0.485391
0.503316
0.471715
0.466609
0.406416
0.440300
0.437033
0.407571
0.456392
0.415701
0.409195
0.463484
0.347603
0.290642
0.347802
0.284665
0.307156
0.323156
0.304295
0.196773
0.234273
0.188124
0.164510
0.148598
0.145845
0.117840
0.074918
0.084155
0.119177
-0.000140
0.008218
0.051428
0.030625
0.004574
0.021545
0.071996
0.041768
0.004896
-0.009761
-0.047551
0.047482
-0.003455
-0.009878
-0.025263
-0.045514
-0.163808
0.094020
0.013426
-0.006825
-0.049469
-0.046484
-0.054609
0.022963
-0.053738
-0.010577
-0.042731
-0.033603
-0.019195
-0.034502
0.007293
-0.069854
0.027700
-0.020219
0.013035
0.054166
-0.042230
-0.044153
-0.044628
-0.041523
-0.014901
0.027497
-0.027615
-0.022020
0.019182
-0.128475
-0.004271
-0.012537
-0.086873
-0.068635
-0.111275
-0.019578
-0.062020
-0.060074
-0.012614
0.044913
-0.027594
-0.046062
0.020267
-0.078532
0.062446
0.007795
0.050270
-0.068032
0.038399
-0.022160
0.034850
0.045903
-0.004140
-0.016469
0.020752
0.023655
-0.019051
-0.003192
-0.017611
0.110619
-0.035271
-0.034438
-0.031000
0.049751
0.037095
0.049481
0.088148
0.115620
0.126963
0.040583
0.066140
0.085961
0.026356
0.102484
0.193620
0.163951
0.214544
0.079917
0.176270
0.166725
0.153626
0.248466
0.178748
0.188172
0.158164
0.205866
0.246369
0.213028
0.163804
0.178220
0.189377
0.187791
0.140825
0.153350
0.241914
0.130356
0.081819
0.128009
0.089267
0.039039
0.104641
0.121958
0.108386
0.011290
0.068582
0.004503
0.029770
0.045177
0.056511
0.003032
0.063320
0.179554
-0.001743
0.096281
0.080575
0.077897
-0.031352
0.030430
0.082381
-0.018880
0.014427
-0.045980
-0.006882
0.034353
0.112773
0.276063
0.574858
0.838974
1.285257
1.423397
1.390978
1.280636
1.043492
0.663249
0.320640
0.094445
-0.189118
-0.210827
-0.227865
-0.103384
-0.031989
-0.026426
0.049859
0.082486
0.030406
0.069502
0.144424
0.083792
-0.028940
0.127794
0.123220
0.062449
0.039132
0.244712
0.038908
0.152985
0.057634
0.163239
0.197286
0.056326
0.130729
0.188545
0.191009
0.171832
0.143590
0.237483
0.208927
0.284830
0.263205
0.306603
0.386299
0.291093
0.374095
0.434468
0.441663
0.404456
0.422522
0.441707
0.500444
0.531833
0.560371
0.528513
0.492227
0.561321
0.546370
0.545956
0.561173
0.501794
0.508791
0.680153
0.684551
0.629171
0.534250
0.463428
0.508404
0.499599
0.521404
0.506658
0.476107
0.481801
0.500514
0.445900
0.283040
0.382466
0.407242
0.395728
0.305908
0.287366
0.286654
0.181943
0.263305
0.248323
0.147375
0.223878
0.145482
0.169648
0.150319
0.090981
0.149823
0.177168
0.132599
0.253828
0.128378
0.054883
0.074009
0.062048
0.101269
0.098308
0.111397
0.072658
0.018250
0.162916
0.074211
0.049672
0.011151
0.071041
0.132925
0.142038
0.091228
0.040707
0.144613
0.087586
0.072788
0.080204
0.051709
0.155559
0.082203
0.031089
0.144465
0.074317
0.138201
0.029641
0.007615
0.106782
0.171272
0.191611
0.101027
0.063788
0.102539
-0.006874
0.014400
0.078258
0.126246
0.114242
0.073028
0.079180
0.082304
0.118251
0.121023
0.081986
0.051670
0.173121
0.174705
0.108617
0.100142
-0.006040
0.165491
0.094211
0.104531
0.156886
0.117680
0.041945
0.100019
0.164622
0.098972
0.145931
0.155181
0.093309
0.178617
0.045985
0.068711
0.124206
0.079378
0.056193
0.065302
0.086920
0.103019
0.189564
0.156559
0.157454
0.209797
0.062527
0.159490
0.200124
0.184924
0.206450
0.211454
0.289037
0.247779
0.244189
0.275113
0.284329
0.285968
0.211282
0.242539
0.337131
0.227740
0.271616
0.189329
0.262944
0.296635
0.281934
0.211626
0.164390
0.145144
0.237504
0.107686
0.181792
0.079828
0.119970
0.159409
0.045613
0.176880
0.065048
0.104202
0.123419
0.024790
0.133626
0.140728
0.149038
0.124475
0.172304
0.071638
0.126784
0.067618
0.063877
-0.082324
0.137550
0.074342
0.100100
-0.003863
0.033100
-0.005041
0.070459
0.096971
0.179646
0.431706
0.595570
0.982699
1.361643
1.500000
1.407272
1.396787
0.926898
0.651371
0.237998
0.035415
-0.185397
-0.201137
-0.254328
-0.098639
0.007781
-0.053579
0.037966
0.042368
0.115483
0.105364
0.092292
0.107364
0.013384
0.104467
-0.013376
0.117002
0.110475
-0.000062
0.151535
0.136852
0.084478
0.223029
0.149928
0.104861
0.156320
0.144160
0.173999
0.161736
0.218087
0.267863
0.217006
0.276878
0.298213
0.408583
0.380307
0.385891
0.436246
0.330236
0.404195
0.395382
0.497220
0.495032
0.478466
0.525425
0.482103
0.526242
0.408763
0.578485
0.471357
0.567895
0.493827
0.569698
0.521139
0.640135
0.563298
0.561144
0.526607
0.521480
0.512128
0.504651
0.425947
0.461237
0.426735
0.444092
0.399640
0.400985
0.351189
0.341659
0.273241
0.333226
0.283524
0.276983
0.190098
0.170829
0.226003
0.242383
0.175772
0.123009
0.157218
0.142512
0.107536
0.074153
0.078825
0.014420
0.115289
0.109656
0.082724
0.033805
-0.029585
0.087298
0.026815
-0.014292
0.035390
0.025625
0.104086
-0.012725
-0.022961
0.053286
0.073386
0.016072
0.037214
0.019366
-0.001114
0.045943
0.043058
0.028002
-0.027585
0.036275
0.035278
-0.011674
-0.025359
0.029583
-0.007839
-0.021148
-0.025906
0.042888
-0.010640
-0.055874
-0.006737
0.000434
-0.000767
0.005663
-0.019685
-0.070945
-0.007040
0.023240
0.022372
0.009698
0.112999
-0.018737
-0.019569
-0.062144
-0.042338
0.071611
0.020154
0.022976
0.008018
-0.002498
0.005936
0.050726
-0.113781
-0.001595
0.039368
0.010398
-0.102035
0.047427
-0.055517
-0.032378
-0.038189
-0.004561
0.004304
-0.004124
0.071291
0.018895
0.039367
0.062604
-0.024223
0.024993
-0.030761
0.071588
0.057905
0.040495
0.042490
-0.021098
0.040370
0.052648
0.017281
0.083526
0.102786
0.032291
-0.049269
0.043915
0.077480
0.149166
0.122492
0.200743
0.123685
0.281256
0.093443
0.112998
0.168398
0.139545
0.164696
0.145699
0.041806
0.146619
0.001531
0.061583
0.040331
0.097415
0.010900
-0.002893
-0.082786
0.043596
-0.020502
-0.086674
0.034862
-0.061423
-0.014338
0.024676
0.045997
-0.054436
-0.066203
-0.093865
-0.126562
-0.022294
-0.058626
-0.101597
0.007082
-0.032666
-0.039543
-0.090483
0.042864
-0.062179
-0.047683
-0.031225
-0.116466
-0.043729
-0.003582
0.080860
0.353359
0.538703
0.955226
1.180687
1.358022
1.287867
1.143609
0.783594
0.436477
0.120863
-0.106377
-0.356302
-0.443705
-0.314188
-0.186996
-0.154019
-0.160095
-0.141140
-0.115352
-0.004561
-0.020603
-0.090821
-0.043029
-0.053027
-0.036422
-0.077570
-0.011212
-0.086655
0.014078
-0.051334
0.013658
-0.007949
0.006423
0.009785
0.098206
0.074930
0.013011
0.034713
0.131469
0.037706
0.155309
0.101906
0.143490
0.180988
0.179652
0.191213
0.230582
0.277837
0.251397
0.256566
0.323487
0.404498
0.366078
0.408586
0.362320
0.344241
0.402340
0.427594
0.418909
0.417301
0.495756
0.431470
0.453145
0.475838
0.455456
0.523728
0.395921
0.412571
0.345437
0.420696
0.340096
0.253800
0.238382
0.351166
0.323502
0.271608
0.202726
0.227289
0.186126
0.148249
0.148452
0.183865
0.109106
0.055543
0.129735
0.091908
0.057335
-0.005122
-0.023003
-0.018291
0.025764
-0.058938
0.035135
-0.064575
-0.003319
-0.062786
-0.042259
-0.040789
0.045173
-0.108016
-0.159332
-0.058525
-0.036586
-0.036466
-0.035989
-0.097896
-0.055893
-0.126331
-0.138079
-0.066897
-0.076875
-0.155404
-0.087088
-0.113407
-0.099078
-0.109213
-0.043526
-0.111221
-0.019787
-0.115629
-0.142447
-0.050013
-0.091333
-0.125156
-0.051174
-0.120966
-0.072160
-0.004918
-0.091119
-0.075221
-0.077759
-0.018175
-0.076333
-0.064369
-0.109798
-0.049742
-0.075612
-0.094694
-0.036110
-0.027564
-0.062294
-0.068916
-0.086853
-0.060898
-0.116620
-0.061481
-0.140073
-0.086102
-0.102599
-0.059597
-0.055687
-0.047463
-0.036841
-0.039728
-0.096997
-0.077870
-0.049677
-0.058104
-0.090681
-0.028108
-0.057812
-0.014585
-0.053797
0.012411
-0.026335
-0.089087
-0.075216
-0.062299
-0.126707
-0.018424
-0.112330
-0.047926
0.020104
-0.048567
-0.039454
0.030569
0.051612
0.077800
0.028617
0.047630
0.031996
0.047500
0.106282
0.108954
0.079576
0.187780
0.150818
0.121179
0.146760
0.052929
0.130920
0.095941
0.006664
0.141266
0.129270
0.211461
0.026981
0.103851
0.066462
0.079238
0.068166
0.026797
-0.013454
-0.015490
-0.032008
-0.003803
0.026275
-0.032528
0.038011
-0.083195
-0.024538
0.001114
-0.010858
-0.090219
-0.039185
-0.060453
-0.079220
-0.035353
-0.110393
-0.031642
-0.001969
-0.055809
-0.003787
-0.033163
-0.106117
-0.073327
-0.020277
-0.121472
-0.115303
-0.019424
0.103201
0.358701
0.659119
1.002391
1.293146
1.363090
1.249640
1.066104
0.761439
0.325840
0.027074
-0.177775
-0.259162
-0.348352
-0.251417
-0.186254
-0.046745
-0.037753
-0.005208
-0.011158
-0.056580
-0.076935
-0.082886
0.042005
-0.081662
-0.010569
-0.123313
0.028692
-0.007485
-0.020237
0.067686
0.011532
0.051816
0.036902
0.140805
0.127264
0.072668
0.122071
0.112253
0.153139
0.119960
0.142577
0.199610
0.228814
0.165871
0.201218
0.201266
0.354366
0.333601
0.318231
0.340834
0.408928
0.373452
0.358689
0.416853
0.409611
0.377957
0.446592
0.443850
0.510742
0.520597
0.516056
0.473456
0.506756
0.507593
0.528122
0.491953
0.500379
0.494057
0.429618
0.399782
0.396884
0.382712
0.413278
0.366290
0.370062
0.310897
0.355737
0.317230
0.306756
0.211973
0.226620
0.257489
0.186031
0.227387
0.149935
0.107798
0.088400
0.108974
0.140249
0.074971
0.108841
0.069611
0.110703
0.049249
-0.018597
0.052754
0.056757
0.075106
0.022748
0.024856
0.106645
-0.036758
0.050958
-0.007205
0.017412
0.028607
0.000964
0.059963
0.067290
-0.016108
0.057097
0.019095
-0.005831
-0.040798
0.014843
0.012369
-0.025760
0.051999
0.003935
0.006992
0.043274
0.023324
0.091843
0.054502
0.016858
-0.039287
-0.060820
-0.009586
0.035763
0.073776
0.051925
-0.074219
-0.003617
-0.000638
0.140341
0.074502
0.047894
0.046066
0.080238
0.070281
0.069991
0.025281
0.085956
0.030638
0.005285
-0.044662
0.082841
-0.019490
-0.026169
0.009224
0.039454
0.092157
0.029821
0.015527
0.096564
0.034090
0.016926
0.028967
0.086907
0.096536
0.070787
-0.088655
0.085266
0.046888
0.086183
0.070244
0.098997
0.100595
0.088754
0.121327
0.079227
0.054769
0.154795
0.070734
0.076519
0.100993
0.069431
0.156036
0.178619
0.117681
0.186048
0.193853
0.182274
0.188896
0.243501
0.114876
0.160379
0.193170
0.215271
0.196467
0.176776
0.130004
0.285593
0.225564
0.189962
0.254307
0.203113
0.134039
0.255484
0.179998
0.145879
0.185145
0.140688
0.145682
0.105488
0.177887
0.027829
0.060115
0.082471
0.053745
0.089300
0.046247
0.075162
0.106385
0.015666
0.011622
0.144704
-0.038580
0.049544
0.027411
0.095668
0.024361
0.019158
0.078747
0.048033
-0.013008
0.041400
0.008714
0.016323
0.022777
0.261127
0.537870
0.796773
1.238991
1.365812
1.440337
1.416134
1.029050
0.702716
0.427767
0.060905
-0.094457
-0.229599
-0.296313
-0.251964
-0.179331
-0.009312
0.049820
0.073408
0.036628
0.033740
0.030013
0.003204
0.042064
0.054784
0.080606
0.042784
0.125639
0.062079
0.130516
0.117280
0.208229
0.155026
0.088142
0.205874
0.194224
0.115625
0.158418
0.191367
0.155514
0.141412
0.127763
0.296825
0.242450
0.287142
0.307739
0.293639
0.339982
0.334605
0.414943
0.389846
0.539618
0.408410
0.474360
0.538359
0.426439
0.463970
0.517270
0.528500
0.511992
0.513780
0.520489
0.537682
0.522452
0.576460
0.606140
0.575886
0.572263
0.580195
0.530249
0.547542
0.424764
0.495656
0.447489
0.396396
0.408115
0.350290
0.334212
0.354856
0.389445
0.316728
0.244000
0.248481
0.211405
0.249793
0.167478
0.166938
0.212492
0.098474
0.107175
0.145764
0.117656
0.077071
0.101049
0.099975
0.107490
0.064754
0.044191
0.047096
0.059945
0.051134
0.095942
0.057344
0.073862
0.008306
-0.032531
-0.018615
0.063281
-0.030535
0.033534
0.004608
0.048283
0.054991
0.041488
0.035505
0.074240
-0.016145
-0.027296
0.052897
-0.018500
0.028530
0.041254
0.001376
0.006669
-0.005348
0.028589
-0.023783
-0.007118
0.039727
0.045573
-0.004851
-0.005916
0.004351
0.072006
0.049459
0.027862
-0.051949
-0.035172
0.074263
-0.001335
-0.022641
-0.040042
0.011098
0.024245
-0.052497
0.008389
0.060094
0.017506
-0.027723
0.038321
0.047539
-0.020124
-0.078672
0.033607
-0.011156
-0.046628
0.026806
0.013043
-0.020189
-0.060567
-0.026652
0.063455
-0.016189
0.020943
-0.005995
0.012607
0.037548
0.072072
0.032070
0.046387
0.039562
0.040435
0.032197
-0.008206
0.062278
0.030319
0.073529
0.031212
0.005128
0.087093
0.098786
0.130979
0.096346
0.069586
0.097535
0.154920
0.104089
0.198258
0.175422
0.181209
0.124665
0.144500
0.109350
0.208673
0.219659
0.131095
0.117453
0.143872
0.050544
0.046753
0.064129
0.047505
-0.023241
0.015245
-0.035247
0.070541
0.027635
0.046853
-0.087013
0.053127
0.065011
-0.146428
-0.010571
-0.047536
-0.025445
-0.028303
-0.040112
-0.039457
-0.054763
-0.078123
-0.001249
-0.035981
-0.010760
-0.065499
-0.044272
-0.072037
-0.083428
-0.156672
-0.126176
-0.122455
0.014742
0.292245
0.557835
0.908282
1.055496
1.332765
1.387886
1.196835
0.843259
0.476965
0.284824
-0.083752
-0.358021
-0.422770
-0.307852
-0.223541
-0.178451
-0.074218
-0.077463
-0.146946
-0.067812
-0.027977
-0.129404
-0.011628
-0.021675
-0.053275
-0.076550
-0.090416
0.006568
-0.084408
0.022628
0.009635
0.002965
-0.066064
0.003375
-0.020828
0.034098
0.046531
0.059494
0.071954
0.127619
0.073579
0.163469
0.161785
0.199503
0.226245
0.242909
0.204601
0.231007
0.254806
0.313733
0.283939
0.323441
0.364508
0.340280
0.434572
0.314559
0.397745
0.442375
0.456403
0.379670
0.381042
0.462451
0.474047
0.442798
0.408837
0.498459
0.416524
0.386757
0.397039
0.354915
0.413367
0.305820
0.346978
0.330052
0.319077
0.238329
0.245338
0.264432
0.193726
0.130221
0.111705
0.093271
0.087260
0.123626
0.138262
0.043906
0.095502
-0.004377
-0.036069
-0.012287
0.080405
-0.042554
0.018354
0.016673
-0.011924
-0.039889
-0.028387
-0.036237
-0.095380
0.005749
-0.097728
-0.012231
-0.097183
-0.027989
-0.074407
-0.132147
-0.066781
-0.100402
-0.073872
-0.127952
-0.073752
-0.119723
-0.103833
-0.061592
-0.125633
-0.070830
-0.050540
-0.121435
-0.148112
-0.062996
-0.056238
-0.055238
-0.101214
-0.064939
-0.029877
-0.079910
-0.135567
-0.087300
-0.200445
-0.039166
-0.076661
-0.037361
-0.054841
-0.203144
-0.031479
-0.062751
-0.129794
-0.129832
-0.143151
-0.051684
-0.159784
-0.101406
-0.150209
-0.089086
-0.133318
-0.091345
-0.100532
-0.032299
-0.118380
-0.080361
0.006827
-0.102901
-0.113303
-0.110585
-0.011874
-0.120125
-0.140348
-0.160135
-0.123715
-0.021507
-0.167230
-0.093077
-0.055116
-0.037272
-0.054914
-0.141799
-0.037057
-0.014609
-0.067979
-0.128666
-0.010879
-0.059292
0.043536
0.006686
0.003886
-0.059996
0.035766
0.007682
-0.006680
0.069117
0.025308
0.015355
0.041944
0.039008
-0.001854
0.010193
0.113425
0.115537
0.068415
0.124683
0.078924
0.106910
0.031463
0.099596
0.072926
0.037593
-0.045865
0.026316
-0.030788
-0.054111
0.030733
0.039506
0.014242
-0.048608
0.035193
-0.068418
-0.066325
-0.093835
-0.095963
-0.069034
-0.006258
-0.033331
-0.019708
-0.005558
-0.055070
-0.043566
-0.111160
-0.134380
-0.082207
-0.105479
-0.053617
-0.058971
-0.074910
-0.079305
-0.137900
-0.116242
-0.163554
-0.169378
-0.088113
-0.094779
0.042863
0.262085
0.546079
0.890778
1.216996
1.296787
1.287533
1.184877
0.714616
0.448579
0.068874
-0.192365
-0.239348
-0.326835
-0.381009
-0.367545
-0.088241
-0.170757
-0.076268
-0.141800
-0.025150
-0.091179
-0.113613
0.028703
-0.031250
0.003357
-0.040668
-0.039175
-0.123991
-0.091808
0.008948
-0.045177
-0.056201
0.031116
0.011653
0.036729
0.011134
0.088332
0.027390
0.101038
0.114480
0.096209
0.163310
0.179372
0.185165
0.239149
0.217483
0.193056
0.271054
0.285822
0.257418
0.323116
0.310139
0.365808
0.399307
0.376154
0.396386
0.414482
0.503826
0.404862
0.462253
0.419449
0.553955
0.525431
0.420330
0.455600
0.481533
0.427184
0.455593
0.466081
0.464857
0.377052
0.441205
0.342350
0.311306
0.358736
0.296315
0.217245
0.251594
0.231624
0.260015
0.209449
0.158683
0.251701
0.136972
0.092380
0.129939
0.028827
0.104827
0.054663
0.088712
0.048081
-0.035318
0.053091
0.034855
-0.038802
-0.002907
-0.023265
-0.026473
0.058587
0.034471
-0.019719
0.012675
-0.055090
-0.061282
-0.003275
0.039266
0.111453
-0.026174
-0.011657
0.073630
-0.005842
-0.055139
0.011344
-0.003629
-0.028181
-0.023957
-0.041791
-0.031438
0.019486
-0.047585
0.028107
0.049532
0.032121
-0.033123
-0.007311
0.009857
0.001471
0.014744
0.035604
-0.060001
-0.010345
0.028567
0.007573
0.017808
0.005918
0.044604
-0.022123
-0.018651
0.026723
0.011401
0.019408
0.000733
-0.053027
-0.063084
-0.022386
-0.026347
-0.018840
0.026803
0.020496
-0.082939
-0.061689
0.067282
0.058867
0.004307
0.091386
-0.024795
0.048518
0.117192
-0.015816
0.015022
-0.026834
0.045925
0.056276
0.003016
0.006161
0.000236
0.086549
0.027524
0.019252
0.107370
0.099594
0.022481
0.068517
0.078646
0.066551
0.084894
0.177856
0.157912
0.080197
0.091432
0.173801
0.098029
0.223437
0.185412
0.199445
0.158311
0.196720
0.182366
0.202131
0.201421
0.242190
0.250025
0.154933
0.224124
0.218315
0.202920
0.159406
0.110112
0.121987
0.108208
0.102925
0.141567
0.156409
0.104258
0.108027
0.109722
0.072460
0.084066
0.012776
0.060813
-0.005654
0.059804
0.194253
0.039920
0.039260
0.045885
0.063954
0.038703
0.045600
0.038580
-0.020371
0.027794
0.018426
0.077432
0.083789
0.017246
-0.039710
-0.033088
-0.039298
0.025989
0.228689
0.390716
0.794713
1.237853
1.445825
1.481281
1.289987
1.102613
0.845769
0.470345
0.208283
-0.021913
-0.163400
-0.287535
-0.250708
-0.096333
-0.035997
0.023495
-0.058169
0.024674
0.115213
0.069961
0.051534
0.144778
0.084580
0.061742
0.106669
0.092479
0.034435
0.177900
0.028800
0.131573
0.066682
0.237675
0.200032
0.205208
0.138721
0.191688
0.221759
0.202797
0.269110
0.185472
0.229316
0.194667
0.252717
0.321679
0.309905
0.346647
0.392807
0.416791
0.387443
0.450072
0.448664
0.519945
0.520243
0.553674
0.525583
0.592185
0.517813
0.511306
0.609272
0.516663
0.616592
0.591653
0.559375
0.640623
0.545477
0.574342
0.498217
0.574051
0.499744
0.548604
0.445926
0.543028
0.479492
0.441162
0.436450
0.422739
0.349497
0.373817
0.287531
0.346285
0.311037
0.308329
0.235844
0.222314
0.112281
0.259355
0.129655
0.083101
0.196242
0.142085
0.089088
0.128350
0.094096
0.153591
0.051951
0.079877
0.134836
0.100933
0.033808
0.127657
0.173164
0.103739
0.088578
