0.023318
0.027909
-0.023263
0.078528
0.033992
-0.098506
-0.068638
0.044822
0.040569
-0.017069
0.013305
0.011067
0.010667
0.006205
0.017593
-0.035692
-0.013574
0.001354
0.034926
-0.003968
0.010275
-0.021619
-0.015682
0.056893
0.005700
0.022803
0.026410
0.078609
0.084896
0.131441
0.031435
0.181467
0.132150
0.109109
0.148111
0.156641
0.135860
0.188669
0.138473
0.212495
0.191607
0.199639
0.187472
0.145542
0.175630
0.181779
0.209159
0.289024
0.223683
0.088409
0.238587
0.124798
0.142159
0.256126
0.121243
0.107379
0.101986
0.090570
0.135128
0.063899
0.024897
0.162490
0.020882
0.077507
0.108434
0.091232
0.056689
0.004428
0.040676
0.017347
-0.006535
0.009789
0.079792
0.009249
0.041587
0.080061
0.082315
0.055267
-0.002924
0.021466
0.320913
0.568718
0.894329
1.137843
1.323677
1.336394
1.214698
0.892595
0.580377
0.199390
-0.018821
-0.107122
-0.210725
-0.147703
-0.133495
0.015491
0.004473
0.068271
0.042776
0.058869
0.107433
0.055449
0.093207
0.114864
0.132499
0.141204
0.034822
0.113305
0.109091
0.135287
0.176610
0.181804
0.200912
0.129381
0.150749
0.244102
0.184455
0.258676
0.295883
0.348678
0.359863
0.365144
0.361469
0.403158
0.355125
0.378967
0.527372
0.439250
0.543256
0.518285
0.543975
0.464980
0.547349
0.496526
0.524275
0.591815
0.531309
0.614339
0.542770
0.565056
0.540973
0.585559
0.499097
0.567159
0.501184
0.473603
0.574853
0.481465
0.535878
0.449035
0.351024
0.414257
0.340316
0.348105
0.305109
0.304679
0.312705
0.292628
0.237186
0.239332
0.199180
0.193909
0.165896
0.135797
0.125153
0.214794
0.144307
0.143077
0.113042
0.076542
0.082285
0.143676
0.095053
0.131142
0.129945
0.133754
0.068448
0.122377
0.090764
0.080407
0.088515
0.024184
0.114726
0.120060
0.091355
0.134354
0.083236
0.074084
0.143336
0.075287
0.079754
0.158841
0.009462
0.068630
0.136068
0.178545
0.098513
0.064218
0.001722
0.028712
0.098243
0.076107
0.131871
-0.009353
0.076442
0.043020
0.155740
0.008881
0.117118
0.129747
0.108882
0.085378
0.073688
0.104428
0.148797
0.147332
0.021258
0.078704
0.133327
0.125190
0.115410
0.099041
0.141272
0.084280
0.049977
0.064816
0.097338
0.136656
0.101690
0.103482
0.047789
0.140003
0.079149
0.145359
0.070483
0.089469
0.053591
0.145232
0.135289
0.135054
0.163639
0.142325
0.175298
0.185951
0.237761
0.232175
0.236537
0.164229
0.224793
0.279408
0.288037
0.284683
0.221844
0.249282
0.359509
0.268122
0.159276
0.247953
0.226608
0.265522
0.208690
0.214141
0.267682
0.239269
0.174129
0.168812
0.228991
0.093379
0.116235
0.047774
0.123482
0.102178
0.112472
0.093122
0.101250
0.092919
0.149307
0.094581
0.040662
0.124224
0.035989
0.097457
0.045040
0.070828
0.078618
0.053984
0.009508
0.015740
-0.019705
0.015341
0.048362
0.283256
0.491542
0.763576
1.130579
1.396452
1.492248
1.252998
1.101350
0.677073
0.271979
0.044338
-0.166868
-0.209832
-0.114945
-0.138015
-0.066588
0.040555
0.012463
0.040581
0.065337
0.100558
0.049969
0.099770
0.138631
0.098264
0.073206
0.045576
0.100524
0.102099
0.189687
0.151413
0.191050
0.210141
0.150552
0.251149
0.307493
0.278098
0.260261
0.369281
0.337827
0.282293
0.365985
0.390817
0.413217
0.325531
0.350143
0.447305
0.422523
0.498813
0.425746
0.459572
0.423646
0.443833
0.529573
0.486887
0.507704
0.505891
0.590031
0.485152
0.455186
0.524402
0.529840
0.504184
0.548266
0.505922
0.480390
0.399322
0.423583
0.423293
0.387316
0.366302
0.409827
0.258602
0.292726
0.327615
0.264157
0.241915
0.247155
0.230182
0.243676
0.209317
0.111138
0.130516
0.127395
0.141922
0.093639
0.133599
0.056208
0.068343
0.038999
0.104094
0.043990
0.080516
0.075266
0.061855
-0.024357
0.071130
0.053134
0.035906
0.010781
0.052658
0.065730
0.037243
0.026856
0.031267
-0.029552
0.028624
-0.018452
0.054066
-0.000622
0.013859
-0.019347
0.032661
-0.023093
-0.019238
0.058924
-0.004439
-0.032723
0.047765
-0.026657
-0.061356
0.084887
0.002480
-0.019476
0.006327
0.086231
-0.026448
0.011280
-0.054478
-0.059782
-0.009315
0.013186
-0.051008
0.043728
-0.025231
-0.057310
-0.048412
0.028629
0.005075
-0.047529
0.008164
-0.033889
0.013914
0.001249
-0.024123
-0.040767
-0.061032
0.028279
0.001005
-0.008853
0.013493
-0.009062
-0.002204
0.021544
-0.018739
0.003969
0.037251
0.013746
-0.011443
0.053728
0.018044
0.113640
0.075333
0.038999
0.156831
0.106823
0.145189
0.127334
0.160407
0.109617
0.088693
0.111644
0.217546
0.157771
0.079525
0.081670
0.136960
0.167353
0.106926
0.067766
0.132524
0.098142
0.071768
0.126529
0.091636
0.110763
0.081618
-0.011320
0.006974
0.097872
0.022952
-0.042000
-0.053707
0.053807
0.026851
0.017608
0.030916
0.047326
-0.042550
-0.046881
-0.107160
-0.063359
-0.010656
-0.084304
-0.078181
-0.001459
-0.093880
-0.087798
0.010887
-0.071859
-0.065761
0.084076
0.337933
0.631621
0.928072
1.269311
1.280808
1.220303
0.996318
0.730534
0.346551
-0.028714
-0.176149
-0.252527
-0.324657
-0.211770
-0.094065
-0.061191
-0.043273
-0.013159
-0.007109
-0.076666
-0.019453
0.045393
-0.048254
-0.004342
0.024346
0.035809
0.079085
0.103325
0.032002
0.062637
0.136320
-0.003329
0.147184
0.078993
0.069461
0.124082
0.114315
0.169108
0.192051
0.182213
0.257161
0.158988
0.261622
0.290943
0.238212
0.286921
0.373473
0.366013
0.325359
0.422996
0.410904
0.405329
0.416248
0.517282
0.416424
0.429268
0.466906
0.415679
0.474093
0.435013
0.349296
0.416788
0.430379
0.370640
0.341597
0.392287
0.376447
0.389446
0.348465
0.283140
0.247546
0.307013
0.340953
0.187187
0.238352
0.209783
0.109832
0.188707
0.153345
0.081467
0.113819
-0.000491
0.115443
0.078957
0.067264
-0.005879
0.037074
0.041379
-0.001783
-0.088462
0.070730
-0.044768
0.061427
-0.004306
-0.006135
0.040490
0.001428
0.004917
-0.021263
-0.003861
-0.038968
-0.008616
-0.068458
0.047181
-0.019686
-0.071463
-0.054386
-0.083232
-0.048837
0.023328
-0.053654
-0.035850
0.048508
-0.052408
-0.050906
0.049701
0.022592
-0.113651
-0.055578
-0.050769
-0.071311
-0.084263
-0.085205
-0.036847
0.033148
-0.022125
-0.045599
-0.034530
-0.063261
-0.126866
-0.013768
-0.020923
-0.036831
-0.064591
-0.087532
0.013844
-0.066181
0.028602
0.015319
0.040361
-0.079562
-0.056906
-0.027640
-0.044679
-0.001904
-0.064588
0.036440
0.054400
0.009419
-0.030452
0.042809
-0.020841
0.004403
0.026218
0.043350
0.042142
0.007079
0.010206
0.022159
0.118181
0.110035
0.077242
0.016446
0.025976
0.058606
0.138036
0.179132
0.028202
0.093048
0.204185
0.211484
0.258663
0.073682
0.155947
0.195291
0.187804
0.126368
0.146842
0.151699
0.178118
0.124950
0.114547
0.028443
0.102331
0.040878
0.111383
0.027407
0.057074
0.064707
-0.015003
0.024486
-0.006046
0.029114
-0.017854
-0.071046
0.088910
0.025808
-0.024249
0.025808
-0.001435
-0.031532
-0.055819
-0.003581
-0.005327
0.017977
-0.044561
0.021185
0.035307
-0.031142
-0.037255
0.135230
0.334440
0.540677
0.875840
1.176263
1.395037
1.282018
1.136942
0.828500
0.436101
0.120734
-0.117976
-0.316017
-0.233035
-0.207378
-0.067353
-0.032537
-0.024836
-0.031161
0.093575
0.012342
-0.028753
-0.005889
-0.009653
0.035376
0.052354
0.083574
0.017485
0.006633
0.121516
0.106172
0.156222
0.112435
0.148132
0.146552
0.078052
0.225316
0.203303
0.221543
0.247087
0.250395
0.249264
0.330917
0.256549
0.359577
0.354887
0.314030
0.443952
0.407344
0.499861
0.527096
0.419073
0.548466
0.488844
0.471489
0.482678
0.636161
0.447715
0.534288
0.594930
0.474963
0.561178
0.546211
0.510885
0.431841
0.446400
0.536591
0.422950
0.507907
0.442541
0.325173
0.399703
0.416185
0.309158
0.312444
0.357761
0.289264
0.264846
0.230324
0.244770
0.245849
0.247279
0.232898
0.130834
0.110790
0.143375
0.054400
0.035919
0.112144
0.155988
0.151870
0.108674
0.110451
0.076035
0.101067
0.167980
0.019589
0.122668
0.045337
0.062984
0.068462
0.236758
0.071510
0.051378
0.003528
0.074502
0.075344
0.101368
0.088775
0.067232
0.047667
0.093111
0.080817
0.071398
0.112550
-0.029456
0.029410
0.011620
0.062274
0.066294
0.080221
0.030914
0.105312
0.063679
0.095735
0.021269
0.033559
0.084772
0.068218
0.020221
0.038135
0.060321
0.045099
0.131076
0.037156
0.109907
-0.016032
0.039328
0.085235
0.089646
0.137771
0.065751
0.031292
0.110907
0.109134
0.049607
0.054053
0.050659
0.073620
0.028556
0.111726
0.136136
0.100701
0.031330
0.071520
0.097966
0.142604
0.124799
0.145110
0.076676
0.177375
0.083585
0.078584
0.254207
0.220223
0.207401
0.176374
0.226169
0.191446
0.260565
0.255117
0.202142
0.294738
0.283605
0.281547
0.232757
0.300191
0.324775
0.230736
0.264070
0.221019
0.167030
0.265536
0.167604
0.182011
0.093111
0.226210
0.153622
0.090191
0.083327
0.136727
0.150499
0.189521
0.103438
0.097853
0.068476
0.112064
0.088726
0.168543
0.043942
0.127529
0.081671
0.111246
0.068715
0.130133
0.112743
-0.029627
0.113113
0.052720
-0.022174
0.059179
0.140637
0.323943
0.569165
0.895840
1.271312
1.339394
1.500000
1.296588
1.054993
0.562120
0.233481
0.059383
-0.125336
-0.176009
-0.128204
-0.055944
0.055059
0.030812
0.100403
0.156313
0.196129
0.141640
0.105066
0.152946
0.100023
0.163628
0.135008
0.133399
0.213336
0.190755
0.142411
0.166163
0.159805
0.253577
0.275407
0.175535
0.286508
0.298435
0.278454
0.275310
0.307755
0.297910
0.285847
0.382957
0.352475
0.400431
0.323854
0.443558
0.538836
0.524383
0.476455
0.569266
0.508452
0.499628
0.550809
0.610827
0.573288
0.558706
0.594656
0.508571
0.548272
0.537007
0.602606
0.569057
0.518601
0.489458
0.503055
0.469203
0.499715
0.528675
0.484229
0.445259
0.367626
0.375512
0.371916
0.328277
0.353367
0.332893
0.256376
0.207104
0.217446
0.302246
0.246586
0.223114
0.223123
0.143726
0.199192
0.124370
0.132687
0.173920
0.115470
0.091925
0.112779
0.070119
0.088954
0.158498
0.142421
0.098431
0.093677
0.143184
0.017442
0.048753
0.054965
0.081930
0.085810
0.095677
0.123898
0.027468
0.024819
-0.065004
0.078325
0.083099
0.089037
0.073922
0.052351
0.096808
0.000518
0.072519
0.035001
0.112502
0.049370
0.091570
0.027181
0.008192
0.145324
0.117204
0.085469
0.053488
0.077221
0.024271
0.145462
-0.032484
0.158417
0.026800
0.049972
0.080888
0.065516
0.057169
0.077172
0.066251
0.056150
0.104098
0.074689
0.062702
0.016461
0.114848
0.074046
0.129671
0.034399
0.097251
0.014132
0.117920
0.078815
0.052790
0.082787
0.062819
0.058861
0.124392
0.189825
0.103570
0.101061
0.127626
0.132578
0.120710
0.162364
0.130207
0.165454
0.223125
0.182278
0.201163
0.189467
0.234268
0.184803
0.187112
0.216124
0.218385
0.236698
0.203782
0.188856
0.233005
0.169253
0.170392
0.096588
0.137427
0.140582
0.187771
0.078411
0.072390
0.094551
0.073109
0.095078
0.097040
0.053531
0.078175
0.113733
0.050840
0.009972
0.028918
0.054461
0.045685
0.032333
0.016997
-0.006630
-0.035212
-0.035796
-0.007517
0.030053
-0.017881
0.038242
0.018859
-0.005191
0.066151
0.172282
0.372951
0.740111
1.085834
1.208510
1.359292
1.276551
1.025643
0.590538
0.336328
0.033790
-0.123926
-0.266983
-0.228620
-0.191378
-0.200055
-0.024016
-0.017542
0.007374
0.001967
0.025626
-0.006850
0.047758
0.011180
0.097830
-0.036259
0.049819
0.052578
0.119585
0.164270
0.119162
0.110785
0.137582
0.151272
0.156561
0.159533
0.220047
0.202918
0.208252
0.194721
0.192894
0.220772
0.211264
0.310487
0.297681
0.342437
0.318874
0.387565
0.286843
0.351870
0.379902
0.435297
0.425882
0.357917
0.473343
0.466542
0.554908
0.473759
0.376270
0.399906
0.466763
0.435842
0.477561
0.396604
0.340187
0.374351
0.397180
0.330938
0.373018
0.349623
0.313118
0.368503
0.277571
0.247835
0.235327
0.236119
0.182799
0.149194
0.125824
0.200055
0.112296
0.072787
0.083224
0.055509
0.080330
0.078770
0.092770
0.077595
0.004572
-0.041372
0.058079
0.068683
-0.007455
-0.039370
-0.000094
-0.025940
-0.065332
-0.050362
0.022066
-0.011847
0.025913
-0.030833
-0.008656
-0.053429
-0.080463
-0.087156
-0.103125
-0.032000
-0.102791
-0.024715
-0.072801
-0.012706
-0.091184
-0.054437
-0.126289
-0.095211
-0.136800
-0.067757
-0.134343
-0.071526
-0.097774
-0.044170
-0.023445
0.000372
-0.108418
-0.077218
-0.065143
-0.121112
-0.157448
-0.095301
-0.152394
-0.102996
-0.102451
-0.053155
0.018453
-0.086326
-0.013945
-0.050417
0.005069
-0.041784
0.006355
-0.111411
-0.017497
-0.066417
-0.029931
-0.037179
-0.025328
-0.137862
-0.034758
-0.095813
-0.044320
-0.007571
-0.061514
-0.080108
-0.076429
-0.018254
-0.066493
-0.016261
-0.024411
0.006137
-0.015018
0.038249
-0.007673
0.037075
-0.010955
0.105687
0.031571
0.001666
0.059891
0.092065
0.063112
0.131838
0.031568
0.069946
0.144886
0.109229
0.084640
0.048607
0.154115
0.069813
0.133354
0.042788
0.039517
0.046957
-0.021868
0.026547
0.009267
0.094899
-0.031951
-0.077333
-0.010930
-0.023878
0.014959
-0.053766
-0.108557
-0.057870
-0.039455
-0.096027
-0.012230
-0.075950
-0.051894
-0.084292
-0.041132
-0.071766
-0.050536
-0.054041
-0.078743
-0.193304
-0.153352
-0.102670
-0.023569
0.028536
0.299589
0.535319
0.965408
1.028905
1.332871
1.132360
0.996033
0.610949
0.274377
0.055501
-0.185643
-0.213602
-0.352591
-0.276766
-0.109565
-0.135672
-0.117085
-0.072424
-0.045364
-0.076002
-0.061003
0.006871
-0.063931
-0.004166
-0.058440
-0.012300
-0.044169
-0.051603
-0.052338
-0.014406
0.072317
0.018500
0.117646
0.053193
0.102234
0.226235
0.159482
0.179199
0.084270
0.176939
0.172931
0.211183
0.280279
0.214369
0.243918
0.307769
0.274652
0.310863
0.290806
0.367398
0.390360
0.388526
0.383605
0.385524
0.458785
0.351529
0.454095
0.474654
0.445304
0.392511
0.460325
0.376886
0.436244
0.392319
0.396511
0.277866
0.321822
0.345224
0.280223
0.381245
0.263128
0.244042
0.275955
0.247280
0.166782
0.211040
0.068010
0.228405
0.109629
0.157382
0.047958
0.036624
0.073363
0.034394
0.050637
0.071171
-0.005980
-0.047693
0.000405
-0.042738
-0.001840
0.014078
0.025637
-0.006357
0.034382
-0.051829
0.013871
-0.060787
-0.068390
-0.000533
-0.085764
-0.078918
-0.000372
-0.019672
-0.021891
-0.077526
-0.050820
-0.022460
-0.049835
-0.004327
-0.073683
-0.049600
-0.051850
-0.062365
-0.051426
-0.044768
-0.023511
-0.072726
0.038484
-0.031474
-0.082366
-0.024162
-0.020927
-0.051144
-0.054698
-0.061698
-0.018176
-0.017513
-0.031389
-0.004634
-0.074960
-0.082247
-0.060468
-0.017926
-0.052358
-0.021668
-0.021432
-0.061821
0.025223
-0.058024
-0.020190
-0.034069
-0.129315
-0.051154
-0.059404
-0.020574
-0.009721
0.043774
-0.027982
-0.049238
-0.027404
0.014243
0.062270
0.080355
0.048366
-0.063996
0.010893
0.041891
0.092004
0.095257
0.061244
0.153370
-0.009709
-0.000375
0.141297
0.065450
0.143302
0.082562
0.172322
0.089178
0.143192
0.148313
0.172601
0.147052
0.207464
0.144382
0.089538
0.128889
0.094236
0.049408
0.086245
0.118298
0.065198
0.125432
0.052423
0.107151
0.023598
0.097467
0.004113
-0.001718
0.045838
0.048142
-0.008188
-0.049625
-0.046295
-0.011611
0.044105
0.042766
0.018555
0.030245
-0.014359
-0.034765
-0.019918
-0.045201
0.009977
-0.030232
-0.057811
0.002240
-0.001023
-0.006771
0.183717
0.276964
0.505585
0.878250
1.133667
1.327228
1.294803
1.201223
0.887639
0.480141
0.090647
-0.065554
-0.281639
-0.198538
-0.225829
-0.145852
-0.106356
-0.052740
0.022725
0.014504
-0.019021
-0.003904
-0.040191
0.122790
0.080385
0.027379
0.016310
0.000901
0.004389
0.121645
0.036179
0.088228
0.081589
0.184992
0.151319
0.244282
0.198002
0.201011
0.243943
0.289459
0.249544
0.315759
0.402373
0.376320
0.342834
0.399855
0.426771
0.359983
0.411847
0.439003
0.485379
0.407663
0.471597
0.463582
0.398909
0.486613
0.521858
0.491305
0.529131
0.517663
0.498365
0.449340
0.468114
0.523558
0.500518
0.501284
0.360477
0.443363
0.444513
0.380726
0.431402
0.304168
0.396116
0.424331
0.362426
0.283873
0.179685
0.270165
0.212861
0.218111
0.201368
0.237536
0.190190
0.206067
0.132939
0.143700
0.057811
0.130347
0.137441
0.134454
0.053369
0.050449
0.152879
0.109030
0.089280
0.004729
-0.013023
0.057114
0.058926
0.046157
0.054171
0.089965
-0.056201
0.057489
0.092572
0.014325
-0.033542
0.055478
0.028722
0.011709
0.130949
0.038870
0.018408
0.087605
0.108129
-0.056232
0.113225
-0.012921
0.028072
0.035512
0.050416
0.069562
0.043855
0.016546
-0.010715
0.086183
-0.006287
0.034653
-0.013101
0.095129
0.020240
-0.012294
-0.009710
0.004432
0.068505
0.047087
0.009860
0.015299
-0.012006
0.036356
0.038398
-0.007466
0.111150
0.058242
0.029968
0.114516
0.062637
0.023970
0.050246
0.090539
0.121478
0.075202
0.083804
0.116838
0.034352
0.059856
0.046295
0.185317
0.103661
0.020130
0.158720
0.113351
0.117816
0.079931
0.097011
0.101621
0.185062
0.152947
0.182390
0.178015
0.280130
0.177929
0.269049
0.161618
0.166105
0.212720
0.193478
0.186867
0.209234
0.085731
0.138082
0.198755
0.204333
0.121696
0.099472
0.106091
0.098610
0.136419
0.058765
0.081223
0.083466
0.033016
0.023353
0.049322
0.012414
0.035590
0.050087
0.071110
0.051391
0.062540
0.091513
0.030895
0.116518
0.036644
0.013125
0.002477
-0.096058
-0.003658
-0.016176
0.065311
0.024491
0.134297
0.212303
0.475049
0.781251
1.084060
1.337745
1.374228
1.237738
0.951251
0.574821
0.309893
0.045138
-0.167877
-0.302848
-0.232011
-0.156343
-0.074606
0.020139
0.015400
0.071733
0.037729
0.003259
0.063859
0.011862
0.025999
0.021544
0.044357
0.050493
0.122399
0.126122
0.064395
0.099441
0.108698
0.173179
0.193735
0.160802
0.203626
0.202350
0.163745
0.240843
0.278913
0.315752
0.252317
0.321607
0.366896
0.303732
0.282985
0.422384
0.479111
0.378071
0.440723
0.391002
0.514775
0.511865
0.486223
0.514678
0.525474
0.458554
0.555984
0.442923
0.520175
0.535251
0.578550
0.529648
0.507016
0.489445
0.450085
0.418266
0.380599
0.369119
0.362503
0.366388
0.372446
0.303138
0.310879
0.283907
0.279728
0.145524
0.116680
0.201050
0.131885
0.139383
0.133784
0.093628
0.088349
0.127856
0.154423
0.030721
0.053239
0.095002
0.066859
-0.019925
0.060283
0.078813
0.002452
0.031801
-0.007995
-0.023239
0.023790
0.011234
-0.038147
0.022806
-0.056874
-0.041455
-0.028632
-0.012265
0.008614
0.033811
-0.053683
-0.043368
0.001951
-0.009051
-0.012868
-0.087840
0.037165
-0.051011
-0.029941
-0.016904
0.022451
-0.007571
-0.145777
-0.058270
-0.020999
-0.068999
0.012717
-0.022547
-0.005564
-0.071098
-0.029024
-0.023634
0.037999
-0.026493
-0.053020
-0.076119
-0.061019
-0.017457
-0.028264
-0.055751
-0.060925
-0.154567
-0.073527
-0.121115
-0.011915
-0.109118
-0.112754
-0.063249
-0.026693
-0.075318
-0.057107
-0.001938
-0.102042
0.023134
-0.112685
-0.045285
-0.035753
-0.012526
-0.037462
-0.014432
-0.040013
-0.008280
0.029339
0.102044
-0.030815
0.028047
0.047378
0.089880
0.063579
0.055750
0.049716
0.145608
0.155580
0.156742
0.103182
0.066801
0.162829
0.169899
0.156988
0.101340
0.152025
0.085009
-0.024810
0.054071
0.028390
0.103332
0.062364
0.095937
0.048250
0.011833
-0.017826
0.000207
0.002236
0.023921
-0.046607
-0.030867
-0.082171
-0.091370
-0.039607
-0.056947
-0.061254
-0.087004
-0.038867
-0.060499
-0.094157
-0.036424
-0.123767
-0.011424
-0.135551
-0.054136
0.000878
-0.108537
-0.075782
-0.085157
0.091034
0.271484
0.625774
0.906980
1.210809
1.187832
1.168878
0.931014
0.622623
0.251415
0.002255
-0.171499
-0.253988
-0.197222
-0.179869
-0.077769
-0.121347
-0.117198
-0.103510
-0.013603
-0.088275
-0.035746
-0.089875
-0.044965
-0.085167
-0.133876
-0.032407
-0.056887
-0.033365
-0.051406
-0.091071
0.031908
0.123788
-0.017086
0.014433
0.066123
0.071522
0.054590
0.062828
0.138325
0.118688
0.218650
0.223490
0.164918
0.287860
0.238299
0.293708
0.230839
0.277453
0.343317
0.326024
0.331417
0.323824
0.431387
0.458600
0.404358
0.384193
0.442255
0.481267
0.422871
0.370401
0.394710
0.373971
0.345290
0.344541
0.294468
0.303572
0.314495
0.277471
0.324082
0.272938
0.200155
0.166312
0.114449
0.164156
0.184721
0.124072
0.151500
0.079175
0.118357
0.078336
-0.000078
-0.029643
0.038597
0.042723
0.003170
-0.047969
-0.069606
0.018945
0.015842
-0.138471
-0.053203
-0.067537
-0.047170
-0.041620
-0.014772
-0.014819
-0.052134
-0.169075
-0.200791
-0.046275
-0.018579
-0.037715
-0.089896
-0.078615
-0.048411
-0.073301
-0.078603
-0.070799
-0.066287
-0.022137
-0.108261
-0.108350
-0.033671
-0.022172
-0.076953
-0.069435
-0.088885
-0.094803
-0.091281
-0.149048
-0.114010
-0.110319
-0.119327
-0.099988
-0.067293
-0.107270
-0.051570
-0.049089
-0.036956
-0.034341
-0.082187
-0.032731
-0.119990
-0.018462
-0.060533
-0.071604
-0.132630
-0.119351
-0.124790
-0.030331
-0.080277
-0.096143
-0.096530
-0.111591
-0.084802
-0.076972
-0.074118
-0.133600
-0.099733
-0.091905
-0.033363
-0.114663
-0.088162
-0.101521
-0.093884
-0.135381
0.024614
-0.037440
-0.021578
0.040511
-0.030071
-0.045870
-0.025908
0.030951
0.006509
0.028216
0.043676
0.093654
0.013195
0.113035
0.031063
0.104806
0.095194
0.096873
0.089350
0.101662
0.093877
0.047393
0.050769
0.063979
-0.019656
0.111665
-0.012489
0.015207
0.011631
-0.032462
0.029684
-0.003560
0.009419
0.021260
-0.034776
0.007695
-0.152354
-0.030566
0.005458
-0.107946
-0.096461
-0.082043
-0.049041
-0.153201
-0.049702
0.051821
-0.015722
-0.018807
-0.081626
0.017781
-0.101564
-0.100066
-0.148319
-0.155399
0.022330
0.195533
0.503390
0.886231
1.139096
1.294954
1.275597
1.027077
0.661576
0.310772
-0.011837
-0.146694
-0.338485
-0.318082
-0.342496
-0.174650
-0.151236
-0.013165
-0.063166
-0.044000
-0.088768
-0.001500
0.008487
-0.051844
-0.026141
0.004203
0.040312
-0.010072
0.001220
0.044551
0.018596
0.116385
0.054885
0.045774
0.145088
0.096290
0.082999
0.135957
0.134326
0.232348
0.206720
0.212410
0.236430
0.333167
0.401571
0.264841
0.285808
0.310023
0.361000
0.416295
0.389412
0.430968
0.427382
0.319768
0.378905
0.476944
0.417572
0.502084
0.452710
0.516493
0.427363
0.495354
0.462860
0.477999
0.487313
0.391784
0.341744
0.352935
0.384494
0.327403
0.340197
0.341883
0.256454
0.302911
0.232837
0.254085
0.263381
0.202011
0.203679
0.155881
0.174042
0.146582
0.043893
0.106505
0.068267
0.103287
0.124699
0.046478
0.104886
0.036251
0.037541
0.029037
0.014095
-0.011350
-0.031589
0.038224
0.007761
0.042113
-0.019829
-0.039116
-0.035424
0.015343
0.008829
-0.026222
-0.054843
0.062821
0.055322
0.049459
-0.020148
0.003769
0.051968
0.025023
0.084828
0.028539
-0.027067
0.020315
-0.030851
-0.017146
0.053004
0.039648
0.030773
0.026993
-0.028516
0.017916
0.053693
-0.012824
0.012065
0.009050
0.090961
0.024506
0.007488
-0.032873
-0.009881
-0.013181
0.016331
0.042023
0.053785
0.016052
-0.010029
-0.044625
0.006535
0.037508
0.090756
-0.012250
0.067613
0.049695
0.096500
0.061729
0.000651
0.094083
0.076132
-0.033391
0.054672
0.067539
-0.015200
0.056616
0.064000
-0.040021
-0.009074
0.046224
0.069840
0.159449
0.083056
0.174278
0.075564
0.170815
0.126674
0.213532
0.189473
0.262183
0.160601
0.197263
0.229932
0.270195
0.198450
0.210546
0.190763
0.248422
0.171490
0.232986
0.158859
0.186528
0.166378
0.147644
0.146335
0.134722
0.121911
0.063470
0.156853
0.126476
0.059448
0.136122
0.098544
0.050569
0.088176
0.054787
0.038887
0.111451
0.046290
0.088192
0.077114
0.045194
-0.013514
0.019330
0.074630
0.126753
0.057404
0.072990
0.075385
0.028161
0.099113
0.097066
0.300281
0.598792
0.960326
1.179276
1.326104
1.432007
1.251113
0.847332
0.601176
0.223326
-0.062755
-0.156157
-0.154053
-0.051669
-0.120959
0.037720
-0.000089
0.056818
0.071856
0.096997
0.003398
0.035345
0.128818
0.143880
0.111616
0.150542
0.037706
0.196859
0.166452
0.154519
0.159446
0.219928
0.153303
0.184051
0.191737
0.171451
0.237994
0.294732
0.229131
0.266081
0.347236
0.354203
0.366467
0.357266
0.339455
0.473344
0.459616
0.501157
0.422513
0.473858
0.456569
0.468697
0.621680
0.467136
0.472037
0.576740
0.489159
0.544432
0.596930
0.484505
0.573641
0.591937
0.472174
0.399667
0.507611
0.463103
0.506876
0.391217
0.439256
0.399206
0.383136
0.370347
0.402965
0.242193
0.266973
0.280255
0.336226
0.237986
0.215798
0.240754
0.180747
0.124632
0.144968
0.176602
0.161635
0.144860
0.124846
0.103069
0.108766
0.112106
0.075002
0.132373
0.081052
0.101481
0.143026
0.061759
