0.120548
-0.012979
0.030220
0.009574
-0.009646
-0.037332
0.066433
0.013168
0.043915
0.006206
0.031584
0.034517
0.031123
0.040890
-0.002227
0.027595
0.057352
0.067500
0.097398
0.110774
0.103598
0.089846
0.046947
0.039357
0.046332
0.035366
0.093156
0.083289
0.116812
0.060867
0.224597
0.232982
0.205442
0.074773
0.180125
0.098262
0.190304
0.229347
0.115769
0.180162
0.175354
0.224483
0.244984
0.317447
0.193439
0.230683
0.163049
0.186227
0.201381
0.178857
0.082916
0.196335
0.144934
0.133541
0.063255
0.117616
0.085330
0.058154
0.078841
0.032738
0.046678
0.041318
0.091225
0.123186
0.032143
0.005541
0.064252
0.089651
0.042184
0.026214
0.002090
0.094815
0.200469
0.148922
0.210706
0.487612
0.695077
1.024730
1.383869
1.390651
1.337284
1.016456
0.693249
0.444206
0.036643
-0.096674
-0.261190
-0.148669
-0.036993
0.019241
0.066700
0.084316
0.052859
0.063022
0.059840
0.185936
0.024700
0.153996
0.150305
0.066799
0.093135
0.201637
0.209396
0.180597
0.245608
0.261479
0.188092
0.294668
0.244935
0.325776
0.349227
0.330632
0.396169
0.374927
0.376899
0.392277
0.470477
0.460592
0.466871
0.481908
0.608855
0.476544
0.579917
0.507084
0.539498
0.484537
0.581768
0.634663
0.615633
0.513285
0.558021
0.612808
0.679933
0.556643
0.566082
0.623973
0.581154
0.552870
0.398131
0.424731
0.447233
0.417213
0.434011
0.385193
0.311118
0.336022
0.283568
0.386318
0.299322
0.246343
0.316374
0.239043
0.203411
0.259797
0.167080
0.159370
0.171862
0.142578
0.168628
0.204289
0.094869
0.188773
0.132523
0.097294
0.039293
0.120635
0.098367
0.114253
0.048504
0.040940
0.149294
0.066643
0.026048
0.085651
0.112100
0.077387
0.003905
0.064308
0.042771
0.053358
0.176631
0.117543
-0.009065
0.102624
0.139007
0.070839
0.041460
0.125834
0.133686
0.190110
0.145534
0.056689
-0.004859
0.121299
-0.009968
0.052061
0.099923
0.121036
0.104689
0.134480
0.097745
0.078412
0.005019
0.100612
0.079342
0.027957
0.005913
0.182410
0.174001
0.033888
0.111707
0.197459
0.128110
0.074363
0.080226
0.191512
0.085746
0.169909
0.046128
0.142745
0.150928
0.143345
0.136977
0.236088
0.159804
0.284394
0.070210
0.110977
0.205551
0.177110
0.191486
0.208929
0.285710
0.243551
0.305059
0.217710
0.280754
0.186550
0.241050
0.296374
0.307917
0.179435
0.233206
0.237102
0.275452
0.240241
0.189832
0.173228
0.160037
0.183066
0.166068
0.064881
0.057150
0.116431
0.065049
0.056958
0.136201
0.083408
0.062299
0.125554
0.101682
0.073523
0.117552
0.070551
0.056723
0.144952
0.099039
0.077880
0.060911
0.095223
0.080650
0.221451
0.411639
0.611665
0.996918
1.216713
1.500000
1.433924
1.175648
0.896015
0.426212
0.175446
-0.049385
-0.148312
-0.113493
-0.098821
-0.054634
0.025294
0.007823
0.002527
0.127625
0.187534
0.100202
0.164462
0.119481
0.153237
0.095373
0.117989
0.153824
0.123123
0.145376
0.183266
0.283349
0.145718
0.236036
0.172470
0.232510
0.325005
0.345345
0.353725
0.364554
0.300805
0.442498
0.398447
0.390473
0.442719
0.541811
0.494056
0.557274
0.526012
0.532213
0.559990
0.531532
0.518074
0.588414
0.542858
0.513960
0.574250
0.559657
0.586123
0.539450
0.504960
0.487396
0.445139
0.490669
0.589506
0.459533
0.399448
0.449225
0.360035
0.359398
0.353458
0.411083
0.314494
0.303281
0.258440
0.218114
0.220188
0.210082
0.145122
0.168846
0.190885
0.173360
0.072947
0.035513
0.197589
0.113888
0.064334
-0.043771
0.084470
0.131649
0.063012
0.080809
0.066119
0.053433
-0.042970
0.036126
-0.007609
0.066168
0.120508
-0.020352
-0.059448
0.029385
0.041204
-0.031584
0.044851
-0.020571
0.080301
0.000828
-0.019688
0.057833
0.069152
0.043303
0.105850
0.090974
-0.001762
0.078874
0.051512
-0.037989
-0.029854
0.047745
0.030177
0.027846
-0.049317
0.022892
-0.019145
0.102620
-0.037150
-0.032556
0.013570
0.029167
-0.039520
-0.020622
0.008228
0.006679
-0.045211
0.035157
0.025368
0.032335
0.018352
0.008698
-0.011566
0.050869
0.035592
-0.029382
0.008148
-0.010221
0.052424
0.035240
0.070655
0.021664
0.048598
0.106564
0.103284
0.132053
0.093506
0.135869
0.193829
0.082312
0.209247
0.064135
0.141718
0.131812
0.210769
0.205315
0.142832
0.107089
0.082868
0.109580
0.157315
0.163601
0.078879
0.142841
0.113785
0.172156
0.075678
0.130812
0.070739
0.056862
0.000495
0.013996
-0.049150
0.143121
-0.015288
0.110607
0.021383
-0.099915
0.051015
-0.005711
0.042957
0.051467
-0.018621
0.018570
-0.001694
0.025793
-0.061142
-0.051563
-0.039491
0.113185
0.185938
0.391550
0.780126
1.084789
1.302511
1.335799
1.213511
0.876381
0.543350
0.225473
-0.047956
-0.164718
-0.294996
-0.153563
-0.097284
-0.058439
0.025295
-0.086005
-0.025868
0.036431
-0.050765
0.037935
0.127121
0.008932
0.061815
0.042460
0.094958
0.085108
0.104695
0.093626
0.066770
0.128244
0.138109
0.198016
0.161965
0.164840
0.234303
0.210696
0.194175
0.323841
0.309656
0.392713
0.357657
0.411505
0.305638
0.362656
0.344865
0.416383
0.309116
0.405876
0.427401
0.370815
0.503776
0.438726
0.477374
0.488227
0.407549
0.420488
0.485044
0.438367
0.482607
0.426732
0.407714
0.409606
0.382052
0.340269
0.225172
0.328413
0.249853
0.211056
0.251918
0.331962
0.198382
0.158213
0.054996
0.219542
0.061706
0.032080
0.010854
0.075646
0.139899
0.039981
0.068612
0.098634
0.008176
0.026407
0.033848
-0.024756
-0.010093
-0.015223
0.002193
0.025943
-0.052135
-0.003132
-0.060703
0.010028
-0.065216
0.002747
-0.001674
-0.094359
-0.055695
0.036456
-0.048241
0.006941
-0.095207
-0.058100
-0.021611
-0.062559
0.014270
-0.072819
-0.087972
-0.012975
0.052358
-0.080655
0.023721
0.031497
-0.078114
0.006141
0.005075
-0.085269
-0.033911
-0.120259
-0.077881
-0.064864
-0.089586
-0.026168
-0.081347
-0.023448
-0.075705
0.006645
-0.038590
-0.098588
0.019878
-0.083500
-0.087964
-0.055860
0.050487
0.009210
-0.043580
0.018501
-0.008798
-0.000160
-0.044011
-0.035628
0.059484
-0.032483
0.000674
0.090363
0.017010
0.048794
0.027837
0.064104
0.070353
0.102914
0.015413
0.189297
0.034409
0.136261
0.121387
0.103064
0.199638
0.105240
0.166923
0.076759
0.093054
0.130447
0.187052
0.116453
0.124096
0.034010
0.095330
0.160718
0.013171
-0.014608
0.152490
0.060088
0.077300
0.052829
0.020818
0.069961
-0.010557
-0.042388
0.009617
-0.007047
-0.015661
-0.021855
0.016896
-0.012786
-0.018859
0.027714
0.018738
-0.012254
-0.051648
0.012827
-0.074152
0.023253
0.021706
0.182916
0.340103
0.664264
0.906554
1.165687
1.357527
1.272843
1.019054
0.701086
0.347452
0.014427
-0.133848
-0.203474
-0.239239
-0.095068
-0.144227
-0.007803
-0.008667
-0.061974
0.032213
-0.017560
-0.055525
-0.026999
0.084388
0.095134
0.149363
0.084805
0.042873
0.130920
0.025496
0.179102
0.164174
0.158825
0.091521
0.269732
0.118474
0.224809
0.273425
0.227180
0.263243
0.306714
0.333827
0.427465
0.381268
0.424246
0.450345
0.432815
0.478577
0.469323
0.471481
0.489021
0.474906
0.514007
0.488855
0.475911
0.538174
0.466001
0.497196
0.586202
0.461248
0.427442
0.470866
0.447454
0.420438
0.396784
0.377015
0.362007
0.367648
0.361273
0.238944
0.311121
0.290325
0.264736
0.364561
0.240071
0.187004
0.199630
0.149355
0.158501
0.137535
0.151010
0.128394
0.146774
0.054200
0.081200
0.029116
0.083843
0.113283
0.047605
0.048587
0.004089
0.128465
0.013504
0.079706
0.013739
0.084387
0.030307
0.078962
0.059464
0.068394
0.055743
0.030333
-0.004152
0.024192
0.065464
0.080119
0.045616
0.046065
0.097450
0.005168
0.094934
0.066420
0.045779
0.074301
0.027703
0.075579
0.019430
0.001878
0.041278
0.108461
0.075906
0.099318
0.051996
0.003051
0.007501
0.039956
0.061001
0.021493
0.065285
0.089358
-0.031637
-0.005853
0.024971
-0.023726
0.035450
0.069421
0.140841
0.031701
0.078677
0.083751
0.168079
0.046183
0.082616
0.117774
0.075016
0.100991
0.022784
0.068562
0.119890
0.173329
0.145132
0.137575
0.207325
0.131366
0.214436
0.198300
0.225485
0.163249
0.266145
0.199199
0.124830
0.280283
0.279620
0.224042
0.221785
0.307373
0.152701
0.199907
0.170785
0.235140
0.273839
0.203642
0.242268
0.154578
0.131462
0.209847
0.159282
0.112697
0.174819
0.135015
0.133322
0.099983
0.127055
0.044906
0.118256
0.074474
0.140330
0.061524
0.154312
0.029601
0.062473
-0.001569
0.047645
-0.001037
0.124824
0.106027
0.048046
0.238851
0.372552
0.594899
0.939032
1.230720
1.409188
1.434695
1.263135
0.912461
0.503506
0.276340
0.054486
-0.198809
-0.078650
-0.120668
-0.023674
0.139109
0.066407
0.162014
0.147911
0.069693
0.166467
0.198190
0.063956
0.181018
0.105638
0.196720
0.175119
0.159242
0.300759
0.225221
0.287250
0.209458
0.295145
0.230213
0.331294
0.308111
0.318199
0.331928
0.328915
0.393963
0.435624
0.431888
0.544517
0.489110
0.496349
0.532228
0.517018
0.600302
0.558050
0.576438
0.663728
0.565960
0.673011
0.530293
0.648371
0.633234
0.554146
0.598739
0.568553
0.622370
0.573707
0.575883
0.622370
0.488217
0.480883
0.462740
0.445061
0.429649
0.432755
0.444765
0.344413
0.387827
0.285794
0.294622
0.315728
0.375494
0.225026
0.230590
0.198908
0.189558
0.152632
0.183985
0.153686
0.181251
0.200328
0.141842
0.227220
0.100585
0.091568
0.175090
0.202716
0.093177
0.118777
0.132155
0.085475
0.021848
0.114365
0.114381
0.165351
0.099778
0.077033
0.119407
0.074318
0.043543
0.088124
0.076218
0.024006
0.093528
0.070734
0.056999
0.069948
0.038022
0.093176
0.134674
0.069883
0.112966
0.154707
0.092435
0.144267
0.035153
0.151950
0.110398
0.119940
0.065955
0.082295
0.088925
0.089444
0.003082
0.191382
0.008188
0.056863
0.115365
0.077130
0.081598
0.033030
0.112165
0.129943
0.111470
0.204752
0.109959
0.044376
0.125469
0.108851
0.045305
0.109356
0.170161
0.160993
0.163153
0.108936
0.114671
0.171238
0.198242
0.190804
0.195851
0.143342
0.213331
0.185644
0.228599
0.228887
0.303020
0.157611
0.187679
0.187271
0.299161
0.345654
0.223864
0.290348
0.149962
0.154227
0.296454
0.204358
0.230752
0.163698
0.169058
0.154478
0.115034
0.136594
0.119472
0.073353
0.074154
0.095025
0.088427
0.138763
0.117589
0.073564
0.099941
0.069949
0.057356
0.055667
0.120259
-0.003205
0.098627
-0.010289
0.118345
0.086264
-0.003685
0.046638
0.301170
0.405367
0.730373
1.079578
1.378783
1.348077
1.301146
1.055817
0.660502
0.304318
0.059577
-0.178237
-0.221312
-0.120595
-0.120879
-0.087498
0.002243
0.118183
0.038269
0.094665
0.085504
0.051502
0.124030
0.072521
0.114981
0.094419
0.132885
0.142515
0.163488
0.208484
0.088437
0.266798
0.246392
0.234580
0.230548
0.316114
0.247627
0.314599
0.251795
0.413244
0.379971
0.359226
0.439799
0.368308
0.444925
0.468697
0.482182
0.561541
0.610012
0.401117
0.568833
0.514248
0.543198
0.595843
0.485502
0.530235
0.479282
0.541591
0.502222
0.542394
0.499942
0.449790
0.428691
0.376930
0.331056
0.408741
0.403711
0.366288
0.339866
0.277275
0.299929
0.181133
0.232831
0.310028
0.251413
0.185881
0.101452
0.075527
0.089529
0.094668
0.175637
0.079788
0.130074
0.123695
0.097721
0.025963
0.079941
0.076106
0.094589
0.017995
0.083745
0.076609
-0.008974
-0.017580
0.016784
0.023398
-0.014716
0.013426
-0.102161
-0.011119
-0.089483
-0.039377
0.005839
0.025328
-0.070244
-0.048412
-0.033469
-0.016145
-0.046289
-0.011233
-0.017790
-0.013136
-0.001124
-0.019337
-0.010754
-0.068002
-0.037257
-0.047591
0.020064
0.002049
0.041508
-0.012744
0.051983
0.056174
-0.053301
0.008398
-0.021276
-0.013010
-0.048257
-0.048868
-0.074544
-0.085200
-0.048991
0.036060
-0.030751
-0.044208
-0.034523
0.016926
0.008625
-0.031241
-0.043633
-0.073073
-0.132408
0.027743
-0.070978
-0.013541
0.022440
0.039496
-0.033308
0.071712
0.044325
0.071564
0.086453
0.052105
-0.029480
0.057888
0.069069
0.120208
0.151288
0.102833
0.160345
0.071776
0.191824
0.071644
0.103084
0.085995
0.125795
0.058278
0.082326
0.101172
0.108965
0.132475
0.122689
0.132155
0.089007
0.005222
-0.008986
0.012035
-0.001837
-0.061761
0.008633
-0.017753
-0.010969
0.041955
-0.038241
-0.063634
-0.025542
-0.013338
-0.061095
-0.023900
-0.071595
-0.041228
-0.068113
-0.084041
-0.074059
-0.074117
0.026558
0.067529
0.241162
0.520510
0.876335
1.108284
1.363684
1.149128
0.984450
0.688817
0.328195
-0.001460
-0.205722
-0.325136
-0.297240
-0.198089
-0.091472
-0.114738
-0.034598
-0.037644
-0.159370
-0.012684
0.008357
-0.051151
0.137330
-0.032074
-0.046832
0.069461
0.015010
-0.039332
0.110967
0.103810
0.094917
0.078708
0.097647
0.112064
0.195934
0.201398
0.195695
0.161535
0.172196
0.240256
0.264013
0.291777
0.255710
0.360724
0.338018
0.352403
0.412970
0.380271
0.439183
0.465989
0.432353
0.442622
0.401580
0.439341
0.445201
0.388216
0.466726
0.403253
0.455240
0.438651
0.396091
0.342830
0.320276
0.337651
0.343525
0.267230
0.344345
0.302169
0.199633
0.254716
0.241565
0.210339
0.221210
0.165743
0.120204
0.081361
0.092596
0.098051
0.029126
-0.031019
0.015734
0.013839
0.003459
-0.130978
-0.115081
-0.015938
-0.047809
-0.047891
-0.137595
-0.073558
0.022933
-0.040925
-0.094710
-0.037243
-0.110615
-0.049513
-0.076374
-0.080265
-0.134634
-0.038012
-0.118746
-0.074316
-0.107833
-0.056551
-0.135637
-0.055226
-0.038731
-0.128904
-0.009697
-0.022144
-0.093762
-0.044288
-0.089906
-0.115198
-0.088277
-0.100362
-0.089364
-0.088911
-0.006247
-0.072826
-0.025390
-0.049399
-0.089731
-0.050392
-0.020028
-0.032915
-0.108543
-0.041269
-0.025118
-0.070496
-0.163241
-0.069752
-0.093525
-0.020293
-0.112386
-0.065025
-0.051278
0.005117
-0.070792
-0.058493
-0.062629
-0.128409
-0.097188
-0.040004
-0.080715
0.003730
-0.041280
0.028199
-0.049793
0.003663
-0.037001
-0.047423
0.080672
0.098824
0.047691
0.113630
0.070968
0.157307
0.095765
0.107919
0.111652
0.101387
0.186523
0.103935
0.063779
0.013012
0.065161
0.075888
0.109882
0.134792
0.081750
0.142433
0.072142
0.004319
0.081199
0.077603
0.052324
-0.011074
0.016722
-0.026727
-0.043055
0.017771
-0.011710
-0.126355
-0.146008
-0.008987
0.005134
-0.037123
-0.073172
0.007486
-0.019665
-0.125960
-0.047857
-0.048208
-0.031286
-0.082914
0.051437
0.264102
0.440656
0.750596
1.112051
1.359092
1.291907
1.159969
0.786114
0.434534
0.139752
-0.119448
-0.264399
-0.326075
-0.209517
-0.189556
-0.072069
-0.046295
0.011717
0.000739
0.010521
0.073969
0.062506
0.060243
0.015289
0.059374
0.092678
0.085195
0.081664
0.047709
0.131383
0.009175
0.081829
0.173836
0.251817
0.134279
0.207827
0.309627
0.228359
0.334570
0.277656
0.244143
0.271743
0.431310
0.407891
0.367592
0.375384
0.383476
0.404255
0.488538
0.483827
0.497470
0.497194
0.465433
0.463742
0.477426
0.383865
0.474424
0.441580
0.510294
0.470262
0.468054
0.385561
0.423693
0.351445
0.315464
0.407097
0.304402
0.311736
0.321383
0.277908
0.216357
0.238081
0.246236
0.170266
0.180321
0.195987
0.163529
0.152178
0.198803
0.100166
0.073715
0.061936
0.056734
0.202874
0.028623
0.041303
0.047629
0.029656
0.056070
0.066011
-0.022461
0.028718
-0.090729
0.056419
0.011752
0.034735
-0.039264
-0.072190
0.020805
-0.020088
0.009416
-0.030053
0.090151
0.006190
-0.043149
-0.007570
-0.030628
0.025591
-0.027260
-0.005418
-0.027037
0.066554
0.012879
-0.030482
0.000942
0.050068
-0.024769
-0.000363
0.069903
-0.023408
-0.012345
-0.014650
0.013606
-0.024031
0.003143
0.016909
0.049674
0.065937
-0.042337
0.046706
-0.000599
0.051911
0.068122
0.049866
0.032265
0.028237
-0.005498
0.027207
0.041163
-0.005193
0.044574
0.103966
0.027470
0.005945
0.000667
0.133370
0.101853
0.141700
0.055878
0.057614
0.056893
0.136149
0.132395
0.159707
0.063781
0.157703
0.183477
0.236790
0.249179
0.152481
0.196050
0.198025
0.138934
0.184365
0.189923
0.247981
0.200525
0.204691
0.185736
0.116380
0.192168
0.122854
0.193908
0.189734
0.052006
0.066930
0.148739
0.137915
0.078740
0.016267
0.103381
0.115470
0.103573
0.074194
0.050240
0.097286
0.004082
0.055171
-0.002982
0.124393
0.034841
0.017263
0.065867
0.111482
-0.084184
0.054990
0.089299
0.296912
0.484841
0.688465
0.991948
1.326295
1.410517
1.278456
1.044868
0.707019
0.331178
0.046925
-0.209705
-0.232523
-0.131428
-0.080756
-0.001078
-0.039224
0.053107
0.088533
0.059201
0.079369
0.004804
0.101577
0.104763
0.122165
0.150970
0.123814
0.180847
0.168643
0.231828
0.133726
0.175313
0.209922
0.310898
0.277908
0.183559
0.300970
0.317100
0.334520
0.393982
0.405544
0.355109
0.482884
0.468418
0.484278
0.468944
0.416229
0.519152
0.469829
0.552716
0.584234
0.425301
0.511168
0.453091
0.528751
0.616291
0.538377
0.533165
0.490087
0.590984
0.474181
0.513597
0.490894
0.454924
0.410094
0.432223
0.462881
0.428646
0.339017
0.395023
0.347450
0.301729
0.255753
0.274649
0.228779
0.208733
0.213276
0.187485
0.104916
0.194572
0.177090
0.103883
0.157844
0.158034
0.136754
-0.066245
0.087213
0.095936
0.015234
0.120857
0.106130
0.114204
0.157875
0.147236
0.063632
-0.017002
0.065622
0.042360
0.012666
0.063493
0.068416
0.032109
0.017958
0.017462
0.009517
0.040081
0.037629
0.024180
0.105580
0.056886
0.039616
0.051558
0.072360
0.020224
0.037352
0.131642
0.064876
0.006359
0.000481
0.032763
0.021593
0.079089
-0.024247
0.023153
0.021868
0.060015
-0.017660
0.025503
-0.021765
0.064912
0.042009
0.083871
0.014966
0.028531
-0.009790
0.034314
0.059085
0.032579
0.024542
0.043063
0.044322
0.092893
0.011367
0.089585
0.038920
0.099789
0.130823
0.015954
0.192309
0.163946
0.144662
0.139202
0.176556
0.082872
0.184287
0.174513
0.162211
0.136845
0.139506
0.181023
0.157115
0.136299
0.172833
0.190902
0.178479
0.166112
0.199411
0.249226
0.171944
0.157916
0.163675
0.101193
0.163309
0.127167
0.043513
0.068489
0.133708
0.088203
0.121200
0.074114
0.084125
0.069414
-0.043048
0.045020
0.043466
0.075051
-0.026167
0.042474
-0.032936
0.060985
0.113999
-0.063565
-0.013743
-0.070739
0.036445
0.034489
-0.003504
0.014386
0.346996
0.631394
0.969103
1.223310
1.331716
1.276011
1.116802
0.804247
0.383972
0.114491
-0.137110
-0.283438
-0.218897
-0.109850
-0.081902
-0.060025
-0.019838
-0.013119
0.069820
0.033547
0.022492
0.070416
-0.011427
0.069427
-0.011513
0.090776
0.100415
0.084626
0.061042
0.126475
0.131298
0.139105
0.120746
0.131694
0.183696
0.279645
0.234692
0.313677
0.245754
0.225542
0.333667
0.327429
0.430008
0.367497
0.301358
0.419404
0.402886
0.343793
0.413827
0.401306
0.451641
0.459488
0.508831
0.512634
0.491000
0.443700
0.487068
0.379726
0.454261
0.472595
0.445237
0.485153
0.360786
0.359836
0.391799
0.381769
0.342825
0.246368
0.295612
0.200313
0.230167
0.190120
0.215443
0.178328
0.162766
0.148247
0.131067
0.055740
0.099371
0.095507
0.101998
0.018970
-0.007366
0.018746
0.053862
0.007784
-0.074563
-0.006801
-0.059195
-0.036375
-0.049090
0.021322
-0.025487
-0.035831
-0.008402
-0.123997
-0.142685
-0.077663
-0.012216
-0.064995
-0.064347
-0.101588
0.015021
-0.025941
-0.062435
-0.013799
0.039534
-0.087442
-0.048470
-0.025537
-0.006325
-0.032093
-0.037799
-0.068717
-0.077257
-0.010654
-0.001837
-0.090582
-0.077876
-0.049320
-0.116414
-0.106336
-0.071483
-0.091115
-0.104745
-0.082598
-0.085981
-0.111302
-0.054135
-0.050402
-0.102848
-0.072055
-0.081988
-0.056386
-0.060050
-0.040879
-0.043080
-0.101416
-0.063438
-0.065101
-0.024190
-0.092616
-0.094756
0.019498
-0.032399
-0.015521
-0.044213
-0.006926
-0.044450
-0.008622
0.018122
0.053873
0.035412
0.002057
0.106858
0.030338
0.074447
0.026708
0.077884
0.075930
0.083490
0.098227
0.086104
0.058850
0.024342
0.115977
0.175137
0.138934
0.040756
-0.025143
0.039134
-0.071419
0.064555
0.038399
0.066802
-0.048381
-0.088613
-0.015940
-0.059189
-0.090473
-0.174109
0.033746
-0.126080
-0.080851
-0.094678
-0.006336
-0.069722
-0.165331
-0.181207
-0.079721
-0.042943
-0.136462
-0.063679
-0.162442
-0.111409
-0.032444
-0.080434
0.166586
0.372611
0.700512
0.979495
1.208044
1.282963
1.057838
0.880861
0.403520
0.105213
-0.187689
-0.228255
-0.335546
-0.211860
-0.141269
-0.122327
-0.122962
-0.122124
-0.092253
-0.054955
-0.056790
-0.107805
0.002399
-0.076729
0.026528
-0.002999
-0.065876
-0.061725
0.053224
0.085774
0.005260
0.121386
0.034538
0.112635
0.075631
0.088822
0.190080
0.156321
0.202674
0.229849
0.295530
0.254663
0.253336
0.292068
0.346843
0.353699
0.317499
0.310435
0.377544
0.430205
0.401970
0.400681
0.440531
0.474135
0.400988
0.470854
0.476177
0.398964
0.323828
0.407763
0.312477
0.368022
0.348440
0.388963
0.312258
0.207309
0.292716
0.237863
0.213732
0.108926
0.208780
0.116244
0.110152
0.089655
0.105541
0.047523
0.073514
0.009842
0.080397
0.038259
0.075068
0.005247
-0.032544
0.020713
0.026904
-0.028815
-0.076616
-0.005046
-0.155229
-0.059257
-0.064703
-0.125352
0.002077
-0.003736
-0.125085
-0.183841
-0.076142
-0.109763
-0.083801
-0.086179
0.004479
-0.090698
-0.043198
-0.051401
-0.094871
-0.131634
-0.074968
-0.018321
-0.129307
-0.080078
-0.035363
-0.048599
-0.057606
-0.022524
-0.164810
-0.104426
-0.029910
-0.091034
-0.030563
-0.156159
-0.097133
-0.080381
-0.031636
-0.007580
-0.009466
-0.056010
-0.083230
-0.110817
-0.124418
-0.097867
0.014887
-0.087548
-0.036121
-0.037751
-0.060482
-0.064807
-0.025426
-0.027099
-0.029680
-0.103897
0.025815
-0.096112
-0.010743
-0.022122
-0.013371
-0.034403
0.009836
-0.040145
-0.049294
-0.001605
0.019768
0.037138
0.003516
0.022788
0.031620
-0.028189
0.072858
0.074429
0.106828
0.119533
0.148177
0.114363
0.100085
0.104801
0.110439
0.076658
0.055650
0.084891
0.084235
0.108946
0.112340
0.114160
0.068278
0.039037
0.056981
-0.006501
0.040977
0.083017
0.050271
-0.016521
-0.019426
0.040679
-0.090084
0.012102
-0.023395
-0.058873
-0.107276
-0.052861
-0.041191
-0.088834
0.014493
-0.066485
-0.032441
-0.127969
-0.064007
-0.025468
-0.131975
0.074709
0.388136
0.640545
1.014635
1.219958
1.400368
1.243003
0.959795
0.606942
0.333514
-0.004982
-0.136078
-0.318961
-0.155489
-0.113663
-0.103977
-0.024638
-0.003234
0.059881
0.026692
0.035505
0.072983
0.123693
0.030658
0.084430
0.072012
0.129921
0.063939
0.112287
0.095519
0.155067
0.187165
0.139581
0.225553
0.156252
0.170596
0.144042
0.242037
0.229105
0.284133
0.357262
0.365671
0.394581
0.354652
0.407183
0.369208
0.411756
0.479597
0.396051
0.419469
0.488923
0.516365
0.491697
0.451698
0.523648
0.505002
0.479896
0.519348
0.541824
0.472263
0.478153
0.394339
0.460629
0.477167
0.433000
0.379933
0.320838
0.323945
0.402314
0.376868
0.320379
0.268155
0.214769
0.226817
0.204666
0.218118
0.143961
0.120087
0.130490
0.146367
0.097252
0.118275
0.101444
0.115965
0.162980
0.123960
0.017604
0.065413
0.070958
0.086086
0.059522
0.010114
-0.000037
-0.003748
0.112393
0.087175
0.084403
0.064422
0.104434
-0.019022
0.057137
0.019697
0.063638
0.020958
0.023865
-0.021054
0.016102
0.073926
0.053006
-0.006206
0.051155
0.007101
0.021056
-0.004933
0.074400
-0.035943
-0.056998
0.074220
0.011043
0.031230
0.061790
0.097189
0.073124
0.047212
0.011137
0.021167
0.066066
-0.044288
-0.006270
0.091021
-0.010985
0.096034
0.043130
0.107198
0.106956
0.017125
0.093936
0.022032
0.049772
0.056160
0.079894
0.004204
0.080366
0.033638
0.145170
0.073543
0.135862
0.035062
0.134298
0.113605
0.089742
0.121020
0.189856
0.203359
0.175959
0.192270
0.188117
0.253132
0.267245
0.276749
0.260253
0.183709
0.210043
0.250301
0.220290
0.162913
0.149637
0.226624
0.198540
0.245864
0.284968
0.232309
0.182835
0.204697
0.135739
0.115939
0.051663
0.118549
0.175466
0.178189
0.131618
0.122720
0.097116
0.049403
0.037277
0.063541
0.158759
0.093188
0.113826
0.051551
0.035602
0.046107
0.064666
-0.021336
0.038710
0.046550
0.049259
0.231738
0.396541
0.662776
0.891547
1.218301
1.405767
1.402244
1.167118
0.949033
0.449055
0.198410
-0.079478
-0.116904
-0.116312
-0.097415
-0.020303
0.065509
0.038494
0.053430
0.127272
0.097558
0.069192
0.083542
0.106323
0.114870
0.232016
0.124285
0.165897
0.109399
0.241759
0.183721
0.151739
0.210001
0.204772
0.241526
0.244871
0.355573
0.327668
0.356612
0.299379
0.497467
0.380047
0.456538
0.460203
0.450397
0.495310
0.443402
0.558401
0.543707
0.558924
0.507640
0.582757
0.536657
0.534279
0.492335
0.579142
0.595824
0.556348
