0.043260
0.028545
0.021761
0.052379
0.022588
-0.013266
0.030394
0.049279
0.058357
0.008015
-0.054151
-0.011326
0.026267
0.000059
0.007716
0.045575
-0.060948
-0.000873
0.005642
-0.051445
-0.012748
0.001694
0.084850
0.051083
0.037095
0.015844
-0.008647
0.029940
0.053926
0.098042
0.045955
-0.040635
0.013316
0.125948
0.136663
0.062542
0.206335
0.136163
0.206149
0.231184
0.127424
0.208667
0.204335
0.212038
0.249741
0.251069
0.203493
0.247057
0.220068
0.192888
0.220196
0.224724
0.034486
0.126006
0.170253
0.151967
0.112921
0.091613
0.124377
0.177214
0.021844
0.021989
0.032175
0.112364
0.178523
0.164390
0.084726
0.032692
0.064637
0.100611
0.111869
0.070008
0.081348
0.020284
0.084735
0.068759
0.096714
-0.027557
0.034380
0.047547
0.062294
0.000855
0.092502
-0.028212
0.001220
0.116994
-0.041978
-0.023440
0.080366
0.227698
0.508503
0.879504
1.181032
1.390129
1.489720
1.365514
1.128266
0.773989
0.436894
0.096692
-0.132980
-0.243509
-0.246281
-0.141961
-0.112509
-0.062773
-0.022036
0.088683
0.135940
0.024580
-0.018547
0.028610
0.022222
0.119740
0.151447
0.145002
0.128070
0.154359
0.159955
0.167816
0.108358
0.175345
0.162016
0.126574
0.198397
0.110873
0.207505
0.190132
0.160539
0.223750
0.184803
0.265046
0.319429
0.275375
0.278928
0.328629
0.362843
0.342574
0.430562
0.341762
0.371579
0.472966
0.410900
0.549633
0.408750
0.509950
0.536913
0.452716
0.565392
0.594561
0.556644
0.506514
0.642509
0.569179
0.519757
0.593878
0.631780
0.541114
0.586551
0.529539
0.513781
0.561623
0.471301
0.468874
0.384745
0.480125
0.395047
0.420479
0.363438
0.317917
0.295978
0.314954
0.271219
0.220850
0.181625
0.245847
0.234455
0.220361
0.238412
0.247870
0.210104
0.227627
0.123316
0.149512
0.124446
0.084436
0.152796
0.082727
0.067701
0.134965
0.123552
0.045173
0.178854
0.069453
0.019437
0.095495
0.072565
0.153871
0.052909
0.105081
0.090431
0.020138
0.111909
0.087994
0.060096
0.107627
0.070578
0.116532
0.138746
0.069757
0.129792
0.076591
0.129666
0.099702
0.050808
0.072681
0.117928
0.046922
0.141530
0.073030
0.008709
0.043895
0.150984
0.076466
0.103644
0.054933
0.050447
0.098073
0.010514
0.143943
0.117886
0.031030
0.050739
0.104712
0.094952
0.123142
0.046271
0.071784
0.101877
0.121712
0.078532
0.032321
0.047608
0.064307
0.078052
0.144664
0.008149
0.010620
0.110803
0.058415
0.067410
0.094923
0.078418
0.155725
0.132904
0.130137
0.164863
0.140590
0.131490
0.069225
0.156675
0.158246
0.188205
0.123411
0.073650
0.128666
0.181539
0.121652
0.183559
0.246532
0.196905
0.210194
0.132734
0.244836
0.201666
0.223640
0.190864
0.250786
0.238808
0.266708
0.265004
0.219355
0.233109
0.278476
0.232394
0.286686
0.195690
0.238454
0.154178
0.203339
0.250222
0.131741
0.214925
0.073701
0.165327
0.180219
0.184601
0.046339
0.137438
0.040447
0.063221
0.110164
0.015230
0.112415
0.102311
0.038914
0.078529
0.025923
0.197699
0.022579
0.107669
0.068657
0.114447
0.107364
0.088737
0.039311
0.085656
0.053632
-0.050409
0.031966
0.025909
0.019836
0.013164
0.221945
0.445506
0.756695
1.011001
1.278345
1.447058
1.409744
1.176162
0.897364
0.538729
0.178797
-0.052053
-0.218643
-0.230368
-0.240306
-0.057683
-0.083536
0.032018
-0.008782
0.055656
0.145302
0.029141
-0.009883
0.084879
0.054949
0.032022
0.035896
0.064440
0.000906
0.067224
-0.008582
0.047241
0.020573
0.060966
-0.008305
0.092602
0.068795
0.135656
0.081583
0.085691
0.239144
0.121965
0.170706
0.267944
0.341610
0.362021
0.300175
0.325179
0.323403
0.342635
0.251419
0.400021
0.366647
0.338674
0.514675
0.432360
0.425008
0.440292
0.519088
0.427470
0.549897
0.411462
0.494720
0.459986
0.402381
0.529303
0.510789
0.473423
0.485523
0.560445
0.494859
0.510693
0.450535
0.372864
0.379761
0.371135
0.375182
0.389563
0.330912
0.343926
0.351820
0.323843
0.288382
0.198815
0.253451
0.159637
0.156345
0.197794
0.157931
0.170000
0.056944
0.223195
0.062755
0.112565
-0.001662
0.035436
0.138543
0.037283
-0.037042
-0.030220
0.006707
0.046342
0.018587
-0.013274
-0.005242
0.004800
-0.022621
-0.013692
-0.045613
0.029887
0.043796
-0.014368
-0.029529
-0.058928
0.018894
0.013999
-0.062002
-0.043049
-0.050461
-0.023092
0.027760
-0.019500
-0.025750
0.021020
-0.028677
-0.102703
-0.047528
-0.009627
0.019900
-0.026669
0.041548
-0.000503
-0.026651
0.007853
-0.016771
-0.061867
-0.096489
-0.063567
0.036924
-0.015774
0.053129
-0.033937
0.011563
0.045934
-0.060980
-0.134871
-0.004675
-0.031434
0.005582
-0.064409
0.014729
-0.037221
-0.078943
-0.070122
-0.038476
-0.081784
-0.026664
-0.089970
0.000275
-0.073293
-0.046417
-0.012998
-0.057769
0.000182
-0.058329
-0.025291
0.008687
-0.005571
0.039434
-0.058669
-0.066223
-0.028915
0.002858
0.043413
-0.011587
0.012412
-0.068906
0.044371
0.037857
0.100782
0.062128
-0.011961
0.071213
0.105317
0.004612
0.042993
0.090972
0.061767
0.057598
0.199697
0.141312
0.128847
0.131561
0.148178
0.143428
0.193378
0.161325
0.106414
0.127657
0.174506
0.115853
0.097555
0.095908
0.049298
0.039169
0.122894
-0.014122
0.097039
-0.035174
-0.012600
-0.001330
-0.034589
-0.057962
-0.032762
-0.034585
0.009422
-0.001410
-0.027212
-0.055052
-0.075515
-0.017267
-0.071297
-0.045877
-0.042881
-0.057963
0.002539
-0.047800
-0.056067
-0.048079
0.011285
0.011410
0.001817
-0.134133
-0.084408
-0.005839
0.301385
0.499862
0.863678
1.173477
1.322570
1.331991
1.162122
0.848098
0.549353
0.163208
-0.128826
-0.255658
-0.353967
-0.311047
-0.240902
-0.308785
-0.183255
-0.155684
-0.042917
-0.052539
-0.107556
-0.028931
-0.085872
-0.023053
0.000172
-0.023277
-0.066817
-0.036595
0.008928
-0.034248
-0.076017
0.077364
0.000282
0.022216
0.046384
0.021454
-0.033590
0.042365
0.012681
0.140724
0.050283
0.133391
0.171891
0.134979
0.185883
0.281051
0.193342
0.275901
0.237061
0.235513
0.316714
0.337258
0.365826
0.400223
0.383388
0.421339
0.382901
0.385192
0.423932
0.420408
0.433233
0.453820
0.532529
0.452718
0.398798
0.469675
0.402171
0.467852
0.465784
0.494897
0.432079
0.295118
0.440605
0.419223
0.316720
0.295804
0.277292
0.349178
0.267561
0.246524
0.216823
0.191925
0.192187
0.249702
0.194729
0.183359
0.072505
0.124968
0.139054
0.073517
0.101013
0.079440
0.023699
0.013473
-0.033273
0.076328
0.015443
0.030176
0.049983
-0.013327
-0.071005
0.063041
0.028824
0.025425
0.014580
-0.000623
-0.038727
-0.010158
0.007021
-0.014457
-0.089316
0.046086
-0.020271
-0.069629
-0.058850
-0.070398
-0.092070
-0.011879
-0.072593
0.061626
0.058042
-0.024253
0.006010
-0.043466
-0.009519
-0.049112
-0.002935
0.022439
0.040016
-0.094975
0.013260
-0.027061
-0.011766
-0.047869
-0.003053
-0.015691
-0.077949
-0.101865
0.011626
0.021886
0.015644
-0.031179
0.019178
0.043807
0.033533
-0.061581
0.045661
-0.044033
0.005776
-0.028439
0.092693
-0.064935
-0.063120
-0.021250
-0.112023
-0.028265
-0.044470
-0.034477
0.016057
-0.023786
0.021278
0.003207
0.050034
0.062471
-0.059553
0.133484
0.014633
0.047661
0.048480
0.001877
0.013294
-0.030616
0.082875
0.015577
0.075665
0.078394
-0.025346
0.111893
0.034551
0.092337
0.122548
0.202749
0.109974
0.116642
0.101378
0.186577
0.098568
0.220008
0.204074
0.233415
0.146847
0.181850
0.219538
0.150941
0.196976
0.145198
0.213792
0.188471
0.153025
0.116932
0.204924
0.089881
0.149648
0.149572
0.132551
0.093917
0.167855
0.123601
0.006271
0.098171
0.086389
0.109276
0.098557
-0.008271
-0.023895
0.124141
0.100690
-0.031897
0.005276
0.055557
-0.015407
0.091134
0.005054
0.092823
0.092314
0.039689
-0.010924
0.073839
0.034161
-0.007137
0.015857
0.067749
0.041802
0.121561
0.130648
0.500480
0.792202
1.115199
1.325255
1.475106
1.448847
1.100019
0.752653
0.413006
0.133662
-0.078023
-0.269430
-0.313909
-0.105722
-0.084518
-0.076599
0.021801
0.092482
0.071553
0.121733
0.041343
0.025964
0.043531
-0.032020
0.106655
0.155483
0.097399
0.076765
0.181782
0.036182
0.104651
0.118816
0.101738
0.079087
0.076539
0.187224
0.238444
0.254498
0.258206
0.278367
0.238699
0.221929
0.293866
0.279433
0.340176
0.355749
0.284247
0.398324
0.429314
0.383432
0.381095
0.403271
0.425873
0.551081
0.548431
0.574321
0.526489
0.559336
0.551783
0.587787
0.578504
0.527625
0.637814
0.554118
0.530966
0.608229
0.483443
0.576985
0.577697
0.506518
0.533173
0.518798
0.547625
0.422085
0.444505
0.435123
0.406296
0.415610
0.311525
0.339462
0.375072
0.251629
0.270986
0.340572
0.206608
0.240761
0.279324
0.195406
0.196326
0.227063
0.149364
0.119934
0.179657
0.105696
0.179009
0.097252
0.112635
0.134127
0.071950
0.110848
0.141488
0.109125
0.169542
0.188629
0.088846
0.079325
0.160867
0.069482
0.135607
0.095160
0.075873
0.033609
0.092452
0.090985
0.162045
0.096405
0.073129
0.109675
0.104596
0.092455
0.057129
0.053734
0.091502
0.167593
0.116592
0.033988
0.062987
0.056232
0.017915
0.108758
-0.005327
0.089319
0.115354
0.168661
0.124741
0.029788
0.109069
0.066854
0.069196
0.077981
0.082508
0.067746
0.076105
0.152400
0.123431
0.070172
0.141260
0.100558
0.097207
0.112118
0.131926
0.104104
0.148591
0.140881
0.039985
0.109364
0.081874
0.143597
0.027084
0.087908
0.116010
0.096528
0.081286
0.174073
0.012830
0.110677
0.052479
0.088994
0.062487
0.075583
0.108643
0.091015
0.105276
0.158989
0.195125
0.159341
0.134658
0.146265
0.207772
0.202062
0.138031
0.172941
0.168453
0.266083
0.200559
0.241666
0.262756
0.176376
0.213677
0.219215
0.230850
0.275235
0.150378
0.169884
0.255004
0.293297
0.280108
0.269728
0.204648
0.151583
0.195539
0.153350
0.201348
0.144232
0.126347
0.207072
0.144633
0.095420
0.096905
0.107078
0.103113
0.126973
0.067041
0.069058
0.106419
0.077056
0.082710
0.123466
0.077263
0.077044
0.046563
0.053270
0.104011
0.123301
0.082476
0.126363
0.092429
0.162244
0.050187
0.034758
0.036700
-0.043805
0.023239
0.154237
0.478432
0.635554
1.055884
1.342119
1.500000
1.488055
1.224217
1.028182
0.537397
0.255228
-0.000972
-0.120665
-0.210981
-0.194369
-0.076784
-0.017772
-0.057553
-0.009920
0.059819
0.063564
0.133878
0.061364
0.116323
0.076160
0.152814
0.116710
0.114486
0.097573
0.038537
0.051471
0.086652
0.100706
0.133622
0.097708
0.080180
0.106837
0.025618
0.194687
0.230477
0.134017
0.213528
0.156409
0.210725
0.235139
0.347353
0.212679
0.388965
0.301915
0.439504
0.465045
0.420062
0.467906
0.487356
0.496398
0.494718
0.446518
0.486697
0.522316
0.569484
0.513980
0.491519
0.578949
0.579162
0.473815
0.469076
0.594835
0.554928
0.459193
0.405815
0.431193
0.416376
0.472826
0.465439
0.490613
0.414473
0.347215
0.321468
0.441983
0.322555
0.286540
0.310095
0.179564
0.283443
0.241363
0.259329
0.248827
0.197493
0.216438
0.143844
0.133258
0.075897
0.183770
0.089402
0.101208
0.073600
0.053871
0.115627
0.068369
0.102345
0.012456
0.046890
-0.029915
0.011270
0.063527
0.009947
-0.035063
-0.054572
0.028834
0.005413
0.020168
-0.038819
0.042481
-0.019567
-0.042162
0.058897
-0.026892
-0.040676
-0.065188
-0.054038
-0.027000
-0.045623
0.050314
0.000719
0.031686
0.139409
-0.082261
-0.025306
-0.016900
-0.033104
0.031803
-0.013649
0.030186
0.008278
-0.006334
-0.040082
0.015877
-0.024029
-0.007098
0.055692
0.019992
-0.038898
-0.002819
-0.034083
-0.055493
-0.006164
-0.024211
0.037084
0.006658
-0.051689
0.005177
-0.028218
0.020208
-0.054672
0.002672
0.020412
-0.092769
-0.104583
-0.034435
-0.020129
-0.032435
-0.043674
-0.066705
-0.113878
0.034623
-0.026621
-0.049992
-0.041693
-0.042358
0.002848
0.026480
-0.034674
-0.030918
-0.030097
-0.069309
-0.051707
-0.049930
0.072420
0.034393
0.089845
-0.000573
0.048037
0.074557
0.103920
0.098925
0.173447
0.093954
0.124857
0.134756
0.090069
0.133618
0.108785
0.102690
0.103905
0.128934
0.137007
0.110274
0.203916
0.062607
0.124703
0.144637
0.110267
0.091496
-0.014931
0.019697
-0.019296
0.083341
-0.023116
-0.030173
-0.072152
0.016113
0.005415
-0.029008
-0.005516
0.042530
-0.050752
-0.043324
-0.066664
-0.065028
0.019266
-0.100378
-0.024490
-0.107037
-0.106753
-0.066770
-0.064910
-0.105784
-0.031206
-0.061978
-0.020351
-0.117049
-0.143570
-0.103354
-0.130090
-0.021331
0.097311
0.377038
0.764900
1.117026
1.319629
1.313082
1.207356
0.906460
0.558013
0.268629
0.014331
-0.265402
-0.288469
-0.291025
-0.236101
-0.205130
-0.131323
-0.084912
-0.042231
-0.095515
-0.049122
-0.010902
0.033673
-0.078539
-0.099427
-0.071852
-0.045603
0.012274
-0.078496
-0.080147
-0.083530
-0.022415
-0.048891
-0.069266
-0.019409
-0.047779
-0.012342
0.065971
0.069534
0.078985
0.058005
0.064544
0.087993
0.147518
0.158404
0.228899
0.118054
0.225654
0.244863
0.273450
0.188520
0.274714
0.359005
0.343199
0.319825
0.307339
0.422996
0.366526
0.332741
0.496588
0.414339
0.509307
0.424895
0.463607
0.463156
0.453458
0.447530
0.404184
0.350106
0.409539
0.475574
0.444046
0.416209
0.334814
0.345459
0.237861
0.382809
0.206755
0.163094
0.289190
0.165773
0.176906
0.091540
0.190026
0.100878
0.040565
0.051637
0.045591
0.109880
0.042567
0.051212
0.035972
0.112583
-0.005318
0.055805
-0.015106
0.021552
0.016406
-0.063365
-0.066546
-0.002218
-0.005394
-0.017349
-0.041175
-0.050868
0.005349
-0.141803
-0.116136
-0.071460
0.003538
-0.092275
-0.075496
-0.054094
-0.114895
-0.164439
-0.122589
-0.047167
-0.117886
-0.096219
-0.102676
-0.066765
-0.121477
-0.023441
-0.047878
-0.071027
-0.108205
-0.095162
-0.167371
-0.015272
-0.051867
-0.109930
-0.042614
-0.101810
-0.148478
-0.043287
-0.057767
-0.065137
-0.121907
-0.070874
-0.156117
-0.057859
-0.046587
-0.095051
0.000458
-0.063853
-0.082054
-0.061989
-0.084771
-0.090895
-0.104827
-0.053460
-0.039108
-0.053122
-0.087924
-0.088575
0.016760
-0.134773
-0.011798
0.005644
-0.066196
-0.040829
-0.042302
-0.120932
-0.119245
-0.089198
-0.056717
-0.050810
-0.041520
-0.100800
-0.035208
-0.000052
-0.093937
-0.075723
-0.004581
-0.124631
-0.016942
-0.043190
-0.068432
-0.035942
0.020864
-0.024601
0.058337
0.037880
0.053752
0.054129
0.135229
0.057839
0.143041
0.128959
0.092478
0.124712
0.165940
0.179312
0.096185
0.131153
0.104595
0.088238
0.140296
0.107783
0.135332
0.084873
0.056733
0.102166
0.037561
0.075186
0.036652
-0.043827
-0.031457
-0.014056
0.001042
0.044594
0.027649
-0.057681
-0.019581
-0.042218
0.075908
-0.005385
-0.064359
-0.065872
-0.030983
-0.011604
-0.029123
-0.110909
0.000268
0.040955
-0.039266
-0.017407
0.028673
-0.019144
-0.080362
-0.085351
-0.094937
-0.030992
-0.078248
0.201548
0.347797
0.582915
1.006193
1.295495
1.424810
1.428959
1.096447
0.717644
0.466935
0.152249
-0.212464
-0.239841
-0.276392
-0.245116
-0.211035
-0.156868
-0.017923
-0.001268
-0.048031
-0.016229
0.015280
-0.036868
0.044445
-0.051376
0.053421
0.012827
0.008496
-0.003966
0.017499
-0.020519
-0.010726
0.058612
-0.018407
0.074113
0.090532
0.041074
0.102192
0.100798
0.116891
0.177110
0.196114
0.095322
0.182378
0.220450
0.201251
0.268805
0.175567
0.252260
0.378923
0.343403
0.282050
0.318294
0.419735
0.370279
0.415723
0.501627
0.481180
0.505505
0.489698
0.481171
0.475456
0.559987
0.483905
0.530678
0.489211
0.555550
0.429569
0.631278
0.506911
0.523942
0.414989
0.433742
0.418991
0.418712
0.409523
0.361227
0.400387
0.358742
0.304558
0.354334
0.306838
0.262426
0.201136
0.241730
0.163294
0.232068
0.151816
0.120805
0.248543
0.170850
0.160568
0.141553
0.048654
0.059011
0.081360
0.012859
-0.006313
0.031227
0.086392
0.111080
0.045404
0.108644
0.097716
-0.050830
0.053981
0.133992
-0.017069
0.023540
0.024000
0.107044
0.068511
-0.035296
0.017865
-0.024563
0.091166
0.101050
0.067986
-0.009055
0.050473
0.042539
0.112109
0.048313
0.083924
0.050075
0.060069
0.021781
0.071014
-0.107410
0.082039
0.111273
-0.078034
0.079317
-0.009398
-0.002248
0.106942
-0.021450
-0.003176
-0.017019
0.006454
0.099270
0.029402
0.142083
0.042518
0.009242
0.002046
0.019840
0.066164
0.004648
0.050423
0.091850
0.039385
0.044547
-0.049567
-0.042627
0.095698
-0.017697
0.083535
-0.042665
0.046249
-0.032699
0.069460
0.011471
-0.018481
0.009011
0.078138
0.060321
0.065358
0.004869
0.087747
0.028390
0.058827
0.121809
0.090539
0.100439
0.069917
0.069321
0.081025
0.117865
0.166201
0.133590
0.142657
0.151688
0.190083
0.169214
0.170111
0.190189
0.260613
0.169321
0.238885
0.188919
0.225751
0.230150
0.233040
0.290827
0.204932
0.233538
0.213458
0.177425
0.196676
0.201228
0.174400
0.195352
0.181715
0.173729
0.115207
0.151462
0.116035
0.139283
0.094183
0.005891
0.075457
0.072260
0.042431
-0.031226
0.018097
0.034426
0.077003
0.003300
0.022935
0.066670
0.049098
0.062230
-0.064317
0.021498
-0.005152
0.077864
0.044760
0.013132
-0.010956
-0.050024
0.113520
-0.033900
0.041639
0.093010
0.335797
0.630088
0.955092
1.182849
1.400487
1.375881
1.192239
0.977368
0.636533
0.176365
0.052193
-0.198205
-0.226076
-0.272013
-0.180164
0.035268
-0.108530
0.059010
0.031737
-0.003287
-0.009278
0.134923
0.062356
-0.013989
0.052153
0.067478
0.016951
0.110590
0.012337
0.092953
0.083423
0.070672
0.108351
0.088111
0.133707
0.093288
0.138732
0.204926
0.185496
0.215704
0.251894
0.083437
0.249215
0.224986
0.217902
0.274202
0.282648
0.358432
0.391790
0.380923
0.367065
0.401314
0.440480
0.457807
0.413168
0.437904
0.492384
0.522061
0.536650
0.587616
0.533728
0.540684
0.541932
0.556643
0.531767
0.524891
0.600915
0.507623
0.527012
0.405748
0.536857
0.429711
0.332498
0.399987
0.397923
0.470080
0.366258
0.401648
0.289098
0.224208
0.286150
0.349628
0.298672
0.154909
0.221985
0.128000
0.243550
0.185935
0.107714
0.128089
0.124005
0.129032
0.094177
0.048321
0.066130
0.077669
0.011357
0.019766
0.055624
0.040295
0.000034
0.025550
0.051224
0.041805
-0.017135
0.008222
0.024986
-0.013695
-0.037716
0.038671
0.077743
0.024537
-0.022516
0.020409
0.008260
-0.002347
-0.013659
0.035566
-0.072960
0.064654
0.040169
-0.036340
0.015401
0.058320
-0.131419
-0.025539
-0.012481
-0.086686
0.012232
-0.004045
-0.026545
-0.042444
-0.009964
-0.061871
0.070472
-0.015266
0.019532
-0.006320
0.041913
-0.014577
-0.054240
-0.022916
-0.029785
0.006574
0.020016
-0.040134
0.077060
-0.044177
-0.005302
0.008475
-0.035548
-0.029621
0.019024
-0.024461
-0.070489
0.013252
-0.014075
-0.034573
-0.087125
-0.072309
-0.021735
-0.047173
0.003902
-0.011132
-0.065068
-0.024387
-0.089078
-0.087728
-0.091358
-0.031801
-0.041997
-0.041858
0.019897
-0.051651
-0.019337
-0.063928
0.042916
-0.054507
-0.042863
-0.046769
0.084762
0.079941
0.007848
0.046439
0.080329
0.104396
0.118722
0.157199
0.234887
0.033251
0.062463
0.131654
0.102681
0.194315
0.073563
0.165963
0.153936
0.141335
0.098784
0.114419
0.083147
0.057484
0.025961
0.032061
0.011856
-0.036654
0.002846
-0.018094
-0.069112
-0.002272
-0.050119
0.030638
0.015336
-0.049761
0.001506
0.012813
-0.107847
-0.096384
-0.017914
-0.050396
-0.072561
-0.002224
-0.002629
-0.030368
-0.011986
-0.162994
-0.067194
-0.052986
-0.110777
-0.091500
-0.180202
-0.107605
-0.193557
0.041909
0.216381
0.452554
0.706666
1.040670
1.189875
1.345109
1.208721
0.916942
0.638388
0.302228
0.046780
-0.262950
-0.326656
-0.409357
-0.245297
-0.189107
-0.193673
-0.091378
-0.148799
-0.113063
-0.063156
-0.111262
-0.106275
-0.040475
-0.034986
-0.139628
-0.017835
-0.087655
-0.073559
-0.059916
0.039332
-0.060125
-0.039326
0.000243
-0.035775
0.006749
-0.007913
0.034479
0.106714
0.130686
-0.010494
0.134435
0.095771
0.107073
0.132266
0.175553
0.208304
0.245846
0.210788
0.248347
0.278699
0.291305
0.259146
0.264586
0.261351
0.291653
0.344436
0.340257
0.386267
0.364007
0.369828
0.376822
0.339360
0.421092
0.417331
0.431301
0.470692
0.314881
0.430201
0.368583
0.316369
0.374696
0.283103
0.287608
0.301791
0.283580
0.237976
0.233866
0.222300
0.159748
0.141532
0.138806
0.160023
0.089095
0.097742
0.104368
0.115236
0.061024
0.064891
0.089799
0.034871
0.021502
-0.033512
-0.040103
-0.108038
-0.041837
-0.032067
-0.063228
-0.114484
-0.028739
-0.081712
-0.079883
-0.086077
-0.097443
-0.079697
-0.070161
-0.148708
-0.068958
-0.105938
-0.032972
-0.138196
-0.137562
-0.124078
-0.139105
-0.154043
-0.090701
-0.146456
-0.060577
-0.110861
-0.130654
-0.181002
-0.090311
-0.116846
-0.082070
-0.089459
-0.124095
-0.091367
-0.065467
-0.136655
-0.015723
-0.070043
-0.098460
-0.045590
-0.126056
-0.108842
-0.086648
0.010279
-0.086179
-0.154330
-0.145038
-0.085905
-0.122909
-0.016341
-0.109006
-0.069547
-0.039998
-0.180953
-0.136881
-0.085677
-0.145420
-0.187041
-0.074040
-0.021502
-0.057904
-0.067438
-0.136825
-0.053957
-0.154229
-0.050700
-0.117574
-0.147716
-0.071866
-0.104915
-0.046463
-0.152882
-0.058576
-0.064879
-0.152603
-0.087507
-0.045662
-0.080567
-0.022391
-0.052881
-0.100507
-0.016383
-0.050022
-0.011785
-0.035821
-0.007824
0.028609
0.042526
-0.045414
-0.012599
-0.016443
0.013925
0.089932
0.148489
0.050975
0.059747
0.049055
0.124240
0.103091
0.178736
0.102974
0.041377
0.075190
0.175364
0.133613
0.046526
-0.027476
0.091795
0.031750
0.016360
0.014164
-0.015069
-0.074717
0.008536
0.029795
-0.021644
-0.067838
-0.040278
-0.104560
0.020875
-0.054015
-0.026331
-0.080071
-0.009335
-0.060506
-0.078647
-0.069669
-0.045325
-0.091263
-0.055336
-0.122829
-0.056515
0.019671
-0.106368
-0.074570
-0.058655
-0.062133
-0.095480
-0.078454
-0.156580
0.006323
0.059327
0.271505
0.541073
0.886257
1.193733
1.454405
1.320565
1.081411
0.733295
0.429274
0.001237
-0.228142
-0.334583
-0.351073
-0.281896
-0.231698
-0.102346
-0.106072
-0.062470
-0.109247
-0.023387
-0.028754
-0.056547
0.035069
0.010465
-0.012197
-0.046627
-0.023677
-0.005136
0.001964
0.022229
0.010025
0.004297
0.067368
0.050305
-0.019216
0.006910
0.099019
0.018049
0.057074
0.029058
0.162940
0.083812
0.189477
0.104287
0.237308
0.139654
0.257169
0.220275
0.363830
0.363247
0.259045
0.351471
0.341757
0.330653
0.355108
0.447823
0.381689
0.464595
0.520569
0.498801
0.489242
0.431639
0.465412
0.482310
0.541466
0.472781
0.488612
0.454468
0.383313
0.431462
0.463411
0.447944
0.413988
0.387641
0.341936
0.375932
0.328595
0.292941
0.285286
0.202159
0.318696
0.279252
0.220651
0.191158
0.154054
0.188663
0.120368
0.153926
0.085210
0.041607
0.109739
0.106688
0.006899
0.074347
0.088096
0.032144
0.047615
0.130356
0.080359
0.064113
0.013891
-0.026275
0.086808
-0.020986
0.022616
0.053519
0.002415
0.054612
-0.018880
0.140477
-0.026031
0.018495
0.032424
0.003818
-0.003646
0.043420
-0.006213
0.024281
0.103629
-0.004045
0.046669
0.021955
0.110898
-0.040356
0.042867
0.026441
0.015698
0.003101
0.031865
0.068517
0.026417
0.000839
0.042882
0.063291
0.072212
0.036079
0.016274
0.020084
0.035311
0.067777
0.021618
0.061307
0.091880
0.008463
-0.011617
0.071534
0.000125
0.024395
-0.045676
-0.072394
0.066383
0.057878
0.047196
0.060487
0.017688
0.026145
0.027559
0.083939
0.034605
0.061953
-0.037132
-0.010457
-0.033063
0.039230
0.056482
0.041536
0.119157
-0.023780
0.144086
0.104690
0.057625
0.040624
0.108494
0.039989
0.035949
0.117631
0.044814
0.083567
0.134066
0.137164
0.087334
0.131082
0.208103
0.144459
0.243284
0.238896
0.177754
0.310431
0.280997
0.248370
0.216850
0.246672
0.256407
0.244523
0.168978
0.246537
0.144662
0.137054
0.111371
0.180599
0.149027
0.146740
0.177552
0.175285
0.153956
0.095294
0.067665
0.122494
0.033798
0.123937
0.124026
0.126459
0.033961
0.070992
0.082520
0.130944
0.075618
0.091202
0.101767
0.055918
0.013546
0.028805
0.055652
0.039913
0.032090
0.012407
0.021142
0.074242
0.012075
0.015610
-0.030920
-0.048551
0.064396
0.050160
0.328043
0.576777
0.914595
1.264839
1.400974
1.391690
1.272066
0.973638
0.756845
0.318086
0.027444
-0.178745
-0.274585
-0.230059
-0.121229
-0.034280
-0.018734
0.029569
0.090073
0.039724
0.089480
0.091029
0.055808
0.007980
0.124939
0.003902
0.082479
0.078231
0.130319
0.025897
0.130050
0.058089
0.072622
0.179629
0.150994
0.111509
0.186602
0.147775
0.180027
0.190247
0.336839
0.314999
0.197619
0.220211
0.290398
0.294344
0.262418
0.386084
0.359186
0.413315
0.348145
0.375025
0.364015
0.420554
0.516573
0.472266
0.477733
0.503695
0.464723
0.551860
0.530282
0.545095
0.520137
0.474707
0.586956
0.595238
0.565090
