0.013442
0.022426
0.076564
-0.021066
0.040546
-0.055602
0.017809
-0.028988
0.094632
0.073706
0.027978
-0.008544
0.094127
-0.009920
0.032645
0.058792
0.054186
0.036152
-0.026224
0.048993
-0.097922
0.066049
0.025457
0.007724
-0.029353
-0.011528
0.066110
0.028791
0.052819
-0.049463
0.100884
0.065613
0.068736
0.051419
0.069019
0.103381
0.139086
0.092279
0.078360
0.152671
0.154647
0.096991
0.223222
0.195988
0.163286
0.173768
0.240179
0.190320
0.178365
0.123320
0.152334
0.217765
0.157120
0.145859
0.171457
0.129367
0.133441
0.128940
0.055937
0.150208
0.082023
0.064485
0.049566
0.055569
0.019414
0.075354
0.120425
0.019424
-0.012403
0.014288
0.077218
-0.006435
0.082491
0.017139
0.054587
-0.003147
0.079479
-0.017149
0.026834
0.061501
0.071982
0.026889
0.042012
0.060943
0.003115
-0.049536
-0.044052
0.018972
0.135288
0.279842
0.542732
0.836123
1.206377
1.315874
1.458944
1.452434
1.080241
0.849908
0.468217
0.031917
-0.104470
-0.241543
-0.284139
-0.202736
-0.093645
-0.003197
0.069513
0.049995
0.118370
0.010885
0.044659
0.066233
0.059511
0.049621
0.075930
0.076297
0.103267
0.089848
0.124941
0.104797
0.073334
0.125042
0.214346
0.137747
0.149155
0.284767
0.236694
0.177877
0.234842
0.215990
0.278143
0.305293
0.263373
0.196492
0.243665
0.352400
0.375093
0.371429
0.396268
0.424388
0.462362
0.495477
0.494323
0.486261
0.501779
0.534548
0.532301
0.546298
0.540779
0.614255
0.535408
0.619893
0.491881
0.554109
0.508927
0.597289
0.569424
0.599702
0.475919
0.576918
0.589309
0.539057
0.398096
0.434799
0.424915
0.436135
0.444482
0.331031
0.344753
0.305019
0.342924
0.276897
0.261956
0.318254
0.280387
0.315115
0.253071
0.263517
0.134200
0.121451
0.250463
0.199621
0.188712
0.177142
0.235922
0.213985
0.128787
0.169479
0.104073
0.098878
0.058284
0.116329
0.118477
0.053831
0.063743
0.051416
0.139748
0.098021
0.074139
0.073661
0.106693
0.056153
0.171183
0.112547
0.107747
0.109055
0.109957
0.134735
0.020405
0.094885
0.088321
0.135781
0.036757
0.132788
0.054377
0.066961
0.013065
0.047101
0.002220
-0.000479
0.123034
0.167312
0.047177
0.142373
0.115302
0.128324
0.091231
0.062820
0.125231
0.108201
0.043372
0.101060
-0.001532
0.096528
0.064578
0.115784
0.022496
0.096167
0.005974
0.020006
0.146327
0.074333
0.067860
0.154910
0.079516
0.145345
0.083039
0.051470
0.103068
0.091259
0.147294
0.149345
0.044031
0.079399
0.067081
0.072923
0.047358
0.135433
0.147927
0.059716
0.105709
0.049939
0.061098
0.096073
0.101752
0.086837
0.025238
0.147827
0.121726
0.133252
0.244961
0.130323
0.158897
0.190703
0.222390
0.291084
0.211319
0.232780
0.241966
0.237275
0.292907
0.174025
0.305562
0.178812
0.253302
0.250388
0.242448
0.218976
0.247681
0.213737
0.211979
0.166033
0.006095
0.149725
0.124122
0.066843
0.178094
0.078841
0.073231
0.047569
0.114066
0.045640
0.047976
0.047701
0.113965
0.135152
0.051669
0.088979
0.043535
0.110051
0.056005
0.125175
0.088506
0.087681
0.088750
0.062844
0.049459
0.031425
-0.025545
0.037598
0.045967
-0.017936
-0.066322
0.230893
0.373325
0.724357
1.040256
1.306240
1.437253
1.450004
1.183319
0.833676
0.523413
0.220181
-0.002705
-0.244097
-0.230085
-0.215011
-0.042438
-0.057131
-0.016540
0.068149
0.147158
0.111508
0.038888
0.082394
0.056203
-0.007338
0.050956
0.076727
0.077490
0.136244
0.076204
0.114339
0.062670
0.042634
0.069500
0.113325
0.072300
0.106496
0.102229
0.194263
0.124506
0.106801
0.218810
0.256710
0.260600
0.197916
0.211793
0.220719
0.429339
0.341730
0.339218
0.377435
0.422461
0.462357
0.422338
0.517392
0.429747
0.436491
0.573019
0.451028
0.514096
0.555844
0.549668
0.428398
0.484638
0.492104
0.506047
0.570312
0.549538
0.576134
0.488202
0.483477
0.489333
0.504087
0.450424
0.469283
0.382232
0.383003
0.364558
0.261380
0.319243
0.317262
0.226190
0.235825
0.251770
0.198232
0.290398
0.193083
0.169653
0.142945
0.124265
0.191650
0.147384
0.025007
0.057387
0.127128
0.074155
0.047490
-0.013734
-0.019455
0.047324
0.067102
0.042849
0.058424
0.060248
-0.020148
0.019122
0.055797
0.026641
0.072368
0.018131
0.057074
-0.079094
-0.097772
0.010049
-0.001696
0.026014
-0.031004
-0.059116
-0.067805
-0.051024
0.013154
-0.032906
0.067973
-0.073806
0.017768
0.003145
-0.051414
-0.052810
-0.015602
-0.045363
0.027168
-0.072939
-0.076753
-0.024475
-0.018294
-0.038474
-0.013503
-0.033947
0.013399
-0.029617
-0.064659
-0.004632
-0.087394
-0.042142
0.013665
-0.049810
-0.031786
-0.041907
-0.014578
0.007974
-0.029445
0.020026
-0.070734
-0.036633
-0.019663
-0.022707
-0.065075
0.046603
0.007030
0.018992
0.024402
0.040564
-0.001310
-0.056053
0.038818
-0.147768
-0.046708
-0.070714
0.010013
0.023179
-0.001431
0.011048
-0.039587
-0.003967
0.008687
0.032680
-0.038093
0.015971
0.019974
0.036746
0.073734
0.097947
0.147216
0.040773
0.085604
0.126239
0.118656
0.135055
0.090020
0.052314
0.125502
0.124704
0.072052
0.149306
0.124688
0.103010
0.077496
0.057140
0.119987
0.112412
0.178727
0.136324
0.118802
0.075071
0.002740
0.056593
-0.034130
0.057542
-0.057379
-0.038235
-0.114088
0.030184
-0.040281
0.068380
-0.051209
-0.043133
-0.127553
-0.069409
-0.052817
-0.018685
0.001052
-0.067008
-0.027291
0.031220
-0.041605
0.007863
-0.019940
-0.036324
-0.089404
-0.136208
-0.046896
-0.058517
-0.145003
-0.039590
0.065531
0.207243
0.531831
0.774977
1.125571
1.296924
1.329414
1.160324
0.899172
0.576158
0.181691
-0.087018
-0.274447
-0.310958
-0.341730
-0.212648
-0.181151
-0.130880
-0.093110
-0.040458
-0.066988
-0.124041
-0.019365
-0.074573
-0.018994
-0.041957
-0.103673
-0.092803
0.003592
-0.039066
-0.091210
0.009838
-0.049443
0.037076
0.078837
0.030882
-0.005375
0.064993
0.086386
0.083123
0.025837
0.135100
0.089218
0.163798
0.121377
0.156529
0.189111
0.118766
0.231712
0.281682
0.226582
0.320159
0.310380
0.268437
0.375495
0.403903
0.426674
0.421447
0.420787
0.416938
0.466092
0.444173
0.345073
0.455595
0.486747
0.451308
0.453075
0.518104
0.432365
0.468342
0.426510
0.405421
0.288948
0.339348
0.370391
0.455724
0.382401
0.311583
0.265418
0.253691
0.282267
0.181600
0.228450
0.251298
0.225915
0.136265
0.097612
0.173735
0.094464
0.069181
0.119299
0.035710
0.040404
-0.046019
0.060456
0.005946
0.067423
-0.011125
-0.025538
0.064473
0.002875
-0.019866
0.065666
-0.033378
0.018708
0.065903
-0.022575
-0.032167
-0.012035
0.011415
0.001423
-0.061408
-0.054730
0.023801
0.007038
0.002362
-0.044335
-0.035097
-0.011098
-0.001224
-0.100960
0.013978
-0.001441
-0.010463
0.022924
0.100968
0.033330
0.047612
0.001069
0.026779
0.047707
-0.066141
-0.097669
-0.035581
-0.055500
0.023959
-0.002304
0.018523
0.007435
0.022112
0.021591
-0.008100
-0.084333
-0.040912
0.047539
0.114420
-0.057478
-0.027290
-0.031809
-0.047624
0.066755
-0.037599
-0.078435
0.017874
0.001649
0.026398
0.002599
-0.022598
0.030627
0.028964
0.006488
0.023748
0.024172
0.033771
0.022756
-0.016040
0.051601
-0.120739
0.000228
-0.005046
0.077441
0.048501
-0.030151
0.038380
-0.023173
0.007084
0.029626
0.126168
0.035413
0.107534
0.138543
0.111630
0.148889
0.124272
0.101450
0.179000
0.174847
0.172749
0.177502
0.146018
0.085571
0.115577
0.222026
0.270927
0.177020
0.242824
0.246601
0.112261
0.153021
0.249177
0.158068
0.203017
0.135180
0.236304
0.138896
0.093490
0.054673
0.183073
0.045369
0.080926
0.058293
0.105429
0.103328
0.124912
0.015382
0.037944
0.049281
0.062313
0.055484
0.040283
0.008580
0.043935
0.033281
0.071747
0.035941
0.115887
0.011299
-0.000817
0.002120
0.021632
0.065893
0.013826
-0.003885
0.046382
0.088634
0.160349
0.415985
0.787984
1.173075
1.434355
1.500000
1.371529
1.130293
0.798301
0.400942
0.157583
-0.161187
-0.224593
-0.211029
-0.238292
-0.079610
0.001413
0.049387
0.025077
0.094102
0.061080
0.128721
0.081722
0.067924
0.140825
0.086364
0.098117
0.075407
0.050371
0.086120
0.097987
0.132223
0.111790
0.134249
0.098648
0.192862
0.136768
0.137512
0.191441
0.114644
0.225833
0.209716
0.210794
0.288442
0.186564
0.327646
0.275140
0.322097
0.328000
0.343965
0.405250
0.481785
0.406426
0.448064
0.439026
0.558278
0.508514
0.498894
0.512531
0.567518
0.594204
0.561302
0.524470
0.589609
0.549976
0.448114
0.588678
0.547893
0.523735
0.587706
0.607155
0.551805
0.489722
0.502783
0.456741
0.453585
0.376344
0.477600
0.343659
0.437636
0.360383
0.291099
0.322237
0.251637
0.265978
0.303186
0.261690
0.231248
0.309089
0.172448
0.177035
0.176804
0.163524
0.236266
0.133947
0.108255
0.166314
0.097457
0.217557
0.140179
0.118243
0.092412
0.040260
0.131036
0.054099
0.092772
0.065974
0.113928
0.141001
0.062517
0.098311
0.055571
0.076387
0.146999
0.013305
0.063628
0.105659
0.099139
-0.000753
0.107260
0.092308
0.101373
0.095376
0.004611
0.103559
0.051621
0.111155
0.061823
0.132818
0.042475
0.011768
0.049959
0.144122
0.053368
0.141161
0.083761
0.042463
0.074897
0.032914
0.092645
0.130428
0.023244
-0.023018
0.046588
0.104434
0.090398
0.160386
0.163084
0.184926
0.092222
0.086173
0.075475
0.088442
0.064195
0.108579
0.144990
0.021860
-0.062330
0.096717
0.083684
0.063218
0.136561
0.169169
0.091869
-0.027656
0.067848
0.073556
0.130477
0.114978
0.108409
0.117161
0.074230
0.187808
0.122200
0.166593
0.150580
0.116372
0.160630
0.228084
0.077107
0.134298
0.217533
0.175699
0.263469
0.146011
0.275381
0.271321
0.256284
0.249694
0.300920
0.297395
0.262542
0.271907
0.210661
0.239244
0.232753
0.301756
0.212664
0.132337
0.244806
0.149982
0.236556
0.153070
0.193248
0.168955
0.134250
0.116256
0.194146
0.105153
0.108568
0.024020
0.158563
0.076535
0.086566
0.149738
0.128427
0.070717
0.111077
0.046170
0.041185
0.106975
0.095691
0.007427
0.128564
0.077342
0.060376
0.094490
0.057943
0.093405
0.154758
0.023719
0.055335
0.008649
0.108865
0.180918
0.438491
0.732760
0.991572
1.291680
1.447167
1.372187
1.245040
0.923126
0.545166
0.294464
-0.070995
-0.241635
-0.249696
-0.207610
-0.104977
-0.016579
0.005912
0.053662
0.060137
-0.008139
-0.000101
0.080978
0.097358
0.022685
0.083189
0.150496
0.074330
0.154361
0.070127
0.060706
0.157998
0.049773
0.171532
0.089835
0.126296
0.079818
0.185845
0.145992
0.206575
0.202285
0.179246
0.233133
0.298125
0.199371
0.225801
0.322425
0.372417
0.321374
0.386840
0.397531
0.412676
0.453488
0.472432
0.569756
0.457135
0.403750
0.400515
0.438813
0.530495
0.567836
0.558575
0.553337
0.576348
0.472234
0.573850
0.503260
0.543173
0.511783
0.462056
0.543060
0.476938
0.479842
0.488767
0.420798
0.392740
0.432281
0.345149
0.336077
0.355950
0.329542
0.266166
0.339249
0.211050
0.188629
0.237379
0.132959
0.193916
0.193677
0.201223
0.150309
0.111507
0.031676
0.014459
0.097733
0.082948
-0.007154
0.095155
0.019240
-0.044585
0.094761
0.004056
0.020179
0.061541
0.037542
-0.014957
-0.012005
-0.020487
0.037257
0.069630
0.015788
0.066196
0.012931
-0.072615
0.028909
0.039518
-0.019970
0.013112
0.002359
-0.021450
-0.013676
-0.006526
-0.031303
-0.012660
0.000118
-0.043257
0.013392
-0.023882
-0.076039
0.033475
0.034518
-0.021005
0.025434
-0.073931
0.023130
0.013202
-0.049816
-0.037673
0.088643
-0.078683
0.063061
0.037251
0.062896
-0.000554
0.029278
0.005279
-0.117782
-0.003825
0.021742
-0.008968
-0.054944
0.048826
-0.011957
-0.090080
-0.008623
0.011044
-0.022060
-0.047889
-0.027884
0.033455
-0.063060
-0.040670
0.021637
-0.042531
-0.014921
-0.039282
-0.005404
-0.031722
-0.054854
0.006417
0.013686
0.055187
0.007356
0.031077
0.000479
0.007465
0.064464
-0.076476
0.051154
0.090293
0.057438
0.129186
0.036313
0.170787
0.095715
0.046814
0.136470
0.070091
0.067374
0.130970
0.163214
0.093967
0.177873
0.089799
0.082144
0.069784
0.178376
0.107739
0.124797
0.033482
0.076581
0.103815
0.091388
0.035031
0.120445
0.015827
0.010247
0.039532
0.060220
-0.058442
0.029577
-0.026467
-0.070065
-0.080206
-0.013348
-0.065552
-0.014001
-0.070667
-0.090274
-0.061329
-0.070714
-0.120814
-0.028194
-0.086282
-0.027455
-0.044103
-0.054907
-0.029150
-0.097113
-0.037083
-0.070797
-0.036522
-0.118166
-0.136365
0.008205
0.155858
0.344176
0.730789
1.007183
1.368203
1.348408
1.278486
0.936786
0.563407
0.243579
-0.143028
-0.297023
-0.351362
-0.447479
-0.243393
-0.274468
-0.162018
-0.109548
-0.057178
-0.047275
-0.102083
-0.031853
-0.096890
-0.049103
-0.068066
-0.034615
-0.037494
-0.022335
-0.060184
-0.056850
-0.104625
-0.101922
-0.046411
0.002687
0.042649
0.044484
0.021266
0.033106
0.049901
0.063245
0.112498
0.091697
0.163963
0.149434
0.113973
0.128099
0.263668
0.186272
0.190908
0.208954
0.213088
0.307844
0.298618
0.349542
0.361036
0.392395
0.352869
0.374640
0.314823
0.429235
0.393008
0.379648
0.334942
0.420175
0.424329
0.454774
0.446057
0.436642
0.395787
0.469652
0.348598
0.400206
0.318275
0.374499
0.347720
0.278471
0.277980
0.277266
0.281506
0.191819
0.243618
0.163575
0.190352
0.130915
0.145531
0.131398
0.169758
0.015000
0.029637
0.083711
-0.048100
-0.024812
0.069847
-0.017333
-0.055590
-0.030288
-0.072319
-0.059042
-0.125313
-0.059226
-0.084914
-0.056280
-0.062912
-0.081844
-0.039546
-0.068231
-0.040132
-0.066600
-0.041117
-0.146667
-0.095924
-0.004746
-0.179327
-0.070214
-0.081757
-0.102256
-0.047316
-0.074967
-0.063639
-0.069964
-0.036964
-0.067824
-0.072917
-0.079994
-0.077165
-0.137065
-0.070270
-0.130509
-0.111117
-0.055200
-0.053156
-0.016852
-0.018204
-0.072452
-0.047912
-0.110743
-0.022752
0.062442
-0.070551
-0.029522
-0.018739
-0.091752
-0.080234
-0.095273
-0.024997
0.004771
-0.038842
-0.102820
-0.081266
-0.111099
-0.040679
-0.133133
-0.095232
-0.041464
-0.090912
-0.056410
-0.072263
-0.113560
-0.074596
-0.088548
-0.050440
0.011429
-0.099135
-0.085669
0.027697
-0.124638
-0.101108
-0.091666
-0.069965
-0.004015
0.066421
-0.036203
0.012303
-0.024676
-0.085815
-0.038301
0.040069
-0.043739
-0.047403
0.010002
0.061970
0.022099
0.022867
0.081530
-0.037152
0.127556
0.077207
0.140755
0.104461
0.111982
0.111332
0.130830
0.094449
0.176046
0.064635
0.078746
0.104783
0.147137
0.094982
0.125714
0.167838
0.036704
0.026287
-0.038155
0.053011
0.033576
0.037082
-0.032143
0.027650
-0.020180
-0.035499
0.018521
-0.064002
-0.030653
0.000052
-0.026289
0.011319
-0.007698
0.055446
-0.027641
-0.006059
-0.014725
-0.073187
-0.018655
-0.142532
-0.062873
0.048963
-0.015946
-0.066406
-0.071681
-0.080241
-0.056469
-0.019534
-0.029415
0.155493
0.346496
0.735130
1.001722
1.314651
1.409065
1.327918
1.152970
0.749715
0.391409
0.006925
-0.122654
-0.315155
-0.233905
-0.289485
-0.281746
-0.116882
0.017717
0.014885
0.011425
-0.032091
-0.005340
-0.066420
-0.039075
0.033691
0.021912
0.020871
0.010024
-0.000611
0.078105
0.001515
0.083147
0.050954
0.023386
0.080202
0.072423
0.152600
0.159279
0.128466
0.090245
0.141095
0.168239
0.176065
0.229554
0.114186
0.256019
0.213541
0.261595
0.285114
0.286015
0.386116
0.372959
0.326301
0.401543
0.441392
0.421149
0.460496
0.496188
0.472600
0.500112
0.473977
0.431826
0.556101
0.541281
0.459004
0.469068
0.560753
0.486855
0.478943
0.526457
0.492690
0.409858
0.389156
0.433023
0.490099
0.429716
0.425668
0.333360
0.288831
0.288516
0.318481
0.298496
0.248686
0.229027
0.256774
0.106926
0.186277
0.217728
0.155414
0.147771
0.166801
0.115703
0.098676
0.118459
0.076070
0.006996
0.113400
0.072475
0.052003
0.015586
0.022717
0.097405
-0.013597
0.065204
0.051160
0.068549
0.071113
0.084043
0.046186
-0.084734
0.050087
-0.001605
0.001266
0.001788
-0.029813
0.002331
0.012367
-0.014384
0.075068
0.017857
0.053685
-0.011128
0.027586
-0.014555
0.001252
0.021306
0.028999
0.127109
-0.037003
0.141410
0.033337
0.120213
0.044351
0.012993
-0.000908
-0.049983
0.019098
-0.050605
0.037418
0.078016
-0.034820
0.010516
0.025574
0.080762
-0.043901
0.058192
-0.017686
-0.006069
-0.031136
-0.014099
0.029206
0.123658
0.003217
0.034994
0.101043
0.042884
0.007428
0.076106
0.003987
0.015541
0.015067
0.019225
-0.058536
0.047224
0.050146
0.066589
0.068335
0.059611
0.074557
0.023174
0.014956
0.051133
0.049351
0.052364
0.074019
0.111672
0.034557
0.129395
0.215672
0.054813
0.178950
0.152751
0.193011
0.118292
0.170349
0.142714
0.147966
0.296131
0.256513
0.236052
0.183040
0.208841
0.219174
0.167365
0.217330
0.210273
0.198246
0.245874
0.182710
0.064120
0.142152
0.274861
0.120875
0.158992
0.170583
0.156646
0.124312
0.102499
0.043320
0.115698
0.006892
0.095265
0.054634
0.106341
0.076686
0.069397
0.143292
0.114811
0.101694
0.085010
0.051676
0.011113
0.065235
0.058524
0.014760
0.053895
0.022845
0.101080
-0.038947
0.033352
-0.007557
0.031046
-0.049754
0.020880
0.183127
0.317585
0.616692
0.916440
1.364194
1.424228
1.354602
1.254338
0.982855
0.602835
0.238769
-0.106727
-0.204220
-0.278874
-0.251188
-0.210363
-0.081882
0.031040
-0.013322
0.069567
0.037081
0.116642
0.022363
0.025912
-0.011062
0.005766
-0.027324
0.063955
0.069989
0.105243
0.071627
0.003308
0.003454
0.134974
0.092494
0.135686
0.056986
0.170390
0.141486
0.165193
0.185247
0.281103
0.219834
0.250673
0.236427
0.341155
0.249020
0.251663
0.347508
0.356496
0.389216
0.465702
0.368435
0.480209
0.351842
0.489531
0.461132
0.473275
0.524389
0.524891
0.557073
0.476042
0.569449
0.562353
0.597684
0.489856
0.585155
0.501600
0.522670
0.491515
0.577955
0.470632
0.449261
0.388067
0.390261
0.417291
0.369496
0.332040
0.286088
0.329368
0.373700
0.242763
0.216724
0.230102
0.184346
0.178871
0.226229
0.154204
0.152419
0.155327
0.194083
0.099068
0.113627
0.035623
0.170308
0.143684
0.030091
0.058965
0.033891
0.064508
0.054601
0.082286
0.068739
-0.004896
0.064256
0.004663
-0.051741
-0.031587
0.013376
0.032594
0.042053
0.025985
-0.021689
0.074351
0.045335
-0.016531
0.011242
-0.028715
-0.004086
-0.019610
0.051267
-0.089781
-0.006279
-0.099047
-0.015057
-0.136596
-0.003669
-0.000964
-0.045071
-0.025847
0.055971
-0.063560
-0.054794
-0.004600
-0.024332
0.089978
-0.020013
0.023499
0.086455
-0.012315
0.019386
-0.020606
-0.040126
-0.066848
-0.055339
-0.036891
-0.061264
-0.124974
-0.074046
-0.015373
-0.031724
-0.047148
-0.137556
0.005923
-0.009124
0.017208
0.023352
0.057788
0.002682
0.029826
0.017543
-0.022951
-0.019841
-0.051026
-0.020373
-0.050761
-0.095028
-0.058165
-0.045069
-0.052744
-0.028409
-0.026460
-0.020709
-0.020008
-0.034335
0.080577
-0.059101
-0.023993
0.052885
0.049519
0.057559
0.053103
0.049083
0.094925
0.095364
0.158930
0.181139
0.083836
0.137540
0.128369
0.094013
0.101133
0.174491
0.106737
0.039919
0.165204
0.072208
0.118500
0.148361
0.035895
0.097225
0.028968
0.124309
-0.004502
0.026643
0.030210
0.064156
-0.034057
-0.001057
0.041490
-0.065316
0.038238
-0.056761
-0.000237
-0.054975
-0.042353
0.022640
-0.040049
-0.095933
-0.084099
-0.063610
-0.050534
-0.034872
-0.092699
-0.009830
-0.071804
-0.114163
-0.032629
-0.065090
-0.006415
-0.068993
-0.050297
-0.051523
-0.134567
-0.151951
0.005325
0.398755
0.756819
1.012084
1.346529
1.350019
1.293470
0.985996
0.526287
0.232195
-0.027876
-0.187330
-0.344049
-0.336210
-0.333935
-0.245031
-0.221990
-0.060239
-0.151367
-0.069066
-0.061953
-0.094465
-0.035213
0.037541
-0.036950
0.021418
0.018823
-0.032459
-0.054541
-0.075025
-0.066214
0.002848
-0.137180
0.018794
0.085387
0.026179
0.065455
0.075660
0.007214
0.005237
0.086456
0.150345
0.067727
0.077331
0.212541
0.182152
0.247732
0.116593
0.248587
0.133627
0.364027
0.281411
0.225887
0.243249
0.382662
0.324515
0.439834
0.355901
0.371608
0.386891
0.433224
0.384749
0.422715
0.452276
0.446203
0.371249
0.399836
0.403550
0.498705
0.372575
0.420123
0.299656
0.238213
0.228989
0.244890
0.203321
0.206924
0.216274
0.214162
0.201862
0.143595
0.101165
0.118426
0.107585
0.049133
0.055550
0.121447
0.090944
0.046869
0.062535
0.032239
-0.019811
-0.040821
-0.135083
-0.055272
-0.058087
-0.089939
0.003355
-0.019066
-0.162425
-0.095024
-0.020331
-0.040810
-0.064036
-0.068190
-0.076965
-0.088926
-0.090072
-0.088179
-0.086532
-0.028311
-0.133392
-0.077559
-0.120507
-0.074981
-0.084024
-0.150029
-0.119933
-0.035827
-0.085666
0.015273
-0.109660
-0.172790
-0.115721
-0.121195
-0.072655
-0.061277
-0.032289
-0.124323
-0.143123
-0.102531
-0.001164
-0.077864
-0.101523
-0.116675
-0.126620
-0.103228
-0.084482
-0.104306
-0.062449
-0.053872
-0.118837
-0.084022
-0.137451
-0.139903
-0.064608
-0.023954
-0.075770
-0.034473
-0.106435
-0.103467
-0.086694
-0.076454
-0.099849
-0.102537
-0.119048
-0.124692
-0.155262
-0.018040
-0.077032
-0.102686
-0.053263
-0.031081
-0.034171
-0.148424
-0.070745
-0.132751
-0.089845
0.007339
-0.099372
-0.126343
-0.050336
-0.069014
-0.049818
-0.026012
-0.013016
-0.017487
-0.026474
-0.055167
-0.114591
0.085413
-0.064178
0.058284
0.043287
0.015014
0.010665
0.115406
0.088337
0.118549
0.106920
0.079952
0.118412
0.131864
0.153992
0.091443
0.118332
0.129069
0.095177
0.060482
0.028354
-0.019385
0.055115
0.000729
0.096077
-0.059677
-0.015158
-0.016225
0.001595
-0.058426
0.007072
-0.031649
-0.139200
-0.068306
-0.091236
-0.039548
-0.045186
-0.090852
-0.063469
-0.134612
-0.124869
-0.016056
-0.136162
-0.081767
-0.090474
-0.135440
-0.022741
-0.079594
-0.125011
-0.074315
-0.135172
-0.131415
-0.119921
-0.176574
-0.037470
0.112565
0.266548
0.613274
0.978180
1.173774
1.301794
1.272823
1.098464
0.737775
0.389350
0.043427
-0.140629
-0.315711
-0.273316
-0.210357
-0.236310
-0.164873
-0.090757
-0.125485
-0.080327
-0.023915
-0.004369
-0.123737
-0.059318
-0.024602
-0.045969
0.013229
-0.015594
0.029533
0.004580
0.060107
-0.085208
0.030710
-0.007163
0.049138
0.062632
0.007324
0.044155
0.178619
0.036075
0.094075
0.175439
0.121706
0.210305
0.179337
0.172514
0.153706
0.249197
0.335097
0.263539
0.354403
0.351005
0.305732
0.395831
0.311407
0.325718
0.457192
0.419049
0.407146
0.472508
0.504833
0.458939
0.405979
0.493277
0.490687
0.503216
0.418576
0.460052
0.451661
0.459224
0.504391
0.500478
0.471075
0.323946
0.356725
0.343832
0.335274
0.330407
0.262744
0.299938
0.292402
0.253146
0.344312
0.195209
0.200708
0.299309
0.153749
0.172874
0.017690
0.105415
0.155559
0.053414
0.050522
0.009996
0.075614
0.022617
0.097635
-0.003594
0.092284
0.060830
0.072352
-0.004519
0.055646
0.034293
0.027030
-0.014067
-0.027425
0.023261
0.015006
0.009970
0.010399
0.057584
0.021255
0.006047
0.059149
0.058365
0.034757
0.005518
0.041493
-0.010993
-0.022382
0.040701
0.045595
-0.056435
0.025028
0.023910
-0.039554
0.072564
0.047791
-0.020120
-0.068239
0.031847
0.027829
0.007878
-0.015399
0.047016
0.040663
-0.033039
0.073713
0.018202
0.033196
0.058771
0.045968
0.007248
0.060364
0.063349
-0.000569
0.016737
0.060136
0.062307
0.156355
-0.000980
0.027770
0.020440
0.066103
0.036117
0.046404
0.011074
0.072346
0.069547
0.024623
0.000721
-0.007948
0.019335
0.053602
0.024742
0.104554
-0.039714
0.029768
-0.019083
0.021483
0.055817
-0.048843
0.079114
0.032613
0.150656
0.060976
0.027386
0.102795
0.154365
0.155152
0.129767
0.086533
0.202303
0.135389
0.125694
0.196054
0.228991
0.189835
0.205663
0.183826
0.283160
0.270240
0.238945
0.226491
0.258015
0.255820
0.236033
0.183339
0.222125
0.092260
0.158949
0.183280
0.203338
0.182923
0.174050
0.115386
0.120911
0.114976
0.129001
0.066858
0.107384
-0.050150
0.043907
0.066495
0.037397
0.015832
0.023904
0.039238
-0.005975
0.113722
0.026341
0.028100
0.048773
0.069728
0.086402
0.007054
0.112013
0.076662
0.005924
-0.042417
-0.008604
-0.058734
-0.007176
0.154293
0.362601
0.592806
0.958914
1.298780
1.443617
1.458885
1.348409
1.113891
0.703777
0.319253
0.034585
-0.129042
-0.281207
-0.196942
-0.157179
-0.103711
-0.069141
-0.007459
0.095393
0.012676
0.022828
0.120758
0.112175
0.014313
0.073269
0.127597
0.123259
0.090970
0.009877
0.124574
0.107267
0.160835
0.023065
0.136052
0.153332
0.175492
0.139204
0.228540
0.152271
0.167543
0.241595
0.249485
0.324177
0.280193
0.247038
0.420259
0.383154
0.306380
0.465243
0.351232
0.388917
0.482403
0.367594
0.460544
0.574326
0.488444
0.493906
0.584448
0.542486
0.536988
0.544569
0.602719
0.570244
0.573012
0.637213
0.550591
0.541445
