-0.059618
-0.029371
0.093836
0.007811
-0.073061
0.051808
0.041685
-0.049665
-0.012202
-0.002116
0.034187
0.004318
-0.007173
-0.032554
0.115823
0.000349
-0.014496
-0.009156
0.002476
-0.023264
0.069357
0.121922
0.094120
0.066545
0.131315
0.068952
0.067172
0.149956
0.113689
0.056037
0.203135
0.113277
0.153786
0.135198
0.176173
0.132864
0.189537
0.296127
0.090734
0.211562
0.277935
0.112295
0.192184
0.169783
0.190358
0.114081
0.077150
0.092831
0.089844
0.065174
0.125640
0.060262
0.040281
0.029487
0.014952
0.015493
0.052141
0.089920
0.029913
0.134800
0.086471
0.033249
0.015609
0.062066
0.000731
0.030227
0.036099
0.015611
-0.033416
0.024725
0.046027
0.236147
0.491054
0.790350
1.019815
1.350592
1.393838
1.346986
1.003638
0.717170
0.269388
0.040120
-0.049223
-0.145113
-0.068408
0.010566
-0.092294
0.074061
0.115344
0.046473
0.141101
0.081237
0.099725
0.111584
0.162870
0.087138
0.143624
0.159982
0.143080
0.174981
0.210011
0.213229
0.231706
0.252181
0.304081
0.337522
0.293797
0.436490
0.374201
0.415781
0.444159
0.421231
0.446096
0.419956
0.521713
0.530661
0.455763
0.528923
0.481139
0.552256
0.523918
0.538371
0.580035
0.522113
0.681665
0.613625
0.546527
0.499606
0.538090
0.507995
0.543775
0.477606
0.433620
0.494980
0.438575
0.454667
0.400543
0.500217
0.411008
0.389635
0.401783
0.315735
0.331096
0.335311
0.302698
0.270140
0.232177
0.167066
0.215786
0.202507
0.157313
0.180137
0.119792
0.196651
0.070611
0.059521
0.060184
0.088425
0.243991
0.077217
0.142570
0.122944
0.071490
0.110770
0.079447
0.083221
0.067221
0.070153
0.038860
0.111141
0.115261
0.138183
0.052085
0.100886
0.044682
0.114325
0.068439
0.103007
0.122236
0.066304
0.096582
0.047362
0.123580
0.035114
0.180783
0.116507
-0.015521
0.075708
0.039532
0.158807
0.082084
0.145648
0.121939
0.149748
0.115844
0.157736
0.077412
0.078949
0.066617
0.159034
0.150339
0.055659
0.137132
0.089818
-0.002671
0.101994
0.136143
0.066793
0.150220
0.146072
0.150198
0.127100
0.049076
0.170710
0.194300
0.185883
0.102676
0.198862
0.175952
0.174154
0.156467
0.185903
0.138291
0.228562
0.290146
0.252921
0.284512
0.204993
0.260854
0.149576
0.284703
0.223943
0.310200
0.321576
0.238927
0.222734
0.269758
0.212654
0.193911
0.171809
0.127921
0.073691
0.160665
0.151054
0.149738
0.166373
0.115894
0.168048
0.101483
0.036075
0.084020
0.085509
0.170471
0.184544
0.180924
0.085991
0.013944
0.026057
0.108467
0.040597
0.125825
0.284614
0.438819
0.827335
1.212209
1.354953
1.349443
1.345963
1.055717
0.671372
0.342869
0.079989
-0.104481
-0.101236
-0.066247
0.007631
0.055566
0.081897
0.062017
0.061663
0.086266
0.184217
0.115056
0.117868
0.141868
0.204922
0.257592
0.179606
0.196298
0.136778
0.318003
0.226980
0.236868
0.249328
0.295259
0.331005
0.278003
0.291930
0.393893
0.384131
0.430814
0.388832
0.458926
0.474163
0.502712
0.500416
0.529731
0.534480
0.476239
0.627508
0.532905
0.588894
0.590062
0.533444
0.530030
0.685841
0.547927
0.544804
0.494920
0.500368
0.598863
0.476047
0.468060
0.478388
0.449388
0.392727
0.406565
0.352816
0.319593
0.368808
0.311072
0.332798
0.233948
0.355230
0.240669
0.156167
0.220740
0.159725
0.152105
0.158636
0.097256
0.123804
0.080219
0.078822
0.113026
0.101679
0.071662
0.049758
0.043272
0.071194
0.045033
0.080250
0.085289
0.060314
0.065750
0.114056
-0.028843
-0.026081
0.054334
0.029440
0.024063
0.093501
0.025932
0.034808
0.038250
0.037305
-0.008485
0.077685
0.041857
0.012097
0.088132
0.062127
-0.046687
0.030530
0.002417
0.019981
-0.056081
0.046431
-0.012132
0.006195
-0.010572
0.000202
-0.022371
0.021784
0.030617
0.014481
0.031418
-0.019971
-0.043204
0.142551
0.005368
0.081547
0.091479
-0.038859
0.031769
-0.051092
0.044279
0.032443
0.096067
0.113532
0.055757
0.178943
0.120565
-0.005931
0.035040
0.101561
0.059416
-0.007102
0.076809
0.093603
0.149686
0.204137
0.115705
0.166459
0.210457
0.191561
0.209432
0.227422
0.173143
0.190480
0.126368
0.152134
0.242554
0.167961
0.229496
0.100436
0.203751
0.092299
0.096673
0.059929
0.114391
0.023399
0.109209
0.043299
0.060480
0.035594
0.056238
0.070615
-0.011744
-0.000604
0.097093
0.003918
0.010344
0.031048
0.020287
-0.019365
0.035745
-0.001795
-0.079147
0.041333
0.065301
0.164043
0.468317
0.656710
1.055876
1.299965
1.419971
1.204459
0.904858
0.554988
0.235732
-0.101628
-0.192197
-0.232818
-0.209218
-0.112476
-0.050012
0.064244
-0.039704
0.059197
-0.018606
0.046020
0.122370
0.093668
0.070554
0.046995
0.093719
0.105959
0.179425
0.154281
0.229933
0.170872
0.180493
0.170533
0.205552
0.270088
0.283603
0.253528
0.294433
0.323154
0.281868
0.383715
0.340799
0.357860
0.343866
0.406944
0.402741
0.418528
0.458664
0.472646
0.445673
0.449965
0.497635
0.461085
0.496219
0.435614
0.521025
0.425523
0.480813
0.441773
0.413696
0.451765
0.352768
0.416270
0.334725
0.307957
0.235534
0.230441
0.184153
0.201465
0.282009
0.226658
0.198319
0.197877
0.100179
0.109876
0.124847
0.079886
-0.004708
0.137285
0.048506
0.088507
0.031162
0.054329
0.045261
-0.015956
0.075611
-0.001775
0.034035
-0.035713
0.022543
-0.044750
-0.010287
-0.072594
-0.082563
-0.056858
-0.040178
0.005087
0.011248
-0.063276
-0.074070
-0.010694
-0.046648
-0.040790
-0.022583
-0.108850
-0.082568
-0.010462
-0.077887
-0.104015
-0.098055
-0.011322
-0.025923
-0.115536
-0.061806
-0.051908
-0.079531
-0.045479
0.001575
-0.027714
-0.062736
-0.090865
-0.007987
0.001767
-0.051590
-0.030446
-0.078831
-0.001165
-0.049885
-0.038759
-0.027266
-0.075461
-0.014231
0.007540
0.068684
0.005936
0.000506
-0.079190
0.045697
-0.053791
0.028938
-0.050879
-0.042001
0.036172
0.053764
0.013123
0.042676
0.017562
0.134990
0.033209
0.060365
0.135853
0.168589
0.126120
0.120735
0.123753
0.078770
0.128800
0.061950
0.129949
0.204076
0.058522
0.151886
0.106494
0.134895
0.008756
0.075472
0.097517
0.131506
0.056662
0.016621
0.008672
0.054129
0.115363
-0.072022
0.002926
-0.008772
-0.020871
-0.009529
-0.017212
-0.017194
-0.028829
-0.074360
-0.031388
0.057344
-0.072036
-0.096736
-0.050713
-0.106206
-0.017234
0.068450
0.143537
0.529136
0.774500
0.983758
1.258933
1.362023
1.194261
0.838768
0.418052
0.126820
-0.055455
-0.283812
-0.243740
-0.226262
-0.117227
-0.014335
-0.026218
-0.021223
-0.032280
-0.020407
0.059868
-0.057534
0.021944
-0.003184
0.087879
0.167453
0.073863
0.128593
0.082339
0.211521
0.160191
0.152941
0.216099
0.209981
0.151855
0.275368
0.274158
0.342325
0.270675
0.349672
0.339174
0.340058
0.391588
0.425756
0.425115
0.499729
0.411014
0.417734
0.442792
0.428776
0.502228
0.441611
0.490043
0.507843
0.519657
0.513441
0.512681
0.452000
0.417125
0.467694
0.426177
0.439415
0.404102
0.372102
0.394761
0.355761
0.307965
0.322215
0.299880
0.343657
0.287953
0.233309
0.309303
0.173734
0.271109
0.168545
0.097128
0.089589
0.177774
0.084681
0.127630
0.159095
0.054431
0.114711
0.026195
0.025609
0.111632
0.080935
0.006539
0.018185
0.012499
0.060374
0.057924
0.064752
0.012902
0.048703
0.051503
0.031835
-0.007099
-0.002347
0.020851
0.026844
0.026684
0.024622
0.090335
0.001388
-0.015935
-0.008511
-0.004316
0.060929
0.022118
0.050537
-0.017664
-0.014960
0.040150
0.047458
-0.035839
-0.024402
0.031016
0.034247
0.037774
0.065935
0.053998
0.084448
0.025547
0.108743
0.026977
0.024934
0.080770
0.017678
0.097856
-0.072059
0.057624
0.123133
0.037173
0.096201
0.054258
0.127887
0.078472
0.013660
0.100019
0.147371
0.122119
0.103667
0.045633
0.123634
0.152703
0.198379
0.125781
0.233756
0.223671
0.166972
0.235093
0.221918
0.214603
0.299079
0.245990
0.189206
0.236226
0.260204
0.205430
0.223729
0.186072
0.236810
0.131235
0.112918
0.160342
0.186660
0.143354
0.175741
0.110131
0.162626
0.107684
0.131420
0.097977
-0.012908
0.020364
0.043151
0.126320
0.115766
0.029216
0.124769
0.068477
0.099466
0.043553
0.111240
0.022252
0.060456
0.116930
0.204397
0.231144
0.602274
0.894476
1.235800
1.355919
1.399102
1.277240
0.858585
0.506482
0.268530
-0.080604
-0.089245
-0.056069
-0.114180
0.101138
0.064401
0.119931
0.084103
0.217704
0.159639
0.060747
0.131065
0.153437
0.123415
0.298898
0.168632
0.230185
0.256136
0.182174
0.217501
0.196599
0.272841
0.327429
0.314062
0.350459
0.336157
0.479837
0.420012
0.361543
0.480977
0.432092
0.442232
0.488274
0.518270
0.463950
0.511605
0.601179
0.514954
0.586733
0.594653
0.592345
0.539784
0.638511
0.540876
0.638227
0.568870
0.530349
0.583218
0.572679
0.564676
0.381375
0.478457
0.535544
0.479979
0.488066
0.402990
0.499361
0.353836
0.422639
0.364748
0.292665
0.245624
0.348471
0.307493
0.200331
0.271766
0.231994
0.123843
0.235440
0.164703
0.185586
0.210333
0.220215
0.158634
0.119080
0.175992
0.114733
0.134515
0.158978
0.152225
0.124363
0.138147
0.134706
0.081220
0.106919
0.040381
0.148594
0.172739
0.093037
0.158611
0.068977
0.108187
0.011715
0.112765
0.059532
0.130262
0.114622
0.145347
0.071054
0.113836
0.107664
0.057597
0.031337
0.089787
0.100641
0.125785
0.116496
0.009296
0.060065
0.099874
0.109373
-0.007582
0.099451
0.124572
0.148144
0.043735
0.101721
0.046770
0.092716
0.108954
0.070481
0.105917
0.068798
0.130004
0.112121
0.074755
0.081435
0.153188
0.091774
0.132851
0.167491
0.177378
0.157005
0.115566
0.176109
0.199512
0.232257
0.191359
0.124774
0.281426
0.241040
0.233929
0.185143
0.263213
0.246940
0.302542
0.258820
0.230075
0.207400
0.181208
0.273107
0.280000
0.188277
0.234687
0.248677
0.158502
0.224789
0.296975
0.168693
0.244179
0.145351
0.105242
0.136374
0.051693
0.026332
0.134129
0.150427
0.042398
0.158663
0.071313
0.134742
0.004589
0.111307
0.099575
0.079585
0.038786
0.106664
0.158143
0.063754
0.222285
0.331165
0.624322
1.041531
1.240751
1.500000
1.467154
1.173016
0.850194
0.568353
0.106276
-0.022551
-0.117230
-0.094410
-0.065149
0.018338
-0.010235
0.073001
0.118148
0.089696
0.083120
0.157596
0.159071
0.089242
0.145728
0.181110
0.232841
0.105630
0.228632
0.203642
0.209167
0.224226
0.224148
0.282632
0.288570
0.323866
0.401202
0.342274
0.319782
0.422952
0.431191
0.395372
0.447862
0.473064
0.396872
0.520298
0.478527
0.581450
0.533579
0.523483
0.563378
0.574820
0.535338
0.528561
0.581018
0.572151
0.608274
0.523505
0.512390
0.413121
0.477126
0.460646
0.432009
0.501120
0.404626
0.409485
0.389205
0.361045
0.347479
0.352703
0.284541
0.258562
0.297891
0.197386
0.200578
0.197886
0.203319
0.255422
0.195020
0.146958
0.106971
0.062666
0.143541
-0.028000
0.082462
0.088004
0.092800
0.084732
0.112094
0.095930
0.089402
0.039478
0.028714
-0.032930
-0.062308
0.037548
0.020072
0.046756
-0.020048
-0.008957
0.000449
0.011506
-0.044322
-0.031094
0.012973
0.098219
0.012569
0.032347
-0.022169
-0.030859
-0.050968
-0.012822
0.045786
0.091383
-0.067257
0.059647
-0.015319
-0.104757
-0.063671
0.009804
0.030316
-0.050420
0.136795
0.043187
0.071638
-0.044869
0.007514
0.021994
0.078493
0.020227
0.032385
-0.022319
0.058734
0.063706
0.002159
0.028056
-0.054098
-0.047662
-0.006627
0.043353
0.044613
0.052842
0.009573
0.037506
0.051150
0.087621
0.106365
0.168988
0.114308
0.148096
0.139281
0.158032
0.142980
0.211100
0.169856
0.081073
0.128419
0.148846
0.178548
0.164154
0.177018
0.089753
0.212145
0.144988
0.101760
0.062559
0.060739
0.185081
0.027165
0.091110
0.053346
0.024339
0.087950
0.069205
0.014779
0.088196
-0.071897
-0.000357
-0.012232
-0.023833
-0.014861
0.038103
-0.008975
-0.019183
-0.037193
-0.015558
0.020103
0.032997
0.005517
0.068366
0.130248
0.265590
0.653179
0.898733
1.113359
1.291955
1.212256
1.129434
0.660398
0.394738
-0.031662
-0.172032
-0.200950
-0.215609
-0.158345
-0.039365
-0.127355
-0.034025
-0.000831
0.051971
-0.014389
0.022503
0.012757
0.041391
-0.006154
0.147282
-0.051241
0.038672
0.023343
0.091309
0.147432
0.177378
0.119682
0.203546
0.183954
0.204770
0.205125
0.281778
0.298558
0.236241
0.323253
0.274321
0.408945
0.364665
0.422575
0.421047
0.375535
0.453857
0.408293
0.443757
0.433556
0.455895
0.486408
0.541801
0.473686
0.488194
0.418470
0.420536
0.477392
0.422565
0.429919
0.392333
0.361928
0.332267
0.323632
0.244571
0.213983
0.200632
0.189851
0.269447
0.205117
0.166567
0.089323
0.192657
0.064784
0.118343
0.051833
0.030368
0.024739
0.069390
0.090735
0.025142
-0.025475
0.069625
-0.018343
-0.113710
-0.089399
-0.085267
-0.017421
-0.042871
0.020368
0.035760
-0.033912
-0.037417
-0.054703
-0.114226
-0.024784
-0.031921
-0.045241
0.001278
-0.098604
-0.111153
-0.063590
-0.129980
-0.054702
-0.181287
-0.076491
-0.095733
-0.060758
-0.117917
-0.029643
0.011511
-0.106851
-0.096447
-0.037968
-0.083848
-0.092365
-0.031188
-0.051982
-0.076414
-0.031401
-0.115514
-0.078054
-0.076675
0.003521
-0.073560
-0.089103
-0.042744
-0.046474
-0.094543
-0.055779
-0.081589
-0.174617
-0.127855
-0.058567
-0.109023
0.001039
-0.038296
-0.067561
0.001608
-0.035163
-0.041418
0.037213
0.012823
0.077351
0.011779
0.001094
0.044018
-0.030463
0.149925
0.051249
0.117836
0.107347
0.076290
0.107590
0.086518
0.158724
0.100986
0.103893
0.107089
0.042675
0.166846
0.044306
0.067733
0.081562
0.002387
-0.011723
-0.035193
0.091092
0.021596
-0.001922
-0.029695
0.007415
-0.102499
0.061379
-0.015564
-0.131633
-0.005315
0.008070
-0.144807
-0.039618
-0.073083
-0.057059
-0.124855
-0.008670
-0.127975
-0.009808
-0.044583
-0.088088
0.022294
0.058512
0.279839
0.567782
0.882838
1.114764
1.271074
1.115129
1.013380
0.612466
0.334640
0.012013
-0.171342
-0.293435
-0.207210
-0.222819
-0.100962
-0.086369
-0.000430
-0.029935
-0.060224
-0.074554
0.033313
0.000304
0.019328
0.074045
0.030739
0.030036
0.056294
0.027324
0.096694
0.105424
0.092435
0.148522
0.164518
0.119480
0.094189
0.251457
0.212911
0.264355
0.251131
0.305871
0.290699
0.288519
0.379828
0.387141
0.368494
0.424702
0.362221
0.378471
0.426623
0.506025
0.454208
0.524095
0.419238
0.454669
0.448573
0.419567
0.479063
0.457168
0.462625
0.381973
0.354714
0.313138
0.339392
0.273214
0.229412
0.254829
0.267930
0.326189
0.245219
0.235685
0.166149
0.171060
0.139690
0.082480
0.130949
0.103154
0.037841
0.028248
0.021657
0.141644
0.038870
0.062934
-0.006906
-0.007040
-0.026274
-0.018335
0.027948
0.036650
0.036369
-0.030943
0.039136
-0.032766
-0.034789
-0.059995
-0.018660
0.025917
-0.039455
-0.017199
-0.063132
-0.016902
-0.026854
-0.016151
-0.025518
-0.024533
-0.010265
-0.019220
-0.044731
-0.086910
-0.022254
-0.042404
0.016964
-0.017915
-0.002878
0.053729
0.004395
0.004984
0.050001
-0.019504
-0.061125
0.057840
0.004845
0.027651
-0.041659
-0.075449
0.115641
-0.064381
0.019465
0.063324
-0.014595
-0.004186
-0.019645
0.006963
-0.057201
-0.009613
-0.044472
-0.012025
0.072912
0.030718
0.106636
0.047517
0.011143
0.171106
0.139418
0.082083
0.048047
0.079550
0.034967
0.136967
0.121946
0.196295
0.194979
0.184521
0.090086
0.149258
0.238680
0.046723
0.223622
0.171800
0.187709
0.180563
0.224017
0.143830
0.082467
0.156183
0.017240
0.095507
0.004534
0.088914
0.133121
0.094040
-0.003690
0.083574
0.039546
0.070361
-0.023083
0.021183
0.066961
-0.019617
0.013895
0.098032
0.112647
0.031906
-0.012750
0.060695
0.004098
0.067868
0.038096
0.062437
0.075513
0.196286
0.394066
0.692452
0.943839
1.258737
1.312207
1.246740
1.037464
0.731358
0.302224
-0.025404
-0.118121
-0.146993
-0.178732
-0.094228
-0.010987
0.077693
-0.019413
0.010559
0.071697
0.095519
0.078788
0.079422
0.149908
0.149374
0.021904
0.169733
0.120623
0.185855
0.218504
0.185223
0.271870
0.178941
0.211254
0.291700
0.310852
0.321388
0.383658
0.392727
0.381172
0.381077
0.390678
0.460880
0.489397
0.499609
0.472193
0.513242
0.560657
0.545914
0.623364
0.567902
0.598784
0.566861
0.581548
0.502635
0.508084
0.481276
0.477213
0.461928
0.500950
0.476726
0.438496
0.376661
0.489391
0.345236
0.373206
0.346541
0.269134
0.300483
0.321910
0.280892
0.339018
0.245695
0.189728
0.207697
0.206327
0.190172
0.245115
0.154076
0.098499
0.143175
0.122562
0.140870
0.075861
0.019899
0.068606
0.058113
0.051250
0.129766
0.090287
0.048872
0.024393
0.059927
0.095081
0.050095
0.080365
0.074848
0.012298
0.086428
0.097852
0.043140
0.079172
0.105769
0.083859
0.058351
0.026803
0.067934
0.033640
0.062383
-0.013533
0.066300
0.048866
0.076210
0.005419
0.048671
0.009315
0.088823
-0.011662
0.003136
0.013674
0.133813
0.038898
0.001075
0.020829
-0.014460
0.081156
0.095252
0.051795
-0.050615
-0.007262
-0.011550
0.047990
-0.018099
0.067854
0.016796
0.094250
0.104965
0.104789
0.076053
0.169529
0.103703
0.053703
0.097560
0.062370
0.116993
0.156024
0.173160
0.119106
0.173596
0.120203
0.185931
0.235856
0.198989
0.218009
0.184064
0.207868
0.170116
0.222732
0.229922
0.135815
0.195601
0.199488
0.192906
0.174083
0.198246
0.161322
0.136374
0.122349
0.140134
0.095144
0.200875
0.071097
0.076727
0.168183
0.081611
0.070167
0.088662
0.080113
0.083879
0.009830
0.046540
0.013751
-0.037360
0.021877
-0.001696
0.088099
0.027231
0.010341
0.065939
0.109272
0.300877
0.459819
0.755592
1.046635
1.346733
1.327942
1.266291
0.992710
0.545282
0.285617
-0.033327
-0.177216
-0.218464
-0.118423
-0.040364
-0.022350
0.034826
0.033275
0.086226
0.114599
0.054904
0.107914
0.161079
0.052782
0.110911
0.108085
0.114709
0.125972
0.183844
0.170122
0.199112
0.102945
0.166036
0.218890
0.288431
0.342651
0.307918
0.367860
0.300424
0.339495
0.343301
0.333845
0.351610
0.502181
0.489351
0.503323
0.577883
0.466449
0.541727
0.566517
0.536080
0.571869
0.452347
0.552315
0.493394
0.504120
0.486624
0.534872
0.442688
0.431015
0.424908
0.382012
0.372166
0.361189
0.407502
0.357232
0.366050
0.257274
0.374953
0.283241
0.244501
0.198193
0.231909
0.218037
0.228312
0.127945
0.215251
0.176101
0.115482
0.069934
0.042983
0.179295
-0.033051
0.033142
0.021024
0.034635
-0.043464
0.024954
-0.060819
0.005436
0.020030
0.066892
-0.024872
0.072706
-0.073310
-0.063730
0.013415
-0.028575
0.038791
-0.025230
-0.040894
-0.003451
-0.067115
-0.002326
-0.041529
-0.051089
0.038867
0.014677
-0.019935
-0.066519
-0.005898
-0.085975
0.023775
0.018711
-0.046418
0.020953
-0.038961
-0.027860
-0.040956
-0.034088
-0.032756
-0.035660
-0.017132
-0.046229
-0.001857
0.073263
-0.050163
0.015374
-0.035275
-0.027383
0.024217
-0.064497
-0.030023
-0.029074
-0.039312
-0.026307
0.013111
-0.013964
-0.003944
-0.032954
-0.003322
0.024514
0.063571
0.007720
0.009918
0.074947
0.074494
0.081561
0.121319
0.081144
0.117138
0.140823
0.014920
-0.010390
0.105989
0.081606
0.108521
0.085674
0.110151
0.127478
0.056477
0.218275
0.082740
0.102952
0.038588
0.000932
-0.026613
0.030686
0.089377
0.038656
0.029173
0.033693
0.027355
0.002969
-0.057848
-0.107571
-0.060581
-0.048105
-0.073349
0.053619
-0.064839
-0.068380
-0.045317
-0.008492
-0.053988
-0.003745
-0.012951
-0.136856
-0.013597
0.019932
0.068485
0.358898
0.684305
1.033482
1.254264
1.313629
1.095415
0.876915
0.466072
0.105636
-0.220086
-0.238880
-0.266219
-0.217132
-0.157928
-0.129691
0.000626
-0.108165
-0.115720
0.000670
-0.086996
0.007362
-0.113255
0.022044
-0.010818
0.007027
0.039128
-0.023155
0.127922
0.058841
0.121228
0.102958
0.148022
0.138193
0.193737
0.204060
0.244777
0.195181
0.262728
0.243886
0.287614
0.306339
0.391656
0.474881
0.254674
0.334880
0.364737
0.429717
0.388321
0.432599
0.422931
0.359232
0.379295
0.443887
0.348549
0.331152
0.401217
0.414240
0.381478
0.289829
0.362334
0.144539
0.334737
0.312729
0.325110
0.248733
0.307402
0.151910
0.210979
0.211302
0.210426
0.124929
0.121837
0.055561
0.065049
0.104400
0.048321
0.035203
-0.028438
-0.044931
0.013018
0.036920
-0.096046
-0.070660
-0.017703
-0.062019
0.008460
-0.048148
-0.038811
-0.081317
-0.015542
-0.061492
-0.120347
-0.161136
-0.056750
-0.069411
-0.106684
-0.049456
-0.093564
-0.084123
-0.104321
-0.071788
-0.071596
-0.076703
-0.081168
-0.056458
-0.109650
-0.041494
-0.151074
-0.100057
-0.038207
-0.070054
-0.075423
-0.121909
-0.125722
0.006182
-0.064517
-0.122462
-0.098444
-0.049984
-0.071887
-0.126984
-0.106566
-0.091938
-0.103692
-0.146629
-0.057476
-0.080607
-0.141531
-0.113915
-0.086464
-0.125988
-0.101430
-0.099685
-0.055324
0.021408
-0.101271
-0.067359
-0.124499
-0.155387
-0.017936
-0.056512
-0.069595
-0.103627
0.045976
0.058138
0.003833
0.038924
0.023128
0.069405
0.032237
0.025611
0.048149
0.013660
0.045759
0.145222
0.069812
0.067006
0.178291
0.064427
0.134302
0.002997
0.144355
0.103375
0.082759
0.028579
0.115413
-0.043389
-0.074440
0.015272
-0.008162
0.045460
-0.015114
-0.007218
-0.018381
-0.078995
-0.084301
-0.050168
-0.074194
-0.120676
-0.193902
-0.064254
-0.090040
-0.158932
0.017172
-0.147907
-0.069714
-0.098949
-0.123747
0.075273
0.151836
0.438362
0.773234
1.013057
1.308056
1.341060
1.134485
0.779458
0.475934
0.160094
-0.112802
-0.235553
-0.304143
-0.193230
-0.254248
-0.100654
-0.042627
-0.058842
-0.016832
-0.051123
-0.018646
-0.018593
-0.069822
-0.046400
0.069419
0.002703
0.001617
0.001279
0.120724
0.052253
0.145274
0.134602
0.099624
0.160906
0.165233
0.162104
0.266089
0.211976
0.248265
0.332786
0.260597
0.256344
0.359884
0.410312
0.420409
0.399213
0.381611
0.451963
0.476834
0.509999
0.460465
0.443491
0.419634
0.498200
0.527477
0.394701
0.445430
0.455786
0.407237
0.382991
0.293804
0.350193
0.267859
0.343976
0.254930
0.351836
0.308247
0.245160
0.309856
0.171525
0.288110
0.193221
0.182720
0.172366
0.170522
0.046415
0.146882
0.069542
0.119358
0.060405
0.146348
0.018620
0.094991
0.059275
-0.032220
0.056289
0.028007
-0.058749
0.070679
0.002198
-0.013109
-0.038556
0.094412
0.036118
0.012800
-0.071539
0.011288
0.045954
-0.030265
-0.079791
-0.005449
-0.018812
-0.092139
-0.041274
-0.054801
0.022953
0.021845
-0.035996
-0.073634
0.085202
-0.018502
-0.013727
0.012336
-0.038614
-0.058210
-0.071482
-0.027378
-0.002160
-0.038315
0.034397
-0.010430
0.038609
0.021111
0.029911
-0.000282
-0.008186
-0.034459
-0.091137
0.058403
0.006057
-0.027179
-0.005844
0.034572
-0.003312
0.086548
0.049987
0.032847
-0.002285
0.097088
0.011490
0.005880
0.017830
0.069826
0.113296
0.113851
0.135673
0.110649
0.138088
0.125336
0.197969
0.203456
0.137204
0.196196
0.204584
0.160596
0.230512
0.207838
0.168867
0.175934
0.217045
0.235479
0.147739
0.164178
0.194247
0.198336
0.158519
0.153800
0.082157
0.059688
0.069219
0.110562
0.038964
0.027919
0.007726
0.040543
0.063871
0.016857
0.026404
0.026808
-0.007723
-0.025223
0.042299
0.064986
0.012336
0.036807
0.029789
0.016130
0.004847
0.148321
0.109191
0.434580
0.605077
0.854666
1.168861
1.292526
1.277758
1.167082
0.900708
0.518744
0.228102
-0.101716
-0.144233
-0.148978
-0.106921
-0.012414
-0.028523
0.006289
0.003181
0.109091
0.012695
0.080838
0.140217
0.059188
0.162635
0.091290
0.143931
0.071920
0.174990
0.190426
0.181508
0.202270
0.194271
0.319237
0.286476
0.250278
0.298414
0.331288
0.374017
0.386964
0.422779
0.473091
0.497876
0.477326
0.491772
0.471287
0.578027
0.536758
0.501047
0.589378
0.507635
0.472885
0.524927
0.588383
0.570781
0.589483
0.560234
0.461860
0.521921
0.558839
0.493775
0.528171
0.515132
0.468020
0.384128
0.418618
0.541291
0.412577
0.339440
0.325303
0.245542
0.307396
0.420743
0.298439
0.220582
0.262234
0.192072
0.274539
0.160845
0.095382
0.174303
0.217981
0.186047
0.122351
0.166283
0.109302
0.073500
0.114477
0.032812
0.114561
0.031444
0.037552
0.080606
0.063098
0.052901
0.093734
0.085150
0.034784
0.090960
0.057996
0.068856
0.072374
0.056853
0.076287
0.075136
0.104925
-0.006413
0.048884
0.028927
0.076222
0.026767
0.098598
0.094403
0.013300
0.067012
0.103496
0.057534
0.086655
0.050110
0.063382
0.040352
0.044897
0.028364
0.060038
0.071048
0.150212
0.065092
0.075846
0.034415
0.077870
0.004252
0.072372
0.098219
0.089651
0.167408
0.152782
0.099081
0.085119
0.124434
0.108414
0.027108
0.182027
0.043621
0.079454
0.203320
0.186739
0.055401
0.120648
0.200817
0.217838
0.174503
