-0.009533
0.020459
-0.071652
-0.009932
-0.004007
0.025924
0.041034
0.043130
-0.049681
-0.000133
0.038384
-0.032682
-0.034940
0.041233
-0.056920
0.012515
0.059370
0.022449
0.001382
0.013691
0.060179
-0.030520
0.033036
0.084021
0.012436
0.114438
0.043279
0.012194
0.079199
-0.033533
0.110477
0.167250
0.117187
0.112140
0.063262
0.078913
0.106883
0.131799
0.167160
0.140138
0.150426
0.148447
0.207280
0.206271
0.206200
0.240842
0.196506
0.224176
0.199449
0.235455
0.164886
0.187671
0.240476
0.056507
0.152056
0.088730
0.143141
0.218126
0.073004
0.173455
0.098350
0.088809
0.132323
0.074314
0.006923
0.058726
0.065796
-0.040007
0.056654
0.088089
0.073728
0.150542
0.105239
0.084690
0.103540
0.067955
0.016044
0.047245
0.024412
0.038458
0.142852
0.091221
0.072495
0.022362
-0.025607
0.035634
0.008462
0.009352
0.150179
0.212137
0.503007
0.866496
1.173092
1.347480
1.463351
1.315236
1.139700
0.720614
0.426752
0.123905
-0.127444
-0.240113
-0.254534
-0.194969
-0.127267
-0.036662
0.013391
0.037889
0.050828
0.054220
0.097465
0.082267
0.109761
0.080471
0.170340
0.132967
0.019948
0.078479
0.065422
0.103932
0.080167
0.085549
0.079889
0.200483
0.155754
0.231211
0.177697
0.244452
0.212378
0.287476
0.252205
0.189262
0.287242
0.333928
0.262905
0.353310
0.332680
0.416941
0.376790
0.465260
0.430396
0.470260
0.453225
0.405929
0.526756
0.580348
0.518050
0.499574
0.613615
0.586960
0.621742
0.540574
0.649636
0.609700
0.539014
0.535696
0.550682
0.548785
0.617811
0.543247
0.553541
0.522638
0.501673
0.528654
0.449313
0.460974
0.382975
0.361627
0.354941
0.410990
0.367196
0.303061
0.303978
0.337402
0.296334
0.180619
0.176953
0.245130
0.160769
0.245514
0.232085
0.203300
0.146792
0.114766
0.199931
0.155643
0.106736
0.089292
0.133234
0.168710
0.124083
0.099847
0.142783
0.021774
0.125531
0.101159
0.065896
0.044960
0.079710
0.125505
0.104459
0.095185
0.101120
0.136644
0.077527
0.081068
0.171795
0.109390
0.075273
-0.003795
0.116783
0.119874
0.020871
0.071098
0.077291
0.077913
0.139226
0.089848
0.051911
0.134866
0.015125
0.137355
0.066529
0.035981
0.099949
0.131606
0.003269
0.083075
0.060962
0.056045
0.088435
0.060683
0.128946
0.034629
0.026699
0.102710
0.139530
0.031215
-0.014328
0.114687
0.111484
0.108248
0.035879
0.091377
0.019335
0.121375
0.143060
0.130843
0.025258
0.088520
0.112039
0.089742
0.067259
0.049812
0.047331
0.092377
0.091406
0.014585
0.068380
0.127037
0.153995
0.154345
0.156066
0.138700
0.157610
0.139430
0.119249
0.094922
0.162209
0.089792
0.150427
0.193170
0.192468
0.201042
0.220447
0.166718
0.262561
0.239149
0.248043
0.243704
0.226796
0.229981
0.174289
0.266172
0.282263
0.213547
0.272012
0.215795
0.146088
0.210931
0.172380
0.252223
0.172917
0.122430
0.104733
0.106639
0.085875
0.142822
0.090121
0.098293
0.065441
0.043338
0.039747
0.015638
0.079599
0.067038
-0.033808
0.118967
0.082392
0.038514
0.047185
0.082769
0.100943
0.130107
0.134750
0.033592
0.085483
0.102282
0.074273
0.022641
-0.062533
0.020112
0.077140
0.125846
0.383838
0.718870
1.121874
1.286369
1.496124
1.455064
1.140815
0.819593
0.454194
0.232675
-0.084870
-0.218480
-0.233555
-0.207147
-0.154662
-0.043855
-0.066589
0.003345
0.032921
-0.024679
0.109221
0.033151
0.029167
0.160280
0.103365
0.086448
0.089409
0.124697
0.040642
0.066129
0.133865
0.099255
0.099016
0.146173
0.107761
-0.009076
0.188544
0.223229
0.191578
0.171328
0.191092
0.230256
0.192047
0.199109
0.256354
0.318064
0.222131
0.346449
0.356995
0.316958
0.436788
0.423673
0.416728
0.390338
0.417742
0.369993
0.546913
0.502840
0.477214
0.550596
0.539060
0.594697
0.477672
0.562910
0.582228
0.475279
0.455397
0.450847
0.529142
0.483598
0.484280
0.498278
0.459193
0.296462
0.367766
0.403124
0.394441
0.363082
0.270056
0.311594
0.252766
0.271403
0.199303
0.185123
0.192081
0.163010
0.174816
0.154400
0.083119
0.196182
0.149240
0.113107
0.050141
0.115041
0.114223
0.087042
0.022523
0.038033
0.032674
0.098570
0.068393
-0.025015
0.093063
0.100102
-0.010215
0.061764
0.004751
0.012798
-0.009625
-0.010956
-0.021405
0.010346
-0.065831
-0.018153
-0.038072
-0.063453
-0.054212
-0.052136
0.003867
-0.118555
-0.045756
-0.053448
0.102780
-0.036226
-0.023389
0.029040
-0.070335
-0.011089
-0.052902
0.005342
-0.052131
0.036307
-0.118064
0.010268
-0.048430
0.028859
0.004415
-0.011829
-0.088250
0.070513
-0.049611
-0.037291
-0.078753
-0.093072
-0.087626
-0.038318
0.033801
-0.079214
0.050682
-0.021293
-0.073393
-0.019744
0.028438
-0.040190
-0.050526
-0.043773
0.013663
-0.027417
0.023079
0.017890
-0.022403
-0.084182
0.016286
-0.056396
-0.040925
-0.017478
0.036985
0.012977
-0.010164
0.017232
0.008697
0.047978
-0.068616
-0.009633
0.010894
0.021686
0.082552
0.045195
0.038856
-0.008779
0.035171
0.006510
0.086018
0.069912
0.119730
0.117776
0.062766
0.171294
0.165882
0.138879
0.230926
0.084492
0.217140
0.145553
0.034631
0.121954
0.183608
0.080163
0.127141
0.105062
0.032914
0.052338
0.083782
0.083584
0.059173
-0.002883
-0.066046
0.046357
-0.004335
-0.021758
-0.049285
-0.049165
0.042227
-0.033392
0.034832
-0.005520
-0.083690
-0.038859
-0.122381
-0.033330
0.053521
-0.102048
-0.056134
-0.000332
-0.069998
-0.006801
-0.026620
-0.112708
0.044221
-0.065899
-0.123733
-0.196249
0.003298
0.050696
0.186972
0.479344
0.850629
1.228222
1.357030
1.325485
1.134338
0.940926
0.569133
0.208151
-0.119017
-0.287190
-0.358013
-0.305022
-0.268617
-0.203545
-0.075460
-0.051016
-0.081093
-0.109159
-0.016651
-0.049483
-0.045135
-0.015320
0.026358
-0.100131
0.017066
-0.114713
-0.039943
0.008000
0.012269
-0.060628
0.051278
0.073226
0.002481
0.047346
0.111984
0.084391
0.089198
0.072688
0.135401
0.216616
0.185499
0.160666
0.223292
0.222391
0.126690
0.241554
0.282823
0.336154
0.292814
0.380372
0.350373
0.307445
0.388949
0.383701
0.484069
0.349510
0.406495
0.477118
0.515966
0.483224
0.471119
0.480488
0.496211
0.477276
0.426706
0.478095
0.517128
0.482810
0.468710
0.349690
0.456931
0.318740
0.389095
0.364105
0.381858
0.358092
0.342852
0.209149
0.316791
0.220591
0.294440
0.234286
0.070015
0.144933
0.158347
0.161328
0.116967
0.038270
0.077773
0.087532
0.109745
0.000919
0.093949
0.085127
0.024913
0.092937
0.007549
0.043071
-0.024338
0.076324
-0.043111
0.035590
-0.056283
-0.068627
0.025890
-0.034874
-0.044824
-0.004032
-0.011039
-0.069160
-0.010279
-0.002676
0.033352
0.039207
0.050020
-0.055980
0.012983
0.030195
-0.054810
0.028097
-0.044858
-0.027768
-0.011014
0.017033
-0.044289
-0.121541
0.005888
0.066992
0.061123
-0.091250
0.011370
-0.078952
-0.030635
0.031109
-0.053477
-0.015206
0.011609
-0.024347
0.015054
0.005230
0.014607
-0.053265
0.064483
-0.006935
0.004196
-0.100271
-0.025583
0.086588
-0.000493
-0.016643
0.022506
-0.037980
-0.047466
0.016225
-0.019854
0.019056
0.012887
-0.005187
-0.080176
-0.002514
0.010074
-0.047185
0.111613
-0.006125
0.002586
0.053626
0.089105
0.010995
0.026107
0.039576
0.025996
0.011280
0.131702
0.074285
0.143649
0.053576
0.055857
0.065849
0.150757
0.147293
0.132092
0.157362
0.150844
0.240439
0.148066
0.219342
0.135258
0.173866
0.148321
0.183910
0.171465
0.225375
0.147221
0.249653
0.191353
0.139340
0.174537
0.132583
0.130076
0.172320
0.248937
0.177115
0.065622
0.100038
0.015643
0.105858
0.076168
0.073319
0.109232
0.045732
0.085309
-0.004650
0.069648
0.093441
0.116775
0.091295
0.007721
0.060420
-0.020995
0.079865
0.086765
0.018013
0.014630
0.009912
0.039784
-0.054725
0.089146
0.021767
-0.002259
-0.051005
-0.013231
0.102109
0.242477
0.473971
0.765983
1.237654
1.374672
1.371019
1.407500
1.120642
0.820723
0.395429
0.105838
0.002714
-0.227138
-0.247835
-0.225395
-0.100000
-0.005561
0.078943
0.077938
0.069847
0.011420
0.064392
0.022309
0.055891
0.082655
0.079420
0.090206
0.099395
0.086476
0.175192
0.136453
0.057034
0.168010
0.113834
0.102270
0.214785
0.190757
0.127623
0.088729
0.147986
0.206141
0.204838
0.268837
0.322903
0.265800
0.263657
0.398578
0.320550
0.415681
0.382423
0.449193
0.441621
0.382675
0.493516
0.517183
0.530076
0.521540
0.433026
0.543117
0.577194
0.622787
0.574689
0.609474
0.593616
0.619725
0.572358
0.562939
0.592632
0.576702
0.544219
0.568366
0.532393
0.539703
0.607009
0.569089
0.493391
0.424554
0.452846
0.486318
0.337892
0.339719
0.397427
0.305887
0.206344
0.194239
0.279980
0.319728
0.269392
0.249530
0.252372
0.234820
0.206615
0.190784
0.116979
0.101226
0.159700
0.133285
0.116817
0.133947
0.151681
0.141801
0.203605
0.167859
0.108973
0.102953
0.106677
0.048422
0.075320
0.053838
0.052860
0.156557
0.106158
0.070309
0.117175
0.042422
0.059564
0.029357
0.111103
0.106979
0.102564
0.108590
0.147584
0.132114
0.100216
0.050341
0.049365
0.135712
0.085393
0.045475
0.013275
0.139070
0.049912
0.073958
0.106072
0.067940
0.173818
0.125490
0.062558
0.049571
0.113191
0.119037
0.089278
0.088337
0.060184
0.092701
0.004803
0.012738
0.102523
0.150483
0.101900
0.040513
0.073984
0.168419
0.103873
0.107658
0.055455
0.187049
0.128235
0.058267
0.109615
0.038613
0.106668
0.128663
0.149130
0.083918
0.156349
0.113737
0.026215
0.124782
0.132914
0.042196
0.118241
0.155881
0.103709
0.101003
0.132873
0.168738
0.120661
0.159832
0.174216
0.121433
0.160710
0.236488
0.237658
0.180156
0.300811
0.261194
0.234824
0.177864
0.221436
0.222927
0.267380
0.229953
0.257916
0.173136
0.205976
0.271763
0.280888
0.262374
0.172284
0.130939
0.202550
0.221707
0.249098
0.168805
0.176295
0.154775
0.183848
0.177256
0.107981
0.135524
0.200154
0.099749
0.034165
0.060095
0.081514
0.156850
0.043611
0.019960
0.055442
0.010961
0.033008
0.064698
0.032030
0.115232
0.062623
0.114569
0.123494
0.132070
0.072973
0.168490
0.025509
0.009760
0.084998
0.179162
0.415404
0.787991
1.017976
1.302300
1.462960
1.413215
1.335083
0.885555
0.522378
0.342371
-0.020494
-0.204672
-0.256372
-0.223378
-0.071073
-0.062604
0.056759
0.100213
0.079058
0.082096
0.085462
0.129187
0.058328
0.026867
0.142522
0.183908
0.166379
0.071160
0.081074
0.064178
0.064434
0.143886
0.092299
0.122586
0.089806
0.155660
0.139300
0.190181
0.138599
0.213907
0.151704
0.181469
0.196150
0.195928
0.365152
0.393797
0.357313
0.343377
0.347021
0.396201
0.403665
0.414493
0.429782
0.546150
0.485203
0.484076
0.505715
0.568634
0.596005
0.597885
0.543916
0.539861
0.438695
0.586682
0.559806
0.530611
0.537602
0.514428
0.556311
0.546293
0.458070
0.491260
0.453893
0.364531
0.414795
0.398450
0.368670
0.333074
0.330491
0.302100
0.237856
0.219027
0.154807
0.182961
0.238052
0.208573
0.162611
0.223236
0.029890
0.169201
0.170951
0.113530
0.150970
0.180261
0.060045
0.149596
0.153864
0.039738
0.042165
0.046144
-0.029865
0.036205
0.034698
0.029750
0.061258
0.048889
0.058706
0.032577
0.005428
-0.028128
0.015696
-0.025703
0.054662
-0.058092
0.008754
-0.074732
0.075173
0.071830
-0.025105
-0.046150
0.045585
0.013957
-0.049427
0.038977
-0.003117
0.064415
0.020931
0.013685
0.041344
0.040340
0.035501
-0.017265
0.010732
-0.009338
-0.021053
-0.063025
-0.029529
-0.055704
-0.063069
-0.037162
-0.033354
-0.073734
0.016559
-0.045150
-0.034870
-0.016183
-0.120437
-0.015032
-0.000098
-0.019567
-0.076928
0.053342
-0.030648
0.016284
-0.040511
0.003656
0.017911
-0.036350
-0.019325
-0.044277
-0.000551
-0.029009
-0.083798
-0.030772
0.019150
-0.017324
0.025675
-0.076061
-0.012237
0.062598
0.007464
-0.011716
0.080616
0.024662
0.034688
0.013472
0.019232
-0.001978
0.008010
-0.011688
0.008501
0.073743
0.058074
0.113741
0.094066
0.096371
0.114072
0.146158
0.030550
0.046986
0.172147
0.125662
0.155568
0.132257
0.020865
0.162330
0.077698
0.139968
0.104055
0.140195
0.126223
0.061348
0.026260
0.068740
-0.001358
0.050129
0.095247
-0.057874
-0.003598
-0.070026
0.014844
-0.061662
0.003249
-0.022329
0.029098
-0.130327
-0.099623
0.020731
-0.050540
-0.057401
-0.041959
0.022577
0.006216
0.005549
0.029920
-0.046857
-0.135122
-0.145611
-0.072640
0.006162
-0.139345
-0.126594
-0.131071
-0.013540
0.223313
0.399321
0.728867
1.088965
1.358478
1.346381
1.303609
0.875533
0.518810
0.236914
-0.078229
-0.278328
-0.350802
-0.387822
-0.313682
-0.192492
-0.134742
-0.061383
-0.074420
-0.002469
-0.099882
-0.048666
-0.086178
-0.167461
-0.010939
-0.103638
-0.081835
-0.070518
-0.157150
-0.057688
-0.019502
0.002244
0.067039
-0.096170
-0.004702
0.007169
-0.038822
0.068251
0.029142
0.075619
0.122968
0.042942
0.144513
0.132697
0.185951
0.057631
0.134742
0.191469
0.232529
0.190294
0.273219
0.225152
0.276877
0.303485
0.304847
0.272285
0.449131
0.314180
0.411644
0.439566
0.388601
0.409030
0.447297
0.409160
0.461963
0.407967
0.387518
0.388272
0.420670
0.428037
0.430323
0.340422
0.336910
0.304851
0.376133
0.274454
0.265071
0.292361
0.182440
0.202400
0.226955
0.129431
0.103505
0.136876
0.109505
0.087841
0.127145
0.044045
0.100612
0.064849
0.098950
-0.034574
-0.010777
-0.024365
-0.038647
-0.035426
0.031737
0.004574
-0.001520
-0.040709
-0.025875
-0.031548
-0.035912
-0.051243
-0.057923
-0.042617
-0.078202
-0.034243
-0.112020
-0.106426
-0.058238
-0.050069
-0.071735
0.001146
-0.074097
-0.100965
-0.058432
-0.096535
-0.068417
-0.097053
-0.081950
-0.162577
-0.102199
-0.048333
-0.066921
-0.111833
-0.107516
-0.055420
-0.054255
0.055539
-0.161862
-0.152142
-0.075963
-0.071052
-0.089982
-0.039068
-0.100464
-0.027590
-0.077872
-0.058237
-0.089379
-0.127656
-0.062399
-0.022614
-0.129475
0.010570
-0.089510
-0.030809
-0.095346
-0.012241
-0.000221
-0.056176
-0.168193
-0.081910
-0.024502
-0.108172
0.022443
-0.068894
-0.073610
-0.065844
0.004859
-0.065917
-0.036337
-0.087572
0.006522
-0.086005
-0.006279
-0.107657
-0.053912
-0.052576
-0.059865
-0.043682
-0.064240
0.001011
-0.072806
0.016064
-0.021234
-0.045055
0.048305
0.018425
-0.040840
-0.019075
0.051786
-0.001634
0.016560
0.125224
0.082466
0.091762
0.117460
0.045582
0.103707
0.170058
0.094799
0.077766
0.126457
0.039846
0.150121
0.081874
0.167789
0.087339
0.048714
0.119503
0.039212
0.016104
0.060903
0.089478
0.037908
0.016192
-0.097611
0.042386
0.002959
0.005290
-0.048498
0.013222
-0.019838
-0.056984
-0.023273
-0.057198
-0.046397
-0.111752
0.017439
-0.023343
-0.023741
-0.014733
-0.080994
-0.051913
-0.019705
0.001465
-0.022402
-0.088167
-0.100228
-0.074197
-0.066270
-0.030467
0.161571
0.489782
0.727170
0.998906
1.291298
1.333693
1.318818
1.033415
0.755231
0.342667
0.080650
-0.196195
-0.398778
-0.371230
-0.240646
-0.231945
-0.125316
-0.104167
-0.014332
0.001025
-0.046051
0.018301
0.008390
-0.047778
0.058159
0.038855
-0.026666
-0.053371
0.001865
0.015331
0.083998
0.022750
-0.005349
0.050648
-0.019126
0.068749
0.116982
0.133167
0.172445
0.220282
0.105495
0.058327
0.113643
0.124260
0.183964
0.210566
0.286189
0.231890
0.299661
0.366935
0.300959
0.396453
0.342453
0.433928
0.347597
0.466322
0.447681
0.373171
0.452631
0.563173
0.531880
0.514854
0.521097
0.512003
0.539614
0.529847
0.504393
0.469613
0.496886
0.472179
0.505457
0.423045
0.482835
0.452968
0.421782
0.345207
0.377522
0.390865
0.318060
0.374579
0.393193
0.305262
0.286992
0.162200
0.229743
0.259507
0.164223
0.130866
0.184366
0.139661
0.152683
0.209324
0.030025
-0.011972
0.083646
0.004167
0.041209
0.027204
0.059208
0.096638
0.075083
0.020434
0.018317
0.016310
0.064948
0.034386
-0.008894
-0.010340
0.010692
0.049924
0.050491
-0.011509
0.109267
0.012789
0.051719
0.088932
0.023819
0.045118
-0.013949
0.008584
0.049191
0.036125
0.049036
0.081558
0.058505
0.021660
0.104553
0.109915
0.069115
0.031039
-0.007110
0.054380
0.022720
0.038784
0.025099
0.047688
0.078007
-0.063415
0.129037
0.085062
0.041492
0.016368
0.110227
0.026607
0.077159
0.021630
0.020968
0.052834
0.082242
-0.027210
-0.027891
0.127834
0.021998
0.055656
0.084192
0.029618
0.147322
0.038740
0.012864
0.026273
0.087136
0.004665
0.075592
0.084768
0.109821
-0.002929
0.053388
0.147908
0.115579
0.095860
0.008470
0.063570
0.033900
0.070320
0.108700
0.078697
-0.032791
0.073304
0.043217
0.178817
0.101482
0.163189
0.058827
0.123158
0.130259
0.158699
0.203719
0.200513
0.214266
0.188056
0.218491
0.191554
0.212347
0.186040
0.298132
0.200860
0.216203
0.152127
0.148386
0.179702
0.218418
0.159021
0.072424
0.216843
0.185071
0.091610
0.124465
0.112312
0.085242
0.066083
0.072396
0.060949
0.011235
0.033349
0.071099
0.018728
0.087270
0.085698
0.029733
0.021000
-0.029751
0.040702
0.128401
0.047881
-0.002696
0.055610
0.085013
-0.026290
0.064245
0.067292
0.006867
0.002969
-0.033163
0.042022
0.105386
0.404354
0.624674
1.013012
1.177452
1.414086
1.471630
1.254625
0.893475
0.670159
0.297007
-0.013541
-0.180513
-0.167674
-0.286972
-0.218101
-0.056740
-0.016377
-0.003245
0.054107
0.081410
-0.007807
0.082022
0.007534
0.046547
-0.051266
0.031015
0.111132
0.009899
0.022590
0.127326
0.171185
0.101408
0.045180
0.107467
0.148201
0.118028
0.075308
0.098168
0.193998
0.154698
0.240231
0.278320
0.205024
0.326636
0.286319
0.272442
0.219957
0.238467
0.302065
0.393524
0.333886
0.395431
0.408546
0.471283
0.480623
0.507052
0.579346
0.475809
0.457838
0.537822
0.570682
0.524860
0.591463
0.544787
0.495965
0.599191
0.525954
0.504527
0.594148
0.430213
0.513529
0.453284
0.485742
0.456246
0.436612
0.452587
0.328739
0.335915
0.357508
0.327237
0.288848
0.328856
0.178646
0.215220
0.193995
0.167429
0.154132
0.090954
0.182467
0.078413
0.152917
0.045094
0.151959
-0.000880
0.061427
-0.034245
0.107642
0.058300
0.025659
0.048517
-0.014828
-0.016909
0.051253
-0.047336
0.004863
-0.021757
0.022064
-0.025045
0.017529
0.017524
0.079640
0.084212
0.016477
0.030624
-0.055087
0.056819
-0.045655
0.020267
-0.021594
-0.008377
0.009301
0.015563
-0.042920
-0.012164
0.020484
0.024633
-0.064654
-0.028010
0.078021
-0.029043
0.000205
0.045453
-0.020406
0.017493
-0.105799
0.035700
0.000079
0.008981
-0.024668
-0.045988
-0.021604
0.019909
-0.045992
-0.022925
-0.013431
0.007163
0.001790
0.037878
-0.021331
-0.054071
0.035714
-0.031138
-0.135146
0.044638
-0.032456
-0.056257
0.021967
-0.015440
-0.045801
0.027765
-0.017428
0.048245
-0.031768
-0.021779
0.001735
-0.050318
-0.042969
-0.035689
-0.056370
0.026584
0.021364
-0.082337
0.014895
-0.008739
0.026749
-0.029249
0.000632
0.065214
0.014927
-0.022015
0.041450
0.030034
0.083377
0.122575
0.002680
0.076653
0.155991
0.083840
0.131805
0.078593
0.111978
0.099937
0.105196
0.145916
0.220708
0.146744
0.143362
0.106528
0.154097
0.056727
0.054966
0.012470
0.032616
-0.001098
0.008939
-0.031205
0.012097
-0.061903
0.002940
-0.007739
0.006219
-0.004347
0.013802
0.001888
-0.040048
0.013352
-0.147832
-0.124567
-0.080443
-0.026229
-0.035444
-0.026155
-0.126538
-0.036370
-0.043145
-0.158664
-0.089886
-0.027218
-0.063755
-0.057070
-0.095544
-0.090629
-0.071852
-0.005333
0.171966
0.466144
0.746744
1.041267
1.219677
1.399765
1.272961
0.967791
0.575832
0.243462
-0.052967
-0.200283
-0.370912
-0.338483
-0.366638
-0.252117
-0.137825
-0.087853
-0.057045
-0.101901
-0.105165
-0.132866
-0.142404
-0.032333
-0.083058
-0.017836
-0.015451
-0.023226
-0.067072
-0.055813
-0.011055
0.000733
-0.018436
-0.080608
0.002778
0.059687
0.040642
0.001183
0.052262
0.063227
0.061521
0.004904
0.072921
0.076107
0.147516
0.151969
0.254090
0.129158
0.210475
0.247600
0.246908
0.283153
0.332744
0.284715
0.272485
0.291409
0.469671
0.399401
0.383128
0.318917
0.424011
0.462796
0.361246
0.471207
0.390922
0.449909
0.401627
0.441146
0.463113
0.321605
0.367596
0.333400
0.406618
0.313298
0.347172
0.247977
0.198652
0.195495
0.148632
0.257112
0.163906
0.103762
0.083144
0.074220
0.126030
0.120286
0.097821
0.013970
0.011849
0.023810
0.019065
-0.000178
0.007945
0.052422
-0.026955
-0.033364
-0.098253
-0.068686
-0.131978
-0.058953
-0.045742
-0.066759
-0.063926
-0.051722
-0.094576
-0.076315
-0.142471
-0.086864
-0.101364
-0.074990
-0.085842
-0.068552
-0.118228
-0.092514
-0.090170
-0.037841
-0.132876
-0.034401
0.003258
-0.097408
-0.079320
-0.099114
-0.113531
-0.176610
-0.001877
0.001439
-0.071672
-0.125896
-0.111504
-0.096491
-0.021864
-0.124165
-0.094796
-0.126152
-0.136877
-0.077654
-0.114374
-0.080395
-0.131856
-0.103851
-0.075828
-0.077051
-0.084703
-0.073325
-0.109478
-0.017398
-0.130045
-0.098889
-0.037983
-0.002914
-0.033361
-0.107431
-0.039674
-0.072610
-0.065608
-0.045447
-0.121346
-0.087828
-0.051625
-0.089543
-0.171961
-0.106351
-0.039076
-0.071055
-0.146192
-0.105540
-0.116927
-0.066613
-0.111876
-0.044251
-0.099886
-0.079850
-0.020697
-0.052673
-0.100714
-0.044447
0.007369
0.028782
0.020263
-0.005874
-0.058868
-0.016510
0.038319
0.063782
0.094730
0.050349
-0.066470
0.106254
-0.000323
0.092071
0.104623
0.017276
0.175799
-0.028405
0.092036
0.076543
0.107177
0.104946
0.046554
0.025243
0.064554
0.090049
0.001167
0.070090
0.015552
0.008473
-0.055310
-0.043488
0.049138
-0.003868
-0.039641
-0.098250
-0.087180
-0.001707
-0.008824
-0.107654
-0.008995
-0.056240
-0.099115
-0.089315
-0.014273
-0.013105
-0.046158
-0.127413
-0.062120
-0.138723
-0.106347
-0.038247
-0.042700
-0.102041
-0.079948
-0.111762
-0.092776
-0.040385
0.054385
0.336276
0.599770
0.910791
1.239227
1.327534
1.316771
1.099872
0.801186
0.401904
-0.008803
-0.158076
-0.302987
-0.408006
-0.349249
-0.182350
-0.181273
-0.033107
-0.033156
-0.027841
-0.061393
-0.019349
-0.100338
-0.073886
-0.052801
-0.024640
0.003765
-0.004171
-0.037734
0.028978
0.027761
-0.013808
0.052572
0.005300
0.009584
0.013181
0.099360
0.131260
0.059845
0.146676
0.097923
0.155312
0.114308
0.146031
0.180046
0.162170
0.203256
0.254994
0.327837
0.292293
0.297681
0.364364
0.299977
0.354036
0.363971
0.389378
0.362394
0.470556
0.440842
0.480524
0.451210
0.541997
0.493113
0.611251
0.476217
0.547425
0.517656
0.497057
0.527955
0.531301
0.339452
0.423021
0.440371
0.464982
0.411598
0.394111
0.354588
0.344722
0.252152
0.223022
0.350938
0.250259
0.325256
0.226706
0.067623
0.140696
0.059059
0.127526
0.153399
0.179745
0.189454
0.113606
0.065890
0.099252
0.054783
-0.031440
0.066159
0.091182
0.018411
0.034668
0.029335
0.053930
0.084788
0.035536
-0.008300
0.078975
0.003140
0.026615
-0.035089
0.027358
0.059402
-0.003137
0.024365
0.028299
-0.032678
0.009643
-0.068579
-0.027200
0.009371
-0.008832
0.054457
-0.037831
0.087740
0.077198
0.054051
-0.008052
0.082973
-0.009966
0.091311
0.004425
-0.028696
-0.085751
0.095491
0.012900
0.028210
-0.015517
0.088684
0.071849
-0.021196
0.025407
-0.027552
-0.008315
-0.053648
-0.074891
0.035471
0.037411
0.006582
0.128959
0.046827
0.060148
0.011083
0.025058
0.011357
-0.002538
0.066228
0.031473
0.058948
0.003067
0.040449
-0.011900
0.032985
0.067553
0.036498
0.026250
-0.059809
0.036140
0.027988
0.040599
0.077115
0.103527
0.080605
0.047992
0.065464
0.081445
0.074530
0.026494
0.099683
0.106092
0.182788
0.117414
0.108170
0.094481
0.216227
0.156508
0.190406
0.156344
0.245149
0.251381
0.162340
0.176877
0.221822
0.164740
0.214895
0.227798
0.277656
0.107248
0.262477
0.240202
0.210885
0.148657
0.193528
0.196255
0.099616
0.105176
0.099981
0.201926
0.128162
0.110054
0.175227
0.168441
0.081588
0.034049
0.051403
0.058415
0.095773
0.090033
0.066386
0.051286
0.041418
0.082180
0.020536
0.068680
0.052342
0.013820
0.033232
0.088853
0.095539
0.128239
0.090571
0.055977
0.075702
0.117910
-0.083646
-0.002346
0.111325
0.279287
0.668186
1.031538
1.339345
1.433619
1.500000
1.361323
1.018462
0.632876
0.313466
0.040423
-0.204681
-0.230189
-0.176064
-0.091024
-0.084840
0.013610
0.064906
0.001787
0.039914
0.137128
0.101547
0.072296
0.096184
0.031510
0.129603
0.093989
0.111778
0.073058
0.122620
0.180103
0.099084
0.160791
0.106419
0.120603
0.194299
0.140827
0.218554
0.147229
0.298591
0.307390
0.221161
0.241490
0.302897
0.329437
0.293312
0.324850
0.303631
0.383119
0.373438
0.281264
0.532475
0.519475
0.534880
0.469588
0.547338
0.620336
0.589652
0.480940
0.547362
0.580469
0.543714
0.613884
0.555529
0.591358
0.609686
0.642551
