-0.036834
0.035581
0.007274
0.037999
0.038523
0.036902
-0.066397
0.013631
0.018167
0.090033
0.129432
0.050468
-0.015631
0.003325
0.023886
0.032651
-0.031679
0.032880
0.050423
0.055247
-0.061576
-0.050724
-0.037118
0.107953
-0.056762
0.043915
0.073323
-0.012306
0.080291
0.083163
0.131132
0.067171
0.083291
0.089649
0.103603
0.117387
0.123961
0.062901
0.168572
0.086747
0.146040
0.109872
0.118242
0.212948
0.166821
0.202503
0.234996
0.228544
0.225620
0.228074
0.203999
0.208572
0.174492
0.133080
0.226800
0.152984
0.111370
0.174594
0.081169
0.169766
0.098871
0.131084
0.093449
0.100833
0.099332
0.050789
0.090014
0.049856
0.134924
-0.014871
0.071233
0.069323
0.092687
0.064637
-0.025262
0.088031
0.048561
0.071143
0.029165
0.027925
0.079457
0.087472
0.062526
0.013063
0.071204
0.034913
0.033347
0.108640
0.069953
0.261904
0.540442
0.845015
1.140476
1.418371
1.500000
1.340549
1.110944
0.698396
0.419676
0.019336
-0.010247
-0.262734
-0.243759
-0.121670
-0.054474
-0.032657
0.062627
-0.000541
0.090846
0.038160
0.090573
0.157570
0.002620
0.051006
0.111122
0.163871
0.133435
0.150744
0.129819
0.145164
0.069222
0.085532
0.097522
0.173329
0.214456
0.237236
0.225349
0.153857
0.178250
0.246339
0.270735
0.270529
0.247709
0.243124
0.278360
0.284593
0.317499
0.434032
0.439335
0.450829
0.423169
0.496785
0.440826
0.498138
0.508593
0.508355
0.558066
0.599895
0.628562
0.592505
0.556233
0.564439
0.655663
0.630472
0.597506
0.607536
0.553940
0.591542
0.572468
0.516824
0.653001
0.492455
0.488807
0.461122
0.508006
0.496906
0.382666
0.448362
0.371987
0.375278
0.330181
0.322764
0.216160
0.301159
0.274900
0.217397
0.257123
0.232755
0.159896
0.170374
0.121816
0.246821
0.144241
0.164691
0.113226
0.172286
0.068984
0.090179
0.111372
0.099721
0.182055
0.087617
0.100590
0.121007
0.156138
0.113330
0.071702
0.035100
0.107173
0.072208
0.158094
0.057646
0.180601
0.080161
0.063965
0.126224
0.045983
-0.001369
0.077740
0.100803
0.063516
0.126058
0.088297
0.147125
0.102312
0.082040
0.088038
0.150573
0.007705
-0.018341
0.105137
0.113070
0.107387
0.073162
0.074281
0.076085
0.058770
0.087936
0.025535
0.064369
0.056560
0.138212
0.005870
0.070256
0.014286
0.076993
0.091886
0.109753
0.074087
0.013413
0.096020
0.085225
0.125662
0.057927
0.049870
0.083507
-0.037637
0.065883
0.017314
0.106164
0.141540
-0.012650
0.107727
0.110248
0.118794
0.041064
0.191277
0.115552
0.092227
0.058559
0.115842
0.069679
0.162087
0.130254
0.137735
0.175778
0.163869
0.214315
0.195543
0.076146
0.136581
0.163485
0.227546
0.273698
0.248219
0.154874
0.183765
0.143958
0.223030
0.222714
0.211034
0.242420
0.315853
0.286811
0.311981
0.186159
0.177744
0.244175
0.235878
0.166328
0.135457
0.215135
0.107797
0.109597
0.159062
0.182751
0.187034
0.158487
0.076781
0.210605
0.069844
0.077786
0.142097
0.147614
0.038835
0.063151
0.059754
0.054543
0.041705
0.065813
0.072630
0.102815
-0.047938
0.088879
0.117721
0.063352
0.070343
0.025503
0.055243
0.023986
-0.052551
-0.029956
0.065353
0.110822
0.394436
0.748446
1.044974
1.322301
1.389555
1.399444
1.183468
0.818016
0.571818
0.162516
-0.069763
-0.263916
-0.195103
-0.190799
-0.139082
-0.039142
0.054651
-0.014725
0.059311
0.048678
0.005234
-0.014924
-0.000681
0.117920
0.060016
0.133542
0.059965
0.140636
0.048652
0.056437
0.110438
0.129240
0.127307
-0.004695
0.133616
0.134099
0.120585
0.128231
0.133461
0.145334
0.168043
0.237296
0.199888
0.277624
0.283495
0.224958
0.334709
0.396198
0.339028
0.280660
0.334678
0.352171
0.440710
0.418710
0.414758
0.490644
0.450454
0.464162
0.534674
0.411857
0.538878
0.581980
0.552931
0.507829
0.542967
0.527272
0.566944
0.526011
0.539447
0.508552
0.429179
0.461429
0.445931
0.433121
0.477708
0.316925
0.353259
0.340219
0.355500
0.216671
0.284999
0.274315
0.282510
0.237591
0.234916
0.217731
0.223093
0.120269
0.112219
0.135463
0.071906
0.134923
0.081568
0.059736
0.053713
0.034557
0.046838
-0.006351
0.050716
0.044970
-0.006303
-0.007890
-0.025759
-0.040303
-0.035514
0.000222
-0.074674
-0.002279
-0.070411
-0.028716
0.018322
-0.073518
0.024741
0.034157
0.017740
-0.000981
-0.023704
-0.047371
0.037028
-0.069553
0.032635
0.032744
0.071033
-0.004457
0.006387
0.010721
-0.062136
-0.042369
-0.030817
-0.013748
-0.086904
-0.016060
-0.006849
-0.018535
-0.072112
0.052263
-0.035407
-0.020355
-0.022377
-0.017310
-0.053219
-0.006962
-0.123479
0.003167
-0.039310
-0.083184
-0.017778
-0.069723
0.052283
0.001126
-0.043257
-0.064206
-0.019680
-0.084844
0.069566
-0.032078
-0.017804
0.004849
-0.033836
-0.090908
-0.043214
-0.116197
0.020251
-0.014039
0.057189
-0.002565
-0.045108
-0.026356
0.045372
0.035122
-0.021107
-0.013710
-0.002749
-0.019754
-0.053289
0.012723
-0.008288
0.020743
0.094063
-0.038299
0.072466
0.037917
0.044034
0.123584
0.110720
0.140376
0.104378
0.119918
0.081225
0.171280
0.122368
0.128441
0.146004
0.149887
0.184177
0.115764
0.140879
0.111612
0.121057
0.106867
0.132747
0.091883
0.057623
0.000894
0.094882
0.067772
0.041063
-0.033131
0.028062
-0.042787
0.049287
0.007831
-0.030413
0.013466
-0.049970
-0.051304
-0.065020
-0.011315
0.021690
-0.008784
-0.192338
-0.102395
-0.018312
-0.050967
0.041891
-0.067455
0.000294
-0.050012
-0.036213
-0.087267
-0.162686
-0.144935
-0.009384
-0.009059
0.257878
0.472588
0.804303
1.167198
1.279840
1.392167
1.216558
0.946410
0.560121
0.163750
-0.079363
-0.232203
-0.411204
-0.306404
-0.282301
-0.153213
-0.080921
0.042790
-0.030992
-0.044425
-0.083409
-0.029092
-0.033158
-0.036604
-0.025841
0.004184
0.022952
-0.033520
-0.057342
-0.031925
-0.068734
-0.018531
0.002275
0.074883
-0.063944
0.059514
0.016904
0.029438
0.096402
0.067471
0.148962
0.191345
0.200076
0.183430
0.137221
0.209410
0.212242
0.221235
0.188791
0.321094
0.364831
0.273178
0.369560
0.382205
0.443461
0.379383
0.449934
0.411408
0.403927
0.436133
0.414016
0.447783
0.513943
0.450782
0.482534
0.493394
0.375301
0.421490
0.459946
0.437383
0.479556
0.462645
0.465927
0.351101
0.330036
0.311767
0.304907
0.353397
0.252716
0.239467
0.218694
0.206671
0.239232
0.142735
0.150346
0.123468
0.136420
0.046495
0.048666
0.081492
0.012945
0.091600
-0.024088
0.028786
0.015476
0.073772
0.040997
-0.038263
-0.018685
-0.043166
-0.041249
0.030649
0.035417
-0.044191
-0.030941
-0.050723
0.031416
-0.078054
0.003562
-0.029952
0.022627
-0.052739
-0.029687
-0.065673
-0.021525
-0.048638
0.012008
0.020019
-0.001350
-0.085050
-0.004247
-0.000026
-0.011144
0.012850
0.047539
0.029673
0.047048
-0.021655
-0.077329
-0.000364
-0.025025
0.020989
-0.023159
0.026633
0.014547
0.000692
0.006299
-0.029699
0.000290
0.000741
-0.029566
0.066031
-0.016640
-0.039191
0.027884
-0.032933
-0.010882
-0.079050
0.098692
-0.090754
-0.074483
-0.001377
-0.000086
-0.009070
0.032293
-0.048092
-0.000774
-0.040077
0.039739
0.011846
0.015074
-0.022138
0.039816
0.062212
-0.022972
-0.010544
0.103060
0.036562
0.005252
0.012869
-0.000476
0.023026
0.034239
0.042512
0.128358
0.031537
0.082940
0.086951
0.048586
0.122355
0.020208
0.095498
0.116491
0.083994
0.101307
0.144727
0.141773
0.191152
0.153431
0.201755
0.143473
0.235090
0.141142
0.194595
0.196361
0.232528
0.167741
0.113185
0.171855
0.257335
0.195625
0.114814
0.110891
0.090052
0.056211
0.168879
0.063739
0.019480
0.064027
0.109677
0.085007
0.055198
-0.006753
0.048195
0.063685
0.092836
0.030656
0.096363
0.100099
0.018210
0.094346
0.116179
0.055407
0.077212
0.045239
0.114222
0.044890
0.029937
-0.017257
0.063118
0.047298
-0.036125
0.064584
0.073620
0.172202
0.480488
0.792566
1.144460
1.356173
1.375016
1.343561
1.097706
0.756275
0.387569
0.141578
-0.054532
-0.254170
-0.267894
-0.109897
-0.092713
-0.020412
0.011084
-0.022630
0.066825
-0.049350
-0.000801
0.005268
0.072765
0.065098
0.134014
0.072944
0.107957
0.033370
0.122413
0.034893
0.058570
0.153040
0.025397
0.090777
0.113993
0.191779
0.218561
0.163008
0.219910
0.230284
0.203775
0.178194
0.231316
0.234596
0.301913
0.331214
0.400956
0.406652
0.420938
0.403638
0.480810
0.435479
0.463102
0.424757
0.493007
0.494061
0.503203
0.520640
0.602968
0.509452
0.664473
0.484903
0.565386
0.614704
0.588090
0.630312
0.557506
0.545696
0.526367
0.585731
0.528888
0.593208
0.549502
0.478811
0.461690
0.422232
0.391493
0.440332
0.321743
0.338558
0.370362
0.286487
0.275050
0.210499
0.277621
0.212608
0.217303
0.160790
0.104572
0.177610
0.156658
0.161409
0.198482
0.161351
0.130363
0.156771
0.058492
0.137119
0.120341
0.116463
0.131918
0.108427
0.100326
0.148670
0.107504
0.054618
0.034018
0.113317
0.189453
0.008076
0.114750
0.200103
0.134665
0.101709
0.104984
0.070699
0.096172
0.154339
-0.004294
0.133913
0.158499
0.075319
0.118536
0.084271
0.087499
0.086847
0.061924
0.085328
0.050658
0.076766
0.139576
0.067011
0.016699
0.066834
0.103055
0.071789
0.138003
0.155770
0.108547
0.036791
0.105283
0.103159
0.123433
0.046969
0.091061
0.126130
0.053930
0.151923
0.079084
0.102611
0.052053
0.112213
0.178816
0.195146
0.067687
0.080850
0.097603
0.156595
0.099328
0.068918
0.111190
0.096671
0.114018
0.029840
0.166651
0.027267
0.066534
0.125486
0.109060
0.139557
0.121646
0.115111
0.098932
0.104514
0.127710
0.088063
0.181056
0.256469
0.086714
0.174454
0.207451
0.244542
0.175499
0.229614
0.235052
0.260884
0.227214
0.212004
0.219861
0.227085
0.319000
0.252597
0.270813
0.173016
0.284152
0.239887
0.227970
0.292241
0.101315
0.245677
0.152670
0.220842
0.139725
0.087315
0.220277
0.159337
0.143466
0.171782
0.162191
0.090149
0.207890
0.002233
0.068749
0.033041
0.021947
0.152995
0.096447
0.130142
0.035126
0.056496
0.064267
0.024589
0.054650
0.115020
0.080832
0.017864
0.109955
0.094099
0.108981
0.042746
-0.036972
0.047616
0.023822
0.213372
0.377949
0.686841
1.044254
1.376539
1.478604
1.481948
1.301218
0.960039
0.598351
0.236479
-0.066196
-0.129467
-0.252973
-0.242805
-0.090727
-0.134040
0.029594
0.024731
0.043641
0.063337
0.056259
0.078024
0.060742
0.143977
0.131955
0.060114
0.094975
0.011651
0.131416
0.098640
0.067018
0.153808
0.126936
0.077665
0.224342
0.211324
0.196699
0.271361
0.157901
0.246229
0.243993
0.193203
0.331045
0.250339
0.235988
0.307236
0.247372
0.398286
0.397578
0.439953
0.330192
0.359326
0.460685
0.421090
0.473026
0.491778
0.480593
0.543088
0.534700
0.606051
0.549786
0.571235
0.507411
0.621280
0.556954
0.539922
0.487879
0.527179
0.529269
0.492793
0.429710
0.479861
0.425091
0.450206
0.406773
0.414938
0.365216
0.343240
0.290921
0.296268
0.319725
0.185920
0.306757
0.131693
0.137602
0.209293
0.174171
0.182016
0.127613
0.091501
0.107920
0.098458
0.078789
0.182758
0.050601
0.092064
0.014401
0.065971
0.175328
0.077845
0.045573
0.042385
0.016858
0.065854
0.030608
0.056449
-0.026170
-0.044650
0.043402
0.063049
-0.018397
-0.080873
-0.046623
0.060568
-0.030777
0.011589
0.005765
0.042508
0.029230
0.051626
0.019351
-0.022928
0.035945
-0.047826
0.067322
-0.084673
-0.062816
-0.029325
-0.027987
-0.043320
0.027547
-0.029103
0.032766
-0.020466
-0.014790
-0.032112
0.018801
0.022097
0.010439
0.023138
0.011133
-0.006150
-0.031007
-0.052659
-0.007985
-0.011392
0.040148
0.013487
-0.034953
0.020471
0.004773
-0.016670
-0.093934
-0.029692
-0.045178
-0.017235
0.055002
-0.075704
-0.049891
-0.029710
0.023760
-0.040465
-0.033206
0.014005
-0.041824
-0.024931
0.000353
-0.046317
0.015796
-0.050403
-0.049264
0.011562
-0.005171
0.000993
0.030631
-0.004225
0.019155
0.072421
-0.011296
-0.067484
0.085502
0.094945
0.072945
0.054661
0.063459
0.056217
0.156586
0.028205
0.113076
0.185021
0.097893
0.091486
0.139025
0.186523
0.180441
0.049933
0.085731
0.112974
0.083087
0.103742
-0.021768
0.012455
0.073408
0.107929
0.001373
0.061405
-0.000730
-0.121689
-0.019096
0.034639
-0.060338
0.021070
-0.114678
0.030880
-0.007788
-0.030333
-0.094703
-0.074471
-0.043820
-0.027476
-0.076147
-0.099346
-0.042325
-0.082592
-0.008799
-0.027479
-0.074172
-0.071898
-0.076969
-0.105771
-0.080544
-0.068580
-0.066384
-0.062846
0.160559
0.448695
0.747906
1.053953
1.302644
1.332907
1.260443
0.924891
0.585609
0.250598
-0.136898
-0.257559
-0.352476
-0.373935
-0.345901
-0.169336
-0.141866
-0.065645
-0.127908
-0.070325
0.004208
-0.112346
-0.059252
-0.062139
-0.061283
-0.032883
-0.082330
-0.032975
0.026222
-0.016477
-0.046571
0.044114
0.016790
0.022829
0.021770
-0.081190
0.086787
0.080751
-0.007227
0.155241
0.122629
0.114729
0.036676
0.142053
0.139158
0.202778
0.181527
0.191739
0.181005
0.240077
0.273707
0.318569
0.239286
0.305983
0.369150
0.328152
0.390701
0.382161
0.401147
0.333571
0.446080
0.473969
0.384924
0.435129
0.438585
0.443772
0.407480
0.386015
0.425822
0.471773
0.311493
0.351195
0.326947
0.328578
0.327814
0.262594
0.319805
0.121482
0.205374
0.219432
0.216621
0.157510
0.133609
0.153662
0.088367
0.094341
0.087020
0.034242
0.094857
-0.011924
0.016182
-0.025587
0.013563
-0.005222
-0.041313
-0.010300
-0.037317
-0.110368
0.022808
-0.052985
-0.070444
-0.033401
-0.088864
-0.062470
-0.079342
-0.050103
-0.058187
-0.057781
-0.023047
-0.095044
-0.085270
-0.074166
-0.090915
-0.104619
-0.035051
-0.037821
-0.080466
-0.092303
-0.064997
-0.077363
-0.147589
-0.109986
0.004181
-0.031197
-0.128481
-0.129931
-0.134655
-0.064758
-0.127747
-0.083148
-0.059905
-0.063577
-0.080770
-0.029249
-0.081104
-0.090445
-0.109408
-0.138344
-0.079306
-0.139948
-0.097757
-0.073670
-0.024681
-0.068171
-0.156330
-0.036020
-0.067356
-0.059071
-0.016473
-0.024868
-0.049668
-0.025603
-0.072738
-0.049286
-0.081802
-0.030386
0.005892
-0.018607
-0.120320
-0.063788
-0.077983
-0.122146
-0.156914
-0.046207
-0.066615
-0.123794
-0.017147
-0.086258
-0.126888
-0.003624
-0.084072
-0.117962
-0.096929
-0.027960
0.051540
-0.017851
-0.023205
-0.078382
-0.073761
0.005690
0.010637
0.037577
0.023402
0.094476
0.091596
0.108879
0.041549
0.111804
0.143635
0.142612
0.111695
0.137789
0.125949
0.099963
0.123759
0.174017
0.117995
0.125895
0.069768
0.091296
0.031487
0.034469
-0.010204
0.079148
0.079121
0.053872
-0.007208
0.093094
-0.012264
0.009401
0.064505
-0.020214
-0.004253
-0.031609
0.097616
-0.013866
-0.018960
-0.035425
-0.037467
0.020612
-0.034479
-0.042656
-0.009870
-0.014748
-0.036667
-0.036256
-0.036694
-0.049446
-0.126380
-0.114755
-0.075400
-0.032255
-0.162883
-0.073985
0.116679
0.398159
0.737322
1.045765
1.338683
1.424342
1.370434
1.072499
0.695922
0.427481
0.080889
-0.128899
-0.292755
-0.324126
-0.302874
-0.161658
-0.107949
-0.049867
0.046006
-0.011719
-0.053721
-0.036038
0.016523
-0.021063
-0.007645
0.008060
0.012068
0.014853
-0.044640
0.052782
0.035411
0.029320
0.050345
0.053086
0.065988
0.095210
0.045552
0.058997
0.127778
0.167958
0.076251
0.135635
0.182712
0.199132
0.165935
0.284443
0.316358
0.262798
0.310256
0.330101
0.363546
0.325232
0.395017
0.374746
0.419203
0.441168
0.453741
0.444569
0.440422
0.520089
0.543381
0.562945
0.496337
0.522966
0.592820
0.497532
0.542322
0.496540
0.519384
0.525948
0.479054
0.425285
0.487362
0.422410
0.520356
0.298835
0.351040
0.326943
0.329717
0.258882
0.295332
0.314079
0.161098
0.162303
0.224665
0.254796
0.232249
0.150227
0.106160
0.156430
0.196413
0.088001
0.112083
0.067396
0.106197
0.069450
0.026094
0.037756
0.036273
0.058659
0.071493
0.048074
0.139729
0.038383
-0.071351
0.041039
0.063997
0.045101
0.042007
0.114919
0.066379
0.025809
0.048258
0.058650
0.036200
-0.007551
0.030699
0.057536
0.000647
0.090921
-0.024186
0.009688
0.031557
0.078395
0.078528
0.141131
0.006125
-0.004199
0.063691
-0.027755
0.022950
0.029156
0.023813
0.065119
0.000280
0.073676
0.005088
0.083175
-0.015309
0.034143
0.002442
0.024580
-0.014064
-0.089856
0.125994
0.144304
0.097735
0.060227
0.035511
0.054606
0.005762
0.020065
0.037139
-0.014763
0.018751
0.088436
0.039202
0.098904
0.069427
0.019587
0.064671
0.106404
0.057942
0.082210
0.082775
0.002705
0.038081
0.051907
0.063017
0.012788
0.114019
0.038282
0.093138
0.081265
0.055842
-0.024052
0.170588
0.126595
0.017338
0.074888
0.103663
0.179437
0.224234
0.166242
0.249588
0.115913
0.157262
0.272036
0.213825
0.186335
0.209606
0.298906
0.199585
0.177505
0.171956
0.237162
0.221302
0.203843
0.064073
0.194361
0.189372
0.203522
0.179136
0.222234
0.152576
0.128820
0.106978
0.152429
0.142945
0.090287
0.047445
0.100762
0.039750
0.051712
0.024282
0.090787
0.010766
0.020368
0.062540
0.009389
-0.023003
0.049356
0.020583
0.011376
0.101327
-0.030985
0.016825
0.057875
-0.039685
-0.020233
0.027217
-0.085693
0.039930
0.016262
0.059861
0.280009
0.664727
0.968147
1.282435
1.453546
1.400450
1.219923
0.938730
0.523681
0.202028
0.014381
-0.246145
-0.295685
-0.251324
-0.218265
-0.120465
-0.016111
-0.033294
0.046894
0.009673
0.051859
0.095003
0.038044
-0.021356
0.147787
0.072519
0.057151
0.027078
0.077611
0.052390
-0.026706
0.079534
0.093250
0.146553
0.187170
0.185729
0.100022
0.169453
0.161499
0.230111
0.204627
0.225847
0.247058
0.213411
0.307899
0.238684
0.383199
0.329767
0.363635
0.290097
0.455175
0.382959
0.496457
0.430990
0.397804
0.458481
0.501846
0.456472
0.524502
0.491498
0.457116
0.527185
0.565972
0.477131
0.555261
0.466574
0.545711
0.618887
0.507956
0.513354
0.448534
0.436811
0.449129
0.410404
0.453841
0.402781
0.352294
0.318252
0.421174
0.235928
0.257712
0.235695
0.236596
0.242195
0.221314
0.163298
0.158644
0.185699
0.110185
0.133584
0.137401
0.049929
0.100827
0.135449
-0.023237
0.036436
0.050597
0.033683
0.020861
0.087721
-0.006012
0.017914
0.093007
0.025044
-0.011457
0.001437
0.077075
0.015172
0.068491
-0.012320
0.140666
0.019420
-0.039234
-0.041902
-0.039277
-0.082715
-0.022430
-0.018241
-0.039942
0.037603
-0.036914
-0.029914
0.034879
-0.005911
0.009710
0.002095
0.115503
-0.064710
0.049411
-0.036407
-0.079317
-0.028908
-0.002627
0.001609
-0.079182
-0.036642
-0.007341
0.052767
-0.089240
-0.043445
0.019695
-0.041344
-0.034928
-0.085910
0.018669
-0.014458
-0.026460
0.055331
-0.005920
0.007755
0.001157
0.000932
0.016048
-0.084991
0.085540
-0.091333
-0.041091
-0.064546
-0.084562
0.003533
-0.008737
-0.080096
-0.118343
0.033666
-0.066696
0.041391
-0.053239
-0.098123
-0.059482
0.026269
-0.017441
-0.039123
0.021890
0.001060
-0.019648
0.007347
0.037421
0.005936
0.033069
0.014948
0.057771
0.113410
0.084040
0.157966
0.072620
0.080288
0.149123
0.131498
0.085141
0.021125
0.097223
0.064796
0.194979
0.130060
0.111273
0.136236
0.129251
0.072947
0.083335
0.096182
-0.013562
0.091992
0.044452
0.047066
0.032905
-0.004932
0.066861
0.061061
-0.061835
-0.033110
-0.006316
0.048127
-0.075593
-0.110568
-0.104811
0.013708
-0.134883
-0.091310
-0.099829
-0.042514
-0.078483
-0.122251
-0.064276
-0.093005
-0.106092
-0.054003
-0.014681
-0.113550
-0.008994
-0.107993
-0.137172
-0.117932
-0.108658
-0.015124
0.268691
0.442852
0.757294
1.094620
1.296272
1.318209
1.205662
1.002253
0.577442
0.300795
-0.098595
-0.340936
-0.392699
-0.328466
-0.256656
-0.231953
-0.174748
-0.076760
-0.068110
-0.074560
-0.028377
-0.100652
-0.158939
-0.114119
-0.062113
0.023949
-0.067877
-0.114260
-0.056555
0.058327
-0.124153
-0.054269
-0.064564
-0.083525
0.071927
0.073818
0.166033
-0.021627
0.053033
0.079701
0.052186
0.116220
0.133943
0.093979
0.168918
0.135332
0.215300
0.147688
0.200247
0.186604
0.264260
0.276962
0.294196
0.332291
0.312252
0.422073
0.408497
0.296574
0.401562
0.390172
0.313383
0.377415
0.391667
0.447027
0.427681
0.358268
0.352502
0.381155
0.387370
0.304156
0.406975
0.366142
0.351376
0.306583
0.335636
0.360683
0.207395
0.175145
0.196193
0.231484
0.106499
0.119623
0.183008
0.178006
0.107070
0.067866
0.028256
0.083830
-0.026324
-0.016352
0.054617
-0.014446
0.012089
-0.024982
0.011898
-0.006707
-0.023132
-0.061419
-0.063362
-0.096806
-0.033767
-0.093100
-0.145333
-0.064937
-0.149011
-0.051844
-0.106088
-0.117056
-0.003586
-0.164765
-0.140455
-0.065807
-0.042465
-0.121724
-0.044629
-0.112354
-0.082617
-0.129672
-0.143343
-0.107098
-0.108142
-0.065389
-0.064662
-0.133868
-0.129771
-0.069231
-0.163189
-0.069032
-0.031375
-0.130260
-0.054256
-0.085540
-0.120442
-0.104090
-0.092786
0.008427
-0.039841
-0.083242
-0.078222
-0.107679
-0.040309
-0.167719
-0.193975
-0.131548
-0.111880
-0.039828
-0.104694
-0.086513
-0.097555
-0.120349
-0.063203
-0.164896
-0.037453
0.007894
-0.068263
-0.060388
-0.103606
-0.043393
-0.078505
-0.038307
-0.129938
-0.017063
-0.075897
-0.002872
-0.033177
-0.074806
-0.047274
-0.057357
-0.082818
-0.098731
-0.010836
-0.124808
0.076840
0.011319
0.049286
-0.043318
-0.091784
-0.056351
-0.048359
-0.023918
0.053681
-0.022686
-0.005399
-0.045445
0.024898
0.094802
0.078522
0.098762
0.077826
0.083581
0.136277
0.048170
0.100519
0.059450
0.107685
0.120288
0.129005
0.078833
0.060938
0.044295
0.085970
0.009338
0.023600
0.100872
-0.069019
0.017119
0.017751
-0.030268
-0.008406
-0.026556
-0.073027
-0.072268
-0.062146
-0.033172
-0.127133
-0.041205
-0.033991
-0.100159
-0.053072
-0.000123
-0.147163
-0.039490
-0.138532
-0.034149
-0.078410
-0.066511
-0.141361
-0.131939
-0.067093
-0.066128
-0.129202
-0.098005
-0.095574
-0.117269
-0.002430
0.337751
0.602597
0.936082
1.172839
1.362448
1.312277
1.069870
0.769145
0.391730
0.069754
-0.190919
-0.335047
-0.297768
-0.325936
-0.224537
-0.122988
-0.078168
-0.008623
-0.031110
-0.008250
-0.100238
-0.005436
-0.091716
0.014798
-0.062820
0.074187
-0.047921
-0.025551
0.019250
-0.034700
0.048369
-0.047055
-0.041492
-0.068175
0.050818
0.139267
0.078070
0.087830
0.158127
0.023283
0.146991
0.114564
0.141640
0.143339
0.221688
0.168692
0.201260
0.179375
0.318840
0.251170
0.297555
0.368482
0.415487
0.360446
0.430395
0.499073
0.514251
0.425658
0.481694
0.488172
0.428013
0.487411
0.420631
0.566903
0.478857
0.404525
0.473328
0.441161
0.471152
0.396456
0.360419
0.504988
0.454025
0.391800
0.394549
0.424340
0.382405
0.231119
0.302515
0.289539
0.166726
0.197346
0.181872
0.162858
0.225446
0.171453
0.091591
0.074595
0.047745
-0.020189
0.061054
0.075565
0.025724
0.059142
0.107675
0.017795
0.030739
0.060448
0.056745
0.042699
0.050679
0.034613
-0.009022
-0.052308
-0.035202
0.019798
0.101265
0.063940
0.068435
0.094537
0.056373
0.005988
0.009094
0.012243
0.034438
0.005908
0.079474
0.014566
0.045273
-0.086751
0.046161
-0.069894
0.042078
0.071362
0.077714
-0.075364
0.053031
-0.022571
0.086622
-0.012102
0.044127
0.006055
0.035111
-0.076774
0.053459
0.007162
0.033990
0.013596
0.001192
0.084505
-0.042563
0.012263
0.041989
0.100131
-0.066149
-0.026410
0.052686
0.023554
0.006804
0.046455
0.099597
-0.013094
0.047530
0.046563
0.039121
-0.000764
0.042655
0.004484
0.042959
0.006189
0.015756
0.026412
0.095552
0.052750
0.081226
0.056373
-0.000335
0.072714
0.006815
0.067325
0.038735
0.071048
0.126304
0.055356
0.072823
0.092318
0.031119
0.105137
-0.045036
0.163100
0.158096
0.088549
0.231283
0.205287
0.202272
0.137993
0.193875
0.208649
0.208280
0.242122
0.222352
0.238418
0.155226
0.212234
0.174172
0.222119
0.265527
0.223878
0.165649
0.192491
0.199745
0.149266
0.120386
0.105627
0.159871
0.103975
0.099538
0.122855
0.084618
0.004066
0.102247
0.103474
0.060038
0.102087
0.060093
-0.013656
-0.011179
0.050775
0.050642
0.038734
0.087031
0.037279
0.101614
0.080585
0.120622
0.098648
0.098707
0.115985
0.083259
0.087914
0.041538
0.056740
0.050421
0.128050
0.386110
0.634690
0.936557
1.208084
1.426357
1.367692
1.316111
1.021135
0.668965
0.240960
0.030787
-0.145521
-0.213387
-0.229881
-0.164165
-0.099201
0.031796
-0.018857
0.055613
0.016205
0.096243
0.103569
0.102027
0.090794
0.173059
0.095880
0.090960
0.130836
0.081640
0.121092
0.140653
0.144923
0.150596
0.132657
0.106257
0.110888
0.186528
0.150185
0.176933
0.224428
0.193127
0.200464
0.312893
0.235553
0.320270
0.363811
0.328157
0.318885
0.322222
0.369417
0.495223
0.488990
0.476482
0.473637
0.484734
0.514091
0.493827
0.549992
0.536881
0.501666
0.645959
0.586632
0.628365
0.470226
0.636721
0.570361
0.611620
