0.028678
0.013343
-0.019769
-0.004806
0.029623
0.083628
-0.092225
0.006578
-0.054775
0.055968
0.120164
0.008103
-0.004218
0.003335
-0.010122
0.014566
-0.033609
0.098061
0.002816
0.072102
0.048407
0.010563
0.086486
0.080836
0.007259
0.057671
0.065048
0.028970
0.038582
-0.000510
0.139311
0.070507
0.138408
0.106287
0.096457
0.089720
0.067395
0.171000
0.158694
0.219923
0.250563
0.170895
0.246233
0.187433
0.214642
0.165083
0.131426
0.169451
0.195798
0.225701
0.143212
0.167743
0.242205
0.191241
0.218722
0.118835
0.112284
0.085038
0.128418
0.084725
0.070236
0.061019
0.092960
-0.049571
0.081166
0.021031
0.147503
0.052153
0.040619
0.018599
0.079607
0.050208
0.038954
0.059928
0.023554
0.059520
0.039928
0.042870
0.070002
0.069398
0.045394
-0.020163
0.053390
0.183378
0.336776
0.685277
1.066863
1.357956
1.428547
1.461997
1.221055
0.885532
0.573596
0.219943
-0.055036
-0.168283
-0.167511
-0.207400
-0.058833
-0.057997
-0.061889
0.173659
0.109193
0.128224
0.063661
0.010761
0.104243
0.063767
0.118944
0.019738
0.166603
0.135609
0.198143
0.150304
0.162642
0.152224
0.153344
0.158328
0.163087
0.164518
0.274579
0.306914
0.237300
0.297815
0.310233
0.295997
0.426994
0.349291
0.362626
0.459518
0.409829
0.394106
0.466520
0.477780
0.471221
0.508681
0.529773
0.539214
0.676518
0.557068
0.555984
0.545772
0.587842
0.627247
0.641378
0.591221
0.590632
0.695212
0.541800
0.535134
0.576490
0.535756
0.507686
0.515234
0.488829
0.472386
0.406240
0.499271
0.471785
0.405097
0.499129
0.337914
0.330789
0.380920
0.293988
0.247184
0.232360
0.234090
0.166818
0.208980
0.200215
0.217667
0.170085
0.216129
0.116586
0.205453
0.036082
0.142530
0.090959
0.146099
0.066170
0.186801
0.067274
0.072366
0.092906
0.079680
0.122783
0.074544
0.128833
0.144882
0.012275
0.056500
0.088850
0.093030
0.121984
0.055049
0.100270
0.081331
0.046420
-0.030728
0.124809
0.135669
0.111535
0.082853
-0.006787
0.078317
0.123450
0.095753
0.214993
0.042810
0.054329
0.057795
0.135838
0.039763
0.170700
-0.003274
0.146339
0.065249
0.015010
0.059389
0.060412
0.059613
0.043881
0.084155
0.107731
0.077136
0.094870
0.031617
0.036564
0.099355
0.135186
0.094083
0.106715
0.135381
0.083584
0.085530
0.059048
0.111044
0.086423
0.096613
0.043502
0.182029
0.005783
0.149559
0.012786
0.184230
0.126893
0.155932
0.089216
0.166609
0.212801
0.123054
0.201710
0.170992
0.193847
0.188078
0.240273
0.202072
0.277967
0.268955
0.322701
0.213970
0.233135
0.296012
0.318679
0.254270
0.322657
0.286402
0.200093
0.258875
0.160526
0.162461
0.184978
0.145453
0.209434
0.086642
0.192580
0.164755
0.230531
0.111534
0.126060
0.147252
0.101438
0.076351
0.155278
0.078992
0.146198
0.105238
0.094877
0.069722
0.045296
0.069538
0.115678
0.078173
0.087614
-0.018059
0.165411
0.067713
-0.008371
0.025504
0.086969
-0.021285
0.099086
0.154408
0.228728
0.525505
0.804126
1.177684
1.415373
1.449301
1.358319
1.080559
0.761347
0.386478
0.132835
-0.101711
-0.211748
-0.153172
-0.206077
0.011196
-0.010721
0.053749
0.010835
0.054319
0.062383
0.072148
0.098380
0.088942
0.043647
0.109703
0.082441
0.049254
0.139120
0.116995
0.106079
0.141613
0.215344
0.118697
0.256857
0.243077
0.156297
0.093718
0.241979
0.207451
0.225649
0.326208
0.328312
0.363312
0.409825
0.353299
0.376420
0.436231
0.450852
0.377942
0.450731
0.479340
0.399189
0.535163
0.473429
0.547311
0.489460
0.524329
0.520288
0.579010
0.548454
0.585470
0.607194
0.562309
0.567212
0.506935
0.519523
0.522353
0.487891
0.392071
0.437517
0.399483
0.453538
0.425484
0.374077
0.378741
0.269130
0.292702
0.319465
0.308598
0.341615
0.190152
0.229324
0.237050
0.141950
0.173081
0.132760
0.088260
0.077546
0.054043
0.067977
0.021243
0.009484
0.038194
0.113886
0.071628
-0.023268
0.019884
0.001313
0.041071
-0.022739
0.144038
0.103642
0.060469
0.041012
-0.038572
0.067403
-0.086395
-0.030075
-0.025175
0.023154
0.009502
0.042667
0.024897
-0.066876
0.065762
0.037223
-0.001835
0.035119
-0.019693
0.041822
0.040540
0.106204
-0.022584
-0.021650
-0.030907
-0.059969
-0.003195
-0.007286
0.008536
0.013755
0.069991
0.006199
0.034540
-0.023679
0.058877
0.032921
-0.006436
0.065429
0.111408
0.008715
-0.001757
-0.044579
0.028861
0.063683
-0.032467
-0.038831
0.003393
-0.035767
-0.038791
-0.042314
0.008573
-0.062944
-0.012990
-0.020583
-0.025875
-0.022027
0.019664
0.005723
-0.005112
0.005232
0.012906
0.090444
-0.008312
-0.011817
0.025497
0.017637
0.036402
0.088876
0.115982
-0.032590
0.033196
0.079119
0.117248
0.136268
0.084705
0.185904
0.100899
0.129733
0.115781
0.216308
0.230696
0.107748
0.160155
0.108915
0.122450
0.161961
0.134666
0.133635
0.079229
0.127779
0.066878
0.135395
-0.016069
0.016661
-0.001540
0.031889
-0.009709
-0.025331
-0.032641
0.057564
-0.028840
-0.062328
-0.050095
-0.010199
-0.034582
0.014251
-0.094264
-0.017536
-0.094000
0.066074
-0.051306
-0.100728
0.014124
-0.073849
-0.127658
0.023077
-0.052045
-0.107423
-0.080738
0.054214
0.226353
0.582920
0.878124
1.153079
1.361623
1.344984
1.203853
0.894477
0.563551
0.104452
-0.218681
-0.239038
-0.360552
-0.246419
-0.220456
-0.138585
0.058968
0.015638
-0.039935
-0.029908
-0.007750
-0.037540
-0.062296
-0.060054
-0.134596
-0.080698
0.028455
-0.008820
0.041010
0.062217
0.080829
-0.007169
-0.000550
0.088390
0.105175
0.118192
0.097051
0.145871
0.134424
0.149687
0.159425
0.172506
0.258888
0.190467
0.267384
0.253128
0.316645
0.251589
0.343285
0.332540
0.300694
0.474865
0.447965
0.433777
0.444799
0.452537
0.472321
0.484077
0.451802
0.519296
0.456249
0.422696
0.521379
0.496740
0.456190
0.483989
0.430381
0.442720
0.378313
0.296503
0.327042
0.301972
0.273810
0.308171
0.282267
0.229926
0.279000
0.183880
0.211020
0.190166
0.152524
0.132736
0.113852
0.033549
0.074729
0.084352
0.092393
0.017978
0.058924
0.026455
0.022371
0.039544
0.005423
0.052051
-0.031152
0.046876
-0.007766
-0.056966
-0.026861
-0.025448
-0.129329
0.017927
0.026593
-0.040974
-0.016020
-0.039137
0.045726
-0.006793
-0.051220
-0.001169
-0.027055
-0.031668
0.019028
0.032749
-0.028324
-0.027180
0.007662
0.023046
-0.016326
-0.028597
0.005942
0.021742
-0.052535
0.012393
-0.004793
-0.034424
0.033155
-0.039712
-0.079633
-0.069504
-0.082518
0.030596
-0.067343
-0.105603
-0.019535
-0.015595
-0.058760
-0.028670
-0.097652
-0.062175
-0.067030
-0.045859
-0.000105
-0.051986
0.004893
-0.060471
-0.030088
0.082537
-0.011953
-0.010205
-0.092574
0.084135
0.056171
-0.069456
0.051381
-0.016331
0.003150
0.041026
-0.088269
0.024775
0.044310
0.066548
-0.072471
0.058298
0.083682
0.000472
-0.020653
0.117650
0.080333
0.043221
0.102997
0.051720
0.053293
0.106692
0.188754
0.104665
0.198849
0.196357
0.089228
0.196530
0.199791
0.215949
0.248716
0.224987
0.187590
0.185877
0.183516
0.113548
0.124411
0.175089
0.110682
0.120281
0.048406
0.033953
0.097124
0.151348
0.062721
0.060289
0.051866
0.022891
-0.052263
0.038395
0.022993
-0.028390
0.004510
0.031618
0.018006
0.010108
0.014959
0.008420
0.073868
0.136229
0.083282
0.024212
-0.020038
0.060103
-0.049172
-0.047621
-0.069072
-0.013960
0.109831
0.430726
0.729445
1.132139
1.353101
1.500000
1.362367
1.086625
0.769120
0.466450
0.102816
-0.079934
-0.219496
-0.259343
-0.145931
-0.115188
0.008590
0.045982
0.050683
0.038752
0.049914
-0.037052
0.023669
0.022014
0.091518
0.039552
0.090659
0.115473
0.131796
0.143652
0.123442
0.116348
0.090151
0.139319
0.143289
0.122223
0.170575
0.141272
0.232681
0.228678
0.295361
0.284917
0.316277
0.357491
0.340012
0.332654
0.405807
0.407419
0.401949
0.366305
0.481808
0.441097
0.446877
0.472828
0.466126
0.534098
0.507684
0.568782
0.608704
0.580860
0.643515
0.596023
0.600710
0.518219
0.570264
0.504797
0.502805
0.516647
0.525916
0.459376
0.516364
0.429329
0.471929
0.497960
0.331309
0.303470
0.381712
0.312602
0.285797
0.230496
0.231274
0.210769
0.283492
0.184237
0.230065
0.290892
0.259898
0.213749
0.186574
0.167032
0.146371
0.178199
0.120705
0.166456
0.081914
0.093421
0.074090
0.136525
0.178207
0.065464
0.071609
0.062064
0.088529
0.129781
0.074979
0.151858
0.014436
0.102611
0.122864
0.006209
0.053479
0.174235
-0.033624
0.117594
0.070298
0.100095
0.020113
0.088822
0.086783
0.083924
0.090743
0.110727
0.109450
0.028006
0.042171
0.045154
-0.008808
0.110178
0.142165
0.062580
0.106832
0.094806
0.068065
0.090087
0.082136
0.123040
0.204862
0.109595
0.136180
0.008050
0.105271
0.096090
0.088345
0.120615
0.100257
0.097056
0.109457
0.064066
0.046491
0.136132
0.065921
0.182297
0.000890
-0.027508
0.087409
0.101256
0.003561
0.137897
0.078820
0.141850
0.135601
0.044812
0.155998
0.096926
0.144444
0.051141
0.067425
0.146428
0.146515
0.134428
0.191020
0.200890
0.234101
0.188784
0.259947
0.160436
0.263033
0.299983
0.286761
0.256971
0.276389
0.293951
0.212571
0.248253
0.290547
0.161322
0.295647
0.224472
0.185184
0.284665
0.194150
0.187242
0.199104
0.155545
0.207373
0.171418
0.137848
0.129156
0.169319
0.143624
0.031411
0.012377
0.162883
0.119627
0.109647
0.086768
0.101638
0.110298
0.134154
0.132088
0.073603
0.077246
0.149866
0.125835
0.063148
0.106400
0.075435
0.045866
0.019549
0.080424
0.132201
0.323920
0.489195
0.851237
1.227029
1.471748
1.475262
1.406338
1.096556
0.564659
0.400709
0.025278
-0.132796
-0.204193
-0.177214
-0.067368
0.045670
0.057401
0.042101
0.087144
0.138364
0.087418
0.145673
0.050943
0.169267
0.096810
0.144008
0.121042
0.029730
0.170156
0.168286
0.203805
0.176866
0.177559
0.170041
0.176403
0.221777
0.254693
0.234513
0.249249
0.275511
0.400265
0.316656
0.319908
0.284624
0.305599
0.447918
0.411056
0.452736
0.495534
0.449078
0.581557
0.507971
0.555802
0.481002
0.564578
0.611996
0.556913
0.553212
0.591129
0.623696
0.565027
0.635801
0.697752
0.552747
0.648463
0.507585
0.464863
0.546689
0.496533
0.477537
0.559869
0.391734
0.457011
0.435571
0.394468
0.324927
0.337016
0.280663
0.381586
0.295548
0.208283
0.186823
0.264011
0.236584
0.245091
0.181850
0.194583
0.197405
0.096272
0.112126
0.194251
0.123860
0.109039
0.109230
0.016887
0.199849
0.089986
0.090683
0.087949
0.106641
0.072968
0.113411
0.050484
0.090140
0.066464
0.007019
0.078905
-0.004255
0.036745
0.060049
0.105897
0.031334
0.003920
0.052271
0.039375
0.008794
0.037681
0.019599
-0.015454
0.043375
0.029998
0.098982
-0.024476
0.027955
0.005220
0.090934
0.035894
0.009416
0.076237
0.017903
0.025255
0.061376
0.071758
0.080498
0.028834
-0.016260
0.066381
0.122701
0.022115
-0.009133
0.042664
0.069780
0.017470
-0.043595
0.106023
0.068631
0.012405
-0.046361
0.022588
-0.025804
0.037213
0.054862
0.004923
0.024394
0.046189
0.050556
0.079594
0.095825
-0.018159
0.114023
0.039968
0.008704
0.007761
0.165752
0.066540
0.029441
0.121480
0.074172
0.105029
0.120424
0.140670
0.164400
0.129937
0.126043
0.143137
0.126732
0.187579
0.167901
0.170091
0.091443
0.246534
0.143432
0.087613
0.173244
0.126639
0.152687
0.138375
0.179966
0.073434
0.034920
0.072548
0.100297
0.058357
0.089921
0.000358
0.136948
-0.006108
0.003722
-0.020714
0.036688
0.049521
0.031294
-0.017094
0.021009
0.001307
0.046802
-0.068013
-0.054432
-0.029516
0.068064
-0.000454
0.006070
-0.020511
0.008848
-0.020612
-0.044810
-0.094030
-0.068506
-0.079342
0.049405
0.044742
0.351207
0.673241
0.958210
1.246286
1.429313
1.376294
1.176383
0.798334
0.513085
0.121112
-0.137934
-0.324570
-0.311829
-0.270609
-0.240866
-0.106877
-0.063104
-0.049826
0.058259
0.014535
-0.030991
-0.017753
-0.017824
0.018478
-0.120329
0.045689
-0.022412
-0.012763
0.002042
-0.109256
0.036530
0.017263
0.054681
0.088543
0.067113
0.107365
0.096681
0.063708
0.059736
0.108313
0.198464
0.258222
0.173857
0.214177
0.305682
0.345786
0.313485
0.321231
0.408211
0.388715
0.444792
0.434005
0.410361
0.369383
0.476142
0.473086
0.462654
0.407794
0.429345
0.471754
0.520869
0.452992
0.339654
0.426258
0.417168
0.383292
0.428865
0.360356
0.317069
0.399420
0.330896
0.368272
0.257662
0.308072
0.245745
0.218331
0.306104
0.210016
0.131610
0.216270
0.256921
0.074414
0.124537
0.111874
-0.016139
0.063727
0.026823
0.018367
0.054779
0.021769
0.005285
0.007519
-0.030357
0.021543
-0.015846
-0.002833
-0.027270
-0.048009
-0.027880
-0.114081
-0.089794
-0.089068
0.021914
-0.017123
-0.090677
-0.114950
-0.055629
-0.151501
-0.086675
-0.068051
-0.120561
-0.078224
-0.120457
-0.092306
-0.117442
-0.116830
-0.059634
-0.012141
-0.050150
-0.120516
-0.070712
-0.013068
-0.080623
-0.189406
-0.026411
-0.016755
-0.147108
-0.002227
-0.073289
-0.072257
-0.069270
-0.073354
0.003694
-0.148152
-0.103989
0.020866
-0.076335
0.017094
-0.048154
-0.105346
-0.121668
-0.085292
-0.054290
-0.068968
-0.036405
-0.106629
-0.065230
-0.103142
-0.109821
-0.081584
-0.071572
0.001922
-0.119138
-0.098748
-0.141909
-0.093164
-0.062913
-0.100621
-0.088341
-0.019346
-0.035375
-0.066160
-0.068898
-0.004143
-0.049069
-0.022068
-0.036451
-0.098133
-0.047191
0.012593
-0.021018
0.064657
0.055624
0.025371
0.050819
0.111415
0.165422
0.133864
0.100989
0.093812
0.180181
0.121845
0.091959
0.072630
0.067816
0.107262
0.037058
0.059918
0.015242
0.050818
0.041582
0.086182
0.062192
0.017615
-0.039045
-0.075922
-0.105320
-0.024130
0.055100
-0.057442
-0.025390
-0.086670
-0.035884
-0.078320
-0.057457
-0.118521
-0.127476
-0.068876
-0.056025
-0.042368
-0.086514
-0.124837
-0.097184
-0.139185
-0.119655
-0.049694
-0.135187
-0.153703
-0.097478
0.025451
0.080000
0.377392
0.664891
1.116144
1.335408
1.380055
1.183016
1.024288
0.564842
0.256932
-0.025064
-0.270231
-0.418728
-0.241212
-0.325930
-0.179902
-0.131916
-0.032691
-0.006834
-0.063336
0.007065
0.060864
-0.062207
-0.118901
0.006000
-0.057391
-0.044255
-0.013217
0.067735
0.023389
0.005141
-0.063613
-0.001743
0.058272
0.046306
0.108351
0.030519
0.039392
0.114278
0.170148
0.092225
0.165634
0.206643
0.221415
0.166057
0.264533
0.252673
0.380374
0.316093
0.349907
0.421832
0.387542
0.457859
0.454290
0.482103
0.418740
0.436339
0.491571
0.560140
0.488864
0.493705
0.514210
0.376957
0.524493
0.451541
0.495967
0.430337
0.457725
0.400702
0.388530
0.341180
0.318884
0.355067
0.362268
0.332226
0.286478
0.301081
0.180427
0.156272
0.224354
0.207522
0.080012
0.122498
0.085536
0.072764
0.064393
0.084231
0.035994
-0.005247
0.026191
-0.063389
0.060961
0.051544
0.043803
-0.042408
0.069389
-0.102561
0.028022
-0.040543
-0.016958
-0.090425
0.000497
0.001577
0.029215
-0.076985
-0.007529
0.013875
-0.019363
-0.098950
0.004124
-0.095965
-0.071966
-0.032974
-0.039248
-0.088320
0.029267
-0.009812
-0.018113
-0.032401
-0.031755
-0.038958
-0.074044
0.020769
-0.091611
0.020059
-0.000992
-0.014890
0.017682
-0.006651
-0.009125
-0.005188
0.049812
-0.037128
-0.013233
0.060796
-0.051605
0.014043
0.019811
0.006265
0.068546
-0.011981
-0.021870
0.015068
0.025003
0.026063
-0.017662
-0.079093
0.020864
0.054612
0.025394
-0.022031
-0.053094
-0.028741
-0.074650
0.104661
-0.032519
-0.035858
0.067280
0.000057
0.019860
-0.066018
0.000846
0.055451
0.040327
0.111346
-0.008411
-0.022079
0.100473
0.176092
0.141912
0.141336
0.141495
0.170461
0.174737
0.225559
0.126182
0.142810
0.149152
0.105804
0.201758
0.235492
0.202546
0.227832
0.178082
0.191358
0.226065
0.187234
0.166762
0.172171
0.181525
0.136555
0.190624
0.076291
0.153606
0.082078
0.038885
0.078166
0.079120
0.045935
0.027113
0.020047
0.025501
0.045054
-0.014580
0.110833
0.038193
0.079662
0.051601
0.035239
0.064389
-0.046708
-0.009959
0.020407
0.136245
-0.013783
0.004687
-0.019130
0.025778
-0.009852
0.047388
0.069865
0.312271
0.602803
0.969475
1.246871
1.430562
1.400282
1.275345
0.917971
0.583776
0.194580
-0.071137
-0.143865
-0.242340
-0.193208
-0.119563
-0.084454
-0.073934
0.066957
-0.002361
0.033628
0.040874
0.065421
0.042452
-0.041202
0.120459
0.065672
0.049139
0.057474
0.133865
0.076568
0.095690
0.084130
0.174862
0.151518
0.230330
0.148391
0.184025
0.222331
0.253194
0.278256
0.369966
0.319244
0.310784
0.322285
0.329976
0.342447
0.487502
0.471968
0.477123
0.478206
0.438862
0.507332
0.522957
0.447411
0.493756
0.594318
0.636963
0.607593
0.592068
0.609728
0.518869
0.558689
0.600247
0.548930
0.532839
0.547004
0.515792
0.536624
0.450011
0.530984
0.402073
0.508123
0.454612
0.409925
0.371654
0.334887
0.266374
0.241159
0.351882
0.249423
0.244447
0.256630
0.222856
0.172284
0.173340
0.161489
0.237059
0.157968
0.189818
0.193930
0.128528
0.080338
0.089180
0.119519
0.093620
0.074183
0.080634
0.078568
0.075815
0.053233
0.103807
0.009344
0.010273
0.029227
0.043123
0.038356
0.149415
0.008877
0.057770
0.114382
0.061804
0.047579
0.058618
0.008858
0.019704
0.017750
0.020898
0.099428
0.057940
-0.000916
-0.040608
0.015033
0.097277
0.099988
0.103075
-0.023475
0.056326
-0.037674
0.122161
-0.001053
-0.027106
0.015953
0.130596
0.074888
0.074184
0.011921
0.035767
0.049231
0.008701
0.023935
-0.052848
0.021965
0.072398
0.016262
0.031791
-0.038363
0.062624
0.013951
-0.001896
-0.021745
0.006000
-0.043158
-0.032042
-0.006691
0.011840
-0.027085
0.045679
0.049680
0.028643
0.140370
0.087327
0.091732
0.064205
-0.017079
0.074281
0.107834
0.102107
0.029996
0.094808
0.049537
0.151846
0.128078
0.221602
0.162881
0.235243
0.167387
0.167870
0.072609
0.244752
0.198528
0.154360
0.198744
0.296267
0.270362
0.174281
0.199755
0.148925
0.195330
0.218245
0.151858
0.106425
0.095713
0.081939
0.106567
0.093684
-0.033044
0.088765
0.122498
-0.019303
0.007136
0.016088
0.082379
-0.019495
0.031814
-0.076155
-0.097244
0.016014
0.005496
-0.004566
0.040773
0.013505
0.044122
0.044097
-0.009510
-0.055881
0.036634
0.047822
0.026339
-0.048520
0.036950
0.163314
0.367303
0.708795
1.090941
1.285449
1.478223
1.265004
1.037359
0.684367
0.361937
0.043732
-0.181680
-0.274426
-0.331166
-0.156844
-0.119743
-0.167546
-0.055456
-0.037103
-0.003410
-0.025577
0.013522
0.062177
-0.028584
0.009563
0.042109
0.048073
0.014533
0.028407
-0.024964
0.035890
0.022757
0.095816
0.053896
0.140042
0.057937
0.174689
0.132557
0.116996
0.139021
0.129493
0.230819
0.227364
0.289173
0.274411
0.346583
0.243239
0.313088
0.336366
0.408257
0.396237
0.391752
0.387695
0.382890
0.394570
0.401653
0.497401
0.428677
0.483471
0.443518
0.552030
0.477244
0.438927
0.547270
0.477241
0.453273
0.443232
0.413339
0.417520
0.391375
0.407495
0.336491
0.413450
0.350539
0.306428
0.337998
0.304762
0.183171
0.211544
0.234900
0.182208
0.156415
0.024969
0.113611
0.089523
-0.010457
0.061301
0.087513
0.110817
0.010054
-0.000083
-0.007868
0.005359
-0.084857
-0.036742
0.024066
-0.043773
-0.063735
-0.024259
-0.037269
-0.033172
-0.102614
-0.048454
-0.078869
-0.161890
-0.055297
-0.034728
-0.105463
-0.027406
-0.040572
-0.063288
-0.070637
-0.070310
-0.068238
-0.024581
-0.084039
-0.053700
-0.168539
-0.113167
-0.058632
-0.107836
-0.097846
-0.015144
-0.042197
-0.124592
-0.143007
-0.075266
0.015541
-0.155090
-0.123109
-0.081647
-0.028851
0.039601
-0.071469
-0.027962
-0.061860
-0.069818
-0.035465
-0.004183
-0.119175
-0.101692
-0.120246
-0.109331
-0.124365
-0.094443
-0.123731
-0.072803
-0.029908
-0.020972
-0.070778
-0.023841
-0.060703
-0.051671
-0.090772
-0.062143
-0.091406
-0.113296
-0.075038
-0.005623
-0.063043
-0.058583
-0.008327
-0.058512
-0.098160
0.010203
-0.091488
-0.075340
-0.004456
0.097977
-0.046918
0.057998
0.014759
-0.096075
0.050353
0.051567
-0.023809
0.161388
0.045853
0.102512
0.057518
0.012801
0.042715
0.031741
0.048301
0.086489
-0.000997
0.080345
0.081646
-0.004938
0.022580
0.021893
0.044690
-0.003461
0.044878
0.055547
-0.040329
-0.064117
-0.099389
-0.052310
-0.050732
-0.073794
-0.068190
-0.109195
-0.083185
-0.051457
-0.058381
-0.095014
-0.188269
-0.038356
-0.091566
-0.141365
-0.181859
-0.030153
-0.050281
-0.075592
-0.088274
-0.114857
-0.115324
-0.074667
-0.134062
0.026594
0.170093
0.321897
0.765354
1.073158
1.361889
1.263555
1.215011
0.833830
0.532245
0.137515
-0.186576
-0.400733
-0.314878
-0.381909
-0.229832
-0.294304
-0.169032
-0.041913
-0.047748
-0.068608
-0.146309
-0.018802
-0.083740
-0.125269
-0.074800
-0.064714
-0.065673
0.003016
-0.058975
-0.079302
-0.035591
-0.005432
-0.002345
0.018793
-0.009089
-0.047930
-0.060867
0.016711
0.125628
0.047097
0.115403
0.066546
0.156238
0.148622
0.216101
0.231152
0.242369
0.160176
0.306416
0.290746
0.357941
0.314605
0.354687
0.403283
0.382722
0.452067
0.483695
0.427556
0.502874
0.408987
0.388168
0.437913
0.426075
0.405945
0.429910
0.465587
0.308973
0.408154
0.262441
0.284114
0.395307
0.195284
0.328645
0.186958
0.307951
0.204479
0.223851
0.159870
0.234544
0.159874
0.154987
0.116575
0.070602
0.071547
0.046600
0.044585
0.094006
0.016445
0.018899
0.016438
-0.037699
-0.021268
-0.104293
-0.011533
-0.037541
-0.008559
-0.096592
-0.037489
-0.059038
-0.169807
-0.051324
-0.022018
-0.098317
-0.018385
-0.036654
-0.060111
-0.059922
-0.065028
-0.148449
-0.015671
-0.094089
-0.072318
-0.059691
-0.166477
-0.013825
-0.102447
-0.112380
-0.066612
-0.053581
-0.043599
-0.047569
-0.146362
-0.134700
-0.020983
-0.067816
0.002033
-0.103824
-0.082487
-0.021663
-0.068552
-0.074491
-0.068868
-0.163899
-0.010480
-0.092404
-0.018374
-0.048263
-0.103750
-0.012345
-0.059455
-0.030695
-0.086268
-0.084011
-0.063544
-0.060968
-0.108218
-0.083708
-0.062606
-0.045228
-0.024064
-0.032853
-0.057653
-0.040867
-0.008993
-0.026615
0.009208
-0.072698
-0.028602
-0.040767
0.024192
-0.123268
-0.096382
-0.063592
0.036278
-0.004635
-0.056654
-0.014980
0.021045
0.074515
0.037405
0.089840
0.043339
0.136568
0.082507
0.183312
0.156038
0.113768
0.173365
0.153337
0.137876
0.107391
0.187522
0.138105
0.117329
0.202166
0.144366
0.137289
0.198415
0.104343
0.123634
0.121534
0.077893
0.112557
0.033966
0.024852
0.028930
0.034819
0.052483
-0.006730
-0.054544
0.090922
0.009789
-0.053891
-0.054277
0.050035
0.016944
0.036082
-0.063864
0.091019
0.041078
-0.040497
-0.019955
0.014420
-0.038958
0.056176
0.018272
-0.025388
-0.030347
0.068249
0.072888
0.172980
0.362349
0.641580
1.028220
1.258211
1.436000
1.403842
1.065404
0.841689
0.478101
0.094985
-0.114017
-0.180096
-0.371197
-0.212896
-0.202461
-0.031153
-0.076986
-0.031897
0.071893
-0.012411
0.045257
-0.020115
-0.020948
-0.035911
0.107787
0.045422
0.010330
0.085353
0.034069
0.054173
0.104650
0.074493
0.144941
0.120753
0.164395
0.205639
0.227950
0.182222
0.235182
0.280728
0.252368
0.351917
0.292043
0.286157
0.355453
0.396719
0.369339
0.364827
0.429978
0.421432
0.486169
0.392418
0.466749
0.534224
0.543625
0.498897
0.682116
0.575647
0.589135
0.551026
0.494591
0.537818
0.654979
0.511806
0.506563
0.507830
0.545338
0.398580
0.452562
0.494033
0.397600
0.434163
0.419866
0.427982
0.407455
0.261094
0.288401
0.282020
0.253804
0.230890
0.251898
0.248879
0.228510
0.197782
0.145671
0.089521
0.252125
0.155921
0.109127
0.142597
0.063799
0.119534
0.042614
0.154032
0.099270
0.069045
0.062261
0.098847
0.057960
0.045687
0.047776
0.063833
-0.036450
0.054717
0.143642
0.015163
0.047944
0.112239
0.024751
0.055436
0.025080
0.008271
0.080506
0.060642
0.121828
0.065507
0.063559
0.030680
0.111846
0.008154
0.064826
0.054882
0.066915
0.057282
0.126029
0.122398
0.095076
0.038954
0.020496
0.068001
0.117907
0.093742
0.035260
0.139812
0.132462
0.208942
0.122299
0.044246
0.079136
0.090863
0.122117
0.101070
0.084328
0.016334
0.052398
0.036062
0.135043
0.039729
0.087468
-0.050195
0.096081
0.048813
0.084455
0.036778
0.089701
0.071494
0.054389
0.043763
0.012495
0.118570
0.128839
0.045550
0.104053
0.147437
0.086373
0.141778
0.087997
0.146197
0.181299
0.084587
0.076167
0.132883
0.099355
0.257376
0.180186
0.250683
0.213319
0.213156
0.255065
0.268225
0.268066
0.332147
0.257878
0.257003
0.295929
0.197713
0.210158
0.245291
0.178644
0.208001
0.237930
0.200944
0.160685
0.103747
0.183474
0.136511
0.143975
0.070262
0.180845
0.134789
0.089371
0.113415
0.152103
0.084213
0.182407
0.119110
0.075644
0.122660
0.078473
0.014024
