0.002649
0.019623
0.058160
-0.033792
0.005177
0.001953
0.040487
0.005486
0.001640
0.017313
0.017455
0.087904
0.005201
-0.022949
0.023995
-0.018095
0.067645
-0.049012
0.024594
-0.013041
0.070822
0.057998
0.019263
0.082893
-0.033555
0.043029
0.011791
0.114208
0.107434
0.123197
0.185358
0.105211
0.098802
0.072447
0.165397
0.082615
0.193304
0.143048
0.221056
0.182676
0.178952
0.138095
0.167878
0.178353
0.209238
0.189101
0.209668
0.224216
0.258908
0.214115
0.224054
0.182763
0.196180
0.141693
0.147189
0.138799
0.123006
0.062621
0.196922
-0.003034
0.099198
0.072675
0.067200
0.121713
0.077322
0.002249
0.070124
0.056422
0.049372
0.055386
0.014389
0.051087
0.039461
0.054657
0.051151
0.010501
0.037630
0.110075
0.017349
0.014329
0.047247
0.042250
0.076135
0.164716
0.409376
0.593888
0.962721
1.308783
1.439936
1.453959
1.209672
0.922370
0.507295
0.215022
-0.036438
-0.274430
-0.222157
-0.131098
-0.071960
-0.100810
-0.035783
0.078133
-0.011785
0.113438
0.019053
0.037314
0.116582
0.075374
0.018433
0.086876
0.109299
0.113014
0.134725
0.077320
0.222904
0.101025
0.117350
0.092863
0.195134
0.181298
0.214117
0.222777
0.215240
0.283286
0.403401
0.247482
0.315214
0.355549
0.355710
0.408698
0.385553
0.461726
0.424890
0.483072
0.486724
0.465892
0.602711
0.477112
0.516641
0.590613
0.556238
0.547281
0.594438
0.606595
0.523660
0.562571
0.643302
0.579001
0.566039
0.589899
0.462896
0.536200
0.504744
0.448149
0.460690
0.362743
0.506012
0.382487
0.443418
0.359127
0.370573
0.396759
0.288805
0.327821
0.319967
0.196393
0.188923
0.259733
0.148723
0.227465
0.198224
0.212916
0.212399
0.138456
0.155074
0.059820
0.113189
0.068685
0.146764
0.072511
0.096570
0.143016
0.097942
0.204822
0.145960
0.073107
0.064533
0.109044
0.164222
0.087906
0.110188
0.107834
0.027442
0.145895
0.169200
0.111821
0.045376
0.183359
0.089637
0.082922
0.048940
0.104312
0.121803
0.021933
0.076098
0.064789
0.091762
0.163184
0.064968
0.077835
0.102654
0.060371
0.080969
0.125891
0.096714
0.039656
0.115939
0.088367
0.077464
0.100835
0.062430
0.126176
0.144956
0.073102
0.114321
0.054934
0.097271
0.109726
0.096697
0.048000
-0.003995
0.083972
0.109576
0.110845
0.029723
0.040792
0.080366
0.096281
0.173077
0.091005
0.092683
0.146618
0.157407
0.099056
0.144472
0.094525
0.030223
0.139497
0.177455
0.109245
0.093777
0.114415
0.129941
0.137711
0.216448
0.227605
0.183142
0.171721
0.249791
0.157620
0.200967
0.198279
0.231234
0.295281
0.290646
0.204114
0.235058
0.249248
0.185859
0.316066
0.174237
0.203073
0.255718
0.180137
0.178765
0.197006
0.185414
0.162755
0.143210
0.193029
0.131507
0.121404
0.173725
0.089681
0.139118
0.128554
0.157263
0.106176
0.098280
0.136267
0.164219
0.096221
0.076365
0.086196
0.142762
0.105966
0.122450
0.062185
0.007714
0.007444
0.010499
0.029884
0.018321
0.151396
0.306502
0.443740
0.794285
1.164238
1.377023
1.480784
1.401605
1.080572
0.695144
0.412426
0.011586
-0.170443
-0.184574
-0.110049
-0.172143
-0.038594
0.020533
-0.005191
0.028809
0.043858
0.098825
0.081541
0.083400
0.154445
0.205921
0.107129
0.042569
0.049933
0.127776
0.029689
0.175535
0.113935
0.063337
0.151207
0.114132
0.103267
0.214157
0.280046
0.183270
0.302264
0.156788
0.299908
0.380922
0.330610
0.355567
0.326719
0.360694
0.388050
0.345865
0.407027
0.448416
0.418573
0.493215
0.466489
0.533970
0.514626
0.630351
0.499058
0.496076
0.550088
0.594843
0.531001
0.528641
0.564736
0.540973
0.546672
0.474837
0.505208
0.476103
0.535079
0.373800
0.495166
0.325176
0.399133
0.381487
0.366655
0.285633
0.289294
0.332012
0.225467
0.146285
0.266686
0.175908
0.162190
0.213061
0.150349
0.160349
0.165987
0.127505
0.082631
0.162514
0.115216
0.107932
0.092294
0.085788
0.019404
0.023251
0.002653
0.041859
0.104427
-0.016355
0.027924
0.069115
-0.058216
0.104820
0.024925
0.004463
-0.031818
0.010548
0.026886
-0.018342
-0.079594
0.038725
0.017555
0.002363
-0.025366
0.045701
0.005160
0.021169
0.004973
-0.030728
0.054762
0.058495
-0.004708
-0.011620
0.007456
0.030997
-0.051194
0.061055
-0.042561
-0.074039
0.031764
0.066285
0.043637
-0.030259
0.011519
0.005707
0.015199
0.000002
0.029926
-0.080059
-0.050458
-0.058708
-0.018164
0.011650
0.040338
0.041358
0.000886
0.011373
-0.024057
-0.003318
0.080575
-0.018684
0.011951
0.008491
0.026177
-0.068054
0.051183
0.051680
0.003476
0.002857
0.003053
-0.060975
-0.015832
0.062674
0.022864
0.041838
0.088520
0.021153
0.106999
0.150356
0.067862
0.067154
0.086420
0.109896
0.192922
0.145317
0.119962
0.085881
0.183341
0.119762
0.149223
0.138410
0.028080
0.158080
0.069811
0.121202
0.117331
0.139163
0.070355
0.062161
0.121090
-0.004227
0.039117
0.018943
0.024493
0.051719
-0.012082
0.029267
0.076530
-0.041006
-0.006214
0.008291
-0.047267
-0.022351
-0.061969
-0.002047
-0.071640
0.019824
-0.113382
-0.024588
0.031893
-0.001254
-0.030503
-0.028219
-0.048413
-0.039959
-0.090689
-0.079981
-0.034482
0.039447
0.238001
0.474915
0.798176
1.159431
1.339204
1.396892
1.230595
0.839958
0.488215
0.133792
-0.096203
-0.251012
-0.281254
-0.388000
-0.159883
-0.225907
-0.134326
-0.031873
-0.110977
0.009058
0.011425
-0.110141
-0.028878
-0.021663
0.012155
0.014160
0.010915
0.011407
0.101235
0.062725
0.062422
0.021723
0.033542
0.040211
0.065644
0.105773
0.082691
0.113577
0.151107
0.108504
0.213676
0.080152
0.245303
0.223535
0.218470
0.262705
0.305023
0.331547
0.311902
0.260687
0.432325
0.384540
0.429813
0.346375
0.435911
0.389730
0.398554
0.452424
0.486654
0.429994
0.524847
0.530437
0.459912
0.535442
0.392232
0.443931
0.325593
0.401340
0.477751
0.450274
0.341946
0.351650
0.372965
0.312853
0.260920
0.240844
0.231360
0.293315
0.201449
0.157677
0.136876
0.179229
0.166382
0.084411
0.111608
0.107826
0.030411
0.107084
0.078911
0.046273
0.032608
0.026652
0.033539
-0.057121
-0.017236
-0.015896
0.072177
-0.110869
0.038925
0.013711
-0.049721
-0.036837
0.012235
-0.097446
-0.148447
-0.080770
-0.003452
0.025327
0.035225
0.009957
0.032354
-0.023530
-0.059080
-0.117297
-0.046640
-0.061901
-0.028520
-0.042431
-0.031113
0.065638
-0.087493
-0.046248
-0.007524
0.006598
-0.049521
0.051722
-0.054607
0.033187
-0.057926
-0.046220
-0.033585
-0.044600
-0.045788
-0.035425
-0.036771
-0.056321
-0.063274
0.006301
-0.006530
-0.002421
0.031721
0.051176
0.010508
-0.018881
-0.111127
0.070081
0.046495
0.011840
-0.025469
-0.020156
-0.024930
0.020849
0.009969
-0.066792
-0.000975
-0.029017
-0.029718
0.016212
0.003222
-0.036879
0.063091
0.013168
0.022789
0.033070
-0.007836
0.075277
0.076691
-0.013189
0.094435
0.017832
-0.021017
0.079565
0.119371
0.054603
0.099116
0.110051
0.144119
0.191964
0.187115
0.088359
0.162936
0.111627
0.213093
0.188786
0.109875
0.200783
0.215748
0.126832
0.042001
0.137661
0.178176
0.149604
0.080386
0.077211
0.133516
-0.026922
0.009515
0.027643
0.077240
0.073017
-0.007745
0.071692
-0.087372
0.035804
0.018591
-0.017103
-0.021038
0.035517
0.061541
0.030022
0.002635
0.045331
-0.010855
0.084928
0.002920
0.107019
0.009333
-0.037036
-0.094939
0.012751
0.108569
0.436385
0.702691
1.046105
1.327025
1.431871
1.404300
1.111068
0.854569
0.415730
0.137376
-0.083053
-0.180133
-0.270755
-0.185851
-0.086924
0.025688
0.081780
0.087447
0.055128
0.082113
0.036974
-0.020224
0.075459
0.102126
0.086275
0.138225
0.004873
0.040804
0.041410
0.082743
0.105510
0.110285
0.156440
0.137601
0.177047
0.174478
0.207228
0.199254
0.153462
0.197146
0.266244
0.334283
0.287047
0.282010
0.303412
0.348139
0.327085
0.426767
0.508791
0.484225
0.486617
0.457358
0.529814
0.459677
0.515698
0.548364
0.490189
0.570838
0.566911
0.557908
0.569268
0.567287
0.503131
0.520395
0.516568
0.596145
0.542374
0.432729
0.447334
0.430952
0.474253
0.390117
0.412648
0.358172
0.432435
0.312807
0.345390
0.345036
0.265135
0.241955
0.242833
0.354868
0.188269
0.189947
0.174400
0.204090
0.238411
0.138335
0.120195
0.120043
0.129728
0.190204
0.082298
0.056323
0.135945
0.117014
0.134190
0.149641
0.037046
0.064758
0.074013
0.015147
0.122683
0.071611
0.099587
0.034040
0.059928
0.127346
0.112534
0.125992
0.089319
0.110769
0.082927
0.176815
0.124085
0.093074
0.082588
0.105820
0.135775
0.126016
0.068019
0.126595
0.103190
0.117309
0.067062
0.113644
0.136317
0.094523
0.120066
0.172156
0.065530
0.092095
0.113293
0.120871
0.102628
0.065327
0.031366
-0.017116
0.119361
0.028391
0.100090
0.061205
0.091070
0.091690
0.183388
0.051441
0.056743
0.025104
0.085445
0.160021
0.168895
0.069346
0.023033
0.212349
0.108794
0.101936
0.069634
0.073637
0.117302
0.086267
0.046372
0.107283
0.039512
0.144373
0.183004
0.176942
0.088845
0.085236
0.251960
0.225706
0.186292
0.231481
0.255644
0.173834
0.162885
0.204435
0.272629
0.226370
0.266880
0.296979
0.252758
0.290010
0.292943
0.231168
0.314975
0.244412
0.227500
0.273554
0.231403
0.245573
0.189707
0.227368
0.136440
0.162887
0.115125
0.173598
0.071751
0.165699
0.152638
0.058496
0.064058
0.098772
0.086441
0.118891
0.142687
0.096275
0.073232
0.115648
0.141254
0.059753
0.113921
0.030095
0.119744
-0.009316
0.119337
0.046920
0.075262
0.040904
-0.007460
0.165075
0.311544
0.686674
0.926602
1.183296
1.500000
1.487209
1.379195
0.997906
0.749712
0.320703
-0.027098
-0.091962
-0.282759
-0.148203
-0.096071
-0.000274
0.050128
0.026587
0.091214
0.157099
0.080600
0.088378
0.045785
0.119235
0.136173
0.168879
0.154476
0.152807
0.194804
0.165907
0.179274
0.083710
0.145742
0.232869
0.143836
0.189847
0.310074
0.302272
0.225959
0.231182
0.345697
0.419249
0.304571
0.255182
0.355335
0.382288
0.455900
0.453553
0.388419
0.450400
0.453407
0.462629
0.528154
0.547864
0.561112
0.507342
0.507035
0.658575
0.529195
0.556588
0.560650
0.552877
0.573517
0.562709
0.592164
0.632733
0.609522
0.448723
0.445508
0.562787
0.420398
0.434220
0.364121
0.429948
0.353264
0.386674
0.403823
0.269896
0.228954
0.326803
0.278932
0.145110
0.272520
0.234403
0.158088
0.141380
0.127166
0.108483
0.140326
0.170118
0.139191
0.077813
0.062502
0.076092
0.155305
0.096732
0.085368
0.083574
0.119494
0.111085
-0.076735
0.087993
0.066161
0.026195
0.098622
-0.065772
0.063174
0.043334
0.123338
0.039795
0.104015
0.020016
0.039063
0.023603
0.053561
0.035607
0.036566
0.038837
-0.027554
0.064663
0.044856
0.101563
0.035367
0.071477
-0.036451
-0.019397
0.074484
0.033840
0.080460
0.023548
0.073365
0.060579
-0.002605
0.076138
0.097368
0.049970
0.076371
0.095212
0.066512
0.010517
0.003872
0.022125
0.082864
0.014203
-0.008651
0.101127
0.014093
0.028595
0.039645
0.047980
0.052324
0.063506
0.106108
0.086390
0.114224
-0.091895
0.046153
0.004686
0.058285
0.033744
0.024864
-0.047716
-0.000441
0.028643
0.004676
0.031390
0.044001
0.053919
0.057450
0.191148
0.120167
0.048766
0.160213
0.151222
0.127930
0.129364
0.114409
0.146039
0.144239
0.148116
0.221251
0.076099
0.297399
0.165313
0.143336
0.163634
0.150398
0.122213
0.169159
0.149566
0.146655
0.178907
0.113221
0.105716
0.137030
0.134608
0.090145
0.043169
0.010993
-0.027380
0.005554
0.001127
0.073991
0.018733
0.120267
-0.009124
0.002426
-0.022368
-0.011461
0.041366
0.080644
-0.050217
0.005759
0.006620
0.018018
-0.106810
-0.051904
-0.068437
-0.070026
-0.075710
0.133406
0.293488
0.621613
0.942938
1.178226
1.388842
1.317157
1.185919
0.762284
0.374067
0.104550
-0.116421
-0.253159
-0.293350
-0.225190
-0.114581
-0.088407
-0.167031
-0.006329
-0.022423
-0.035297
-0.052334
-0.045089
0.020789
-0.024170
-0.049518
-0.012304
-0.014928
-0.057499
-0.011053
0.038818
0.058569
0.147022
0.075125
0.030150
0.061319
0.077414
0.086552
0.056446
0.171072
0.138906
0.146612
0.129561
0.228888
0.262697
0.246841
0.223416
0.292119
0.308219
0.330890
0.300938
0.391971
0.355127
0.491660
0.473971
0.360639
0.444630
0.445415
0.427939
0.463559
0.459540
0.523654
0.427383
0.494076
0.449777
0.374798
0.455459
0.427513
0.379198
0.350958
0.333226
0.365727
0.269985
0.262177
0.325409
0.308165
0.382566
0.125430
0.213027
0.162442
0.114343
0.187287
0.102390
0.089192
0.083499
0.071490
0.100536
0.064324
0.021972
-0.002397
0.030266
-0.007015
-0.056779
-0.012677
-0.042976
-0.020074
-0.090071
-0.090326
-0.083396
-0.088121
-0.071699
-0.117469
-0.101276
0.002216
-0.078497
-0.130800
-0.105010
-0.055684
-0.044875
-0.045220
-0.013524
0.058059
-0.001629
-0.067434
-0.050910
-0.075871
-0.111392
-0.035326
-0.108268
-0.096809
-0.107395
-0.091528
-0.078963
-0.057693
0.082509
-0.036657
-0.033441
-0.082427
-0.007882
-0.096460
-0.091482
-0.125185
-0.092632
-0.158294
-0.107853
-0.103281
-0.058041
-0.120743
-0.072582
-0.028471
-0.097061
-0.099807
-0.140713
-0.104602
0.003147
-0.105129
0.022758
-0.068268
-0.158098
-0.026013
-0.112087
-0.087979
-0.130658
-0.016991
-0.074913
-0.065949
-0.123028
-0.127357
-0.006537
-0.034592
-0.015819
-0.068066
-0.023770
-0.075326
-0.069608
-0.015796
0.027277
-0.011923
-0.078334
0.079910
-0.087570
0.042281
0.028249
0.061692
0.083499
0.040704
0.099437
0.079882
0.112813
0.174535
0.073052
0.074839
0.084423
0.055694
0.074028
0.010388
0.109403
0.077691
0.111977
0.130173
0.006447
0.093893
0.080131
-0.019274
-0.038389
0.009849
0.050408
-0.095499
-0.009560
-0.010980
-0.046636
-0.041032
-0.060150
-0.076939
-0.024052
-0.091567
-0.083194
-0.099902
-0.020602
-0.029616
-0.075641
-0.109361
-0.115771
-0.124222
-0.045203
-0.079038
-0.104240
-0.141074
-0.128592
-0.125534
-0.049798
0.190288
0.323108
0.751397
1.084815
1.210951
1.275791
1.265434
0.962022
0.579611
0.246192
-0.053109
-0.239987
-0.288348
-0.364675
-0.211095
-0.174767
-0.104411
-0.026383
-0.068442
0.000520
-0.044153
-0.119667
-0.047950
0.007496
-0.048989
-0.010151
-0.079532
-0.010497
-0.033924
0.045130
0.004367
0.020527
0.060863
0.059657
0.004304
0.129188
0.082563
0.259265
0.142815
0.191273
0.121069
0.212069
0.219882
0.237742
0.286704
0.261042
0.270395
0.339269
0.282399
0.377863
0.393312
0.355141
0.426870
0.451007
0.428914
0.438457
0.433677
0.486161
0.471447
0.523418
0.444803
0.455638
0.448021
0.462003
0.489096
0.431431
0.463466
0.402467
0.429162
0.298013
0.351606
0.343244
0.291702
0.321782
0.385613
0.169268
0.291845
0.186124
0.167299
0.149656
0.219925
0.165399
0.153122
0.164284
0.060248
0.066808
0.051064
0.063525
0.025549
-0.039954
0.079519
0.094232
-0.026260
0.102415
-0.026705
0.047925
-0.023527
0.031706
0.044724
0.019671
-0.041845
-0.110011
0.006110
-0.061090
-0.062333
-0.067444
-0.040378
0.008552
0.008308
0.052310
-0.063049
0.006080
-0.008839
-0.028009
-0.038076
-0.024474
-0.020192
-0.053785
0.015890
-0.016161
-0.039450
0.006396
-0.050881
0.022874
0.027052
-0.000300
-0.021548
-0.001088
0.011576
0.035983
0.065528
0.018959
-0.058980
-0.004228
-0.009186
0.054770
0.024141
-0.045866
-0.004116
0.014805
0.009847
0.065914
0.030186
-0.027723
-0.034774
0.083905
-0.092474
-0.001539
0.018995
0.055875
0.032425
-0.010171
-0.036982
-0.031991
0.033245
0.030950
0.009600
-0.021476
0.047354
0.049127
0.017888
0.094907
-0.022864
0.107103
0.055041
0.125460
-0.002119
0.076412
0.101273
0.082858
0.134757
0.089069
0.140198
0.051208
0.154449
0.164171
0.158165
0.242998
0.198149
0.282472
0.232454
0.251310
0.182613
0.183552
0.183813
0.165214
0.162419
0.171060
0.149733
0.153670
0.121344
0.053512
0.256024
0.157336
0.148444
0.025441
0.122436
0.135320
0.070508
-0.045440
0.154293
0.014903
0.056647
-0.001371
0.109344
0.115811
0.060382
0.047627
-0.014281
0.005360
0.051741
0.052165
0.062233
-0.025381
0.000304
0.066663
0.007782
-0.064098
-0.008826
0.066682
0.152144
0.318747
0.649932
1.005473
1.229553
1.364867
1.361504
1.199089
0.945944
0.548122
0.153115
-0.096690
-0.163793
-0.276833
-0.180250
-0.153872
-0.050857
0.045332
0.012867
0.053736
0.032107
-0.011063
0.079051
0.035416
0.045267
0.018494
0.063181
0.099276
0.106498
0.133553
0.099142
0.146803
0.194036
0.113157
0.107738
0.157766
0.236551
0.209197
0.220167
0.232554
0.237588
0.333600
0.309418
0.230680
0.271550
0.303107
0.367737
0.438632
0.347370
0.394842
0.393229
0.404028
0.504547
0.532643
0.423439
0.586070
0.454496
0.574340
0.466126
0.509557
0.554157
0.595358
0.545187
0.571295
0.506589
0.558998
0.517116
0.523113
0.448298
0.443825
0.462686
0.456429
0.432368
0.464389
0.451431
0.383824
0.309707
0.296739
0.316156
0.294589
0.261491
0.265706
0.257719
0.142594
0.184840
0.152393
0.126325
0.250997
0.210073
0.119391
0.080857
0.185335
0.126192
0.152655
0.010474
0.125103
0.057587
0.124271
0.079329
0.099133
0.097532
0.022592
0.089004
0.077466
0.103600
0.080526
0.147082
0.016413
0.046065
0.021184
0.031326
0.058619
0.035117
0.081165
0.047160
0.039138
0.019858
-0.025316
0.108754
0.064903
0.046974
0.006262
0.050704
-0.014190
0.021674
0.012050
0.027088
0.040402
0.007537
0.096487
0.014604
-0.002033
0.074086
0.065609
0.101329
-0.016552
0.035115
0.105589
0.085403
0.015967
0.073130
-0.014104
-0.025564
0.041097
0.009552
0.089838
-0.021577
0.010707
0.020735
-0.016522
0.048108
-0.003394
0.031737
0.051053
0.078072
0.042751
0.079568
-0.003715
0.073574
-0.005560
0.090574
0.083673
0.043123
0.034407
-0.010892
0.062690
0.051931
0.160431
0.127248
0.139128
0.035125
0.046334
0.117103
0.146127
0.132770
0.178840
0.144287
0.123651
0.125042
0.208839
0.170146
0.190264
0.219460
0.198636
0.091943
0.147770
0.152259
0.154440
0.140770
0.083405
0.079148
0.038561
0.152655
0.196420
0.119542
0.042934
0.113680
0.029963
0.120632
0.101135
0.078405
0.046736
0.072757
0.005767
-0.035524
0.021375
0.067952
0.032174
0.034796
0.084366
-0.055258
0.074085
0.016630
0.001076
0.011201
0.004060
-0.064340
0.039218
-0.052253
0.001202
0.078931
0.126105
0.319910
0.783786
1.037056
1.371604
1.353706
1.279404
1.075811
0.748026
0.338312
0.030489
-0.239694
-0.287367
-0.194578
-0.136307
-0.185764
-0.110987
-0.006361
-0.032469
-0.017092
0.029225
0.012132
-0.001346
-0.027406
-0.023663
0.029785
0.052625
0.022576
0.088631
0.024054
0.086367
0.126733
0.106393
0.052472
0.061770
0.108384
0.113970
0.208127
0.153100
0.244746
0.123992
0.117889
0.208126
0.208951
0.269564
0.313003
0.334819
0.274441
0.383028
0.422020
0.454548
0.341912
0.454372
0.469026
0.407787
0.473269
0.421553
0.398711
0.535636
0.593464
0.496354
0.499496
0.493673
0.429826
0.463508
0.414896
0.399405
0.359646
0.396400
0.384261
0.485040
0.320088
0.288947
0.275896
0.266206
0.285534
0.246196
0.248210
0.226502
0.133617
0.104845
0.207651
0.122026
0.141828
0.136136
0.012868
0.066365
0.099954
0.014824
0.027114
-0.008447
-0.006586
0.003820
0.019555
0.003039
-0.049450
-0.031393
0.002230
0.002006
0.040293
-0.100508
-0.012427
-0.100790
-0.105430
-0.108906
-0.086402
0.039226
-0.041166
0.002291
-0.037836
-0.114885
-0.129482
-0.049860
-0.092578
-0.132941
-0.019072
-0.109278
-0.063963
-0.003809
-0.092962
-0.130518
-0.091623
-0.150680
-0.063710
-0.097008
-0.018551
-0.120178
-0.092542
-0.119066
-0.119781
-0.085490
-0.092409
-0.031624
-0.032592
-0.073345
-0.055751
-0.174120
-0.096049
-0.103260
-0.112702
-0.223584
-0.029382
-0.032716
-0.096607
-0.026600
-0.100864
-0.074298
-0.096204
-0.024509
-0.060237
-0.037884
-0.105969
-0.094750
-0.057859
-0.095959
-0.121471
-0.090900
-0.096021
0.011684
-0.044889
-0.094033
-0.025957
0.008083
0.009477
-0.083121
-0.026911
-0.073635
-0.090038
0.034730
-0.026813
-0.061046
-0.001323
-0.004576
-0.013489
0.032147
0.086694
0.017688
0.108924
0.085904
0.096189
0.119617
0.144463
0.088727
0.108114
0.110460
0.074300
-0.016209
0.080265
-0.037633
0.034556
-0.031390
-0.018225
0.011097
0.005689
0.087604
0.003815
-0.005554
-0.028439
0.041698
-0.076651
-0.054265
-0.060108
-0.145713
-0.100139
-0.068416
-0.077456
-0.065764
-0.119355
-0.107300
-0.144436
-0.047476
-0.101416
-0.085527
-0.125751
-0.088100
-0.111763
-0.146999
-0.096761
-0.079564
-0.099507
0.015906
0.207229
0.472061
0.790657
1.099223
1.363350
1.243813
1.089147
0.810661
0.457038
0.159979
-0.144699
-0.267665
-0.362049
-0.361192
-0.270697
-0.144857
-0.152316
-0.148821
-0.134947
-0.089586
-0.125830
-0.054710
-0.077569
-0.057817
-0.067570
-0.012100
-0.034317
-0.075170
-0.029225
-0.026539
-0.079379
-0.042692
0.007480
-0.003507
0.021524
-0.010779
0.027560
0.082988
0.076216
0.063573
0.128565
0.139197
0.181993
0.261834
0.154403
0.204159
0.243747
0.286551
0.291123
0.269354
0.288256
0.281959
0.327406
0.311498
0.323641
0.353960
0.466840
0.477782
0.408904
0.497854
0.455279
0.312749
0.482380
0.351846
0.388808
0.354261
0.428956
0.385584
0.357913
0.317428
0.238016
0.301758
0.267999
0.220680
0.224977
0.165731
0.163649
0.172571
0.136222
0.201191
0.140088
0.081165
0.076368
0.068506
-0.015009
0.117729
0.034141
0.024780
-0.066290
-0.134980
0.014551
0.004957
0.010232
-0.050631
-0.015386
-0.106400
-0.069962
-0.036272
-0.074197
0.039674
-0.158483
-0.063217
-0.028772
-0.107245
-0.039215
-0.140874
-0.085606
-0.032842
0.000177
-0.102032
-0.090215
-0.088482
0.013130
-0.063577
-0.009993
-0.116100
0.008189
-0.046316
-0.036055
-0.089478
-0.069063
-0.024403
0.029848
0.008445
-0.058827
-0.125587
-0.080727
0.013849
0.023924
-0.089072
-0.131067
-0.131364
-0.007838
-0.089881
-0.016353
-0.061938
-0.044676
-0.074627
0.009138
-0.017361
-0.130652
-0.071365
-0.038535
-0.083009
-0.018582
-0.022328
-0.064407
-0.090151
-0.091959
-0.095143
-0.089862
-0.091593
-0.014237
-0.105347
0.007683
-0.071827
-0.010726
-0.036508
-0.046251
-0.043096
-0.015302
0.037502
0.069598
-0.018816
0.053106
-0.026908
-0.002987
0.042157
0.061131
0.069328
0.040074
0.046119
0.031061
0.073339
0.157513
0.086000
0.087994
0.153664
0.088524
0.095811
0.143477
0.168588
0.207765
0.121337
0.105548
0.066530
0.127792
0.065236
0.044230
0.154991
0.114830
0.082028
0.203100
-0.006639
0.063617
0.083680
0.041922
0.006820
0.036502
-0.045668
0.040655
0.071279
0.001426
0.044502
-0.046470
-0.012914
-0.049869
-0.029034
-0.087139
-0.040067
-0.051197
-0.011729
-0.052385
-0.016402
0.037820
0.020255
0.035248
-0.037218
-0.010971
0.007290
0.113624
0.335276
0.626657
0.963020
1.310411
1.363979
1.348813
1.046029
0.752861
0.455420
0.042873
-0.103762
-0.233694
-0.235962
-0.327833
-0.143152
-0.060473
-0.018162
-0.009028
-0.057376
-0.008406
0.021887
-0.003549
0.074087
-0.061678
0.058235
0.072439
0.005814
0.018048
0.129758
0.103460
0.092241
0.137398
0.063853
0.103693
0.218545
0.191227
0.256561
0.141355
0.188320
0.138701
0.242084
0.258960
0.281964
0.342900
0.226814
0.343504
0.401101
0.376511
0.402644
0.367097
0.425794
0.482568
0.523948
0.486141
0.503956
0.477160
0.547712
0.552412
0.518619
0.561659
0.550334
0.662476
0.558163
0.568572
0.480878
0.460921
0.459549
0.471594
0.449397
0.438148
0.439964
0.465857
0.426858
0.341394
0.329269
0.409900
0.339880
0.293097
0.309236
0.244785
0.264107
0.224545
0.250361
0.197625
0.180735
0.102714
0.173778
0.133231
0.157041
0.135302
0.016853
0.130037
0.094832
0.117068
0.078673
0.069806
0.055632
0.059042
0.072575
0.059322
0.150754
0.021939
0.059306
0.054609
0.110270
0.065962
0.063880
0.016390
0.086059
0.044028
0.023394
0.099433
0.063588
0.094216
0.103331
0.039739
0.061364
0.002421
0.038663
0.116406
0.019577
0.095215
0.070543
0.013164
0.017797
0.079680
0.127913
0.071656
0.100402
0.030692
0.023306
0.120559
0.024039
0.020127
0.050694
0.052551
0.031523
-0.023014
0.057546
-0.060238
0.079082
0.028141
0.100833
-0.012328
0.115277
0.091345
0.080902
-0.011092
0.070049
0.099161
0.109864
0.058562
-0.004110
0.050431
0.105475
0.141393
0.118610
0.020271
0.017734
0.134449
0.117131
0.090357
0.100192
0.073330
0.124512
0.078186
0.071815
0.163593
0.165096
0.103454
0.207199
0.153620
0.137221
0.246569
0.217239
0.181841
0.318927
0.251832
0.194512
0.313567
0.294761
0.242352
0.235145
0.259347
0.221487
0.280410
0.151423
0.266200
0.134042
0.204492
0.172394
0.186815
0.125901
0.092800
0.150989
0.100159
0.168614
0.133343
0.080921
0.093311
0.138916
0.097015
0.100318
0.141889
0.077682
0.103099
0.070351
0.046151
0.076072
0.044091
