-0.026908
0.008965
0.042920
0.074925
0.052273
-0.060084
0.014241
0.005717
0.039302
0.039828
-0.036629
-0.022871
0.039561
-0.006457
-0.013771
0.026854
0.009062
0.051382
0.041208
0.049733
0.054684
0.040826
0.022056
0.100920
-0.007775
0.043072
0.077273
0.105271
0.053070
0.027919
0.161925
0.093980
0.084851
0.031952
0.191898
0.203742
0.219799
0.230930
0.166398
0.219753
0.215931
0.233501
0.203502
0.184964
0.296211
0.118422
0.175959
0.124109
0.162434
0.159626
0.100714
0.186567
0.107718
0.188794
0.055945
0.146430
0.056340
0.130263
0.043623
0.136606
-0.058748
0.001905
0.073668
0.038187
0.090440
-0.013559
0.069732
0.020557
0.051840
0.011079
0.004882
0.117201
-0.004236
0.007462
0.062817
0.036238
0.003622
0.073807
0.100708
0.437522
0.704043
0.991678
1.323620
1.434451
1.445730
1.235074
0.892277
0.570874
0.219581
-0.073390
-0.170060
-0.206264
-0.141048
-0.044937
0.025263
0.022920
-0.056061
0.146396
0.133183
0.108189
0.181323
0.113916
0.106394
0.151313
0.063577
0.098928
0.220656
0.162467
0.259951
0.149369
0.184431
0.162499
0.171873
0.170712
0.192815
0.248145
0.261125
0.367274
0.291072
0.356420
0.424792
0.435070
0.421138
0.432804
0.440137
0.528212
0.473274
0.491463
0.632513
0.574962
0.618176
0.575136
0.560484
0.549781
0.576646
0.542787
0.631009
0.563216
0.481023
0.479450
0.635524
0.508445
0.523496
0.567969
0.507264
0.538246
0.436113
0.446438
0.418954
0.364642
0.403647
0.324084
0.380761
0.334721
0.315298
0.347160
0.231284
0.239925
0.250529
0.193408
0.107691
0.212645
0.267357
0.138590
0.168875
0.161507
0.112068
0.197420
0.131160
0.156784
0.148560
0.122420
0.101943
0.064030
0.024007
0.162752
0.143250
0.038710
0.036890
0.030433
0.030374
0.077982
0.045815
0.122202
0.083603
0.072728
0.113569
0.138871
0.075365
0.047421
0.138967
0.080490
0.054068
0.063685
0.133863
0.050224
0.047734
0.167895
0.081930
0.125872
0.065440
0.050476
0.038248
0.019634
0.137155
0.093519
0.068686
0.017159
0.070574
0.076139
0.141888
0.071184
0.006565
0.046123
0.125007
0.151401
0.162434
0.037815
0.056774
0.102297
0.096273
0.140142
0.139903
0.070825
0.104317
0.087086
0.104682
0.097682
0.130159
0.111849
0.121609
0.094455
0.097550
0.049972
0.064934
0.161308
0.165128
0.153961
0.133046
0.238658
0.135504
0.196338
0.214870
0.174957
0.309802
0.153859
0.324191
0.262355
0.293171
0.285899
0.265907
0.264124
0.201637
0.238373
0.274144
0.281498
0.164839
0.173131
0.159017
0.229792
0.117795
0.092211
0.219215
0.161195
0.135929
0.057160
0.214495
0.079037
0.116554
0.149479
-0.002673
0.081832
0.062278
0.050010
0.095290
0.078271
0.071233
0.109257
0.105149
0.062986
0.101857
0.088945
0.086780
0.045274
0.053379
0.004853
0.209976
0.289904
0.566365
0.867930
1.176311
1.398038
1.443715
1.296227
1.020840
0.691626
0.304141
0.052601
-0.196347
-0.160952
-0.102759
-0.035827
-0.089175
0.069301
0.084661
0.006808
0.045869
0.100797
0.058252
0.065013
0.134278
0.083454
0.083106
0.119088
0.101200
0.129486
0.204138
0.125624
0.119624
0.145445
0.171629
0.181494
0.260504
0.282220
0.184065
0.315682
0.277322
0.316715
0.346460
0.324909
0.345052
0.391376
0.353311
0.454243
0.459243
0.559018
0.453449
0.562166
0.491671
0.449690
0.572981
0.546940
0.480782
0.544164
0.500292
0.639612
0.577593
0.571288
0.644597
0.549379
0.455225
0.459309
0.525220
0.477927
0.444187
0.442782
0.353834
0.353778
0.333712
0.327753
0.331563
0.296078
0.270703
0.182752
0.282973
0.232482
0.224158
0.138613
0.226354
0.220149
0.075395
0.143548
0.111572
0.168582
0.079979
0.126566
0.078012
0.070631
0.053792
0.010884
0.003300
0.005990
0.011558
0.056233
0.054779
0.007228
0.035908
0.057866
0.009933
0.051459
-0.000231
-0.010572
0.001515
0.130978
-0.090333
-0.046539
-0.017375
0.040762
0.005401
0.007380
0.015303
-0.048873
0.055575
0.035591
-0.039859
-0.112133
-0.070984
0.050230
-0.083866
0.040140
0.011178
-0.101972
0.016401
-0.011314
0.008250
0.031568
0.050867
-0.017314
-0.055163
-0.079714
0.032327
0.058486
-0.011327
-0.003719
-0.056110
-0.014557
-0.055639
0.039657
0.071753
-0.062469
0.166302
0.044715
0.034440
0.052684
-0.029723
0.013809
-0.006006
0.024918
-0.052775
-0.033144
-0.025671
0.084789
-0.011241
0.062829
0.006259
0.097600
-0.012637
0.101865
0.034808
0.092072
0.063439
0.109996
0.077120
0.105367
0.122174
0.166121
0.127716
0.172798
0.205426
0.109354
0.193596
0.145187
0.102750
0.070311
0.120383
0.081838
0.131227
0.061718
0.107842
0.024589
0.040555
0.101477
0.052292
0.091996
0.023437
-0.050188
0.013171
0.102603
-0.067999
-0.075658
-0.007724
0.019107
-0.006887
0.010848
-0.013751
-0.081139
-0.056978
-0.041318
-0.047183
-0.043530
0.020003
0.022450
-0.064573
-0.080286
0.009839
0.106478
0.380878
0.620928
1.009469
1.240369
1.300247
1.205046
1.055277
0.669277
0.327272
0.014193
-0.129478
-0.204783
-0.297323
-0.207283
-0.150187
-0.062691
-0.053218
-0.128976
-0.010585
0.081958
0.009805
-0.028221
0.029797
-0.024342
-0.032725
0.000421
-0.015052
0.035212
0.055899
0.040594
0.217866
0.018975
0.121994
0.096625
0.161656
0.099002
0.201002
0.207439
0.192229
0.268751
0.336788
0.332600
0.216863
0.329390
0.337114
0.264263
0.416753
0.436678
0.383984
0.434516
0.456828
0.426322
0.451346
0.378704
0.427773
0.488745
0.491260
0.455775
0.518219
0.456007
0.427844
0.431906
0.357247
0.375886
0.340336
0.430234
0.318835
0.264747
0.372867
0.298433
0.271068
0.294543
0.212547
0.210113
0.206851
0.216132
0.271694
0.118932
0.201817
0.008511
0.095083
0.159113
0.111096
0.127815
0.021228
0.023353
0.052159
0.080418
-0.051448
-0.038079
-0.073003
-0.004594
-0.075056
0.105848
-0.038872
-0.012462
-0.011416
-0.021339
-0.029925
-0.020021
-0.020606
0.052946
0.034373
-0.103016
-0.065007
-0.051114
0.038760
-0.031049
-0.051235
-0.057941
-0.071858
-0.006701
-0.054798
0.026134
0.006324
-0.035122
0.014907
-0.027324
-0.069158
0.003762
0.039459
0.001784
-0.036957
-0.088063
-0.003936
-0.073227
-0.060177
-0.098223
-0.017809
-0.029246
-0.040102
-0.057427
-0.038249
0.006356
-0.095825
-0.059313
-0.047358
-0.120710
-0.062099
-0.017185
-0.031484
-0.022896
-0.062972
-0.023751
-0.092710
-0.005120
0.035218
0.018438
0.105922
-0.024854
-0.007592
-0.033187
0.043399
-0.108301
0.037961
0.100746
0.059657
0.047990
0.027620
0.027176
-0.027098
0.081697
0.151548
0.076912
0.087986
0.192912
0.116747
0.072762
0.153606
0.190355
0.138701
0.123977
0.138863
0.211057
0.143901
0.156414
0.120449
0.063922
0.097774
0.035197
0.136245
0.069380
0.106031
0.094973
0.081065
0.089026
0.060407
0.040972
-0.034491
-0.032697
-0.046135
-0.006441
0.009400
0.131596
-0.025232
-0.060165
0.011156
0.073232
-0.014459
-0.039656
0.044455
0.095749
-0.052000
-0.010005
-0.016026
-0.009932
-0.007778
0.158019
0.323578
0.605030
0.896284
1.255382
1.386600
1.359757
1.181614
0.920175
0.447652
0.085899
-0.177151
-0.238756
-0.244551
-0.277702
-0.176275
-0.064119
0.023812
-0.031035
0.013067
0.043136
0.060194
0.080104
0.019606
-0.005870
0.060660
0.055338
0.051117
0.076017
0.086137
0.094236
0.084348
0.126950
0.114895
0.081207
0.196411
0.206768
0.162790
0.237569
0.255201
0.252840
0.239640
0.254814
0.266906
0.265928
0.440668
0.337048
0.432322
0.334216
0.497894
0.468556
0.528416
0.381668
0.494848
0.456986
0.503570
0.555616
0.498092
0.533085
0.534676
0.559595
0.525843
0.475581
0.522266
0.502642
0.482672
0.498062
0.361070
0.373819
0.413604
0.310051
0.358782
0.359668
0.325721
0.360351
0.312531
0.262654
0.258271
0.211526
0.175077
0.226283
0.171588
0.179778
0.160798
0.174748
0.137638
0.132521
0.084888
0.075317
0.015269
0.131285
0.143634
0.072456
0.087504
0.086924
0.117810
0.073021
0.122085
0.126449
0.086618
0.120355
0.144331
0.104310
0.041620
0.070127
-0.014401
0.092752
0.029577
0.019976
0.122825
0.055600
0.096696
0.008744
0.091016
0.068118
0.048204
0.096233
-0.022304
0.088135
0.001442
-0.011926
0.064008
0.133068
0.125328
0.084298
0.066042
0.114900
0.083707
0.156823
0.039404
0.050664
0.100961
0.103549
0.054448
0.022272
0.061233
0.092781
0.024685
0.023094
0.051653
-0.006375
0.102582
0.095770
0.055429
0.109119
0.166667
0.083833
0.070915
0.052551
0.083753
0.154355
0.134407
0.102773
0.105607
0.108057
0.072523
0.157828
0.134818
0.132423
0.174866
0.212140
0.206025
0.167278
0.238857
0.206770
0.138738
0.265246
0.300748
0.258891
0.311660
0.276409
0.252445
0.266640
0.216815
0.301811
0.256347
0.268677
0.297524
0.173307
0.191751
0.245971
0.151894
0.132499
0.126949
0.219912
0.152452
0.132749
0.170245
0.073118
0.159192
0.119688
0.120357
0.084886
0.129664
0.106646
0.028352
0.093494
0.053124
0.139649
0.056033
0.086711
0.107261
0.002361
0.097769
0.030961
0.104424
0.080375
0.074038
0.136211
0.354594
0.474783
0.925952
1.175392
1.467646
1.500000
1.333710
1.143521
0.632687
0.340133
0.036834
-0.052425
-0.124896
-0.186201
-0.003234
-0.001300
0.017830
0.076405
0.046535
0.184761
0.128567
0.156915
0.092024
0.149891
0.130345
0.105980
0.199990
0.180061
0.156562
0.190506
0.176872
0.178691
0.240562
0.241309
0.396815
0.315163
0.290224
0.337931
0.296008
0.246327
0.364764
0.347449
0.392794
0.414018
0.485354
0.460575
0.529529
0.531172
0.436653
0.505566
0.559693
0.566500
0.567094
0.613368
0.657447
0.625913
0.553760
0.588273
0.580499
0.541184
0.572374
0.604225
0.485974
0.559150
0.588927
0.498558
0.555425
0.497244
0.445018
0.381924
0.471007
0.418239
0.323466
0.367867
0.364104
0.343817
0.377196
0.386640
0.339397
0.220087
0.244629
0.247327
0.224905
0.239398
0.168903
0.197604
0.109366
0.135101
0.110676
0.172074
0.130682
0.098533
0.156158
0.137939
0.040176
0.047343
0.130000
0.080159
0.070782
0.135526
0.069299
0.038607
0.064962
0.105478
0.030270
0.091273
0.108794
0.145682
0.049546
0.002036
0.077980
0.064643
0.038835
0.051386
0.101462
0.141268
0.025389
0.041681
0.131516
0.133613
0.032194
0.101646
0.090203
0.040526
0.159301
0.039831
0.076511
-0.014309
0.008274
0.039863
0.120122
-0.000535
0.051077
0.128709
0.102209
0.120052
0.091832
0.057664
0.012455
0.078967
0.122744
0.074823
0.032778
0.153938
0.101870
0.066311
0.058749
0.024865
0.113156
0.054987
0.012610
0.090034
0.111792
0.155671
0.142505
0.082539
0.070577
0.140593
0.041730
0.165290
0.133800
0.223965
0.195892
0.207307
0.205163
0.122025
0.176372
0.255611
0.308286
0.134849
0.197788
0.155477
0.244790
0.197177
0.184675
0.240299
0.164056
0.160375
0.217707
0.133294
0.185813
0.168006
0.140759
0.080313
0.075173
0.119840
0.123164
0.115999
0.105657
0.032520
0.041727
-0.016623
0.051858
-0.011030
0.037093
-0.041944
0.009418
0.014801
0.007612
0.037601
0.037775
-0.021217
0.043310
0.004225
-0.021249
0.042175
-0.016080
0.033522
0.122074
0.341455
0.748779
1.018812
1.355613
1.342829
1.363432
1.042921
0.710264
0.443091
0.065542
-0.206592
-0.200408
-0.280527
-0.214441
-0.075421
-0.171805
0.046666
-0.050631
-0.001936
0.014633
0.051912
0.084928
0.034737
0.134723
0.116859
0.146348
-0.010552
0.102548
0.011823
0.118022
0.102060
0.180670
0.147023
0.129748
0.186780
0.266338
0.200491
0.226975
0.251032
0.306621
0.257942
0.315912
0.292403
0.286867
0.378774
0.393936
0.356515
0.325597
0.466573
0.488054
0.498833
0.454420
0.408954
0.442335
0.436697
0.445859
0.492414
0.538143
0.519528
0.488546
0.468179
0.477378
0.415899
0.487469
0.425377
0.365253
0.391377
0.349196
0.366827
0.334668
0.313359
0.214617
0.258927
0.157116
0.246695
0.155072
0.178891
0.244216
0.199609
0.047753
0.102329
0.090162
0.042598
0.112076
-0.024069
0.019344
0.074765
-0.026955
0.076131
-0.065702
-0.049515
0.002549
-0.060165
-0.027783
-0.034072
0.030550
-0.042412
-0.078490
-0.017069
-0.013624
-0.010427
-0.113085
-0.040149
-0.079052
-0.047956
0.022289
-0.003104
-0.075822
-0.136121
-0.067901
-0.125225
0.017844
0.026855
-0.041222
-0.030198
-0.101304
-0.059314
-0.076722
-0.076341
-0.032805
-0.039276
-0.055974
-0.021312
-0.056715
0.022133
-0.035030
-0.047241
-0.112554
-0.121146
-0.023518
-0.076137
-0.110868
-0.019348
-0.071480
-0.035032
0.035477
-0.075777
-0.058340
-0.032157
-0.045684
-0.016495
-0.049473
-0.070705
-0.043393
-0.020517
-0.075846
-0.054147
-0.087432
-0.082563
-0.049990
-0.064718
-0.125549
-0.062121
-0.027160
0.044096
0.011602
-0.043748
0.022422
-0.041386
0.028668
0.039355
-0.038289
0.035717
0.083434
0.134327
0.143619
0.104189
0.040105
0.098688
0.158434
0.141300
0.191626
0.057544
0.138514
0.082413
0.125675
0.016765
0.062387
0.026167
-0.016152
0.056065
0.039194
0.089306
0.064718
-0.083217
0.046321
-0.037658
-0.040735
-0.053433
0.009468
-0.062575
-0.100567
-0.130735
-0.062679
-0.071610
-0.017536
-0.071417
-0.021363
-0.095146
-0.106138
-0.068542
-0.079271
-0.056398
-0.061502
-0.096546
-0.036111
-0.049005
0.054325
0.181420
0.487454
0.804961
1.088947
1.303448
1.282257
1.078089
0.847946
0.451692
0.031437
-0.191716
-0.219253
-0.280550
-0.241869
-0.216269
-0.107064
-0.087318
-0.139904
-0.057787
-0.121796
0.010453
-0.019743
-0.037207
0.008790
-0.049334
-0.117421
-0.046426
-0.036847
-0.071130
0.062136
0.075883
0.154666
0.036868
0.081245
0.088732
0.131206
0.166345
0.121597
0.110899
0.165444
0.114244
0.214318
0.206329
0.306265
0.210022
0.292271
0.341337
0.310470
0.346383
0.339236
0.415487
0.452143
0.377207
0.476416
0.446399
0.360967
0.450253
0.395640
0.419596
0.381808
0.417224
0.392907
0.414736
0.333719
0.289487
0.383788
0.307556
0.292637
0.331594
0.277544
0.260581
0.242985
0.212137
0.224222
0.203635
0.188414
0.188750
0.145734
0.069651
0.061715
0.016730
0.034776
0.154613
0.038733
0.073069
-0.019182
-0.077813
0.050264
-0.002754
0.077584
0.066180
-0.062048
-0.021215
-0.094012
-0.082379
-0.062940
-0.106029
-0.034800
-0.061162
-0.036676
-0.067971
-0.030920
-0.073605
-0.014354
-0.060570
-0.008020
-0.060819
-0.071796
-0.077256
-0.005394
-0.142561
-0.003185
-0.032378
-0.058763
-0.046366
-0.041361
-0.015077
-0.070929
-0.012275
-0.080230
-0.058946
0.006250
-0.043520
-0.008111
-0.018172
-0.062198
-0.066147
-0.022963
-0.013918
-0.079041
-0.043997
-0.000467
-0.094100
-0.001432
0.005849
-0.037466
-0.035376
-0.061123
-0.140392
-0.011390
0.029434
0.047852
-0.081183
-0.019686
0.030124
-0.018191
-0.056474
0.055276
-0.042715
-0.021232
0.041283
-0.093231
-0.008450
-0.075751
0.006761
0.047002
-0.015760
-0.054442
0.036097
0.115758
0.022584
-0.004557
0.045705
0.046846
0.144791
0.222764
0.050105
0.153538
0.188449
0.153008
0.168056
0.106813
0.134319
0.186271
0.170773
0.119740
0.093333
0.143366
0.103269
0.135262
0.008893
0.068541
0.104740
0.045920
-0.020987
0.039878
0.038859
0.039977
0.053744
0.043568
0.040806
-0.015755
-0.020003
-0.030124
0.037695
-0.003352
-0.036066
0.035894
0.000381
-0.138131
-0.006018
-0.015821
-0.013839
-0.054161
-0.034075
-0.032711
-0.072715
0.004343
0.279953
0.411613
0.818553
1.077193
1.262008
1.371311
1.225104
1.026567
0.603760
0.240398
-0.040996
-0.186966
-0.282514
-0.187765
-0.162653
-0.088925
-0.026821
0.017501
-0.042415
0.062134
0.027918
-0.038962
0.035822
0.022100
0.072052
0.109020
0.033126
0.072006
0.118624
0.071330
0.091998
0.009976
0.096443
0.137543
0.156952
0.202420
0.260687
0.300193
0.227777
0.315647
0.262581
0.425664
0.272763
0.364463
0.401774
0.329788
0.410211
0.372595
0.441393
0.515586
0.484381
0.512487
0.574631
0.492932
0.479614
0.543333
0.502811
0.558570
0.588648
0.506153
0.501189
0.559589
0.545004
0.466968
0.457858
0.441792
0.425194
0.442530
0.384178
0.417320
0.352038
0.381349
0.306141
0.390658
0.319116
0.162612
0.266040
0.232288
0.218927
0.230970
0.237260
0.118088
0.166419
0.182564
0.108184
0.150652
0.153277
0.052028
0.150442
0.068541
0.097142
0.114250
0.010061
0.131454
0.071475
0.057932
0.024481
0.069066
0.017663
0.010856
0.110002
0.038955
0.094386
-0.015979
-0.017904
0.069238
-0.005320
0.024675
0.015486
0.002123
0.108073
0.042565
-0.086452
0.072231
-0.029083
0.097035
0.045928
0.115177
0.009321
0.093148
-0.018900
0.075784
-0.018849
0.071758
0.029651
0.145348
-0.043986
0.004509
0.090108
0.016521
0.075260
0.037040
0.030094
0.043842
0.072498
0.166841
0.072310
-0.030544
-0.006852
0.031931
0.018633
0.020350
0.119670
0.049621
-0.014051
0.046572
0.101768
0.031886
0.098623
0.033719
-0.012184
0.066849
0.123692
0.114491
0.087336
0.054706
0.075259
0.104173
0.152413
0.107586
0.110059
0.166856
0.194010
0.217004
0.116426
0.143539
0.225309
0.190332
0.252679
0.237753
0.231113
0.209084
0.245316
0.242548
0.279044
0.238361
0.172955
0.161326
0.125204
0.108249
0.145946
0.210947
0.111699
0.121494
0.198184
0.157262
0.025156
0.138003
0.016965
0.074908
0.043898
-0.026495
0.086819
0.044326
0.005265
0.143797
0.078033
0.067409
0.044926
0.049334
0.028191
-0.046578
0.074089
0.029818
-0.040159
-0.072423
-0.028003
0.051087
0.136831
0.439673
0.753409
1.054247
1.359651
1.407730
1.317408
1.197369
0.718721
0.449363
0.026962
-0.135612
-0.148916
-0.256311
-0.164603
-0.076006
0.020180
0.074277
0.077853
0.058129
0.011557
0.100373
0.112494
0.103761
0.046419
0.092772
0.176889
0.192041
0.109316
0.055037
0.152522
0.142084
0.156025
0.228994
0.192725
0.177986
0.171973
0.274736
0.244116
0.270303
0.345901
0.361201
0.251544
0.344107
0.374930
0.360176
0.415036
0.436546
0.470078
0.472496
0.493157
0.435906
0.498341
0.528343
0.425348
0.519869
0.497700
0.463855
0.516514
0.504477
0.583518
0.493899
0.609423
0.461695
0.565932
0.445500
0.444519
0.452305
0.379192
0.387797
0.347008
0.383306
0.314311
0.421139
0.263644
0.349675
0.223636
0.197565
0.212219
0.166694
0.240710
0.208521
0.192412
0.135758
0.148726
0.094214
0.091575
0.130858
0.023478
0.082594
0.076092
0.067774
0.051623
0.068842
0.015006
-0.018325
-0.015189
-0.017097
0.003268
-0.060730
0.009259
0.067361
0.020215
0.083466
0.041698
0.090665
-0.047693
-0.035285
0.030653
-0.010147
0.079775
-0.035251
0.021838
-0.023366
0.035937
-0.018699
-0.058238
-0.022175
-0.017345
0.070594
-0.018764
-0.037626
0.006658
0.018094
-0.007590
-0.048068
-0.029680
-0.063958
-0.015947
-0.013037
0.029660
0.047060
-0.049721
-0.030467
-0.057306
-0.001322
-0.053159
0.014680
0.014218
-0.112327
0.012299
0.022074
-0.020506
-0.045999
-0.027733
-0.081859
-0.004591
-0.083832
-0.075428
-0.013299
0.060415
-0.025332
0.014014
0.004659
-0.034006
-0.043497
-0.002664
0.057473
-0.009669
0.088037
0.067403
0.080226
0.095583
0.167706
0.059208
0.125758
0.021877
0.102752
0.133898
0.104065
0.072037
0.133473
0.195020
0.083207
0.195162
0.154744
0.093569
0.105545
0.118198
-0.012562
0.065656
0.067141
0.054471
0.016111
0.004206
0.027915
0.035055
0.085777
-0.017388
-0.003379
0.012666
-0.033308
0.020630
-0.050853
-0.032283
-0.041192
-0.061049
-0.044259
-0.046021
-0.006450
-0.006444
-0.086881
-0.107413
0.065331
0.002572
-0.099393
-0.072548
-0.080395
0.021119
0.193758
0.499831
0.812395
1.157579
1.313046
1.335828
1.139862
0.815750
0.342783
0.016355
-0.277160
-0.256134
-0.349743
-0.339756
-0.166369
-0.096570
-0.099886
-0.086016
-0.052337
-0.027156
-0.086606
-0.084056
-0.026422
-0.036015
0.014715
-0.072301
-0.008170
0.029764
0.007628
0.062329
-0.023895
-0.094714
0.059815
0.122307
0.073953
0.070801
0.166756
0.175271
0.120702
0.148221
0.204654
0.149656
0.278649
0.300359
0.287013
0.313588
0.365593
0.363292
0.345496
0.398106
0.344852
0.458100
0.438576
0.446900
0.458849
0.402050
0.449141
0.400406
0.423819
0.389322
0.377889
0.393488
0.392266
0.339996
0.362142
0.344295
0.382880
0.301621
0.228754
0.273339
0.253541
0.164804
0.243438
0.164944
0.191196
0.146083
0.129557
0.169364
-0.032121
0.065467
0.122246
0.055859
0.028903
0.012161
0.034115
-0.004970
-0.042833
-0.031198
-0.046661
-0.071248
-0.072057
-0.047710
-0.063840
-0.116027
-0.055589
-0.049681
-0.147005
-0.070016
-0.083718
-0.098261
-0.148956
-0.097490
-0.165411
-0.091005
-0.138317
-0.054021
-0.138410
-0.173874
-0.079390
-0.107382
-0.095557
-0.047977
-0.085824
-0.061290
-0.016959
-0.096534
-0.134406
-0.064654
-0.155536
-0.098072
-0.097447
-0.039322
0.028009
-0.036293
-0.088241
-0.135565
-0.087508
-0.057480
-0.109384
-0.143626
-0.080768
-0.135642
-0.111232
-0.091006
-0.203783
-0.069216
-0.027980
-0.045654
-0.043456
-0.053307
-0.136240
-0.140795
-0.092826
-0.146374
-0.080017
-0.146681
-0.078936
-0.061709
-0.101868
-0.080144
-0.070861
-0.091313
-0.031902
-0.104004
-0.004237
-0.103706
-0.035574
-0.026563
0.024122
0.004098
-0.059955
0.023680
0.011875
0.047236
-0.020907
0.039796
0.107161
0.045166
0.112445
0.011522
0.061421
0.041671
0.126966
0.119906
0.030385
0.105681
0.035496
-0.019704
0.064021
0.027395
-0.052852
-0.020445
0.045293
0.015182
0.027100
-0.132491
0.033284
-0.025959
-0.107939
-0.120078
-0.021045
-0.123789
-0.130638
-0.167141
-0.144354
-0.175656
-0.079722
-0.135906
-0.058974
-0.084250
-0.071647
-0.110965
-0.144239
-0.071609
-0.152458
-0.056750
-0.106727
-0.012287
0.177851
0.361886
0.780907
1.129259
1.242884
1.268492
1.221232
0.908414
0.513217
0.194556
-0.119345
-0.272012
-0.400722
-0.280095
-0.269837
-0.117116
-0.043757
-0.091718
-0.017387
-0.017746
-0.071819
-0.065912
-0.001746
0.006366
-0.024535
-0.056591
-0.031242
-0.007620
0.052379
0.036253
0.045283
0.110787
0.026574
0.049589
0.112827
0.029335
0.111217
0.177237
0.158165
0.175841
0.212363
0.213644
0.266229
0.287438
0.266905
0.287317
0.356134
0.346339
0.432509
0.367728
0.439035
0.417737
0.529127
0.403209
0.505233
0.448091
0.467908
0.458656
0.416508
0.481164
0.428935
0.428007
0.364951
0.524778
0.454724
0.417166
0.373741
0.377264
0.379104
0.298782
0.342487
0.215919
0.219817
0.305021
0.185473
0.189910
0.208371
0.147840
0.118370
0.156780
0.181892
0.057031
0.056976
0.048965
0.027768
0.111354
0.074570
0.013901
0.011786
-0.015287
0.103903
0.059382
-0.034227
-0.028262
0.047344
-0.009718
-0.024309
-0.065148
-0.006381
-0.039997
0.100056
0.011107
-0.009995
0.031805
0.001694
-0.045505
-0.024642
-0.003674
0.041786
0.094286
-0.045180
-0.019316
-0.028462
0.052857
-0.065557
-0.016510
0.017346
-0.010407
0.003201
-0.022072
0.015026
-0.018283
-0.045231
0.001583
0.005956
-0.007841
-0.027248
-0.036421
0.050357
-0.044222
0.097437
0.024197
-0.004475
-0.039825
0.013874
-0.016371
0.025452
0.054638
0.019182
-0.086254
0.020732
0.067848
0.006209
0.046312
0.053989
0.002239
0.057508
0.051852
0.036228
0.068865
-0.018308
-0.091839
0.013839
0.048563
0.052112
0.063923
0.083430
0.075451
0.025085
0.079821
0.035943
0.061816
0.114824
0.139587
0.138729
0.207706
0.194424
0.155125
0.226913
0.209190
0.159167
0.170798
0.252771
0.208245
0.202752
0.185789
0.192937
0.131025
0.191847
0.126980
0.051147
0.099799
0.081866
0.114143
0.172412
0.028745
0.088988
0.126089
0.076704
0.088967
0.079017
0.015917
0.024816
0.062308
0.004140
-0.015467
0.007274
0.020301
0.123837
-0.001987
0.020873
0.022268
0.000355
0.030072
-0.004297
0.053717
0.025813
0.132922
0.216017
0.415385
0.717744
1.007811
1.307988
1.418512
1.425803
1.138315
0.800499
0.433955
-0.020170
-0.043048
-0.267872
-0.251527
-0.089381
-0.046730
-0.008925
0.048470
0.103081
0.047122
0.174728
0.171869
0.139262
0.096951
0.143263
0.101991
0.181005
0.131894
0.048100
0.119129
0.112785
0.174787
0.191194
0.173593
0.242516
0.279900
0.302145
0.175344
0.226289
0.252390
0.366516
0.327923
0.332579
0.349658
0.413854
0.359606
0.454882
0.564911
0.485076
0.507832
0.516411
0.553271
0.548052
0.606643
0.604468
0.562320
0.605203
0.551494
0.505395
0.520919
0.557664
0.513232
0.594427
0.522299
0.538232
0.459357
0.506350
0.507380
0.465948
0.446735
0.366650
0.465114
0.393404
0.283797
0.313511
0.326276
0.340883
0.364072
0.386082
0.320236
0.131220
0.192613
0.151200
0.242236
0.260109
0.140659
0.156298
0.171203
0.125832
0.114573
0.067128
0.104763
0.037826
0.038945
0.037497
0.016962
0.083825
0.009675
0.124001
0.124532
0.052185
0.046983
0.079891
0.039039
0.132622
0.108855
0.047492
0.016106
0.008903
0.026429
0.006120
0.094905
0.064567
0.149715
0.085203
0.097994
0.121851
-0.042096
0.186053
0.090327
0.115718
0.090576
0.069548
0.128709
0.113125
0.121818
0.066672
0.076244
0.114152
0.089497
