0.011787
0.004416
0.070957
-0.014933
-0.079561
0.134276
0.086060
0.009836
0.004923
-0.018675
0.028117
-0.107833
-0.012114
0.017257
-0.047456
0.035047
-0.009320
0.001038
0.000011
-0.076405
-0.006609
-0.048820
0.046045
-0.012144
0.020545
0.057369
0.039801
0.017899
0.062786
0.035619
0.042919
0.072167
0.010335
0.065765
0.048431
0.095119
0.117166
0.106168
0.118989
0.187521
0.078042
0.180644
0.194143
0.131544
0.113083
0.184835
0.248577
0.182468
0.146145
0.316755
0.150266
0.212083
0.161090
0.233352
0.055269
0.256741
0.140060
0.168283
0.147967
0.140015
0.081876
0.129395
0.040684
0.146180
0.044820
0.118941
0.048406
0.025406
0.063552
0.035557
0.066633
0.080452
0.096701
0.103042
0.076282
0.038906
0.088571
0.028817
0.060031
0.000676
-0.006474
0.011011
0.102671
-0.025791
-0.066415
0.081012
0.250687
0.456167
0.798711
1.078411
1.360292
1.426711
1.357153
1.086687
0.780193
0.402979
0.158132
-0.034424
-0.255737
-0.196099
-0.114949
-0.085802
-0.001003
0.001395
0.047759
0.140686
0.065777
0.155864
0.124650
0.125339
0.054371
0.009124
0.068101
0.186646
0.070085
0.144875
0.099059
0.201372
0.189365
0.137925
0.132830
0.163196
0.188419
0.114467
0.294123
0.250024
0.190140
0.269536
0.260833
0.405495
0.287471
0.340678
0.346033
0.379080
0.308107
0.362620
0.403035
0.393978
0.437457
0.493511
0.567277
0.540487
0.550615
0.523799
0.567901
0.617754
0.572046
0.609631
0.620440
0.501780
0.576953
0.577362
0.507961
0.540218
0.583493
0.521371
0.503051
0.495963
0.472662
0.443425
0.443559
0.437972
0.363415
0.318621
0.259397
0.353890
0.350435
0.297565
0.352521
0.312311
0.266398
0.200828
0.220113
0.252701
0.184165
0.131462
0.112701
0.140680
0.186679
0.127967
0.078385
0.157719
0.125989
0.126360
0.134088
0.152122
0.143586
0.105072
0.140574
0.094657
0.093357
0.084285
0.090644
0.085685
0.061231
0.086286
0.063627
0.010920
0.065063
0.070690
0.073428
0.114753
0.101994
0.074160
0.130708
0.078377
0.076823
0.074664
0.094931
0.083250
-0.015596
-0.006021
0.104993
-0.014744
0.045984
0.028224
0.043013
0.055475
0.155795
0.004403
0.112657
0.141744
0.094426
0.076440
0.064272
0.137689
0.095850
0.099255
0.030257
0.074311
0.082572
0.080338
0.102776
0.083340
0.050167
0.027535
0.046507
0.114016
0.066501
0.065310
0.062962
0.035424
0.178828
0.093960
0.091282
0.069790
0.098224
0.162262
0.072280
0.074995
0.022992
0.134133
0.204815
0.134248
0.113345
-0.005922
0.193248
0.159223
0.149680
0.183125
0.206694
0.118197
0.192502
0.105707
0.244479
0.249733
0.222891
0.243651
0.223165
0.240566
0.074972
0.212742
0.230500
0.267283
0.287177
0.265943
0.230607
0.175396
0.229115
0.243063
0.265586
0.156221
0.154613
0.217994
0.104775
0.203621
0.123823
0.147402
0.138674
0.158379
0.150390
0.068699
0.074037
0.075811
0.061551
0.111021
0.075692
0.074740
0.107709
0.035602
0.002814
0.078920
0.041118
0.002104
0.081694
-0.003091
0.066410
0.025889
0.061606
0.008701
-0.007825
0.154805
0.092243
0.080889
0.373799
0.669429
1.047941
1.255778
1.387087
1.286881
1.178321
0.880774
0.478293
0.119601
-0.047095
-0.218116
-0.175660
-0.140566
-0.105820
-0.064043
-0.048550
-0.011421
0.051361
0.019154
0.077410
0.062843
0.022346
0.011309
0.025350
0.051967
0.106253
0.099080
0.142371
0.124422
0.063719
0.163949
0.100104
0.172924
0.126745
0.074839
0.109778
0.153406
0.208748
0.228597
0.305677
0.278127
0.220101
0.279048
0.268894
0.397984
0.338667
0.297385
0.322950
0.438102
0.444223
0.385540
0.410897
0.429624
0.528981
0.476801
0.596197
0.530609
0.511897
0.493984
0.519394
0.526782
0.369252
0.533405
0.450108
0.518261
0.527421
0.449643
0.436369
0.394510
0.413484
0.350124
0.392238
0.385136
0.341653
0.386909
0.359347
0.268271
0.301342
0.307368
0.307744
0.193572
0.207606
0.158224
0.204941
0.169006
0.135066
0.096351
0.092494
0.132763
0.097693
0.048179
0.056920
-0.036032
0.066845
0.039760
0.032534
0.003532
-0.063578
0.016927
0.007776
0.111268
-0.017491
0.020291
-0.064061
-0.027967
-0.043006
0.052948
0.038245
0.023543
-0.019267
0.003439
-0.103305
-0.067274
-0.000215
-0.035776
0.050957
-0.066773
0.068957
0.074575
-0.039367
0.008016
-0.046909
0.000290
-0.019556
-0.003913
-0.035176
-0.018535
0.024121
-0.046580
-0.021350
-0.016484
0.008574
-0.012351
-0.017277
-0.027424
-0.043115
-0.015672
-0.035632
-0.019331
-0.064067
0.000076
0.006101
-0.034775
0.005290
-0.014230
-0.100152
-0.061238
-0.000638
-0.029390
-0.081266
-0.008135
0.025499
-0.053201
0.053521
0.009392
-0.061482
-0.007041
-0.048927
0.007370
-0.062188
-0.007175
-0.020976
-0.068338
0.001363
-0.011998
-0.036550
0.004782
0.067335
0.085835
0.030799
0.020999
0.075801
0.044803
0.114468
0.105983
0.111555
0.066104
0.174509
0.124715
0.155156
0.030769
0.082488
0.213875
0.178607
0.146609
0.143736
0.173096
0.139772
0.103414
0.077881
0.138920
0.069746
0.109262
0.073837
-0.001805
0.062051
0.025993
0.064654
0.092844
0.105946
0.031821
-0.046484
-0.046332
0.040604
-0.057862
0.043089
0.041606
-0.041823
0.030460
0.053860
-0.059019
-0.087296
-0.010969
0.012693
-0.079814
-0.109241
-0.034945
-0.008734
-0.021581
-0.021666
-0.030037
-0.091210
-0.050143
-0.041379
-0.029737
0.043315
0.231745
0.464958
0.764052
1.105703
1.257592
1.352792
1.109528
0.865110
0.515510
0.255474
-0.134607
-0.280100
-0.288566
-0.261099
-0.131187
-0.168656
-0.090539
-0.029820
0.012245
-0.035000
0.022790
-0.057837
0.017431
-0.047065
0.064716
-0.008032
0.025395
-0.012151
0.035078
0.007087
0.053836
0.011608
0.048394
-0.020205
0.104525
-0.002756
0.085835
0.118637
0.041323
0.069527
0.156785
0.192193
0.195321
0.206346
0.191060
0.185319
0.111182
0.317013
0.265925
0.327601
0.355229
0.408925
0.401794
0.428095
0.411628
0.472568
0.455508
0.443688
0.467409
0.479922
0.335997
0.411068
0.486302
0.451871
0.383660
0.440440
0.423346
0.471170
0.390700
0.371670
0.402331
0.319736
0.408125
0.423110
0.245907
0.281908
0.276650
0.229436
0.249602
0.235273
0.237795
0.114947
0.126362
0.170191
0.181194
0.080980
0.046433
0.153311
0.074952
0.075295
0.102254
0.013077
-0.020592
0.029183
-0.004042
0.033693
-0.023930
-0.029912
0.012134
-0.088477
0.028803
-0.088597
-0.041408
-0.006604
-0.040575
-0.051912
-0.016106
-0.025198
-0.031517
-0.080477
0.022055
0.004018
-0.017992
-0.022488
-0.098237
-0.062826
-0.047011
-0.065089
-0.013229
-0.037215
0.049295
-0.043443
-0.019538
-0.054805
0.039806
-0.005932
0.027922
-0.030213
-0.028960
-0.049255
-0.049732
0.038527
0.074569
-0.090390
-0.012303
-0.000093
0.071227
-0.028419
0.053347
-0.051306
0.009175
-0.014591
-0.036231
0.004869
0.025939
-0.089015
-0.074223
0.027153
-0.080006
-0.031835
-0.026202
-0.063411
-0.095787
0.032251
-0.028927
-0.002919
0.015363
0.048514
-0.028699
0.037603
0.011932
-0.049236
-0.006076
0.024306
0.039889
0.000754
0.089436
0.128387
0.005600
0.010804
0.025976
0.095979
0.043866
0.027359
0.077271
0.167456
0.098183
0.132603
0.098943
0.148213
0.092622
0.198570
0.134672
0.142917
0.190428
0.145963
0.173684
0.205956
0.118981
0.171781
0.201582
0.230617
0.141711
0.221383
0.099872
0.124317
0.134557
0.158797
0.136590
0.144369
0.079971
0.135001
0.085105
-0.017521
-0.032554
0.015301
0.098861
0.033116
0.049825
0.036734
0.088768
0.040321
0.057657
0.077773
0.026700
0.049757
0.000565
0.087392
0.037976
0.094629
0.020710
-0.027818
0.036573
-0.014283
0.018444
-0.050755
0.091915
0.264195
0.496380
0.786467
1.087405
1.351144
1.416182
1.311561
0.992495
0.716104
0.289400
0.057478
-0.111988
-0.198890
-0.257582
-0.149122
-0.065914
-0.028133
0.009372
0.051743
-0.041167
0.017997
0.066359
0.082584
0.063043
0.005619
0.056767
0.166005
0.062035
0.087240
0.132006
0.101142
0.160966
0.068526
0.163946
0.180226
0.123542
0.203199
0.224727
0.186201
0.238583
0.236148
0.224387
0.247230
0.308966
0.366552
0.326470
0.321887
0.308004
0.446650
0.388677
0.496362
0.438316
0.393960
0.505144
0.474102
0.486260
0.554603
0.481203
0.535569
0.609699
0.600009
0.607609
0.488848
0.549164
0.627024
0.512094
0.539406
0.555372
0.592616
0.544116
0.498783
0.455152
0.527497
0.453518
0.404655
0.373343
0.320762
0.241322
0.423805
0.267364
0.394744
0.294311
0.239897
0.227577
0.321038
0.184267
0.228306
0.152183
0.152313
0.166511
0.155704
0.251692
0.096809
0.080635
0.122735
0.187342
0.135937
0.063272
0.090479
0.147302
0.057732
0.036428
0.149047
0.045747
0.093476
0.036848
0.001506
0.122138
0.084860
0.004575
0.107738
0.072443
0.078710
0.025693
0.036587
0.077693
0.115864
0.132324
0.185051
0.119064
0.153907
0.176732
0.065060
0.106977
0.074202
0.060011
0.133910
0.056299
0.135863
-0.003614
0.124346
0.060275
0.061433
0.103622
0.138637
0.016716
0.088743
0.054792
0.152894
0.131988
0.212135
0.083221
0.080656
0.028444
0.065941
0.087823
0.074771
0.080124
0.114832
0.119466
0.075890
0.067135
0.064538
0.125362
0.083639
0.013969
0.159619
0.075375
0.015645
0.104555
0.044665
0.061704
0.103886
0.049074
0.161620
0.150525
0.111378
0.119161
0.099117
0.144522
0.108999
0.136811
0.153965
0.110999
0.175015
0.252112
0.193790
0.203385
0.186803
0.242539
0.222880
0.234914
0.187223
0.278208
0.173686
0.289246
0.190263
0.254492
0.312013
0.222837
0.237021
0.236728
0.212534
0.222716
0.216129
0.155383
0.177988
0.228258
0.233002
0.168442
0.145134
0.214189
0.156704
0.121362
0.164098
0.091329
0.062173
0.173237
0.098687
0.052601
0.090649
0.165757
0.115011
0.180563
0.164937
0.069362
0.146377
0.067196
0.138934
0.082575
0.119849
0.086005
0.075813
0.059875
0.037484
0.077630
0.053384
0.247530
0.420047
0.776360
1.042012
1.388430
1.500000
1.360483
1.113522
0.948599
0.395046
0.173933
-0.078187
-0.179649
-0.134957
-0.150990
-0.094107
-0.032079
0.038239
0.045130
0.020554
0.110705
0.103950
0.069134
0.188526
0.066981
0.077965
0.117660
0.111224
0.125417
0.109930
0.053499
0.040304
0.172135
0.106362
0.111783
0.165819
0.203152
0.150689
0.209347
0.205837
0.231440
0.307237
0.314257
0.311610
0.292631
0.354776
0.362392
0.366463
0.441657
0.370853
0.447683
0.421190
0.506822
0.474339
0.464583
0.531079
0.469980
0.492238
0.572418
0.558854
0.540535
0.541828
0.519275
0.530773
0.583876
0.571637
0.434787
0.560232
0.557674
0.459593
0.457761
0.476995
0.442555
0.376750
0.381662
0.330760
0.420128
0.338026
0.287119
0.351205
0.277600
0.271385
0.220673
0.172496
0.206910
0.191985
0.228395
0.144883
0.143808
0.080901
0.135521
0.095794
0.069345
0.142909
0.098510
0.094693
0.052747
0.038016
0.029256
0.066972
0.067129
0.084402
0.034657
0.049836
0.011552
0.034441
0.012854
-0.040398
-0.016963
0.043862
-0.001575
-0.045001
0.049383
-0.015499
0.021252
-0.029895
0.143356
0.055643
0.099461
0.033971
0.061448
0.049184
0.019372
0.012119
0.019500
0.064920
0.020228
0.034991
0.052482
0.061456
0.032213
-0.001197
0.002861
0.099973
0.052394
0.056284
0.041291
-0.041347
-0.025690
-0.062463
0.028154
-0.010317
0.006191
0.001821
0.013806
0.005723
0.013262
-0.015119
-0.037944
0.028011
0.023322
-0.007845
0.042594
-0.002180
-0.040327
-0.024066
-0.001645
0.057581
-0.000439
0.002080
0.030985
0.006445
-0.091064
0.040167
0.068947
0.026762
-0.031544
0.063632
0.044394
0.013276
0.053302
0.054625
0.127360
0.051393
-0.004549
0.075938
0.054010
0.088232
0.090971
0.106973
0.092601
0.161938
0.066212
0.188502
0.144221
0.231483
0.152705
0.154168
0.129269
0.156575
0.056624
0.168970
0.100889
0.185070
0.113504
0.125221
0.062034
0.023090
0.043521
0.040879
0.085198
0.107995
-0.017155
0.006139
-0.033931
-0.005842
-0.042486
0.053266
-0.023085
-0.082458
0.006681
-0.116119
0.022495
-0.074802
-0.009112
-0.023678
-0.063554
0.005371
-0.053943
-0.076088
-0.022363
-0.084363
-0.090902
-0.066229
-0.144318
-0.124103
-0.058891
0.061129
0.279940
0.523933
0.829278
1.127974
1.327020
1.235014
1.150477
0.776346
0.481310
0.070580
-0.166186
-0.222531
-0.318149
-0.264305
-0.253747
-0.127644
-0.080113
-0.076834
-0.023232
-0.090329
-0.039612
-0.047639
-0.019571
-0.106753
-0.003086
-0.076843
-0.103643
0.038316
-0.023288
-0.001123
0.053365
0.053729
-0.052489
0.001930
0.018242
0.002891
0.025176
0.122359
0.075105
0.098143
0.135456
0.112608
0.170630
0.220601
0.156975
0.205337
0.239164
0.267563
0.317128
0.356486
0.331038
0.276465
0.370078
0.413684
0.337549
0.449991
0.359363
0.369039
0.415786
0.419122
0.457889
0.478780
0.385031
0.432797
0.423921
0.424535
0.381987
0.341040
0.360794
0.317569
0.359311
0.285192
0.260916
0.214769
0.305114
0.239077
0.263884
0.264698
0.200884
0.250138
0.188277
0.135543
0.202272
0.033956
0.038867
0.066846
0.121638
0.051362
-0.008085
0.031986
0.025941
-0.019658
-0.017118
0.028393
-0.046507
-0.055374
-0.010425
-0.057755
0.018615
-0.098109
-0.050772
-0.094414
-0.031365
-0.035847
-0.056884
-0.070828
0.041122
-0.065910
-0.059642
-0.011599
0.001392
-0.067879
-0.105296
-0.067585
-0.084672
-0.131412
0.028679
-0.041715
-0.164270
-0.094052
-0.047764
-0.067621
-0.070353
-0.142136
-0.065295
-0.060665
-0.129127
-0.101565
-0.124935
-0.035546
-0.145339
-0.048741
-0.141391
-0.042321
-0.109732
-0.144608
-0.080497
-0.050144
-0.029480
-0.059099
-0.095060
-0.091126
-0.100348
-0.100824
-0.086278
-0.092682
-0.119689
-0.030230
-0.016121
0.032496
-0.030261
-0.092741
-0.071090
-0.080773
-0.083290
-0.025608
-0.111064
-0.001184
-0.130132
-0.033823
-0.024345
-0.042161
-0.063391
-0.037844
-0.066499
-0.102436
-0.051748
-0.064282
-0.117669
-0.031000
-0.034070
-0.110720
0.045266
-0.037836
-0.029805
0.000494
-0.001661
0.083609
0.050884
0.059759
0.093607
0.102995
0.051202
0.064877
0.165343
0.121554
0.106445
0.039411
0.126502
0.095855
0.092210
0.148094
0.095830
0.130742
0.108770
0.119236
0.054660
-0.003670
0.078908
0.010468
0.015729
-0.053720
-0.010549
-0.014849
0.018690
-0.010429
-0.077789
-0.043546
-0.004047
-0.068185
-0.052981
-0.174337
-0.108314
0.047105
-0.049716
-0.043707
-0.021345
-0.102748
-0.117749
0.061795
-0.022702
-0.045232
-0.041932
-0.054224
-0.082258
-0.066372
-0.017106
0.203096
0.466405
0.710853
1.076911
1.300276
1.273328
1.199169
0.962840
0.575322
0.206429
-0.135992
-0.159111
-0.281843
-0.329040
-0.295166
-0.089129
-0.097755
-0.061488
-0.008120
-0.090334
-0.050175
-0.044132
-0.035761
-0.092459
-0.040648
0.044459
-0.029967
-0.035606
-0.037765
0.012633
0.124663
0.007664
-0.014899
0.021227
0.060905
-0.003838
0.045832
0.113198
0.150899
0.103868
0.233596
0.172188
0.172645
0.224077
0.212597
0.283876
0.188222
0.305625
0.277757
0.371925
0.354813
0.298332
0.410938
0.423426
0.419222
0.420262
0.467401
0.416333
0.491263
0.442234
0.450377
0.468805
0.475929
0.501248
0.492195
0.482057
0.527377
0.466445
0.452081
0.424476
0.387262
0.453365
0.349183
0.379118
0.371910
0.316713
0.358432
0.304041
0.298266
0.193683
0.174266
0.294365
0.234371
0.170883
0.171612
0.147207
0.175470
0.127567
0.090595
0.096832
0.100228
0.030241
0.030940
0.034254
0.011911
0.015924
0.062741
0.068051
0.040475
0.035555
0.003614
0.053187
0.033880
0.042369
-0.009115
0.058490
-0.005981
0.112576
0.088954
-0.046467
0.015491
-0.020541
-0.027685
0.023782
-0.012751
0.025918
-0.089886
-0.015486
-0.031393
0.027841
0.130946
-0.031139
0.042334
-0.013350
0.038617
0.073354
-0.004489
-0.010607
-0.054811
0.027520
0.077243
0.030310
0.058663
0.045009
0.000421
0.029014
0.024370
0.034303
-0.018851
0.004415
0.006840
-0.001958
0.078783
-0.020230
0.009421
0.045901
-0.041290
0.056011
0.056973
-0.016615
0.049014
0.029208
-0.006119
0.012332
0.022503
0.039789
-0.030999
0.025892
0.062673
0.017666
-0.068496
0.012195
0.079961
-0.022670
0.070041
-0.014312
0.104552
0.127995
0.008303
0.097974
0.056192
0.082740
0.194511
0.112568
0.101407
0.103936
0.152253
0.050311
0.192990
0.192276
0.140908
0.156799
0.187585
0.183467
0.165581
0.141015
0.243680
0.160731
0.163907
0.246465
0.209089
0.287692
0.130566
0.152819
0.203610
0.188988
0.102386
0.081088
0.047518
0.107220
0.140806
0.156239
0.150554
0.111996
0.021424
0.143067
0.040474
0.020492
0.101453
0.059809
0.014550
-0.014796
0.104033
0.010240
0.074968
0.054087
0.032224
-0.004184
0.064690
0.026803
0.060814
-0.003348
0.046654
0.035011
0.009444
0.053850
0.022693
0.253838
0.477561
0.801172
1.111849
1.411581
1.406659
1.289929
1.061736
0.748365
0.274667
0.105241
-0.163594
-0.175621
-0.255366
-0.189543
-0.108095
-0.082539
-0.066771
0.006228
0.044130
-0.001921
0.038970
0.088304
0.010150
0.081946
0.038003
0.162043
0.082505
0.107059
0.073500
0.080733
0.141649
0.070216
0.031348
0.137038
0.253238
0.213414
0.079774
0.154722
0.241325
0.218049
0.212841
0.232593
0.264226
0.310111
0.324078
0.271522
0.313540
0.329457
0.386144
0.423230
0.495601
0.453329
0.433366
0.524684
0.459977
0.538645
0.540736
0.526205
0.558264
0.572136
0.475047
0.530856
0.520568
0.546440
0.557094
0.529907
0.504776
0.498854
0.517758
0.449921
0.352211
0.461617
0.471230
0.299955
0.365204
0.347237
0.271159
0.308838
0.263698
0.220219
0.233443
0.223742
0.258986
0.257478
0.227880
0.119874
0.251268
0.183196
0.156357
0.103807
0.057878
0.057674
0.105424
0.185264
0.021727
0.075031
0.152846
0.093484
0.027958
0.114936
0.060830
0.025638
0.047595
0.085931
0.044344
0.021274
0.003802
-0.024975
0.022720
0.039904
0.034377
0.074743
0.039160
0.071480
0.118676
-0.023608
-0.003089
-0.001408
0.023789
0.069354
-0.001322
-0.052348
0.007524
0.050293
0.047501
0.059338
0.053079
-0.034025
0.050182
0.112119
-0.037507
-0.001718
-0.056559
0.027204
0.015523
0.000853
0.000647
0.043837
-0.031768
0.070025
-0.002050
0.014497
-0.004895
0.037896
0.049345
-0.000372
0.043131
0.007834
-0.061503
0.156166
-0.055902
-0.005553
-0.021554
-0.032828
-0.057981
0.012966
0.001410
-0.082762
-0.019522
0.071153
0.016726
0.075251
0.018931
-0.008859
-0.008112
0.026783
0.005276
0.061468
0.067518
0.068157
0.030991
0.002679
0.090799
0.121460
0.182826
0.028568
0.135437
0.138719
0.156686
0.052248
0.147859
0.128941
0.078148
0.092158
0.170873
0.059715
0.097886
0.206617
0.169234
0.147722
0.144711
0.123639
0.130964
0.083544
0.208115
0.083329
0.104757
0.095559
0.095973
0.115491
0.104579
0.007421
-0.012542
0.024897
0.035045
-0.057340
-0.022337
0.013801
-0.030320
-0.020293
-0.051277
-0.008683
-0.028028
-0.058158
-0.005379
-0.059795
-0.032138
-0.046120
-0.088991
-0.002389
-0.119772
-0.018422
-0.036001
-0.031240
-0.048648
0.033986
0.016058
0.313747
0.616695
0.952848
1.219188
1.294091
1.228159
1.027064
0.782122
0.396987
-0.014203
-0.185291
-0.392031
-0.306778
-0.283391
-0.169686
-0.139647
-0.042530
-0.065191
-0.050547
-0.060456
-0.078631
-0.096240
-0.004955
-0.060890
-0.124949
0.019510
-0.042880
0.099960
0.066609
0.095812
-0.033824
0.063052
0.036497
0.007093
0.073655
0.072629
0.109813
0.033184
0.054187
0.122186
0.084399
0.163553
0.170526
0.170199
0.204521
0.209568
0.295474
0.297251
0.223859
0.247710
0.292364
0.357715
0.328095
0.424450
0.405973
0.359574
0.365190
0.424312
0.397950
0.399065
0.435487
0.418291
0.362927
0.425647
0.420139
0.509100
0.340383
0.358987
0.411532
0.402222
0.357792
0.301321
0.277472
0.266669
0.199600
0.243383
0.303646
0.233423
0.061453
0.204198
0.142092
0.161820
0.128202
0.091927
0.101413
0.031715
0.052672
0.034077
0.039380
0.008379
-0.019663
0.007570
-0.036256
-0.011104
-0.093122
-0.009645
-0.058653
-0.002878
-0.070517
-0.059394
-0.013044
-0.122636
-0.079712
-0.087345
-0.129897
-0.106621
-0.105160
-0.146782
-0.095221
-0.068721
-0.107062
-0.064601
-0.022934
-0.048422
-0.094130
-0.064132
0.001192
-0.090269
-0.076633
0.022716
-0.095422
-0.118347
-0.074563
-0.031279
-0.112638
-0.120182
-0.016543
-0.040449
-0.103172
-0.007768
-0.211455
-0.058092
-0.120504
-0.089169
-0.053596
-0.089732
-0.103844
-0.167090
-0.046299
-0.106465
-0.115449
-0.046898
-0.079846
-0.103936
-0.133226
-0.071053
-0.072948
-0.100229
-0.062704
-0.106467
-0.177243
-0.042777
-0.065351
-0.078416
-0.097990
-0.099957
-0.130100
-0.103800
-0.160301
-0.171463
-0.089290
-0.098849
-0.044819
-0.086171
-0.107006
-0.022525
-0.038236
-0.081533
-0.037457
-0.081503
-0.122248
-0.098749
-0.077038
0.000568
-0.041496
-0.056175
-0.061739
-0.053225
0.104959
0.051147
0.074405
0.098814
0.101864
0.082621
0.184635
0.084766
0.095914
0.078370
0.005614
-0.045083
0.126274
0.065552
0.034077
0.009294
0.019439
0.025939
-0.009365
0.046929
-0.031777
-0.030214
-0.103692
0.010722
0.016436
-0.081868
0.029310
-0.079045
-0.060944
-0.048029
-0.088543
-0.078766
-0.030467
-0.114353
-0.099720
-0.114243
-0.081733
-0.081833
-0.086549
-0.090168
-0.067936
-0.100853
-0.081560
-0.088920
-0.151671
-0.115448
-0.157504
-0.122345
0.031821
0.144464
0.527087
0.919532
1.097414
1.228033
1.281752
1.109939
0.763672
0.349994
-0.006793
-0.238444
-0.274365
-0.367464
-0.364029
-0.326896
-0.219296
-0.117400
-0.162274
-0.088423
-0.062014
-0.070864
-0.116664
0.009555
-0.050449
-0.067852
-0.049626
0.002608
-0.036840
-0.020569
0.037438
-0.033372
-0.037569
0.022355
0.024071
0.006055
0.058620
0.010069
0.032121
0.078044
0.117049
0.092927
0.143423
0.189285
0.147933
0.183228
0.210625
0.199972
0.333529
0.224866
0.277564
0.360700
0.364718
0.382764
0.368173
0.423128
0.330471
0.346402
0.386181
0.433570
0.476745
0.456415
0.433310
0.435840
0.404121
0.386257
0.352664
0.365744
0.400449
0.330291
0.440184
0.240035
0.390456
0.344801
0.334673
0.305258
0.264936
0.204902
0.254475
0.166463
0.161147
0.152407
0.193725
0.133611
0.194372
0.165513
0.058755
0.083309
0.070268
0.104834
0.069268
-0.020424
0.025073
-0.015542
0.020465
0.008971
-0.037476
-0.069419
0.030909
-0.005139
-0.067742
0.050068
0.057008
0.006977
-0.046018
-0.076644
-0.068878
0.002542
-0.000986
-0.045275
-0.095082
-0.020036
-0.055599
-0.033163
-0.039242
0.032308
-0.088360
-0.034286
-0.068056
-0.027532
-0.066695
-0.089611
0.002982
-0.028860
-0.063624
-0.078842
-0.059326
-0.074320
-0.081747
0.003896
0.014082
-0.019873
0.039979
-0.047972
0.004977
-0.020176
-0.097717
0.034414
-0.025008
0.009538
0.032602
0.015184
0.013917
0.040178
-0.091876
-0.015019
-0.021881
-0.009256
-0.025164
0.004961
-0.038691
0.032025
-0.081155
-0.008467
-0.013754
0.019139
0.031327
0.006727
-0.060784
0.006297
-0.025477
-0.048606
-0.071894
0.001031
0.016836
-0.002880
0.112417
-0.051516
-0.009417
0.097786
-0.045908
0.013862
0.058462
0.047638
-0.004361
0.052797
0.071464
0.065196
0.076080
0.066062
0.147175
0.246007
0.210754
0.185355
0.134163
0.181384
0.118648
0.185576
0.203804
0.205206
0.251425
0.207263
0.148894
0.187879
0.205181
0.096617
0.154747
0.122043
0.167732
0.122623
0.001022
0.049132
0.120529
0.004890
0.095289
0.064169
0.120104
-0.032924
0.049738
0.069104
0.059880
0.084226
0.073768
-0.018409
0.079258
0.053954
-0.020734
0.022054
0.090635
0.053375
0.066663
0.047374
0.026543
0.013660
-0.024029
-0.029037
0.060895
0.056926
0.225410
0.462779
0.787289
1.117415
1.377740
1.397817
1.311139
0.962359
0.713986
0.376445
0.088142
-0.220051
-0.247252
-0.102986
-0.186755
0.048460
-0.127791
-0.062837
0.076974
0.111222
0.009959
0.133091
0.078553
0.072288
0.059230
0.150437
0.080398
0.058390
0.133273
0.120352
0.027864
0.097971
0.135885
0.110558
0.134363
0.156884
0.169311
0.116075
0.104203
0.217703
0.234233
0.164291
0.304314
0.336852
0.257449
0.378172
0.327197
0.307847
0.457337
0.392931
0.377805
0.458982
0.430968
0.472721
0.535540
0.525732
0.583778
0.544076
0.593712
0.437418
0.618498
0.582002
0.468465
0.524503
0.530336
0.497701
0.630883
0.502133
0.475805
0.505138
0.402709
0.515552
0.453803
0.439518
0.432780
0.356462
0.406645
0.334137
0.312348
0.311972
0.325884
0.313927
0.253770
0.233224
0.193054
0.192903
0.199839
0.230778
0.137514
0.103810
0.161192
0.186307
0.152088
0.091996
0.158276
0.144399
0.090262
0.083096
0.182555
-0.011395
0.117329
0.145975
0.100659
-0.014473
0.085557
0.038681
0.064818
0.077403
0.089968
0.094789
0.121854
0.125474
0.078673
0.140942
0.018264
0.127422
0.058386
0.074279
0.104481
0.056153
0.120928
0.060500
0.032520
0.056492
-0.018333
0.023944
0.024084
0.103937
-0.010830
0.069735
0.021386
0.099237
0.097859
0.048385
0.067617
0.111426
0.014016
0.075243
-0.021172
0.069503
0.040796
