0.002395
0.016065
-0.010495
0.009286
0.049639
-0.008413
0.004975
0.024900
-0.095760
-0.039744
-0.017244
-0.009450
0.081103
-0.050508
0.017121
0.094545
0.060371
0.042247
-0.011405
0.028048
0.025214
0.039588
0.024769
0.088763
0.009953
0.045551
0.097800
0.079471
0.048391
0.024054
0.054915
0.142431
0.129218
0.097571
0.183282
0.119764
0.127709
0.132052
0.183040
0.155346
0.214183
0.131854
0.169430
0.207249
0.204432
0.212813
0.160949
0.132344
0.156759
0.145390
0.182823
0.099632
0.135983
0.124764
0.090563
0.094665
0.065101
0.011264
0.140537
0.117634
0.042447
0.083611
0.077694
0.097344
0.067634
0.055967
0.032057
0.071854
0.055993
-0.002780
0.055654
0.141780
0.021385
0.046561
-0.052467
0.059370
-0.062549
0.013263
-0.041134
0.036927
0.058760
0.231550
0.526280
0.869201
1.105788
1.366991
1.459909
1.342126
1.101855
0.630590
0.327417
0.090581
-0.083239
-0.222114
-0.173122
-0.094475
0.046375
0.077889
-0.006446
0.061559
0.118739
0.098530
0.124703
0.111187
-0.003875
0.116126
0.099696
0.122098
0.135672
0.193986
0.144585
0.174949
0.134330
0.155533
0.227986
0.208317
0.204656
0.242378
0.243338
0.207401
0.250380
0.301156
0.266236
0.398264
0.409880
0.433291
0.385705
0.416667
0.498629
0.471038
0.467785
0.508921
0.538918
0.474549
0.542742
0.623370
0.597551
0.695550
0.590935
0.589194
0.574826
0.531854
0.571761
0.479646
0.550246
0.640712
0.508505
0.559289
0.528668
0.513438
0.485976
0.412576
0.411765
0.435469
0.295844
0.406622
0.407451
0.345310
0.307102
0.326776
0.229094
0.216557
0.136186
0.226481
0.228427
0.214757
0.173283
0.120487
0.188916
0.139465
0.181698
0.172128
0.194153
0.106344
0.057031
0.036008
0.076484
0.099980
0.137872
0.002287
0.089150
0.096448
0.118266
0.111273
0.018499
0.048939
0.076303
0.097815
0.174362
0.102554
0.054751
0.113349
0.130570
0.036190
0.045375
0.180331
0.107600
0.072390
0.126258
0.107633
0.054600
0.084465
0.015535
0.102829
0.074986
0.142136
0.101544
0.115006
0.048883
0.111433
0.069610
0.093804
0.052217
0.138408
0.189848
0.066791
0.094700
0.126392
0.028106
-0.020014
0.152165
0.062869
0.011012
-0.016911
0.145457
0.087650
0.016026
0.096548
0.088216
0.077694
0.095091
0.022189
0.018132
0.094308
0.117252
0.099495
0.101242
0.150117
0.086442
0.177385
0.118338
0.169755
0.129603
0.196771
0.212691
0.153455
0.160947
0.143170
0.239359
0.118142
0.209615
0.225203
0.208925
0.185621
0.160684
0.305495
0.193844
0.316074
0.273747
0.238744
0.252848
0.267394
0.246933
0.222494
0.243493
0.127360
0.152001
0.105888
0.225624
0.115805
0.177871
0.097928
0.149479
0.148532
0.133622
0.100773
0.026123
0.080687
0.046993
0.045999
0.023365
0.134999
0.192644
0.068902
0.137267
0.139310
0.087188
0.066592
0.075756
0.085855
0.107179
0.052112
0.098001
0.088366
0.038955
0.162468
0.372103
0.704186
1.059276
1.198492
1.412609
1.365038
1.090231
0.735135
0.440611
0.101062
-0.075514
-0.188240
-0.216882
-0.114476
-0.147492
0.069635
0.040662
0.072201
-0.009285
0.162164
0.120034
0.160411
0.074076
0.163986
0.073847
0.082592
0.100010
0.103426
0.128745
0.083074
0.148231
0.106247
0.107075
0.158849
0.171285
0.248092
0.217608
0.237954
0.252547
0.319041
0.249600
0.273171
0.407369
0.309214
0.472018
0.359163
0.439449
0.484884
0.398974
0.495845
0.449261
0.435610
0.578631
0.502240
0.479712
0.542517
0.533451
0.544236
0.496460
0.592446
0.547538
0.574059
0.506865
0.500404
0.497711
0.447983
0.459868
0.439300
0.495011
0.449227
0.437262
0.382777
0.350014
0.278268
0.313876
0.292274
0.276580
0.204455
0.185109
0.209823
0.107467
0.148869
0.091735
0.261508
0.199387
0.077701
0.069539
0.158717
0.077737
-0.006844
0.086441
0.083489
0.040610
0.041154
0.067936
0.056270
0.099678
0.093893
0.085981
0.051170
-0.020086
0.013758
0.045700
0.030184
0.033915
0.047768
0.020034
0.026226
0.001189
-0.018730
0.076564
-0.049598
-0.024646
-0.047180
0.022594
0.017376
-0.030392
-0.034917
0.011222
-0.082247
0.027438
0.032122
-0.035005
-0.003500
0.031866
0.025226
0.048325
-0.053771
0.040487
-0.012352
0.073216
0.030187
-0.032512
-0.015936
0.012000
0.019142
0.004339
0.027079
-0.014955
-0.002760
0.060223
0.026591
-0.086294
0.010982
-0.040379
-0.053173
-0.043256
-0.004588
0.012441
0.004638
-0.021567
-0.048232
-0.022044
-0.069082
-0.025954
0.034608
0.073682
-0.019104
-0.028654
-0.030396
0.083502
0.010271
0.045876
0.029896
0.103602
0.094781
0.131870
0.060724
0.153314
0.071992
0.174412
0.079562
0.141034
0.135333
0.092259
0.157989
0.191514
0.146813
0.149352
0.096430
0.196229
0.106323
0.111852
0.179433
0.049637
0.040170
0.118270
0.115285
0.007636
0.080630
0.057324
-0.006036
0.004015
0.020049
0.001581
-0.024865
0.039369
0.032798
-0.024102
0.003150
0.006073
0.060232
-0.040118
-0.021112
-0.013943
-0.012966
-0.057780
0.000738
-0.045969
-0.040896
-0.082173
-0.103052
-0.096672
0.054936
0.212787
0.526121
0.854292
1.169518
1.320854
1.364562
1.110301
0.777051
0.498396
0.064912
-0.135137
-0.314618
-0.300387
-0.243090
-0.064154
-0.095982
-0.158583
0.020709
-0.024427
0.023326
-0.041078
0.010891
-0.013807
-0.026528
0.026963
-0.006116
0.076297
-0.036803
0.035114
0.081637
0.117289
0.135680
0.031713
0.019217
0.057739
0.163023
0.160873
0.138860
0.087481
0.231680
0.167677
0.155466
0.291236
0.237774
0.232363
0.300683
0.318481
0.416035
0.419666
0.349026
0.455646
0.413302
0.421474
0.416464
0.368456
0.427358
0.477482
0.411348
0.430633
0.508063
0.392625
0.526182
0.440463
0.446344
0.370012
0.435838
0.479450
0.365918
0.414148
0.347394
0.337305
0.317735
0.329472
0.239125
0.283950
0.254672
0.229766
0.176279
0.119279
0.196610
0.095622
0.143926
0.051559
0.182816
0.068321
0.028659
-0.019995
0.079073
0.053835
-0.028854
-0.041604
-0.008167
-0.024426
-0.065469
0.003687
-0.053288
-0.038983
-0.032061
-0.030288
-0.024635
-0.043381
-0.013798
-0.031270
-0.011101
-0.040404
-0.099802
0.003170
-0.092622
-0.025697
-0.029230
0.038576
-0.000773
-0.048148
-0.049996
0.001602
0.017413
-0.032566
-0.008657
-0.085028
-0.051287
-0.006275
-0.016806
0.028760
-0.024532
-0.099151
-0.050893
-0.025627
-0.093112
-0.085934
-0.027988
0.038688
0.022651
-0.053513
0.013519
-0.065188
-0.010940
-0.104745
0.001686
0.044238
-0.027828
0.012332
0.003327
-0.003497
-0.087142
-0.017894
0.009016
0.015034
-0.111372
-0.063406
0.011479
0.016807
-0.009081
-0.040153
-0.047060
0.031776
0.028984
0.025825
0.023087
0.097256
0.003381
0.125450
0.116684
0.043118
0.105166
0.094095
0.011325
0.019883
0.121906
0.194155
0.024750
0.099877
0.116273
0.188569
0.144029
0.169828
0.168025
0.131471
0.132176
0.128808
0.099118
0.211304
0.200810
0.234968
0.127790
0.098188
0.111054
0.123902
0.039609
0.023607
0.028641
0.102250
0.053751
0.084695
0.000621
0.056658
0.010107
0.010804
0.049648
0.090360
0.045697
-0.009169
-0.030032
-0.023279
0.033465
-0.034632
-0.003798
-0.038569
-0.015905
0.013961
-0.076245
-0.058062
-0.020527
-0.003388
0.077023
0.250787
0.547019
0.839274
1.180160
1.334529
1.360209
1.208602
0.898689
0.577223
0.166747
-0.006563
-0.230595
-0.269342
-0.235512
-0.097852
-0.040997
-0.018228
-0.034363
0.072307
0.027875
0.034887
0.106658
-0.009352
0.043443
-0.021273
0.009701
0.102393
0.029598
0.196738
0.090413
0.146926
0.154040
0.026438
0.129260
0.182779
0.210966
0.169386
0.295536
0.276063
0.234055
0.267498
0.280552
0.329930
0.344598
0.390110
0.405038
0.439159
0.364791
0.420890
0.471736
0.448649
0.509708
0.399021
0.493115
0.580192
0.487916
0.566074
0.541456
0.527087
0.508104
0.541217
0.524037
0.484090
0.495506
0.504290
0.478557
0.479095
0.493712
0.426791
0.373394
0.380853
0.412612
0.365706
0.376265
0.347141
0.345647
0.311165
0.305437
0.239040
0.305317
0.207351
0.208542
0.166654
0.217184
0.191488
0.117418
0.189022
0.057584
0.100169
0.103602
0.117495
0.153474
0.123285
0.029775
0.141141
0.079556
0.032683
0.055456
0.105522
0.130064
0.186834
0.054456
0.072648
0.063022
0.010246
0.085810
0.085181
0.083766
0.092089
0.106988
0.030240
0.119404
0.132651
0.128045
0.082396
0.039911
0.021252
0.104550
0.050879
0.069816
0.026092
0.092337
0.104392
0.115675
0.087792
0.053433
0.001984
0.039060
0.085332
0.080153
-0.013194
-0.004620
0.069306
0.076872
0.133247
0.076729
0.052693
0.069500
0.116419
0.105762
0.033681
0.131368
0.073716
0.070572
0.066606
0.168590
0.056090
0.024707
0.098638
0.220809
0.058270
0.072374
0.086956
0.101318
0.102979
0.124248
0.121635
0.083778
0.143105
0.124285
0.154179
0.220269
0.230816
0.225756
0.274769
0.194091
0.164248
0.210417
0.215704
0.215740
0.207572
0.199097
0.232585
0.236414
0.294968
0.297653
0.283486
0.266837
0.288265
0.282898
0.228604
0.225850
0.178111
0.207732
0.223550
0.217460
0.207657
0.196093
0.112691
0.172160
0.154943
0.190695
0.134953
0.119462
0.159330
0.132469
0.063757
0.084108
0.066027
0.112392
0.056847
0.117070
0.104501
0.084133
0.049983
0.140682
0.070403
0.070246
0.041100
0.048620
0.001598
0.054177
0.060820
0.184243
0.307655
0.560196
0.845572
1.080874
1.404562
1.453887
1.337371
1.043121
0.704442
0.448661
0.161143
-0.047225
-0.175574
-0.172396
-0.123458
-0.072084
0.001671
0.106806
0.051541
0.132666
0.096681
0.080469
0.032621
0.129568
0.085250
0.210539
0.131472
0.240807
0.141143
0.241013
0.210534
0.205287
0.201355
0.226679
0.241082
0.296804
0.304002
0.339437
0.341108
0.287674
0.285226
0.298560
0.372687
0.407159
0.426368
0.466386
0.435702
0.507142
0.468892
0.517913
0.486606
0.515441
0.589719
0.456159
0.558219
0.552765
0.535160
0.560577
0.566936
0.629891
0.557127
0.568713
0.547631
0.563691
0.609069
0.586257
0.498674
0.455324
0.504121
0.508119
0.475947
0.439427
0.557277
0.371792
0.323436
0.378585
0.358366
0.374739
0.295773
0.251461
0.278740
0.194378
0.224361
0.201086
0.149110
0.155570
0.166982
0.089298
0.105688
0.140022
0.165270
0.067243
0.150063
0.103484
0.026611
0.021150
0.173922
0.056948
0.049755
0.154862
0.110617
0.172636
-0.003060
0.053231
0.128637
0.022928
0.082632
0.210936
0.063704
0.068172
0.098706
0.034497
0.191535
0.082243
0.054502
0.041657
0.034516
-0.006536
0.055602
0.064886
0.065661
0.037180
0.094741
0.084156
0.101479
0.009220
0.047270
0.030553
0.099941
-0.032030
0.106177
0.121285
0.050869
0.031750
0.042983
-0.012010
0.037144
0.109358
0.029548
0.103754
0.030882
0.047808
0.107207
0.093963
-0.002815
-0.011782
0.090605
0.105036
0.047992
0.048384
0.020647
0.104673
0.067209
0.043323
0.067060
0.088434
0.036851
0.084827
0.038117
0.045471
0.035088
0.046708
0.069939
0.046283
0.097098
0.073556
0.090704
0.115507
0.166498
0.153270
0.178890
0.138103
0.170269
0.171985
0.207769
0.290898
0.255906
0.172507
0.193776
0.197397
0.211418
0.189233
0.253027
0.075456
0.094176
0.081522
0.139446
0.139618
0.087163
0.127464
0.091293
0.086870
0.046754
-0.006338
0.065936
0.023432
0.013697
0.072782
0.007116
0.019464
0.027965
0.032081
0.026042
0.026022
-0.004649
-0.070283
0.053477
0.031641
0.028959
0.082736
-0.013396
0.002407
0.021090
0.016610
0.101114
0.259393
0.564928
1.022070
1.240024
1.385638
1.310791
1.094753
0.810186
0.377415
0.117598
-0.144965
-0.265783
-0.299190
-0.219392
-0.129165
-0.063176
-0.042438
-0.077395
-0.026144
-0.009344
0.026147
-0.003519
0.029926
0.036049
-0.057585
-0.024250
0.062396
0.000468
0.065560
0.093101
0.053184
0.091248
0.101930
0.058647
0.168185
0.158781
0.121280
0.128284
0.183662
0.178406
0.223805
0.197485
0.252577
0.276833
0.309824
0.274424
0.312645
0.387934
0.455523
0.365143
0.420824
0.465974
0.464553
0.477654
0.403033
0.471354
0.503411
0.406062
0.386197
0.446380
0.442793
0.528414
0.407305
0.390245
0.450562
0.373143
0.376871
0.335380
0.319153
0.312246
0.281263
0.207250
0.201989
0.300786
0.179478
0.155123
0.223355
0.142114
0.178488
0.186479
0.197886
0.098925
0.103770
0.089534
0.030161
-0.013986
-0.033274
0.065131
0.016419
0.029989
0.089454
-0.004996
0.002795
-0.021753
0.021679
0.009935
-0.128807
-0.000608
-0.013997
-0.071713
-0.082296
0.007993
-0.101629
-0.066601
-0.025439
-0.133721
-0.013869
-0.023789
-0.017381
0.011659
-0.051654
-0.043861
-0.053872
-0.069712
-0.059748
-0.130804
-0.042819
-0.093835
-0.039393
-0.083519
-0.131248
0.007059
-0.087013
-0.028237
-0.100293
-0.057591
-0.085915
-0.047139
-0.143824
-0.009337
-0.068677
-0.015807
-0.006513
-0.128668
-0.070621
-0.071613
-0.003185
-0.013733
-0.028108
-0.053796
-0.053273
-0.126322
-0.085599
-0.115053
0.031013
-0.078313
-0.057744
-0.082026
-0.127429
-0.078127
-0.012271
-0.028588
-0.089164
-0.048232
-0.118302
-0.072343
-0.069769
-0.037573
-0.052669
-0.053419
-0.000451
-0.140022
0.017480
0.011376
-0.024890
0.011055
0.033490
0.070479
0.010811
0.046893
0.026976
0.086434
0.085727
0.124468
0.101155
0.094871
0.064621
0.110065
0.089001
0.094408
0.077484
0.049504
0.073011
0.062153
0.072201
0.114888
-0.037025
0.001571
0.012926
-0.042090
0.052957
-0.049914
-0.068623
-0.078984
-0.082608
0.011409
-0.073611
0.038598
-0.096728
-0.092843
-0.060778
-0.106787
-0.122594
-0.083580
-0.065317
-0.086434
-0.096125
-0.070560
-0.050660
-0.141182
-0.050684
-0.062397
0.025571
0.030566
0.179240
0.492502
0.808923
1.097004
1.274089
1.320135
1.188555
0.730930
0.449341
0.087067
-0.175835
-0.318499
-0.321852
-0.314261
-0.143012
-0.099382
-0.136610
-0.129606
-0.029530
-0.015137
0.013642
-0.030954
0.034004
-0.024285
-0.047972
-0.128836
-0.008902
-0.038453
-0.018816
0.056170
0.042497
-0.047576
-0.026112
0.001244
0.018338
0.078363
0.152093
0.114078
0.204196
0.118848
0.205386
0.229536
0.198646
0.137684
0.274256
0.295823
0.321741
0.395242
0.254554
0.361229
0.333982
0.387585
0.370123
0.388912
0.448613
0.351368
0.403017
0.478893
0.368385
0.506893
0.399980
0.439320
0.383642
0.394250
0.494221
0.384020
0.318800
0.297803
0.268519
0.246523
0.323891
0.260085
0.280319
0.262159
0.244534
0.182647
0.181013
0.121766
0.152535
0.170003
0.143554
0.143676
0.058742
0.054417
0.080036
0.037240
0.113850
-0.021854
-0.006649
-0.009676
0.008683
0.018108
0.032096
-0.017255
0.002803
-0.047736
-0.018955
-0.061524
-0.048430
-0.068861
0.015890
-0.022799
-0.015371
-0.056486
-0.008461
-0.091324
-0.029061
0.010554
-0.060749
-0.000061
-0.042182
-0.067031
-0.011757
-0.082493
-0.060168
0.003656
-0.009992
-0.023118
-0.095002
-0.056518
-0.008663
-0.049740
-0.026747
0.047736
-0.086643
0.024696
-0.112306
-0.075432
-0.069765
-0.029372
-0.074224
0.004051
-0.077254
-0.073563
-0.028883
0.002214
-0.090667
0.014783
-0.062045
-0.014588
0.043595
-0.021738
-0.092080
0.003363
0.011981
-0.010394
-0.021848
-0.031125
-0.022338
-0.016127
-0.047996
-0.016283
-0.001755
0.089802
0.047757
0.023684
-0.045806
0.043808
-0.007220
0.054026
0.011605
0.040499
0.083136
0.104280
0.074073
0.114556
0.057331
0.079273
0.160291
0.106209
0.122641
0.177327
0.203637
0.160557
0.054216
0.171450
0.155988
0.215166
0.187791
0.208217
0.109971
0.212232
0.119328
0.191113
0.141578
0.093064
0.057629
0.021844
0.126716
0.044103
0.078607
-0.005449
0.013233
0.095644
0.037183
0.087178
0.019028
0.038372
0.003288
-0.048217
0.028719
0.013483
0.032160
-0.052187
0.017186
0.013204
0.004508
0.001082
0.048479
0.077667
-0.019244
0.012284
0.026743
0.068316
0.203297
0.503997
0.903892
1.135191
1.293401
1.448352
1.317938
0.999397
0.670459
0.316552
-0.001763
-0.174165
-0.184086
-0.270133
-0.101584
-0.085279
-0.075194
-0.032481
-0.042357
0.026498
0.045458
0.017386
0.072554
0.036304
0.045011
0.019502
0.109790
0.152983
0.090958
0.197869
0.077970
0.109690
0.117999
0.153037
0.133692
0.262397
0.209830
0.161287
0.186595
0.250996
0.286120
0.260655
0.263801
0.361157
0.375214
0.372742
0.468701
0.431758
0.398319
0.502440
0.472365
0.502052
0.535743
0.551078
0.538909
0.493784
0.542111
0.565022
0.555484
0.507897
0.519551
0.494560
0.544707
0.505391
0.586711
0.505016
0.485479
0.433079
0.389140
0.466247
0.355512
0.311340
0.388032
0.299450
0.367927
0.290329
0.220152
0.330246
0.210302
0.260197
0.252552
0.119136
0.091662
0.129217
0.158790
0.136001
0.130895
0.152029
0.127158
0.132660
0.050518
0.155277
0.052017
0.054762
0.025880
0.065368
0.083356
0.055433
0.137020
0.055487
0.030378
0.084578
0.030691
0.169687
0.099974
0.037773
0.051862
0.062102
0.006144
0.004325
0.010459
0.096390
0.052954
0.065507
0.096705
-0.026528
0.027917
0.070700
0.020466
0.104632
0.049137
0.064707
-0.031036
0.014376
0.064411
0.095849
0.086003
0.057448
0.019573
-0.056185
0.115937
0.019877
0.023850
0.011189
0.099253
0.010805
0.008537
-0.024011
0.085427
0.024179
-0.009511
0.019657
0.055266
0.062774
0.060015
0.059146
0.089794
0.026091
-0.087791
0.123149
0.042142
0.093846
0.046371
0.087767
0.048611
0.115574
0.041721
0.013722
0.128837
0.116356
0.049627
0.146158
0.130015
0.114742
0.118690
0.153412
0.177250
0.085978
0.139511
0.234213
0.117641
0.244789
0.195375
0.208220
0.212266
0.252767
0.191796
0.304535
0.135420
0.150658
0.212118
0.149902
0.116726
0.256863
0.169847
0.248735
0.127175
0.110914
0.078059
0.152194
0.081546
0.087998
0.014219
-0.009665
0.148033
0.073329
0.104349
0.055561
-0.005878
0.023650
0.029853
0.047333
0.031392
0.044745
0.015175
0.053899
0.011249
-0.001551
0.053071
-0.030473
-0.014185
-0.016035
-0.027150
0.029832
0.184336
0.443448
0.697216
1.095238
1.336688
1.318012
1.370207
1.122507
0.719282
0.392407
0.098050
-0.078922
-0.256595
-0.230842
-0.203413
-0.138714
-0.005627
0.016970
0.026341
0.029060
0.059419
0.021489
-0.032965
0.026867
0.050703
0.097911
0.097196
0.070910
0.159547
0.068463
0.054630
0.114586
0.109323
0.097603
0.193218
0.135153
0.191697
0.235106
0.207627
0.240080
0.248172
0.193786
0.262481
0.255728
0.289249
0.354322
0.381564
0.333045
0.345012
0.396553
0.517530
0.523455
0.426124
0.530692
0.463470
0.495662
0.600849
0.508011
0.549927
0.502745
0.526418
0.507982
0.455796
0.552011
0.438143
0.523274
0.431889
0.422748
0.387079
0.319989
0.286274
0.306123
0.202597
0.255725
0.231037
0.230888
0.307341
0.200881
0.190874
0.176878
0.127920
0.126576
0.173306
0.153221
0.057002
0.092838
0.090641
0.001944
-0.014883
0.063889
0.036672
0.077254
0.053323
0.037779
0.049355
0.008626
0.040848
-0.010422
-0.033082
0.017175
-0.000613
-0.027538
0.049210
-0.070462
-0.061401
-0.014911
0.013486
-0.024637
-0.135878
-0.012567
-0.059935
-0.021590
-0.015444
-0.038788
-0.070890
0.005505
-0.077226
-0.016212
-0.056655
0.012115
-0.021252
-0.009061
-0.114102
-0.008572
-0.039330
-0.006354
-0.066902
-0.008202
-0.055421
-0.049220
-0.024806
-0.057439
-0.034972
-0.097914
-0.053200
-0.032730
-0.034657
0.032969
-0.068015
-0.004227
-0.051371
-0.074347
-0.085789
0.034845
-0.059142
-0.058021
-0.072667
-0.024698
-0.032094
-0.078646
-0.087028
-0.072398
-0.065122
-0.006151
-0.029073
-0.039501
-0.020421
-0.055969
0.031645
-0.039566
-0.029888
0.008226
-0.011703
0.004916
-0.040242
0.031779
0.100360
0.136393
0.001554
0.147289
0.060327
0.072675
0.088773
0.125711
0.022892
0.121250
0.086504
0.103412
0.092217
0.133014
0.089496
0.103734
0.089368
0.145030
0.015353
0.069434
0.046523
0.005985
0.014909
-0.013895
-0.057206
0.016851
-0.090502
-0.000726
-0.035073
-0.040730
-0.015275
-0.135264
-0.024907
-0.032940
-0.097469
-0.023701
-0.074539
-0.089050
-0.099496
-0.041517
-0.027441
-0.103793
-0.100721
-0.104798
-0.107313
-0.115419
-0.130108
0.007917
0.109515
0.211553
0.533913
0.867572
1.054681
1.215645
1.206474
1.097695
0.750131
0.397360
0.040923
-0.274859
-0.292921
-0.385067
-0.261792
-0.212301
-0.204785
-0.149727
-0.023634
-0.102192
-0.031804
-0.006492
-0.059756
-0.070268
-0.124812
-0.086290
-0.046123
-0.017010
-0.048268
-0.115123
-0.016347
-0.058838
-0.056328
-0.001987
-0.044839
0.012229
0.102292
0.017807
0.050306
0.120227
0.072548
0.114714
0.153292
0.220624
0.212279
0.239492
0.209703
0.279425
0.276131
0.330057
0.299728
0.347087
0.329308
0.432052
0.374739
0.393063
0.367597
0.441634
0.395767
0.348721
0.375077
0.412232
0.366130
0.440179
0.417899
0.380229
0.345738
0.359097
0.250115
0.253874
0.271676
0.272308
0.159613
0.239497
0.249775
0.207280
0.135762
0.091067
0.111734
0.098521
0.085696
-0.016088
0.060950
0.055223
0.023930
0.021897
0.040703
-0.038271
-0.051120
0.037115
-0.112909
-0.021602
-0.046292
-0.070316
-0.042913
-0.116111
-0.079419
-0.083242
-0.026108
-0.088145
-0.077353
-0.138545
-0.092947
-0.085407
-0.129189
-0.103230
-0.038373
-0.103358
-0.025820
-0.157508
-0.055841
-0.029759
-0.188681
-0.121150
-0.061661
-0.040312
-0.077616
-0.116126
-0.129801
-0.075044
-0.179535
-0.106383
-0.063001
-0.092531
-0.083322
-0.053148
-0.142411
-0.124669
-0.092200
-0.083850
-0.039697
0.015491
-0.060145
-0.039722
-0.054832
-0.042853
-0.113977
-0.114215
-0.023330
-0.090268
0.000309
-0.141122
-0.081083
-0.094128
-0.042929
-0.051926
-0.083618
-0.090424
-0.066344
-0.037833
-0.189814
-0.093500
-0.060500
-0.056456
-0.075002
-0.066663
-0.035172
-0.019173
0.047054
0.047438
0.008183
-0.067462
-0.010423
-0.002211
-0.010245
0.034534
0.004117
0.055243
-0.022409
0.049505
0.016263
0.066779
0.121272
0.158544
0.072171
0.040141
0.043265
0.089857
0.071858
0.113912
0.098576
0.060596
-0.023700
0.124474
0.090001
0.023559
0.054905
0.089058
0.103921
0.085693
0.015646
-0.042565
0.002257
-0.029313
-0.042078
-0.052979
-0.072222
-0.000701
0.020945
-0.041976
-0.046406
-0.064846
-0.123974
0.003498
-0.042258
-0.015967
0.012781
-0.020787
-0.024679
0.016778
-0.001862
-0.002026
-0.167098
-0.025010
0.018115
0.169390
0.464438
0.780467
1.082804
1.316026
1.277156
1.212609
0.910711
0.497541
0.176304
-0.041323
-0.280249
-0.317767
-0.162361
-0.239216
-0.127681
-0.065259
-0.008215
-0.110958
-0.068838
-0.015143
-0.031235
-0.050407
-0.027924
-0.018041
-0.004132
-0.079017
0.072243
0.096178
0.057725
0.142970
0.038193
0.004001
0.107255
0.153057
0.139247
0.178047
0.216250
0.154644
0.172210
0.243359
0.204922
0.350300
0.288166
0.298477
0.260140
0.382972
0.379860
0.357967
0.384959
0.462930
0.442008
0.473202
0.520061
0.473929
0.468058
0.500018
0.448869
0.497843
0.493032
0.555688
0.519793
0.533055
0.506910
0.492074
0.500742
0.501446
0.416496
0.432230
0.363228
0.407400
0.317417
0.323589
0.289563
0.291545
0.312976
0.224366
0.192005
0.249487
0.161462
0.130041
0.185190
0.168631
0.072995
0.100129
0.037492
0.022755
0.136250
0.094499
0.070079
0.109836
0.103973
0.080179
0.093024
-0.024180
0.029045
0.002679
0.034001
-0.094339
0.049249
-0.004088
0.023479
0.068998
0.038805
0.009427
0.003015
0.047479
0.078234
0.013645
0.070124
0.047995
0.053989
0.050774
0.017025
0.025508
0.030730
0.028215
0.039950
0.049835
-0.065434
-0.005276
0.030602
-0.000223
0.002100
0.063245
0.057704
0.031943
0.060473
0.025678
0.011879
-0.044860
0.073039
0.020688
0.061863
0.102318
0.043777
-0.030474
0.022656
0.071004
0.127355
0.072294
0.102752
0.057269
0.025019
-0.019584
0.048798
0.047889
0.071433
0.014182
0.071521
-0.065571
0.093375
0.082799
0.063906
0.020230
0.121450
0.077031
0.039810
0.143240
0.075240
0.110185
0.048561
0.118150
0.110691
0.171516
0.107655
0.150325
0.095104
0.141102
0.219699
0.316358
0.188732
0.200387
0.274193
0.161126
0.189156
0.229039
0.211340
0.213950
0.265633
0.160624
0.246317
0.209537
0.125407
0.151132
0.200362
0.166254
0.290751
0.153020
0.126729
0.067984
0.192592
0.069237
0.113613
0.025880
0.170258
0.133119
0.142889
0.021321
0.092778
0.134936
0.106397
0.144292
0.009579
0.122349
0.085657
0.049894
0.045266
0.044692
0.089413
0.079949
0.053311
0.089663
0.129931
0.214168
0.483000
0.706181
1.142044
1.351263
1.500000
1.311950
1.097716
0.712556
0.328142
0.070756
-0.068189
-0.203714
-0.219829
-0.015522
-0.056818
0.062343
0.003793
0.147030
0.145562
0.119666
0.118214
0.148087
0.074382
0.133801
0.164166
0.063960
0.106266
0.047579
0.117698
0.154358
0.172273
0.131296
0.192095
0.200048
0.252908
0.221727
0.383775
0.247672
0.264560
0.257649
0.315946
0.338524
0.433137
0.412767
0.413261
0.504790
0.396410
0.500711
0.501523
0.443360
0.489869
0.474713
0.510243
0.570387
0.600481
0.463667
0.648996
0.596675
0.561521
0.589713
0.543603
