0.012768
-0.032979
0.083074
0.043089
0.101278
0.059429
-0.042897
0.022661
-0.041738
0.039610
0.102132
-0.050401
-0.046328
-0.009659
0.101324
0.037756
-0.048313
0.050749
0.076716
0.040842
0.006101
0.050488
0.012747
0.115901
0.045452
0.070126
0.103466
0.113959
0.100341
0.135765
0.123057
0.168914
0.102354
0.125456
0.157232
0.208482
0.285089
0.156691
0.128420
0.201212
0.237160
0.203477
0.200419
0.224228
0.232480
0.160594
0.245466
0.140532
0.176280
0.075248
0.128367
0.123432
0.093163
0.121078
0.084616
0.069551
0.001610
0.079121
-0.011290
0.034862
-0.042911
0.047541
0.021995
0.075211
0.089836
0.142974
0.069174
0.059345
0.035522
0.044908
0.036369
0.027373
0.118336
0.295006
0.348991
0.746884
1.061523
1.318002
1.369159
1.366110
1.093870
0.659155
0.358883
0.087717
-0.132481
-0.148131
-0.165211
-0.057049
-0.043789
0.042473
-0.020101
0.074304
0.098386
0.119892
0.069387
0.153983
0.084179
0.121765
0.232694
0.156925
0.160467
0.180369
0.099474
0.242531
0.206641
0.234388
0.285348
0.302756
0.344605
0.269303
0.253409
0.345343
0.346032
0.441589
0.460983
0.464611
0.453410
0.517933
0.414799
0.526373
0.598474
0.563724
0.609142
0.612650
0.566097
0.542837
0.560515
0.525916
0.524178
0.594152
0.548557
0.644218
0.566261
0.599884
0.534957
0.523157
0.581048
0.532870
0.434421
0.459280
0.326262
0.437676
0.419645
0.299481
0.294237
0.329301
0.162469
0.247526
0.223350
0.239370
0.234364
0.139139
0.202974
0.129022
0.261391
0.175174
0.104136
0.203761
0.079036
0.132466
0.183628
0.106932
0.061671
0.044738
0.146810
0.118712
0.120111
0.099173
0.129323
0.147037
0.057162
0.110342
0.184986
0.030274
0.093692
0.108616
0.012024
0.099200
0.011716
0.062945
0.114070
0.094892
0.082158
0.107015
0.163338
0.040254
0.001262
0.082916
0.109639
0.051628
0.094811
0.043054
0.066440
0.069854
0.114981
0.005475
0.101286
0.054450
0.106311
0.064116
0.036356
0.066741
0.078079
0.114673
0.043744
0.119527
0.099666
0.127576
0.168659
0.076085
0.127269
0.109881
0.087466
0.133624
0.139844
0.171185
0.056261
0.151616
0.173747
0.121318
0.230652
0.224424
0.202309
0.264576
0.204727
0.236027
0.209576
0.230795
0.258340
0.270025
0.185370
0.307959
0.133983
0.287895
0.226928
0.245445
0.186999
0.160683
0.161545
0.232832
0.233152
0.202289
0.248550
0.154721
0.213305
0.202573
0.172925
0.159844
0.211138
0.038579
0.212669
0.186804
0.174137
0.110382
0.095866
0.112686
0.097281
0.095318
0.065829
0.174636
0.060430
0.100901
0.053701
0.149804
0.105341
0.113187
0.022793
0.136485
0.307650
0.508032
0.874502
1.165110
1.368976
1.477857
1.368838
1.101760
0.599893
0.313344
0.011324
-0.035125
-0.104353
-0.110880
-0.056656
0.028098
0.037746
0.075360
0.137488
0.092162
0.073700
0.172178
0.095616
0.126670
0.107472
0.135234
0.089855
0.193380
0.175760
0.244285
0.219794
0.209114
0.262306
0.278796
0.322893
0.261805
0.322991
0.309926
0.304290
0.357238
0.430809
0.413485
0.502077
0.497502
0.499592
0.495865
0.440194
0.573837
0.550616
0.588760
0.557570
0.591822
0.569270
0.604986
0.594493
0.601483
0.601556
0.556432
0.590180
0.505884
0.454231
0.530005
0.493403
0.473103
0.405721
0.430491
0.420040
0.377069
0.309019
0.322770
0.347160
0.333535
0.243861
0.311460
0.260994
0.238255
0.302289
0.261433
0.180764
0.190538
0.167575
0.176134
0.114852
0.051790
0.091811
0.061783
0.081205
0.041442
0.061604
0.053330
0.042727
0.027608
-0.018577
0.053621
0.095306
0.049082
-0.068767
0.108388
0.007167
-0.087504
0.031357
0.008982
0.098097
0.043861
0.104572
0.016655
0.017164
0.010031
0.049565
0.012314
-0.027631
0.036804
0.021784
0.040196
-0.041248
0.030344
0.011894
0.085529
-0.009487
0.028856
0.004322
0.011052
0.016776
0.033042
0.055688
0.048089
0.086513
0.052359
0.039003
-0.039802
0.057521
0.000629
0.075184
0.078259
0.102832
0.043485
0.080353
0.096724
0.049458
-0.006793
0.034626
0.066158
0.119848
0.061401
0.084389
0.104320
0.063122
0.040172
0.086424
0.035660
0.044981
0.102268
0.241198
0.129656
0.129944
0.198024
0.149090
0.185852
0.160981
0.160555
0.201951
0.222578
0.173314
0.147982
0.264145
0.155972
0.139761
0.225555
0.092624
0.150081
0.123896
0.093892
0.120222
0.083880
0.120446
0.065715
0.059184
0.050594
-0.067605
-0.024847
0.039139
0.117912
0.048588
-0.028080
-0.016764
0.004219
0.030009
0.042699
-0.027491
-0.042130
-0.041737
0.013444
-0.035401
-0.044490
0.085481
0.228720
0.444760
0.841880
1.159451
1.360108
1.357572
1.150735
0.910086
0.474778
0.115108
-0.109475
-0.213081
-0.268418
-0.224337
-0.148433
-0.087904
-0.021686
-0.053619
0.044818
-0.061613
0.000867
0.035834
0.066917
0.080812
0.115348
0.089359
0.090229
0.114510
0.158350
0.115866
0.082326
0.042730
0.155793
0.165546
0.293234
0.210615
0.204902
0.203026
0.304177
0.371121
0.306961
0.326248
0.369806
0.367498
0.391763
0.411671
0.354566
0.384532
0.365708
0.502373
0.523633
0.549578
0.485773
0.490095
0.460442
0.435005
0.508618
0.470713
0.478147
0.474190
0.405250
0.343296
0.398592
0.430113
0.387506
0.380994
0.309773
0.244344
0.276332
0.231875
0.259642
0.172248
0.203803
0.156771
0.168623
0.064804
0.136643
0.093029
0.095585
0.123888
0.007042
0.000356
-0.003731
0.054104
-0.006357
-0.081381
0.057881
0.077169
-0.020126
0.021406
0.044602
0.030123
0.025337
0.075926
0.097090
-0.051824
-0.052497
-0.055075
0.029029
-0.004402
-0.036950
-0.015979
-0.068054
-0.041897
-0.073627
-0.082198
-0.039537
-0.059332
0.024851
-0.020555
-0.017247
0.030788
-0.096520
-0.061427
-0.105276
-0.057643
-0.069731
-0.034495
-0.041803
-0.125003
-0.093076
-0.032752
-0.082254
-0.038627
-0.010236
-0.044838
-0.015186
-0.020071
-0.109578
-0.088787
0.009428
-0.042071
-0.018566
-0.128735
0.016195
-0.017403
-0.026057
0.066757
0.004241
-0.055675
0.051927
-0.019998
-0.069179
-0.016132
-0.046535
0.035741
-0.050244
0.058964
-0.037316
0.026921
0.030827
0.080978
0.111295
0.176617
0.122522
0.024563
0.182952
0.095117
0.127839
0.124664
0.156250
0.110202
0.120109
0.116251
0.105223
0.168635
0.137513
0.031273
0.105548
0.027334
0.099025
-0.014706
0.001745
0.047717
0.088708
0.033180
0.039004
-0.010671
0.018544
0.013130
-0.001353
-0.021972
-0.005610
0.082575
-0.061715
0.025626
0.013671
-0.093989
-0.021435
-0.054008
-0.073903
-0.044351
-0.053236
0.019637
-0.006985
0.238539
0.606810
0.827284
1.218060
1.288401
1.301972
1.125695
0.731541
0.374198
0.046776
-0.164108
-0.201726
-0.179299
-0.158686
-0.136080
-0.078049
-0.012413
0.083735
0.019144
0.124815
0.090594
0.014685
0.107209
0.075869
0.075111
0.131536
0.149613
0.119344
0.067506
0.042206
0.147644
0.183367
0.110498
0.200408
0.219447
0.287721
0.232540
0.238145
0.328779
0.202593
0.440763
0.330007
0.314480
0.399821
0.427274
0.454238
0.490610
0.496334
0.427139
0.543262
0.473161
0.476990
0.533299
0.509191
0.528053
0.581526
0.540186
0.495025
0.459463
0.414067
0.424142
0.385228
0.522317
0.409486
0.382749
0.359873
0.315840
0.346470
0.286382
0.267833
0.276533
0.257323
0.186501
0.212736
0.212264
0.207417
0.142752
0.187957
0.227105
0.166006
0.097436
0.114743
0.104535
-0.015688
0.044741
0.085122
-0.013581
0.126637
0.132539
0.032398
0.032481
0.029416
0.070594
0.092703
0.101612
0.112760
-0.061126
0.032956
0.118985
0.026073
0.038225
-0.001631
0.055529
0.113334
-0.048183
0.059670
0.088226
-0.005735
0.046812
0.033687
-0.101083
0.016584
-0.019874
0.031665
0.134535
0.109544
0.041892
0.063182
0.070171
-0.000246
0.034365
0.036167
0.021348
0.069138
-0.004210
0.039200
0.014806
0.000146
-0.013204
-0.029632
0.044693
0.068921
0.071803
0.079521
-0.032346
0.027452
-0.021221
0.101490
0.115034
0.062230
0.154130
0.029852
0.154871
0.102497
0.122740
0.129354
0.078082
0.132073
0.172302
0.160341
0.120706
0.201217
0.217580
0.229127
0.228381
0.159741
0.129991
0.317961
0.207878
0.241582
0.183112
0.200098
0.231624
0.224720
0.224422
0.205080
0.190095
0.129332
0.236053
0.218317
0.163453
0.245196
0.107386
0.107205
0.184365
0.034885
0.118043
0.108123
0.108323
0.047660
0.120301
0.069245
0.073821
0.132461
0.004255
0.054761
0.081654
0.170886
0.072035
0.089684
0.042717
-0.014368
0.013810
0.089954
0.254329
0.445457
0.703269
1.030310
1.347825
1.389781
1.394268
1.153571
0.857335
0.410345
0.077072
-0.089356
-0.153302
-0.147151
-0.049716
0.022579
0.037630
0.112539
0.109729
0.055142
0.125635
0.041461
0.127258
0.221924
0.111006
0.190177
0.219698
0.173557
0.294912
0.241867
0.221112
0.262094
0.253473
0.252590
0.301706
0.421263
0.305201
0.395816
0.295288
0.334392
0.430823
0.475898
0.466589
0.509743
0.525355
0.480203
0.503582
0.562762
0.549366
0.567593
0.569786
0.590766
0.638339
0.604264
0.530237
0.611352
0.592514
0.569758
0.577084
0.520512
0.579658
0.568455
0.611355
0.525533
0.496337
0.463984
0.423829
0.425238
0.396765
0.398676
0.390710
0.405173
0.323455
0.299663
0.338457
0.368881
0.261197
0.253437
0.179914
0.221705
0.211771
0.082173
0.163542
0.120224
0.129362
0.218115
0.172448
0.154350
0.141811
0.136972
0.146446
0.117866
0.126921
0.062506
0.062410
0.143412
0.114948
0.014075
0.182483
0.130759
0.009616
0.176469
0.100125
0.098828
0.138678
0.118486
0.122637
0.201934
0.123427
0.152713
0.092725
0.154049
0.073447
0.083782
0.046120
0.093099
0.067240
0.129669
0.065662
0.020632
0.175608
0.096697
0.067224
0.129359
0.045073
0.100916
0.156508
0.145435
0.142355
0.057469
0.026104
0.114001
0.126588
0.104864
0.043001
0.100092
0.102995
0.064975
0.155495
0.130291
0.180957
0.115795
0.090322
0.062773
0.143232
0.246286
0.212634
0.132396
0.135500
0.176182
0.163253
0.302934
0.148498
0.187056
0.138191
0.126730
0.200122
0.307551
0.173388
0.234503
0.287937
0.292755
0.211390
0.253453
0.299633
0.306723
0.278018
0.209252
0.182313
0.167384
0.212090
0.174321
0.188729
0.205237
0.194109
0.181327
0.105474
0.173550
0.112959
0.129343
0.131131
0.089099
0.042342
0.147762
0.045225
0.092985
0.014074
0.091213
-0.036755
0.108164
0.030204
0.127569
0.104644
0.058288
0.170327
0.247962
0.436155
0.684939
0.990385
1.282772
1.500000
1.367162
1.118453
0.805469
0.413591
0.086885
-0.204194
-0.184688
-0.134528
-0.150840
-0.060890
0.043816
0.089282
0.200592
0.110343
0.102067
0.142483
0.092416
0.140350
0.087165
0.155758
0.133630
0.226954
0.194722
0.129862
0.103148
0.129049
0.209476
0.250196
0.345143
0.305510
0.276391
0.285019
0.378123
0.344820
0.409666
0.370046
0.370167
0.489965
0.447123
0.528971
0.488940
0.441032
0.472918
0.560737
0.524501
0.567368
0.581049
0.554842
0.547507
0.514678
0.482750
0.566414
0.532945
0.545997
0.538877
0.535767
0.471454
0.414370
0.468744
0.417162
0.410902
0.374578
0.284799
0.325855
0.323607
0.355415
0.205346
0.320702
0.260900
0.238733
0.143886
0.181012
0.227051
0.131748
0.125269
0.096130
0.089434
0.141254
0.082576
0.046483
-0.020902
0.065888
0.064867
0.046433
0.026835
0.051184
0.001994
0.008799
0.057497
0.076825
-0.016654
0.013705
0.062221
0.041339
0.042464
-0.017372
0.015788
-0.018029
-0.017965
-0.043416
-0.008013
0.053458
-0.014759
-0.028340
0.019753
-0.006799
0.073429
0.056581
-0.040721
0.109652
-0.015985
-0.027105
-0.159978
-0.036581
0.000945
-0.011590
0.011696
-0.012032
-0.014901
-0.032022
-0.012596
0.036561
-0.059477
-0.038258
-0.057354
0.015245
-0.112478
-0.054165
-0.022001
-0.027950
0.003911
0.008103
-0.028067
-0.050241
0.018103
0.044913
-0.032016
0.032997
-0.020691
0.023174
-0.018130
0.076246
0.087964
0.110722
0.156485
0.033847
0.086608
0.111812
0.062059
0.068607
0.119145
0.062922
0.086899
0.121929
0.126210
0.178736
0.150770
0.113537
0.208188
0.151668
0.071589
0.075004
0.081991
0.052966
0.045840
0.133186
0.023924
0.064649
-0.045539
0.057339
0.005779
-0.042201
-0.063125
-0.025685
-0.093115
-0.019275
-0.051015
-0.055894
-0.089903
-0.079326
-0.021277
-0.055257
-0.141582
-0.072875
0.022946
-0.117569
-0.097573
0.022942
0.016274
0.119082
0.437223
0.628575
1.081247
1.301661
1.334770
1.118588
0.952590
0.509124
0.182348
-0.089006
-0.256581
-0.284020
-0.345337
-0.233157
-0.146588
-0.026196
-0.019596
-0.046239
-0.014253
0.049010
-0.045916
-0.009376
0.072440
0.042080
0.006233
0.000831
0.042587
0.104562
0.065661
0.083724
0.122588
0.164014
0.109361
0.194898
0.220716
0.153169
0.154305
0.218848
0.201829
0.217365
0.321395
0.259500
0.346812
0.344568
0.336537
0.352567
0.360370
0.375061
0.465902
0.424340
0.483551
0.418469
0.370304
0.353170
0.416103
0.480011
0.389610
0.323291
0.329042
0.442045
0.364750
0.309399
0.356338
0.239480
0.309565
0.278530
0.209648
0.258402
0.312426
0.156653
0.145151
0.186227
0.121205
0.169232
0.049462
0.150615
0.132818
0.066337
0.062633
0.007836
-0.028806
-0.011964
-0.056421
-0.037172
-0.008721
0.015686
-0.043410
-0.044035
-0.029361
0.025487
-0.102586
-0.049137
-0.012304
-0.030875
-0.058696
-0.048666
0.009777
-0.103790
-0.067194
-0.086417
-0.097652
-0.048494
-0.067142
-0.094857
0.022483
-0.046351
-0.088433
-0.113644
-0.118836
-0.127760
-0.010173
-0.009512
-0.040938
-0.121904
-0.101272
-0.119823
-0.066869
-0.057698
-0.061032
-0.082746
-0.120174
-0.019644
-0.018907
-0.077378
-0.157629
-0.083084
-0.129807
-0.101195
-0.045267
-0.116070
-0.088357
-0.086250
0.005600
-0.059061
-0.137001
-0.116231
-0.074858
-0.029854
-0.055097
0.013090
-0.029200
-0.081376
-0.020337
0.066293
0.001892
0.039189
-0.052758
-0.057758
-0.071973
-0.033591
0.018437
0.111004
0.009944
0.025674
0.050716
0.087137
0.050583
0.177990
0.156625
0.136030
0.101377
0.082948
0.135427
0.186524
0.084049
0.152873
0.030685
0.080636
0.146562
0.078308
0.064112
0.003512
0.010198
0.027853
-0.009511
0.019501
0.050754
-0.047287
-0.027870
-0.013704
-0.033987
-0.077752
-0.036778
-0.036417
-0.129846
-0.053125
-0.035939
-0.034635
-0.073898
-0.085116
-0.198519
-0.089366
-0.157191
0.019061
0.178086
0.411516
0.776345
1.081087
1.254045
1.346794
1.153971
0.773180
0.467199
0.165674
-0.088887
-0.239781
-0.274009
-0.179576
-0.068180
-0.095325
-0.043372
0.037618
-0.066834
0.079596
0.050250
0.015608
-0.008259
-0.015237
0.068917
-0.006099
0.097347
0.025323
0.060740
0.106879
0.102415
0.111497
0.186059
0.089639
0.250383
0.194690
0.146173
0.199391
0.294498
0.308772
0.282875
0.338992
0.280396
0.357355
0.425950
0.366457
0.433809
0.396157
0.490090
0.480659
0.459467
0.425166
0.428753
0.530728
0.522824
0.484590
0.504627
0.521825
0.461956
0.427417
0.506739
0.433090
0.432806
0.439968
0.416608
0.431308
0.390003
0.269368
0.262398
0.240502
0.245604
0.252875
0.229027
0.160989
0.088935
0.201582
0.202306
0.131284
0.188840
0.071834
0.109472
0.025631
0.150946
0.028421
-0.012169
0.045748
0.048549
-0.003193
-0.014149
0.019423
-0.049722
0.043986
-0.040143
-0.005816
0.018022
0.006823
0.015630
0.027916
-0.004825
-0.021257
-0.003030
-0.031321
0.005700
0.066689
-0.032848
0.015557
0.047757
-0.049182
-0.002629
-0.064603
-0.003521
-0.049462
0.008537
-0.005052
-0.013561
0.060344
0.064962
0.044523
0.024058
0.086720
-0.023125
-0.029641
-0.028183
0.014993
0.030775
-0.002206
-0.120783
0.032043
-0.006873
-0.038828
0.093163
0.020065
0.010782
-0.076762
-0.045477
0.044688
-0.020825
0.047409
-0.024194
0.093890
0.048997
0.046121
0.059173
-0.014648
0.136712
0.086943
0.110545
0.139756
0.082862
0.186556
0.145239
0.048116
0.056587
0.143690
0.088833
0.198874
0.168089
0.158417
0.234127
0.187574
0.206452
0.234033
0.218375
0.154744
0.147913
0.244294
0.183389
0.145105
0.177138
0.097417
0.148803
0.054104
0.155708
0.152643
0.128965
0.092192
0.101633
0.080916
0.096900
0.033041
0.028943
0.063615
0.037011
0.029997
0.002902
0.029620
0.016462
0.079296
0.050785
-0.026759
0.003217
-0.030461
0.032979
0.163596
0.107635
0.333713
0.609121
0.944264
1.217749
1.450754
1.372353
1.174455
0.771937
0.612695
0.180086
-0.025088
-0.127438
-0.166455
-0.162848
-0.059036
0.001405
-0.004528
0.078715
0.077247
0.134465
0.107948
0.107516
0.083605
0.076174
0.123779
0.045743
0.226412
0.134286
0.142415
0.173300
0.180880
0.170768
0.207665
0.266989
0.328329
0.300861
0.337639
0.354372
0.407667
0.408087
0.508540
0.462412
0.455459
0.490849
0.456134
0.478852
0.495029
0.512797
0.478095
0.550459
0.589603
0.570051
0.582241
0.632942
0.629536
0.563670
0.501138
0.509472
0.504748
0.528744
0.527374
0.461335
0.450615
0.525725
0.378180
0.482522
0.432917
0.423058
0.356151
0.231262
0.361842
0.211931
0.269284
0.106370
0.242032
0.217918
0.188620
0.233544
0.130402
0.110042
0.172739
0.170086
0.124424
0.116154
0.114481
0.110567
0.160927
0.017959
0.045923
0.044534
0.059104
0.063379
0.081496
0.134559
0.124581
0.026594
0.012710
0.080099
0.002874
0.038500
0.082564
0.039288
-0.005469
0.071264
-0.012210
0.055585
0.033905
0.041119
0.052640
0.104252
0.057382
0.011179
0.036992
0.053761
0.054152
0.038743
0.042243
0.028557
0.090775
0.047268
0.036141
0.081098
-0.013549
0.081707
0.031420
0.010839
0.079987
-0.010082
0.030366
0.030934
0.053866
-0.006795
-0.081246
0.026629
0.032452
0.029710
0.004649
0.064717
0.121600
0.127972
-0.013188
0.035441
0.064675
0.046502
0.084044
0.120782
0.104027
0.138469
0.108389
0.142847
0.094822
0.090447
0.162361
0.149477
0.207490
0.157890
0.127768
0.236434
0.255180
0.237181
0.207828
0.168667
0.202012
0.140221
0.224951
0.193376
0.107841
0.169992
0.165350
0.149625
0.134574
0.110973
0.115797
0.047227
0.086452
0.078528
0.016671
0.069895
0.034212
0.012033
-0.001992
0.062033
0.030446
0.063042
0.084809
-0.058675
0.050498
0.057359
0.078835
0.100260
-0.084381
0.033295
-0.008355
0.010087
0.207758
0.371898
0.619477
0.937673
1.325064
1.344843
1.334207
1.089416
0.809216
0.408933
0.044495
-0.104891
-0.187210
-0.148478
-0.119686
-0.093599
-0.036259
-0.004240
-0.049982
-0.003732
0.099843
0.020591
0.169746
0.118856
0.046475
-0.036818
0.092932
0.120750
0.116507
0.163132
0.156984
0.185438
0.202845
0.247603
0.191149
0.147483
0.264327
0.218144
0.307210
0.345321
0.399521
0.297010
0.311592
0.308764
0.388866
0.411024
0.464988
0.511126
0.481202
0.451226
0.542774
0.579268
0.465164
0.458689
0.461258
0.513753
0.478251
0.455161
0.528265
0.520927
0.438814
0.430548
0.399814
0.429726
0.344374
0.267689
0.277212
0.418663
0.334882
0.310920
0.208800
0.193041
0.221463
0.177690
0.159220
0.130864
0.152021
0.131088
0.173300
0.048698
0.031716
0.016223
0.069521
-0.021695
0.062697
-0.002687
-0.051190
0.018733
-0.012903
-0.038033
0.015364
-0.053962
-0.058818
0.009188
-0.037185
-0.063156
-0.029503
0.041869
0.004695
-0.061075
-0.052374
0.005402
0.023683
0.030793
-0.104434
-0.043574
-0.022537
-0.058927
-0.122651
-0.036845
-0.047004
-0.109496
-0.071270
-0.028603
-0.043792
-0.164940
-0.104533
0.002977
-0.028585
-0.013908
-0.042355
-0.124884
-0.043172
-0.122232
-0.053170
-0.087212
-0.097292
-0.107401
-0.085514
-0.097620
-0.012351
0.010305
-0.089825
-0.022217
-0.000511
-0.038358
-0.042751
-0.017586
-0.166603
0.028793
-0.033568
-0.096697
-0.009060
-0.033100
-0.000727
-0.043064
0.002883
-0.049100
-0.031710
0.019615
0.029971
-0.010396
0.090086
0.169700
0.029015
0.071268
0.119790
0.052147
0.120138
0.083560
0.106658
0.151731
0.065043
0.061172
0.168271
0.152754
0.123610
0.122344
0.039525
-0.047367
0.047676
0.018422
0.037026
-0.015840
-0.020210
-0.022995
-0.019732
0.018669
-0.072444
-0.034720
-0.079302
-0.088620
-0.086648
-0.103344
-0.097868
-0.119141
-0.049713
-0.077649
-0.008036
-0.189618
-0.176999
-0.047764
-0.080286
-0.128602
-0.049002
-0.002391
0.292010
0.642922
0.954628
1.114972
1.262335
1.196677
0.912037
0.560270
0.210850
-0.020674
-0.257977
-0.240462
-0.241317
-0.273030
-0.095966
-0.072415
-0.059696
-0.016700
-0.057979
-0.099258
-0.067727
0.005649
-0.078403
-0.006759
-0.015732
0.012025
-0.037091
0.045290
0.083426
0.063423
0.070103
0.004618
0.115275
0.204883
0.074349
0.149118
0.170168
0.185837
0.205914
0.192098
0.316135
0.259384
0.318899
0.300383
0.353258
0.338031
0.386210
0.423923
0.414332
0.472393
0.414578
0.358237
0.394873
0.472143
0.372892
0.424177
0.407697
0.412492
0.359316
0.371935
0.314170
0.329988
0.385352
0.339520
0.328941
0.310294
0.288693
0.171329
0.261894
0.105701
0.226525
0.145192
0.200867
0.110725
0.089054
0.088227
0.022878
0.018189
-0.035518
-0.000139
-0.031952
-0.053980
-0.033280
-0.050430
0.057243
-0.024272
-0.112652
-0.031738
-0.050660
-0.040044
-0.071004
-0.025427
-0.030051
-0.069344
-0.058427
-0.104289
0.011452
-0.132652
-0.149706
-0.054619
-0.148344
-0.035654
-0.049093
-0.020812
-0.132712
-0.110106
-0.088277
-0.046501
-0.123741
-0.152499
-0.130227
-0.034986
-0.062415
-0.130314
-0.007086
-0.038985
-0.023483
-0.076275
-0.085532
-0.123828
-0.090716
-0.031772
-0.180880
-0.079090
-0.062183
-0.060749
-0.130290
-0.090197
-0.077674
-0.179089
-0.022236
-0.070777
-0.096469
-0.102315
-0.060478
-0.041062
-0.068432
-0.108594
-0.074244
-0.075173
-0.081133
-0.069311
-0.097581
-0.037087
-0.049687
-0.040541
-0.018383
-0.069627
0.087325
-0.033304
0.051348
-0.023625
0.045289
0.006983
0.039353
0.105960
0.131404
0.037434
0.051916
0.128182
0.066531
0.048853
0.106676
0.133640
0.067081
0.182595
0.050015
0.038720
-0.008066
-0.004795
0.081366
0.046108
0.015297
-0.041790
-0.115283
0.022501
0.000146
-0.031262
0.090694
-0.071397
0.001164
-0.047717
-0.061577
0.002602
-0.049770
-0.018725
-0.085321
-0.090859
-0.082992
-0.064744
0.007263
-0.041752
-0.028080
-0.027352
0.142007
0.335391
0.706321
0.995709
1.212708
1.253998
1.216365
0.976298
0.556298
0.166924
-0.027060
-0.290608
-0.300222
-0.200754
-0.171443
-0.072647
-0.030682
-0.033933
0.062083
0.006811
0.076077
0.029335
0.069830
0.051812
0.044102
0.010095
-0.066365
0.023713
0.114357
0.102861
0.146961
0.097581
0.194403
0.212858
0.256015
0.219316
0.250977
0.194177
0.250848
0.269578
0.326330
0.424898
0.289049
0.318327
0.405652
0.431803
0.463566
0.403321
0.467769
0.470019
0.459350
0.542042
0.529950
0.471384
0.594659
0.459464
0.492787
0.422564
0.505331
0.474767
0.430390
0.447035
0.479022
0.383502
0.424257
0.328699
0.323877
0.437135
0.293077
0.303802
0.314034
0.284067
0.165600
0.261303
0.211244
0.214154
0.131794
0.194255
0.099390
0.188705
0.171814
0.077695
0.074154
0.022210
0.069164
0.007130
0.111859
0.085727
0.109933
0.046803
0.024089
0.068311
0.002580
-0.009252
-0.017737
-0.019955
0.000713
0.118156
-0.022005
-0.042053
-0.016528
-0.045342
0.001623
0.026004
0.043197
0.074581
0.060426
-0.004722
-0.040438
-0.048591
0.024015
-0.002862
0.058771
0.045936
0.015456
-0.070800
0.036742
0.027771
0.005799
-0.058876
0.016843
0.019267
-0.003513
-0.019486
0.008758
0.032862
-0.000022
0.072913
0.014554
-0.017679
0.017966
0.088366
0.029768
0.108968
0.030419
0.128444
0.016266
0.081038
0.000226
0.113760
0.075792
0.105619
0.189650
-0.002264
0.150048
0.116896
0.075695
0.055927
0.116434
0.115857
0.117642
0.154092
0.190528
0.150265
0.149819
0.172252
0.209879
0.299865
0.223485
0.249209
0.167216
0.271222
0.195249
0.242318
0.125741
0.172536
0.179025
0.194342
0.151897
0.177808
0.309684
0.152679
0.200953
0.112071
0.132515
0.129004
-0.013823
0.057594
0.035597
0.124331
0.036016
0.029460
0.063250
-0.022866
0.128567
0.009701
0.056682
0.083335
0.121675
0.092527
0.096741
0.081972
0.073815
0.059195
0.104329
0.248076
0.575825
0.925019
1.133598
1.418228
1.416060
1.191396
0.996623
0.548301
0.204622
0.053767
-0.113601
-0.211399
-0.037630
-0.039682
0.002811
0.108983
0.069733
0.119120
0.107025
0.089304
0.092695
0.094038
0.151257
0.145136
0.188772
0.242037
0.201426
0.242105
0.239358
0.148285
0.228356
0.245688
0.214558
0.317489
0.284236
0.354467
0.382181
0.428828
0.385381
0.330196
0.471665
0.462928
0.552865
0.468091
0.521540
0.476124
0.470965
0.605222
0.594135
0.648365
0.502913
0.662691
0.578213
0.496286
0.531857
0.579388
0.596221
0.449440
0.555191
0.543100
0.561701
0.445180
0.556392
0.512141
0.459510
0.487732
0.362983
0.452322
0.344532
0.372401
0.299973
0.304130
0.224101
0.214084
0.236666
0.238112
0.245152
0.296687
0.225615
0.161311
0.184550
0.139146
0.228674
0.071161
0.199446
0.061845
0.090016
0.131112
