0.017621
0.000931
0.077527
0.068843
-0.044904
0.001179
-0.004229
-0.066204
0.059086
0.071143
0.013960
-0.059838
0.044622
0.130123
0.037658
0.017725
0.004295
-0.050467
-0.026495
0.125635
0.011925
-0.064400
0.014072
0.009727
0.031519
-0.045337
-0.002945
0.054447
0.064540
-0.050714
0.069873
-0.030687
0.070198
0.070225
0.050509
0.069476
0.088955
0.083458
0.146980
0.176603
0.177504
0.124850
0.123696
0.260984
0.224989
0.241340
0.213907
0.269672
0.206858
0.179996
0.157602
0.185661
0.175229
0.184082
0.126268
0.195705
0.166118
0.103241
0.053839
0.113870
0.092267
0.088333
0.080059
0.054865
0.057626
0.099195
0.049990
0.147676
0.008405
0.075379
0.021571
-0.027388
0.053480
0.062688
0.135230
0.091457
0.047419
0.003635
0.021576
0.041693
0.020773
0.122312
0.082213
0.101581
0.055348
-0.013312
-0.074727
-0.041751
0.089504
0.223619
0.456834
0.844946
1.157434
1.411451
1.422278
1.266543
1.083472
0.716621
0.460739
0.070459
-0.113283
-0.266455
-0.174619
-0.236745
-0.130587
-0.029380
0.000327
0.103941
0.039667
0.062025
0.033797
0.031408
0.051295
0.049719
0.142401
0.097423
0.092951
0.096958
0.062057
0.094138
0.070427
0.097343
0.099901
0.185805
0.167463
0.211182
0.215048
0.162462
0.317377
0.212110
0.265865
0.265672
0.247112
0.259659
0.253859
0.413575
0.327079
0.312647
0.371401
0.464158
0.464736
0.419268
0.471303
0.451168
0.479918
0.521063
0.504342
0.507299
0.601152
0.527367
0.446705
0.578567
0.549959
0.592189
0.511118
0.537927
0.545195
0.605687
0.540490
0.579644
0.487131
0.500809
0.488531
0.465582
0.428860
0.421452
0.333060
0.420119
0.382282
0.383805
0.313459
0.330915
0.300790
0.253964
0.366227
0.208854
0.269168
0.193388
0.217723
0.214137
0.185954
0.230394
0.126864
0.019792
0.135087
0.056336
0.170929
0.180704
0.144543
0.153322
0.098526
0.118954
0.083581
0.176292
0.036330
0.155189
0.168069
0.028834
0.081448
0.079807
0.061258
0.121261
0.094529
0.080791
0.097419
0.102776
0.081735
0.101640
0.087664
0.025789
0.101955
0.081360
0.030303
0.131059
0.040148
0.074433
0.019993
0.089244
0.197968
0.101865
0.128586
0.106098
0.131337
0.052659
0.068049
0.101552
0.012147
0.092823
0.023887
0.120961
0.141337
0.042486
0.053733
0.087423
0.023927
0.061894
0.103814
0.096241
0.164758
0.076717
0.065711
0.126659
0.065033
0.197883
0.073896
0.060162
0.104282
0.043364
0.015658
0.041790
0.075812
0.042413
0.047487
-0.023242
0.083107
0.088783
0.097886
0.112169
0.133919
0.126233
0.057868
0.093650
0.087016
0.140634
0.115802
0.120577
0.064291
0.121881
0.115246
0.106228
0.146268
0.170805
0.244079
0.241118
0.213259
0.186653
0.303949
0.142728
0.261951
0.264692
0.206538
0.139101
0.203706
0.202715
0.190785
0.214622
0.201823
0.187887
0.257759
0.261490
0.267922
0.100733
0.111978
0.229108
0.135955
0.158777
0.125023
0.173197
0.193279
0.120786
0.066400
0.001093
0.072043
0.085967
0.086634
0.036804
0.090996
0.028843
0.052205
0.062174
0.060713
0.125061
0.050654
0.109388
0.030027
0.107737
0.023875
0.070583
0.039417
-0.033706
-0.043975
0.030526
-0.004831
0.152101
0.365289
0.665412
1.011645
1.312953
1.322063
1.304048
1.093112
0.815986
0.503923
0.137050
-0.060334
-0.163280
-0.233890
-0.196259
-0.104927
-0.041293
-0.005131
0.001325
0.063275
0.082871
0.086738
0.029850
0.053048
0.051373
0.085386
-0.001371
0.035673
0.040733
0.092044
0.033386
0.139537
0.117836
0.069494
0.132184
0.127386
0.060602
0.140779
0.212759
0.208669
0.108998
0.179393
0.120638
0.194022
0.268362
0.299377
0.208779
0.294192
0.271922
0.389764
0.303436
0.414546
0.395257
0.361795
0.479767
0.372141
0.438469
0.436381
0.403866
0.499620
0.504704
0.566312
0.500564
0.580542
0.502356
0.442713
0.489347
0.499149
0.457407
0.426083
0.466976
0.483705
0.431042
0.444253
0.402913
0.467000
0.379127
0.456554
0.366878
0.289238
0.263481
0.303760
0.211510
0.258556
0.281706
0.176939
0.193100
0.045526
0.031963
0.129352
0.082531
-0.004281
0.019791
0.056993
0.029990
0.106196
0.016978
-0.000448
-0.014938
0.051236
0.023079
0.036246
0.071296
-0.078872
-0.035771
-0.010993
0.030809
-0.030278
-0.018145
0.028374
-0.040824
0.022674
0.102675
0.029625
-0.003532
0.049228
0.060612
-0.003567
-0.052925
0.003554
-0.054746
-0.105571
0.011589
0.053965
-0.108142
0.006080
-0.020365
-0.019784
-0.023991
-0.010379
0.019366
-0.027812
-0.012360
0.003304
0.059517
-0.011905
0.018613
-0.061232
-0.027621
-0.061274
-0.009839
-0.067955
0.064433
0.018480
-0.014209
-0.050078
-0.075223
-0.024059
-0.025474
-0.118061
-0.024517
-0.008515
-0.028782
-0.005343
-0.025398
-0.037334
-0.019709
-0.025300
-0.014911
-0.079742
-0.013782
0.029317
-0.162589
-0.157727
-0.000165
-0.046168
0.006853
-0.028828
-0.038134
-0.033339
-0.022902
0.002082
-0.053132
0.029926
-0.023000
0.052071
-0.031922
-0.021116
0.028425
0.030212
0.092578
0.000847
0.027800
0.083397
0.101979
0.089899
0.194034
0.147770
0.168126
0.133176
0.146634
0.168811
0.093815
0.071128
0.114018
0.153271
0.125440
0.092899
0.051470
0.144695
0.061233
0.063926
0.103183
0.120720
0.055119
0.006173
-0.041931
0.046664
0.001485
-0.069829
0.042866
-0.030298
-0.096869
-0.094550
0.028668
0.011471
-0.046472
-0.051121
0.005074
-0.009427
-0.073035
-0.063640
-0.050207
-0.083456
-0.012055
-0.053092
-0.120097
-0.042648
-0.014155
-0.032285
-0.021442
-0.078256
-0.078089
-0.060789
0.057859
0.179160
0.480332
0.826141
1.160380
1.278359
1.257453
1.152061
0.798258
0.452949
0.188174
-0.108733
-0.265466
-0.296349
-0.319078
-0.226760
-0.162940
-0.146663
-0.138834
-0.106060
-0.113260
0.023564
-0.067623
-0.022598
-0.028156
-0.054486
-0.036469
-0.062401
-0.057570
0.040019
0.029042
0.002256
0.114127
0.018274
0.004576
0.059959
0.087726
0.050991
0.027425
0.118511
0.002962
0.170875
0.119416
0.093725
0.220283
0.228526
0.228608
0.188960
0.283528
0.273895
0.254991
0.262778
0.313305
0.417268
0.435788
0.403920
0.329580
0.384120
0.413892
0.371684
0.491762
0.476575
0.463347
0.426387
0.450968
0.386609
0.472868
0.457249
0.392746
0.337889
0.493371
0.438807
0.482223
0.493946
0.355330
0.293362
0.335427
0.295880
0.318196
0.274451
0.216612
0.203628
0.170385
0.145396
0.206203
0.132898
0.184387
0.082405
0.132208
0.146364
0.149273
0.104687
0.151037
0.023282
0.124784
0.060375
0.003174
0.074818
-0.059346
-0.047208
0.002741
-0.016818
-0.049102
0.025938
0.047245
-0.039568
-0.054542
-0.015257
-0.099737
-0.012241
-0.006039
-0.005518
-0.061841
0.003517
-0.022137
0.066778
0.014899
-0.059489
-0.029736
-0.032866
-0.012519
-0.042299
0.011671
0.008519
-0.009316
0.034330
-0.025891
-0.032282
0.038937
0.004948
-0.046210
0.024921
-0.093150
-0.066681
-0.021355
0.044416
-0.001448
-0.047171
0.013666
-0.012169
0.020250
0.038314
-0.020345
0.067491
-0.087425
0.054203
0.048071
-0.009006
0.031426
0.042996
0.037596
-0.058790
0.046808
0.007304
-0.073695
0.087747
0.004016
-0.017130
0.042655
0.014917
0.027669
-0.014376
-0.026968
0.042659
-0.012658
0.074068
-0.021987
0.005535
-0.031777
0.042582
0.026985
0.142883
0.044870
0.051147
0.021901
0.019238
0.090943
0.004219
0.005011
0.106162
0.075938
0.175971
0.131325
0.171718
0.076240
0.107519
0.100464
0.163234
0.167563
0.134376
0.148270
0.123288
0.165332
0.156493
0.169047
0.182816
0.177052
0.217418
0.233981
0.151097
0.174776
0.149301
0.158865
0.168531
0.102234
0.106136
0.151944
0.104966
0.116222
0.160169
0.051979
0.058786
0.069920
0.012898
-0.011814
0.017104
0.116273
0.076856
0.018100
0.019018
0.044283
0.064962
0.082122
0.027173
0.003178
0.051683
0.006009
0.055959
0.054077
-0.027676
0.015948
-0.019139
0.055247
0.019671
0.058936
0.152661
0.491337
0.791433
1.097253
1.345084
1.409241
1.318455
0.982559
0.754763
0.416045
0.168681
-0.056495
-0.273241
-0.218872
-0.183784
-0.137599
-0.140086
0.008478
0.035475
-0.038230
0.086810
0.038677
0.046045
0.088839
0.093967
0.075893
0.130910
0.161802
0.085514
0.134360
0.112830
0.142776
0.043659
0.156947
0.157099
0.131358
0.120132
0.182630
0.183368
0.200795
0.153367
0.211356
0.130165
0.227214
0.255351
0.259781
0.359736
0.255306
0.426118
0.473969
0.379131
0.442672
0.445253
0.442067
0.475467
0.476507
0.517503
0.528122
0.591612
0.522661
0.525504
0.556900
0.607009
0.559670
0.606852
0.572564
0.534537
0.563120
0.483674
0.510400
0.590050
0.516331
0.473860
0.458865
0.546649
0.470117
0.478843
0.419752
0.376022
0.350378
0.378138
0.328551
0.261202
0.278271
0.244253
0.285538
0.293684
0.216514
0.317589
0.314406
0.189769
0.091350
0.199343
0.217670
0.141886
0.215380
0.127373
0.133074
0.173077
0.167882
0.157655
0.128335
0.065180
0.185735
0.035596
0.080751
0.103574
0.065321
0.057634
0.045080
0.122402
0.031678
0.116402
0.009895
0.128852
0.105731
0.072514
0.106295
0.147854
0.070214
0.094579
0.193945
0.125643
0.032089
0.164705
0.147614
0.070052
0.079439
0.155391
0.060291
0.096431
0.086380
0.088693
0.113910
0.051399
0.169692
0.077150
0.089683
0.029355
0.073961
0.061667
0.168017
0.123507
0.095759
0.120326
0.095808
0.110342
0.061394
0.078181
0.122272
0.120355
0.134185
0.006469
0.095256
0.128006
0.075054
-0.027273
0.104532
0.092148
0.018871
0.149096
0.056921
0.051093
0.124781
0.061313
0.076352
0.125438
0.133891
0.033612
0.133580
0.028831
0.081179
0.186928
0.124493
0.117515
0.088040
0.126441
0.089605
0.124642
0.175925
0.157007
0.218008
0.152717
0.189935
0.173515
0.295019
0.194627
0.297170
0.287022
0.283709
0.251714
0.203567
0.296285
0.212378
0.229526
0.204371
0.310177
0.261122
0.200969
0.225785
0.198510
0.208529
0.086054
0.219906
0.116632
0.096898
0.179391
0.138148
0.158335
0.106194
0.180829
0.121855
0.110020
0.146106
0.036888
-0.005912
0.056215
0.131603
0.116889
0.097981
0.004843
0.044788
0.087101
0.054164
0.090003
-0.021355
0.054250
0.104827
0.037268
0.073579
-0.022371
0.073544
0.004334
-0.025070
0.096555
0.325648
0.641657
1.026848
1.161823
1.449077
1.424822
1.219014
0.957118
0.525841
0.146242
-0.096935
-0.188206
-0.308819
-0.161562
-0.206855
-0.032004
0.024521
-0.010479
0.129205
0.034332
0.072473
0.030511
0.043051
0.082343
0.033841
0.080330
0.135324
0.045967
0.181224
-0.000202
0.104248
0.131209
0.188296
0.048677
0.113546
0.220912
0.136561
0.134103
0.235773
0.243040
0.176746
0.289186
0.239402
0.268752
0.201710
0.303431
0.356496
0.333684
0.296065
0.344201
0.396068
0.489252
0.447425
0.532776
0.486553
0.513816
0.481009
0.522457
0.527929
0.488912
0.513656
0.603073
0.572762
0.452738
0.532863
0.495255
0.534021
0.506380
0.460976
0.453537
0.538028
0.455562
0.418328
0.407914
0.351553
0.331167
0.301725
0.323606
0.373355
0.290734
0.302595
0.266308
0.228238
0.204243
0.214259
0.177363
0.229531
0.205179
0.178881
0.088318
0.167334
0.103012
0.083319
0.117301
0.066601
-0.014592
0.065135
0.122278
0.100412
0.111323
0.075032
0.008893
0.053791
0.003339
-0.012232
-0.042407
-0.016109
0.049876
0.102427
-0.005179
0.007819
-0.045766
0.055116
-0.002369
0.053977
-0.039591
0.096225
-0.057006
0.005021
-0.002539
-0.007340
-0.013056
-0.073418
0.002866
-0.015632
-0.045069
0.014619
-0.076041
-0.020516
-0.001311
-0.088625
0.031292
-0.038428
0.044870
-0.070974
0.020469
-0.019448
0.005608
0.009080
-0.043544
-0.044669
-0.048383
0.040921
-0.030484
0.074083
0.028937
-0.038371
-0.017509
0.022516
-0.030061
-0.038622
-0.072888
-0.136051
-0.080353
0.012824
0.018929
0.040008
0.003241
-0.127445
-0.013440
-0.066667
-0.056058
-0.106545
-0.022872
-0.056150
-0.093281
0.006718
-0.042660
0.000672
-0.105848
-0.009052
-0.070210
-0.012305
-0.022789
-0.055783
0.084501
0.047558
0.035158
0.066620
0.015871
0.078118
0.074654
0.089427
0.116188
0.059403
0.078134
0.058892
0.158376
0.107848
0.080104
0.159632
0.206058
0.056539
0.118600
0.054912
0.060508
0.036105
0.128474
0.142168
0.135618
-0.015862
0.084278
0.070609
0.062060
0.050512
0.056048
0.063814
0.037611
-0.012323
-0.085942
-0.003470
-0.035804
-0.033011
-0.036025
-0.035413
0.037348
-0.055583
-0.097073
-0.009545
-0.063874
0.046267
-0.045241
-0.136986
-0.065634
-0.036768
-0.071177
-0.074085
-0.023769
-0.146332
-0.191259
-0.092567
-0.042368
-0.154199
-0.055947
0.211424
0.406019
0.758971
1.006306
1.353247
1.279122
1.182074
0.880187
0.556971
0.219495
-0.118813
-0.270595
-0.291469
-0.387114
-0.191649
-0.142842
-0.183676
-0.128306
-0.097647
-0.037449
-0.066698
-0.096062
-0.051192
-0.041777
-0.098708
0.009609
-0.066804
0.007666
-0.040608
-0.070697
-0.005375
-0.007364
-0.085351
-0.045043
0.050413
0.048648
0.031613
0.035674
0.066747
0.017994
0.048702
0.070269
0.097299
0.068219
0.215966
0.172770
0.182039
0.226439
0.235010
0.236292
0.289332
0.227698
0.337176
0.247451
0.242973
0.371426
0.315882
0.366486
0.429965
0.418557
0.405436
0.410356
0.388934
0.459789
0.443158
0.458730
0.402493
0.400556
0.373398
0.327528
0.415270
0.393090
0.343877
0.297689
0.356983
0.271772
0.203437
0.240468
0.270220
0.258998
0.223774
0.155074
0.085838
0.063994
0.163984
0.104691
0.100650
0.115950
-0.017499
0.067043
-0.051309
0.081051
0.058573
-0.079162
0.066630
-0.015601
-0.120685
0.030138
-0.049601
-0.025175
-0.022615
0.001043
-0.017162
-0.073136
-0.097463
-0.037806
-0.083923
-0.027962
-0.059589
-0.134309
-0.061408
-0.064206
-0.031159
-0.107960
-0.059510
-0.119260
-0.073564
-0.126174
-0.031231
-0.132090
-0.033635
-0.095066
-0.068030
-0.054008
-0.037993
-0.175998
-0.089875
0.036016
-0.080907
-0.114337
-0.048032
-0.059115
-0.078051
-0.050206
-0.027071
-0.027702
-0.068541
-0.135210
-0.112690
-0.063246
-0.072153
-0.085862
-0.023180
-0.154191
-0.101166
-0.085585
-0.031208
-0.102600
-0.032034
-0.100103
-0.101761
-0.037619
-0.069120
-0.012791
-0.099851
-0.112404
-0.057009
-0.102457
-0.048943
-0.006050
-0.027566
-0.042601
-0.020695
-0.026936
0.027272
-0.075684
-0.050250
0.026189
-0.043475
0.035253
0.005282
0.012672
-0.085035
-0.074473
0.007152
-0.013581
0.034740
-0.004471
0.042383
0.096212
-0.003488
0.047049
0.022498
0.092319
0.058953
0.076944
0.039541
0.164955
0.078667
0.118708
0.105832
0.130239
0.155416
0.169363
0.134468
0.103878
0.121993
0.079918
0.093269
0.119600
0.073470
0.115661
0.142067
0.050883
0.000457
-0.041580
0.095472
0.006370
-0.004136
0.009823
0.030168
-0.040481
0.128806
-0.031462
0.007261
-0.075356
-0.095192
-0.043253
-0.067250
-0.096042
-0.014283
-0.112661
-0.007645
-0.101074
-0.026775
-0.040777
-0.049748
-0.084621
-0.081557
-0.059686
-0.118035
-0.049802
-0.038023
0.018829
0.162669
0.364970
0.602083
1.023651
1.200640
1.376968
1.348465
1.053686
0.751869
0.345481
0.128908
-0.136501
-0.268475
-0.291036
-0.238567
-0.229529
-0.143518
-0.091153
-0.045907
-0.016485
0.027460
-0.048842
-0.025922
0.025144
0.040502
-0.027757
-0.013687
0.034442
0.015575
0.001337
0.047516
0.129433
-0.012198
0.060213
0.119780
0.101691
-0.007168
0.112495
0.051913
0.092085
0.095876
0.182441
0.203900
0.210273
0.167963
0.271902
0.231346
0.284006
0.316295
0.340870
0.314624
0.322691
0.358436
0.440917
0.459870
0.383476
0.435274
0.389272
0.470539
0.458126
0.489442
0.528579
0.489626
0.546865
0.503125
0.480668
0.497577
0.514764
0.440694
0.449560
0.461574
0.453326
0.457544
0.436231
0.382679
0.449036
0.345512
0.300924
0.345943
0.266225
0.291409
0.212712
0.220743
0.271149
0.171376
0.288978
0.106335
0.201170
0.118601
0.163251
0.157200
0.056389
0.123201
0.062799
0.088444
0.079906
0.114147
0.043753
0.126647
0.096047
0.057447
0.042112
0.089139
0.050103
0.020295
0.014368
0.043397
-0.004259
0.049862
0.059515
0.062463
-0.034442
0.002518
0.058814
0.024226
0.090589
0.022067
0.024587
0.116841
0.005625
0.032336
0.012111
-0.033749
0.054893
0.008094
0.044818
0.085821
-0.047539
0.007324
0.084073
0.073338
0.034557
0.088672
0.041694
0.007923
0.008491
0.114196
0.055074
0.016555
0.061809
0.050004
0.045197
0.144019
0.037399
0.037126
0.039356
0.006917
0.082616
0.009613
0.007357
0.050484
0.031607
0.101635
0.011332
-0.000351
0.053372
-0.021266
0.005897
0.041279
0.092545
0.027857
0.069995
0.089690
0.018987
0.018924
0.011823
0.108831
0.046821
0.097043
0.018888
-0.036236
-0.023099
0.045254
0.101329
0.008784
0.113845
0.119783
0.060710
0.060442
0.181553
0.067405
0.083382
0.088957
0.180378
0.198334
0.204965
0.229757
0.148857
0.257769
0.191832
0.176863
0.186430
0.243518
0.231414
0.233527
0.175940
0.217819
0.140794
0.214391
0.142692
0.120023
0.160998
0.235259
0.172798
0.142816
0.159859
0.091908
0.018061
0.047290
0.062970
0.115933
0.030267
0.057577
0.081800
0.089343
0.059849
0.095685
0.082462
0.153101
0.070110
0.075952
0.022769
0.077241
0.013620
0.113049
0.095489
0.069886
0.013436
0.012576
0.007742
0.022615
-0.023062
-0.041442
0.012119
0.116312
0.403285
0.636807
0.937925
1.196550
1.390514
1.470610
1.255501
0.985661
0.573889
0.229728
-0.044774
-0.188223
-0.172846
-0.217594
-0.129101
-0.076643
-0.009064
-0.036748
0.014137
0.056665
0.021447
0.029509
0.044349
0.067394
0.013483
0.114782
0.093235
0.124527
0.094044
0.069462
0.101740
0.050088
0.137116
0.074227
0.131129
0.172839
0.024320
0.130043
0.181897
0.200942
0.237672
0.208801
0.149427
0.283523
0.222501
0.309147
0.263509
0.324729
0.411658
0.333178
0.352052
0.385285
0.443797
0.433530
0.443991
0.447265
0.553483
0.471157
0.475003
0.493421
0.488322
0.535588
0.521721
0.581069
0.528050
0.472262
0.541081
0.405058
0.433199
0.479335
0.491233
0.474187
0.434418
0.332788
0.273143
0.401823
0.340300
0.311542
0.359597
0.275427
0.278907
0.293830
0.275764
0.182611
0.281750
0.222999
0.125266
0.236945
0.150717
0.147622
0.163934
0.082255
0.077401
0.116282
0.112974
0.062980
0.100369
0.047748
0.092906
-0.013331
0.060764
-0.026845
0.048255
0.060287
-0.034393
0.025525
-0.010168
-0.024641
-0.089178
-0.012745
0.047141
-0.060598
-0.070459
-0.026968
-0.079105
0.070915
-0.043145
-0.013262
-0.007071
-0.045626
0.037297
-0.042183
-0.068901
0.010485
-0.071805
0.015549
0.030012
0.016611
0.032778
0.002505
0.007095
-0.025504
-0.080002
-0.055465
-0.013989
-0.032311
-0.017301
0.007273
-0.073313
-0.043442
0.009786
0.007280
0.007425
-0.010600
-0.005719
-0.088346
-0.038427
-0.001805
0.028054
-0.049329
-0.040465
0.011907
-0.066186
0.004244
0.063553
-0.001477
-0.036633
0.029361
-0.040763
-0.016005
-0.035713
0.016245
0.001161
0.043839
0.005633
-0.013580
-0.042916
-0.000721
-0.059980
-0.095639
-0.076527
0.018424
-0.091908
-0.036330
-0.001023
0.035902
-0.021142
-0.015791
0.079497
-0.052371
0.075234
0.069733
0.123878
0.068410
0.109108
0.098047
0.054735
0.130116
0.048628
0.126008
0.049106
0.058863
0.147007
0.027889
0.098750
0.160443
0.126764
0.131133
0.118824
0.072195
0.071920
0.069570
0.068572
0.067880
0.060431
0.061529
-0.029413
-0.007958
-0.013484
0.027038
-0.044205
0.041142
-0.040335
0.052544
0.016098
-0.071744
-0.046466
-0.045749
-0.040067
-0.034850
-0.053287
-0.071946
-0.156957
0.024116
-0.141686
-0.107144
-0.058613
-0.092862
-0.117061
0.013276
-0.111008
-0.129833
-0.153668
-0.048028
0.101015
0.410509
0.703665
1.017664
1.240074
1.268859
1.118032
0.932023
0.568043
0.304596
-0.024460
-0.315978
-0.282617
-0.387193
-0.291631
-0.163955
-0.159681
-0.161435
-0.144404
-0.022995
-0.067896
-0.122510
-0.041583
-0.069743
-0.071660
0.006238
-0.013670
-0.077186
-0.050779
-0.058395
-0.063310
-0.074213
-0.009434
-0.023879
-0.055858
0.028150
0.003158
0.059116
0.108428
0.031574
0.143687
0.130033
0.145074
0.116323
0.119130
0.104688
0.174417
0.216588
0.191293
0.142167
0.308158
0.229538
0.316975
0.348480
0.349808
0.403401
0.382357
0.360035
0.393437
0.340810
0.420157
0.466994
0.482825
0.460400
0.406154
0.381733
0.294200
0.497288
0.410445
0.365706
0.356194
0.354232
0.335962
0.263550
0.250386
0.399691
0.361929
0.194107
0.194172
0.232300
0.148938
0.188589
0.155834
0.142645
0.029504
0.135130
0.068333
0.040471
0.021061
0.052665
0.027361
0.071221
-0.003495
-0.050800
-0.052971
-0.078068
0.002975
-0.055328
-0.061054
-0.020708
-0.078350
-0.088760
-0.047598
-0.057326
-0.047134
-0.079680
-0.117328
-0.023217
-0.042190
-0.026769
-0.084705
-0.084925
-0.107412
-0.107303
-0.037190
-0.011453
-0.034573
-0.100954
-0.089777
-0.102540
-0.025000
-0.049920
-0.082784
-0.006653
-0.009551
-0.130427
-0.135267
-0.144108
-0.067626
-0.078581
-0.123195
-0.109186
-0.066329
-0.067928
-0.176830
0.037277
-0.103095
-0.152795
-0.143642
-0.073534
-0.162636
-0.169475
-0.124200
-0.084345
0.000070
-0.127650
-0.158621
-0.181223
-0.098145
-0.079254
-0.107031
-0.130058
-0.136100
-0.090177
-0.055815
-0.118589
-0.052561
-0.100197
-0.087584
-0.158342
-0.064591
-0.036633
-0.112545
-0.125867
0.001976
-0.046450
-0.126391
-0.117966
-0.030902
-0.090726
-0.079270
-0.035182
-0.078892
-0.114378
-0.093094
-0.015063
-0.061858
-0.040294
-0.076837
-0.103588
0.070345
0.003380
0.028550
0.124843
0.064225
0.096510
0.033275
0.011169
0.069840
0.080055
0.062034
0.034609
0.077016
0.075437
0.082303
0.087082
0.086677
0.088076
0.081271
0.024064
-0.045788
-0.001714
0.057568
0.075380
-0.019076
0.057630
0.022427
0.004465
-0.080273
-0.017292
0.009501
-0.008316
-0.115321
-0.066343
-0.099879
0.003485
-0.077821
-0.028641
-0.115228
-0.054811
-0.125553
-0.026120
-0.045750
-0.049166
0.001337
-0.103579
-0.095118
-0.098271
-0.080816
-0.076321
-0.050579
-0.087886
-0.199751
-0.078475
0.021523
0.229763
0.588674
0.871774
1.281224
1.365285
1.253486
1.058843
0.745207
0.465416
0.107750
-0.198652
-0.262302
-0.372805
-0.308276
-0.246087
-0.188119
-0.191737
-0.074772
-0.139887
-0.023410
-0.009669
-0.102663
-0.031527
0.078385
0.006516
-0.032820
0.022994
-0.048328
0.019760
-0.028652
0.010874
0.018005
0.012723
0.011330
0.005308
0.102775
0.010677
0.011384
0.093486
0.138916
0.121272
0.177679
0.119924
0.173692
0.186349
0.215670
0.279954
0.248351
0.276574
0.277793
0.325454
0.334354
0.438448
0.420831
0.368333
0.427628
0.523195
0.409054
0.427699
0.467147
0.476671
0.467980
0.424934
0.491863
0.444756
0.454791
0.498656
0.455658
0.357991
0.447026
0.364575
0.482162
0.451928
0.415976
0.433031
0.352753
0.305451
0.319867
0.334216
0.297341
0.302156
0.167785
0.185910
0.235744
0.195582
0.218375
0.129485
0.065346
0.133113
0.122857
-0.002822
0.061807
0.005000
0.029456
0.138961
0.143352
0.029541
0.025120
0.084580
0.052355
-0.030178
-0.054908
0.103865
0.043271
0.034260
0.056864
0.018601
-0.006756
-0.012823
0.042429
-0.035958
0.048962
-0.037322
-0.038000
0.031501
-0.020676
0.016755
-0.022779
0.043216
0.079424
-0.014560
-0.009141
0.043118
0.060100
0.064014
-0.030630
0.002252
0.032678
-0.019772
0.005268
-0.000456
-0.015192
-0.002645
-0.010506
0.035897
-0.037292
-0.012629
0.000261
0.057276
0.047922
0.036289
-0.010927
-0.011958
0.022511
0.120651
0.084877
0.049955
-0.018199
0.045530
0.013031
0.023265
0.042127
-0.011170
0.067198
0.011908
0.072195
0.102433
0.090110
0.011391
0.045425
0.037980
0.000200
0.032510
0.050123
0.108830
0.116426
0.061962
0.093355
-0.013523
-0.035501
0.091706
0.082053
0.048177
0.123501
0.069131
0.056531
0.013006
0.151686
0.105712
0.097818
0.070969
0.158167
0.158038
0.229100
0.119199
0.190037
0.157829
0.244089
0.237947
0.190531
0.245553
0.313173
0.209969
0.279774
0.188602
0.211639
0.085354
0.242286
0.187741
0.156678
0.110915
0.184582
0.120427
0.123819
0.160979
0.119078
0.209595
0.091485
0.111868
0.071748
-0.005228
0.111866
0.115602
0.041014
0.100397
0.072770
0.023463
0.060297
0.156733
0.024918
0.088087
0.029249
0.007940
0.046025
0.124840
0.050319
0.026316
0.011134
-0.059372
0.065228
0.061984
-0.027457
0.016598
0.216487
0.334545
0.630124
0.901345
1.220590
1.500000
1.496971
1.327061
0.963746
0.661927
0.290074
0.011395
-0.097951
-0.230235
-0.216627
-0.102540
-0.025133
-0.064910
0.072428
0.032584
0.022879
0.065812
0.032142
0.054455
0.081970
0.084425
0.093646
0.073933
0.064961
0.113208
0.066265
0.083875
0.122715
0.156158
0.099059
0.174518
0.113895
0.206794
0.177062
0.251161
0.197823
0.265954
0.289217
0.227276
0.357616
0.268720
0.299567
0.285069
0.332315
0.311962
0.336187
0.456484
0.360564
0.393916
0.549391
0.485053
0.508964
0.449227
0.519741
0.543594
0.509106
0.511272
0.555733
0.617333
0.560988
0.569935
0.530856
0.601133
