0.003409
0.002132
0.039416
-0.030974
0.023426
-0.034666
0.074816
0.012946
-0.029377
-0.051760
0.021046
0.058261
0.034311
0.011209
0.009254
0.037424
0.032516
0.027508
0.041279
0.007220
0.102957
-0.046305
0.086135
-0.010786
-0.012591
0.056151
0.032993
0.108995
0.019397
0.004351
0.056978
0.033494
0.071673
0.082121
0.125251
0.108604
0.099766
0.133409
0.099711
0.069365
0.213388
0.216705
0.132853
0.277776
0.203925
0.174255
0.188987
0.199425
0.163757
0.203509
0.117269
0.207892
0.140217
0.247350
0.135954
0.155223
0.151564
0.169971
0.148756
0.184480
0.109464
0.095410
0.025888
0.056970
0.060063
0.089590
0.085074
0.050199
0.076180
0.061496
0.026593
0.056248
0.033997
0.021946
0.034345
0.042782
0.115682
0.043718
0.121450
0.035826
0.008996
0.073356
0.054167
0.030323
0.080523
0.062526
0.043608
0.022252
0.160993
0.316093
0.527200
0.857800
1.134852
1.314050
1.500000
1.269638
1.058759
0.742338
0.377775
0.112721
-0.104768
-0.218587
-0.255551
-0.122143
-0.174336
-0.020191
0.004397
0.065042
0.135117
0.085900
0.063418
0.148824
0.056560
0.047178
0.063809
0.065914
0.034849
0.162028
0.020163
0.093804
0.156001
0.074591
0.186477
0.113015
0.165849
0.104090
0.177680
0.236397
0.178670
0.190884
0.276721
0.277708
0.355277
0.262309
0.248992
0.361757
0.377808
0.334965
0.349507
0.428087
0.436972
0.446418
0.437194
0.518133
0.586792
0.576282
0.511459
0.510465
0.536644
0.484126
0.627080
0.632987
0.632809
0.585830
0.455921
0.687375
0.563815
0.510810
0.595265
0.561744
0.497209
0.532867
0.369172
0.552408
0.482732
0.462094
0.367609
0.402577
0.318032
0.366844
0.290270
0.221540
0.268895
0.316296
0.226475
0.183060
0.221206
0.301860
0.205932
0.172047
0.157815
0.159127
0.153926
0.207494
0.113947
0.103842
0.131656
0.109317
0.113039
0.087070
0.082275
0.149427
0.104357
0.078703
0.073315
0.071010
0.159821
0.118361
0.110101
0.025210
0.058313
0.051341
0.056063
0.119274
0.006996
0.082695
0.100287
0.109828
0.086721
0.075070
0.128419
0.153263
0.105591
0.051368
0.157375
0.071698
0.113295
0.062395
0.055155
0.143860
0.086007
0.073595
0.088352
0.004038
0.045478
0.068544
0.152028
0.005588
0.119410
-0.031625
-0.037824
-0.050972
0.089106
0.143474
0.093693
0.070932
0.130815
0.050259
0.099840
0.100072
-0.025214
0.081622
0.100879
0.080667
0.071272
0.102230
0.132267
0.088421
0.075652
0.102336
0.126838
-0.018404
0.096756
0.054423
0.072171
0.109723
0.116477
0.011470
0.063019
0.060723
0.160905
0.075499
0.117185
0.080062
0.062914
0.196585
0.122627
0.152284
0.061204
0.127201
0.136018
0.094183
0.161381
0.186500
0.224378
0.266343
0.162396
0.223248
0.208714
0.291634
0.208114
0.272828
0.241736
0.263130
0.256314
0.219200
0.238820
0.220784
0.246456
0.242994
0.157943
0.201862
0.123403
0.049519
0.166452
0.148279
0.117015
0.074860
0.154836
0.044097
0.072976
0.112013
0.145737
0.082306
0.045558
0.093925
0.075973
0.062676
0.110912
0.089399
0.064314
0.020285
0.085614
0.053211
0.102429
0.025225
0.043021
0.081286
0.031524
0.039851
-0.104292
-0.028888
0.045212
0.143445
0.364882
0.663256
1.007863
1.263635
1.428966
1.375266
1.153901
0.810998
0.478027
0.168154
-0.032236
-0.251085
-0.236558
-0.182151
-0.138747
-0.128412
0.022331
0.034580
0.061903
0.127224
0.077439
0.025621
0.023204
0.112762
0.063795
0.065454
0.075676
0.102268
0.127890
0.034216
0.052831
0.050108
0.080380
-0.003330
0.132718
0.125077
0.109337
0.152765
0.215608
0.227725
0.233050
0.203970
0.258295
0.226588
0.250484
0.316910
0.263256
0.364962
0.342779
0.377436
0.368217
0.387817
0.323226
0.427142
0.453165
0.444604
0.445449
0.522338
0.499566
0.464028
0.537304
0.484836
0.468734
0.579484
0.480480
0.462585
0.498875
0.414417
0.500852
0.486379
0.480131
0.459140
0.407595
0.394869
0.368457
0.377060
0.394020
0.317151
0.294792
0.227063
0.237132
0.235437
0.166158
0.207570
0.183547
0.204158
0.139392
0.074223
0.122042
0.112777
0.092493
0.076781
0.009233
0.038167
0.091041
0.066083
-0.016709
0.046765
-0.025360
0.019097
0.026527
0.043974
0.052168
-0.015060
-0.000614
0.027610
0.005231
-0.000868
0.024452
0.011462
-0.030901
0.023299
0.019051
-0.087113
0.082499
-0.016739
-0.091608
-0.023370
0.077928
-0.007777
-0.024083
-0.057494
-0.008444
-0.007780
0.073424
0.035643
0.035621
0.036362
-0.023275
0.019973
0.009978
-0.059333
-0.004009
-0.013266
0.059815
-0.014847
0.072315
0.009993
-0.073550
-0.080083
0.045965
0.078015
-0.017006
0.011934
-0.046218
-0.084170
0.061728
-0.027566
0.010588
0.096346
-0.050135
-0.014443
-0.020862
-0.022592
-0.024264
-0.054431
-0.040342
-0.001093
-0.075882
-0.009108
-0.099186
-0.031937
0.035615
0.001315
-0.051161
-0.082488
-0.009653
-0.052013
-0.051844
0.017104
0.020004
0.018550
0.049190
-0.056918
-0.002224
0.022338
-0.014901
0.024932
0.069969
-0.015451
0.082461
0.049364
0.037033
0.144994
0.108448
0.042984
0.101803
0.164782
0.141410
0.135799
0.107551
0.109209
0.072903
0.107939
0.129428
0.114979
0.068384
0.110814
0.078034
0.072593
0.073634
0.022285
0.083235
0.040967
0.059404
0.030474
0.045047
-0.065764
-0.007058
-0.042968
0.013266
-0.045907
-0.031846
0.008197
0.036925
0.007388
-0.070688
-0.094162
-0.001955
-0.029031
-0.020901
-0.039312
-0.080547
-0.069643
0.014667
-0.063826
-0.034761
-0.082992
-0.121548
-0.122643
-0.089657
-0.079208
-0.043980
-0.024337
0.223645
0.453806
0.768138
1.109206
1.332661
1.321021
1.180449
0.821132
0.556244
0.317432
-0.020805
-0.321381
-0.248455
-0.372434
-0.283043
-0.034076
-0.124001
-0.095621
-0.076997
0.021784
-0.073267
-0.108603
-0.046425
-0.022129
-0.001328
-0.018247
-0.029896
0.012254
0.001859
0.013307
0.001644
-0.007095
0.005968
-0.065199
0.003653
0.015360
-0.009520
0.040162
0.040494
0.171832
0.104595
0.084935
0.099932
0.175105
0.109047
0.234266
0.223739
0.273839
0.283927
0.265208
0.374195
0.365197
0.354322
0.380528
0.387541
0.397292
0.381821
0.468294
0.433608
0.419309
0.513396
0.447333
0.422397
0.447691
0.503401
0.529504
0.477750
0.405528
0.430502
0.390972
0.383846
0.382573
0.465250
0.327709
0.376486
0.349657
0.353185
0.254035
0.276695
0.254290
0.206529
0.199087
0.239989
0.167138
0.187833
0.102280
0.136172
0.040844
0.129131
0.096153
0.135315
0.115914
0.107060
0.081968
0.045852
0.079731
0.094937
0.018393
0.051309
-0.006672
-0.032176
-0.068907
-0.014887
-0.053603
0.040207
0.045609
-0.012870
-0.043448
0.005940
-0.055348
0.011288
-0.067521
-0.075261
-0.005663
-0.018756
-0.023456
-0.019795
0.007608
-0.053889
-0.058355
-0.043755
0.020672
0.028628
0.063090
-0.017120
-0.031001
0.009219
0.017330
-0.022785
-0.064592
-0.063025
0.047652
-0.042386
0.009832
0.003456
0.040658
-0.095408
0.022658
-0.034886
-0.017550
-0.061095
-0.055253
0.024790
-0.026543
0.050067
-0.024249
0.028556
-0.029019
-0.009853
-0.033735
-0.020081
0.046619
0.034435
-0.000968
-0.012685
-0.042759
-0.006347
0.042821
0.009231
-0.036314
0.044475
0.011043
0.098933
0.168178
-0.005628
0.035920
0.017929
-0.041724
0.048117
0.011455
0.057057
0.032650
0.032951
0.104611
-0.019217
0.038148
0.044794
0.126874
0.100002
0.052503
0.094314
0.129713
0.147580
0.117366
0.134391
0.100429
0.182212
0.137950
0.110993
0.123548
0.172865
0.181097
0.229256
0.202858
0.222198
0.151933
0.139530
0.189218
0.044627
0.193657
0.164278
0.163703
0.207870
0.140755
0.071433
0.122983
0.103635
0.120388
0.108517
0.099840
0.119635
0.120930
0.012526
0.124198
0.041982
0.044991
0.062444
0.041471
0.087393
0.035949
0.105300
0.011874
0.066887
0.080886
0.064550
0.020483
0.035903
0.065872
0.006416
-0.047740
0.004560
-0.006017
0.017965
0.093164
0.230485
0.416488
0.724793
1.093195
1.286285
1.454005
1.325527
1.078535
0.809713
0.368867
0.059176
-0.073000
-0.212640
-0.250885
-0.163668
-0.041269
-0.124820
-0.020196
0.116228
0.004832
0.149350
0.048334
0.099469
0.057823
0.056984
0.054255
0.112796
0.109994
0.078804
0.055469
0.087105
0.147772
0.058731
0.138174
0.161957
0.205766
0.135003
0.245218
0.125882
0.220933
0.107593
0.171443
0.313847
0.297096
0.332109
0.306547
0.356241
0.358553
0.365034
0.410787
0.427602
0.350438
0.428624
0.384929
0.551448
0.496698
0.578032
0.516505
0.546806
0.575977
0.577702
0.599191
0.565279
0.528767
0.626754
0.567054
0.576830
0.629187
0.543618
0.581266
0.505737
0.507614
0.495156
0.511260
0.447942
0.400693
0.422432
0.390431
0.386581
0.367620
0.307339
0.243475
0.255817
0.266693
0.255306
0.244261
0.200507
0.202378
0.207788
0.136622
0.150764
0.173607
0.245881
0.084566
0.112871
0.163524
0.068462
0.099017
0.057491
0.086280
0.065520
0.156974
0.027125
0.175078
0.090302
0.067616
0.059852
0.146950
0.077652
0.121659
0.052670
0.190782
0.170984
0.087088
0.081769
0.017044
0.162779
0.180509
0.126059
0.165163
0.128436
0.123191
0.155982
0.048526
0.177047
0.080366
0.006188
0.078793
0.128440
0.183132
0.172299
0.159430
0.058217
0.046932
0.102162
0.025085
0.124612
0.056886
0.095087
0.177638
0.120100
0.064106
0.160330
0.185688
0.072605
0.085688
0.073616
0.132403
0.111897
0.143314
0.125186
0.141256
0.066137
0.071703
0.091022
0.046305
0.067425
0.082545
0.114833
0.076331
0.078188
0.017662
0.033371
0.176320
0.134779
0.113933
0.044696
0.109727
0.138490
0.054479
0.121718
0.107243
0.040496
0.086415
0.042016
0.151305
0.129143
0.133248
0.188098
0.160106
0.166194
0.181372
0.167731
0.165145
0.224202
0.283448
0.266829
0.254789
0.270512
0.266958
0.286559
0.247982
0.127498
0.273397
0.301278
0.219863
0.252436
0.231402
0.190354
0.219631
0.135788
0.214075
0.151531
0.188525
0.170348
0.176096
0.225070
0.135983
0.065797
0.109729
0.097515
0.133068
0.103199
0.032736
0.141971
0.031485
0.099678
0.024596
0.057048
0.065984
0.093010
0.035466
0.095284
0.069102
0.056072
0.035267
0.063344
0.052815
0.042289
0.016564
0.097485
0.040439
0.060728
0.006245
0.195127
0.280248
0.724810
1.035804
1.332957
1.445598
1.404021
1.241722
0.917293
0.506247
0.266791
-0.025744
-0.144333
-0.272146
-0.201925
-0.089367
0.084259
0.042383
0.057581
0.144592
0.020021
0.046968
0.055717
0.145593
0.086803
0.114040
0.086655
0.092113
0.032771
0.112325
0.106196
0.073189
0.105482
0.087784
0.043783
0.080689
0.147470
0.126188
0.106492
0.191179
0.224730
0.206681
0.277419
0.190013
0.291394
0.379336
0.265318
0.425947
0.335744
0.385451
0.398637
0.395445
0.511912
0.469836
0.422682
0.496639
0.438059
0.509111
0.487971
0.460562
0.544906
0.573844
0.572695
0.519722
0.567829
0.588542
0.534107
0.532292
0.456090
0.459293
0.550592
0.436210
0.478192
0.447489
0.435924
0.421071
0.392493
0.437314
0.365506
0.304652
0.306940
0.336129
0.257994
0.267842
0.194491
0.176529
0.163452
0.133011
0.150636
0.122577
0.210084
0.179850
0.116768
0.108726
0.029999
0.159882
0.040439
0.083493
0.007761
0.017081
0.058824
0.044419
0.074391
-0.005851
-0.045350
0.051525
0.027179
0.029769
0.003779
0.049125
-0.008651
-0.019782
0.053186
-0.078251
0.043255
-0.061488
-0.047389
-0.004986
0.005099
0.010554
0.021822
0.020285
-0.032448
-0.033581
0.060703
-0.034011
-0.001059
-0.039201
0.002932
0.028163
0.016906
-0.002741
-0.006946
-0.021654
0.011190
-0.013058
-0.062055
0.036578
-0.047875
0.007456
-0.033668
0.027737
-0.025301
0.004423
-0.014364
-0.019535
0.010199
-0.033828
-0.017846
-0.048319
-0.025310
-0.031994
0.047336
-0.033583
-0.077739
-0.057941
-0.015078
-0.014232
-0.022340
-0.065879
-0.020597
-0.087379
-0.034111
-0.037452
-0.091873
-0.001611
0.066969
-0.017041
0.009769
0.045126
-0.104113
0.000044
-0.001518
0.016401
0.040295
-0.021976
-0.039935
-0.000933
0.042213
0.005258
0.012578
0.076054
-0.005427
0.138745
0.082827
0.066150
0.180456
0.009537
0.123727
0.162465
0.076538
0.124947
0.102102
0.147147
0.098833
0.178053
0.149063
0.032884
0.104615
0.065178
0.008913
0.103682
0.118738
0.017989
0.041345
0.010453
-0.075047
0.008005
0.005659
-0.021504
0.010265
0.011290
-0.036597
0.016987
-0.106588
-0.076275
-0.022143
-0.053134
-0.065344
-0.060834
-0.082535
-0.102808
-0.079891
0.034331
-0.052765
-0.078019
-0.062033
-0.052990
-0.030177
-0.033959
-0.089964
-0.070701
-0.174497
-0.073082
-0.058586
0.142798
0.410458
0.789776
1.097054
1.247403
1.283820
1.215576
0.896745
0.587458
0.192697
-0.105692
-0.179288
-0.380691
-0.315183
-0.264793
-0.280663
-0.142355
-0.126649
-0.077056
-0.097546
-0.114058
-0.047396
-0.045213
-0.063687
-0.052398
-0.103313
-0.133326
-0.023880
-0.064639
-0.033958
-0.061624
-0.004387
-0.071296
0.015709
0.035691
0.017535
0.016172
0.017804
0.031950
0.077805
0.051926
0.171402
0.118687
0.169539
0.102318
0.140899
0.179930
0.205829
0.157274
0.255080
0.227897
0.297817
0.398578
0.310908
0.381982
0.347280
0.372151
0.353550
0.383228
0.447793
0.316089
0.398915
0.458420
0.420085
0.379396
0.327508
0.457999
0.358710
0.413999
0.341059
0.258714
0.330268
0.379768
0.230587
0.326060
0.211379
0.243862
0.243575
0.191719
0.190797
0.224268
0.138179
0.223670
0.115698
0.104734
0.076001
0.049514
0.054288
0.037992
0.088571
0.019359
0.001385
0.042587
0.060397
-0.079318
-0.082125
-0.007202
-0.103757
0.023610
-0.078368
0.001526
0.000161
-0.085222
-0.107840
-0.103360
-0.079483
-0.074613
-0.035018
-0.123483
-0.150544
-0.157403
-0.105559
0.044314
-0.044257
-0.041497
-0.014638
-0.068761
-0.022985
-0.091985
-0.050019
-0.023876
-0.147975
-0.168610
-0.052261
-0.065000
0.003982
-0.084474
-0.094395
-0.084960
-0.063773
-0.094496
-0.125300
-0.089811
-0.067198
-0.131381
0.002746
-0.070671
-0.105115
-0.157183
-0.078825
-0.001850
-0.068188
-0.049303
-0.033141
-0.090567
-0.095099
-0.079561
0.008258
-0.125756
-0.034266
-0.122593
-0.083995
-0.083964
-0.002551
-0.042268
-0.133461
-0.065866
-0.103659
-0.132836
-0.129066
-0.029115
-0.138292
-0.033446
-0.036999
0.006320
-0.003775
-0.092327
-0.088261
-0.038367
-0.095459
0.008215
-0.110235
0.024712
-0.034543
-0.081616
0.045175
0.084777
-0.010720
0.037733
0.017134
0.101634
0.039705
0.039003
0.015078
0.105747
0.137466
0.050604
0.069911
0.112332
0.003519
0.072412
0.105398
0.179362
0.145475
0.160844
0.146820
0.090487
0.078446
0.053045
0.105650
0.065980
0.060301
0.099626
0.075926
0.105491
0.016385
0.016041
0.035403
0.047740
0.006534
-0.012071
0.056746
-0.017791
-0.020614
0.004915
0.063348
-0.022161
-0.028191
-0.044330
0.017742
-0.028359
-0.033334
-0.014514
-0.010077
-0.013655
-0.042918
-0.088236
-0.034042
-0.056577
-0.015643
-0.045335
-0.025983
-0.017591
-0.014928
0.241001
0.346571
0.689254
0.962982
1.334879
1.363849
1.243322
1.044096
0.750182
0.373771
0.052835
-0.141790
-0.363742
-0.317169
-0.209158
-0.206216
-0.131580
-0.067096
-0.061958
-0.063457
0.026722
-0.051400
-0.009417
-0.034778
0.038919
-0.028780
-0.000288
-0.021073
-0.022054
0.010206
0.039173
0.035137
0.078953
-0.059428
0.071105
0.072907
0.117481
0.138977
0.093535
0.145801
0.202900
0.132634
0.102449
0.228432
0.209792
0.253882
0.261185
0.174969
0.274182
0.232083
0.450023
0.337461
0.375747
0.372039
0.418309
0.366546
0.454334
0.433503
0.469741
0.533957
0.408560
0.438350
0.430113
0.449331
0.415136
0.503110
0.489355
0.494267
0.533017
0.517410
0.460705
0.396556
0.332937
0.411836
0.408278
0.365800
0.348492
0.324317
0.376468
0.244902
0.278803
0.265454
0.226807
0.222754
0.253750
0.093074
0.143540
0.142945
0.192739
0.200227
0.106583
0.033133
0.083784
0.126793
0.051827
0.063065
0.098786
0.037888
0.038866
0.083984
0.022782
0.083806
0.098504
-0.045492
0.043841
0.056841
0.036187
-0.034555
0.023733
0.038201
-0.011616
0.093448
0.084609
0.054798
0.039437
0.010444
0.047797
0.090004
0.045988
0.000235
-0.024147
0.085162
-0.051274
0.149714
0.011101
0.062410
-0.111280
0.038565
0.012632
-0.000275
0.028625
0.049265
0.113792
-0.018651
-0.002749
-0.043292
-0.004108
0.027353
-0.005740
0.035232
0.033120
0.122671
-0.007299
0.072905
0.028418
0.034262
0.018360
0.051761
0.085407
0.035218
0.011525
0.061338
0.011008
0.098420
0.078229
0.007335
0.045102
0.080754
0.113909
0.028592
0.105430
0.046134
-0.011156
0.076695
0.051852
0.068817
0.095401
0.004679
0.023693
0.090325
0.067305
0.066935
0.072895
0.031246
0.045428
0.087179
0.121056
0.111884
0.061994
0.090498
0.084697
0.074716
0.224369
0.192131
0.156812
0.209839
0.172482
0.194987
0.191740
0.148404
0.231147
0.217634
0.237723
0.230436
0.167861
0.201323
0.121240
0.193426
0.214610
0.143402
0.162106
0.093128
0.217810
0.123391
0.170784
0.126162
0.093126
0.058863
0.076761
0.075651
0.096879
0.140711
0.063957
0.090323
0.013936
0.091038
0.019206
-0.068168
-0.005934
0.122006
0.049828
0.077121
0.048121
0.051768
0.034158
-0.013700
0.035969
0.069357
0.078617
0.102344
0.080874
-0.008084
0.042814
0.029115
0.078176
0.259132
0.618348
0.938839
1.224065
1.401492
1.321554
1.272062
0.938333
0.709392
0.202233
-0.053837
-0.115787
-0.270387
-0.244412
-0.155319
-0.045714
0.023424
0.064914
0.036829
0.032195
0.055007
0.119787
0.062519
0.108048
0.081571
-0.011029
0.049765
0.051431
0.059734
0.043605
0.041275
0.094198
0.057731
0.119458
0.098050
0.137822
0.119292
0.154369
0.095257
0.132988
0.207647
0.285411
0.143413
0.200262
0.315112
0.346574
0.366585
0.282804
0.322908
0.324624
0.299687
0.379304
0.378883
0.456775
0.485074
0.435613
0.499063
0.490436
0.471685
0.548670
0.436515
0.560607
0.537015
0.480784
0.516553
0.501243
0.511342
0.487256
0.403100
0.526834
0.451062
0.499388
0.401705
0.425558
0.340805
0.345035
0.404980
0.349175
0.358378
0.319124
0.326037
0.217101
0.221110
0.250616
0.210272
0.169972
0.149016
0.106732
0.169745
0.130748
0.118375
0.089008
0.122476
0.101449
0.017743
0.082147
0.006549
0.014537
0.032453
0.028166
0.075912
-0.003493
0.052258
0.016059
0.051955
0.045214
0.087612
0.015880
-0.038531
0.032816
-0.052492
-0.056414
0.007321
0.003861
0.006292
0.041506
-0.062555
0.014832
0.015988
0.040745
-0.026008
0.041649
-0.015238
-0.026989
-0.100642
-0.022584
-0.040346
-0.051114
-0.076519
-0.060580
-0.040842
-0.062304
-0.066858
-0.087000
-0.043811
0.004488
0.053412
-0.056256
-0.104926
0.039380
0.079346
-0.095318
-0.021689
-0.056381
0.003254
-0.020748
-0.030891
0.026837
-0.014598
-0.004690
0.022065
-0.022172
-0.046206
-0.049816
-0.045511
-0.084141
-0.122467
-0.038633
0.007106
-0.006486
0.001051
-0.049434
0.003812
0.066811
-0.029226
-0.038903
0.063318
0.034408
-0.031183
-0.003938
-0.000621
-0.007610
0.008509
0.040420
0.027117
0.000660
0.055529
-0.048555
0.040762
0.028842
0.008758
0.058841
0.131442
-0.033691
0.043931
0.110804
0.099811
0.150514
0.152570
0.130358
0.149285
0.124671
0.076123
0.088973
0.132901
0.035125
0.098002
0.073210
0.078013
0.076117
0.026244
0.094986
0.116628
0.060994
0.033001
0.028471
-0.007666
0.048688
-0.014426
-0.035170
-0.043431
0.014393
-0.071078
-0.107694
-0.050116
-0.072954
-0.041014
-0.100652
-0.014777
-0.005348
-0.044266
-0.066852
-0.030805
-0.058793
-0.085177
-0.030659
-0.006802
-0.015718
-0.092849
-0.046336
-0.109341
-0.149721
-0.131201
-0.040616
0.117813
0.373144
0.679678
1.010779
1.290493
1.294197
1.213915
0.928034
0.600342
0.253355
-0.087119
-0.303626
-0.412347
-0.355751
-0.265175
-0.217282
-0.257266
-0.182153
-0.016060
-0.019550
-0.041938
-0.063088
-0.037687
-0.045511
-0.072775
-0.083064
-0.031711
-0.127055
-0.084751
-0.051782
0.007149
0.006011
-0.086484
-0.030144
0.032103
0.013510
-0.034913
0.111151
0.017575
0.042076
0.023149
0.144428
0.080846
0.161619
0.141622
0.172483
0.281647
0.125832
0.176492
0.258876
0.258267
0.251249
0.319052
0.301216
0.304875
0.292081
0.433460
0.347201
0.401499
0.420466
0.390894
0.349695
0.356220
0.379577
0.417673
0.362369
0.381290
0.380692
0.407287
0.388073
0.284115
0.329407
0.344673
0.302835
0.238533
0.275888
0.321882
0.242021
0.263024
0.180983
0.156501
0.191105
0.212638
0.019696
0.140331
0.046638
0.103624
0.093157
0.026328
0.018788
0.015488
0.060593
0.010794
-0.011280
-0.145970
-0.036042
0.005612
-0.083756
-0.015864
-0.097493
-0.116285
-0.092361
-0.133948
-0.072325
-0.105578
-0.051210
-0.078076
-0.144439
-0.087355
-0.071851
-0.168378
-0.132500
-0.042646
-0.148864
-0.113328
-0.105009
-0.070299
-0.148019
-0.056940
-0.089850
-0.064335
-0.038247
-0.117469
-0.145334
-0.110343
-0.073564
-0.047296
-0.018278
-0.140831
-0.152084
-0.142311
-0.046778
-0.057669
-0.100417
-0.117992
-0.073610
-0.094075
-0.140028
-0.083957
-0.068399
-0.133499
-0.079698
-0.054483
-0.145795
-0.079277
-0.054730
-0.098909
-0.147318
-0.102290
-0.158673
-0.161774
-0.096426
-0.072168
-0.007994
-0.127589
-0.038353
-0.049414
-0.150880
-0.043412
-0.098218
-0.053346
-0.127634
-0.084704
-0.080470
-0.143171
-0.113309
-0.022552
-0.068661
0.009106
-0.074449
-0.089563
-0.054645
-0.099097
-0.066918
-0.061828
0.017566
0.061356
0.015258
-0.046010
-0.046118
0.005982
-0.033416
0.030366
0.097558
0.050363
0.059232
0.077173
0.100964
0.146252
0.107170
0.114690
0.167237
0.099941
0.159829
0.071250
0.048717
0.075083
0.125449
0.000443
0.117152
0.077104
0.061338
0.014859
-0.019937
-0.003075
-0.049786
0.028166
-0.023795
-0.025076
-0.071148
-0.035416
-0.052242
0.022615
-0.027175
-0.044318
-0.064252
0.021410
-0.076264
0.006232
-0.052956
-0.082919
-0.057643
-0.095426
-0.052346
-0.098363
-0.065909
-0.142784
-0.096770
-0.006880
-0.133004
-0.138762
-0.112856
-0.133335
-0.005594
0.112114
0.278310
0.663100
0.919878
1.190728
1.281813
1.232202
1.112390
0.731879
0.388613
0.055145
-0.199654
-0.330253
-0.443523
-0.266006
-0.194588
-0.211126
-0.048346
-0.106169
-0.034449
-0.113676
-0.065144
0.006345
-0.128646
0.071103
0.003624
-0.045524
-0.052740
-0.045280
0.008435
0.053464
0.069077
-0.005654
0.089079
0.071594
0.038817
-0.040794
0.078665
0.112617
0.118996
0.073457
0.093118
0.106403
0.128426
0.144413
0.124431
0.211136
0.284540
0.207128
0.353910
0.308454
0.294596
0.329890
0.371031
0.348884
0.407659
0.400006
0.427739
0.513288
0.338625
0.444068
0.452193
0.436698
0.479857
0.470283
0.413158
0.432391
0.383024
0.437507
0.389891
0.425167
0.432463
0.416994
0.412853
0.376053
0.355443
0.291237
0.318175
0.290262
0.232067
0.245210
0.308441
0.258713
0.233035
0.113841
0.183687
0.201745
0.163881
0.114242
0.130552
0.142078
0.102740
0.013159
0.045493
0.086188
0.067562
0.092793
0.042536
0.047919
-0.050211
-0.086715
0.025944
-0.041296
-0.003814
0.013000
-0.018802
0.019095
-0.059867
0.042836
-0.006640
-0.012754
0.011968
-0.052037
0.017214
0.008601
0.041623
0.043061
0.075919
-0.002923
-0.023499
0.111368
0.000922
-0.044467
0.022020
-0.016320
0.053402
-0.034720
-0.026614
0.013134
-0.061525
0.030931
0.062204
-0.005752
-0.007156
0.042331
-0.005440
0.013291
-0.001061
0.044540
0.027991
-0.026926
0.068363
0.041959
-0.015730
0.006236
0.060603
0.106200
-0.046239
-0.008929
0.071080
0.025894
0.066928
-0.022507
0.030878
0.031324
0.017347
0.123235
0.037299
0.034766
0.125202
0.012851
0.005371
-0.012450
0.070185
0.035867
0.022297
0.054145
0.016523
-0.031387
0.026842
-0.008890
0.041155
0.131509
0.091277
-0.028295
0.040926
0.077123
0.096296
0.057507
0.072319
0.084371
0.107977
0.153351
0.232962
0.212340
0.168544
0.152105
0.201802
0.189598
0.234747
0.166848
0.166143
0.222037
0.263071
0.211299
0.196447
0.238743
0.286843
0.215126
0.243487
0.201844
0.192137
0.185293
0.138373
0.161236
0.151605
0.172481
0.179236
0.181223
0.049109
0.038911
0.088341
0.046145
0.108445
0.091328
0.153267
0.039097
0.080017
0.069475
0.075657
0.090505
0.026589
0.103308
0.041362
0.051545
0.000135
0.040813
0.022360
0.020790
0.015831
0.011431
0.074965
0.077506
0.088770
0.145836
0.266320
0.528607
0.875315
1.243414
1.394558
1.486866
1.233861
0.940557
0.669931
0.293861
-0.036528
-0.126578
-0.201913
-0.265897
-0.186283
-0.084060
-0.058799
0.083866
0.042774
0.024134
0.023203
0.043531
0.159010
0.126517
0.111055
0.090666
0.103530
0.159306
0.121438
0.071054
0.121756
0.110013
0.119726
0.188126
0.170063
0.150250
0.213568
0.140204
0.180561
0.223404
0.261629
0.272716
0.299900
0.251390
0.311586
0.304628
0.288184
0.368921
0.305991
0.437439
0.457442
0.430144
0.419114
0.531171
0.447686
0.392657
0.556388
0.515765
0.538744
0.552507
0.594640
0.534154
0.583600
0.553094
0.559423
0.554599
0.530082
