-0.002542
-0.016849
-0.003037
-0.014347
0.055674
0.030343
-0.036389
0.004206
0.089009
0.065714
0.079835
0.043836
0.016093
0.004284
0.026860
-0.001062
0.072066
0.006066
0.012679
-0.056487
-0.006771
-0.019550
-0.006640
-0.042486
0.018656
-0.017467
0.097303
0.006684
-0.007084
0.022491
0.089865
0.062573
0.112888
0.006401
0.122096
0.030187
0.063920
0.006843
0.135721
0.101899
0.084439
0.087153
0.119238
0.130457
0.183552
0.204785
0.171938
0.192607
0.181237
0.138636
0.181755
0.160025
0.226697
0.224743
0.230712
0.190575
0.114659
0.221763
0.128888
0.090202
0.135753
0.122358
0.076139
0.094624
0.115369
0.093722
0.137915
0.105580
0.087635
0.098796
0.082460
0.105477
0.081932
0.090738
0.029500
0.075429
0.041658
0.053794
0.069062
0.112138
0.051446
0.112835
0.046081
0.089494
0.065607
0.041142
0.095524
0.088131
-0.028734
0.050953
0.047816
0.016140
0.035233
-0.014445
-0.002319
0.169038
0.397840
0.632104
0.976492
1.157516
1.277306
1.228341
1.073033
0.727695
0.439502
0.160307
-0.008215
-0.127271
-0.132893
-0.216054
-0.130490
-0.072979
0.019139
0.055903
0.056809
0.076452
0.088932
0.093163
0.092988
0.071024
0.081987
0.071702
0.098766
0.055066
0.099432
0.116318
0.109228
0.067838
0.151959
0.189254
0.066761
0.145878
0.131857
0.176576
0.212037
0.134976
0.149860
0.153617
0.205249
0.193751
0.235196
0.250154
0.252108
0.305114
0.249692
0.326844
0.361781
0.404156
0.363404
0.406694
0.449417
0.416664
0.421954
0.509239
0.432141
0.483853
0.497397
0.471924
0.534176
0.508753
0.540825
0.545511
0.587134
0.513267
0.576492
0.580919
0.559857
0.441808
0.453335
0.486559
0.442103
0.527300
0.486754
0.458750
0.485325
0.346178
0.400870
0.399844
0.271167
0.331983
0.253703
0.298144
0.287782
0.343617
0.317017
0.249930
0.293823
0.279463
0.180582
0.203745
0.251842
0.200826
0.193416
0.150164
0.173286
0.176132
0.113278
0.118254
0.137287
0.147597
0.135809
0.115111
0.156698
0.101484
0.055653
0.162861
0.144955
0.047568
0.071035
0.074856
0.097243
0.129192
0.102732
0.127988
0.107239
0.078465
0.021161
0.080964
0.093654
0.086642
0.145912
0.152899
0.060448
0.107577
0.125853
0.046443
0.071076
0.088788
0.077970
0.114107
0.158499
0.109044
0.084114
0.090506
0.145569
0.069031
0.131273
0.144293
0.149754
0.169229
0.195611
0.129795
0.078087
0.058377
0.149849
0.095702
0.103627
0.066983
0.139765
0.119949
0.112085
0.069838
0.101679
0.162167
0.173470
0.091417
0.169997
0.090102
0.061250
0.088781
0.059414
0.112302
0.113608
0.103882
-0.024497
0.115890
0.108254
0.102718
0.120403
0.147734
0.117430
0.104974
0.146722
0.105515
0.060917
0.180901
0.130018
0.121797
0.085994
0.167973
0.154033
0.134734
0.172094
0.163667
0.125375
0.148003
0.121093
0.137641
0.165020
0.198077
0.225248
0.183546
0.217093
0.294286
0.248721
0.305877
0.242903
0.273955
0.231473
0.252470
0.336789
0.236812
0.258504
0.219185
0.250735
0.243701
0.197836
0.290887
0.202095
0.244611
0.209851
0.194694
0.156398
0.179627
0.170030
0.180567
0.135618
0.104575
0.094932
0.205647
0.107593
0.132323
0.115636
0.055571
0.158251
0.048939
0.147779
0.147488
0.133798
0.139509
0.079458
0.149957
0.156359
0.125234
0.100790
0.155911
0.103168
0.057034
0.117324
0.010631
0.063199
0.088593
0.075847
0.087545
0.101643
0.212827
0.414006
0.717902
1.044623
1.158191
1.295068
1.241172
1.063835
0.822827
0.519868
0.245995
0.045538
-0.067592
-0.132480
-0.151335
-0.115001
-0.006379
-0.007502
0.062722
0.107785
0.033298
0.158913
0.089124
0.096721
0.061732
0.082849
0.149201
0.096399
0.102702
0.172328
0.048154
0.012105
0.147633
0.103872
0.165223
0.177227
0.118418
0.172186
0.134961
0.159911
0.171470
0.202555
0.144597
0.151608
0.234008
0.249745
0.257998
0.255753
0.305228
0.309074
0.274754
0.340575
0.366716
0.355954
0.388530
0.376410
0.354341
0.459458
0.393983
0.490816
0.545981
0.421416
0.496883
0.523100
0.540991
0.522903
0.490232
0.521824
0.500435
0.524141
0.420942
0.479362
0.495656
0.520253
0.474743
0.436038
0.499451
0.438668
0.377782
0.388048
0.412947
0.363652
0.320358
0.352038
0.325949
0.181228
0.232149
0.275733
0.138898
0.232184
0.234691
0.198609
0.180343
0.120532
0.119037
0.135257
0.095768
0.111026
0.088536
0.045680
0.120639
0.120366
0.136768
0.037061
0.130779
0.087558
0.093105
0.069422
0.096230
0.056358
0.097685
0.070188
0.094284
0.034467
0.046460
0.042197
0.045914
0.032398
0.023290
0.067716
0.136483
0.097274
0.081806
0.016200
0.041749
0.073453
0.066814
0.086696
0.081863
0.079948
0.073518
0.071758
0.092836
0.107139
0.057225
0.062126
-0.025829
0.111926
0.089289
0.102379
0.034382
0.075042
0.166955
0.068837
0.004377
0.045744
0.077459
0.047393
0.042992
0.012857
0.035701
0.104492
0.103323
0.071262
0.063038
0.090293
-0.032085
0.065089
0.057554
0.042685
0.045977
0.066281
0.063178
0.091913
0.051171
0.140266
0.047950
0.046606
0.127330
0.020642
0.024354
0.168373
0.003869
0.082621
0.061454
0.087629
0.053275
0.067665
0.077988
0.090580
0.001408
0.124387
0.122941
0.143864
0.122570
0.093301
0.074531
0.116266
0.087784
0.108955
0.084644
0.134958
0.095270
0.124641
0.159145
0.141023
0.123141
0.158680
0.145379
0.253668
0.255555
0.144474
0.243729
0.173666
0.258367
0.239209
0.204617
0.162014
0.186796
0.144502
0.199764
0.144609
0.176612
0.145519
0.155121
0.166390
0.171136
0.165699
0.179178
0.041471
0.181755
0.118976
0.125229
0.122642
0.116997
0.103013
0.033591
0.108078
0.145205
0.086167
0.042102
0.090633
0.097263
0.041174
0.066251
0.041703
0.135964
0.161111
0.059680
0.079257
0.053881
0.069422
0.050564
0.105066
0.034823
0.041346
0.033460
-0.028940
-0.000107
0.112969
0.196727
0.349944
0.660055
1.079838
1.156769
1.282422
1.229801
1.012395
0.721364
0.499242
0.232735
-0.032871
-0.162942
-0.164830
-0.161733
-0.091719
-0.023201
0.013168
0.122520
0.093967
0.054644
0.090535
0.139831
0.137084
0.078528
0.055340
0.080599
0.090328
0.134567
0.078528
0.111776
0.119191
0.126381
0.100941
0.135057
0.059098
0.155755
0.106074
0.121015
0.131920
0.215684
0.278188
0.204100
0.179788
0.167496
0.263336
0.321873
0.297421
0.345001
0.309073
0.229751
0.289103
0.333359
0.338325
0.403243
0.400433
0.296793
0.377260
0.475317
0.457069
0.470258
0.499078
0.463193
0.460979
0.517757
0.537550
0.534721
0.560413
0.573094
0.550477
0.529643
0.532317
0.551503
0.489563
0.557274
0.464997
0.512240
0.501790
0.461050
0.422602
0.351397
0.386765
0.373779
0.380013
0.335207
0.401554
0.265717
0.296804
0.328888
0.210340
0.236972
0.294337
0.271591
0.286906
0.177750
0.171885
0.206084
0.142678
0.198445
0.173228
0.140859
0.153573
0.166973
0.234426
0.137206
0.188224
0.182982
0.108458
0.134888
0.181197
0.140824
0.173033
0.108868
0.160661
0.161742
0.118848
0.086418
0.116809
0.117410
0.103408
0.056658
0.138249
0.182528
0.167534
0.115619
0.140890
0.097987
0.113780
0.181699
0.173317
0.136239
0.152444
0.117633
0.130106
0.129159
0.156420
0.139110
0.207797
0.150428
0.142477
0.158495
0.133804
0.143122
0.082740
0.185354
0.137779
0.146875
0.160376
0.147413
0.120373
0.181589
0.156044
0.170788
0.098013
0.117427
0.162688
0.112463
0.183479
0.165919
0.165262
0.200575
0.186055
0.164826
0.183005
0.121889
0.172814
0.113738
0.195661
0.116615
0.187068
0.118487
0.204652
0.199500
0.206900
0.192352
0.209252
0.205878
0.169366
0.212481
0.122414
0.235083
0.264848
0.267008
0.189756
0.160992
0.200148
0.192068
0.225983
0.213879
0.205219
0.146135
0.245860
0.216816
0.222485
0.334955
0.193160
0.352219
0.342284
0.299638
0.338697
0.330733
0.342205
0.356047
0.350922
0.288610
0.350541
0.336964
0.359486
0.382426
0.352512
0.279688
0.295580
0.277355
0.372140
0.306382
0.310725
0.320325
0.261966
0.265645
0.224431
0.220198
0.203779
0.264386
0.142824
0.220029
0.176909
0.239586
0.191894
0.170977
0.273610
0.202663
0.175440
0.247282
0.240845
0.182571
0.149750
0.142268
0.156118
0.142860
0.194510
0.185854
0.263730
0.240397
0.229655
0.175599
0.217734
0.165621
0.170387
0.167739
0.205059
0.287465
0.573435
0.856701
1.132287
1.328235
1.361551
1.279389
1.143900
0.946194
0.641252
0.298855
0.029098
-0.028793
-0.038494
-0.075138
0.030347
0.177688
0.184383
0.180160
0.234687
0.262316
0.147521
0.191261
0.194285
0.230933
0.280457
0.226168
0.232280
0.241852
0.200174
0.269518
0.277776
0.222323
0.213779
0.249540
0.258621
0.230024
0.308607
0.291897
0.246533
0.352235
0.330522
0.338946
0.325566
0.301700
0.382212
0.386896
0.307526
0.462675
0.493033
0.488700
0.437052
0.491033
0.461269
0.519070
0.547616
0.517521
0.548409
0.639642
0.562802
0.638045
0.650140
0.642051
0.633451
0.657518
0.689209
0.687341
0.619385
0.685133
0.674032
0.644183
0.668316
0.644246
0.596776
0.619391
0.659161
0.579373
0.566939
0.512983
0.607911
0.560347
0.462872
0.528173
0.441796
0.527719
0.446101
0.410173
0.387748
0.466050
0.441232
0.386660
0.346060
0.297079
0.328702
0.325508
0.380492
0.282972
0.333931
0.348232
0.269744
0.265337
0.246074
0.229342
0.295626
0.241915
0.285589
0.281713
0.310126
0.226904
0.234599
0.290809
0.264631
0.153073
0.211461
0.214975
0.209279
0.182449
0.195976
0.249202
0.256922
0.265945
0.280396
0.259348
0.229364
0.280851
0.222869
0.290862
0.231762
0.189209
0.248331
0.217433
0.223025
0.255409
0.251584
0.256830
0.213101
0.251848
0.250658
0.229380
0.258219
0.202617
0.291396
0.262706
0.242992
0.279401
0.226794
0.310249
0.241523
0.278839
0.247757
0.250636
0.231564
0.209168
0.220894
0.254922
0.224747
0.273506
0.250239
0.223893
0.228512
0.292340
0.184080
0.260695
0.200678
0.255525
0.211416
0.247298
0.263974
0.259145
0.195816
0.220928
0.321676
0.282735
0.184076
0.207881
0.243828
0.284206
0.206274
0.299424
0.257987
0.156852
0.209402
0.243219
0.207984
0.267444
0.167710
0.261163
0.277417
0.240928
0.217031
0.255990
0.346056
0.351921
0.323751
0.356534
0.402247
0.323669
0.375623
0.366649
0.347203
0.426391
0.294377
0.373107
0.422767
0.427401
0.402213
0.351581
0.409035
0.385912
0.344131
0.364680
0.381053
0.360854
0.320187
0.272716
0.370590
0.352348
0.322239
0.245940
0.250075
0.293176
0.239203
0.250546
0.255005
0.237150
0.237475
0.228803
0.241332
0.331979
0.204390
0.257002
0.224144
0.301640
0.201827
0.107771
0.164965
0.159054
0.225519
0.233615
0.106751
0.193846
0.240417
0.257649
0.113035
0.232791
0.184536
0.211664
0.132832
0.138445
0.167546
0.331186
0.549819
0.764883
1.089804
1.334268
1.419644
1.373092
1.179866
0.903571
0.618056
0.348330
0.093964
-0.029143
-0.065387
-0.070993
0.007313
0.084459
0.158861
0.117650
0.159169
0.196967
0.217329
0.148616
0.155956
0.201469
0.200640
0.230610
0.186348
0.263116
0.268783
0.190082
0.177295
0.265022
0.187560
0.212044
0.203238
0.190271
0.243239
0.226677
0.257135
0.314548
0.305754
0.306604
0.301544
0.272376
0.368843
0.340340
0.393724
0.406617
0.403853
0.493746
0.438579
0.401792
0.457512
0.486358
0.459510
0.561054
0.507126
0.447537
0.602258
0.603318
0.610538
0.584516
0.623196
0.587776
0.644830
0.634045
0.544856
0.658323
0.647631
0.591444
0.555347
0.608949
0.577846
0.639439
0.589014
0.571334
0.515714
0.528814
0.475123
0.467215
0.429946
0.491905
0.425168
0.421335
0.426895
0.419336
0.336697
0.414574
0.344031
0.272403
0.328507
0.258811
0.303514
0.211177
0.256112
0.248599
0.282879
0.218550
0.217458
0.205075
0.199923
0.168855
0.119608
0.222285
0.227053
0.205478
0.135490
0.209778
0.222976
0.171624
0.182069
0.161362
0.212729
0.223475
0.093813
0.121388
0.170643
0.148169
0.145323
0.089798
0.150444
0.180310
0.162587
0.149970
0.158123
0.229250
0.241655
0.190261
0.199816
0.164323
0.126616
0.190509
0.166338
0.126639
0.136296
0.116068
0.179304
0.164864
0.152393
0.194172
0.191641
0.193051
0.109147
0.159228
0.144421
0.179475
0.130561
0.174818
0.144182
0.125578
0.216370
0.147059
0.187848
0.158245
0.168921
0.182167
0.152751
0.140505
0.115878
0.145628
0.141117
0.157461
0.184624
0.174554
0.112147
0.155317
0.132844
0.125077
0.121950
0.087140
0.144396
0.153043
0.185816
0.121926
0.117517
0.114425
0.150734
0.169081
0.095059
0.120290
0.164083
0.176335
0.130597
0.152477
0.219277
0.179726
0.238823
0.261262
0.233097
0.184862
0.129317
0.185659
0.241684
0.308672
0.207490
0.175890
0.236622
0.245794
0.261736
0.284779
0.300464
0.268415
0.285109
0.332876
0.249099
0.329082
0.259052
0.247584
0.285027
0.256528
0.278157
0.266432
0.245258
0.235752
0.260621
0.191590
0.205007
0.177593
0.209205
0.144246
0.202163
0.104220
0.121753
0.131574
0.171061
0.131721
0.193136
0.154585
0.164881
0.095782
0.166352
0.148152
0.167132
0.057676
0.196219
0.096606
0.122942
0.096798
0.146907
0.170382
0.157027
0.154261
0.130676
0.079003
0.089004
0.094277
0.064721
0.061370
0.168550
0.201090
0.517698
0.858691
1.052582
1.290963
1.375953
1.294778
1.146394
0.819392
0.532183
0.240044
0.024946
-0.067383
-0.084153
-0.084820
-0.060527
-0.087138
0.038660
0.094190
0.081391
0.153867
0.144219
0.159046
0.128921
0.149703
0.108174
0.235076
0.203057
0.184469
0.211976
0.155895
0.186347
0.210951
0.233203
0.178826
0.213298
0.210908
0.170791
0.259871
0.173058
0.258651
0.264943
0.272481
0.303333
0.199503
0.291635
0.274227
0.335135
0.355513
0.357383
0.335126
0.400828
0.391627
0.460664
0.427770
0.442956
0.479705
0.496884
0.525048
0.492776
0.560473
0.576757
0.630129
0.593341
0.565868
0.561938
0.541134
0.607433
0.581616
0.590931
0.643165
0.582897
0.529017
0.569976
0.453220
0.512811
0.512004
0.480233
0.520982
0.512925
0.420394
0.458364
0.490986
0.406943
0.449193
0.431800
0.423545
0.337996
0.330241
0.362548
0.310811
0.278091
0.314256
0.295230
0.217538
0.247428
0.278745
0.243075
0.228121
0.268133
0.248551
0.239033
0.257307
0.242214
0.219677
0.105168
0.139782
0.201275
0.202346
0.116770
0.204534
0.221570
0.160410
0.199090
0.207111
0.169276
0.176367
0.232684
0.155445
0.202921
0.124279
0.213955
0.220930
0.140517
0.184458
0.232214
0.182566
0.222669
0.178401
0.169798
0.157465
0.217680
0.228574
0.313308
0.127857
0.188307
0.156409
0.135928
0.187182
0.138828
0.216858
0.188220
0.171033
0.209497
0.176033
0.201221
0.191468
0.110926
0.146965
0.234646
0.184479
0.201449
0.206741
0.241434
0.221321
0.193811
0.238005
0.191345
0.193219
0.168799
0.220246
0.227143
0.167838
0.246028
0.197422
0.194208
0.197901
0.247810
0.114446
0.234489
0.155170
0.198083
0.253408
0.178329
0.178429
0.259580
0.215051
0.201576
0.229592
0.157908
0.251662
0.170623
0.240894
0.251052
0.246850
0.243269
0.230682
0.253383
0.254440
0.375737
0.200556
0.306959
0.354358
0.330570
0.279523
0.430387
0.357113
0.332676
0.309003
0.346734
0.249454
0.367360
0.448090
0.400729
0.412005
0.447501
0.438101
0.369978
0.388398
0.400258
0.359823
0.397575
0.369110
0.332900
0.294293
0.391286
0.369587
0.324888
0.287525
0.270065
0.283172
0.201897
0.282180
0.271610
0.267113
0.207129
0.216736
0.292954
0.321469
0.303693
0.253802
0.223516
0.215235
0.350267
0.235075
0.205827
0.196953
0.244452
0.222148
0.251025
0.242299
0.204109
0.234300
0.224388
0.256145
0.222073
0.206487
0.145754
0.227039
0.224862
0.347496
0.618459
0.915838
1.266961
1.367407
1.500000
1.406914
1.250895
0.946336
0.616321
0.317927
0.161095
0.065518
-0.015272
0.020853
0.090784
0.186259
0.205361
0.235407
0.293956
0.246837
0.267447
0.269184
0.320382
0.340059
0.269714
0.252659
0.309339
0.238659
0.356833
0.311086
0.296788
0.291814
0.227465
0.318210
0.323816
0.307174
0.374009
0.290621
0.337447
0.335658
0.377108
0.379094
0.360645
0.424090
0.356339
0.435157
0.442750
0.462261
0.356503
0.506964
0.477220
0.577946
0.573236
0.557312
0.532773
0.605991
0.568357
0.626164
0.657121
0.708199
0.674167
0.676417
0.725968
0.718829
0.665207
0.695395
0.691268
0.723531
0.720476
0.746886
0.704900
0.685635
0.632323
0.659358
0.639353
0.643273
0.588379
0.626917
0.594240
0.551203
0.557878
0.566668
0.545150
0.517630
0.561752
0.493909
0.517316
0.408639
0.411041
0.423408
0.400384
0.315513
0.370234
0.321254
0.335356
0.357438
0.361108
0.347563
0.252992
0.265300
0.362376
0.260105
0.313039
0.265307
0.317964
0.287191
0.325776
0.254929
0.295411
0.261307
0.235163
0.255507
0.282188
0.268204
0.241509
0.284997
0.280031
0.265108
0.316287
0.256606
0.271149
0.371619
0.241932
0.292173
0.300908
0.231261
0.276975
0.264245
0.237946
0.260408
0.262464
0.267875
0.200272
0.333724
0.271211
0.288748
0.253638
0.255473
0.282045
0.315196
0.257481
0.345278
0.217743
0.310834
0.248192
0.281299
0.286862
0.220673
0.248335
0.243176
0.299697
0.282531
0.176922
0.302361
0.235891
0.282453
0.357393
0.266010
0.363026
0.233610
0.251407
0.210164
0.261331
0.295961
0.304262
0.351508
0.351235
0.289349
0.262693
0.257085
0.339056
0.241418
0.270587
0.279784
0.266700
0.213521
0.238062
0.278259
0.330976
0.297888
0.255266
0.238571
0.217419
0.282016
0.227919
0.284427
0.358338
0.288646
0.281055
0.299600
0.284255
0.396551
0.283349
0.329934
0.340779
0.327206
0.343396
0.420218
0.326107
0.416664
0.415233
0.411433
0.353249
0.435814
0.401775
0.369726
0.372624
0.380058
0.409720
0.347598
0.324684
0.375216
0.349910
0.336229
0.308250
0.355930
0.404120
0.277163
0.290833
0.224217
0.359575
0.287781
0.277547
0.299696
0.328456
0.288521
0.260106
0.250623
0.268516
0.237107
0.321785
0.247771
0.229101
0.252341
0.319539
0.258706
0.275194
0.250520
0.248411
0.266242
0.293821
0.296444
0.236625
0.213899
0.231693
0.189263
0.222092
0.127120
0.225016
0.377985
0.572833
0.812626
1.159673
1.376539
1.491796
1.412234
1.197524
0.950276
0.659029
0.391378
0.070615
0.057299
0.032640
-0.008251
-0.025362
0.138982
0.151712
0.243194
0.206357
0.242975
0.266628
0.214676
0.268432
0.218912
0.231973
0.276605
0.309457
0.225345
0.292120
0.226741
0.285031
0.257727
0.248828
0.233248
0.322854
0.239502
0.266353
0.243101
0.375680
0.333985
0.349231
0.269846
0.350377
0.323405
0.400684
0.487953
0.402721
0.385505
0.443344
0.405585
0.458317
0.477951
0.519730
0.447331
0.564780
0.641005
0.569087
0.649270
0.653942
0.568908
0.546252
0.715340
0.668663
0.612490
0.670454
0.637453
0.701448
0.632336
0.650772
0.653337
0.597617
0.631651
0.629385
0.589819
0.577685
0.575464
0.607274
0.597715
0.539208
0.563028
0.485528
0.498674
0.455755
0.429580
0.461005
0.379322
0.371126
0.396278
0.296591
0.353953
0.238101
0.329233
0.234048
0.333622
0.288952
0.249241
0.303134
0.251340
0.300947
0.292550
0.263358
0.215960
0.211880
0.206080
0.237672
0.193218
0.213585
0.224523
0.184048
0.268980
0.209112
0.201818
0.176381
0.169885
0.215456
0.231681
0.141120
0.198759
0.272215
0.208906
0.235768
0.175798
0.202454
0.101254
0.179102
0.136029
0.139545
0.244901
0.214343
0.210750
0.185591
0.131699
0.155453
0.154953
0.237941
0.168377
0.210204
0.235122
0.185580
0.157428
0.116103
0.204250
0.205950
0.169515
0.229197
0.131892
0.208812
0.249324
0.127117
0.105742
0.157601
0.241400
0.203651
0.178805
0.130159
0.141918
0.158030
0.195432
0.221083
0.207622
0.142025
0.112263
0.178498
0.238537
0.135042
0.194670
0.190807
0.188553
0.242403
0.224606
0.187751
0.101897
0.142477
0.156313
0.196999
0.141111
0.200639
0.199615
0.220229
0.159224
0.222166
0.194746
0.142925
0.107077
0.142736
0.183093
0.145074
0.217905
0.218653
0.249348
0.254026
0.211926
0.262173
0.225496
0.323514
0.263742
0.242950
0.305369
0.261080
0.314499
0.313269
0.305014
0.273079
0.282685
0.359436
0.315756
0.289309
0.336969
0.290708
0.348140
0.304091
0.284613
0.346655
0.341462
0.180433
0.278914
0.219138
0.289928
0.191221
0.272852
0.149557
0.214188
0.191370
0.199587
0.158451
0.209855
0.173415
0.186151
0.207629
0.207310
0.165975
0.174819
0.166477
0.200107
0.156735
0.192865
0.205288
0.225357
0.185011
0.138165
0.239688
0.163273
0.226049
0.107556
0.114501
0.053964
0.028484
0.091921
0.164414
0.299356
0.478557
0.770339
1.029168
1.294074
1.367295
1.344560
1.111600
0.903795
0.500373
0.295727
0.057776
-0.010136
-0.115986
-0.039428
-0.094704
0.051973
0.135277
0.184438
0.187023
0.227806
0.110381
0.192522
0.195215
0.139844
0.233658
0.168670
0.111353
0.208110
0.181305
0.207448
0.175028
0.140207
0.219187
0.256831
0.218036
0.217742
0.250924
0.274488
0.209979
0.272725
0.282760
0.293056
0.267888
0.321070
0.358034
0.338785
0.447811
0.395255
0.397638
0.440834
0.412932
0.436997
0.458994
0.436399
0.475056
0.499469
0.546782
0.515358
0.526450
0.518246
0.537315
0.544068
0.725586
0.622709
0.577076
0.613902
0.576114
0.616229
0.597173
0.512838
0.573699
0.556317
0.601385
0.578580
0.511492
0.477032
0.539190
0.493736
0.534142
0.475020
0.520940
0.529249
0.486119
0.454738
0.371350
0.351825
0.415875
0.411275
0.317777
0.300085
0.342890
0.347806
0.306577
0.318623
0.254948
0.280595
0.249593
0.249231
0.238845
0.246596
0.275875
0.266997
0.168677
0.247731
0.206111
0.189840
0.164201
0.226643
0.191227
0.199934
0.230142
0.169967
0.223730
0.208102
0.186875
0.173216
0.241817
0.159156
0.175622
0.242201
0.219328
0.203094
0.177586
0.174804
0.163097
0.204715
0.145935
0.182235
0.219902
0.216553
0.256732
0.216110
0.231077
0.187845
0.225719
0.183593
0.174480
0.152783
0.201773
0.270657
0.223834
0.194431
0.233910
0.199377
0.186512
0.321947
0.210763
0.227491
0.199856
0.228296
0.111912
0.221253
0.169838
0.267675
0.280420
0.188055
0.167831
0.213847
0.205910
0.287622
0.143663
0.213293
0.205523
0.184185
0.289527
0.217801
0.275241
0.262340
0.211467
0.208490
0.209556
0.227454
0.274521
0.166236
0.299941
0.186745
0.192809
0.230687
0.240961
0.177261
0.252664
0.241192
0.262938
0.286553
0.192479
0.233712
0.271888
0.243764
0.280984
0.291166
0.298101
0.376172
0.362159
0.321620
0.365120
0.384826
0.376225
0.335659
0.384420
0.352839
0.445933
0.409297
0.373580
0.370818
0.399755
0.388721
0.351019
0.446730
0.375163
0.422968
0.379226
0.445697
0.333171
0.371533
0.326680
0.319492
0.384225
0.253974
0.238540
0.275945
0.311102
0.359856
0.344050
0.236770
0.298822
0.289383
0.239655
0.297437
0.248193
0.281800
0.245423
0.260300
0.343927
0.275638
0.205151
0.241419
0.215539
0.211696
0.260184
0.253235
0.248981
0.327955
0.231389
0.262252
0.202357
0.246705
0.192743
0.199115
0.260899
0.419006
0.652872
0.910257
1.114950
1.368311
1.493534
1.380132
1.296014
1.001783
0.696851
0.427234
0.172718
0.004105
0.068488
0.052532
0.026418
0.172351
0.212823
0.298634
0.259831
0.222692
0.290495
0.231618
0.248567
0.313629
0.270003
0.307530
0.262939
0.273673
0.353786
0.257407
0.308291
0.278513
0.301664
0.307713
0.394018
0.310135
0.330879
0.360443
0.352996
0.317671
0.342872
0.341629
0.351939
0.419406
0.466344
0.449607
0.406403
0.491932
0.491140
0.517563
0.516959
0.519482
0.612532
0.616580
0.577141
0.588923
0.631878
0.681378
0.705052
0.666932
0.696021
0.680904
0.704748
0.680961
0.680643
0.714960
0.699768
0.754466
0.724376
0.731526
0.750285
0.727443
0.614826
0.680023
0.677195
0.646102
0.647539
0.664102
0.565874
0.565777
0.587654
0.586670
0.487445
0.507495
0.593363
0.499817
0.472468
0.512744
0.365492
0.428441
0.433564
0.501674
0.429423
0.422861
0.376999
0.352366
0.337792
0.373675
0.256064
0.378060
0.356311
0.334828
0.376123
0.289013
0.311773
0.312055
0.311659
0.267191
0.347652
0.317247
0.253102
0.318162
0.352238
0.289508
0.290182
0.238007
0.260257
0.200471
0.317729
0.346897
0.368404
0.229631
0.317466
0.316074
0.332602
0.343902
0.291871
0.244884
0.289918
0.272646
0.327312
0.312626
0.303144
0.290158
0.274560
0.296754
0.298243
0.345964
0.328954
0.298052
0.286187
0.361634
0.348027
0.297955
0.295380
0.292993
0.284560
0.270419
0.334254
0.291487
0.292797
0.315245
0.324043
0.255106
