0.025729
0.028967
-0.020470
-0.006136
0.008487
0.020730
0.056299
-0.046586
0.032895
0.019083
0.062791
0.027357
0.119440
0.037558
-0.006002
-0.022588
-0.050713
0.041670
0.075404
0.095449
0.006690
0.103792
0.063002
0.025443
0.122021
0.012878
0.096184
0.115987
0.179496
0.084915
0.205199
0.151187
0.148503
0.242956
0.193612
0.225896
0.294092
0.254280
0.170360
0.197835
0.201433
0.246865
0.243145
0.154562
0.197455
0.219800
0.151916
0.206013
0.122622
0.118226
0.078079
0.138681
0.110832
0.103024
0.150497
0.031852
0.071152
0.045094
0.119488
0.080307
0.040440
0.050550
0.077935
0.046003
0.079512
0.001633
0.083848
0.065023
0.016443
0.044221
0.077790
0.054108
0.270586
0.489293
0.760724
1.067994
1.355337
1.464290
1.342107
1.045935
0.707653
0.372384
0.086483
-0.084761
-0.156117
-0.033136
-0.096991
0.029662
0.000758
0.030863
0.096255
0.130362
0.087168
0.061043
0.025367
0.073111
0.131722
0.248774
0.192258
0.050317
0.149213
0.242108
0.199484
0.158941
0.249776
0.268514
0.404824
0.267757
0.341525
0.425474
0.423099
0.352617
0.375684
0.553047
0.421071
0.387071
0.589864
0.525922
0.510446
0.583252
0.587477
0.544234
0.520877
0.514319
0.582945
0.524067
0.571905
0.591537
0.646341
0.529659
0.558067
0.604731
0.493043
0.443009
0.451279
0.501050
0.451099
0.445274
0.418552
0.423409
0.473184
0.345744
0.310763
0.353527
0.350184
0.313294
0.310806
0.332245
0.169589
0.212920
0.218548
0.219834
0.213757
0.141135
0.168948
0.138935
0.139077
0.263235
0.050760
0.122196
0.077341
0.158811
0.087251
0.099970
0.082060
0.054447
0.109245
0.155239
0.046021
0.099336
0.091920
0.108570
0.129930
0.139930
0.119044
0.072891
0.104443
0.137872
0.151139
0.147657
0.167556
0.120855
0.146751
0.059363
0.165810
0.160126
0.191920
0.115792
0.042763
0.055409
0.102333
0.054958
0.107983
0.078691
0.116283
0.033900
0.068994
0.150316
0.087981
0.005849
0.147861
0.024043
0.054117
0.123797
0.121160
0.116735
0.216822
0.120437
0.107809
0.044743
0.083376
0.127432
0.140083
0.109769
0.185870
0.186655
0.148004
0.102341
0.172191
0.188734
0.184899
0.119366
0.191129
0.176118
0.228743
0.207721
0.258816
0.273228
0.218321
0.261228
0.314908
0.256344
0.244248
0.224154
0.250313
0.178828
0.210118
0.222769
0.210472
0.155047
0.252925
0.186519
0.229374
0.173366
0.122355
0.149117
0.119443
0.144020
0.101283
0.055331
0.120553
0.115145
0.119353
0.074683
0.059802
-0.057402
0.125459
0.127418
0.050736
0.018023
0.036414
0.093758
0.094346
0.141591
0.211756
0.443202
0.532322
1.036669
1.253159
1.425954
1.409803
1.121772
0.888933
0.446683
0.149537
-0.159925
-0.184136
-0.217340
-0.140010
-0.039762
0.025573
0.069287
0.080390
0.162200
-0.010837
0.160513
0.092455
0.074368
0.073198
0.138032
0.133387
0.165717
0.215839
0.203616
0.239573
0.188451
0.349940
0.242315
0.335036
0.322730
0.246097
0.423084
0.350765
0.418631
0.365877
0.383066
0.300294
0.521948
0.523471
0.393924
0.572402
0.456525
0.574417
0.555542
0.548095
0.608934
0.534169
0.587485
0.625491
0.596373
0.542618
0.564158
0.582604
0.492013
0.486598
0.478560
0.533537
0.420281
0.429025
0.444930
0.366541
0.404275
0.426753
0.323140
0.374208
0.297495
0.291423
0.273602
0.245299
0.291484
0.188111
0.200261
0.093708
0.184894
0.095544
0.152037
0.119153
0.119358
0.080206
0.137210
0.109590
0.044207
0.124226
0.127913
-0.016831
0.000917
0.040175
0.087438
0.047907
0.082466
0.010922
0.040806
0.052602
0.007032
0.049793
0.031504
0.108228
0.133423
-0.031611
0.038678
0.004115
0.029935
0.116656
-0.021194
0.010239
0.048260
0.001836
-0.000908
0.068280
0.015667
0.022460
0.008409
0.093814
0.032616
0.104124
-0.021908
0.108873
0.027906
-0.032364
-0.010071
-0.024762
0.012172
-0.024633
0.046213
-0.033941
-0.010680
-0.002443
0.006490
0.083595
0.046667
0.041858
-0.049216
0.002470
-0.008345
0.130160
0.149111
-0.015365
0.099924
0.041802
0.053488
0.128317
0.058347
0.069306
0.105761
0.177003
0.155161
0.125982
0.148447
0.102067
0.085506
0.193553
0.201007
0.220350
0.068832
0.188833
0.179426
0.051847
0.147503
0.085175
0.066184
0.128012
0.083991
0.100606
0.122060
0.180394
0.130947
0.142862
0.083789
0.072846
0.003481
0.059962
0.000380
0.060159
0.032339
0.015928
-0.039891
0.080038
-0.067118
0.006509
0.035445
-0.048211
0.004163
0.026599
-0.065689
-0.010835
0.060638
0.056627
0.254759
0.503499
0.832332
1.084101
1.305161
1.264404
1.144019
0.913981
0.532581
0.162481
-0.142212
-0.193665
-0.222444
-0.157980
-0.142962
-0.094486
-0.053369
0.074950
-0.021722
0.022168
-0.002154
0.025554
0.066176
0.045325
0.061736
0.057524
0.075982
0.068946
0.106652
0.147695
0.153642
0.167395
0.184325
0.132713
0.178162
0.228615
0.281513
0.277554
0.243213
0.312824
0.349567
0.364356
0.375796
0.362581
0.469687
0.462016
0.447208
0.418217
0.437564
0.481423
0.432673
0.429844
0.481108
0.482480
0.483381
0.555697
0.463297
0.510536
0.458083
0.383841
0.404301
0.362042
0.414642
0.377976
0.268507
0.382089
0.292624
0.260043
0.346979
0.192163
0.244417
0.240362
0.222254
0.244978
0.117621
0.150381
0.133696
0.134916
0.107113
0.081924
0.024121
0.061338
0.035218
0.077449
0.015275
0.062158
0.092691
-0.050720
0.041490
0.000639
0.005887
-0.063537
-0.001571
-0.055518
-0.027028
-0.016633
-0.019281
-0.020121
-0.007020
-0.115773
-0.014029
-0.058542
-0.040249
-0.048502
-0.074757
-0.033161
-0.097171
-0.053410
0.001125
-0.063681
-0.026205
0.104549
-0.084472
-0.014968
-0.069708
0.026499
-0.044445
-0.091171
0.009470
-0.065710
-0.000082
-0.051572
-0.037835
-0.046077
-0.089369
-0.033457
-0.034755
-0.016212
-0.064405
-0.103293
-0.109199
0.071123
-0.010138
0.013738
0.061727
-0.070010
-0.056306
-0.069488
-0.034931
0.033490
-0.023625
0.010845
-0.044105
-0.105946
0.008103
0.115272
0.061715
-0.024740
0.025000
-0.032412
0.062510
0.063077
0.118023
0.171095
0.146798
0.098027
0.134840
0.067241
0.184229
0.175833
0.238547
0.183981
0.196364
0.220154
0.127515
0.036553
0.175551
0.102827
0.077991
0.098837
0.046277
0.085110
0.005535
0.034694
0.014679
0.061041
0.016386
0.030247
-0.088485
-0.006558
-0.004584
0.003250
-0.138904
0.005698
-0.037677
-0.073190
-0.063091
-0.051547
-0.025508
-0.092535
0.063642
0.003276
0.194208
0.492387
0.720803
1.009452
1.259689
1.331967
1.269216
1.016555
0.622453
0.260504
-0.009818
-0.206893
-0.164064
-0.225845
-0.062616
-0.044445
-0.043968
-0.054114
0.006197
0.044135
0.066767
-0.034520
0.100373
0.065142
0.031774
0.082977
0.085524
0.091664
0.175850
0.180183
0.130184
0.176521
0.247296
0.228639
0.217416
0.198836
0.270123
0.310566
0.339383
0.352266
0.338862
0.423645
0.425271
0.419824
0.455927
0.461553
0.412267
0.431757
0.475526
0.453044
0.500195
0.505708
0.558525
0.539666
0.535383
0.512853
0.516511
0.547253
0.486757
0.420601
0.575803
0.468832
0.492774
0.399152
0.428807
0.402241
0.375370
0.373263
0.363383
0.270742
0.296530
0.303643
0.192293
0.184838
0.179083
0.172148
0.155920
0.172803
0.106204
0.122094
0.126302
0.177101
0.047019
0.112518
0.115802
0.050910
-0.066233
0.021773
0.038782
0.037424
0.069414
0.061096
0.059222
0.089990
-0.022555
0.038102
0.031535
0.034982
0.123066
0.077016
0.048092
-0.013680
0.017311
0.010547
0.002878
0.001377
-0.037656
-0.032895
0.036181
0.034097
-0.025644
0.022354
0.061580
0.110009
0.004451
-0.046723
-0.008451
0.005251
0.056313
0.047022
0.003633
0.021620
0.050601
0.050895
-0.002166
0.121864
0.069530
0.053393
0.073697
0.062643
0.077740
0.055840
0.034399
0.091538
0.160800
0.061439
0.042520
0.102142
0.068286
0.161316
0.088413
0.138478
0.100539
0.100085
0.153583
0.072347
0.214700
0.195589
0.136337
0.196198
0.184015
0.173821
0.270674
0.126727
0.287914
0.151444
0.267745
0.194610
0.165499
0.350446
0.249047
0.214790
0.193606
0.258706
0.206647
0.243658
0.141555
0.236788
0.153217
0.126879
0.147506
0.151931
0.170136
0.080597
0.195657
0.159512
0.141698
0.082974
0.132611
0.109824
0.100000
0.085424
0.051182
0.105758
0.029439
0.070470
0.061737
0.087116
-0.012663
0.009191
0.074273
0.081925
0.186058
0.372376
0.722986
1.032710
1.253360
1.500000
1.392859
1.266927
0.847996
0.430603
0.171504
-0.109310
-0.236365
-0.103063
-0.073140
-0.065294
-0.017224
0.077183
0.113051
0.110082
0.108690
0.164030
0.139593
0.073454
0.116871
0.173854
0.205941
0.273919
0.157322
0.243179
0.241629
0.262811
0.287955
0.244046
0.333229
0.286636
0.372116
0.309197
0.378026
0.395488
0.408715
0.462201
0.485788
0.476405
0.511389
0.523392
0.626360
0.643336
0.562346
0.617712
0.537509
0.601173
0.567531
0.580892
0.622813
0.652480
0.578289
0.601135
0.585542
0.586760
0.565955
0.462825
0.527350
0.542437
0.552099
0.479829
0.443017
0.461569
0.506801
0.348921
0.378802
0.387825
0.388560
0.376812
0.284545
0.256970
0.321491
0.234815
0.263682
0.190005
0.105951
0.142275
0.139886
0.154358
0.183974
0.056118
0.166469
0.103397
0.148051
0.113227
0.116098
0.140767
0.117904
0.220466
0.095450
0.051948
0.085504
0.155895
0.062897
0.105650
0.101253
0.066280
0.080871
0.177995
0.099278
0.112773
0.108263
0.090749
0.081921
0.122777
0.078203
0.137798
0.067200
0.131688
0.123009
0.180571
0.104361
0.089529
0.201512
0.087378
0.118315
0.130811
0.089078
0.102647
0.044589
0.016436
0.025368
0.003368
0.058258
0.102169
0.041720
0.055092
0.175473
0.097176
0.110576
0.117518
0.098073
0.069715
0.081858
0.157568
0.100235
0.125444
0.164472
0.139014
0.209055
0.151468
0.207918
0.176180
0.199409
0.192587
0.200143
0.292400
0.259578
0.143744
0.260145
0.227630
0.214047
0.295350
0.302620
0.263425
0.234204
0.248697
0.192464
0.131214
0.197623
0.195964
0.218446
0.152628
0.246789
0.198054
0.184147
0.071294
0.205881
0.110073
0.098774
0.130160
0.088244
0.162282
0.059634
0.143924
0.117837
0.166366
0.062141
-0.008826
0.132247
0.062649
0.099898
0.004857
-0.009687
0.082418
0.130163
0.055164
0.185195
0.338447
0.600942
0.949354
1.245274
1.445694
1.446213
1.228970
0.880011
0.539901
0.283361
-0.013909
-0.205592
-0.135720
-0.084201
-0.037371
0.050681
0.034818
0.043758
0.180925
0.035487
0.135484
0.142207
0.142589
0.078111
0.170794
0.150667
0.170543
0.180628
0.164184
0.193254
0.243996
0.259936
0.343160
0.211965
0.264484
0.312050
0.286619
0.335005
0.418917
0.349084
0.450149
0.411779
0.440990
0.466805
0.517490
0.429466
0.575300
0.491000
0.505225
0.576037
0.565102
0.588736
0.495237
0.526841
0.533894
0.576041
0.508380
0.626636
0.511956
0.535606
0.457221
0.499402
0.492035
0.455453
0.457565
0.449329
0.345338
0.388771
0.367404
0.360566
0.286646
0.372712
0.248632
0.277932
0.250477
0.265165
0.195319
0.202910
0.214732
0.117817
0.141801
0.178776
0.094323
0.036429
0.089643
0.103989
0.071190
0.073046
0.020321
-0.104909
0.056982
0.006042
-0.030328
-0.003764
-0.020537
0.019261
-0.021377
-0.036739
0.035240
0.016320
0.037435
0.111424
0.009752
0.027102
0.027894
0.062702
-0.024195
-0.005599
-0.001715
-0.059079
0.018666
0.011997
0.041855
-0.067833
0.071273
-0.009296
0.006096
-0.049334
-0.041288
0.000820
-0.021145
-0.064307
-0.033233
-0.038132
-0.044603
-0.092213
0.011967
0.048824
0.042760
0.005799
-0.058926
0.034062
-0.024861
-0.026211
0.041865
-0.032407
-0.032159
0.081180
0.001211
0.014911
0.073122
0.008581
0.069016
0.035644
0.004860
0.046902
0.122242
-0.019804
0.045015
0.115513
0.138603
0.147743
0.120699
0.230165
0.098168
0.193099
0.159018
0.202694
0.113646
0.132756
0.111774
0.063967
0.139696
0.152520
0.018477
0.117791
0.066429
0.097169
0.084076
0.096189
0.045382
-0.053689
-0.000081
0.073700
0.089185
0.036205
-0.045000
-0.061251
0.016900
-0.029855
-0.039902
0.052594
-0.102784
-0.032547
-0.046898
-0.014883
-0.079252
-0.032384
-0.092673
-0.102122
-0.118507
-0.007500
0.144238
0.388942
0.726320
1.128858
1.246014
1.393557
1.251217
0.889834
0.570044
0.164217
-0.085626
-0.289522
-0.281276
-0.233135
-0.216660
-0.163754
0.041270
-0.100504
-0.055327
-0.099667
-0.010407
0.027177
0.032564
-0.016652
0.037432
0.053668
0.087936
0.040084
0.107574
0.047179
0.050403
0.087730
0.131880
0.189264
0.105313
0.156638
0.134770
0.076270
0.247540
0.323189
0.233579
0.313519
0.366452
0.449340
0.356722
0.326597
0.425318
0.337459
0.496943
0.441538
0.456391
0.422780
0.455021
0.356922
0.424308
0.405531
0.403213
0.403558
0.337319
0.350145
0.372099
0.320231
0.302232
0.261682
0.353914
0.283667
0.279340
0.215081
0.188666
0.214815
0.218084
0.149568
0.228155
0.158655
0.096269
0.129436
0.132095
0.051018
0.085018
0.098271
0.087550
0.016363
0.057388
0.002110
0.019878
-0.007080
-0.000344
-0.083595
-0.005317
-0.052049
-0.044284
-0.017945
-0.069070
-0.143006
-0.059098
-0.140495
0.004987
-0.107391
-0.137290
0.013020
-0.152573
-0.103717
-0.018138
-0.051205
-0.106732
-0.104317
-0.100182
-0.069619
-0.110985
-0.108749
-0.045898
-0.065219
-0.133186
0.002539
-0.109881
-0.107370
-0.069190
-0.111956
-0.068780
-0.160384
-0.078677
-0.039315
-0.119201
-0.122590
-0.119102
-0.056295
-0.030387
-0.033623
-0.051972
-0.123313
-0.055952
-0.089090
-0.061430
-0.058415
-0.001372
-0.144169
0.008893
-0.056777
-0.068857
-0.069258
-0.064320
0.031255
-0.075961
-0.091439
0.015513
-0.030488
0.033735
0.041728
0.064732
0.009506
0.039592
0.015131
0.067719
0.047576
0.100207
0.034734
0.106043
0.178965
0.068783
0.094785
0.107622
0.185430
0.094758
0.081354
0.126381
0.004842
0.067739
0.076829
0.060168
-0.014489
-0.045359
0.110902
-0.035934
-0.015589
-0.011979
0.013042
-0.051443
-0.027348
-0.074176
-0.022914
-0.035806
0.016255
-0.098141
-0.030549
-0.120332
-0.098052
0.002689
-0.104057
-0.028199
-0.090581
-0.099266
0.013935
0.153890
0.294563
0.579081
0.962030
1.144599
1.283285
1.158713
1.041611
0.662320
0.269606
-0.113184
-0.240526
-0.222561
-0.310458
-0.208682
-0.153211
-0.152576
-0.027168
-0.039678
-0.028953
-0.017447
-0.018036
-0.015761
0.014819
0.006664
0.009331
0.092639
0.107912
0.051717
0.155425
0.099123
0.137480
0.232401
0.116776
0.173713
0.137312
0.257866
0.242774
0.267320
0.265290
0.404954
0.307184
0.423014
0.492651
0.471276
0.382606
0.390650
0.415416
0.485332
0.357191
0.429907
0.432431
0.455146
0.387313
0.444021
0.460388
0.435548
0.428572
0.475766
0.461050
0.416145
0.408995
0.419426
0.479685
0.395656
0.274770
0.287738
0.337945
0.287833
0.284641
0.211594
0.260150
0.142128
0.226391
0.175523
0.212623
0.130141
0.118976
0.036612
0.132407
0.090101
0.121947
0.093327
0.076177
0.007021
-0.005151
-0.050752
0.021147
-0.023277
0.059444
-0.035741
0.028937
-0.004953
-0.014301
-0.035769
-0.024238
-0.098659
-0.078066
-0.096065
0.027003
-0.004669
0.022882
-0.042952
-0.003717
-0.072413
-0.028153
-0.029259
-0.006813
0.043643
0.005478
-0.061887
-0.013006
0.029320
-0.072762
-0.041692
-0.102957
-0.103881
-0.060833
0.032349
-0.077497
0.048816
-0.004412
0.024816
0.048344
-0.004365
-0.023365
0.017708
0.013256
0.025260
-0.006287
-0.016507
0.066412
-0.017728
-0.087768
0.004052
0.002647
0.025524
0.005507
0.015681
0.041631
0.017858
0.081572
0.021205
0.076020
0.037958
0.171907
0.113960
0.144253
0.081341
0.044689
0.151694
0.056398
0.172412
0.204048
0.188043
0.227738
0.214145
0.164289
0.109100
0.239907
0.197045
0.202302
0.291742
0.138825
0.221522
0.137076
0.138068
0.071603
0.187327
0.162929
0.119500
0.017449
0.040502
0.059467
0.031433
-0.013006
0.112684
0.032732
-0.020055
0.086132
0.008837
0.001223
0.001539
0.064663
0.071119
0.101558
-0.042780
0.044689
-0.059345
0.033951
0.010530
0.016803
0.187367
0.319135
0.575111
0.897261
1.252189
1.482471
1.412515
1.209271
0.879587
0.440073
0.105965
-0.074422
-0.202511
-0.153808
-0.132079
-0.024586
-0.008324
-0.056578
0.089124
0.072585
0.045232
0.025396
0.086412
0.091001
0.060836
0.059259
0.189418
0.179230
0.112935
0.139747
0.203982
0.246173
0.172012
0.239608
0.250862
0.325942
0.288309
0.402813
0.308233
0.292183
0.339365
0.415278
0.387937
0.547479
0.411183
0.432111
0.536843
0.512904
0.493862
0.473377
0.456469
0.559102
0.516576
0.507823
0.593221
0.566309
0.519670
0.477511
0.483101
0.471711
0.511810
0.563157
0.443827
0.498347
0.465763
0.500198
0.355019
0.411095
0.414473
0.274671
0.372958
0.341826
0.252096
0.284408
0.250215
0.188872
0.212114
0.258249
0.206304
0.205616
0.148290
0.137546
0.093270
0.111724
0.132880
0.124152
0.115157
0.062334
0.116224
-0.057200
0.075359
0.130652
0.039814
0.041542
0.049877
0.084040
0.078863
0.060083
0.004938
-0.006783
0.133229
0.072887
0.084144
0.073125
0.039294
-0.031923
0.039770
0.076072
0.015940
0.082606
0.083295
0.017208
0.143823
0.008525
0.148544
0.105947
-0.014211
0.021690
0.017206
0.074694
0.104955
-0.004606
0.059358
0.034317
0.001438
0.052984
0.000900
0.037140
0.041325
-0.005021
-0.035398
-0.013887
0.045650
0.107052
0.056229
0.039720
0.045338
0.040367
0.020745
0.052555
0.054721
0.089653
0.056757
0.092347
0.068208
0.093073
0.115385
0.101594
0.070275
0.102750
0.100273
0.151088
0.131906
0.160556
0.196734
0.226897
0.058806
0.281611
0.203719
0.180158
0.250487
0.109148
0.207435
0.162357
0.203674
0.157162
0.192923
0.157486
0.139403
0.192681
0.055437
0.132366
0.135358
0.128443
0.131315
0.013526
0.061041
0.107054
0.007091
0.027519
0.000394
0.145977
-0.019652
0.065519
0.031362
-0.012788
-0.002185
0.071120
0.041435
-0.018017
-0.028278
-0.000914
0.070366
0.285266
0.503436
0.770041
1.171068
1.402007
1.417605
1.276356
0.983239
0.637541
0.265597
-0.074595
-0.228361
-0.233230
-0.160072
-0.100884
-0.063164
-0.009839
0.085770
0.012863
0.081440
0.058933
-0.025514
0.073198
0.108208
0.096488
0.057867
0.068562
0.035939
0.107921
0.187922
0.247686
0.249286
0.175637
0.320132
0.258959
0.215838
0.242396
0.304583
0.284536
0.353942
0.290199
0.431614
0.459980
0.376895
0.382181
0.505900
0.512930
0.501773
0.492682
0.500597
0.511282
0.543079
0.523307
0.501978
0.522272
0.561348
0.500726
0.453962
0.434284
0.515656
0.459037
0.400926
0.450320
0.452014
0.367401
0.371468
0.310573
0.335482
0.281979
0.269055
0.214172
0.150371
0.229550
0.184289
0.244311
0.122902
0.117213
0.061496
0.073430
0.110195
0.105449
0.029118
0.089097
0.070282
0.040227
0.013333
0.032146
-0.036585
0.035573
-0.016350
-0.043125
-0.112485
-0.058127
0.011505
0.065425
-0.028535
-0.050690
-0.070151
-0.115591
0.070810
0.059344
0.038219
-0.003433
-0.021652
-0.033570
-0.039163
-0.060779
-0.003994
-0.004172
0.006369
-0.035172
-0.008426
-0.062894
-0.043132
0.003100
-0.025143
-0.070791
-0.137143
-0.043908
0.005216
-0.061476
-0.088509
-0.059242
-0.013981
-0.117029
-0.050319
-0.085921
-0.048903
-0.006018
-0.073448
-0.055441
0.018823
-0.005655
-0.050433
-0.070580
-0.031745
-0.073635
-0.075345
-0.068822
-0.029052
0.008532
0.018548
-0.031411
0.006548
0.006386
0.073633
0.001389
0.006999
-0.005280
0.005872
0.024195
0.103424
0.114523
0.105778
0.053949
0.058341
0.092954
0.108649
0.176519
0.134108
0.006154
0.076201
0.106518
0.026366
0.070753
0.096433
0.044848
0.051471
-0.069759
0.085832
0.055210
0.010742
-0.050816
-0.003620
-0.032646
-0.013804
0.064314
0.035385
-0.014687
-0.068790
-0.098742
-0.060145
-0.026120
-0.058751
-0.086833
-0.091806
-0.030111
-0.092385
-0.148639
-0.180038
-0.183303
-0.066650
0.042994
0.294184
0.603256
1.024124
1.250946
1.350576
1.306138
0.940191
0.585109
0.279546
-0.031602
-0.268271
-0.352144
-0.284244
-0.246204
-0.112106
-0.155940
-0.107029
-0.071481
-0.067211
-0.107093
-0.071055
-0.055080
0.019324
-0.066137
0.018595
-0.024314
-0.015274
0.012406
0.046061
0.137293
0.014848
0.114332
0.022038
0.182304
0.199763
0.128531
0.094509
0.154499
0.261600
0.293675
0.290250
0.288059
0.311176
0.334053
0.316884
0.460199
0.297038
0.474438
0.397656
0.409487
0.417801
0.446767
0.396001
0.382171
0.449505
0.456788
0.389251
0.431271
0.291413
0.278342
0.344496
0.353721
0.354965
0.306411
0.334072
0.289184
0.277102
0.174862
0.211857
0.176833
0.202771
0.140440
0.172729
0.069611
0.044625
0.092401
-0.040455
-0.059195
-0.053761
-0.014738
-0.000518
-0.030748
0.038979
-0.038358
-0.052418
-0.089830
-0.061020
-0.105244
-0.058675
0.011143
-0.059991
-0.092117
-0.090490
-0.064210
-0.053738
-0.090320
-0.074573
-0.065741
-0.251151
-0.065296
-0.132321
-0.086700
-0.096726
-0.115092
-0.122912
-0.073800
-0.117925
-0.111575
-0.120665
-0.072847
-0.079161
-0.152866
-0.112616
-0.059730
-0.088119
-0.090616
-0.102441
-0.108234
-0.067019
-0.147122
-0.080368
-0.068457
-0.176515
-0.134366
-0.072588
-0.077852
-0.141929
-0.128192
-0.087554
-0.098823
-0.072428
-0.145669
0.013681
-0.193156
0.018965
-0.196186
-0.114315
-0.088208
-0.094216
-0.072035
-0.012497
-0.101448
-0.107378
-0.018217
-0.017733
0.098219
0.033941
-0.027379
0.061030
0.065636
0.001859
0.055316
0.052329
0.133156
0.074218
0.028541
0.115321
0.116006
0.161069
0.063752
0.106995
0.154490
0.069120
0.033154
0.100512
0.135828
0.012714
0.034668
0.075356
0.042362
0.048188
-0.022849
-0.025737
-0.071450
-0.013958
-0.038729
0.008930
-0.125701
-0.128398
-0.007863
-0.031892
0.001147
0.010701
-0.077939
-0.055453
-0.042991
-0.134423
-0.112309
-0.088114
-0.136349
-0.070675
0.038535
0.228074
0.470711
0.846351
1.193204
1.225191
1.340098
1.052061
0.804778
0.358225
0.050174
-0.245189
-0.251690
-0.257705
-0.134822
-0.098238
-0.065225
-0.108323
-0.026550
-0.099809
-0.020813
0.010348
0.052533
0.033700
0.107735
0.040232
0.018098
0.049520
-0.000836
0.172545
0.081611
0.071357
0.193940
0.114968
0.222196
0.112053
0.221477
0.233756
0.274266
0.258277
0.269228
0.291955
0.433574
0.338247
0.439356
0.396070
0.441426
0.360263
0.480596
0.448369
0.433201
0.445905
0.449462
0.428576
0.445065
0.500115
0.450469
0.471819
0.483255
0.410538
0.420772
0.373735
0.416407
0.355494
0.477492
0.416648
0.302890
0.328594
0.340770
0.266656
0.206217
0.183612
0.217189
0.197025
0.115760
0.126471
0.122665
0.096483
0.210891
0.118866
0.106714
-0.007312
0.050943
0.072163
0.025357
0.039212
0.025248
0.004858
0.036111
0.017600
0.025525
0.058147
0.027559
0.057876
-0.011031
-0.077629
-0.020530
-0.031806
-0.028361
-0.029562
-0.000937
0.050926
0.031482
0.017245
0.024149
-0.003537
0.095236
0.003103
-0.046031
0.019455
0.068083
0.029945
0.045432
-0.077393
-0.014893
0.060493
-0.034067
0.082076
-0.040933
0.054936
-0.029231
-0.030994
0.067873
0.024672
-0.044372
-0.036368
0.061539
0.022783
0.067784
0.039882
-0.061298
0.006124
0.015631
0.030908
-0.025414
0.043104
0.023218
0.059201
0.071216
0.022265
0.044325
0.112482
0.057065
0.011220
0.151743
0.063317
0.118441
0.111005
0.128290
0.136368
0.145731
0.141325
0.154103
0.151811
0.203903
0.282561
0.196842
0.273923
0.254737
0.186405
0.252246
0.160234
0.248662
0.271063
0.208448
0.215861
0.176897
0.120771
0.164978
0.145507
0.123188
0.176721
0.129933
0.117815
0.008812
0.054790
0.151118
0.048387
0.084426
0.082413
0.144359
0.018961
0.016323
0.115178
0.099905
-0.008600
0.064068
0.037794
0.077831
0.061537
-0.044599
0.105557
0.146560
0.360291
0.492808
0.850087
1.257444
1.387546
1.391928
1.267349
1.091007
0.600660
0.312959
-0.021303
-0.085635
-0.199060
-0.062299
-0.067377
0.024170
0.120920
0.039817
0.019396
0.127067
-0.005087
0.079365
0.075501
0.085308
0.143967
0.172004
0.275090
0.285173
0.146762
0.194470
0.215073
0.204055
0.230632
0.323665
0.211818
0.286047
0.287909
0.375720
0.346113
0.408906
0.392782
0.469449
0.522466
0.450952
0.550643
0.546541
0.550683
0.582874
0.512005
0.615377
0.525407
0.529763
0.520905
0.595513
0.582368
0.504456
0.525677
0.597710
0.536821
0.570547
0.481587
0.550925
0.514680
0.508329
0.402325
0.393950
0.426642
0.401405
0.390214
0.437826
0.303321
0.368230
0.390236
0.339659
0.275299
0.168334
0.225833
0.225244
0.296113
0.113418
0.167832
0.110162
0.090323
0.126297
0.119993
-0.009904
0.123833
0.130627
0.105403
0.201729
0.095916
0.109714
0.094839
0.056800
0.078803
0.033826
0.126209
0.057844
0.138647
0.161900
0.065086
0.035078
0.039191
0.077471
0.074490
0.196780
-0.017606
0.079785
0.152194
0.126219
0.077738
0.044542
0.110992
0.022219
0.120903
0.040872
0.072866
0.060017
0.075911
0.057382
