-0.032822
-0.050550
-0.065684
-0.028015
-0.086652
0.058869
-0.043058
0.067000
-0.016062
-0.013328
-0.013906
-0.021905
0.005706
-0.078390
0.027630
0.071766
0.011255
0.050646
0.032626
0.031452
0.074553
0.048603
-0.045776
0.056967
-0.003468
0.011289
-0.009122
0.045482
0.055345
0.014005
0.014626
0.106098
0.163346
0.017867
0.131281
0.143527
0.138204
0.123201
0.158505
0.193500
0.128307
0.184237
0.220073
0.175144
0.260388
0.234809
0.253178
0.142232
0.211704
0.190622
0.148623
0.200658
0.173651
0.139772
0.099101
0.168262
0.147738
0.147919
0.116389
0.227006
0.098360
0.039573
0.128068
0.109362
0.142880
0.070016
-0.012133
0.086691
-0.018634
-0.002626
0.097777
0.086200
0.031873
0.075832
0.059870
0.048590
0.097020
0.122282
0.071417
0.095641
0.024086
0.002788
-0.000885
-0.015748
0.083376
0.061808
0.222900
0.516896
0.829553
1.034591
1.418171
1.493207
1.458234
1.100992
0.799693
0.382282
0.127586
-0.063552
-0.303367
-0.217108
-0.121462
-0.126647
-0.016691
0.047451
0.065970
0.050504
0.005653
0.070680
0.035169
0.084558
0.104588
0.104401
0.079718
0.084076
0.104679
0.130845
0.131901
0.108344
0.197862
0.115543
0.127249
0.231240
0.200388
0.102812
0.201166
0.275643
0.267937
0.258558
0.318661
0.273232
0.309758
0.363065
0.365541
0.476828
0.434826
0.440308
0.464709
0.434284
0.530182
0.577749
0.518453
0.590178
0.533907
0.604163
0.589604
0.598449
0.536057
0.679595
0.713075
0.488686
0.560153
0.634340
0.567085
0.541763
0.518891
0.546480
0.583178
0.529466
0.447694
0.372505
0.418618
0.456757
0.430610
0.405555
0.409236
0.391919
0.322952
0.352141
0.374666
0.302649
0.231229
0.235028
0.243901
0.267053
0.206250
0.246915
0.265585
0.155126
0.137673
0.108227
0.083296
0.174248
0.092693
0.163160
0.202014
0.070771
0.049431
0.110581
0.073593
0.059543
0.072976
0.129625
0.154059
0.105216
0.152832
0.030730
0.099095
0.067928
0.048918
0.100814
0.082735
0.100687
0.047079
0.118260
0.138003
0.158743
0.126113
0.074768
0.076868
0.075836
0.041418
0.021627
0.048604
0.031757
0.062313
0.054427
0.008452
0.121068
0.207043
0.146624
0.083458
0.097473
0.106391
0.037423
0.056186
0.147606
0.116316
0.066931
0.025091
0.088804
-0.040107
0.106790
0.115441
0.123231
0.075882
0.174559
0.106642
0.088051
0.073243
0.143432
0.065828
0.117355
0.089247
0.013999
0.059848
0.077572
0.140948
0.124670
-0.011527
0.085611
0.067918
0.099065
0.101814
0.168548
0.108749
0.128514
0.034398
0.173008
0.050758
0.155215
0.121519
0.226210
0.099534
0.198775
0.162088
0.205338
0.181952
0.323870
0.192605
0.255090
0.316063
0.168851
0.349641
0.269123
0.253957
0.249209
0.235876
0.308920
0.187195
0.193112
0.228995
0.263389
0.131804
0.192147
0.147839
0.230594
0.114797
0.067030
0.182076
0.081832
0.147088
0.092121
0.094935
0.003417
0.064017
0.088817
0.048102
0.037102
0.114532
0.106891
0.173259
0.047798
0.037536
0.079644
0.103543
0.010568
0.084463
0.028385
0.093252
0.028532
0.185396
0.021793
0.055724
0.125421
0.458210
0.773023
1.047900
1.357895
1.448530
1.426271
1.242564
0.887325
0.453328
0.240589
0.023862
-0.218055
-0.241336
-0.214884
-0.126210
-0.136277
0.008400
0.046107
0.009423
0.012952
-0.005876
0.096240
0.061850
0.076355
0.034829
0.024206
0.037485
0.023213
0.044902
0.167825
0.121803
0.118823
0.106496
0.167350
0.040990
0.214539
0.186618
0.168466
0.171744
0.210540
0.295572
0.357920
0.359590
0.225590
0.355201
0.351122
0.440469
0.371394
0.357299
0.376102
0.472780
0.475391
0.493492
0.437369
0.503684
0.461092
0.471243
0.566174
0.518533
0.499827
0.534506
0.534237
0.523088
0.553798
0.477510
0.538372
0.422033
0.542563
0.559227
0.523206
0.359417
0.378900
0.467986
0.378476
0.367152
0.349339
0.383902
0.236745
0.357153
0.247108
0.265516
0.207855
0.191571
0.188627
0.224196
0.188945
0.150494
0.161086
0.039201
0.067396
0.143247
0.010655
0.113835
0.176371
0.076460
0.008414
0.027982
0.038011
0.077634
0.007973
-0.012885
0.015210
0.000863
0.004745
-0.024760
-0.002653
-0.003608
-0.007939
-0.046225
-0.103050
0.030537
0.070367
0.094365
-0.002928
0.000793
-0.009549
0.027337
0.005050
-0.030656
-0.007085
-0.107837
-0.001983
0.010882
0.022089
-0.040838
-0.078930
0.040360
-0.033827
-0.054542
0.019317
-0.009495
-0.001428
-0.030925
-0.058815
0.070805
-0.040333
0.031089
-0.011203
-0.056585
0.004556
-0.016803
-0.039857
-0.047899
0.011242
-0.046808
-0.164424
-0.029238
-0.046320
-0.071101
-0.026377
0.034187
-0.073778
-0.058611
0.012901
0.007640
-0.030464
0.082990
-0.049643
0.027481
0.024045
-0.020712
-0.079863
0.006002
-0.029003
-0.065781
0.075634
-0.030674
0.003545
0.033335
0.057325
0.042785
0.032981
0.069915
-0.054428
0.077898
0.111679
0.134003
0.066169
0.083942
0.060304
0.136833
0.079637
0.119757
0.205368
0.079201
0.187152
0.154189
0.143986
0.129422
0.175515
0.150307
0.135022
0.095545
0.183942
0.051794
0.084618
0.110307
0.049866
-0.028601
0.018767
0.044760
0.022752
-0.031175
-0.024517
0.042424
0.023968
-0.031102
-0.009173
-0.076926
-0.038692
-0.047959
0.033710
-0.067737
-0.081117
-0.108441
-0.035258
-0.067783
-0.032772
-0.135255
-0.002910
-0.046663
-0.069913
-0.074731
-0.130216
-0.092004
-0.043389
0.015034
0.233952
0.519009
0.823497
1.133557
1.301773
1.364094
1.214088
0.830431
0.545414
0.175662
-0.090232
-0.239294
-0.374612
-0.302051
-0.246681
-0.211080
-0.094531
-0.072326
-0.054540
-0.026484
-0.033909
0.002647
-0.009139
-0.073096
-0.014147
-0.136502
0.034095
-0.030170
0.043758
0.066700
-0.017728
-0.063061
-0.008299
0.010490
0.068501
-0.013873
0.083356
0.060812
0.049481
0.094844
0.105900
0.245613
0.191363
0.220465
0.230079
0.264635
0.262025
0.342788
0.328286
0.371191
0.340630
0.310330
0.410664
0.413461
0.467478
0.464380
0.411648
0.496533
0.450782
0.476752
0.386993
0.428220
0.502471
0.576146
0.522436
0.453577
0.439458
0.499205
0.393416
0.407730
0.416362
0.396406
0.363459
0.273611
0.228047
0.350617
0.265062
0.269517
0.332548
0.263516
0.141013
0.136265
0.130320
0.144599
0.160785
0.125047
0.113849
0.013995
0.049803
0.116576
0.092536
0.017240
0.064190
-0.012315
0.061582
0.051436
-0.053096
-0.008834
-0.030735
0.033447
-0.002940
0.033021
-0.012708
0.005119
0.037918
-0.001518
-0.016749
0.117478
0.068526
0.009852
-0.017861
0.058018
-0.019018
0.034220
-0.099723
-0.085779
-0.105601
-0.002592
0.013020
-0.077561
0.007705
-0.078342
-0.027647
-0.045900
-0.032381
-0.017889
0.015040
-0.082287
-0.042153
-0.008790
-0.023484
-0.044278
-0.015881
0.040295
-0.029122
-0.031831
-0.045330
-0.078796
0.027809
-0.072077
-0.016916
0.007952
-0.003727
-0.040185
-0.000754
-0.100152
-0.041325
-0.007294
-0.010602
0.008460
-0.020647
0.032580
-0.015318
-0.031951
0.047719
0.070661
0.013341
0.021507
-0.039177
-0.059648
0.030892
0.085111
-0.046611
0.014156
-0.021645
0.052533
0.032708
0.047587
0.035057
0.001539
0.031116
0.066131
0.038716
0.083110
0.130568
0.067117
0.132183
0.148806
0.200004
0.104572
0.171861
0.138034
0.157164
0.191447
0.181981
0.236644
0.179709
0.165726
0.182438
0.186748
0.215592
0.198108
0.159344
0.235576
0.247584
0.139150
0.031756
0.066902
0.060233
0.086420
0.088672
0.106110
0.121134
0.015058
0.053171
0.091542
0.011865
-0.013732
0.114704
0.165962
0.043253
0.016657
0.022566
0.061765
0.033572
0.031427
0.041505
-0.001653
0.052036
-0.028507
0.082489
0.034768
-0.052699
-0.000101
-0.048129
0.054059
0.037277
0.222777
0.543269
0.855588
1.202529
1.378611
1.500000
1.328466
1.107408
0.736704
0.315830
0.024934
-0.169880
-0.257552
-0.248570
-0.164430
-0.065382
0.007543
0.090449
0.032474
0.072731
0.071894
0.093061
0.096716
0.093175
0.057642
0.127204
0.081377
0.073446
0.052318
0.101002
0.119749
0.061105
0.123256
0.114906
0.148865
0.122556
0.246651
0.181607
0.270067
0.211505
0.214805
0.157244
0.273560
0.299886
0.287551
0.322910
0.387067
0.344465
0.414776
0.422042
0.369618
0.439973
0.498338
0.502924
0.550554
0.522771
0.540454
0.550918
0.552049
0.648120
0.510427
0.610221
0.632370
0.613894
0.547844
0.616162
0.612654
0.585952
0.529109
0.510202
0.576850
0.488434
0.512482
0.492634
0.470623
0.340358
0.339193
0.301161
0.432112
0.317122
0.429673
0.338188
0.287403
0.244530
0.257812
0.233603
0.238184
0.159642
0.153000
0.169778
0.147000
0.178791
0.153141
0.177315
0.157216
0.061419
0.089429
0.125153
0.148533
0.113747
0.065918
0.051933
0.134421
0.096513
0.099176
0.094925
0.130845
0.158888
0.053222
0.078223
0.074090
0.018702
0.056879
0.037071
0.057857
0.129111
0.066087
0.063845
0.042608
0.105309
0.063837
0.185841
0.066289
0.078843
0.114095
0.124054
0.102310
0.086249
0.075537
0.069232
0.148310
0.091883
0.010095
0.024667
0.046798
-0.026857
0.130748
0.077972
0.188823
0.142242
0.116174
0.063566
0.071873
0.032644
0.108059
0.144850
0.131488
0.104713
0.079761
0.047474
0.070615
0.142619
0.073612
0.079403
0.093676
0.100109
0.123222
0.119743
0.161940
0.081896
0.129285
0.090876
0.073398
0.111038
0.141154
0.057575
0.125325
0.108503
0.106159
0.178988
0.090193
0.120534
0.199773
0.200150
0.215331
0.181753
0.244280
0.242412
0.178517
0.301390
0.209794
0.238834
0.233677
0.243095
0.294280
0.254941
0.258615
0.263308
0.292413
0.196755
0.375244
0.284525
0.259288
0.188655
0.259000
0.218921
0.272367
0.213914
0.144676
0.166802
0.161618
0.243861
0.110027
0.167852
0.150537
-0.044032
0.153095
0.189047
0.116887
0.094232
0.079963
0.116678
0.082562
0.074669
0.124348
0.039119
0.122290
0.030412
0.121350
0.115914
0.105007
0.059110
0.041376
0.105344
0.011828
0.032915
0.118240
0.225689
0.450978
0.698641
1.116328
1.462059
1.489426
1.452882
1.177907
0.917454
0.467274
0.205917
-0.034504
-0.184127
-0.112806
-0.177107
-0.080601
-0.049631
-0.030431
0.073543
0.032011
0.067904
0.048497
0.152503
0.135008
0.139116
0.049695
0.050963
0.191642
0.004453
0.207658
0.140778
0.159840
0.124716
0.130882
0.167426
0.285146
0.251177
0.255905
0.199845
0.293257
0.272166
0.220740
0.273861
0.311930
0.337849
0.360353
0.449325
0.392146
0.446121
0.436158
0.455327
0.445860
0.601319
0.478092
0.544221
0.508700
0.562818
0.562337
0.550243
0.635307
0.556000
0.625144
0.533023
0.598009
0.573423
0.608537
0.564951
0.569107
0.548212
0.485641
0.519002
0.447766
0.432283
0.431533
0.441846
0.421976
0.308006
0.437531
0.223293
0.266211
0.305216
0.266964
0.223381
0.249890
0.244902
0.262812
0.194599
0.226813
0.102516
0.234753
0.133049
0.127599
0.114253
0.081938
0.110921
0.047159
0.042706
0.044076
0.090628
0.016730
-0.011138
0.090538
0.075137
-0.017670
-0.015272
0.065249
0.023255
0.123460
0.077076
0.025497
0.076458
-0.056335
0.026162
0.016737
0.014360
0.061089
0.062546
0.103063
0.087508
0.028732
-0.000990
0.023871
0.056083
0.003189
-0.014410
-0.022446
-0.028354
-0.021716
0.023245
0.005396
-0.032686
0.077846
-0.001777
-0.033208
0.105677
0.038856
0.051714
0.072021
-0.005346
0.019221
-0.029263
-0.029621
-0.035372
0.018908
-0.015848
0.080138
-0.010876
-0.001815
-0.035188
0.017402
0.015722
0.030063
0.013495
-0.051218
-0.021521
0.019425
-0.043825
0.000639
0.010864
0.028523
0.039287
0.011505
-0.006928
0.052573
-0.083162
0.122240
-0.051097
0.031897
0.018832
-0.003980
0.062198
0.083384
0.027647
-0.002616
0.069811
0.103871
0.086615
0.079384
0.069020
0.123674
0.169988
0.130467
0.110871
0.165122
0.171007
0.190232
0.098175
0.098025
0.220680
0.065068
0.123168
0.142553
0.168024
0.193789
0.027117
0.201072
0.125919
0.137435
0.090513
0.045390
-0.012528
0.049597
0.037980
0.009052
0.043700
-0.028848
-0.071822
-0.017884
-0.034439
0.044571
-0.047391
0.050917
0.024094
-0.092799
0.012932
0.034264
-0.062659
-0.041279
0.011523
-0.039796
-0.032476
-0.084053
-0.065142
-0.044714
-0.070870
-0.109155
-0.013360
0.019014
0.255326
0.569703
0.848026
1.123418
1.385887
1.374822
1.189584
0.861629
0.394098
0.102478
-0.103290
-0.308991
-0.308256
-0.276255
-0.174179
-0.116211
-0.125164
-0.114808
-0.127611
-0.013449
-0.092427
0.027733
-0.095019
-0.049089
0.036785
0.027988
0.062358
-0.008492
-0.022995
-0.003337
0.018121
0.099196
-0.037808
0.066150
0.011328
0.025090
0.003664
0.055754
0.067319
0.155638
0.085137
0.071946
0.147749
0.231761
0.254621
0.250789
0.234424
0.240696
0.365730
0.349472
0.304634
0.377520
0.297802
0.333644
0.421425
0.456444
0.362382
0.403599
0.461067
0.406413
0.424535
0.397649
0.529284
0.449294
0.384022
0.455471
0.351408
0.299552
0.377826
0.381476
0.314454
0.321403
0.267628
0.263380
0.264346
0.248469
0.174050
0.202539
0.126426
0.139749
0.145844
0.150218
0.138022
0.060409
0.065802
-0.030309
0.053769
0.065117
0.002348
0.005224
-0.032588
0.017443
-0.023079
-0.072228
-0.050071
0.011871
-0.046777
-0.045850
-0.108102
-0.019802
-0.060388
-0.060141
-0.044160
-0.133085
-0.031295
-0.025288
0.010833
-0.121341
-0.116558
-0.164355
-0.047151
0.016886
-0.096735
-0.053015
-0.160183
-0.002863
-0.039585
-0.077675
-0.106266
-0.142837
-0.103422
-0.018828
-0.044819
-0.067997
-0.047944
-0.026941
-0.037207
-0.046653
-0.134225
-0.177449
-0.047421
-0.073544
-0.064463
-0.144285
-0.144340
-0.035509
-0.102259
-0.070320
-0.123683
-0.065046
-0.121377
-0.096931
-0.058001
-0.028877
-0.145878
-0.041804
-0.094774
-0.083119
-0.023978
-0.081852
-0.028729
-0.111748
-0.066737
-0.024716
-0.036836
-0.040307
-0.073708
-0.047949
-0.066530
-0.150628
-0.023549
-0.061466
-0.126366
-0.024614
0.005607
-0.050202
-0.032054
-0.064382
-0.046280
-0.024743
-0.118651
-0.023126
-0.096697
-0.014134
0.010393
-0.039602
0.021258
0.028387
0.117865
0.119678
0.166390
0.115337
0.078540
0.096146
0.125161
0.097518
0.152166
0.128368
0.122308
0.137147
0.143677
0.027315
0.033401
0.068552
-0.014878
0.091535
0.064000
0.091477
0.010095
-0.044654
-0.006116
0.027256
0.026437
0.005532
-0.039475
0.009147
-0.047829
-0.038529
-0.025161
-0.029287
-0.005976
-0.011615
-0.081535
-0.089229
-0.086344
-0.080925
-0.117125
-0.058386
-0.052538
-0.007418
-0.052806
-0.019752
-0.003374
-0.195143
-0.136025
0.015529
-0.004107
0.193431
0.486215
0.849821
1.134732
1.354083
1.308824
1.245416
0.905125
0.549675
0.179088
-0.087114
-0.254887
-0.341904
-0.261603
-0.259912
-0.151450
-0.156927
-0.073371
0.010719
-0.113788
-0.015059
0.058190
0.016658
0.093343
-0.052873
-0.052010
-0.026219
-0.058565
-0.029430
0.029022
0.015084
0.004407
0.032518
-0.001628
0.042628
0.033874
0.109481
0.082877
0.111783
0.111764
0.095974
0.170719
0.168724
0.217150
0.262049
0.268598
0.316977
0.250809
0.303742
0.374002
0.337363
0.372878
0.420573
0.425827
0.533480
0.463511
0.411778
0.450264
0.448185
0.492336
0.432075
0.499465
0.473578
0.581554
0.412671
0.469315
0.482037
0.450756
0.438057
0.455113
0.439006
0.464952
0.390470
0.385825
0.327548
0.361783
0.342603
0.284413
0.280172
0.286735
0.191581
0.156880
0.267010
0.190120
0.173867
0.125475
0.092124
0.104760
0.098737
0.057820
0.027195
0.106855
0.121467
-0.015266
-0.061598
0.070705
0.078635
0.048648
0.018071
0.105619
0.015553
0.001883
-0.035099
0.030844
-0.028732
0.008923
-0.046515
0.073327
-0.058437
-0.000660
0.116982
0.050862
0.020758
-0.015823
0.000827
-0.108926
0.025753
-0.009923
0.025272
0.022681
0.026068
-0.006201
0.032725
0.008272
-0.023667
-0.052059
0.094803
0.080318
-0.004099
-0.030449
-0.008182
0.029034
0.029262
0.002094
0.042378
-0.004545
0.035846
0.024155
0.000650
0.110549
-0.000507
0.040380
0.018837
-0.015045
0.124787
0.072401
0.019264
-0.021706
0.059568
0.080117
0.029550
0.060009
0.018364
-0.020154
-0.061078
0.018268
0.009273
0.031373
0.036346
0.120442
0.092974
0.082013
0.053352
0.022993
0.032364
0.128039
-0.005180
0.048032
0.161669
0.162121
0.044184
0.032663
0.060710
0.157971
0.030365
0.110692
0.150892
0.168652
0.137201
0.167403
0.253122
0.231430
0.171054
0.171761
0.144212
0.163750
0.158077
0.276180
0.244286
0.101140
0.182961
0.225296
0.133266
0.167535
0.151605
0.139362
0.246156
0.023787
0.114196
0.108336
0.097266
0.026175
0.111078
0.099728
-0.017911
0.059255
-0.002521
0.030967
0.073923
0.064317
0.112837
0.022065
0.039444
0.142835
-0.046249
0.112522
0.002342
0.128935
0.027324
0.007721
0.071222
0.035297
-0.011211
-0.008168
-0.112570
-0.014706
0.107073
0.206715
0.522182
0.847709
1.132027
1.408988
1.465426
1.351709
1.158337
0.735967
0.345136
0.049101
-0.150789
-0.236165
-0.212653
-0.107323
-0.134632
-0.039781
-0.008459
0.072032
0.116359
0.125365
0.054008
0.071086
0.008177
0.064303
0.041953
0.108991
0.109812
0.128277
0.153983
0.157291
0.054713
0.095604
0.097808
0.079278
0.142331
0.139665
0.189187
0.178469
0.226683
0.233228
0.257358
0.211453
0.259373
0.276385
0.319757
0.334947
0.333763
0.387747
0.446642
0.365912
0.374923
0.446943
0.495355
0.536234
0.503422
0.497164
0.534882
0.531726
0.509603
0.579754
0.617848
0.541634
0.511431
0.578433
0.474203
0.512261
0.480467
0.488502
0.536940
0.451016
0.515831
0.438015
0.386473
0.393492
0.392037
0.322410
0.284868
0.400387
0.276124
0.294422
0.242376
0.240622
0.247935
0.183658
0.155405
0.173122
0.107680
0.146056
0.142892
0.168404
0.148156
0.122813
0.129876
0.075861
0.090139
0.139831
0.104057
0.010939
0.041931
0.036496
0.088803
-0.009904
0.063479
0.097940
0.079496
0.024199
0.098187
-0.012478
0.099674
-0.051942
-0.007159
0.098155
0.064190
0.062679
0.088207
0.029639
0.044222
-0.011347
0.002135
0.049806
0.093890
-0.070308
0.004717
0.049944
0.004777
-0.014159
0.006181
0.047152
0.060789
0.053496
-0.015836
-0.055145
0.015791
-0.041455
0.036397
0.050147
0.005830
-0.013774
-0.016472
0.006645
0.028694
-0.016546
-0.071550
0.047104
-0.010490
0.016847
-0.062351
0.049110
0.034708
0.039715
0.025192
0.052100
-0.016494
0.064059
0.040822
-0.038109
-0.096694
0.048838
0.002554
-0.052478
0.009189
0.155242
0.053639
0.015991
0.004258
0.068064
0.021046
0.046657
-0.058782
0.033043
0.079685
0.053045
0.118141
0.121087
0.039729
0.149968
0.089853
0.155340
0.105084
0.161769
0.117223
0.122592
0.121071
0.183761
0.270825
0.145124
0.156259
0.156724
0.175425
0.213039
0.140765
0.108798
0.115594
0.082832
0.140505
0.066378
0.001249
0.138265
0.122675
0.023846
0.097875
-0.002744
-0.026229
-0.013608
-0.000531
-0.022271
0.001504
-0.028932
0.036511
-0.043287
-0.018519
-0.056188
-0.062957
-0.028358
-0.077183
-0.042453
-0.017200
0.063195
-0.094213
0.005163
-0.010799
-0.051005
-0.110706
-0.049118
-0.016264
-0.058983
0.083154
0.373475
0.662711
0.969578
1.372103
1.417186
1.237951
1.164378
0.782797
0.394251
0.039477
-0.172154
-0.379004
-0.304294
-0.326910
-0.221123
-0.144715
-0.109947
-0.021270
0.011853
0.083494
-0.093293
-0.069778
0.047075
-0.013070
0.032946
0.058623
0.012415
0.000205
-0.011736
0.032683
0.005680
0.056712
0.043189
-0.040179
0.078124
0.075002
0.105213
0.056597
0.063183
0.086255
0.066006
0.112055
0.170417
0.141472
0.278590
0.247401
0.272141
0.315713
0.284069
0.377606
0.315199
0.355364
0.348440
0.386229
0.374533
0.408617
0.498621
0.377201
0.463226
0.409372
0.452168
0.402126
0.318345
0.384621
0.420622
0.403468
0.428082
0.392195
0.369817
0.378787
0.365117
0.374824
0.333993
0.285934
0.383334
0.172611
0.250625
0.188843
0.269017
0.159214
0.151668
0.292552
0.135653
0.122991
0.069149
0.086849
0.036527
0.100332
-0.014189
0.070990
0.004773
-0.065054
0.021898
-0.063901
-0.013603
-0.062329
-0.097548
-0.012191
-0.058528
-0.043883
-0.142000
-0.076449
-0.042315
-0.162030
-0.067069
-0.116534
-0.087373
-0.040628
-0.124799
-0.059865
0.010740
-0.034594
-0.157341
-0.078887
-0.010541
-0.168601
-0.077115
-0.056881
-0.080942
-0.070044
-0.167927
-0.094284
-0.039055
-0.116122
-0.051524
-0.057159
-0.081208
-0.064129
-0.082187
-0.021883
-0.114576
-0.171476
-0.146685
-0.141720
-0.104896
-0.111136
-0.029975
-0.160322
-0.144010
-0.075482
-0.072581
-0.066139
-0.001540
-0.034880
-0.101792
-0.153918
-0.100406
-0.122442
-0.087636
-0.012077
-0.089813
-0.120382
-0.066589
-0.129599
0.000350
-0.070759
-0.123359
-0.079313
-0.086412
-0.071945
-0.117832
-0.165665
-0.034698
-0.134029
-0.112510
-0.072147
-0.107095
-0.024264
-0.033878
-0.064763
0.023144
-0.027925
-0.009082
0.000988
0.024526
-0.017981
0.090972
-0.034611
0.011892
0.011363
0.039736
0.082062
0.046448
0.043886
0.104539
0.172962
0.133270
0.087561
0.082566
-0.005861
0.064375
0.015342
0.061832
0.029519
0.050367
-0.032176
0.010941
-0.040549
-0.001117
0.002333
-0.093653
-0.030981
-0.022458
-0.012416
-0.083373
-0.136704
-0.117743
-0.051786
-0.039081
-0.065224
-0.010410
-0.012958
0.007348
-0.167419
-0.107905
-0.088197
-0.052234
0.000666
-0.114747
-0.035157
-0.014830
-0.127914
-0.088675
-0.197060
-0.185229
-0.142839
0.034497
0.219301
0.409876
0.814451
1.214376
1.303653
1.341422
1.115581
0.793235
0.417216
0.111833
-0.172799
-0.212359
-0.427777
-0.364755
-0.292536
-0.223921
-0.105295
-0.032818
-0.146881
-0.049851
-0.052974
-0.116897
-0.085589
-0.097062
-0.071442
-0.049864
0.008067
-0.072512
-0.016089
-0.031746
-0.085799
0.025157
-0.077848
-0.062321
0.038766
-0.018371
-0.053041
0.079921
0.102625
0.155111
0.093427
0.076427
0.163210
0.169704
0.207164
0.190718
0.159749
0.248575
0.403430
0.305584
0.300540
0.271044
0.349052
0.419075
0.388437
0.453149
0.384919
0.454395
0.396968
0.413895
0.481181
0.568213
0.483264
0.455918
0.438482
0.386476
0.392859
0.403774
0.384796
0.426214
0.384415
0.355444
0.295521
0.291933
0.310583
0.304483
0.316177
0.277235
0.174206
0.207235
0.176636
0.188217
0.202884
0.172751
0.111784
0.078975
0.071572
0.188185
0.046919
0.019857
0.098067
0.063306
0.039110
0.015382
0.010289
-0.025981
0.034663
0.010275
0.022731
-0.019581
-0.000765
-0.051122
-0.007789
-0.020469
-0.152310
0.000981
-0.004958
-0.003399
0.014808
-0.089082
-0.072153
-0.032162
0.022734
0.027141
-0.063659
-0.006655
-0.022855
-0.024179
-0.043773
-0.000130
-0.023425
0.082817
-0.037732
0.009263
0.008210
-0.078456
0.003718
-0.002193
-0.060325
-0.042505
-0.018571
0.041277
-0.019988
-0.047496
-0.033791
-0.026254
0.041627
0.032668
0.065939
-0.062091
-0.024961
-0.109549
-0.038452
-0.029504
0.072973
-0.053049
-0.015092
0.046122
-0.070851
0.004956
0.014511
-0.048531
-0.032844
-0.020705
-0.042658
-0.026810
0.008793
0.015509
-0.011263
0.043302
0.020525
-0.053714
0.068011
-0.048590
0.068153
-0.061333
-0.019647
-0.064663
0.018971
0.004218
0.000244
0.037525
-0.019501
0.069577
0.133639
0.123023
0.093567
0.136175
0.042259
0.128863
0.184763
0.162337
0.185602
0.200983
0.068537
0.216381
0.269439
0.184233
0.132629
0.155260
0.176386
0.126016
0.183620
0.170092
0.022284
0.173189
0.110829
0.042838
0.152056
0.128181
0.085062
0.098206
0.059334
0.085475
0.053440
0.027735
0.066452
0.086356
0.068531
-0.002509
0.044712
0.013508
0.102240
0.055555
-0.008509
0.034513
0.040460
0.063817
0.006285
0.065371
-0.050123
0.089992
-0.080425
-0.094003
0.000277
-0.003466
0.015082
0.233456
0.568732
0.930457
1.263026
1.476576
1.460546
1.334771
1.131520
0.634227
0.309667
0.008657
-0.135659
-0.209534
-0.218438
-0.063786
-0.068976
-0.003164
0.104488
0.041014
0.060325
0.097495
0.071924
0.115048
0.111730
0.097758
0.102367
0.027156
0.075087
0.040790
0.088744
0.096609
0.091688
0.039107
0.127923
0.168675
0.160330
0.101079
0.104430
0.228858
0.251398
0.198737
0.195684
0.238628
0.331354
0.305360
0.342734
0.381156
0.444451
0.382884
0.376260
0.421915
0.430398
0.499593
0.470310
0.534053
0.533879
0.527227
0.571119
0.556770
0.546592
0.617665
0.572775
0.466304
0.555879
0.636567
0.551747
0.577721
0.528360
0.554994
0.494017
0.524005
0.443334
0.477102
0.451271
0.417840
0.420254
0.430516
0.345295
0.323074
0.329116
0.342186
0.316412
0.244876
0.267219
0.275259
0.260324
0.201272
0.242363
0.126640
0.184487
0.164165
0.124287
0.105612
0.103012
0.121441
0.098594
0.110635
0.100019
0.134306
0.025228
0.073243
0.113785
0.009162
0.041863
0.014124
0.047472
0.071015
0.070866
0.065549
0.086957
0.077799
0.103200
0.163288
0.104807
0.065635
0.092259
0.087515
0.014013
0.095794
0.091601
0.013867
0.103790
0.090018
0.067662
0.092672
0.090327
0.070866
0.084490
0.137685
0.041632
0.049407
0.103392
0.144157
0.067750
0.068000
0.081634
0.007481
0.104284
-0.032463
0.095752
0.093566
