-0.496192
0.336066
0.483780
0.031561
-0.389378
0.119635
0.454357
-0.462302
-0.278884
-0.678682
0.227123
0.001125
-0.488789
0.109089
-0.292201
-0.025600
0.182519
0.116768
0.036739
-0.279649
-0.396116
0.545955
0.043531
-0.519352
0.154748
-0.211608
-0.265363
-0.741244
0.309008
0.508768
0.277112
-0.348994
0.072823
0.434910
0.067760
0.464068
0.882713
0.888976
0.352183
-0.161408
-0.179451
-0.431160
-0.558422
0.125794
-0.453303
0.334483
0.687784
-0.670463
0.325610
-0.261507
-0.191787
-0.191527
-0.322496
0.499520
0.146564
-0.058818
0.161956
0.210079
0.537883
-0.805369
0.129765
0.697002
0.089330
0.968247
1.100902
0.303298
0.828330
0.261243
0.831334
0.211611
-0.133250
-0.148777
0.124338
0.469846
0.170156
-0.799800
-0.037121
0.015515
-0.057252
-0.350380
0.165261
0.390949
-0.150988
0.197957
0.291175
-0.111811
0.727477
-0.326111
0.185508
0.793545
-0.427112
0.629059
0.222272
0.001439
-0.627411
0.078680
0.127801
0.591982
0.895653
0.390845
0.503888
0.517454
0.673614
0.055838
0.621872
1.089698
0.402919
0.265539
-0.417062
0.338360
0.483036
0.334120
0.377767
0.696659
0.393248
0.271083
-0.205082
0.143880
0.900442
-0.579607
0.188970
0.019994
0.081535
-0.241652
0.658669
0.102586
0.158061
-0.269089
0.681281
0.482262
0.094234
0.139164
0.221617
0.192766
0.456867
0.162365
0.179038
-0.281858
0.512836
0.000981
0.680727
-0.127776
-0.509042
0.023359
0.128769
0.465204
0.440485
-0.180626
-0.283745
0.032837
1.017206
-0.017494
0.369555
0.435250
0.142092
0.241372
-0.104939
0.948101
-0.127333
0.237572
-0.025865
-0.529469
-0.367956
0.262047
-0.087031
-0.040140
0.492899
-0.502344
-0.674471
0.047485
0.893112
0.277142
-0.021855
-0.359668
-0.121501
0.238031
0.108803
-0.203536
0.576985
-0.783025
-0.376406
-0.065825
-0.102220
-0.378621
-0.081427
-0.864860
0.210748
-0.150224
0.233558
-0.300378
0.360250
0.107281
-0.700980
0.569414
1.096125
0.444124
0.112073
-0.123688
0.968999
-0.196559
-0.283219
-0.073516
0.785243
0.404581
-0.219515
-0.480028
-0.667130
0.281397
-0.059960
-0.773995
-0.224993
0.409920
-0.119254
0.014883
0.487829
0.334425
0.079882
0.041698
-0.161459
-0.191858
0.569369
0.111700
0.802252
0.668166
1.124141
0.639185
0.241250
0.420123
0.280228
0.191306
-0.298021
-0.228634
0.192359
-0.215663
0.045209
-0.113104
0.377569
-0.311378
0.536611
-0.199230
0.609788
0.091380
0.532353
0.850788
0.201555
0.689163
0.518712
-0.088445
0.040795
0.422167
0.348387
0.157749
0.166707
0.796486
0.084789
0.923697
0.447034
-0.095119
0.272618
0.252733
0.670107
0.874094
-0.311537
0.477360
0.351408
0.005501
0.164894
0.607843
0.136358
0.368740
1.139133
0.565447
0.541345
0.377342
0.534103
-0.022985
-0.196199
0.510281
0.112675
0.777251
-0.193952
0.311398
-0.007788
0.249086
-0.114368
-0.045907
0.333057
0.171596
0.110446
0.477880
-0.600902
-0.029867
-0.146824
-0.588549
-0.656904
-0.138774
-0.363782
0.116408
0.516832
-0.317651
-0.084879
0.028622
0.261496
-0.076692
-0.436792
0.332512
0.325183
0.340537
-0.135781
0.575331
-0.168373
0.467005
-0.250163
-0.244683
-0.203962
0.066978
0.280084
-0.116749
-0.071253
0.485398
-0.655814
0.688141
0.306481
-0.115644
0.027314
-0.231673
0.869909
0.581625
0.526148
-0.072322
1.042385
0.322016
0.442014
0.062922
-0.084564
0.323361
0.681984
-0.047406
0.059546
-0.248065
0.124973
0.221654
-0.174461
-0.005405
0.228041
0.150937
-0.259448
0.325953
0.254619
0.698311
-0.212949
-0.683775
0.552070
0.524864
0.247001
0.464141
-0.221942
-0.233878
0.207939
0.399272
-0.192254
-0.177346
0.618104
-0.133359
0.403357
-0.001370
-0.062804
0.160321
0.957854
-0.132629
0.666433
0.133417
0.240859
0.403203
-0.160953
0.543325
-0.428834
0.232858
0.587036
0.356150
-0.187299
0.503736
0.916321
0.121476
0.356348
-0.012335
0.585591
0.164289
-0.301701
-0.135787
-0.375928
-0.209105
-0.226808
-0.454939
0.345563
-0.324320
0.156909
-0.253636
0.455586
-0.999885
0.106296
0.435020
-0.045879
-0.044861
0.054655
0.257105
0.889377
0.196542
0.323900
0.487823
0.605733
-0.189954
-0.092885
0.319462
0.893313
0.436942
0.639741
0.701631
0.443986
-0.510037
0.082668
0.142618
0.044351
0.752464
0.160391
-0.007166
0.700271
0.247052
0.270008
-0.204803
-0.472753
0.491648
0.295692
-0.055217
-0.372183
0.194742
0.526571
0.376995
0.658023
-0.122962
-0.637118
-0.109611
0.963490
0.077071
0.781553
-0.505713
0.096233
-0.225126
-0.449171
-0.160688
-0.010918
-0.007825
0.384683
0.142248
-0.891242
-0.426109
0.412496
-0.433805
0.489458
-0.383753
0.511750
-0.287685
-0.777223
-0.612345
0.145553
0.614217
0.030853
0.047864
-0.346210
0.258195
0.231806
0.241219
0.273400
0.594162
-0.297134
0.597064
-0.347591
-0.151229
-0.041533
0.436755
0.061488
0.239625
0.198366
-0.387338
-0.406698
-0.165937
0.105249
-0.208704
-0.399389
0.099635
-0.089272
0.303285
0.081072
-0.506781
0.826445
0.009903
0.185447
-0.308179
-0.261566
0.621370
-0.508189
-0.345577
0.155723
0.351131
0.219830
-0.206228
-0.054242
-0.353385
-0.242028
-0.407610
0.462475
-0.952130
0.509482
0.314151
0.818783
-0.360843
0.110822
0.002392
-0.012693
-0.094152
-0.189202
-0.275831
0.715005
0.035590
-0.539770
0.067850
-0.161001
0.009046
0.276070
0.109450
0.309194
0.103599
-0.694547
-0.087687
-0.272092
0.409464
0.045550
-0.013166
0.143435
-0.075019
0.647705
0.947635
0.682640
0.133098
0.144317
0.396779
0.335405
0.603458
-0.630977
0.113776
-0.576818
0.266824
-0.043487
0.039092
0.516408
0.104875
0.260218
0.365271
-0.587603
-0.505721
-0.238519
-0.189013
-0.041269
-0.246068
0.591834
0.521377
0.421051
0.553701
0.054084
0.552776
-0.351032
0.230765
0.091974
0.286022
0.341989
0.600824
0.426371
0.164948
-0.468428
-0.171519
0.751267
0.455821
0.121380
-0.683564
0.086941
-0.093176
-0.485258
-0.335446
1.063445
-0.236318
0.060874
0.311704
0.780575
-0.016231
0.115748
-0.023272
-0.254333
0.088722
-0.007708
0.120515
-0.087735
0.288888
-0.224018
0.120559
0.145438
-0.239324
0.698388
-0.241383
0.547612
0.358470
0.418545
0.155310
-0.825297
-0.341367
0.192936
-0.375320
-0.030513
0.246866
-0.244707
0.481124
0.069942
0.170319
0.780257
0.404678
-0.054273
0.153718
-0.446290
-0.592524
-0.797360
-0.063783
0.269056
0.153720
-0.912356
-0.494013
-0.056623
0.004882
-0.210910
0.693794
0.014797
0.428849
0.247815
-0.537612
0.263942
-0.154239
0.253889
-0.119412
-0.005201
0.084269
0.350754
0.436337
0.017356
-0.498586
0.489287
-0.413457
-0.613362
-0.222113
0.493660
-0.097376
0.327836
-0.049034
-0.847319
0.493214
-0.144393
0.110684
0.499759
-0.427729
0.056047
-0.818932
-0.290920
0.340208
0.537588
-0.110111
-0.163559
0.060493
-0.403568
1.340476
-0.605326
-0.017879
-0.424945
0.201177
0.467615
0.307117
0.521802
-0.080524
0.032424
0.810884
-0.011792
-0.610098
-0.024982
-0.109320
-0.502031
0.243857
-0.953804
0.044795
-0.672834
0.327949
0.214276
-0.242098
0.521778
0.431990
1.184963
1.207331
1.155228
0.747111
0.601667
0.387165
1.022468
-0.013050
0.239032
-0.351928
-0.257777
-0.163292
-0.462023
0.773677
-0.136069
-0.126669
0.227466
-0.373934
0.253315
0.737932
-0.474940
0.592193
0.670594
-0.003879
0.140527
-0.142550
0.310269
0.262599
0.591605
0.869151
-0.129683
0.797986
0.252475
0.390651
-0.111156
-0.090906
0.495843
0.645764
-0.301930
1.140648
-0.036661
0.154189
0.337166
0.624073
0.042961
0.143919
0.176870
0.972213
-0.393808
-0.165019
-0.074902
0.389149
-0.152728
0.420432
-0.413623
-0.271323
-0.182839
0.147077
0.394960
-0.286241
0.356404
-0.247176
0.013649
-0.320163
0.256040
-0.736358
0.430893
0.816504
-0.116070
0.413045
-0.635417
0.800906
0.049561
-0.029759
-0.324928
-0.219744
0.268623
0.063731
0.085783
-0.236760
-0.234081
-0.271717
0.302683
-0.650685
0.048940
-0.387351
-0.330990
0.260148
0.130924
0.504082
-0.717264
-0.224768
-0.084906
0.542291
0.952011
0.361723
-1.096335
-0.704272
-0.500202
0.123282
0.512204
0.237604
-0.614486
0.223869
0.033806
-0.180051
-0.198542
-0.687239
0.840558
-0.205194
-0.451766
0.433439
-0.104378
-0.383851
0.298014
0.391408
0.078734
-0.236657
-0.377762
-0.609581
0.087376
0.720342
0.012698
0.616185
0.203684
-0.381320
0.098961
0.096093
-0.542371
-0.206903
0.388612
0.065807
0.225087
0.069070
0.243856
0.737310
-0.589910
-0.146297
0.224342
0.949874
-0.237089
0.420214
0.170243
-0.338669
0.011417
0.312218
-0.700600
-0.409984
-0.207538
-0.499083
0.111102
0.129988
-0.013082
0.139755
0.246285
-0.096932
0.708026
0.071813
-0.235324
-0.237129
0.715022
0.195963
1.215216
0.329198
0.205250
0.289931
0.097992
-0.341868
-0.434488
-0.207522
-0.081686
-0.009633
-0.300077
0.381936
-0.214424
-0.092235
-0.647927
-0.280855
0.274903
0.405460
-0.389814
0.171876
-0.169797
0.020654
-0.219688
-0.311885
0.084866
1.069236
0.074798
0.252863
0.280084
-0.305242
0.311055
0.811307
0.125044
0.581428
0.274306
0.128620
0.009613
0.469114
0.173877
0.296120
-0.280369
-0.416356
0.212137
-0.010044
0.247419
0.573641
0.451850
-0.227971
-0.152978
0.381125
-0.119320
0.035068
0.440087
0.124583
0.707044
0.301917
0.010298
0.176677
-0.111088
-0.365703
-0.113144
0.910732
0.692988
0.035571
0.438026
0.285903
1.218126
0.395303
-0.560947
0.336562
0.044086
0.176826
0.778228
0.499101
0.512151
0.145034
0.662160
-0.463205
-0.111622
0.192293
0.034659
-0.395830
-0.130348
-0.221414
-0.328890
-0.438636
0.019749
-0.196000
-0.478810
-0.408069
0.605812
-0.390524
0.060870
0.036317
-0.031030
-0.061831
0.215285
-1.420814
0.245422
0.400106
0.837400
-0.008594
-0.500521
0.611368
0.305026
0.794719
-0.365075
-0.527566
-0.152098
0.242172
-0.722118
0.604038
0.012888
0.489933
0.738616
0.450797
0.041992
0.368725
0.229773
0.195685
-0.063260
-0.157720
0.426881
-0.719071
0.085018
-0.344396
0.194648
0.313887
-0.455736
-0.060819
-0.465955
-0.017609
0.909347
0.013881
0.129764
0.229198
-0.336311
0.216175
-0.099104
0.043796
0.649016
0.275856
-0.261248
-0.380268
0.088802
0.864016
0.088027
-0.141768
-0.149412
-0.095737
0.099936
-0.464947
0.309540
-0.178650
0.288666
0.135641
0.842785
0.192947
0.662017
0.463602
1.486885
1.156158
0.227695
-0.415564
-0.136783
-0.118992
0.091255
0.662972
-0.269088
0.375461
-0.138052
0.008581
-0.371147
-0.305953
-0.355058
0.359113
-0.181140
-0.192927
0.454923
-0.086358
0.634406
0.007768
0.015101
0.557885
0.023182
0.167587
-0.542360
-0.103775
0.510760
-0.130875
0.352851
0.942223
0.708234
0.004089
0.339099
0.008590
-0.247355
0.133891
0.430292
0.368943
0.242815
0.152976
0.142637
0.037797
0.356978
-0.336166
-0.271366
-0.368066
0.128773
-0.060868
0.006055
-0.337252
0.060448
0.653828
-0.014909
-0.017046
0.822305
0.657832
0.441905
-0.517571
-0.032119
0.492318
0.407774
0.036937
0.323177
-0.353242
0.310027
0.455464
-0.246450
0.438155
-0.498852
0.197099
-0.829427
-0.439192
-0.330911
0.200862
0.007040
-0.411884
-0.438144
-0.236854
-0.426617
-0.424873
0.099411
-0.608866
0.271115
-0.529797
0.403388
0.047453
0.019637
-0.326578
0.897333
0.494362
0.118399
0.429743
0.339116
0.192431
-0.165007
0.105185
0.278431
-0.711141
0.167516
0.055142
-0.107461
0.384392
-0.107946
-0.964954
0.397108
0.368930
-0.111075
-0.075682
0.470572
-0.802286
0.881004
0.069830
-0.333755
-0.031748
0.996637
0.169066
0.326495
0.104521
-0.200751
0.068054
0.333856
0.039204
0.259048
-0.461431
0.448899
0.026595
-0.133082
0.485366
-0.137284
-0.106995
-0.288548
0.556348
0.152259
0.007289
-0.069447
-0.008520
-0.254655
-0.236825
-0.044639
0.478443
0.133369
0.097810
-0.012352
-0.010916
0.373881
-0.133078
0.346753
0.026973
-0.051189
0.370582
-0.096313
-0.230472
-0.268365
-0.254011
0.278662
0.842041
0.514789
1.293119
0.818433
0.504120
0.668983
0.054473
-0.563737
0.611613
-0.582139
-0.009382
0.133527
0.001650
-0.258894
-0.373734
0.626439
0.669543
-0.090257
-0.035593
0.568408
0.775670
0.355034
0.013317
-0.145868
-0.264240
0.557807
0.195674
0.436651
0.676566
-0.460502
-1.049291
0.424256
-0.171982
-0.264051
-0.072752
0.675066
0.469833
0.080073
0.661644
-0.205397
-0.171587
-0.230186
-0.456557
0.149207
0.340747
-0.278472
-0.024249
0.122439
0.344526
0.543619
0.111716
-0.161350
-0.203387
0.552860
0.118790
-0.325960
0.101445
-0.307015
-0.248396
0.064343
0.373026
-0.027426
0.596459
-0.104626
-0.074901
-0.130948
0.181847
0.406008
0.083251
0.060616
0.258762
-0.159396
0.822982
0.301601
-0.464399
-0.476159
0.157374
-0.379097
0.385270
0.121569
-0.317054
0.448978
-0.018143
-0.818280
-0.094053
-0.282560
0.312037
-0.615919
0.238765
0.069326
0.226534
-0.459705
0.486500
-0.505850
0.035047
-0.009331
-0.252725
0.186687
0.759079
0.150016
-0.520278
-0.056350
0.008999
0.202561
-0.014766
-0.151057
-0.500953
0.117956
0.154313
-0.136526
-0.985301
0.011025
0.362364
-0.270767
0.029987
0.357964
0.089002
-0.318877
0.549641
0.180104
0.128106
0.561724
0.087121
0.478070
-0.024899
-0.597144
-0.928152
-0.396880
0.480368
0.391148
0.066152
-0.169871
-0.634739
0.354536
0.436033
-0.039146
-0.422669
0.525757
-1.326140
-0.412113
-0.816597
-0.561788
-0.498718
0.494926
-0.486031
-0.043745
0.229146
0.656593
0.766319
0.611094
0.336933
-0.210739
0.234023
0.093106
-0.187995
0.298983
0.074877
0.229209
-0.190631
1.245212
1.393198
0.852511
0.694810
1.027553
0.560155
0.237419
0.299134
0.995432
0.823062
0.440316
0.328913
0.166445
0.403248
0.766504
0.150313
-0.210426
0.927240
-0.572987
-0.305886
-0.043712
-0.507123
-0.010779
0.417222
-0.118929
-0.455893
-0.332728
-0.080257
-0.060076
0.191280
0.170098
0.382575
0.158906
0.450703
0.531070
-0.451093
-0.062496
0.489393
0.920174
0.754128
0.427361
-0.101884
0.268423
-0.220228
0.947984
0.616930
-0.046606
0.587787
0.132678
0.261857
-0.227470
-0.732630
0.718641
-0.849625
0.879316
0.230445
0.371982
0.077691
0.171714
0.327498
-0.420471
0.043326
-0.152400
-0.100583
-0.179967
0.113568
-0.222446
0.304649
1.085200
0.229430
0.719507
0.910524
0.204210
0.451643
0.123285
-0.905896
-0.351345
1.185754
0.035680
0.355989
-0.383403
-0.659153
-0.777518
-0.433986
0.166399
0.525563
-0.054371
-0.163785
-0.365438
0.204276
0.019588
-0.303824
-0.227493
0.076397
0.029486
-0.058008
0.245327
-0.013777
-0.174821
-0.064659
-0.840460
-0.090823
-0.286940
-0.304554
-0.507148
-0.635782
0.369271
1.092297
-0.221858
-0.532038
-0.742513
-0.335959
0.201141
-0.118128
-0.464843
-0.204223
-0.070756
0.118696
0.183104
0.111421
-0.042070
0.235906
-0.036213
1.052321
-0.024467
-0.513981
-0.199973
-0.185342
0.189138
0.131450
-0.352313
-0.327748
0.239904
-0.017764
0.245832
-0.399664
-0.239789
0.513475
0.319437
0.411737
-0.833603
-0.305012
0.885281
0.008868
-0.271152
-0.458875
-0.043306
-0.217728
0.611229
0.340715
0.465701
-0.023700
-0.855161
-0.266471
-0.109725
-0.405607
-0.305250
-0.214779
0.228017
0.799286
0.484013
0.894478
0.751059
0.807534
0.559264
-0.268799
-0.347874
0.465747
0.517304
0.570906
-0.150536
-0.376735
-0.400719
0.063595
0.016284
0.769075
-0.245118
-0.638337
-0.203169
0.013393
-0.077842
-0.578055
0.198244
0.447084
1.316205
-0.229372
0.537209
0.265111
0.429356
0.096890
0.314681
0.122861
-0.216865
0.443472
0.031579
1.212029
0.774695
0.443178
0.585442
0.657088
0.027007
0.042856
0.970732
-0.039319
-0.378552
-0.036289
1.050691
1.235026
0.303062
0.954587
0.253310
0.769598
-0.284881
0.787658
0.667211
-0.209659
0.310568
-0.204351
0.246649
0.617527
-0.240366
-0.108844
-0.120150
-0.327661
0.382410
0.315996
0.172557
-0.544478
-0.753491
-0.007533
0.078645
0.102151
-0.252415
0.362583
0.602767
-0.580693
0.510856
0.428920
0.501441
0.132609
-0.383149
-0.143803
-0.126814
-0.430852
-0.494399
-0.206807
-0.086634
-0.825956
0.015467
0.017612
0.332642
-1.256587
0.634745
0.511339
0.665400
0.121326
0.014766
0.107748
0.051985
0.467707
-0.263712
0.338317
0.570885
-0.502827
0.272491
-0.166606
0.012737
0.822532
-0.127635
0.575861
0.228969
-0.659812
-0.339921
0.341406
-0.312874
-0.238998
0.592101
0.092583
0.754185
-0.171820
0.113956
-0.407882
0.146540
0.052130
0.001513
0.521221
0.088844
-0.176619
-0.016594
0.100530
0.123880
0.201701
0.623810
-0.047915
-0.728658
-0.613497
0.033592
0.057871
0.023117
-0.548336
0.429343
0.386917
-0.529833
0.414277
0.406108
0.294398
0.127697
0.304269
0.618459
-0.302178
-0.024550
-0.577171
0.352610
0.241991
-0.368866
0.049741
-0.652763
0.694720
0.049709
1.021349
0.877459
1.500000
0.888993
0.612455
1.206657
0.551434
0.174535
1.040663
-0.341134
0.618588
-0.466249
0.095336
-0.114567
0.524429
0.283621
-0.930869
0.403173
-0.134333
0.700647
-0.215331
0.282792
0.806311
-0.505195
0.675499
0.124554
-0.218501
-0.181840
0.327998
0.164429
0.193871
0.011111
0.239847
-0.003729
-0.324156
0.397911
0.352426
-0.283097
0.809421
-0.301044
0.583961
0.507891
0.510668
-0.275710
-0.718083
0.064415
0.997820
0.978945
0.487406
-0.488600
0.614216
-0.001720
0.597747
0.299747
0.244170
-0.163527
0.932565
0.541201
0.754046
0.001750
0.110580
0.224643
0.971179
0.245291
0.225783
0.240148
0.201922
0.160304
0.077951
-0.251690
-0.133553
-0.734524
-0.217195
-0.392897
0.227926
-0.086790
0.902455
-1.093730
0.276422
-0.406690
-0.059095
0.263721
-0.550150
-0.834775
0.181472
0.423514
0.001290
0.010295
-0.438328
0.526812
-0.205603
1.273111
0.209827
-0.307109
0.612500
-0.581964
0.086490
-0.428960
0.164284
0.404656
-0.056263
-0.756141
0.183707
-0.337051
-0.478817
-0.180418
-0.796463
-0.833402
-0.128929
0.238045
-0.554505
0.009036
0.959293
0.203501
0.132758
0.140292
0.112224
0.036247
-0.093652
-0.108628
0.274619
-0.399741
0.267378
0.049936
0.124166
-0.157152
0.065182
0.181404
-0.484812
-0.661564
1.335253
0.080544
0.320283
0.201599
0.303705
0.397476
-0.181443
0.424406
1.253351
-0.151869
0.364952
0.736154
-0.220640
-0.049810
-0.230384
0.092968
0.205215
0.540174
0.892916
0.120239
-0.116695
0.089819
-0.076670
0.619942
-0.315761
0.521295
0.777282
-0.677270
0.606163
0.536790
1.137735
0.840199
0.999583
1.235667
0.973175
0.261696
0.434133
0.048176
0.159515
-0.361843
-0.252159
-0.379584
0.558675
0.634239
-0.398295
-0.067527
0.957634
0.385462
0.098079
0.246692
0.200463
-0.337763
0.216066
-0.508410
0.053994
-0.225999
0.045149
0.118413
0.861402
-0.169197
0.279952
0.448165
0.337651
0.637537
0.516741
0.682853
0.622347
0.768003
0.088699
0.582534
0.237384
-0.463790
-0.050077
0.245566
0.100020
-0.240386
0.951695
0.248988
-0.148155
0.031480
0.253993
0.274658
0.828092
0.606493
-0.095582
-0.164620
0.289757
-0.417126
-0.248654
-0.118413
0.077340
-0.021298
0.684456
0.265258
-0.005746
-0.301691
0.970114
-0.306328
-0.740920
-0.914751
0.053468
0.596308
-0.042334
-0.048987
0.447613
0.278036
-0.475386
0.066556
-0.140989
0.443685
0.094045
-0.510365
-0.049198
0.351684
0.281604
0.589494
0.139214
-0.039668
0.134422
-0.273953
0.385655
0.090582
-0.117238
-0.058455
0.410988
0.451230
0.329946
0.044688
-0.317462
0.551287
0.004192
-0.764167
0.463954
0.391194
0.183149
0.078746
-0.151661
0.042862
0.383513
0.177101
-0.173081
0.321193
0.706530
0.167496
-0.046694
0.075907
0.090267
0.363751
0.282833
-0.363856
0.046522
-0.807106
-0.111611
0.350044
0.285419
-0.390255
-0.209495
-0.247210
-0.431175
-0.721450
-0.039271
0.347064
-0.531000
0.788789
0.741169
0.631798
-0.108831
-0.015430
-0.192868
-0.801595
-0.030023
-0.221652
-0.076557
0.115934
0.217820
0.472308
0.316683
-0.179654
-0.095510
0.082895
0.029262
0.152608
-0.165123
0.329451
0.425237
-0.481393
-0.111254
-0.246842
0.631891
0.052987
1.193406
0.443751
0.991290
0.988724
-0.045970
0.563282
0.642019
0.860817
-0.012751
-0.874844
0.142057
0.275461
0.095428
-0.205311
0.306348
-0.109167
0.764619
-0.160940
0.769330
-0.144417
-0.686482
-0.175187
0.024865
-0.460037
0.073350
0.024954
1.246377
0.809514
0.334591
1.083373
0.031031
-0.337706
0.210818
1.269123
0.792042
-0.204229
0.681196
0.029541
0.664406
0.826235
0.982959
0.551599
-0.157436
-0.060844
0.272180
0.496178
0.639841
0.851065
0.286537
0.769754
-0.226181
0.216473
0.552334
-0.209490
0.078400
0.304721
0.370385
-0.579436
-0.033127
0.368012
-0.261132
0.131629
0.256668
0.584644
0.597465
0.706555
0.262882
0.211444
0.380159
-0.276833
-0.289362
0.174264
-0.798895
-0.109890
-0.612039
-0.243127
-0.022165
-0.037269
0.304550
-0.244315
-0.374762
-0.437978
-0.366235
-0.593475
0.390859
0.019276
1.004832
0.467677
0.122211
-0.004354
0.207916
-0.349311
0.572282
0.774915
0.138935
-0.250756
-0.305533
0.545710
-0.092326
0.056393
-0.085845
0.154172
0.032900
-0.021288
0.159926
-0.082977
0.511632
0.069563
-0.134772
-0.208937
-0.463792
0.371793
0.110113
-0.816963
0.349595
0.218826
-0.817247
0.546240
0.001523
-0.261182
-0.653680
-0.604659
0.005866
-0.200380
-0.310891
0.211936
-0.025809
0.520534
-0.112940
0.604292
0.015173
-0.378358
-0.247269
0.030538
0.409117
-0.765771
-0.277976
0.197956
-0.358176
-0.092400
0.265468
0.079451
0.301871
-0.176736
0.445624
-0.259923
0.139647
0.421457
-0.376104
-0.427149
0.040674
-0.319108
0.344690
0.068043
0.324549
-0.018083
0.273428
0.142615
0.380234
0.542719
0.218322
0.353758
0.613771
0.832927
0.963188
0.610786
-0.244531
-0.004255
0.295158
-0.116476
-0.446328
-0.268532
0.346683
-0.263291
-0.041574
0.784301
-0.088346
-0.184814
0.409992
0.012679
-0.728686
-0.155182
-0.435895
0.194546
1.055854
0.763695
-0.264144
-0.103740
0.005914
0.105642
0.084799
0.644733
-0.027018
-0.386987
0.374166
0.129450
0.607687
-0.001913
0.009473
0.364005
0.041418
0.543562
-0.601350
0.559726
-0.158322
-0.172095
0.553279
-0.095747
-0.082072
-0.018623
-0.123957
0.775884
-0.056268
-0.360934
0.398588
-0.390496
-0.113161
0.269489
-0.021335
0.366093
0.256067
-0.073540
0.096112
0.286938
-0.085991
0.306243
-0.034997
0.158872
0.131302
0.344488
0.115589
-0.273759
0.218567
-0.151280
0.082725
-0.614057
0.002733
-0.677503
-0.455955
0.117619
-0.538973
-0.496274
-0.362989
-0.018628
0.579107
0.546872
-0.566254
0.308969
-0.288748
-0.568125
0.080438
0.852281
-0.187868
0.768377
-0.693486
-0.082315
-0.055434
0.228144
-0.136750
-0.218303
0.413067
-0.539604
0.651491
0.037266
0.449821
-0.858160
0.145885
-0.302800
-0.540531
-0.106998
0.199080
0.337212
-0.912267
-0.140711
-0.680182
0.532439
-0.065370
0.329928
-0.559016
0.280562
0.614274
0.008555
-0.063084
-0.450623
-0.298248
-0.671143
0.108217
-0.166669
-0.253137
-0.212864
0.469816
-0.402641
0.094133
0.162996
0.323329
0.081783
0.081372
0.176243
-0.011545
0.232768
-0.279741
-0.945142
0.160987
0.805806
-0.056482
0.468391
-0.066969
0.283104
-0.287376
0.283321
0.382412
-0.025276
1.054115
-0.001320
1.204749
-0.078062
0.130189
0.174554
0.484015
0.529622
0.710160
1.135637
0.137338
0.782271
0.896190
1.055013
-0.482696
-0.829796
-0.814651
0.357515
-0.188938
0.523680
0.859508
0.261612
0.044956
-0.666738
-0.330785
0.943669
0.628661
-0.511057
-0.135484
0.182139
-0.272829
0.428707
0.650510
0.143362
-0.118672
0.216087
1.090281
0.383347
0.778527
0.002251
0.532432
0.116183
0.193907
-0.373498
0.640222
0.238379
0.079199
0.831120
0.149544
-0.479884
0.318382
0.942006
0.436428
0.317610
-0.154162
0.582104
-0.093402
0.044583
0.719884
0.211707
-0.177412
0.190799
0.531478
0.026845
0.380065
-0.293019
0.066477
-0.907421
-0.241801
0.059567
-0.007871
0.034736
0.371555
0.800911
-0.454103
0.399226
-0.568091
-0.255487
-0.204404
-0.152483
-0.166523
0.302598
0.071030
0.358385
-0.223570
0.064634
0.003351
0.109914
-0.099175
-0.041461
-0.043705
-0.091782
0.111232
0.314738
-0.134479
-0.227961
-0.460895
-0.407977
0.141310
1.258976
-0.357158
-0.505055
0.055134
0.311635
0.551579
0.253956
-0.439064
0.331179
0.080136
0.301308
0.690043
-0.561084
-0.161142
0.166595
-0.469157
-0.540937
0.307083
-0.137016
-0.220816
0.236593
0.008455
0.608666
-0.165981
-0.693603
0.598771
-0.026529
0.300223
0.380528
0.138626
1.046282
0.087154
-0.130314
0.617477
-0.515844
-0.413319
-0.599435
-0.131823
-0.103039
-0.306732
0.654133
-0.166471
0.050085
0.420568
-0.100240
0.398124
0.565311
0.444199
0.427697
-0.571053
-0.153440
0.175003
0.238995
-0.039235
-0.548613
0.008092
0.437984
-0.005398
0.573686
0.522092
-0.004159
-0.335314
-0.444454
-0.167811
-0.019914
0.367846
-0.176307
0.650963
0.633000
0.512639
0.030182
0.276864
0.485117
-0.322982
-0.038328
0.029487
-0.214101
-0.416450
-0.022078
-0.600868
0.502872
-0.474640
0.159239
0.533379
0.037128
0.414019
0.553961
0.596956
0.186135
0.141953
-0.061573
0.356714
0.690630
0.305925
-0.412907
-0.165608
0.344257
-0.074979
0.188799
0.717555
-0.200750
-0.076627
0.966694
0.190282
0.562047
-0.104901
0.304606
0.204084
0.367578
0.092599
0.420006
0.772240
