-0.053133
0.002369
-0.060916
0.042193
-0.057331
0.058021
-0.041403
-0.021175
0.058903
-0.009609
-0.006516
-0.045787
-0.061290
0.003140
0.011501
0.056308
-0.016814
0.075819
0.034630
0.031219
0.021282
-0.004746
-0.018305
-0.051056
0.026851
-0.004858
-0.025006
-0.032653
0.097464
-0.001891
0.005899
0.046169
0.039468
0.005157
-0.028181
0.086223
0.051175
0.050985
0.009100
0.101679
0.002198
0.119009
0.110141
0.098300
0.006436
0.086481
0.179635
0.162297
0.119868
0.105294
0.179758
0.149473
0.213412
0.166876
0.150305
0.179265
0.158202
0.267230
0.222731
0.154418
0.185332
0.204279
0.253819
0.179313
0.200696
0.154415
0.086803
0.116477
0.126290
0.143328
0.174854
0.091501
0.112901
0.052066
0.104918
0.096098
0.045764
0.051070
0.180975
0.092666
0.101629
0.080070
0.049059
-0.012188
0.102162
-0.025408
0.128209
0.031425
0.041818
0.107101
0.136785
0.040710
0.095360
0.044560
0.018602
0.042550
0.114023
0.055961
0.020612
0.015809
0.051410
0.114511
0.052636
0.055829
0.057223
0.044734
0.018885
-0.034970
-0.017471
-0.009630
0.149817
0.300522
0.622494
1.043983
1.289687
1.370905
1.500000
1.222004
1.006016
0.730724
0.369165
0.123009
-0.078672
-0.168716
-0.325829
-0.208640
-0.156186
-0.067801
-0.108527
0.002854
0.013041
0.043446
0.103298
0.078358
0.049758
0.052970
-0.000021
0.088574
0.061898
0.147844
0.148192
0.077582
0.076984
0.079149
0.123590
0.103978
0.097765
0.068673
0.011626
0.046388
0.114571
0.084768
0.166934
0.099911
0.100329
0.102583
0.106136
0.152341
0.105684
0.150947
0.133762
0.218602
0.189150
0.259641
0.205372
0.199613
0.228779
0.337491
0.343677
0.252662
0.383806
0.309081
0.306000
0.374108
0.450390
0.417200
0.459584
0.534551
0.521000
0.508377
0.549028
0.530722
0.469426
0.632102
0.540595
0.631740
0.534073
0.553227
0.619493
0.475338
0.580989
0.600192
0.546987
0.539204
0.620552
0.428106
0.518077
0.482214
0.504833
0.433287
0.461847
0.417372
0.415398
0.381595
0.427618
0.247960
0.285299
0.243238
0.235564
0.248855
0.175917
0.256754
0.186683
0.221790
0.147642
0.195780
0.220896
0.196446
0.167413
0.146676
0.183646
0.056466
0.114515
0.076697
0.109459
0.097368
0.116533
0.053922
0.142119
0.120239
0.103346
0.086999
0.025204
0.055877
0.056000
0.111269
0.098543
0.006121
-0.006762
0.075870
0.139415
0.119060
0.133735
0.117986
0.063919
0.090151
0.101442
0.056399
0.154476
0.122435
0.056238
0.071590
0.064688
-0.021912
0.081449
0.033651
0.053806
0.074684
0.082914
0.069475
0.068283
-0.033107
0.091998
0.088000
0.049395
0.109855
0.088089
0.079546
0.096889
0.103834
0.126095
0.083533
0.030498
0.102019
0.092271
0.075530
0.075613
0.067897
0.034037
0.173140
0.053336
0.031006
0.085011
0.068985
0.014768
0.042552
0.000408
0.067698
0.039445
0.076682
0.047712
0.044876
0.087395
0.031321
0.012699
0.073179
0.061048
0.062670
0.023990
0.034400
0.065116
0.100623
0.083801
0.093386
0.059479
0.048961
0.045214
0.077647
0.061374
0.052968
0.094311
0.009854
0.011219
0.096826
0.010747
0.075206
0.066652
0.101946
0.058471
-0.007470
0.115609
-0.000723
-0.035686
0.006308
0.064445
0.060941
0.105180
0.120020
0.037116
0.085997
0.128212
0.097709
0.146017
0.058365
0.182982
0.196115
0.106859
0.224111
0.138596
0.163701
0.089174
0.121685
0.178734
0.135726
0.169264
0.243853
0.201320
0.269118
0.183857
0.244835
0.195246
0.169635
0.097031
0.172513
0.214413
0.205372
0.158198
0.069208
0.087342
0.103733
0.124173
0.041857
0.169830
0.072556
0.053665
0.110919
-0.010515
-0.024676
0.092480
0.000247
0.051040
0.067112
0.146415
0.001834
0.053750
0.093533
0.055561
0.008086
-0.053136
0.041229
-0.000130
-0.019212
-0.013714
0.017211
-0.053477
-0.038980
0.019538
-0.018751
-0.008253
0.102113
0.089017
0.130450
0.015312
0.015373
-0.037864
-0.033395
-0.117443
-0.074182
0.070480
0.165285
0.452379
0.762118
1.086955
1.295685
1.390959
1.236780
1.109066
0.775436
0.404659
0.285321
-0.064677
-0.125383
-0.341786
-0.265416
-0.288053
-0.241285
-0.150427
-0.125807
-0.049656
-0.061588
0.031175
-0.023797
-0.024246
-0.080383
-0.016145
-0.033393
-0.023186
0.001663
-0.005259
0.041377
-0.001052
-0.025923
0.013398
-0.011337
-0.006987
0.032953
0.013920
-0.049199
0.061741
-0.036852
0.018303
-0.000263
0.050911
0.007701
0.064152
-0.009041
-0.018067
0.049695
0.060850
0.048067
0.026294
0.076574
0.116475
0.131788
0.153848
0.194635
0.256632
0.212471
0.229427
0.288220
0.214198
0.255672
0.277590
0.325496
0.340112
0.400081
0.326715
0.406672
0.388681
0.474321
0.393652
0.437712
0.406871
0.459723
0.404794
0.424832
0.463703
0.467666
0.449685
0.400471
0.496412
0.481537
0.376944
0.341821
0.415298
0.395504
0.428196
0.330074
0.298895
0.297387
0.263722
0.258624
0.234749
0.276883
0.253558
0.199856
0.189190
0.152100
0.147431
0.085169
0.098654
0.152559
0.074731
0.088201
0.025481
0.110711
0.008457
0.004919
0.011922
-0.002887
-0.006060
0.014852
0.018567
-0.012265
-0.003145
-0.004357
0.020955
0.031562
-0.046425
-0.006049
-0.011116
-0.067990
-0.032384
-0.004189
-0.083015
-0.024979
-0.066099
-0.082500
-0.070277
-0.065077
-0.078632
-0.072608
-0.005348
-0.014052
-0.072106
0.013714
0.000225
-0.004651
-0.024680
-0.018444
-0.085945
-0.037353
-0.071023
-0.035115
-0.029181
0.006222
-0.012683
-0.093044
-0.116289
-0.041247
-0.051256
-0.055698
-0.095556
-0.063619
0.011158
-0.008228
-0.008399
-0.136319
-0.019836
-0.085358
-0.148329
-0.036630
-0.042772
-0.048957
-0.087083
-0.025718
-0.078588
0.027040
-0.004044
-0.024388
-0.042449
-0.069250
-0.071334
-0.037971
-0.120354
-0.026997
-0.048331
-0.004095
-0.112805
-0.021805
-0.003754
-0.054342
-0.059357
-0.045259
-0.008836
-0.067170
-0.033590
-0.115653
-0.070359
-0.072606
-0.074687
0.036926
-0.057732
-0.103213
-0.058197
-0.048306
-0.057408
-0.046329
-0.002536
-0.033289
-0.014313
-0.063688
-0.015642
-0.040128
-0.066191
-0.041989
-0.021568
0.006076
-0.083854
-0.051325
0.078399
-0.044703
0.023098
-0.024012
0.003758
-0.013945
0.002126
-0.078973
0.009378
-0.033485
-0.002147
0.061581
-0.023443
0.057959
0.130704
0.107046
0.083429
0.184449
0.131269
-0.008199
0.125000
0.056805
0.143598
0.127891
0.149656
0.125593
0.227531
0.131604
0.115033
0.117818
0.177086
0.136183
0.076728
0.100873
0.076313
0.081137
0.050764
0.087826
0.017866
0.034705
0.023893
-0.003303
0.014180
-0.024326
0.019273
0.032473
0.024346
0.058887
-0.046147
-0.042573
-0.033848
-0.001624
0.020459
0.039077
-0.012196
-0.026132
-0.081656
0.043306
0.023955
-0.083593
-0.051977
0.012253
-0.019459
-0.041286
0.039951
0.019559
0.071534
-0.053859
-0.034907
-0.059691
0.004825
-0.007998
-0.010616
-0.097212
-0.064528
-0.111791
-0.094044
0.124121
0.301664
0.628754
0.976765
1.234505
1.354392
1.393951
1.221001
0.867264
0.537522
0.274732
0.100359
-0.135987
-0.310161
-0.349709
-0.345863
-0.184465
-0.116754
-0.125945
-0.049394
0.002668
-0.006492
0.000675
-0.009800
-0.016828
0.050483
0.057403
-0.018982
-0.072970
-0.027464
0.007297
0.011158
0.054665
-0.015627
0.027522
0.047954
-0.002562
0.044167
0.041771
0.015225
0.047762
0.036601
0.098301
0.097135
0.002135
0.021162
0.017979
0.052774
0.145547
0.164817
0.035279
0.081647
0.094360
0.130680
0.232705
0.245154
0.329821
0.236869
0.251463
0.204664
0.285954
0.362838
0.337293
0.282630
0.398385
0.322063
0.424463
0.374058
0.361821
0.487841
0.465175
0.611991
0.507372
0.536368
0.546057
0.515211
0.538762
0.518729
0.536213
0.470081
0.481053
0.438743
0.486324
0.516129
0.456066
0.442137
0.460065
0.444282
0.391740
0.393399
0.417602
0.404727
0.364515
0.300200
0.308349
0.338662
0.269860
0.250876
0.247749
0.246305
0.179304
0.091542
0.156648
0.145293
0.163778
0.137608
0.009198
-0.007702
0.111844
0.118034
0.179148
0.089566
0.096753
0.044708
0.105185
0.048678
0.055463
0.068303
0.087556
0.048413
0.051393
0.061401
-0.033132
0.040868
0.047765
0.083083
0.114194
-0.011000
0.059385
0.087707
0.044772
0.007242
0.017115
0.099398
0.033833
0.127403
0.066788
0.069595
0.119418
0.055683
0.157313
0.091460
0.020545
0.050718
0.109892
0.021021
0.047062
0.087082
0.066528
0.056215
0.071905
0.103040
0.057326
0.070328
0.051038
0.061480
0.058930
0.087534
0.085492
0.062851
0.117157
0.159167
0.107745
0.105274
0.066656
0.060040
-0.014945
0.047529
0.075990
0.042422
0.082526
0.015302
0.104438
0.083225
0.069340
0.102079
0.010888
0.039174
0.066031
0.085001
0.080090
0.136649
0.099092
0.058386
0.064874
0.092155
0.042538
0.125649
0.045192
0.103671
0.094094
0.068358
0.147918
0.016077
0.078533
0.066612
0.087443
0.143604
0.076364
0.066904
0.053571
0.065429
0.145135
0.069227
0.039701
0.141216
0.044102
0.035465
0.057119
0.109070
-0.011034
0.110854
0.040146
0.097405
0.125481
0.115531
0.040260
0.131901
0.111622
0.123223
0.163363
0.156469
0.138498
0.140019
0.124505
0.175393
0.157246
0.176574
0.183952
0.161000
0.239820
0.242121
0.195626
0.181107
0.256252
0.275338
0.281603
0.208714
0.256081
0.288432
0.254598
0.232661
0.130179
0.242243
0.229263
0.223723
0.166067
0.122445
0.143772
0.181520
0.130176
0.136934
0.138812
0.209272
0.142097
0.087751
0.147072
0.154015
0.145663
0.103624
0.025327
0.080237
0.098209
0.138612
0.057401
0.070052
0.075947
0.108511
0.066033
0.112267
0.160407
0.089629
0.116254
0.026619
0.104535
0.051140
0.081054
0.104293
0.040999
0.017464
0.209820
0.111140
0.010864
0.085226
0.077931
0.060899
-0.050846
-0.002150
0.131735
0.252990
0.540738
0.913055
1.223215
1.411335
1.462581
1.442022
1.091874
0.798479
0.428792
0.262396
-0.012503
-0.165824
-0.253081
-0.299040
-0.227647
-0.038573
-0.045676
0.052676
0.080559
0.068655
0.049157
0.082982
0.090707
-0.013184
0.038702
0.058427
0.028143
0.144265
0.107695
0.041560
0.082035
0.120089
0.102555
0.047249
0.013740
0.074881
0.059928
0.103051
0.118382
0.121837
0.131009
0.079163
0.112131
0.125039
0.076042
0.107616
0.200999
0.169478
0.164564
0.175382
0.215096
0.092598
0.238059
0.259127
0.256894
0.205648
0.280996
0.263688
0.351697
0.366050
0.320666
0.414016
0.316892
0.383167
0.360349
0.444331
0.526628
0.408770
0.512878
0.444795
0.487030
0.485374
0.540000
0.508734
0.591059
0.514419
0.564268
0.442058
0.581433
0.560245
0.471085
0.476795
0.446873
0.486791
0.446168
0.447338
0.498155
0.363814
0.380824
0.397557
0.364299
0.283906
0.302678
0.309021
0.296987
0.306281
0.311895
0.180151
0.200045
0.178325
0.196585
0.130956
0.124537
0.166596
0.102672
0.093208
0.087125
0.203414
0.071719
0.109386
0.062358
0.126483
0.029197
0.043794
0.040913
0.066104
0.039776
0.039615
0.136444
-0.018354
-0.003390
0.037893
0.031653
0.042739
0.035156
-0.000802
0.080723
0.061114
-0.008627
0.034974
-0.081285
-0.040855
-0.002517
0.070186
-0.044634
-0.050690
0.130848
0.036848
0.120055
0.041690
0.050119
0.061948
-0.007437
0.063051
0.033687
0.000172
0.019982
0.036073
-0.020577
0.070496
-0.041857
-0.046828
0.068203
0.060821
0.100711
-0.036051
0.065128
-0.012015
0.026770
0.029205
0.012959
0.024560
-0.017948
0.019903
-0.011036
0.070451
-0.004867
0.013075
-0.031552
0.033146
-0.002170
-0.075994
0.098627
0.053377
-0.008804
-0.033516
-0.015023
-0.019103
-0.026926
0.007905
0.008451
-0.003731
-0.031440
-0.036436
0.052038
0.005926
-0.054365
0.041465
-0.072538
0.013417
-0.037967
0.016427
0.025609
-0.038365
-0.037639
-0.007283
-0.056831
-0.005343
0.034878
-0.000758
0.020849
0.006592
-0.089339
0.039062
-0.035626
0.016058
-0.051028
-0.038757
0.012893
-0.051777
-0.043556
-0.030754
0.001239
-0.025125
0.056148
-0.098737
0.004845
0.036800
-0.016616
0.020236
0.003518
0.084975
-0.036114
0.099248
0.045452
0.030153
0.042785
0.070371
0.162107
0.168394
0.107768
0.081061
0.040528
0.165687
0.157076
0.082646
0.207198
0.142749
0.032634
0.108205
0.103786
0.141800
0.136917
0.066943
0.152669
0.051678
0.026033
0.046843
-0.000357
0.035185
-0.008821
-0.002269
-0.064447
0.106024
0.027359
-0.108080
0.055409
0.040697
-0.017415
0.004811
-0.042713
-0.075666
-0.079231
-0.006561
-0.103162
-0.078241
-0.108582
-0.046921
-0.053150
-0.023107
-0.059498
-0.090670
-0.067258
-0.064741
-0.098787
-0.085930
-0.049912
-0.038617
-0.137209
-0.054769
-0.053251
-0.167914
-0.079674
-0.171937
-0.149853
-0.212707
-0.083484
0.057044
0.257609
0.637006
0.899495
1.197346
1.293444
1.306761
1.088478
0.829650
0.486722
0.285346
-0.029607
-0.179018
-0.372304
-0.386943
-0.350895
-0.306155
-0.157824
-0.144118
-0.136499
-0.158036
-0.089214
-0.037293
-0.033067
-0.078581
0.013027
-0.019621
-0.065587
-0.105532
-0.029473
-0.039127
-0.080494
-0.091297
-0.101050
-0.152635
-0.053988
-0.041764
-0.107930
-0.089906
-0.085325
-0.126559
-0.066326
-0.113836
-0.080628
0.030670
-0.022454
-0.012387
0.023542
-0.007695
0.037430
0.050732
0.023223
0.023629
0.047992
0.114137
0.076731
0.058586
0.108493
0.226553
0.221893
0.180996
0.205043
0.204110
0.227206
0.240852
0.294264
0.309545
0.292962
0.324532
0.330485
0.368237
0.323541
0.354755
0.368402
0.494767
0.450709
0.480982
0.408595
0.429753
0.324849
0.320590
0.373529
0.351285
0.309787
0.368244
0.375318
0.342481
0.220284
0.317193
0.294483
0.323094
0.241044
0.242872
0.174344
0.208694
0.179068
0.121649
0.089986
0.080466
0.094790
0.119077
0.053013
0.081718
0.041818
0.072497
0.048282
0.001749
0.042218
-0.028905
0.027725
-0.038898
-0.065967
-0.025217
-0.009321
-0.023477
0.026748
0.006853
-0.019898
-0.033579
-0.016356
-0.021636
-0.110994
-0.031361
-0.101243
-0.075768
-0.099963
-0.141064
-0.100640
-0.021665
-0.108138
-0.069807
-0.143646
-0.107641
-0.163632
-0.067986
-0.117248
-0.004032
-0.026760
-0.013524
-0.050261
-0.060913
-0.076198
-0.121231
-0.130848
-0.053837
-0.087541
-0.068065
-0.089249
-0.036463
-0.076562
-0.017623
-0.070269
-0.062141
-0.005203
-0.032026
0.001528
-0.062157
-0.077145
-0.048166
-0.039415
-0.072717
-0.028169
0.019979
-0.084925
-0.045950
-0.048362
-0.007804
-0.131332
-0.087121
-0.081131
-0.120301
-0.072764
-0.062457
-0.036090
-0.071770
-0.058087
-0.067007
-0.020198
-0.045024
-0.099211
-0.054983
-0.073925
-0.048260
-0.056811
-0.074640
-0.039902
-0.052437
-0.053282
-0.001479
-0.062027
-0.075317
-0.080687
-0.045497
-0.129375
-0.051533
-0.034960
0.014510
-0.021810
-0.048363
-0.014651
-0.000254
-0.020924
-0.057907
-0.015745
-0.022856
-0.026213
-0.023781
-0.061159
-0.138177
-0.023689
-0.021397
-0.014593
0.047892
-0.027688
-0.009075
-0.042188
-0.098536
0.002220
0.003197
-0.058048
-0.010806
0.023474
0.044080
0.060151
0.076569
0.135963
0.028804
0.104623
0.117138
0.029679
0.124764
0.146134
0.092419
0.143019
0.063500
0.159057
0.221655
0.139087
0.190350
0.168248
0.085715
0.184806
0.080776
0.118189
0.091707
0.052270
0.138410
0.111161
0.042301
0.009665
0.082202
0.029467
0.090985
-0.007997
0.026079
0.074935
-0.027029
0.066055
-0.028878
-0.000479
0.078736
-0.004108
0.073213
0.014609
0.009071
-0.005231
-0.024841
-0.039776
-0.058752
-0.130903
0.019168
-0.011855
-0.063928
0.013013
-0.066495
0.066464
0.049251
-0.001751
-0.011110
0.023845
0.101955
0.005146
0.041032
0.047058
-0.041656
-0.160601
-0.109397
-0.023269
0.031184
0.218659
0.493492
0.911008
1.073735
1.409889
1.316288
1.281450
1.004655
0.677083
0.378131
0.163067
-0.084985
-0.185399
-0.311279
-0.316686
-0.279418
-0.258774
-0.046969
-0.063669
-0.093045
0.031853
0.038623
0.047452
0.004569
0.019362
-0.017061
0.125381
-0.032316
0.053242
0.022586
0.108043
-0.010342
-0.030297
0.033925
0.016829
0.022186
0.015245
-0.000553
0.083610
0.003976
-0.010186
0.090981
0.087036
-0.020917
0.059655
0.053873
0.089228
0.180688
0.099881
0.031353
0.158290
0.124943
0.143204
0.172864
0.226746
0.209758
0.229811
0.192937
0.275893
0.248668
0.243844
0.325317
0.279962
0.363876
0.338190
0.418383
0.427683
0.388129
0.371512
0.422546
0.478170
0.518849
0.528584
0.435640
0.516833
0.471234
0.535844
0.480970
0.573489
0.533292
0.596365
0.529917
0.475753
0.466159
0.475527
0.458150
0.368542
0.396551
0.478840
0.318284
0.309669
0.385010
0.387015
0.272036
0.190317
0.273181
0.254513
0.265472
0.274395
0.227588
0.156588
0.133317
0.144174
0.059878
0.140075
0.055406
0.069538
0.007319
0.092671
0.092925
0.062793
0.114231
0.116757
0.119658
0.081617
0.046280
0.057348
0.050280
0.074579
0.092650
-0.007574
0.026790
0.061683
0.056186
0.116976
-0.047166
0.048644
-0.006260
0.021017
0.026643
0.112051
0.035719
0.099352
0.079708
0.053010
0.064059
-0.027339
-0.012035
0.056062
0.010850
0.051643
0.044440
0.079900
0.061130
0.091314
-0.015017
-0.009979
0.068282
0.041938
0.072727
0.088678
0.021122
0.045568
0.025505
-0.007333
0.037740
0.041958
0.043678
0.091671
-0.019535
0.079996
0.079947
0.127782
0.090943
0.023866
0.069557
0.068623
0.124961
0.113866
0.057048
0.061917
0.081576
-0.002188
0.082860
0.094912
0.042991
0.046484
0.066415
-0.006886
0.103698
0.081729
0.017406
0.057239
0.061268
-0.038597
0.109592
-0.059734
0.064118
0.089502
0.001889
0.130445
0.022494
-0.009119
0.055614
0.043201
0.008739
0.030797
0.017395
-0.040859
0.035999
0.089048
0.010655
0.010113
0.016177
0.059413
0.010720
0.051454
-0.001914
0.048327
0.009578
0.079581
-0.001584
0.099970
0.001237
0.012092
0.061753
0.030692
0.048602
0.072631
0.103815
0.085557
0.050361
0.112643
0.089376
0.133431
0.090435
0.038076
0.169878
0.169060
0.108159
0.244197
0.192630
0.199939
0.262933
0.169795
0.168322
0.155553
0.235548
0.131843
0.152726
0.209605
0.212359
0.071658
0.143100
0.117056
0.044363
0.179628
0.129445
0.141590
0.046886
0.063778
0.079503
0.011364
0.055415
0.053350
0.024787
-0.006572
-0.040315
0.049268
-0.043701
-0.057615
0.039055
-0.022715
-0.035683
0.026203
0.041646
-0.026846
0.025787
0.026621
-0.019820
0.050591
0.044981
0.015516
0.064864
-0.023481
0.050023
0.013397
0.018329
-0.003377
-0.036353
0.027995
0.015848
-0.015739
-0.062983
-0.049707
-0.118107
-0.082218
0.029151
0.070670
0.335995
0.690671
0.961060
1.258027
1.397382
1.332063
1.158629
0.796032
0.540270
0.314102
0.044808
-0.159437
-0.259336
-0.330973
-0.320567
-0.236702
-0.105108
-0.106156
0.012918
0.018789
0.013819
-0.015768
-0.040002
-0.031756
-0.014730
-0.005279
-0.048210
-0.034122
0.001001
-0.091067
-0.074990
0.008080
-0.057078
0.045092
-0.009077
0.029673
0.058328
0.035461
0.005111
-0.032983
-0.022176
0.026890
0.020414
0.005932
0.074379
-0.045166
0.077239
0.131233
0.015678
0.028691
0.105997
0.142273
0.050085
0.077911
0.111776
0.205588
0.096066
0.220970
0.276629
0.206014
0.309523
0.294940
0.248078
0.305649
0.238116
0.270795
0.358095
0.375038
0.365893
0.454877
0.412591
0.373263
0.471646
0.351274
0.471325
0.434978
0.493622
0.471930
0.415154
0.421490
0.444733
0.509715
0.386517
0.444540
0.320525
0.315547
0.377527
0.380776
0.301761
0.266960
0.263866
0.287770
0.238403
0.249102
0.198452
0.136222
0.121695
0.175795
0.163511
0.114292
0.070579
0.084322
0.074475
0.035778
0.036010
0.073063
0.067175
0.064667
-0.032632
0.017153
-0.015440
-0.040611
-0.059313
-0.046584
-0.098059
-0.058301
-0.101688
-0.079622
-0.001464
0.016557
-0.072259
0.035318
-0.056548
-0.142390
-0.087257
-0.100635
-0.070355
-0.114985
-0.110781
0.002103
-0.067079
-0.071980
-0.084130
-0.070468
-0.030662
-0.099635
-0.060124
-0.073625
-0.063101
-0.102748
-0.061948
-0.068746
0.001676
-0.071455
-0.028211
-0.086376
-0.131092
-0.040451
-0.070093
-0.106180
-0.112706
-0.035891
-0.023294
-0.073465
-0.142784
-0.149939
-0.026989
-0.101783
-0.070773
-0.068437
-0.110595
-0.134180
-0.110998
-0.183008
-0.023893
-0.058275
-0.107796
-0.106673
-0.007404
-0.104981
-0.057102
-0.082664
-0.050052
-0.138932
-0.093541
-0.106341
-0.055672
-0.112063
-0.060856
-0.118132
-0.036798
-0.121419
-0.111967
-0.118147
-0.186778
-0.131975
-0.077751
-0.112243
-0.027882
-0.049807
-0.090440
-0.152045
-0.112203
-0.115011
-0.130710
-0.081269
-0.103487
-0.093217
-0.061969
-0.061960
-0.151130
-0.076375
-0.148951
-0.158291
-0.030902
-0.068503
-0.066882
-0.074222
-0.093704
-0.101056
-0.151299
-0.063992
-0.096411
-0.036821
-0.110631
-0.062026
-0.038130
-0.010098
-0.070289
-0.069245
0.030883
-0.018976
-0.041743
0.049857
-0.054298
-0.005821
0.049719
0.035748
0.013401
0.097644
0.090565
0.033261
0.112333
0.093274
0.097405
0.066888
-0.027637
0.063503
0.045408
0.109094
0.049652
0.044454
0.114157
0.035440
0.053292
-0.064388
0.037399
0.061345
-0.008862
0.010550
-0.008053
0.008651
-0.068665
-0.045297
-0.055567
-0.088524
-0.026037
-0.103166
-0.036004
-0.074663
-0.150439
-0.070225
-0.071453
-0.160466
-0.046560
-0.072243
-0.080269
-0.126415
-0.119610
-0.101494
-0.110231
-0.120944
-0.161033
-0.012551
-0.089897
-0.111886
-0.079578
-0.093971
-0.091599
-0.104445
-0.087697
-0.173931
-0.109313
-0.119278
-0.156905
-0.146825
-0.105828
-0.085819
0.088561
0.339157
0.765278
1.028935
1.254477
1.201453
1.076636
0.998442
0.588677
0.313998
0.099985
-0.098430
-0.336465
-0.366031
-0.391240
-0.311075
-0.311569
-0.216383
-0.121894
-0.188279
-0.123388
-0.130947
-0.111834
-0.187015
-0.110484
-0.195646
-0.073134
-0.053749
-0.025268
-0.065307
-0.006897
-0.100361
-0.067622
-0.065538
-0.059448
-0.086165
-0.114461
-0.046792
-0.066368
-0.049439
-0.032121
-0.022916
0.050415
-0.027561
-0.006978
-0.043660
-0.082694
0.022385
0.000159
-0.004351
0.070828
-0.069312
0.072065
0.168137
0.112102
0.044888
0.155921
0.102441
0.140484
0.101269
0.200427
0.198607
0.186234
0.294932
0.307455
0.314839
0.344943
0.303575
0.373439
0.391285
0.417354
0.385488
0.413640
0.367077
0.423987
0.350686
0.419658
0.491733
0.405533
0.489047
0.370494
0.417325
0.414633
0.421815
0.339989
0.352730
0.386408
0.281223
0.288658
0.274759
0.308649
0.244111
0.230998
0.225712
0.237356
0.171371
0.151465
0.153371
0.166745
0.156085
0.052005
0.137833
0.058854
0.110018
0.024936
-0.018934
0.041650
-0.022058
0.049484
-0.021520
0.017905
-0.028698
-0.055883
0.071492
0.013743
0.007026
0.007324
-0.023929
0.033361
-0.033578
-0.008916
-0.085426
-0.029617
-0.007847
-0.051316
-0.035843
-0.041533
-0.085198
-0.001067
-0.003108
-0.027232
-0.034843
0.018871
-0.056235
-0.032050
0.011838
-0.001236
0.010092
-0.010387
-0.000989
0.021244
0.016798
-0.045754
-0.055618
-0.010392
0.041225
-0.001738
0.076486
-0.044410
-0.084137
-0.021602
0.047173
0.003022
-0.026568
0.023926
-0.001936
-0.046471
0.013471
-0.049079
-0.021713
0.042717
-0.101723
-0.013309
0.033419
0.026283
-0.015795
0.002640
0.039129
0.031329
0.071619
0.002194
-0.051823
-0.024395
-0.020319
-0.040250
0.039367
-0.042730
-0.066961
-0.000604
0.036919
-0.037491
0.034822
-0.007639
-0.057857
0.019733
0.004260
-0.007570
0.047469
0.071463
0.051967
0.012667
0.047613
0.025534
-0.038879
0.001215
-0.002441
-0.043115
-0.020606
0.026637
0.096018
-0.047357
0.066487
0.053229
0.002921
0.070252
-0.070927
-0.022768
0.011154
0.077042
0.091945
0.005419
0.015559
0.064932
0.037017
0.094744
0.098270
0.060656
0.138078
0.116396
0.113330
0.047319
0.124178
0.009652
0.082389
0.113889
0.126329
0.166926
0.137520
0.161989
0.104895
0.208749
0.183637
0.159086
0.194799
0.195984
0.225110
0.181550
0.296458
0.278505
0.212259
0.158224
0.257015
0.220047
0.189451
0.139801
0.140732
0.177555
0.160857
0.136066
0.038432
0.199801
0.070827
0.072631
0.029340
0.074399
0.142671
0.064391
0.130187
0.036074
0.028275
0.085786
0.141377
0.064548
0.032319
0.038396
0.044171
0.077747
0.159535
0.088161
0.058848
0.063533
0.114907
-0.009090
0.028719
0.069615
0.098970
0.046811
0.109697
-0.051676
0.059515
0.081309
0.018510
0.110460
0.091109
-0.009558
-0.009975
-0.089310
-0.025827
0.231760
0.487754
0.702799
1.044444
1.361250
1.396374
1.358384
1.183244
0.896267
0.525666
0.327086
0.054028
-0.086293
-0.193851
-0.223009
-0.251124
-0.224830
-0.076277
-0.042791
-0.064238
0.104612
0.056973
0.099305
0.038941
0.030289
0.104238
0.081190
0.049946
0.010415
0.067875
0.054740
0.078818
0.036630
0.005448
0.104980
0.141916
0.134586
0.052455
0.108424
0.093417
0.098092
0.024586
0.109030
0.095050
0.221889
0.153075
0.109897
0.024576
0.113350
0.103806
0.179771
0.160896
0.143946
0.106313
0.189640
0.197242
0.283636
0.219468
0.247551
0.338641
0.380883
0.279721
0.367562
0.372883
0.469841
0.349589
0.510938
0.432358
0.424074
0.527482
0.484584
0.588865
0.518809
0.484398
0.596460
0.574274
0.573893
0.563753
0.545500
0.572699
0.512702
0.574167
