0.089439
-0.038090
0.010367
-0.051113
0.026049
-0.079625
0.017748
0.038748
0.031231
0.020668
0.002910
-0.023002
-0.025316
0.004675
-0.017529
0.006830
0.124598
0.005478
0.018276
-0.001387
0.077433
0.078245
0.113588
0.065586
0.071700
0.107910
0.008150
0.087923
-0.002484
0.098610
0.066892
0.099375
0.070902
0.093518
0.169469
0.151070
0.167104
0.101820
0.264242
0.176753
0.287574
0.184185
0.173002
0.157608
0.202709
0.214351
0.134556
0.249511
0.238913
0.140630
0.160820
0.243212
0.178556
0.077435
0.137072
0.016306
0.127733
0.057511
0.111679
0.167075
0.166560
0.032416
-0.015863
-0.012965
0.036996
0.121913
-0.001425
0.078367
0.084403
0.002634
-0.003055
0.114441
0.002790
0.104528
0.025841
-0.022701
0.046801
0.043416
0.009633
0.159298
0.243939
0.569442
0.915823
1.172331
1.366348
1.305640
1.204013
0.916170
0.634734
0.235792
-0.014229
-0.131018
-0.196337
-0.232672
-0.013749
-0.021126
0.019574
0.069903
0.063633
0.045585
0.073343
0.077863
0.105558
0.103090
0.071454
0.069032
0.156934
0.150129
0.164129
0.164201
0.194276
0.167637
0.218958
0.212178
0.194076
0.282537
0.240504
0.253855
0.275296
0.306296
0.314808
0.343537
0.339641
0.379358
0.347707
0.461962
0.371338
0.464440
0.479188
0.495564
0.525165
0.518890
0.584164
0.511135
0.541372
0.638247
0.562675
0.526452
0.603143
0.545265
0.515782
0.551628
0.585981
0.551753
0.546539
0.396934
0.467829
0.435694
0.462675
0.365006
0.421942
0.392657
0.326551
0.404651
0.368597
0.351343
0.276966
0.213663
0.303037
0.279925
0.237184
0.247455
0.189126
0.209960
0.200822
0.170122
0.209775
0.130994
0.199865
0.163539
0.111310
0.172841
0.137111
0.123320
0.099635
0.132061
0.130084
0.139780
0.083373
0.003380
0.113086
0.057346
0.064815
0.097099
0.086779
-0.045587
0.071052
0.096012
0.161572
0.086770
0.005601
0.049522
0.102823
0.129073
0.073534
0.081329
0.098271
0.083468
0.080578
0.078881
0.149556
0.062728
0.149046
0.037108
0.144121
0.062318
0.105718
0.121693
0.030376
0.141351
0.142777
0.061878
0.030685
0.133260
0.086350
0.157913
0.031606
0.086338
0.111180
0.102352
0.089617
0.115817
0.059166
0.084451
0.012606
0.094596
0.084146
0.141673
0.116721
0.065797
0.111147
0.101144
0.127619
0.152109
0.075608
0.031571
0.083495
0.033093
0.130100
0.103338
0.184311
0.143988
0.208404
0.306262
0.209053
0.174961
0.164398
0.294041
0.232591
0.203160
0.232076
0.220649
0.208621
0.352650
0.247186
0.278423
0.259602
0.237489
0.234245
0.205507
0.265018
0.188337
0.143992
0.243130
0.159910
0.219150
0.107403
0.130165
0.103994
0.156902
0.126436
0.053801
0.093375
0.214983
0.108085
0.050551
0.160419
0.087879
-0.006463
0.060707
0.055343
0.014221
0.037563
0.115946
0.070466
0.070191
0.027338
0.031524
0.025169
-0.068546
0.038106
0.276706
0.554827
0.851699
1.098628
1.321004
1.433404
1.312600
1.024704
0.581037
0.314411
0.032017
-0.072689
-0.161129
-0.214034
-0.147580
-0.025929
0.017877
0.093475
0.077738
0.021748
0.004835
-0.003945
0.122839
0.139302
0.109748
0.078866
0.129065
0.113889
0.090630
0.148478
0.070201
0.141325
0.178648
0.170841
0.225865
0.202330
0.204577
0.288335
0.174349
0.319564
0.314392
0.349543
0.379316
0.387854
0.389079
0.377140
0.355722
0.335971
0.382038
0.528432
0.441859
0.518158
0.576308
0.566109
0.496629
0.577618
0.498767
0.532930
0.489160
0.498181
0.564054
0.464091
0.467091
0.535026
0.456749
0.487294
0.432893
0.424413
0.411504
0.452992
0.400827
0.327176
0.344590
0.339677
0.301493
0.301418
0.239114
0.248037
0.217892
0.203887
0.150971
0.112572
0.158372
0.069071
0.152844
0.148256
0.154559
0.144714
0.124046
0.067805
0.159249
0.125068
0.078460
0.019996
0.060140
0.035701
0.031693
0.055657
0.081469
0.039916
0.035576
0.017092
-0.012205
0.052138
0.062740
-0.000885
-0.034600
0.020185
0.077822
-0.016166
0.022877
0.012847
0.065567
-0.053824
0.125614
-0.027465
-0.067355
-0.038321
0.038480
-0.024913
0.033847
0.053762
0.018401
0.020599
-0.031453
0.076205
-0.011727
-0.079644
-0.011827
-0.063668
-0.012823
-0.040266
-0.022757
-0.000028
0.007414
-0.015848
0.014645
0.044809
-0.020695
0.027709
0.010538
-0.053543
0.026960
0.043085
0.017898
-0.058345
0.034720
0.063697
0.012503
-0.058437
0.033206
0.055685
0.051740
0.004761
-0.041697
0.028110
0.031337
0.044110
0.043423
0.064336
0.103173
0.034422
0.072520
0.008931
0.050161
0.078930
0.147845
0.062483
0.157491
0.098504
0.217601
0.139750
0.132576
0.175275
0.069609
0.197749
0.109553
0.159408
0.145719
0.093402
0.153246
0.137454
0.121464
0.090926
0.021911
0.057673
0.061404
0.057795
0.073019
0.107745
0.078818
0.046328
0.018751
0.032516
-0.018506
0.022910
-0.060919
0.056141
-0.026905
-0.018188
-0.018937
-0.004099
-0.084388
-0.040518
-0.019254
-0.135223
-0.030284
-0.037679
-0.130822
-0.081495
-0.040233
0.003821
0.325140
0.564200
0.892490
1.145627
1.268886
1.139229
0.991466
0.664653
0.359869
0.008521
-0.162921
-0.276494
-0.238692
-0.135348
-0.074620
-0.074620
-0.045588
-0.010536
0.014871
0.002459
0.075330
-0.035633
-0.061643
0.095880
0.039270
-0.021504
0.063592
-0.003142
0.109939
0.101405
0.006301
-0.034140
0.088428
0.096192
0.073116
0.167947
0.123073
0.194708
0.199613
0.168900
0.150639
0.170559
0.231908
0.272517
0.285041
0.364037
0.301589
0.336991
0.364435
0.388729
0.476409
0.364397
0.394064
0.439339
0.374680
0.465009
0.435173
0.434619
0.490260
0.381479
0.410707
0.387817
0.427529
0.398581
0.425496
0.342184
0.339332
0.344952
0.313515
0.361865
0.294471
0.270363
0.324555
0.327731
0.203043
0.252495
0.212091
0.258938
0.163563
0.118990
0.070337
0.085867
0.081756
0.064767
-0.012944
-0.014666
0.073796
0.022154
0.016623
0.110889
-0.066235
0.019983
-0.053538
-0.035625
-0.048629
0.032878
-0.060376
-0.016885
-0.050069
0.018491
-0.027871
-0.006106
-0.029170
-0.086374
-0.011843
-0.035749
-0.068373
-0.120761
-0.035586
0.019350
-0.099720
0.033142
-0.107207
0.008254
-0.039166
0.049335
-0.015148
0.001081
-0.017225
-0.050560
-0.048562
-0.027652
0.014627
0.006925
-0.055997
-0.050334
-0.074941
-0.039094
-0.019028
-0.070306
-0.064756
-0.053964
-0.034027
-0.056722
-0.033171
-0.042838
-0.033913
-0.017141
-0.018907
-0.007850
-0.042089
-0.069356
0.015124
-0.072297
-0.068209
-0.072456
-0.101872
-0.042057
-0.010456
0.013819
-0.059869
0.022771
-0.045661
-0.007397
0.060954
-0.033628
-0.019126
0.038608
0.022484
0.050660
0.111666
0.111865
0.048361
0.052618
0.111553
0.103504
0.115611
0.125489
0.137740
0.139220
0.131883
0.181765
0.127649
0.154599
0.158630
0.079456
0.202651
0.141480
0.114473
0.127219
0.103917
0.103746
0.066746
0.088472
0.016438
0.078508
0.063898
0.033275
-0.001112
0.083441
0.043711
0.033279
-0.044122
0.015111
0.004033
0.033291
0.014372
0.015364
0.008195
-0.084380
-0.047548
-0.054849
0.011588
-0.011344
-0.039341
0.014291
-0.004832
-0.038045
-0.057699
-0.002397
0.039286
0.244927
0.542989
0.943764
1.184325
1.343847
1.279289
1.123693
0.889391
0.455209
0.107000
-0.001962
-0.233688
-0.321670
-0.154532
-0.127865
-0.036681
-0.040119
0.056058
0.009148
0.012152
0.071476
0.079964
0.013919
0.062465
0.004261
0.091738
0.133629
0.037165
0.138817
0.099907
0.156255
0.124382
0.149965
0.152756
0.125228
0.181452
0.189211
0.241597
0.229475
0.278881
0.253942
0.405941
0.330071
0.421688
0.358167
0.356581
0.374947
0.399621
0.411898
0.509367
0.482821
0.570200
0.470652
0.455141
0.551503
0.547110
0.522128
0.522667
0.521909
0.604890
0.494184
0.532693
0.529604
0.484842
0.475328
0.579218
0.424754
0.388817
0.440752
0.379435
0.275977
0.409415
0.309266
0.291850
0.312624
0.240826
0.179683
0.241417
0.264703
0.222416
0.218920
0.215937
0.160871
0.184550
0.170419
0.123533
0.189754
0.097986
0.124345
0.069233
0.176494
0.087716
0.009230
0.041596
0.159820
0.089650
0.077110
0.106835
0.078967
0.001310
-0.001155
0.091468
0.114321
-0.003974
0.010987
0.002812
0.032757
0.060310
0.161058
0.090928
0.095154
0.155797
0.064209
0.097518
0.010083
0.083043
0.078569
0.038976
0.070674
0.066501
0.070716
0.024762
0.091010
0.012533
0.043521
0.092329
0.116148
0.050231
0.183255
0.091198
0.046329
0.100034
0.029403
-0.055916
0.080128
0.119041
0.058765
0.055943
0.107281
0.127398
0.057783
0.062848
0.110463
0.101962
0.124133
0.090425
0.077773
0.027281
0.031270
0.141786
0.117524
0.058790
0.060532
0.089968
0.038366
0.087815
0.141963
0.185388
0.112841
0.121246
0.145225
0.164505
0.168818
0.081514
0.121606
0.245022
0.185663
0.275691
0.186055
0.244927
0.279892
0.248412
0.278673
0.176270
0.273267
0.218336
0.230714
0.242456
0.184739
0.218379
0.194772
0.260030
0.173226
0.217489
0.189429
0.220836
0.138584
0.212015
0.214673
0.205060
0.145056
0.139359
0.089182
0.097645
0.042010
0.054732
0.168413
0.085368
0.116766
0.086890
0.126728
0.114234
0.073337
0.102394
0.064889
0.117806
0.101141
0.055118
0.148954
0.116511
0.080160
0.345194
0.567027
0.860794
1.189025
1.305339
1.500000
1.297035
1.086699
0.590540
0.280772
0.033686
-0.080116
-0.173952
-0.027094
-0.011009
0.064113
0.089306
0.116700
0.176523
0.135432
0.110182
0.118681
0.187970
0.098579
0.134916
0.127267
0.129159
0.193129
0.130171
0.169830
0.190574
0.237331
0.212015
0.251577
0.209768
0.308342
0.263197
0.261610
0.339775
0.263230
0.377329
0.420300
0.429615
0.362351
0.403745
0.489497
0.427980
0.504029
0.594687
0.449222
0.430787
0.546695
0.506616
0.550165
0.529994
0.613502
0.618784
0.535570
0.597483
0.490865
0.584487
0.556641
0.558150
0.575183
0.508993
0.547289
0.429301
0.501522
0.474850
0.430959
0.473416
0.343156
0.373077
0.366514
0.289468
0.362519
0.305200
0.372726
0.289172
0.267399
0.246743
0.198907
0.162985
0.145105
0.241914
0.220074
0.119403
0.121967
0.148584
0.114280
0.209610
0.167247
0.090737
0.053213
0.001455
0.064863
0.128515
0.111460
0.076816
0.036217
0.059529
0.072922
0.123213
0.081236
0.119965
0.092800
0.145080
0.091176
0.050120
0.041073
0.094037
0.156446
0.026606
0.041120
0.072402
0.053774
0.082586
0.016935
0.033006
0.076181
0.071873
0.057380
0.021099
0.062984
0.082908
0.074591
0.027995
0.108115
0.063750
0.122922
0.071970
0.089664
0.169139
0.039225
0.126434
0.103238
0.133932
0.069263
0.144736
0.004191
0.042848
0.054302
-0.016130
0.121365
0.066459
0.039617
0.124577
-0.004589
0.063317
0.095002
0.070244
0.112284
-0.010508
-0.043813
0.035506
0.088705
0.172743
0.131024
0.087905
0.082100
0.159649
0.117413
0.138992
0.101211
0.100796
0.166198
0.127208
0.213511
0.204449
0.184882
0.126995
0.181508
0.253414
0.193352
0.214403
0.181100
0.205679
0.201532
0.194963
0.086684
0.158687
0.150448
0.172015
0.120795
0.112329
0.105492
0.128310
0.005454
0.051028
0.015486
0.022669
0.129389
0.036945
0.094401
0.056181
0.041112
0.040230
-0.005490
0.055425
0.035090
0.113584
0.069811
-0.019655
-0.000487
0.009891
-0.002058
0.003498
-0.020602
0.011426
0.024003
0.090120
0.165953
0.426304
0.710222
1.082079
1.243312
1.379322
1.185908
1.068194
0.707113
0.327455
0.044021
-0.139325
-0.327382
-0.322454
-0.170133
-0.095785
-0.043646
0.008752
-0.017593
0.049056
0.026580
0.015850
0.098845
0.076960
0.046785
0.100903
0.059355
0.070815
0.067937
0.134323
0.008023
0.071442
0.160802
0.071104
0.130671
0.114372
0.137203
0.161432
0.200433
0.173258
0.285535
0.313203
0.291788
0.259160
0.278621
0.316323
0.301496
0.442926
0.404890
0.463897
0.413408
0.406297
0.408837
0.478525
0.430559
0.473283
0.385295
0.446513
0.417042
0.421386
0.498776
0.444820
0.419856
0.327256
0.392805
0.366897
0.362511
0.374045
0.338371
0.370774
0.326060
0.271340
0.265745
0.187282
0.274064
0.113053
0.146269
0.169026
0.135115
0.117416
0.061834
0.099556
0.091587
0.099092
0.014466
0.059843
0.023060
-0.025179
0.057518
0.011103
0.030742
-0.019623
-0.028925
-0.062665
-0.016569
-0.066526
0.016414
-0.063540
-0.054027
0.009566
0.001345
-0.112805
-0.093285
-0.067709
-0.047924
-0.032462
-0.127729
-0.052665
-0.028978
-0.135638
-0.093363
-0.026720
-0.072649
-0.031037
-0.094630
-0.011793
-0.068235
0.004644
-0.010708
-0.096346
-0.070878
-0.136201
-0.098020
-0.038721
-0.042651
-0.109515
-0.083221
-0.115979
-0.035697
-0.011639
-0.028991
-0.070324
-0.040159
-0.126921
-0.078695
-0.125944
-0.050620
-0.046841
-0.151544
-0.129689
-0.045545
-0.068555
-0.092720
-0.044631
-0.095028
-0.085153
0.024681
-0.035294
-0.009330
-0.093237
-0.089752
-0.098789
-0.078887
-0.085254
0.005302
-0.096564
-0.073262
-0.053221
-0.095592
0.059990
-0.049302
-0.134208
-0.028837
0.077813
0.072441
0.053866
0.092258
0.059603
0.107367
0.101369
0.056432
0.092438
0.116286
0.127344
0.037087
0.078224
0.055578
0.086019
0.015352
0.044551
0.051576
0.094187
0.068078
-0.008458
0.031853
-0.006579
0.024741
0.059777
-0.000693
0.003508
0.042972
-0.019522
-0.057471
-0.011138
-0.019216
-0.015230
-0.034622
-0.072444
-0.167285
-0.083780
-0.119787
-0.106759
-0.104899
-0.008836
-0.056789
-0.078964
-0.104607
-0.109674
-0.049771
-0.074692
-0.111844
0.077340
0.229604
0.538381
0.929490
1.199134
1.334853
1.212834
1.036447
0.689675
0.354500
0.054195
-0.190635
-0.238011
-0.330377
-0.261167
-0.230240
-0.217687
-0.152974
-0.026909
-0.046416
-0.081740
-0.062624
-0.018445
0.009376
-0.091640
-0.014740
-0.034872
-0.012172
-0.045618
0.031366
0.029298
-0.009297
0.109865
0.022403
0.070339
0.074543
0.065127
0.078626
0.029053
0.166077
0.145662
0.232932
0.194475
0.227424
0.294623
0.308590
0.309063
0.336005
0.284166
0.421119
0.380856
0.317686
0.430867
0.366364
0.374585
0.351790
0.373890
0.373038
0.403079
0.447856
0.435863
0.440882
0.445945
0.379261
0.432413
0.387837
0.469989
0.354258
0.300673
0.309347
0.212114
0.232931
0.277429
0.303179
0.221026
0.200411
0.220353
0.189718
0.125494
0.096173
0.137803
0.096189
0.071823
0.071929
0.032417
0.096810
0.063202
0.042903
-0.006206
-0.024020
0.013375
0.042133
0.094164
-0.035282
-0.001635
-0.025498
-0.038742
-0.016757
-0.063532
-0.021208
-0.098103
-0.042171
-0.082110
-0.047128
-0.046483
-0.021313
-0.001467
-0.049020
-0.054015
0.024935
-0.016218
-0.033103
-0.013476
-0.104550
-0.050001
-0.115589
-0.135956
0.047437
-0.079751
-0.001660
0.000833
-0.047381
-0.016328
-0.070515
-0.085466
-0.031600
-0.040421
-0.009238
0.014587
-0.027795
-0.062363
-0.105012
-0.054634
-0.046542
0.025761
-0.040892
-0.054963
-0.010880
-0.088022
-0.040969
-0.076590
-0.032810
0.007306
-0.006889
0.013114
-0.015325
-0.047541
0.073157
-0.130616
0.043129
-0.094409
0.045834
-0.001348
-0.011533
0.045099
-0.003809
-0.024359
0.047095
-0.030823
0.112028
0.008184
0.038707
-0.007971
0.117348
0.111838
0.035324
0.173927
0.030501
0.126078
0.106414
0.064989
0.095853
0.153281
0.209208
0.195970
0.197954
0.136616
0.182906
0.048041
0.150196
0.225354
0.115305
0.192375
0.119795
0.105658
0.041374
0.034138
0.057370
0.065367
0.013247
0.039984
-0.005509
0.031276
0.069221
0.062849
-0.001938
0.031870
0.035749
0.031053
-0.006848
-0.011570
-0.026630
0.106970
0.082107
-0.024647
0.032359
-0.076295
-0.003324
-0.002648
-0.031943
0.017965
0.071032
0.216734
0.612120
0.854441
1.069371
1.396772
1.394635
1.162502
0.857722
0.545991
0.153496
-0.097760
-0.198459
-0.245190
-0.156214
-0.144367
-0.039404
0.058007
0.065289
0.024724
-0.005530
0.043662
0.106672
0.012820
0.030281
0.033450
0.046198
0.060194
0.092068
0.119200
0.083765
0.084407
0.094710
0.151514
0.096579
0.175067
0.248886
0.204418
0.186973
0.290297
0.202517
0.255338
0.284162
0.231857
0.320645
0.376672
0.316354
0.471710
0.417861
0.387382
0.490891
0.429955
0.499397
0.437725
0.535889
0.461982
0.536431
0.554574
0.499403
0.622807
0.443411
0.558023
0.525992
0.438629
0.487361
0.465387
0.465180
0.464452
0.415644
0.411728
0.396342
0.329301
0.384409
0.345785
0.276493
0.271590
0.192181
0.216398
0.260220
0.272828
0.206392
0.148326
0.250402
0.140632
0.167610
0.106169
0.186242
0.154674
0.132411
0.176798
0.146178
0.154603
0.052913
0.078895
0.048168
0.014201
0.079445
0.012704
0.018560
0.048193
-0.010886
0.064788
-0.015319
0.078486
0.056077
0.072315
0.130029
0.029119
0.022789
-0.033427
0.060095
0.091186
0.033612
0.023664
0.167476
-0.045405
-0.004507
0.042517
0.073352
0.028937
-0.007909
0.030553
0.018043
0.026625
0.086337
0.086907
-0.005484
0.077543
0.115036
0.079550
0.015967
0.055719
-0.003612
0.096508
0.052969
0.050396
0.050523
-0.010538
0.046550
0.014756
0.053609
0.039381
0.036459
0.041751
0.064465
0.102240
0.035448
0.092229
0.092683
0.027564
0.057390
0.089076
0.098948
0.064820
0.087508
0.073555
0.172545
0.165471
0.173999
0.110463
0.154873
0.117082
0.111438
0.107133
0.101936
0.157072
0.202194
0.145914
0.224626
0.120648
0.172895
0.226280
0.263735
0.222778
0.206386
0.151575
0.278007
0.203290
0.189214
0.169285
0.189850
0.208549
0.132931
0.150249
0.136623
0.213533
0.109536
0.116102
0.105995
0.074567
0.038679
0.059226
0.065309
0.135160
0.071383
0.076396
0.017289
0.092346
-0.000015
0.037721
0.008905
0.055759
0.033058
0.020994
0.001316
-0.005486
0.101528
0.049256
0.007852
-0.020360
0.065315
0.152750
0.198664
0.456924
0.791983
1.103242
1.301407
1.373737
1.291488
0.996507
0.658214
0.228493
0.003333
-0.125237
-0.181688
-0.187222
-0.120279
-0.032374
0.074751
0.045246
0.068923
0.009740
0.100550
0.075812
0.078674
0.072060
0.069404
0.075547
0.060602
0.089103
0.091654
0.067414
0.110514
0.186879
0.076824
0.169468
0.254534
0.194258
0.166787
0.191083
0.228117
0.147848
0.243157
0.220096
0.306490
0.362447
0.338461
0.409174
0.354422
0.421396
0.416114
0.486372
0.497773
0.439778
0.429350
0.428425
0.562372
0.481601
0.498136
0.592464
0.525961
0.470911
0.505925
0.509814
0.445443
0.393731
0.420896
0.520983
0.383142
0.327552
0.466996
0.382123
0.409104
0.354534
0.367347
0.326882
0.301753
0.265820
0.227563
0.240569
0.268222
0.174815
0.133439
0.137610
0.204251
0.056512
0.109059
0.115178
0.105049
0.068100
0.060970
-0.000205
0.057762
0.113481
-0.001305
-0.013283
0.059677
-0.021148
0.062894
-0.063803
0.037301
0.002755
-0.070012
-0.019608
-0.060019
0.002551
0.105481
0.005545
0.081111
0.003768
-0.019270
-0.061594
-0.018265
-0.003640
-0.085848
-0.041874
0.001510
0.055766
0.002283
-0.081824
-0.024905
-0.031977
0.002003
-0.018874
-0.019863
-0.016489
-0.055430
-0.002469
0.002638
0.031493
0.083222
-0.101297
0.000096
-0.021122
-0.087112
0.047995
-0.120603
-0.012710
-0.033922
-0.030906
-0.064891
0.038715
0.041154
-0.027859
-0.065162
-0.077176
-0.146541
-0.028096
-0.077665
-0.040372
0.022813
0.019943
-0.074876
-0.072167
-0.021953
0.036527
-0.023603
-0.064281
-0.026117
-0.097515
0.020719
-0.049944
0.007253
0.082784
0.052815
0.069754
0.064166
0.132829
0.119347
0.100581
0.045441
0.124222
0.015740
0.104795
0.131746
0.151255
0.172885
0.151739
0.082451
0.075988
0.152574
0.107670
0.025855
0.029838
0.083131
-0.011081
0.007967
0.018967
-0.044508
-0.076096
-0.018027
-0.112065
-0.089607
-0.027310
-0.089175
-0.027051
-0.070757
-0.109823
-0.108050
-0.074031
-0.062490
-0.003492
-0.057265
-0.009890
-0.049951
0.011894
-0.062881
0.008034
-0.099700
-0.103909
-0.108320
-0.089467
-0.057964
0.094060
0.249261
0.726472
0.950397
1.140248
1.378320
1.135654
0.860930
0.589470
0.300923
-0.015176
-0.248664
-0.431396
-0.232514
-0.214787
-0.143427
-0.139759
-0.076193
-0.058388
-0.100428
-0.092748
-0.031636
0.003813
-0.005968
-0.091311
-0.077596
-0.014995
-0.003568
0.015189
0.057378
-0.029403
0.018781
0.037090
0.009882
0.097007
0.103348
0.005863
0.206398
0.120114
0.186900
0.131375
0.100583
0.196630
0.227569
0.221929
0.195577
0.226486
0.306520
0.337838
0.259487
0.249055
0.348123
0.279226
0.368872
0.381293
0.352863
0.329654
0.405279
0.359132
0.320110
0.466529
0.381079
0.313298
0.245994
0.333344
0.348157
0.318893
0.273857
0.247737
0.316241
0.279528
0.226612
0.217495
0.250947
0.178660
0.157889
0.084232
0.094265
0.115289
0.044021
0.074040
0.079383
0.034718
0.037410
0.048261
0.080638
0.022423
0.018169
-0.105379
-0.031080
-0.027600
-0.087351
0.015025
-0.040466
-0.108502
-0.062067
-0.042732
-0.043317
-0.015396
-0.049173
-0.111042
-0.097256
-0.109177
-0.114472
0.011929
-0.103318
-0.091195
-0.088549
-0.085311
-0.130814
0.048613
-0.068162
-0.104824
-0.096996
-0.103047
-0.045455
-0.090971
-0.079976
-0.118737
-0.013248
-0.119319
-0.099632
-0.088674
-0.102328
-0.086294
-0.058493
-0.046094
-0.094977
-0.214163
-0.212630
-0.053897
-0.098749
-0.014431
-0.080792
-0.154494
-0.035261
-0.098024
-0.133227
-0.099432
-0.109749
-0.137430
-0.118849
-0.096961
-0.144642
-0.147640
-0.090988
-0.167060
-0.112354
-0.062948
-0.112665
-0.043678
-0.049848
-0.033617
-0.053928
-0.124277
-0.081929
-0.061988
-0.119149
-0.083385
-0.031190
-0.072439
-0.023289
-0.069370
0.035261
-0.001000
-0.017950
0.011614
-0.012634
0.079336
0.020233
0.115828
0.113726
0.141215
0.043439
0.151959
0.096003
0.052484
0.087915
0.059552
0.138346
-0.017448
0.051089
0.008550
0.042628
0.046726
0.029373
-0.010536
-0.008589
0.028279
-0.024244
-0.039360
-0.035341
-0.070860
-0.076078
-0.050874
-0.027530
-0.106346
-0.016410
0.002230
-0.025424
-0.095054
-0.090317
-0.031788
-0.020735
-0.083785
-0.068722
-0.052593
-0.014807
-0.046011
-0.092981
-0.026676
0.065561
0.268654
0.502015
0.932695
1.182811
1.272807
1.195257
0.978832
0.772258
0.315145
-0.053365
-0.199747
-0.285822
-0.308037
-0.205583
-0.157008
-0.058479
0.014073
-0.073671
-0.075367
-0.040204
-0.025168
-0.019204
0.014938
-0.001317
-0.067140
-0.094670
-0.012755
0.007210
0.075728
0.008547
0.131794
-0.018943
0.090269
0.079028
0.090096
0.043948
0.196961
0.224681
0.264150
0.189579
0.216842
0.243857
0.310007
0.308285
0.278764
0.293758
0.323267
0.335301
0.384480
0.381897
0.371273
0.478880
0.443843
0.426189
0.409824
0.400771
0.401854
0.425602
0.530300
0.498341
0.464513
0.521545
0.423865
0.492108
0.388588
0.399887
0.439511
0.374880
0.366224
0.343901
0.298993
0.304075
0.302991
0.219754
0.328287
0.194241
0.237951
0.173574
0.126367
0.162356
0.206165
0.105687
0.115240
0.127054
0.053545
0.085865
0.105888
0.130899
-0.011106
0.037247
0.024290
0.054621
0.020964
0.101135
-0.006640
0.018276
-0.039160
-0.026830
-0.000551
0.003815
-0.028008
0.001582
0.049834
0.043745
-0.029527
0.009323
-0.094005
0.038773
0.003596
-0.023280
-0.032576
-0.027825
0.008527
-0.015742
0.020295
0.026865
0.037658
-0.003817
0.039375
0.008596
0.038495
-0.069769
0.089221
0.038713
0.041299
0.057150
0.091438
0.040475
0.006593
0.007877
0.012591
0.045729
0.063360
0.068980
-0.002212
0.012017
-0.005642
0.046458
0.057209
0.035804
0.009748
-0.020579
0.043296
0.012459
0.016274
-0.014421
0.022227
0.036011
0.037374
0.011985
0.026898
0.103472
0.075493
0.052527
0.069634
0.069207
0.033658
0.075450
0.129327
0.141075
0.202399
0.114568
0.138395
0.130945
0.127166
0.178945
0.194492
0.250215
0.237088
0.209258
0.201890
0.215816
0.109598
0.289240
0.249830
0.199255
0.210419
0.278751
0.211559
0.146536
0.161818
0.112632
0.193781
0.119235
0.167351
0.111797
0.071507
0.116625
0.137242
0.137264
0.068227
0.119245
0.140159
-0.001494
0.130194
-0.062181
0.059770
0.055723
0.055482
0.055041
0.001079
0.149587
-0.008049
0.040837
0.031527
0.007279
0.053640
0.083218
0.035020
0.021716
0.183329
0.357285
0.511217
0.899432
1.178409
1.380393
1.345330
1.251818
0.910523
0.610834
0.255247
-0.061706
-0.128827
-0.187377
-0.163134
-0.119170
-0.024561
-0.020211
0.046430
0.073732
0.069699
0.065736
0.033058
0.092226
0.086727
0.144719
0.149068
0.160026
0.160814
0.126553
0.204987
0.194364
0.153993
0.186580
0.280248
0.223911
0.259398
0.203413
0.204099
0.271164
0.312272
0.326333
0.314947
0.350412
0.361702
0.403175
0.463724
0.448580
0.433447
0.401364
0.503926
0.498125
0.520196
0.561317
0.535518
0.545597
0.542130
0.559233
0.550375
0.451599
0.644293
0.601409
0.520599
0.464304
0.498474
0.461205
0.473243
0.447756
0.464382
0.440108
0.462658
0.399178
0.375197
0.347179
0.285626
0.325422
0.319874
0.391274
0.314271
0.295020
0.246946
0.239013
0.240514
0.213322
0.146775
0.191960
0.131315
0.138036
0.185225
0.195021
0.122734
0.098467
0.127652
0.071086
0.108061
0.064367
0.120528
