0.019522
-0.082615
0.011246
-0.034246
0.014261
0.073456
0.051939
-0.043037
0.036587
0.031073
-0.054816
-0.058327
0.026951
-0.003026
-0.040772
0.037927
-0.010875
0.070054
0.055099
0.065388
0.086174
0.009834
0.089707
0.058402
0.077663
0.121220
0.078329
0.103824
0.096102
0.135567
0.200954
0.177570
0.153170
0.110457
0.141203
0.218069
0.199648
0.317157
0.190871
0.201765
0.150758
0.160871
0.217838
0.114105
0.185936
0.123001
0.107091
0.152959
0.083402
0.052813
0.084885
0.171318
0.098429
0.077951
0.030886
0.021490
0.091262
0.096185
0.029627
0.139558
0.040202
0.070560
0.018569
0.084225
0.008115
0.029295
0.088116
0.039606
0.111047
0.188607
0.506566
0.717822
1.095237
1.332306
1.469874
1.435360
1.169261
0.852099
0.428991
0.061382
-0.068802
-0.127258
-0.111063
-0.016500
0.027274
0.058268
0.073851
0.070135
0.190192
0.129031
0.106995
0.147032
0.182923
0.230936
0.104512
0.236576
0.194581
0.163755
0.278629
0.260424
0.249789
0.355972
0.231822
0.272453
0.408234
0.509812
0.345728
0.460857
0.375297
0.422012
0.436292
0.525946
0.485206
0.597807
0.473547
0.616872
0.516545
0.570038
0.678151
0.611651
0.625953
0.649179
0.602372
0.606815
0.601546
0.573668
0.539138
0.581187
0.509880
0.453917
0.547987
0.564590
0.446772
0.435613
0.351038
0.376110
0.409350
0.334076
0.312088
0.329760
0.324020
0.253675
0.302159
0.290103
0.241451
0.149643
0.258323
0.172243
0.205052
0.128899
0.182842
0.183678
0.133729
0.092951
0.092023
0.151835
0.168627
0.088345
0.111175
0.107885
0.029264
0.193970
0.162730
0.126928
0.121242
0.101593
0.134127
0.081661
0.110608
0.076072
-0.000987
0.123646
0.059498
0.120355
0.122041
0.098259
0.017965
0.052683
0.025237
0.056146
0.056820
0.136840
0.110200
0.034219
0.098191
0.111738
0.057140
0.080515
0.153381
0.110699
0.073897
0.104264
-0.012413
0.088670
0.088835
0.091678
0.131301
0.172576
0.038949
0.075392
0.106113
0.142643
0.174582
0.123918
0.120701
0.131328
0.196537
0.160416
0.220064
0.133097
0.202717
0.155649
0.183084
0.260263
0.187447
0.207315
0.252369
0.210623
0.210362
0.198979
0.292304
0.233635
0.244740
0.275036
0.315290
0.228093
0.257072
0.180710
0.254551
0.188099
0.142062
0.265278
0.278654
0.202373
0.173000
0.170529
0.084716
0.087865
0.191200
0.075146
0.189505
0.168581
0.128437
0.073899
0.067463
0.163791
0.129051
0.000261
0.136099
0.099744
0.073912
0.161475
0.067453
0.208001
0.161925
0.400088
0.693622
1.023045
1.300971
1.448514
1.489896
1.238202
0.892277
0.457591
0.183694
-0.065737
-0.178561
-0.117341
-0.037126
0.072083
0.105699
0.030317
0.110450
0.124254
0.177162
0.150753
0.222155
0.161560
0.161057
0.117155
0.161284
0.279082
0.224552
0.219476
0.393363
0.394345
0.262737
0.321745
0.316819
0.319243
0.450941
0.472037
0.409219
0.497070
0.414763
0.454282
0.518035
0.572139
0.486348
0.554984
0.512788
0.519375
0.557287
0.583657
0.552538
0.540487
0.689150
0.627389
0.580862
0.649047
0.535334
0.548901
0.488628
0.468275
0.543008
0.510342
0.494377
0.478102
0.489649
0.422928
0.413014
0.421705
0.373111
0.341612
0.317420
0.258327
0.283557
0.203937
0.269012
0.238745
0.147424
0.181862
0.142118
0.179817
0.180743
0.147187
0.070956
0.091201
0.115616
0.141363
0.146333
0.070851
0.017631
0.005304
0.155022
0.084503
0.063367
0.162051
0.143585
0.012851
-0.073935
-0.003108
0.106326
0.011168
0.035060
-0.035602
0.150603
0.032663
0.059354
0.094747
0.005993
0.047086
0.062613
-0.020565
0.024987
-0.002204
0.037172
0.015028
0.045582
0.029106
-0.020856
0.007416
-0.046076
0.048879
0.033984
0.072129
0.017993
-0.013840
0.037269
0.037456
0.029851
0.088746
0.009791
0.011162
0.092052
0.036015
0.061077
0.022993
0.106097
-0.013178
0.095561
0.034631
0.046934
0.090850
0.124838
-0.039063
0.155444
0.089569
0.129004
0.122939
0.149579
0.108316
0.187695
0.193454
0.148922
0.186516
0.208154
0.188099
0.201936
0.143764
0.139278
0.164353
0.049089
0.079940
0.119797
0.096633
0.113767
0.053529
0.157647
0.161362
0.029372
-0.002713
0.039023
0.062880
0.065613
0.100542
0.071593
-0.043213
-0.027160
0.027946
-0.004617
0.009032
-0.002430
0.039040
0.023084
0.034584
-0.014586
-0.028013
-0.005446
0.194227
0.285342
0.634951
0.843567
1.180845
1.356195
1.363994
1.152894
0.829420
0.439509
0.100361
-0.153674
-0.147073
-0.207981
-0.236632
-0.088202
-0.007977
-0.018689
-0.027593
0.096921
0.057598
0.033232
0.044393
0.061119
0.096456
0.128692
0.065392
0.150009
0.065782
0.115809
0.137728
0.278697
0.263850
0.249741
0.203474
0.316042
0.259625
0.321795
0.402569
0.312891
0.349687
0.394135
0.485004
0.439604
0.394859
0.408502
0.493722
0.440830
0.496793
0.492743
0.539041
0.501577
0.502511
0.491735
0.474620
0.604324
0.511200
0.517507
0.411151
0.435772
0.451767
0.280444
0.382318
0.335105
0.247148
0.408202
0.309740
0.220884
0.306033
0.226039
0.220053
0.216049
0.219712
0.193703
0.192124
0.132044
0.062502
0.037934
0.158058
0.008843
0.130547
0.029188
-0.004034
0.025072
0.016853
0.037370
-0.011440
-0.009864
0.060100
-0.025959
-0.055161
0.007439
0.005646
0.006091
-0.084431
-0.007075
-0.060278
-0.007090
-0.083971
-0.102764
-0.082988
-0.018178
0.019608
-0.031395
-0.058360
-0.045876
0.000576
-0.065513
-0.047793
-0.007676
0.013354
-0.002114
-0.036276
-0.034582
-0.090331
-0.084121
-0.056018
-0.066626
-0.069210
-0.017153
-0.092257
-0.059927
-0.020814
-0.010911
-0.089709
-0.007864
-0.018553
-0.049952
-0.032331
-0.029063
-0.012177
-0.087291
-0.049740
0.018189
-0.043854
-0.025893
-0.041849
0.084417
-0.088108
0.024529
0.013583
0.032186
0.060066
0.077830
-0.009996
0.077572
-0.019514
0.049139
0.063763
0.167135
0.178744
0.121396
0.083493
0.107822
0.129287
0.128613
0.071263
0.126076
0.143829
0.066347
0.101315
0.074947
0.083366
0.077072
0.076019
0.079701
0.085626
0.017118
0.084842
0.036456
0.027818
0.008792
0.031531
0.031564
-0.099545
0.020508
0.024420
-0.027631
-0.034960
-0.068789
-0.036504
-0.032480
-0.032032
-0.033337
0.016097
0.082802
0.224006
0.521778
0.779268
1.192903
1.379489
1.381940
1.223965
0.898459
0.508886
0.164315
-0.103052
-0.242889
-0.198861
-0.164710
-0.137926
-0.059468
-0.005642
0.044255
0.066719
-0.000998
0.009272
0.000999
0.041602
-0.001942
0.116502
0.129542
0.023335
0.124509
0.163782
0.226438
0.168475
0.195508
0.223590
0.177467
0.227532
0.300121
0.314736
0.279227
0.312964
0.367469
0.301624
0.438087
0.402759
0.371927
0.410173
0.398885
0.506929
0.514791
0.475992
0.491777
0.454117
0.543441
0.461634
0.484741
0.474809
0.487774
0.508393
0.464875
0.508494
0.488387
0.494541
0.413929
0.386826
0.394005
0.259017
0.351757
0.308294
0.177635
0.226533
0.247533
0.224256
0.208126
0.192692
0.106160
0.210034
0.047616
0.128094
0.152347
0.189576
0.164549
0.112645
0.108799
0.036226
0.029684
0.078602
0.011307
0.022717
0.101915
0.033675
0.062277
-0.013761
0.016572
0.030374
-0.011387
0.040105
0.024355
0.055963
0.024583
0.009432
0.086926
0.026200
0.005441
0.025788
-0.067863
-0.036339
-0.094085
0.088504
0.022075
-0.085069
0.040260
0.038056
0.056822
0.031165
0.030258
0.013272
0.042700
0.104490
0.042332
0.056379
0.048532
0.136897
0.063638
-0.011787
0.055709
0.036436
0.042803
0.044142
-0.002467
-0.001387
0.069350
0.142231
0.015501
0.011542
0.007300
0.041941
0.093770
0.102202
0.055943
0.072154
0.189078
0.067751
0.047798
0.071738
0.167951
0.199610
0.250554
0.146549
0.168925
0.228609
0.254016
0.234961
0.235932
0.176324
0.206362
0.212908
0.280549
0.154408
0.215956
0.175508
0.294438
0.123619
0.100196
0.202555
0.204602
0.143288
0.171063
0.055368
0.197609
0.137370
0.067677
0.118636
0.037741
0.085994
0.223274
0.138000
-0.025041
0.014902
0.068331
0.102201
0.063680
0.054809
0.045730
0.103916
0.113818
0.083567
0.293166
0.545220
0.776086
1.166654
1.419403
1.479711
1.313011
1.050176
0.634156
0.306602
0.140753
-0.072957
-0.115983
-0.037573
-0.076405
0.005620
0.094249
0.126017
0.030676
0.178249
0.154085
0.121206
0.170907
0.220686
0.212271
0.228208
0.224401
0.244871
0.160993
0.269772
0.153472
0.265872
0.226283
0.337633
0.340252
0.395910
0.365056
0.439482
0.438083
0.497959
0.480379
0.558969
0.486958
0.571625
0.518014
0.516699
0.562771
0.578367
0.648749
0.542111
0.561223
0.592784
0.571433
0.612099
0.614122
0.541579
0.568528
0.647117
0.555558
0.521959
0.549821
0.513923
0.553427
0.453029
0.504845
0.448601
0.429506
0.423225
0.428649
0.312094
0.342920
0.334972
0.302333
0.184063
0.238280
0.305817
0.200309
0.185397
0.220307
0.072354
0.187385
0.199540
0.189088
0.171351
0.188669
0.063983
0.138286
0.145051
0.124436
0.123724
0.066821
0.097684
0.101653
0.022581
0.139413
0.127590
0.110963
0.210106
0.051026
0.044251
0.033074
0.115314
0.178518
0.031939
0.121640
0.091419
0.177541
0.108357
0.087911
0.072742
0.136568
0.024997
0.026696
0.065226
0.123055
0.140949
0.005628
0.095453
0.063815
0.077917
0.110774
0.029170
0.106967
0.075791
0.060624
0.126984
0.165486
0.074142
0.055125
0.238852
0.184104
0.073901
0.175053
0.128718
0.173739
0.098153
0.163072
0.131287
0.113070
0.224013
0.177487
0.028279
0.142529
0.220043
0.270088
0.263603
0.220720
0.258212
0.258560
0.389724
0.229057
0.259361
0.342241
0.253656
0.257413
0.213516
0.235367
0.218924
0.289955
0.302675
0.169329
0.114340
0.224377
0.192427
0.180112
0.181525
0.206505
0.236053
0.156845
0.148459
0.092031
0.143591
0.262088
0.102837
0.093107
0.070223
0.110451
0.130504
0.030286
0.032780
0.094395
0.106651
0.088936
0.182217
0.172852
0.300484
0.441559
0.784281
1.108136
1.373117
1.468789
1.451087
1.171087
0.770255
0.402298
0.160651
-0.083981
-0.074064
-0.075881
-0.024268
0.009261
0.000319
0.108056
0.094095
0.160479
0.035722
0.116821
0.210945
0.195713
0.094456
0.154982
0.221869
0.194078
0.197928
0.234475
0.276695
0.287602
0.258837
0.340687
0.317030
0.360314
0.383096
0.428638
0.370070
0.456374
0.499800
0.450690
0.509069
0.559432
0.429175
0.525877
0.556463
0.551144
0.620065
0.585603
0.628310
0.598043
0.577380
0.546130
0.510581
0.558907
0.592624
0.556171
0.517944
0.476966
0.493852
0.486435
0.559406
0.442518
0.447438
0.507877
0.396802
0.366969
0.272202
0.348359
0.319602
0.318264
0.231854
0.266070
0.267983
0.161527
0.298887
0.318171
0.169589
0.115622
0.107014
0.112174
0.080610
0.104840
0.106581
0.114398
0.027855
0.108950
0.124324
0.081150
-0.027136
0.088141
0.014768
0.093877
0.066501
0.002394
-0.018614
-0.061089
-0.036215
0.088925
-0.008998
0.015425
0.062928
0.079593
0.017676
0.078642
0.036944
0.013148
-0.021780
0.065078
0.052088
0.012484
0.002476
0.027912
0.073239
0.048895
0.057779
-0.007380
-0.016205
0.008648
0.018791
-0.033510
0.075443
0.024145
-0.000168
-0.006475
0.012802
0.052875
0.036051
0.029204
0.002005
0.011386
0.022857
0.029720
0.068918
0.098190
0.099376
0.053790
0.094449
0.079358
0.050382
0.097183
0.128549
0.171722
0.091552
0.179690
0.124313
0.149289
0.205374
0.171936
0.160908
0.163310
0.209475
0.198534
0.161887
0.299170
0.086903
0.274190
0.154765
0.192053
0.126670
0.083096
0.124020
0.211682
0.112562
0.035121
0.009143
0.107924
0.024235
0.027650
0.013665
0.053323
-0.043575
-0.030228
-0.074889
-0.022411
0.009284
0.004194
-0.034270
-0.037461
-0.016770
-0.057872
0.041830
-0.020741
0.065795
0.151675
0.367063
0.650514
0.859769
1.308458
1.343078
1.324096
1.080217
0.699474
0.353627
0.030022
-0.181211
-0.199267
-0.217479
-0.101464
-0.132997
-0.009811
0.018066
0.012205
-0.003312
-0.017528
0.015086
0.037464
0.080196
0.151322
0.080324
0.019371
0.128591
0.114449
0.153050
0.188272
0.167043
0.170477
0.257575
0.246458
0.229317
0.303272
0.291724
0.328059
0.293823
0.336164
0.407673
0.388796
0.378584
0.417946
0.428473
0.334893
0.485918
0.439481
0.473956
0.501377
0.457191
0.455733
0.470008
0.530317
0.497918
0.357364
0.442117
0.415555
0.354925
0.432760
0.323196
0.382683
0.370146
0.284208
0.269952
0.198648
0.166677
0.196967
0.184612
0.255150
0.118578
0.167945
0.205688
0.179238
0.124992
0.185202
0.040084
0.155248
0.080105
0.009944
-0.036968
0.040965
0.045810
-0.122578
-0.014989
-0.086633
-0.048793
-0.013031
-0.007880
-0.013397
-0.012541
0.016822
-0.030172
-0.076778
-0.053080
-0.093536
-0.119884
-0.051884
-0.066350
-0.011678
-0.119459
-0.096105
-0.110048
-0.094674
-0.063053
-0.093832
-0.016359
-0.051790
-0.170704
-0.131192
-0.153135
-0.119337
-0.095058
-0.106035
-0.022283
-0.071127
-0.106597
-0.139669
-0.020946
-0.004628
-0.080367
-0.085689
-0.057402
-0.107340
0.029776
-0.126335
-0.068351
-0.038763
-0.009163
-0.106700
-0.119123
-0.074303
-0.013446
-0.004675
-0.052937
-0.113206
-0.023208
-0.004580
0.055578
0.068886
0.031940
0.017649
0.029718
0.015007
0.068553
0.049286
0.094516
0.045233
0.089599
0.078316
0.077161
0.080292
0.050926
0.064999
0.051487
0.039287
0.123203
0.057100
0.082400
0.149783
0.204295
0.084806
-0.071495
0.031781
-0.008330
0.016701
0.041577
0.011121
0.026062
0.028276
-0.025798
-0.051891
-0.147831
-0.124751
-0.089625
-0.020731
-0.085894
-0.108282
-0.148896
-0.092757
-0.019012
-0.062635
-0.045309
-0.047898
0.068053
0.172624
0.463499
0.795706
1.097985
1.307012
1.320049
1.073848
0.821251
0.421678
0.093406
-0.196455
-0.285372
-0.295405
-0.278131
-0.105105
-0.126247
-0.050042
-0.035962
-0.059571
0.053353
-0.080820
0.010354
0.028497
0.054754
0.049888
0.000596
-0.003301
0.143886
0.094678
0.142609
0.146433
0.118186
0.121709
0.187554
0.220193
0.211390
0.259520
0.292464
0.299462
0.234354
0.385770
0.315781
0.352065
0.393175
0.389378
0.372775
0.454071
0.481273
0.450316
0.421618
0.465085
0.466045
0.448115
0.553217
0.450684
0.409074
0.424138
0.450047
0.348588
0.386445
0.386312
0.325962
0.336823
0.303880
0.294057
0.324747
0.194187
0.323657
0.268818
0.200893
0.135790
0.133556
0.154892
0.183508
0.044047
0.051293
-0.015940
-0.024852
0.043061
0.093477
0.006653
0.002333
0.066934
0.020927
0.002020
-0.004536
-0.060585
-0.054089
-0.026734
0.008473
-0.003591
-0.059565
-0.097604
-0.116447
-0.066981
-0.062231
-0.045802
-0.136320
-0.036730
-0.085060
-0.057404
0.015086
-0.116631
-0.044049
-0.082915
0.016279
-0.041967
-0.067643
0.001123
0.006934
-0.046784
-0.058161
0.000969
0.004131
-0.076971
0.012003
0.010054
0.021640
-0.005135
-0.034832
0.009103
0.017113
-0.061095
0.089750
0.006297
-0.086491
-0.050405
0.008096
-0.016844
0.027874
0.018399
-0.043227
0.005284
0.041193
0.030876
0.008832
0.033844
0.049609
-0.065221
0.061026
0.156110
0.128136
0.063036
-0.003585
0.062497
0.125745
0.145748
0.191736
0.228243
0.131532
0.147758
0.129673
0.129427
0.093322
0.111148
0.112756
0.173670
0.121536
0.186552
0.103381
0.050051
0.046500
0.085110
0.109984
0.124030
0.098731
0.116184
0.091740
0.025399
0.033819
0.046825
-0.056881
-0.041577
0.036641
0.056236
0.006649
0.003808
0.094194
0.013584
-0.040556
0.004732
-0.011498
-0.003706
0.128530
0.248635
0.309640
0.573492
0.866711
1.208641
1.310829
1.479712
1.200936
0.807315
0.561244
0.141600
-0.142747
-0.194242
-0.130958
-0.141771
-0.057113
-0.079330
0.007658
0.016674
0.064835
0.066434
0.020947
0.095928
0.154379
0.084165
0.082252
0.146378
0.099557
0.123962
0.175598
0.248928
0.150437
0.252819
0.288022
0.290565
0.264398
0.364086
0.332947
0.282222
0.430684
0.501708
0.496267
0.508165
0.365522
0.523852
0.560395
0.524721
0.504410
0.558830
0.560648
0.539421
0.552698
0.509114
0.521696
0.569986
0.546350
0.472021
0.604892
0.505671
0.429354
0.522164
0.481372
0.456734
0.376969
0.456397
0.399909
0.436059
0.437619
0.276428
0.329695
0.277397
0.163964
0.317896
0.261560
0.197138
0.202117
0.188929
0.121738
0.140466
0.078364
0.146963
0.136431
0.105497
0.122734
0.136185
0.081781
0.030608
0.042782
0.180824
-0.002533
0.105383
0.041172
0.020704
-0.020595
0.121446
0.058327
0.108574
0.135011
0.085896
0.138975
0.090310
-0.018962
0.053451
0.016156
0.055927
0.016278
0.030760
0.021627
0.035468
0.073104
0.039669
0.035697
-0.016478
0.054853
-0.016522
0.002768
0.077377
0.068198
0.061343
-0.009842
0.016355
-0.060529
0.109639
0.122300
0.118896
0.138811
0.098547
0.016378
0.093989
0.091265
0.142867
0.129788
0.091534
0.026439
0.065140
0.088333
0.032638
0.093385
0.102790
0.124787
0.114623
0.130054
0.124008
0.134351
0.196057
0.154821
0.044185
0.165425
0.122002
0.226657
0.227011
0.279742
0.249140
0.243468
0.288182
0.180892
0.167271
0.236118
0.162105
0.217451
0.113658
0.199003
0.209343
0.116138
0.122507
0.071446
0.098806
0.146614
0.139400
0.167620
0.204403
0.079608
0.046798
0.174092
0.091517
0.055256
0.096434
0.152827
0.065275
0.082333
0.076230
0.061041
0.021071
0.083385
0.061179
0.147791
0.217304
0.580436
0.825436
1.048651
1.390040
1.386217
1.333916
1.002428
0.606810
0.278020
-0.000338
-0.121172
-0.160612
-0.076185
-0.017631
0.088072
0.024576
0.062693
0.144380
0.092935
0.157726
0.134436
0.143610
0.177634
0.112581
0.131087
0.222891
0.156800
0.187062
0.179967
0.238947
0.227113
0.348889
0.247731
0.283516
0.364657
0.360102
0.377678
0.425046
0.437240
0.443044
0.404361
0.524403
0.442077
0.526866
0.513711
0.533572
0.546721
0.477404
0.536606
0.489804
0.549394
0.535611
0.545195
0.541963
0.575494
0.589280
0.593676
0.475754
0.440331
0.389225
0.552739
0.436443
0.400191
0.342932
0.354573
0.302427
0.352686
0.284780
0.198663
0.227275
0.312466
0.182983
0.253417
0.152552
0.145656
0.211516
0.188772
0.092107
0.103259
0.137178
0.161679
0.005501
0.121199
0.080598
0.036355
-0.021443
0.046054
-0.052542
0.033445
-0.011496
0.047346
0.000544
0.042014
-0.067336
-0.007438
-0.031952
-0.028770
0.082363
0.131023
0.049162
-0.002781
0.022836
-0.007478
-0.039749
-0.020111
0.012143
0.011019
-0.003840
0.009840
0.043597
0.001930
0.091443
-0.078454
-0.037272
-0.059052
-0.074917
0.042927
-0.059348
0.033410
-0.030661
0.012398
0.060825
-0.000775
-0.062608
-0.001772
-0.045963
-0.049871
-0.030403
0.057989
-0.070108
-0.003720
0.089796
-0.017214
0.024169
-0.018090
0.039746
0.001783
0.075148
0.070066
0.058485
0.052293
0.095397
0.099907
0.108115
-0.001903
0.163247
0.140945
0.106072
0.168535
0.076773
0.071696
0.177991
0.139229
0.121372
0.154811
0.045057
0.100976
0.100862
0.141651
0.112369
0.055361
0.109424
0.068689
0.100077
0.006135
0.075580
-0.024550
0.060925
0.059677
0.051990
0.000120
0.001385
0.019742
0.039733
-0.076341
0.019275
0.068040
0.000617
-0.068532
-0.103608
-0.073693
-0.078051
-0.139021
0.012776
0.146391
0.432387
0.640609
0.971640
1.265771
1.425503
1.203828
0.990304
0.610456
0.216854
-0.012073
-0.174500
-0.305805
-0.229918
-0.150807
-0.126445
0.029185
-0.027794
-0.040429
-0.042029
0.145928
0.007223
0.005962
0.051914
-0.004741
0.043835
0.029508
0.072633
0.038365
0.125028
0.200503
0.157873
0.134319
0.233795
0.196781
0.177735
0.367255
0.190184
0.302236
0.284360
0.317787
0.341134
0.284905
0.317832
0.323515
0.446864
0.472867
0.394531
0.479477
0.456072
0.497657
0.452902
0.433421
0.392019
0.376055
0.461032
0.431599
0.427337
0.390121
0.489134
0.350112
0.326836
0.355801
0.311881
0.271236
0.285509
0.196624
0.295179
0.216284
0.134761
0.141939
0.187476
0.102901
0.097425
0.056140
0.025536
0.084658
0.031900
0.024796
0.035142
-0.025779
-0.081923
-0.054606
-0.010874
-0.018535
-0.072391
-0.022227
-0.118591
-0.076501
-0.167478
-0.089251
-0.099540
-0.073124
-0.088322
-0.102428
-0.056493
-0.083055
-0.058606
-0.071166
-0.041868
-0.153725
-0.094915
-0.099256
-0.152042
-0.080611
-0.023790
-0.087777
-0.118201
-0.111222
-0.096872
-0.038755
-0.112496
0.003529
-0.228843
-0.075106
-0.151908
-0.116706
-0.079026
-0.069066
-0.125948
-0.142312
-0.115879
-0.133596
-0.087905
-0.079156
-0.126745
-0.085906
-0.075233
-0.091806
-0.105636
-0.128025
-0.098145
-0.147928
-0.081459
-0.108120
-0.048454
-0.074224
-0.169740
-0.066950
-0.072320
-0.003760
-0.003581
-0.013409
0.031120
-0.025807
0.052276
0.133448
0.046326
0.020658
0.171506
-0.031779
0.100541
0.012712
0.026844
0.052089
0.016829
0.048893
0.139014
0.067006
-0.024081
-0.059980
-0.033071
0.043382
-0.039652
-0.040826
-0.056503
-0.093147
-0.007717
-0.161951
0.021382
-0.087217
-0.124612
-0.131661
-0.097856
-0.026344
-0.050991
-0.053116
-0.094053
-0.075161
-0.078195
-0.083710
-0.101376
-0.173167
-0.082802
-0.013999
0.019827
0.176159
0.565102
0.880621
1.151724
1.330181
1.267473
1.005050
0.641008
0.362920
-0.067566
-0.312540
-0.387400
-0.265333
-0.227068
-0.170876
-0.061939
-0.126873
-0.072680
-0.020350
-0.003110
0.083602
-0.072113
-0.014005
-0.056551
0.022177
-0.006973
-0.037181
0.086200
0.101262
0.079530
0.138374
0.149118
0.110817
0.221145
0.199304
0.231050
0.265069
0.238545
0.290836
0.275896
0.350432
0.339698
0.353070
0.429768
0.418746
0.426538
0.419885
0.420904
0.504173
0.405058
0.482150
0.478110
0.403036
0.459369
0.455402
0.310856
0.380871
0.455630
0.349991
0.348575
0.329508
0.350835
0.299220
0.315455
0.285753
0.273830
0.177850
0.201188
0.102957
0.215784
0.205680
0.166000
0.122316
0.138489
0.109109
0.032627
0.054381
0.057649
0.060552
-0.016400
-0.019205
-0.004601
0.012847
0.019597
-0.028426
-0.037057
0.102992
-0.134663
0.018353
-0.076750
-0.073732
-0.062181
-0.033961
-0.099113
-0.069631
-0.104105
-0.030259
-0.015782
-0.042418
-0.015256
-0.080702
-0.157404
-0.140232
-0.028542
-0.038069
-0.072916
-0.042000
-0.029429
-0.074739
-0.125522
-0.102826
-0.061379
0.020764
-0.026469
0.015831
-0.037213
-0.090714
-0.000867
-0.069286
-0.005850
-0.025648
-0.047584
-0.005174
-0.158789
-0.092540
-0.140674
0.014778
-0.033711
0.024641
-0.054213
-0.032919
-0.021225
-0.024293
0.019440
-0.076786
-0.021990
0.061339
0.018749
0.082883
0.029015
0.095057
0.035912
-0.022254
0.022246
0.025975
0.048539
0.188680
0.132805
0.126351
0.110821
0.210744
0.171933
0.190374
0.157114
0.113535
0.144705
0.206101
0.122136
0.157831
0.190353
0.167067
0.100908
0.047748
0.039746
0.080677
0.028550
-0.033447
0.008050
-0.000413
-0.022755
-0.005532
0.062133
-0.021521
0.051981
0.117968
0.052953
-0.009720
-0.020215
0.001396
0.011891
-0.056496
-0.116093
0.005621
0.170189
0.209143
0.277724
0.609528
0.950947
1.229590
1.408950
1.363351
1.107182
0.878900
0.498679
0.154314
-0.075542
-0.202015
-0.136886
-0.131641
-0.078720
-0.004176
0.004312
-0.040452
0.059648
0.084344
0.024911
0.042032
0.117518
0.128802
0.136958
0.124190
0.118602
0.211519
0.156831
0.179716
0.250301
0.354820
0.214016
0.236158
0.298011
0.337193
0.374709
0.391889
0.391943
0.420562
0.395985
0.456053
0.534595
0.503148
0.494849
0.557746
0.484190
0.520435
0.547369
0.575045
0.518547
0.620271
0.571380
0.551008
0.636106
0.508616
0.571719
0.529378
0.450142
0.504577
0.462909
0.554702
0.400502
0.503283
0.369643
0.302514
0.282289
0.364521
0.250349
0.326672
0.269558
0.258754
0.224125
0.122158
0.240351
0.195263
0.137816
0.119285
0.180176
0.197972
0.064450
0.061189
0.152832
0.158422
0.145013
0.112729
0.060653
0.141073
0.002612
0.109957
0.055806
0.085008
0.083971
0.009308
0.054059
0.091800
0.071101
0.042375
-0.022446
0.064084
0.033537
0.095928
0.020510
0.016218
0.086875
0.048704
0.032990
-0.033113
0.082437
0.071392
0.053871
0.045095
0.037077
0.014937
0.068911
0.022914
0.074550
0.082825
0.033299
0.080817
-0.008598
0.070090
0.063525
0.074620
0.039370
0.023661
0.041511
0.044715
0.138625
0.090971
0.062998
0.056915
0.139623
0.137059
0.130830
0.169212
0.069363
0.169413
0.193287
0.080483
0.199726
0.092165
0.126935
0.172070
0.196792
0.099969
0.208374
0.198855
0.178875
0.176170
0.215190
0.275890
0.171066
0.131316
0.236566
0.285091
0.213120
0.232928
0.322040
0.228239
0.233253
0.178981
0.283865
0.201458
0.167196
0.151398
0.083980
0.127440
0.131009
0.132191
0.148019
0.116655
0.066802
0.124226
0.018368
0.085765
0.076694
0.034687
0.147675
0.143322
0.014311
0.000304
0.111765
0.195500
0.097128
0.327264
0.659925
0.996012
1.270198
1.451825
1.500000
1.268262
0.930810
0.517893
0.221745
-0.015966
-0.119358
-0.106835
-0.078435
-0.005041
0.035241
0.123098
0.138469
0.132305
0.141170
0.155293
0.102309
0.173724
