-0.075556
0.032252
-0.071899
0.000189
-0.015049
-0.003919
0.067735
-0.124170
0.082083
-0.063788
0.070297
0.034969
0.022102
0.066509
-0.007678
0.019754
-0.055264
0.033737
0.096365
-0.036971
0.082628
0.057677
0.098219
0.009780
0.138912
0.074398
0.113606
0.160476
0.081819
0.148873
0.187116
0.067495
0.159242
0.199943
0.192897
0.218018
0.207707
0.176080
0.164578
0.139758
0.205077
0.185328
0.194297
0.184573
0.116189
0.173258
0.200691
0.159488
0.168248
0.102602
0.147424
0.102097
0.098950
0.068568
0.126754
0.011598
0.098759
0.086942
0.054593
0.055376
-0.037249
0.067021
0.056105
0.083494
0.099114
0.114329
-0.007901
0.049723
0.019025
0.054692
0.085953
0.181206
0.411895
0.677579
0.982908
1.257155
1.295210
1.269376
1.005784
0.775635
0.399849
0.014360
-0.108649
-0.180285
-0.086997
-0.033676
-0.008453
0.084707
0.124794
0.016755
0.134538
0.149607
0.131518
0.239751
0.188535
0.216469
0.169515
0.170243
0.215096
0.218939
0.187894
0.163212
0.285303
0.293834
0.270512
0.459683
0.282266
0.236917
0.358316
0.344917
0.257735
0.432282
0.347731
0.483997
0.495987
0.525716
0.478424
0.592936
0.474617
0.535933
0.634433
0.608569
0.543308
0.628388
0.558707
0.570647
0.547649
0.578405
0.563745
0.525143
0.503256
0.485615
0.552766
0.384182
0.471934
0.420033
0.398760
0.415975
0.375853
0.397415
0.353173
0.339461
0.345458
0.320380
0.228785
0.247472
0.276703
0.190782
0.271021
0.245291
0.192856
0.209611
0.144027
0.167564
0.194613
0.126011
0.081479
0.133363
0.089361
0.159427
0.081417
0.138274
0.080511
0.060952
0.030843
0.033202
0.129889
0.053073
0.136647
0.102038
0.043731
0.063242
0.057844
0.071539
0.121884
0.092049
0.058986
0.107411
0.036086
0.038038
0.045672
0.148871
0.089002
0.167664
0.020723
-0.000542
0.084600
0.100089
0.016379
0.129661
0.121419
0.107066
0.111425
0.136173
0.094058
0.105746
0.114392
0.120906
0.105636
0.168110
0.120019
0.068697
0.055677
0.069070
0.151582
0.134925
0.094233
0.118486
0.114920
0.088288
0.192519
0.187707
0.138786
0.161160
0.195701
0.217910
0.115702
0.075155
0.177133
0.247673
0.310653
0.230321
0.195537
0.270518
0.237764
0.210546
0.216337
0.175379
0.239752
0.286387
0.256821
0.162543
0.223574
0.320141
0.261740
0.236201
0.282187
0.212888
0.155508
0.181635
0.229608
0.170395
0.120111
0.138171
0.086812
0.063604
0.111200
0.086707
0.148184
0.097563
0.108253
0.089919
0.027561
0.077594
0.133638
0.074986
0.031719
0.024224
-0.001392
0.062897
0.131178
0.327496
0.593353
0.820367
1.174432
1.368307
1.500000
1.363410
1.087594
0.747231
0.328214
0.014319
-0.091818
-0.151786
-0.137684
-0.049001
0.053733
0.007676
0.092766
0.120586
0.150983
0.077178
0.096213
0.111667
0.120980
0.144167
0.180337
0.107290
0.203093
0.240394
0.144292
0.273603
0.238517
0.346070
0.296722
0.345866
0.338115
0.310590
0.405230
0.345742
0.407615
0.365964
0.435196
0.477756
0.518178
0.485758
0.456607
0.450339
0.535976
0.591345
0.589845
0.508974
0.593264
0.476682
0.613709
0.440578
0.507996
0.534841
0.615442
0.541316
0.488742
0.577622
0.547788
0.443411
0.401757
0.433431
0.448857
0.344922
0.359806
0.391787
0.276614
0.223278
0.195877
0.197167
0.231330
0.254131
0.162085
0.101393
0.262707
0.237715
0.214825
0.250249
0.101528
0.116208
0.049394
0.129489
0.072654
0.122864
0.104782
0.005087
0.100464
0.056576
0.142508
0.082372
0.041881
-0.017206
-0.048563
0.081314
-0.015828
0.049170
0.078574
0.058256
0.056515
0.030669
0.058375
-0.016399
0.030898
0.084801
-0.023328
0.057632
0.041103
0.067664
0.077284
0.068548
-0.007031
0.009050
-0.008739
-0.014420
0.072720
-0.056582
0.063856
0.097883
0.160668
0.078711
0.014764
0.025561
-0.023891
-0.021518
0.092889
-0.010826
-0.025875
0.009390
0.019195
-0.020242
0.089563
0.057118
-0.000749
-0.023590
0.056096
0.020420
0.078182
0.045400
0.145069
0.073577
0.072473
0.097989
0.111100
0.070026
0.052646
0.168066
0.100680
0.173582
0.177119
0.212275
0.108184
0.143341
0.196086
0.157418
0.131885
0.158775
0.116836
0.169375
0.141155
0.079381
0.089256
0.159850
0.148263
0.141185
0.112967
0.248042
0.150701
0.096470
0.076388
0.042564
0.038568
0.040838
0.033194
-0.026019
0.044143
0.073508
-0.033374
0.012807
0.046570
-0.056035
0.041788
0.053576
0.028565
-0.032890
-0.034354
0.042857
0.132225
0.210575
0.402653
0.687565
1.020981
1.281546
1.313764
1.058949
0.869159
0.472919
0.175566
-0.051077
-0.193979
-0.264897
-0.169143
-0.098329
-0.119807
-0.007363
-0.070652
0.079264
0.030876
0.060806
0.092959
0.056923
0.102702
0.043805
0.069673
0.088138
0.084570
0.138562
0.078325
0.105628
0.142396
0.277171
0.195827
0.151939
0.250137
0.246783
0.354554
0.265579
0.300011
0.311870
0.375245
0.406636
0.347893
0.341057
0.323364
0.388792
0.427106
0.424161
0.467574
0.388886
0.483764
0.528353
0.441581
0.511654
0.442194
0.432582
0.442884
0.482229
0.415502
0.425530
0.243292
0.307066
0.300092
0.305269
0.201285
0.327742
0.252846
0.240792
0.229136
0.244561
0.235325
0.166482
0.154914
0.126170
0.074457
0.187728
0.073938
0.004219
-0.001753
0.045847
0.066079
0.056525
0.025702
0.057252
-0.032330
-0.026523
-0.069314
-0.009446
0.000967
-0.108235
-0.054135
-0.037972
0.019025
0.004179
-0.052845
-0.025272
-0.044951
-0.047810
0.031002
-0.022655
-0.004020
-0.079712
-0.044430
0.079328
-0.067105
-0.104231
-0.103375
-0.058403
-0.019792
-0.047445
-0.052911
-0.046374
-0.028480
0.012366
-0.012123
-0.070103
-0.048137
-0.046531
-0.097034
-0.063554
-0.071396
0.065460
-0.057523
-0.046738
-0.005448
0.016449
-0.011078
0.004767
-0.040703
0.032290
-0.016786
0.012400
-0.078885
-0.029634
-0.116265
-0.051593
-0.103457
-0.039505
0.042959
0.094039
-0.024283
0.064746
0.029289
0.057182
0.022559
0.039847
0.082617
0.098908
0.100944
0.056182
0.105286
0.122212
0.110078
0.143593
0.055405
0.159888
0.135367
0.109021
0.126281
0.118097
0.087745
0.066266
0.072774
0.076308
-0.023287
0.128391
0.051137
0.093963
0.062055
-0.021181
0.061487
0.056431
0.024303
0.004069
-0.012413
0.029575
-0.105463
0.003831
-0.039002
0.004308
-0.023714
0.012493
-0.017234
0.007925
-0.069525
-0.018476
0.020083
-0.008582
0.094407
0.188196
0.464351
0.750892
1.092929
1.240303
1.320414
1.095213
0.818932
0.455900
0.158388
-0.106558
-0.199173
-0.198518
-0.172188
-0.038827
-0.041387
0.042785
0.014266
0.105009
0.013693
0.032071
-0.005819
-0.030238
0.103997
-0.047615
0.079461
0.080734
0.061012
0.064358
0.128593
0.132378
0.265377
0.205302
0.210024
0.252565
0.327797
0.257679
0.293794
0.320582
0.336676
0.357562
0.343905
0.312254
0.451525
0.388814
0.429070
0.448602
0.379883
0.395746
0.469882
0.419259
0.479815
0.488227
0.488186
0.457874
0.430666
0.454622
0.437382
0.479895
0.462139
0.456510
0.447341
0.368605
0.356064
0.322723
0.357921
0.348732
0.274051
0.275671
0.281344
0.287145
0.168478
0.178834
0.099967
0.119174
0.079935
0.062932
0.150052
0.107984
0.066154
0.227269
0.105614
0.044084
0.084961
0.006210
0.025981
0.012928
-0.044480
0.065077
0.120784
0.070319
0.071633
-0.064163
0.043721
0.018358
0.040102
0.088238
0.094460
0.064725
0.077250
-0.037344
-0.026107
-0.041110
-0.027215
-0.078034
0.004267
0.042539
0.049146
-0.015938
-0.033131
0.020312
0.046639
-0.010107
0.034961
0.001342
0.075145
0.068388
-0.020054
-0.026917
0.003083
0.043324
-0.024998
-0.002806
-0.030947
0.085189
0.003129
0.028618
0.056537
-0.036230
0.109064
-0.001784
0.063036
0.066532
-0.023050
0.116928
0.072621
0.080764
0.101040
0.112912
0.185245
-0.016388
0.125124
0.049677
-0.001480
0.103532
0.160065
0.176104
0.110634
0.123973
0.242642
0.109160
0.161303
0.149894
0.171559
0.278091
0.222886
0.248207
0.185671
0.167409
0.194616
0.220510
0.146017
0.256781
0.152907
0.120779
0.206955
0.130149
0.125814
0.145624
0.192049
0.048132
0.090628
0.118585
0.013261
0.110995
0.131795
0.112657
0.047720
0.061707
0.102851
0.067927
0.049720
0.012400
0.163064
0.057409
0.069454
0.055876
0.045002
0.105168
0.217656
0.391808
0.622943
0.929910
1.242351
1.304583
1.427823
1.122606
0.949658
0.556235
0.222433
-0.024857
-0.192055
-0.164452
0.027345
-0.031359
0.014886
0.183355
0.015161
0.107537
0.203874
0.109424
0.057850
0.113221
0.224081
0.142789
0.201543
0.290003
0.125763
0.158086
0.168828
0.232488
0.318780
0.272282
0.321335
0.307998
0.350798
0.319962
0.406678
0.374128
0.427636
0.355883
0.456939
0.469293
0.507112
0.439572
0.585880
0.569180
0.542687
0.608549
0.624084
0.584616
0.587407
0.563139
0.575014
0.471863
0.573936
0.491097
0.512848
0.540578
0.450871
0.560194
0.520725
0.471379
0.504931
0.444253
0.450589
0.426062
0.373945
0.368577
0.339175
0.366038
0.445429
0.256777
0.284364
0.336415
0.185252
0.180028
0.147044
0.175783
0.168287
0.191184
0.186268
0.187487
0.091412
0.141826
0.063017
0.198241
0.112669
0.056105
0.142402
0.052256
0.081425
0.158240
0.167899
0.060022
0.115388
0.120975
0.142334
0.061966
-0.027022
0.054870
0.073956
0.129783
0.095610
0.042350
0.027136
0.094025
0.082303
0.038794
0.034624
0.177486
0.085087
0.042468
0.077195
0.085204
0.125960
0.024566
0.065286
0.085839
0.114403
0.056850
0.112007
0.099653
0.072784
0.084774
0.165063
0.121281
0.034647
0.113445
0.120973
0.046453
0.017393
0.069924
0.150825
0.144609
0.088423
0.149628
0.105754
0.177438
0.183958
0.060997
0.147493
0.155888
0.195803
0.234821
0.099186
0.130696
0.201139
0.186279
0.222657
0.311442
0.212835
0.190854
0.196807
0.263856
0.243101
0.155964
0.243983
0.200401
0.199597
0.214169
0.232648
0.192981
0.252513
0.195184
0.218480
0.169313
0.201514
0.120243
0.181433
0.190426
0.179802
0.159258
0.106752
0.105456
0.109494
0.070630
0.147505
0.064909
0.106391
0.043057
0.111124
0.054385
0.154735
0.074326
0.147649
0.086925
0.128473
0.042724
0.257751
0.431761
0.678321
1.027218
1.223379
1.297018
1.282154
1.231161
0.825433
0.468857
0.242729
-0.052814
-0.100077
-0.144019
-0.069812
-0.029914
0.024808
0.098047
0.069200
0.110793
0.113338
0.095953
0.060913
0.157129
0.152970
0.131364
0.198138
0.224964
0.164758
0.196560
0.201801
0.281686
0.214624
0.200859
0.253200
0.321494
0.382556
0.300266
0.403875
0.368070
0.316829
0.522296
0.405001
0.505311
0.505804
0.509540
0.483117
0.516994
0.548982
0.440911
0.481850
0.515052
0.547912
0.544411
0.600560
0.545294
0.569927
0.506740
0.568525
0.490360
0.481135
0.462155
0.469901
0.416686
0.453697
0.432364
0.412729
0.259190
0.369740
0.344249
0.289556
0.223376
0.305790
0.153173
0.237998
0.229109
0.177104
0.176820
0.133436
0.122277
0.072583
0.097207
0.073641
-0.010237
0.085043
0.133630
0.092608
0.077282
0.069165
-0.029437
0.034671
0.078438
-0.000236
0.085766
0.074386
0.063589
0.058809
0.058102
-0.009479
0.061610
-0.064116
0.066212
0.041552
0.057175
0.027974
0.059202
-0.037193
-0.012572
-0.008311
-0.040167
-0.010939
-0.022335
0.063531
0.028596
-0.064505
0.042438
0.098154
-0.073858
-0.013157
0.042902
-0.031006
-0.079045
0.035363
-0.010499
-0.016257
-0.056926
-0.011579
-0.011282
-0.024150
0.031585
-0.008168
0.026223
0.014781
0.050394
0.034557
-0.040107
0.046368
-0.045917
-0.050402
0.072590
-0.004270
0.008318
0.036636
0.068537
0.081656
0.084568
0.048828
0.053645
0.170212
0.144013
0.134328
0.196725
0.132322
0.157606
0.137918
0.151633
0.172986
0.161365
0.203049
0.072631
0.187237
0.168719
0.076547
0.152221
0.156353
0.037865
0.013617
0.051593
0.103558
0.051220
0.013626
0.036022
0.027268
-0.021474
-0.016912
-0.015064
-0.051063
-0.034068
0.056833
-0.041470
-0.002621
-0.054628
-0.012119
-0.067577
0.026574
-0.043640
-0.035748
-0.053734
-0.077087
0.019623
0.092068
0.282121
0.605864
0.947797
1.149006
1.285945
1.246962
1.002173
0.667826
0.263068
0.051671
-0.224417
-0.250386
-0.276209
-0.120416
-0.124205
-0.044624
-0.094890
0.007316
0.086907
-0.020379
0.027749
0.028659
-0.021684
0.001602
0.090915
0.048456
0.046751
0.021667
0.090440
0.096108
0.078450
0.170588
0.088272
0.164865
0.239657
0.311901
0.258576
0.303030
0.226935
0.321130
0.405036
0.293864
0.314564
0.331148
0.380561
0.431258
0.438331
0.429024
0.465829
0.364525
0.485442
0.353416
0.480489
0.487457
0.403197
0.400176
0.468445
0.358283
0.412562
0.351511
0.357552
0.349737
0.349254
0.288568
0.392236
0.298006
0.251355
0.148093
0.145266
0.271699
0.222183
0.120538
0.190174
0.099550
0.063542
0.089148
0.019471
0.118443
0.082461
0.056345
0.010058
-0.007697
0.016387
0.021970
0.028706
0.010933
0.050843
-0.028185
-0.038049
-0.070512
-0.017277
-0.043193
-0.085015
-0.048390
-0.055144
-0.027694
-0.075941
-0.064527
0.030273
-0.102335
-0.042489
-0.133234
-0.065910
-0.100036
-0.048455
-0.034031
-0.065722
-0.038794
-0.071256
-0.122574
-0.095086
-0.068002
-0.078155
-0.060237
-0.056369
-0.083519
-0.039956
-0.124601
-0.023544
-0.087106
-0.081358
-0.035502
-0.084121
-0.070117
-0.058592
-0.060581
-0.053230
-0.025842
-0.040091
-0.154302
-0.076603
-0.053122
-0.012108
-0.032748
-0.030588
-0.088870
0.007166
-0.089143
0.026332
-0.055425
-0.030789
-0.026359
-0.009847
0.033820
0.025836
-0.043780
0.011931
0.021359
0.061139
0.080791
-0.022946
0.084809
0.089799
0.153389
0.049547
0.042145
0.123086
0.172019
0.082159
0.067322
0.151990
0.050734
0.101149
0.042983
-0.027741
0.109192
0.104210
-0.003546
0.007105
-0.009093
0.007689
-0.009332
-0.044248
-0.038184
-0.045795
-0.107152
0.044460
-0.096440
-0.006149
-0.104746
0.048632
-0.023887
-0.040766
-0.060142
-0.076123
-0.126614
-0.084181
-0.129031
-0.008603
0.026214
0.249340
0.552873
0.916237
1.114089
1.271775
1.134958
0.915000
0.573096
0.314500
-0.020883
-0.211956
-0.299654
-0.222567
-0.159275
-0.151420
-0.091827
-0.076146
0.004370
-0.022066
0.087149
0.041494
0.024146
0.031311
-0.065208
0.006426
0.011649
-0.000616
0.140183
0.115630
0.079612
0.048301
0.183412
0.197045
0.134115
0.165365
0.234815
0.125694
0.233715
0.237006
0.308362
0.310578
0.349457
0.335762
0.350909
0.451906
0.417121
0.427381
0.356401
0.440135
0.431129
0.463178
0.477997
0.440149
0.450238
0.353513
0.410326
0.397938
0.464681
0.511434
0.313217
0.411906
0.298301
0.351595
0.355053
0.323237
0.249291
0.317171
0.222756
0.263134
0.249831
0.198051
0.180571
0.212816
0.192219
0.149033
0.170419
0.065430
-0.019829
0.013762
0.087168
0.034184
0.066073
0.028209
-0.034220
0.077787
-0.020132
-0.001581
0.022252
0.079390
-0.048814
-0.037497
0.007935
-0.005844
0.039087
-0.067063
0.009353
0.001130
-0.036938
-0.003946
-0.005863
-0.035841
-0.014054
0.085198
0.022927
-0.043586
-0.032584
-0.110708
-0.017676
-0.118110
-0.036414
-0.102107
-0.004240
0.042672
0.053672
0.063519
0.028987
-0.018092
-0.086118
-0.036377
0.002900
0.000157
-0.043708
-0.054903
0.002594
0.036504
0.014063
0.043382
-0.016079
-0.071681
-0.029680
-0.044705
-0.006759
-0.051118
0.070056
-0.006253
0.025099
0.064893
0.042835
-0.039897
0.055013
-0.000231
0.020775
0.110901
0.090710
0.066170
0.058429
0.054131
0.074238
0.108661
0.088341
0.115825
0.212686
0.175592
0.116659
0.218792
0.233945
0.151107
0.177990
0.140016
0.157481
0.229486
0.227919
0.174531
0.127191
0.201272
0.095511
0.131490
0.112680
0.143000
0.057861
0.058350
0.072238
0.115322
0.017091
0.043125
0.046305
-0.006782
0.033613
0.003775
0.055652
-0.018259
-0.016730
0.059558
-0.006184
0.043687
-0.019316
0.024628
0.046421
0.053200
0.155026
0.367391
0.797333
0.947002
1.207486
1.356227
1.312097
1.015204
0.669104
0.317528
-0.033497
-0.164392
-0.171283
-0.218353
-0.049909
0.045065
-0.002368
0.030634
0.020091
0.097025
0.149051
0.098079
0.039520
0.135397
0.155005
0.150925
0.185791
0.124127
0.166736
0.159811
0.204248
0.218721
0.261806
0.233198
0.245214
0.304359
0.303081
0.306862
0.353142
0.361044
0.312059
0.385249
0.316025
0.436689
0.441210
0.477964
0.513389
0.455978
0.413863
0.506513
0.498062
0.505783
0.585652
0.547388
0.483908
0.516472
0.624866
0.460774
0.566162
0.400430
0.484814
0.469198
0.417990
0.482346
0.404084
0.312586
0.395493
0.384666
0.319566
0.325857
0.230320
0.326786
0.156244
0.272925
0.233286
0.196278
0.208341
0.056935
0.208563
0.146460
0.097681
0.107429
0.133459
0.082828
0.089621
0.130120
0.058166
0.011794
0.064166
0.075230
0.092466
-0.030516
0.118976
0.046931
0.123881
0.107446
0.057148
0.054921
-0.016547
0.044365
0.128422
0.068621
0.070466
0.100590
0.152299
-0.011420
0.018323
0.077046
-0.027206
-0.006066
-0.006002
-0.016116
0.001680
0.072877
0.049343
0.012534
0.028099
0.071607
0.050127
0.062996
0.055227
0.047667
0.086918
0.040739
0.065470
0.094642
0.138363
0.042240
0.029523
0.039795
0.074089
0.062198
0.021839
0.071318
0.054415
0.076967
0.087080
0.051715
0.043809
-0.005689
0.077809
0.036903
0.101865
0.095643
0.158792
0.194702
0.185270
0.135945
0.149782
0.092056
0.088737
0.236333
0.208507
0.211358
0.192692
0.180689
0.176438
0.245398
0.212335
0.275617
0.258849
0.147204
0.118020
0.132461
0.185470
0.124609
0.204769
0.174470
0.159855
0.150346
0.078573
0.051712
0.046260
0.114285
0.099429
0.097188
0.010853
0.083692
0.062002
0.100847
-0.042461
0.027231
0.028519
-0.026046
0.046896
0.004047
0.014106
0.017253
0.042255
0.205423
0.179936
0.445404
0.780162
1.101222
1.239422
1.385573
1.218315
0.951168
0.616320
0.238582
0.029224
-0.133952
-0.165387
-0.156662
-0.069036
-0.036929
0.015338
0.068636
0.017733
0.007870
0.044019
0.138010
0.071731
0.069775
0.148411
0.116767
0.150280
0.108733
0.164576
0.037833
0.205442
0.122211
0.162148
0.300758
0.267052
0.358548
0.312536
0.373374
0.364411
0.329648
0.391968
0.396111
0.424043
0.441475
0.490830
0.418113
0.497414
0.496164
0.457946
0.491088
0.583896
0.593023
0.462667
0.475237
0.446643
0.486243
0.460573
0.516046
0.515297
0.466423
0.455904
0.473273
0.355774
0.347538
0.335666
0.406665
0.280625
0.314433
0.315639
0.268749
0.281111
0.303277
0.224615
0.278102
0.164990
0.132172
0.131773
0.160627
0.079701
0.166045
0.144000
0.112642
0.072725
0.201773
0.074867
0.047237
0.023478
-0.048129
0.058085
-0.027763
-0.038841
-0.043352
-0.039665
0.030011
-0.002453
0.007685
0.007977
-0.010725
-0.137362
-0.046589
-0.011371
0.009285
0.058122
0.043074
-0.030726
0.015660
-0.001601
-0.082192
-0.018454
-0.038714
-0.064381
-0.041335
-0.070792
0.016385
0.033940
-0.033934
-0.050606
-0.029918
0.006978
0.007126
-0.023512
-0.045865
0.032516
-0.081967
-0.055068
0.043716
0.012761
-0.022590
-0.034916
-0.126552
-0.027716
0.001216
-0.110176
-0.070468
-0.017230
-0.028482
-0.050152
0.062086
0.033806
0.033959
-0.026968
0.010199
0.013871
-0.005840
-0.018736
0.115995
0.044277
0.045258
0.102196
0.158262
0.152493
0.068207
0.085723
0.110115
0.080791
0.075571
0.128386
0.091789
0.145795
0.109030
0.098661
0.045728
0.102825
0.068948
0.105391
0.023900
0.061822
0.060185
0.054765
0.024031
-0.011553
0.033098
-0.015340
-0.039587
-0.016945
-0.099186
-0.121156
-0.009701
-0.039348
-0.099308
-0.049453
-0.076196
-0.087290
-0.136386
-0.004668
-0.042074
-0.041155
-0.133353
-0.110028
0.034197
0.132577
0.386981
0.659183
0.969010
1.225246
1.215531
1.213601
0.855735
0.442692
0.177120
-0.039558
-0.204978
-0.185426
-0.191756
-0.082819
-0.099062
-0.092071
-0.032995
-0.112443
-0.068640
-0.088788
-0.126646
-0.017434
-0.052933
-0.021706
-0.027911
-0.022096
0.088630
0.064435
0.087654
0.035637
0.119377
0.181638
0.049168
0.180522
0.133537
0.282937
0.276654
0.261398
0.248869
0.340644
0.327069
0.360335
0.359635
0.416905
0.245204
0.389536
0.408956
0.390759
0.352213
0.389980
0.387765
0.403374
0.345104
0.488302
0.388350
0.379713
0.378144
0.418435
0.281091
0.386642
0.284126
0.315536
0.376816
0.218320
0.168386
0.281614
0.252614
0.261475
0.139260
0.135237
0.097526
0.152746
0.082088
0.079054
0.104309
0.083062
0.053088
0.011145
0.028844
-0.055779
-0.026702
-0.028807
-0.027386
-0.012640
-0.077982
-0.033233
-0.010951
-0.144028
-0.003152
-0.077558
-0.075436
-0.068474
-0.087659
-0.133144
-0.007521
0.002021
-0.115737
-0.045857
-0.090457
-0.116890
-0.139124
-0.108958
-0.011983
-0.108886
-0.070470
-0.010188
-0.137588
-0.052802
0.053169
-0.010388
-0.095300
-0.084192
-0.038654
-0.062284
-0.099942
-0.075104
-0.077637
-0.120131
-0.069510
-0.053526
-0.107793
-0.165959
-0.125134
-0.093298
-0.091990
-0.099662
-0.134534
-0.092467
-0.102965
-0.131976
-0.166360
-0.135258
-0.039758
-0.031761
-0.044425
-0.127472
-0.035922
-0.041673
-0.103152
-0.033959
-0.045037
-0.084518
-0.013713
-0.027368
-0.076593
0.009522
0.050875
0.096467
-0.008433
0.116315
0.077323
0.041479
0.025362
0.100590
0.058145
0.117920
0.141194
0.066120
0.099661
0.040102
0.056092
0.047469
0.041139
0.049951
0.068415
0.067273
-0.002353
-0.041536
0.036939
-0.114951
-0.023327
-0.054756
-0.060432
-0.136974
-0.020683
0.002578
-0.133972
-0.077777
-0.109952
-0.097458
-0.125996
-0.115806
-0.128657
-0.080344
-0.058650
-0.053133
0.008655
-0.101541
0.060991
0.125287
0.411042
0.653949
0.960218
1.178434
1.318137
1.091999
0.871373
0.369037
0.130410
-0.105860
-0.220622
-0.204947
-0.225657
-0.116478
-0.081756
-0.113823
-0.051159
-0.027080
0.008901
0.029687
-0.020517
0.048126
0.045933
0.005173
0.005728
0.027634
-0.011137
0.028208
0.089855
0.119992
0.136528
0.085957
0.238276
0.222652
0.105762
0.169892
0.217780
0.250412
0.275402
0.265991
0.255428
0.270274
0.300068
0.367655
0.397489
0.435786
0.445370
0.403185
0.478655
0.446111
0.497206
0.482969
0.427542
0.447888
0.457342
0.430822
0.431873
0.371908
0.433472
0.359260
0.343220
0.346700
0.327549
0.323035
0.299210
0.320265
0.297451
0.267167
0.150751
0.254445
0.206739
0.069758
0.159350
0.202596
0.157484
0.078020
0.136476
0.010478
-0.020577
-0.004051
0.037572
0.082642
0.090200
-0.008914
-0.016270
-0.039991
-0.032547
0.079074
-0.008422
-0.031611
0.017759
-0.081828
0.006707
-0.039228
-0.009713
-0.005457
-0.017461
-0.096280
-0.026213
-0.105411
-0.037825
0.005620
-0.030182
0.043299
-0.028593
0.008305
-0.027826
-0.077191
-0.038483
-0.100096
-0.060558
0.000415
-0.043292
0.010084
-0.000353
0.022708
-0.031819
-0.015779
-0.046240
-0.009732
0.010704
0.002343
-0.051685
0.005377
0.012113
0.027619
-0.059215
0.004170
0.007857
0.002176
0.049109
-0.036954
0.042464
0.074294
-0.046018
0.009910
0.085187
0.023020
0.088213
0.070477
0.126720
0.036726
0.116625
0.081450
0.173923
0.127595
0.207177
0.077626
0.081729
0.157821
0.227136
0.206978
0.156262
0.185847
0.179047
0.200412
0.173409
0.175807
0.177587
0.154848
0.228585
0.165516
0.167833
0.144533
0.087708
0.169113
0.093246
0.092405
-0.021024
0.088640
0.085349
0.152620
0.022856
-0.002404
0.128161
0.045249
0.043859
0.105024
0.030154
0.079424
0.032698
0.041604
0.029782
0.040382
0.076401
0.023078
0.085816
0.146779
0.147614
0.290058
0.546673
0.897422
1.130200
1.375620
1.338792
1.178539
0.833213
0.499839
0.215837
-0.082946
-0.174900
-0.099994
-0.040479
0.094171
0.020110
-0.007716
0.023118
0.042777
0.109387
0.070150
0.055472
0.104489
0.085149
0.144361
0.148077
0.079848
0.156235
0.166064
0.141036
0.175052
0.229600
0.266934
0.311082
0.277255
0.340965
0.371995
0.371222
0.315335
0.449610
0.400733
0.465261
0.424084
0.406853
0.477984
0.454128
0.495524
0.550630
0.585540
0.549707
0.587690
0.638587
0.624975
0.545946
0.549428
0.494954
0.513378
0.505678
0.463360
0.483471
0.532079
0.440086
0.522801
0.357109
0.432993
0.448312
0.475107
0.362605
0.384690
0.393725
0.343493
0.264360
0.277735
0.201815
0.273650
0.205115
0.197351
0.205456
0.204748
0.196768
0.110565
0.138448
0.055735
0.100590
0.073733
0.122317
0.133049
0.091295
0.101736
0.099373
0.119147
0.038344
0.049117
0.076037
0.090134
0.142971
0.085315
0.083805
0.115128
0.169368
0.028638
0.017685
-0.018670
0.093801
0.161072
0.095852
0.056448
0.018515
0.039528
0.071888
0.045007
0.074628
0.127689
0.139584
0.014069
-0.015537
0.022658
0.075665
0.088594
0.000194
0.041783
0.018770
0.088460
0.057195
0.065066
-0.036695
0.090485
0.028300
0.059821
0.046392
0.047540
0.033117
0.038018
0.087795
0.118459
0.073784
0.068055
0.112009
0.141601
0.045013
0.026848
0.089260
0.135203
0.188442
0.173591
0.157494
0.053805
0.167989
0.280745
0.235659
