0.057311
-0.015910
0.051058
-0.086038
-0.073315
0.038495
0.001879
0.057139
-0.023812
0.067259
-0.071719
-0.053408
0.122308
-0.069556
0.014807
0.009220
0.076076
0.017385
0.040633
0.013811
0.065089
0.053001
0.030383
0.017073
0.059794
0.079326
0.072480
0.098958
0.139741
0.108468
0.170633
0.125757
0.198154
0.252038
0.198013
0.232190
0.165177
0.288816
0.149013
0.240159
0.128708
0.296372
0.174866
0.125164
0.138415
0.161649
0.186591
0.112409
0.135750
0.088005
0.193163
0.089010
0.068750
0.118252
0.102523
0.072792
0.045981
0.181061
0.110151
0.094611
0.076768
0.097117
0.039103
-0.020082
0.058506
-0.034404
0.062089
-0.031189
0.112609
0.046630
0.077025
0.074248
0.299821
0.551822
0.712414
1.061282
1.381934
1.409550
1.390820
1.110341
0.681959
0.362654
0.122188
-0.137666
-0.261649
-0.170882
-0.067725
-0.000523
0.105893
0.117517
0.187161
0.017363
0.121903
0.154933
0.082226
0.111015
0.172640
0.233699
0.186870
0.263388
0.152829
0.163258
0.206748
0.266533
0.333976
0.289864
0.294022
0.346011
0.316297
0.368632
0.382790
0.445506
0.411775
0.440221
0.441033
0.525308
0.494967
0.566260
0.598665
0.567332
0.591984
0.547241
0.562176
0.542632
0.549643
0.616494
0.566539
0.565643
0.650467
0.505375
0.509431
0.562702
0.508801
0.476449
0.511830
0.521298
0.501933
0.440945
0.417259
0.447638
0.412779
0.356654
0.384722
0.353563
0.316679
0.330251
0.196257
0.329487
0.221767
0.183533
0.220459
0.202979
0.175184
0.171603
0.157623
0.139042
0.119591
0.175802
0.133220
0.093303
0.075441
0.114057
0.095991
0.127137
0.120320
0.108616
0.106490
0.032230
0.073331
0.077740
0.089466
0.032170
0.043908
0.115888
0.093352
0.030016
0.091686
0.123972
0.065994
0.040732
0.112578
0.028991
0.028055
0.184039
0.095559
0.114059
0.080828
0.030657
0.069859
0.019322
0.094084
-0.005648
0.107066
0.081580
0.089885
0.079322
0.114883
0.083680
0.124881
0.054665
0.069163
0.148473
0.110045
0.062764
0.130732
-0.002339
0.124536
0.121772
0.149146
0.122444
-0.001343
0.108406
0.064170
0.106536
0.130550
0.095530
0.135379
0.144006
0.170897
0.231049
0.196481
0.162917
0.211158
0.175242
0.255137
0.303526
0.264012
0.236750
0.253539
0.306369
0.300474
0.313438
0.286833
0.322158
0.268503
0.268614
0.240855
0.219812
0.190446
0.239786
0.186083
0.259226
0.174463
0.166884
0.127788
0.094189
0.129904
0.079895
0.143756
0.141394
0.119892
0.144580
0.055715
0.147307
0.189475
0.155478
0.015431
0.163045
0.083309
0.159767
0.064730
0.136847
0.096064
0.155432
0.248988
0.489428
0.641395
0.954857
1.327975
1.471235
1.500000
1.176003
0.810915
0.435369
0.131312
0.015574
-0.161866
-0.117861
-0.056183
-0.062151
0.006119
0.070016
0.132374
0.054004
0.143653
0.136606
0.129968
0.142844
0.158299
0.196277
0.182013
0.119419
0.231583
0.241890
0.198093
0.272544
0.290594
0.325990
0.244725
0.315427
0.356987
0.358505
0.385614
0.461616
0.423281
0.355810
0.468858
0.585728
0.503301
0.539519
0.581639
0.567601
0.580410
0.560112
0.521434
0.607018
0.640551
0.611485
0.599275
0.555245
0.558456
0.624478
0.545993
0.550400
0.513908
0.519705
0.503314
0.485464
0.469132
0.518378
0.373690
0.375940
0.316676
0.331607
0.315803
0.367154
0.178876
0.286220
0.231788
0.181415
0.217831
0.157998
0.104840
0.186880
0.217959
0.120845
0.103541
0.081382
0.168101
0.182430
0.091576
0.014342
0.147570
0.036498
0.091323
-0.023310
0.037533
0.039819
-0.028493
0.005204
0.051950
0.108608
0.002152
-0.005608
-0.005052
0.041252
0.049507
0.022079
0.025342
-0.002379
0.023216
-0.000879
0.033696
0.032366
0.089360
0.036470
0.047993
0.023455
0.067498
0.017269
0.026473
0.111578
0.049048
-0.084610
0.054377
0.016930
0.074339
0.042150
-0.030678
0.075480
0.016604
0.014215
-0.034814
0.020322
-0.034632
0.035802
0.017554
0.008350
0.012785
0.025034
-0.035375
0.092867
0.086510
0.034886
-0.022710
0.045404
0.012253
0.017151
0.092857
0.129286
0.076975
0.099355
0.102315
0.114867
0.132708
0.149508
0.070445
0.087272
0.147897
0.185961
0.139671
0.147657
0.176367
0.203044
0.134192
0.196438
0.214909
0.168192
0.197174
0.145373
0.179399
0.080227
0.152812
0.098033
0.092651
0.105046
-0.019204
0.031104
0.099586
0.183146
0.183051
0.046184
0.010592
-0.009523
-0.013500
-0.029669
-0.019763
-0.050846
-0.021277
-0.055789
-0.071540
-0.014254
-0.054813
-0.059621
-0.043421
-0.011584
0.090497
0.295048
0.484091
0.816762
1.166392
1.305342
1.342930
1.088235
0.897035
0.491556
0.138634
-0.163251
-0.169769
-0.247807
-0.105842
-0.127735
-0.122781
-0.026466
-0.005986
0.116218
0.010875
0.036391
-0.082895
0.055534
0.064091
0.105005
0.103626
0.073708
0.083871
0.120999
0.125292
0.144567
0.184667
0.142184
0.293550
0.163236
0.245604
0.310895
0.351529
0.275383
0.237599
0.339382
0.359659
0.310611
0.376535
0.344395
0.310367
0.415278
0.465842
0.472566
0.460226
0.528900
0.443302
0.504567
0.436265
0.551930
0.451763
0.523346
0.417099
0.428949
0.420458
0.470239
0.360668
0.396541
0.396575
0.366884
0.286194
0.210762
0.274804
0.309495
0.205181
0.266254
0.173146
0.167460
0.185622
0.178484
0.120088
0.136262
0.117446
0.172890
0.073593
0.076092
0.074990
0.020468
0.036582
0.028318
0.012354
-0.089285
0.047568
-0.003771
0.046929
0.013760
-0.091511
-0.003609
-0.086842
-0.079641
-0.079965
0.021871
-0.033456
-0.016187
-0.089296
-0.075208
-0.084122
-0.076633
-0.025860
-0.082164
-0.050071
-0.092130
0.004988
-0.096504
-0.059882
-0.039174
-0.092508
-0.048248
-0.023909
-0.092204
0.010228
-0.084795
-0.004384
-0.084305
-0.030499
-0.056949
-0.102583
-0.006669
0.015205
-0.066732
-0.078346
0.055015
-0.137895
0.027763
-0.043861
-0.103006
-0.005447
-0.048846
-0.016734
0.029099
-0.030379
-0.079504
-0.064480
-0.004622
0.007600
0.024211
-0.044058
0.001311
-0.015617
-0.010699
0.042017
0.083764
0.053871
0.118159
0.141419
0.072085
0.087414
0.110105
0.143803
0.104842
0.060077
0.069044
0.185733
0.159552
0.184037
0.067737
0.068149
0.101003
0.119521
0.061536
0.144459
0.186775
0.024095
0.112548
0.059722
0.055847
0.089557
0.086274
0.068694
0.063359
-0.012336
0.005299
-0.001814
-0.049140
-0.108818
0.015053
-0.114842
0.050345
0.077653
-0.061611
-0.105884
0.023441
0.014839
-0.019356
-0.143614
-0.030814
0.120793
0.126392
0.463655
0.687823
1.077127
1.370498
1.415772
1.239798
0.878672
0.583283
0.305003
0.032394
-0.139279
-0.184527
-0.232585
-0.079197
-0.002519
-0.077011
-0.026039
0.064232
0.013124
0.001826
-0.002278
-0.017641
0.046618
0.067524
0.002228
0.143320
0.042734
0.142062
0.181954
0.175066
0.089915
0.257563
0.141986
0.146355
0.217730
0.332021
0.311832
0.281717
0.271216
0.241242
0.318169
0.462836
0.445097
0.519626
0.435745
0.443915
0.427649
0.439514
0.537303
0.510324
0.572303
0.550755
0.597320
0.457382
0.512582
0.457015
0.449359
0.490070
0.526077
0.430602
0.468822
0.484365
0.368567
0.411649
0.408672
0.363333
0.339782
0.387701
0.363739
0.279215
0.296527
0.235383
0.192986
0.214887
0.286340
0.122333
0.107171
0.164390
0.172367
0.157877
0.056891
0.063068
0.029598
0.017596
0.103098
0.115329
0.090958
0.063677
0.018038
0.070102
-0.013806
0.095668
0.079478
0.032553
0.073180
0.018074
0.079646
0.109550
-0.041684
-0.013757
0.004231
0.035442
0.051388
-0.035678
0.088542
0.017231
-0.039451
0.036410
0.045576
-0.009187
0.014542
0.012277
0.108636
0.051550
0.027134
0.084340
-0.054995
0.070857
0.030176
0.045311
0.047450
-0.027412
0.011132
0.002680
0.118003
0.068314
0.054846
0.031377
0.011275
-0.033108
0.028595
-0.015208
0.061726
0.076114
0.115839
0.029746
-0.020515
0.051164
0.137522
0.046300
0.154489
0.123165
0.106168
0.157472
0.105504
0.186716
0.115645
0.145135
0.152047
0.190921
0.211820
0.240025
0.118309
0.186037
0.136432
0.237264
0.119805
0.250209
0.116753
0.188302
0.243232
0.236358
0.277419
0.209527
0.187999
0.198180
0.228293
0.177569
0.219388
0.151815
0.119352
0.184025
0.159619
0.184221
0.141873
0.144146
0.125619
0.066532
0.033571
0.098407
0.047004
0.119305
0.090593
0.114794
0.099288
0.076945
0.057001
0.077480
0.060785
0.092627
0.143464
0.301732
0.458467
0.665402
0.978627
1.291587
1.410271
1.446448
1.169861
0.880156
0.450657
0.138802
-0.054491
-0.047580
-0.064508
-0.087689
0.075982
0.061309
0.058244
0.091212
0.215950
0.168678
0.155165
0.141702
0.145803
0.189855
0.223101
0.213669
0.218155
0.277126
0.161486
0.204366
0.222504
0.292163
0.290367
0.303299
0.311620
0.345232
0.428159
0.426874
0.355818
0.439979
0.423487
0.451877
0.493741
0.550236
0.510768
0.556427
0.580925
0.570744
0.548785
0.641141
0.653302
0.597045
0.622587
0.572575
0.637802
0.675776
0.587085
0.525360
0.642445
0.588217
0.456998
0.550959
0.523423
0.529920
0.496350
0.457140
0.433106
0.396862
0.349904
0.401686
0.392066
0.367768
0.333897
0.318324
0.309718
0.271782
0.269359
0.199277
0.181433
0.199388
0.175745
0.214206
0.097484
0.158409
0.183634
0.143732
0.105185
0.136499
0.064596
0.130702
0.154068
0.031748
0.079833
0.170217
0.085832
0.018486
0.111842
0.080362
0.109725
0.108080
0.051846
0.090244
0.016578
0.108043
0.188477
0.070100
0.129714
0.100625
0.069587
0.190504
0.050005
0.096229
0.133000
0.015783
0.022734
0.078716
0.114506
0.065899
0.141552
0.027707
0.085524
0.085052
0.207503
0.118098
0.180750
0.098721
0.156701
0.141333
0.105846
0.102018
0.157592
0.096033
0.105666
0.140849
0.119704
0.132732
0.098522
0.114575
0.116945
0.191878
0.160790
0.009620
0.148349
0.093530
0.168169
0.197966
0.149497
0.182020
0.221240
0.226593
0.230467
0.218933
0.260639
0.232988
0.227988
0.219206
0.199782
0.244516
0.244146
0.268007
0.334040
0.240586
0.291755
0.204740
0.185899
0.276280
0.231123
0.165461
0.151328
0.218401
0.100833
0.156800
0.186684
0.144266
0.054974
0.003025
0.107280
0.056037
0.016378
0.110329
0.013651
0.094614
0.154304
0.031924
0.177605
0.057639
0.107425
0.054561
0.070120
0.042944
0.090618
0.217048
0.339294
0.572244
0.928843
1.315664
1.468769
1.431119
1.336046
0.926414
0.578973
0.235959
-0.001432
-0.069499
-0.172285
-0.067728
-0.090118
-0.030142
0.058873
-0.016010
0.038866
0.102237
0.070632
0.132853
0.105571
0.050312
0.225170
0.146674
0.199469
0.111416
0.232839
0.234795
0.228079
0.219078
0.285261
0.213063
0.233779
0.351157
0.295824
0.424852
0.384008
0.416588
0.428637
0.388839
0.456720
0.429703
0.474025
0.544559
0.575246
0.555774
0.583112
0.531403
0.657796
0.590219
0.582525
0.640298
0.561737
0.538878
0.534988
0.539744
0.586419
0.494896
0.441628
0.539635
0.431769
0.405527
0.414440
0.473974
0.417509
0.349745
0.322599
0.346224
0.326384
0.359667
0.267268
0.301745
0.245069
0.148451
0.204165
0.211181
0.163074
0.174754
0.083735
0.117498
0.157805
0.044606
0.108031
0.004132
0.027648
0.064889
0.088311
0.066511
0.099693
0.072097
0.007334
0.114791
0.014558
0.102175
0.002116
0.088754
0.046236
0.097300
0.061573
0.043732
0.060697
-0.063266
-0.009439
0.047692
0.040950
-0.059292
-0.011522
-0.045055
0.025882
0.057285
0.025939
0.006508
-0.005295
0.010892
0.068868
0.031073
0.013136
0.009759
0.012834
0.016800
-0.065691
0.013297
0.096009
0.040672
0.024638
0.031289
-0.031853
0.087642
-0.031399
0.019669
-0.007810
0.022099
-0.032589
0.032251
-0.032041
-0.035720
0.013220
-0.005466
-0.044657
0.111546
0.086284
0.007237
0.137868
0.105960
0.120628
-0.013836
0.107124
0.143364
0.189133
0.042299
0.068973
0.121453
0.125039
0.075689
0.096407
0.140245
0.138714
0.192536
0.066794
0.191725
0.127977
0.193578
0.077550
0.095552
0.138738
0.047943
0.137562
0.093499
-0.001299
0.016392
0.048058
0.030745
0.017327
0.009039
-0.016031
0.022112
-0.088516
0.056484
-0.070357
0.012449
-0.018624
-0.092609
-0.116370
-0.018444
-0.083191
0.016038
-0.061946
-0.101548
-0.123707
-0.005602
0.137706
0.424845
0.756698
1.046309
1.225228
1.314296
1.193958
0.919839
0.651823
0.118710
-0.081091
-0.276878
-0.347959
-0.241963
-0.198133
-0.197589
-0.133416
0.066349
0.074724
-0.057492
-0.087337
-0.030970
-0.002767
0.030282
-0.005504
0.028073
-0.025109
0.019603
0.030221
0.018695
0.058523
0.101716
0.143694
0.180282
0.184597
0.237070
0.188408
0.205413
0.244505
0.276827
0.343009
0.352785
0.256072
0.286349
0.389141
0.343369
0.474739
0.440764
0.504536
0.425683
0.414444
0.394326
0.425861
0.424794
0.462846
0.462970
0.390868
0.425059
0.480207
0.397621
0.439884
0.348276
0.395059
0.315591
0.233721
0.179690
0.294757
0.256186
0.320312
0.238815
0.209397
0.168436
0.132180
0.110622
0.171886
-0.026683
0.178419
0.102748
0.132858
-0.006639
0.039898
0.105411
0.028362
0.060772
-0.047761
-0.020472
0.010948
-0.094408
-0.088403
-0.120690
-0.068856
-0.094848
-0.021334
-0.045776
-0.046687
-0.054635
-0.051327
-0.040568
-0.113597
-0.042724
0.014800
-0.070531
-0.021248
-0.032257
-0.072937
-0.127802
-0.143949
0.048157
-0.012900
-0.034534
-0.008618
-0.065802
-0.117616
-0.064701
-0.042878
-0.042312
-0.046463
-0.076085
-0.103994
-0.116207
-0.140852
0.027443
-0.078344
-0.199369
-0.020464
-0.134026
-0.097392
-0.064152
-0.005948
0.002191
-0.101238
-0.097371
-0.018823
-0.122254
-0.148961
-0.082602
-0.094259
-0.070751
-0.098568
-0.073618
-0.074946
-0.066159
-0.027688
-0.065118
-0.137022
0.053133
-0.021151
0.013244
0.096363
0.052749
0.052163
0.092016
0.046864
0.126240
0.107124
0.051543
0.041437
0.072769
0.071603
0.099158
0.158182
0.065855
0.072407
0.109887
0.109633
0.109245
0.120272
0.099559
0.025641
-0.038477
0.071207
0.062232
0.000871
-0.046891
0.051277
-0.068515
-0.046485
0.006812
-0.015560
0.005207
-0.032346
-0.104270
-0.047670
-0.017760
-0.023635
-0.061766
-0.048374
-0.136529
0.008106
-0.064851
-0.029593
0.037833
0.148280
0.379250
0.546014
0.934822
1.254228
1.273640
1.294330
0.999907
0.696375
0.334391
0.039956
-0.194449
-0.301603
-0.228553
-0.215693
-0.120272
-0.057671
-0.004635
-0.050487
0.025260
-0.049846
0.010624
0.034569
-0.009480
0.079080
-0.003346
-0.025742
0.061373
0.012689
0.073206
0.125492
0.018317
0.199854
0.149434
0.167312
0.169081
0.214499
0.325162
0.299794
0.315840
0.336310
0.366910
0.348527
0.298469
0.353107
0.424955
0.462538
0.446718
0.455250
0.495514
0.544403
0.541310
0.445760
0.449537
0.407919
0.525091
0.564209
0.518534
0.404548
0.484211
0.416987
0.403262
0.343030
0.431445
0.395747
0.330338
0.352234
0.328530
0.333348
0.293215
0.303929
0.207935
0.210071
0.244394
0.208015
0.179223
0.130984
0.110679
0.123604
0.041634
0.061893
0.002567
0.087638
0.043313
0.069124
0.070838
0.060339
-0.065539
0.020209
0.052311
0.050897
0.064231
-0.071812
-0.037215
0.015218
-0.084775
-0.029266
-0.069092
0.092220
-0.102082
0.032046
0.005109
-0.014289
-0.032945
0.006717
0.062390
-0.094899
-0.057906
-0.011074
0.100175
-0.070182
-0.067999
0.043274
-0.042546
-0.011706
0.085974
-0.056071
-0.070141
-0.030099
0.027557
0.013812
0.030612
0.016645
-0.021393
0.004945
-0.005732
0.004106
-0.027356
0.030738
-0.043417
0.015489
-0.028349
-0.069166
0.026839
0.018615
0.007459
0.064466
0.016594
0.045520
-0.006011
0.079322
0.096690
0.075083
0.061204
0.171498
0.075251
0.086631
0.116370
0.138558
0.127832
0.142677
0.174757
0.098069
0.106375
0.207365
0.245787
0.183979
0.176179
0.185491
0.152442
0.119906
0.156243
0.194439
0.147730
0.182019
0.074856
0.108519
0.139299
0.121561
0.207467
0.165746
0.120875
0.050150
0.088126
0.068672
0.112310
0.035259
-0.030998
0.029428
0.007739
0.092911
0.114478
-0.058152
0.041129
0.006857
-0.013728
0.016610
-0.067287
0.086503
0.037965
0.086947
0.067380
0.091535
0.357312
0.659867
0.959646
1.208681
1.372815
1.397811
1.209391
0.928605
0.552866
0.238617
-0.084679
-0.122108
-0.125174
-0.161629
0.000039
-0.020466
0.031003
0.033693
0.093036
0.105046
0.032298
0.095873
0.175566
0.060729
0.133456
0.098131
0.217037
0.182037
0.191616
0.168847
0.173100
0.205137
0.215682
0.283705
0.241269
0.314225
0.291487
0.357107
0.332750
0.407781
0.425408
0.474259
0.471867
0.406951
0.568841
0.454205
0.554956
0.509150
0.546439
0.573266
0.515570
0.621719
0.534867
0.546838
0.619870
0.540667
0.582336
0.532515
0.565295
0.489197
0.488613
0.548251
0.456210
0.479536
0.438459
0.374452
0.285032
0.400124
0.320745
0.331751
0.342290
0.250700
0.218928
0.191071
0.190146
0.142292
0.181914
0.233881
0.199933
0.186255
0.235720
0.168995
0.047335
0.078479
0.025706
0.152420
0.096198
0.098417
0.182753
0.032829
0.087283
0.042236
0.127758
0.052608
0.055915
0.074322
-0.003814
0.121246
0.092230
0.043737
0.067456
-0.023740
0.087326
0.006040
0.099315
0.107741
0.026268
-0.037788
0.088308
0.103977
0.107481
0.037183
0.061508
0.019926
0.097868
0.078590
-0.042139
0.103032
0.021089
0.021959
0.036752
0.048158
0.039826
0.011952
0.071208
0.025670
0.000522
0.055121
0.036973
0.022197
-0.044273
0.000565
0.069807
-0.007310
0.046737
0.074080
0.005525
0.066883
-0.006083
-0.003867
0.049717
0.116355
0.058320
0.105889
0.066411
0.143513
0.210003
0.167380
0.167082
0.145488
0.167092
0.212981
0.155948
0.294477
0.256124
0.215384
0.218764
0.233107
0.232410
0.144505
0.306957
0.224925
0.235610
0.267792
0.146349
0.215616
0.125592
0.113498
0.090842
0.137700
0.128830
0.108712
0.135508
0.129130
0.058049
0.092230
0.021730
0.021565
-0.012068
0.051542
0.068412
0.056124
0.088662
0.012285
-0.073638
0.008565
0.006811
-0.016301
0.023475
0.061828
0.060626
0.138388
0.182258
0.540856
0.739380
1.120964
1.334204
1.391556
1.213149
0.949400
0.729477
0.301976
0.022623
-0.134270
-0.122905
-0.135863
-0.057370
0.005438
0.037310
0.075570
-0.030531
0.005267
-0.001296
0.088544
0.031293
0.068262
0.145410
0.072492
0.099492
0.159778
0.093558
0.142304
0.172454
0.167635
0.156477
0.263518
0.251629
0.337136
0.200061
0.277200
0.359426
0.353990
0.396319
0.375181
0.383181
0.470521
0.421904
0.459335
0.464134
0.476573
0.538482
0.478560
0.521608
0.447686
0.440577
0.576307
0.503823
0.535073
0.535311
0.499487
0.468695
0.512098
0.529218
0.422696
0.347005
0.347615
0.371231
0.290990
0.404436
0.368799
0.388323
0.294869
0.231637
0.212918
0.176392
0.280045
0.278074
0.165443
0.175264
0.114096
0.113912
0.101952
0.058614
0.186271
0.069124
0.085382
0.005298
-0.044185
-0.008585
-0.060630
0.102681
0.041144
0.051628
0.044813
0.024031
-0.013691
-0.011248
-0.056870
-0.074053
-0.091550
-0.056727
-0.052053
-0.033635
-0.056518
-0.025573
-0.011638
-0.058722
-0.075651
0.037019
-0.137498
-0.026935
-0.037967
-0.097357
-0.000190
-0.062320
0.083874
-0.090251
-0.000707
-0.035033
-0.140845
0.015163
-0.078022
-0.045884
-0.104990
-0.076505
-0.095369
-0.060517
-0.043626
-0.133714
0.003771
-0.091838
-0.065727
-0.077979
-0.053514
-0.043685
-0.132483
0.035870
-0.035685
-0.061241
0.012496
-0.094425
-0.048024
-0.036425
-0.089443
-0.046912
0.004329
-0.028237
0.042345
0.114188
0.038764
0.051557
0.120689
0.134648
0.026835
0.066800
0.024018
0.113598
0.117142
0.081557
0.147532
0.165256
0.018787
0.081099
0.027169
0.066779
0.078052
0.126089
0.059779
0.103541
0.058324
0.105522
0.006505
-0.015173
-0.024858
0.027122
-0.023625
-0.035787
-0.056905
-0.037681
-0.023144
-0.055474
-0.058508
-0.011724
-0.079300
-0.088716
-0.129861
-0.081914
-0.139773
-0.047990
-0.092866
-0.038965
-0.062864
-0.080887
-0.053197
0.011657
0.178377
0.628673
0.924905
1.170272
1.271661
1.265264
1.029467
0.634230
0.203509
-0.064078
-0.236228
-0.296666
-0.190822
-0.260715
-0.149436
-0.083294
-0.175624
-0.047721
-0.008644
-0.017384
0.028172
-0.067302
0.001870
-0.013925
-0.042000
0.047369
0.060708
0.097681
0.052563
0.033059
0.091024
0.130343
0.075277
0.149625
0.119586
0.205796
0.171746
0.238914
0.211771
0.292819
0.287566
0.341682
0.475050
0.340242
0.304955
0.392725
0.388287
0.464637
0.375762
0.437364
0.373448
0.505664
0.367177
0.376017
0.442167
0.350146
0.441668
0.396471
0.399125
0.370983
0.387994
0.364709
0.266670
0.268877
0.289994
0.162241
0.227071
0.176447
0.141621
0.140195
0.234578
0.121832
0.089746
0.090285
0.043726
0.060207
0.073977
0.103368
-0.075311
-0.054418
0.008522
-0.015048
-0.014569
-0.035921
0.033404
-0.034099
-0.105168
-0.052123
-0.106013
-0.017570
0.013761
-0.052410
-0.193626
-0.095522
-0.090508
-0.024791
-0.117496
-0.096523
-0.140899
-0.101094
-0.115233
-0.021141
-0.194314
-0.059330
-0.067696
-0.134560
-0.118125
-0.074450
-0.121110
-0.110177
-0.122696
-0.086083
-0.117906
-0.124112
-0.110875
-0.123812
-0.088583
-0.115590
-0.117346
-0.116848
-0.103460
-0.115245
-0.127690
-0.104911
-0.056278
-0.077229
-0.141200
-0.099372
0.013835
-0.052067
-0.120531
-0.077705
-0.126332
-0.093945
-0.068669
-0.060603
-0.073710
-0.154809
-0.131572
-0.002448
0.004217
0.034448
-0.089698
-0.071660
-0.004741
0.038197
-0.019888
0.074990
-0.017211
0.073291
0.021031
0.072672
0.088401
0.135456
0.084775
0.119563
0.093658
0.091619
0.116774
0.076633
0.020573
0.026794
0.084442
0.068875
0.089147
0.036884
0.056268
0.054745
0.129780
-0.015043
-0.006553
0.002861
-0.116047
-0.054611
-0.004977
-0.051853
-0.064607
0.018433
-0.111167
0.006536
-0.083818
-0.045386
-0.121280
-0.063987
-0.032777
-0.026708
-0.081065
-0.097661
-0.098428
-0.146334
-0.051391
0.150050
0.304221
0.528929
0.899715
1.172589
1.345566
1.373027
1.077788
0.836511
0.415692
0.015086
-0.128207
-0.260222
-0.279336
-0.252499
-0.226590
-0.006350
-0.015099
-0.074295
0.007776
-0.040451
-0.000148
-0.037046
-0.028470
-0.030741
0.061179
0.067429
-0.020606
0.088708
0.028017
0.154407
0.182872
0.090548
0.127857
0.112743
0.268276
0.269615
0.230675
0.389989
0.248375
0.282355
0.293092
0.269118
0.349998
0.342723
0.399918
0.425631
0.428401
0.467438
0.480088
0.454663
0.470090
0.399504
0.523040
0.488737
0.461611
0.447382
0.419978
0.460541
0.412508
0.417790
0.454477
0.458643
0.379033
0.392731
0.384974
0.365679
0.281258
0.271165
0.307282
0.226384
0.235035
0.160268
0.126950
0.251320
0.091322
0.206182
0.074051
0.059821
0.151272
0.165181
0.121181
0.042689
0.073701
0.117079
0.044425
0.022531
-0.041404
0.009515
-0.006720
-0.051760
0.008519
0.049054
-0.024590
-0.001730
-0.034802
-0.047705
-0.003723
0.023168
-0.000201
-0.039404
-0.033043
-0.056574
-0.014800
-0.009381
0.000569
-0.025780
-0.071920
0.000363
-0.016588
0.049189
0.023522
0.028558
-0.012876
0.008820
-0.006023
0.076864
0.075739
0.035332
-0.075231
0.025171
-0.109474
-0.011335
0.064473
0.028663
0.012299
0.085673
0.044279
-0.011045
0.023850
0.088242
0.030062
0.064968
-0.049988
-0.024882
-0.040534
-0.023082
0.111934
0.072710
0.052803
-0.020486
0.045246
0.082709
0.130218
0.155228
0.089669
0.132933
0.083051
0.083855
0.175782
0.133218
0.102091
0.221570
0.186254
0.144464
0.228134
0.142952
0.208910
0.265279
0.230920
0.175390
0.228099
0.233896
0.233312
0.184072
0.106736
0.168486
0.218606
0.207190
0.114970
0.138217
0.187027
0.080506
0.058365
0.092632
0.035784
0.110692
0.152424
0.048261
0.080880
0.103603
0.029840
0.135995
0.076487
0.060506
0.002452
0.081363
0.020228
0.044755
-0.075287
0.014409
0.053192
0.245838
0.212131
0.518226
0.865641
1.203303
1.439051
1.469496
1.289217
0.975997
0.618073
0.276676
0.021686
-0.205085
-0.150713
-0.079623
-0.102086
0.004348
0.044753
0.031842
0.016401
0.078949
0.200592
0.119288
0.094171
0.155301
0.192496
0.135371
0.222921
0.222575
0.289138
0.243284
0.261943
0.226998
0.280261
0.314732
0.324638
0.284582
0.330947
0.406371
0.358507
0.406068
0.433835
0.431420
0.468784
0.577320
0.543621
0.511439
0.456984
0.527011
0.582039
0.694727
0.521334
0.550482
0.595891
0.546368
0.562220
0.537986
0.558960
0.569201
0.511801
0.577145
0.505065
0.572507
0.480696
0.483451
0.442931
0.474612
0.468514
0.401846
0.389441
0.380209
0.324141
0.378131
0.285225
0.267866
0.265610
0.281785
0.152324
0.263121
0.164465
0.198014
0.158041
0.142516
0.090282
0.020505
0.164878
0.113896
0.110852
0.151587
0.143735
0.193085
-0.008539
0.078625
0.058772
0.152401
0.080802
0.077471
0.102931
0.060105
0.048646
0.076529
0.068007
0.048499
0.076747
0.001645
0.094246
0.139929
0.060631
-0.016554
0.114365
0.025831
0.065993
0.009775
0.042303
0.094855
0.124210
0.085548
-0.041245
0.113093
0.092350
0.034695
