-0.040474
-0.012902
-0.009094
-0.045059
0.066295
0.079017
-0.001618
-0.045845
0.027016
-0.008817
-0.010177
-0.020632
-0.029546
-0.101372
-0.023311
0.008101
0.016912
-0.027530
0.015751
0.006958
-0.074728
0.021931
0.051427
0.017803
0.043266
0.056972
0.054460
0.058078
0.108232
0.141903
0.074639
0.131217
0.118909
0.150571
0.041234
0.137233
0.197522
0.192345
0.209105
0.221062
0.156033
0.248904
0.178668
0.195442
0.201532
0.152655
0.185532
0.113087
0.147781
0.147190
0.165155
0.154408
0.172275
0.109557
0.248345
0.098959
0.079674
0.124075
0.151064
0.077483
0.114988
0.060705
0.039728
0.080507
0.040548
0.018466
0.070029
0.075782
0.008119
-0.033978
-0.024785
-0.003822
0.072923
0.020540
0.045089
-0.040832
0.016133
0.056872
-0.003207
0.073544
0.082658
0.303107
0.463626
0.816120
1.083282
1.369310
1.393028
1.210634
0.964717
0.603706
0.381380
-0.018859
-0.166150
-0.235758
-0.116280
-0.089643
-0.016069
0.015039
0.057189
0.010266
0.053786
0.145346
0.083350
0.153383
0.157780
0.084932
0.139004
0.160597
0.153421
0.123092
0.081129
0.208635
0.119882
0.176752
0.226141
0.190052
0.219671
0.113164
0.254916
0.326740
0.205951
0.281354
0.332396
0.303687
0.464612
0.436348
0.453955
0.435139
0.486975
0.443581
0.473054
0.466116
0.483508
0.537691
0.469104
0.548307
0.540971
0.533735
0.589074
0.548404
0.523567
0.605962
0.591620
0.575938
0.493479
0.516164
0.454444
0.427760
0.495561
0.376753
0.564828
0.420234
0.434536
0.374284
0.356287
0.369075
0.318120
0.264186
0.266444
0.381054
0.277713
0.226502
0.205380
0.151340
0.273757
0.239725
0.198926
0.204072
0.139325
0.229409
0.094908
0.182397
0.172505
0.147987
0.134140
0.107190
0.094936
0.235043
0.085640
0.112802
0.054308
0.074167
0.172303
0.101100
0.115044
0.087214
0.120944
0.060911
0.066606
0.094691
0.099968
0.039278
0.123197
0.130893
0.092266
0.065488
0.085499
0.105577
0.080348
0.116210
0.066093
0.134644
0.044105
0.096685
0.125612
0.074516
0.083382
0.131608
0.016155
0.093221
-0.002980
0.035371
0.130038
0.065921
0.020598
0.054990
-0.015650
0.110981
0.089399
0.121032
0.128282
0.085083
0.123802
0.102718
0.110477
0.080380
0.082203
0.062023
0.069523
0.104676
0.123207
0.102956
0.090619
0.141718
0.106458
0.093831
0.098533
0.087249
0.105075
0.131493
0.138820
0.213181
0.147852
0.164131
0.142867
0.214960
0.192520
0.145382
0.167122
0.172426
0.214154
0.197105
0.182175
0.289711
0.238365
0.269996
0.252190
0.248880
0.156637
0.256152
0.230415
0.260162
0.201755
0.190799
0.267985
0.171741
0.169422
0.163157
0.178087
0.098798
0.103411
0.138050
0.108800
0.156068
0.120168
0.120671
0.195363
0.084476
0.053211
0.055413
0.133266
0.010605
0.093628
0.119936
0.014196
0.093586
0.000895
0.093342
0.068823
0.012088
0.094221
0.099885
0.059464
0.054278
0.031426
0.235067
0.434842
0.753383
1.082683
1.365716
1.365516
1.346429
1.114044
0.808192
0.372796
0.099355
-0.170563
-0.213381
-0.200563
-0.089466
-0.078360
0.003957
0.043945
0.041800
0.105668
0.046598
0.027704
0.017038
0.088674
0.093572
0.095193
0.155822
0.137976
0.080910
0.095321
0.146164
0.184443
0.172493
0.169152
0.154691
0.237427
0.145552
0.324912
0.267556
0.299740
0.234029
0.333627
0.366908
0.308304
0.333247
0.336609
0.457401
0.369889
0.425668
0.458078
0.435035
0.431006
0.424057
0.514950
0.516219
0.539143
0.517702
0.498297
0.557533
0.503063
0.508152
0.624859
0.500716
0.524592
0.508791
0.498641
0.491014
0.474782
0.429886
0.437611
0.386787
0.400372
0.327560
0.271662
0.316338
0.222524
0.309725
0.287135
0.283748
0.209623
0.287979
0.128759
0.165661
0.146789
0.149192
0.087465
0.153759
0.154663
0.093866
0.099141
0.061428
0.021769
0.083722
-0.012493
0.030521
-0.043518
0.023251
0.043627
0.009925
0.091043
-0.025984
0.027040
-0.078969
0.055302
0.064395
0.000615
-0.003842
0.022745
-0.038511
0.018510
0.057866
0.007732
0.019969
0.053466
0.096917
-0.016324
-0.008297
0.011090
0.042345
-0.035425
0.029632
0.023353
-0.048678
-0.019017
0.020219
0.011513
0.023137
0.047515
0.045195
-0.000345
-0.001905
0.008772
-0.037038
-0.058932
-0.066546
0.012676
-0.040493
-0.074008
-0.062777
0.052200
0.001093
0.011615
0.040070
0.001438
-0.005796
0.021179
0.029718
-0.052070
0.005611
-0.056535
-0.042042
-0.015743
-0.073213
0.016273
-0.047694
-0.011375
0.010329
0.026817
-0.002478
-0.063739
0.041999
0.024519
-0.003722
-0.008814
0.014030
-0.012913
0.115887
0.045992
0.145520
0.079378
0.141577
0.125697
0.096665
0.171771
0.190469
0.194784
0.106143
0.116877
0.124089
0.081844
0.175960
0.177796
0.105578
0.136624
0.076675
0.028795
0.053748
0.020511
0.069376
0.124251
0.014082
0.081961
-0.016077
0.032598
0.028463
0.042368
-0.005371
0.018433
-0.000587
-0.050111
0.038893
0.001112
-0.041188
-0.026986
-0.039294
-0.076447
0.019292
0.024084
-0.031620
-0.052145
-0.092440
-0.119519
-0.092838
-0.059886
0.021266
0.260447
0.552706
0.877826
1.206392
1.279592
1.362448
1.082702
0.768222
0.337175
0.156225
-0.154721
-0.185891
-0.258986
-0.257028
-0.177423
-0.059478
-0.008754
0.027893
-0.037059
0.039766
-0.036686
-0.049056
0.000386
0.071448
0.025634
-0.016147
0.009565
0.075071
0.032441
0.070169
0.034424
0.033661
0.093448
0.038176
0.131041
0.011313
0.160499
0.164644
0.143773
0.195172
0.224024
0.183629
0.242008
0.186189
0.189061
0.363125
0.302349
0.362526
0.448420
0.330855
0.384913
0.368771
0.417594
0.442225
0.456055
0.445175
0.447050
0.385106
0.470457
0.480752
0.459774
0.396452
0.484223
0.411426
0.375465
0.458701
0.351660
0.339182
0.378368
0.305164
0.373360
0.332620
0.302154
0.252077
0.259371
0.195850
0.186746
0.169427
0.129989
0.083959
0.161773
0.016763
0.154721
0.117793
0.074809
-0.004244
0.031532
0.046018
0.076654
0.024465
-0.024955
-0.069674
0.069430
-0.021941
0.062487
0.031341
-0.035234
-0.062455
0.024456
0.001756
-0.032505
-0.021106
-0.138131
-0.037921
-0.067502
0.023041
-0.058367
-0.044536
0.011518
0.017693
-0.045645
-0.117108
0.000456
0.012559
-0.036378
-0.059888
0.021317
0.006036
-0.051178
-0.034048
-0.043298
0.047184
0.000532
-0.031983
-0.069604
-0.015241
-0.027343
0.021106
0.025005
0.001197
-0.115430
-0.010884
-0.002715
-0.011019
-0.044525
0.049376
-0.107986
-0.009454
0.031654
-0.045790
-0.029154
-0.020385
0.017449
0.017254
-0.039095
0.006764
-0.080910
0.009199
0.010582
0.011156
-0.041463
0.033817
-0.063636
0.004776
0.002851
-0.037134
0.051154
0.030381
-0.024340
0.054483
0.078009
0.033653
0.009598
0.083859
0.024171
0.088138
0.110058
0.061422
0.122343
0.086992
0.143327
0.004637
0.223093
0.154270
0.163171
0.150910
0.151747
0.202601
0.148695
0.173714
0.092838
0.022451
0.137196
0.134081
0.150515
0.149815
0.042514
0.085759
0.111640
0.093716
0.061419
-0.026084
0.029457
0.022086
0.007328
0.060382
0.037897
0.024615
-0.086480
-0.016268
-0.011961
0.043745
-0.039278
0.042299
0.046815
-0.026609
0.001075
0.064217
0.019340
-0.078535
0.021612
0.026069
0.032239
-0.005263
0.241662
0.545000
0.813828
1.034554
1.306504
1.410139
1.189837
0.962777
0.551736
0.247142
-0.058300
-0.207246
-0.236961
-0.200484
-0.079232
-0.014899
0.012572
-0.011161
0.043487
0.007011
0.061911
-0.032168
0.077869
0.054196
0.104870
0.035517
0.096941
0.082290
0.120425
0.100088
0.151231
0.064319
0.127120
0.135231
0.191545
0.192510
0.171203
0.187782
0.248482
0.196062
0.161005
0.266463
0.345831
0.348567
0.321633
0.422445
0.392836
0.439628
0.346751
0.351668
0.428591
0.548779
0.462278
0.475553
0.473679
0.462785
0.552169
0.517992
0.492661
0.523252
0.553195
0.481521
0.508248
0.471389
0.508607
0.467196
0.470881
0.397239
0.457152
0.434572
0.422754
0.316197
0.374708
0.318438
0.369949
0.338026
0.261252
0.263324
0.297390
0.178962
0.322648
0.131866
0.160023
0.200706
0.167859
0.103179
0.129901
0.120689
0.133990
0.153202
0.160372
0.071830
0.195953
0.043284
0.081240
0.072759
0.151425
0.057082
0.100016
0.061878
0.102606
0.014757
0.142181
-0.025694
-0.031776
0.074640
0.026058
0.132173
0.116982
0.045691
-0.093468
0.119479
0.034910
0.075439
0.063302
0.118418
0.015676
0.031475
0.054085
0.058446
0.014373
0.080826
0.080653
0.099108
0.136752
0.153792
0.047624
0.082638
0.062886
0.126911
0.099371
0.123423
0.098952
-0.007254
0.060311
0.103649
0.119383
0.051742
0.013024
0.064742
0.089084
0.138121
0.167182
0.118190
0.099702
0.121318
0.083221
0.024068
0.038618
0.102041
0.116748
0.163271
0.073022
0.089391
0.058633
0.134812
0.134570
0.174147
0.130959
0.145746
0.143485
0.165464
0.126990
0.194117
0.096437
0.134222
0.151564
0.193551
0.199846
0.232849
0.208852
0.211236
0.178920
0.287948
0.288155
0.204065
0.284288
0.199693
0.269718
0.171150
0.218427
0.258367
0.197459
0.250138
0.181516
0.190671
0.207475
0.173266
0.239592
0.102546
0.217827
0.158555
0.175191
0.178187
0.066767
0.173584
0.096774
0.086315
0.136428
0.113899
0.024392
0.151794
0.087393
0.087904
0.069789
0.131182
0.073736
0.165534
0.109982
0.095084
0.147550
0.065117
-0.003780
0.165044
0.233153
0.541748
0.831342
1.148872
1.369860
1.500000
1.368180
1.080425
0.721914
0.335608
0.081344
-0.106343
-0.215487
-0.176483
-0.056374
0.073331
0.031385
0.052438
0.085511
0.066350
0.143825
0.144177
0.166218
0.130691
0.146414
0.112594
0.120994
0.094106
0.116572
0.145916
0.253799
0.118714
0.252549
0.227525
0.292130
0.325205
0.271294
0.251315
0.323729
0.297058
0.304797
0.322924
0.422719
0.357243
0.331962
0.423155
0.411586
0.406766
0.491655
0.448903
0.479170
0.535037
0.547050
0.536882
0.563350
0.572728
0.561321
0.493696
0.542399
0.592218
0.552827
0.558328
0.643130
0.534093
0.602456
0.533151
0.538531
0.541197
0.546052
0.477434
0.458408
0.499161
0.420288
0.373811
0.354484
0.374530
0.304441
0.337270
0.237728
0.153302
0.229224
0.180081
0.221297
0.246098
0.203138
0.173126
0.215852
0.171423
0.053162
0.176528
0.102725
0.090737
0.144135
0.087557
0.048544
0.119613
0.094609
0.012658
0.026123
0.082320
0.001254
0.048621
0.129114
0.054110
0.061860
0.031228
0.139456
0.090221
0.079291
0.113087
0.148632
-0.006067
-0.032292
0.096438
0.036177
-0.021946
0.050411
0.015109
0.048756
0.074677
0.035081
0.059458
0.070184
-0.032285
0.029810
0.057269
0.088568
0.077111
0.081329
0.054799
0.023125
0.059683
0.018050
0.036610
0.031940
0.100298
0.061458
0.040535
0.037181
0.034196
0.014607
0.020983
0.046263
-0.010683
0.027466
0.046920
0.005469
0.048005
0.102898
0.012195
0.021432
0.094621
0.015548
0.098849
0.067107
0.153982
0.110128
0.070408
0.101118
0.130873
0.058155
0.008083
0.077733
0.083090
0.095975
0.209721
0.097331
0.110428
0.149676
0.147971
0.140418
0.214652
0.177805
0.137716
0.136320
0.190820
0.241691
0.218774
0.228882
0.292612
0.140703
0.196818
0.224756
0.135763
0.130266
0.174518
0.103731
0.023335
0.176495
0.028403
0.103673
0.069920
0.048725
0.057797
0.091112
0.023983
0.034917
0.059574
0.000800
-0.039590
0.023370
-0.022995
0.044922
0.029630
0.005071
0.024514
-0.003067
-0.021892
-0.025521
-0.045265
-0.016027
-0.037329
-0.099338
-0.075983
0.168646
0.351962
0.633251
1.023023
1.238146
1.419118
1.282966
1.155675
0.727278
0.389917
0.016969
-0.198396
-0.282757
-0.280135
-0.160559
-0.161918
-0.068496
-0.037224
-0.100456
-0.028740
0.012608
-0.022569
0.034320
0.021779
0.036197
-0.007871
0.028790
0.078015
0.020503
-0.015443
0.125528
0.076160
0.034200
0.057942
0.092837
0.159431
0.109006
0.160327
0.135589
0.160957
0.207171
0.228675
0.214817
0.282583
0.285815
0.274848
0.298925
0.404817
0.425314
0.338258
0.300890
0.384253
0.439956
0.523716
0.474888
0.381447
0.451464
0.472233
0.389406
0.452174
0.473395
0.443822
0.392345
0.388069
0.446984
0.396104
0.408252
0.405207
0.298233
0.399760
0.346774
0.279515
0.216241
0.218199
0.227696
0.194032
0.219350
0.219904
0.159056
0.208146
0.142220
0.089966
0.030611
0.063194
0.050234
0.085155
0.043406
-0.027803
-0.039493
0.031069
-0.057039
0.022914
0.027779
0.031347
-0.018650
0.002690
-0.014645
-0.022142
-0.008246
-0.032638
-0.075713
0.063527
-0.117672
-0.029743
0.005061
0.025584
-0.064078
-0.078954
-0.052517
-0.040621
-0.091806
-0.061006
-0.084334
-0.016792
-0.007494
-0.090104
0.000247
-0.095386
-0.006881
-0.124003
-0.101583
-0.088345
-0.007624
-0.091573
-0.022329
-0.124622
-0.089419
-0.106314
-0.028613
-0.080772
-0.063971
-0.041389
-0.028149
-0.072467
-0.035968
-0.082707
-0.103294
-0.038062
-0.064478
-0.037342
-0.044899
-0.084714
-0.100605
-0.071986
-0.029220
-0.096009
-0.007525
-0.125215
-0.005039
-0.076413
-0.080889
-0.037256
-0.049196
-0.105862
-0.022790
0.005656
-0.055931
-0.076883
-0.027362
-0.028873
-0.022151
-0.032359
0.020579
-0.043900
-0.026080
0.035238
-0.100086
0.045460
-0.019032
0.020424
0.052730
0.093206
0.020120
0.114386
0.073092
0.133067
0.134539
0.053726
0.111213
0.077508
0.129920
0.148378
0.079042
0.193659
-0.041699
0.017201
0.044211
0.018184
0.035916
0.019233
-0.065022
-0.053855
0.073353
-0.044518
0.001496
-0.080655
-0.053205
-0.020877
0.007601
-0.068613
-0.103072
-0.040011
0.060242
0.014440
-0.053667
-0.063655
-0.077463
-0.161804
-0.021871
-0.017060
-0.106085
-0.106409
-0.162143
0.021636
0.046945
0.239103
0.486027
0.789458
1.081270
1.231764
1.237796
1.120186
0.755609
0.495051
0.129447
-0.141085
-0.316382
-0.273164
-0.340219
-0.223980
-0.139945
-0.088641
-0.071616
-0.031697
-0.045529
-0.102710
-0.016195
-0.026968
-0.024253
-0.074407
-0.013889
0.032160
0.050201
0.008075
-0.056805
0.052163
0.067261
0.075131
0.045662
0.106982
0.118404
0.146085
-0.006139
0.102846
0.120706
0.109747
0.147860
0.220905
0.140755
0.189440
0.192987
0.283316
0.307203
0.251064
0.336551
0.355741
0.309869
0.390725
0.500800
0.356345
0.423865
0.442831
0.459509
0.462705
0.361853
0.474948
0.317229
0.515968
0.403092
0.426286
0.354159
0.412167
0.364181
0.302658
0.379637
0.367725
0.338056
0.271412
0.135672
0.177668
0.172353
0.229661
0.230145
0.166144
0.131703
0.124764
0.153333
0.059734
0.150466
-0.004001
0.052210
0.049872
-0.022539
0.025067
0.034192
0.005093
-0.028587
0.032325
-0.044865
-0.077446
0.013968
-0.024561
0.044915
-0.011390
-0.152890
0.017418
-0.047362
-0.029032
-0.044503
0.033261
0.037376
-0.030108
-0.047119
-0.034407
-0.032719
-0.040326
0.001244
-0.017033
-0.088734
-0.009151
-0.066338
0.020093
0.005004
0.012968
-0.057137
-0.086760
0.013195
-0.002929
-0.059911
-0.047643
-0.031094
-0.101637
0.040185
-0.017067
-0.078251
-0.001015
-0.023860
0.109411
0.055503
0.043753
-0.047280
0.011306
-0.000337
0.045938
-0.063026
-0.112082
-0.029230
-0.027138
0.007347
-0.058979
0.060177
0.052418
-0.023694
-0.014181
-0.041910
0.023661
-0.014506
-0.044422
-0.026196
0.002344
-0.027973
0.074875
-0.077673
0.002932
0.036177
-0.044651
0.046309
0.030460
0.142751
0.014854
0.064733
0.087681
0.049487
0.141485
0.177876
0.141540
0.145113
0.163196
0.167603
0.081270
0.128236
0.175347
0.177932
0.194105
0.177237
0.139005
0.106162
0.145419
0.224626
0.035255
0.131560
0.098839
0.063054
0.035955
0.081259
0.057338
0.114666
0.034657
-0.005553
-0.004617
0.046308
-0.014396
0.010700
-0.044238
0.068732
0.059923
0.037989
-0.022168
0.016638
-0.004104
-0.055482
0.103990
-0.015285
0.010740
0.004360
0.041004
-0.042053
-0.054697
-0.027022
0.252963
0.457238
0.715858
1.074747
1.350701
1.397704
1.253295
1.058875
0.647855
0.337170
0.080702
-0.164474
-0.199393
-0.238258
-0.090852
-0.110042
-0.040712
0.036639
0.025753
0.077070
0.062740
0.057708
0.079795
0.095753
0.082220
0.099851
0.094760
0.110481
0.128985
0.077908
0.127428
0.134431
0.167887
0.149032
0.130263
0.145766
0.212486
0.172849
0.145490
0.229088
0.275580
0.238495
0.363641
0.281269
0.247177
0.363911
0.404680
0.393971
0.434411
0.441456
0.513558
0.495042
0.495361
0.520550
0.475174
0.480786
0.466482
0.520673
0.534291
0.565269
0.560134
0.545171
0.524408
0.425960
0.472231
0.507384
0.543034
0.461704
0.467740
0.304368
0.431630
0.405241
0.415642
0.299515
0.369050
0.274772
0.266020
0.300997
0.268908
0.301797
0.203117
0.188525
0.253583
0.156231
0.179267
0.087963
0.141085
0.077515
0.165373
0.018770
0.126517
0.084471
0.111481
0.082020
0.101225
0.139939
0.059662
0.095936
0.076119
0.062450
0.070175
0.013094
0.023773
-0.047029
0.034932
0.015708
0.058678
0.050739
0.079254
0.070082
0.071120
0.038654
0.037942
0.076506
0.055326
0.029762
0.048105
-0.002120
0.001950
0.038355
0.065570
0.033822
0.057536
0.055211
0.151244
0.047151
0.006976
-0.106661
-0.021839
0.053840
0.005671
0.097228
0.028231
0.002795
-0.020903
0.060320
0.079841
0.050349
0.040929
0.097964
0.015572
0.016977
0.030110
0.086214
0.070000
-0.010277
0.012665
0.042744
0.045608
0.039944
-0.033482
0.102997
0.073002
-0.018978
0.140253
0.090473
0.020894
0.065768
0.066584
0.010330
0.099167
0.092635
0.094167
0.145171
0.174679
0.208967
0.107166
0.167907
0.154029
0.170264
0.151575
0.115056
0.224958
0.216267
0.219171
0.189361
0.248507
0.212807
0.192040
0.184497
0.157268
0.227282
0.198253
0.199394
0.198619
0.091906
0.064039
0.116402
0.122340
0.077472
0.085201
0.013722
0.068461
0.049781
0.056898
-0.013694
0.081264
0.058285
0.086567
-0.012532
0.040725
0.011389
0.042195
0.022642
0.041200
0.033049
0.032331
0.113427
0.034223
0.010477
0.032413
-0.024488
0.136685
0.019584
0.100400
0.422808
0.730069
1.012471
1.236368
1.339100
1.279021
0.985211
0.833241
0.338631
0.132537
-0.099952
-0.165792
-0.282098
-0.212885
-0.103974
0.000342
0.075418
0.026853
0.035282
0.066907
0.013289
0.064142
0.020135
0.102827
0.121038
0.112938
0.051106
0.028980
0.011771
0.064395
-0.026322
0.199541
0.093267
0.114920
0.138718
0.172544
0.151384
0.140852
0.229021
0.215482
0.304195
0.269335
0.222607
0.240775
0.316370
0.308754
0.380893
0.358899
0.433711
0.447568
0.401568
0.476719
0.442417
0.478064
0.498321
0.503042
0.440651
0.434244
0.450150
0.455732
0.490918
0.407444
0.419735
0.466573
0.464060
0.436328
0.413993
0.339686
0.365700
0.322813
0.314762
0.349744
0.283917
0.221517
0.240409
0.278353
0.131777
0.178064
0.185962
0.215384
0.111097
0.070380
0.124901
0.082790
0.092773
0.091654
0.099041
0.044804
-0.019473
-0.002562
0.029283
0.038477
-0.010769
0.011105
0.069028
0.030899
-0.016133
0.021052
-0.133003
0.015801
0.021622
-0.050815
0.042318
-0.025298
-0.011379
-0.085960
0.009050
-0.036058
-0.077749
-0.040623
-0.028196
-0.073398
-0.052060
-0.083730
0.027059
-0.121589
-0.027798
-0.102505
-0.051368
-0.075359
0.023579
-0.108321
-0.032034
-0.085705
-0.058304
-0.057003
0.018170
-0.063085
-0.019003
-0.097678
-0.028350
-0.044939
-0.008884
-0.043626
-0.022626
-0.050065
-0.019650
-0.081085
-0.033704
-0.033958
-0.047735
-0.060185
-0.045157
-0.117259
-0.040110
-0.035941
-0.063321
-0.008387
-0.096187
-0.067782
-0.019661
-0.068346
-0.011048
-0.108675
-0.137829
-0.022604
0.005422
-0.064937
-0.021796
-0.018259
-0.046260
0.027798
0.029883
0.028153
-0.024942
0.078245
0.029582
0.055037
0.032656
0.108685
0.074120
0.066170
0.087657
0.124334
0.047123
0.127674
0.056506
0.125355
0.082668
0.085291
0.182664
0.099420
0.053702
0.038768
0.044934
0.064986
0.026312
0.029395
-0.129062
0.027512
-0.044566
-0.047575
-0.036029
-0.053489
-0.017228
-0.072573
-0.105741
0.006486
-0.122899
-0.102570
-0.037857
-0.062326
-0.118997
-0.103364
-0.082271
-0.126923
-0.088731
-0.096368
-0.107698
-0.140016
-0.222955
-0.124125
-0.111269
0.032809
0.302117
0.492651
0.825355
1.056561
1.169043
1.270403
1.036378
0.730005
0.416926
0.071128
-0.221121
-0.262006
-0.338443
-0.319319
-0.219756
-0.181933
-0.146072
-0.116877
-0.179566
-0.064692
-0.090535
-0.084021
-0.041342
-0.028263
-0.068601
-0.053775
-0.054729
-0.068296
-0.047970
0.046711
-0.035508
0.022573
0.044360
0.011476
0.055921
0.034556
0.083432
0.092316
0.144582
0.103805
0.190783
0.227860
0.117218
0.230276
0.234260
0.211836
0.299205
0.279888
0.273683
0.343060
0.335241
0.369764
0.327648
0.352818
0.296366
0.413848
0.439963
0.366036
0.407295
0.448431
0.347175
0.398181
0.371769
0.376088
0.316442
0.388509
0.321298
0.362926
0.390934
0.276407
0.227962
0.185970
0.185721
0.282137
0.200954
0.150966
0.171736
0.150374
0.142451
0.077550
0.108212
0.048555
0.097437
0.030772
0.033892
-0.024928
-0.053288
-0.029872
-0.090979
-0.070067
-0.142869
-0.009317
-0.011954
-0.094830
-0.098848
-0.093466
-0.087512
-0.126770
-0.044090
-0.149557
-0.084347
-0.129263
-0.035657
-0.090559
-0.055934
-0.071396
-0.078633
-0.124895
-0.061378
-0.058445
-0.046488
-0.044767
-0.085070
-0.095634
-0.068226
-0.043004
-0.162693
-0.061206
-0.017398
-0.100678
-0.097403
-0.021408
-0.112921
-0.063635
-0.169511
-0.025517
-0.147976
-0.109532
-0.095135
-0.092824
-0.044648
-0.064044
-0.017690
-0.110752
0.028905
-0.081143
-0.029497
-0.149952
-0.088917
-0.068456
-0.098828
-0.128075
-0.032689
-0.092843
-0.135253
-0.085715
-0.164248
-0.154334
-0.042747
-0.073841
-0.007871
-0.022708
-0.068974
0.036040
0.016729
-0.116974
-0.041389
-0.104985
-0.012059
-0.044428
-0.086778
-0.021633
0.022529
-0.061815
-0.020645
0.030795
0.080640
0.004360
0.087789
0.139715
0.068664
0.060116
0.053220
0.101469
0.065773
0.138749
0.122178
0.064490
0.035477
0.043295
0.095380
0.083398
0.055901
0.028755
0.036790
-0.049855
0.025527
0.004283
0.009476
0.068891
0.032894
0.012058
-0.062307
-0.012403
-0.040650
0.045664
-0.045656
-0.091853
-0.111389
-0.080374
-0.028780
-0.032083
-0.068750
-0.067337
-0.046099
-0.049121
-0.022041
-0.068895
0.000801
-0.061302
-0.067040
-0.100302
-0.113143
-0.070929
0.186748
0.510426
0.693888
1.048208
1.182910
1.215981
1.163980
0.886640
0.454721
0.187927
-0.057929
-0.261582
-0.295604
-0.259259
-0.268492
-0.122230
-0.099779
-0.029967
-0.061592
0.060323
-0.002557
0.007835
-0.041090
-0.027215
0.010858
0.006600
0.079380
-0.078975
0.054551
-0.014039
0.108706
0.024930
0.035609
0.126639
0.074615
0.049238
0.067220
0.208717
0.160795
0.093959
0.200257
0.256608
0.272296
0.288077
0.290599
0.311079
0.337822
0.375302
0.347075
0.382800
0.362289
0.431390
0.438310
0.485554
0.419861
0.481013
0.375566
0.387177
0.455331
0.446689
0.461911
0.514810
0.434891
0.482899
0.431741
0.390026
0.379048
0.376399
0.347863
0.338399
0.264120
0.379629
0.277237
0.321837
0.258894
0.256915
0.208269
0.213930
0.162425
0.126463
0.124939
0.139541
0.149472
0.130673
0.131362
0.060198
0.081493
0.049025
0.018776
0.104410
0.067974
-0.013966
0.071049
0.031869
-0.022282
0.050719
-0.019533
0.004387
0.010516
-0.004877
-0.002411
0.019837
-0.009624
0.004407
-0.010589
0.074110
-0.017564
0.013714
0.013066
0.116452
0.030334
-0.009318
0.081302
0.068583
0.018961
0.012778
0.042101
-0.037422
0.011375
-0.039838
0.072868
-0.019579
0.003960
-0.050192
0.027395
0.069623
0.029285
0.016753
-0.009472
0.046729
0.044093
0.122106
0.045338
-0.016164
0.040115
0.039035
0.106904
0.041838
0.124999
0.006589
0.137306
-0.003555
0.040683
0.112455
0.045430
0.035813
0.095743
0.079751
0.046706
0.030373
0.030952
0.030383
0.124257
0.065007
0.126634
0.102001
0.086729
0.033949
0.031623
0.075815
0.082354
0.029027
0.129165
0.109417
0.060901
0.122798
0.162171
0.216537
0.229499
0.157619
0.227292
0.208827
0.267958
0.260514
0.262762
0.201002
0.172316
0.291441
0.204265
0.174140
0.184964
0.219353
0.206342
0.240420
0.177099
0.213815
0.121972
0.216317
0.185640
0.104252
0.103003
0.138610
0.097866
0.090627
0.111206
0.113865
0.123602
0.107370
0.055925
0.103768
0.073451
0.032261
0.036828
0.149759
0.031658
0.136424
0.122030
0.067088
0.181589
0.018926
0.015888
0.011291
0.050994
0.004533
0.238918
0.528302
0.799761
1.021145
1.380495
1.413034
1.261685
1.123291
0.669994
0.390414
0.098807
-0.089211
-0.167478
-0.177665
-0.066308
-0.079053
0.033301
0.000036
0.052921
0.117068
0.096371
0.154839
0.035899
0.131788
0.061234
0.126284
0.095365
0.076371
0.088569
0.204018
0.091958
0.182444
0.224430
0.211567
0.168968
0.173095
0.203825
0.249926
0.247089
0.287279
0.336303
0.388035
0.400840
0.398979
0.437287
0.350906
0.461796
0.436953
0.475182
0.480836
0.467579
0.515464
0.556204
0.510110
0.510738
0.520573
0.560868
0.554298
0.498755
0.492069
0.550471
0.494679
