-0.000323
0.013449
0.059075
-0.053332
0.069949
0.016607
0.065375
0.012996
-0.015040
0.024198
0.048145
0.139807
0.009132
0.059598
-0.011684
0.122533
-0.000718
0.104845
0.029596
0.069745
0.087069
0.071772
0.110440
0.136146
0.044780
0.059069
0.103656
0.150501
0.152188
0.142413
0.083170
0.001648
0.200384
0.201504
0.217789
0.082921
0.253251
0.298621
0.226602
0.186617
0.231615
0.177010
0.082819
0.196120
0.181938
0.137990
0.161217
0.150483
0.033767
0.081795
0.178622
0.126172
0.090905
0.160583
0.056658
0.103954
0.078348
0.164245
0.035984
0.150283
0.086307
-0.038458
0.040645
-0.074754
0.002392
0.081462
0.128436
0.228941
0.404931
0.625106
0.894400
1.184304
1.500000
1.385000
1.194784
0.863644
0.512577
0.173800
-0.038800
-0.163695
-0.118128
-0.081091
0.010254
0.152426
0.048779
0.035353
0.080852
0.123872
0.098212
0.121573
0.152961
0.141140
0.239329
0.234107
0.269182
0.278017
0.270141
0.279221
0.295851
0.329423
0.284309
0.318532
0.412666
0.355523
0.381739
0.324449
0.417593
0.429235
0.433713
0.483257
0.430667
0.555702
0.581770
0.569697
0.526420
0.659673
0.629210
0.564687
0.645899
0.589285
0.701365
0.486006
0.530490
0.559323
0.563768
0.557115
0.521470
0.491884
0.449041
0.410773
0.415469
0.342025
0.409381
0.416295
0.307001
0.301722
0.354789
0.285910
0.272998
0.295504
0.207485
0.286037
0.307178
0.160711
0.194833
0.266323
0.136053
0.211870
0.140869
0.181300
0.089510
0.175365
0.119967
0.123691
0.038203
0.112263
0.063575
0.088307
0.096535
0.071217
0.090856
0.041715
0.085506
0.032734
0.057850
0.078295
0.028581
0.121158
0.075258
0.133287
0.107913
0.083650
0.033512
0.104031
0.101228
0.156808
0.073776
0.012529
0.128568
-0.007732
0.062845
0.102027
0.117277
0.000016
0.133698
0.000423
0.049529
0.099397
0.005940
0.069816
0.061364
0.143534
0.086932
0.129728
0.101682
0.124668
0.008052
0.182320
0.136454
0.050767
0.169080
0.052950
0.097080
0.162331
0.192284
0.130954
0.263672
0.198858
0.213630
0.283457
0.237907
0.120553
0.232089
0.215448
0.257662
0.247952
0.281661
0.225646
0.312224
0.291086
0.305028
0.331112
0.324198
0.265030
0.201766
0.327046
0.263796
0.155551
0.140303
0.229761
0.137648
0.141763
0.145904
0.136966
0.218333
0.198127
0.109869
0.129120
0.090503
0.081720
0.099449
0.111681
0.083074
0.111305
0.048504
0.092021
0.152361
0.136426
0.172737
0.471318
0.810382
1.105302
1.385114
1.409188
1.350263
1.216485
0.752699
0.335590
0.109860
-0.046730
-0.052303
-0.083026
-0.031076
0.015357
0.139864
0.052185
0.039494
0.147015
0.185119
0.135849
0.161399
0.177310
0.199672
0.145067
0.204174
0.301286
0.201695
0.373887
0.236822
0.355692
0.300145
0.346168
0.391071
0.354335
0.396405
0.373526
0.472933
0.442689
0.450625
0.499178
0.482925
0.535267
0.569815
0.562685
0.648624
0.587055
0.577083
0.492260
0.518303
0.604822
0.528500
0.615407
0.518176
0.528846
0.559903
0.513756
0.562438
0.526487
0.467558
0.448020
0.513309
0.452958
0.327021
0.407814
0.383726
0.375628
0.279994
0.335138
0.239357
0.252295
0.262204
0.278868
0.166726
0.190446
0.234349
0.168516
0.172239
0.214501
0.154493
0.136076
0.126224
0.125293
0.006845
0.098120
0.068938
0.109762
0.066716
0.009560
0.062151
0.012568
0.037339
0.015812
-0.011164
0.073430
0.156508
0.068248
0.021019
0.079907
0.073875
0.043328
-0.088060
0.084608
-0.007576
0.012392
0.007955
0.044129
0.098820
-0.023564
0.050032
-0.043451
-0.043677
-0.044373
0.003601
0.091783
0.108734
0.024605
0.116489
0.034012
0.004161
-0.001249
0.073838
0.080662
0.028859
0.056139
0.068286
0.016292
0.111174
-0.052767
-0.047651
0.068798
0.081027
0.122667
0.128939
0.076235
0.054434
0.068095
0.153680
0.093213
0.188607
0.152684
0.141764
0.227438
0.162046
0.211995
0.195577
0.244497
0.158681
0.168635
0.199887
0.192980
0.214739
0.163184
0.190385
0.176645
0.181669
0.175537
0.175590
0.094481
0.159855
0.102039
0.084559
0.085037
0.101787
0.128865
0.135322
0.037446
0.075039
-0.052081
-0.074361
-0.061720
0.011314
-0.002984
-0.041808
-0.051499
0.070795
-0.013780
0.013507
-0.036309
-0.026353
0.146026
0.470813
0.755963
1.050285
1.295049
1.480220
1.197734
0.972106
0.523114
0.139761
-0.084656
-0.131743
-0.264833
-0.107236
-0.085884
-0.109469
-0.011442
0.012208
0.003855
0.105000
0.001825
0.084982
0.025613
0.060458
0.127389
0.145203
0.101365
0.164920
0.150722
0.170994
0.209683
0.245305
0.247283
0.310550
0.237896
0.311268
0.348577
0.327758
0.386117
0.369309
0.426747
0.504394
0.419436
0.418647
0.430464
0.448925
0.504529
0.465944
0.493256
0.466206
0.550541
0.487222
0.524339
0.528183
0.531731
0.429867
0.447881
0.392730
0.445260
0.438495
0.378376
0.338906
0.390353
0.295140
0.335848
0.326863
0.233047
0.272929
0.229413
0.093463
0.236690
0.214819
0.232643
0.059056
0.097486
0.101424
0.036705
0.116520
0.042600
-0.037245
0.023988
0.071259
-0.048613
0.005956
-0.005609
-0.005589
-0.019289
-0.010797
0.014297
0.103683
-0.013608
0.043206
-0.111811
-0.068568
0.002197
0.003710
0.007088
0.059738
-0.025227
-0.048331
-0.021350
-0.093466
-0.103477
-0.082356
-0.036065
-0.124741
-0.019727
-0.003989
-0.037000
-0.016035
-0.066152
-0.058932
-0.100549
-0.052673
-0.046142
-0.010867
-0.048526
-0.160897
-0.070874
-0.033729
0.047783
-0.036935
-0.003076
-0.006242
-0.035644
-0.081892
-0.018035
-0.012186
-0.026751
-0.014293
-0.010725
-0.030350
-0.047501
0.009960
0.003379
0.082168
0.117718
-0.028222
-0.005790
0.055841
0.145070
0.089171
0.030399
0.120466
0.125057
0.102515
0.089419
0.099780
0.132090
0.092976
0.206443
0.085486
0.173215
0.160778
0.146281
0.112788
0.066091
0.083272
0.155604
0.043854
0.037665
0.005776
0.064208
0.111623
0.015179
-0.003150
0.031629
0.066613
-0.012523
-0.085153
-0.013476
-0.085156
-0.079283
-0.060557
0.001464
0.024461
-0.043740
-0.085019
-0.027655
0.043123
0.086422
0.310443
0.462628
0.917797
1.111902
1.214684
1.368073
1.056281
0.863526
0.445800
0.096844
-0.124792
-0.166157
-0.229610
-0.197535
-0.045394
-0.092980
0.024749
-0.017968
0.054337
0.028012
-0.000422
0.080698
-0.007743
0.075580
0.063324
0.038905
0.110310
0.022182
0.140040
0.186938
0.165802
0.171633
0.146286
0.203242
0.310975
0.290813
0.244992
0.351662
0.359064
0.359436
0.407653
0.404768
0.433046
0.505152
0.410221
0.456745
0.486881
0.434631
0.483812
0.476530
0.479656
0.593231
0.498197
0.468368
0.478148
0.593401
0.387130
0.417800
0.375063
0.306263
0.425605
0.355695
0.355868
0.296100
0.254144
0.371678
0.185764
0.291611
0.279995
0.182449
0.256331
0.169704
0.167998
0.190598
0.149843
0.069267
0.072051
0.064023
0.107516
0.037134
0.056820
0.039138
-0.000453
0.078141
0.067688
-0.021884
-0.045149
0.044608
-0.001720
0.003910
0.034196
-0.025251
-0.093221
-0.001405
0.021922
-0.038771
-0.011755
-0.013911
-0.047364
-0.051368
0.016602
-0.053097
0.022653
0.003119
-0.037342
-0.054711
0.026305
-0.014804
-0.081023
0.038281
-0.021963
0.011866
-0.005269
0.067602
0.058528
0.033266
0.011576
0.016738
0.015327
0.049156
0.091468
0.011672
0.086180
0.025734
-0.020902
0.014046
0.032905
0.078315
0.023533
0.003644
0.043981
0.048750
0.085959
0.060262
0.172476
0.060910
0.056536
0.044526
0.149502
0.117507
0.156721
0.171153
0.227942
0.201240
0.132410
0.107737
0.254585
0.161605
0.186703
0.186705
0.244175
0.181550
0.177377
0.164586
0.172871
0.200807
0.067348
0.142034
0.149659
0.070951
0.100337
0.111991
0.176183
0.021656
0.059894
0.088505
-0.041422
0.071567
0.064699
0.066950
0.135889
0.049648
0.059852
-0.050871
0.045926
0.055011
0.142968
0.098358
0.063296
0.075719
0.171043
0.409465
0.704072
0.993246
1.270010
1.414076
1.352506
1.099350
0.817254
0.444519
0.113843
-0.099311
-0.169061
-0.098190
-0.047894
0.022713
0.075273
0.133249
0.170889
0.286870
0.141718
0.180948
0.082018
0.089035
0.227492
0.075670
0.201732
0.261890
0.302510
0.303933
0.273993
0.237019
0.276586
0.302037
0.301890
0.339757
0.412562
0.428089
0.380756
0.505074
0.452005
0.444007
0.491907
0.556653
0.564231
0.559150
0.624415
0.578838
0.578610
0.622474
0.625165
0.623096
0.635483
0.583912
0.618201
0.648479
0.548157
0.563190
0.457754
0.496217
0.481850
0.543495
0.398641
0.438297
0.458167
0.421729
0.352758
0.421840
0.297977
0.298103
0.273707
0.260067
0.177394
0.266080
0.145996
0.231266
0.261075
0.223593
0.190943
0.231698
0.209513
0.162777
0.146156
0.145362
0.108052
0.145744
0.197957
0.116102
0.151837
0.065801
0.096230
0.129693
0.028957
0.091618
0.151106
0.081939
0.083433
0.165655
0.089966
0.143158
0.165239
0.141711
0.069221
0.045178
0.155708
0.071559
0.095439
0.131643
0.129138
0.130128
0.032541
0.108621
0.095812
0.094857
0.052590
0.056012
0.122892
0.114211
0.140800
0.030257
0.081834
0.202306
0.121325
0.025716
0.114645
0.125458
0.073248
0.200005
0.117168
0.133869
0.145971
0.078918
0.163519
0.148217
0.092677
0.126432
0.150939
0.143167
0.113636
0.208216
0.296158
0.189762
0.330567
0.179103
0.281210
0.335054
0.167374
0.206097
0.284423
0.278925
0.163703
0.256806
0.327422
0.262044
0.188871
0.275425
0.267990
0.314221
0.209955
0.169339
0.153733
0.190982
0.238603
0.209219
0.154668
0.134618
0.149936
0.090443
0.107650
0.157057
0.087931
0.138714
0.194511
0.136261
0.136438
0.091513
0.090579
0.067958
0.087271
0.069009
0.083203
0.313452
0.421017
0.873452
1.122820
1.337307
1.494776
1.324602
1.189344
0.700830
0.378722
0.106718
-0.112513
-0.212099
-0.054596
0.007602
0.063290
0.038018
0.031651
0.159221
0.087090
0.185119
0.175309
0.189234
0.241181
0.214393
0.166844
0.294186
0.304424
0.175072
0.231344
0.289929
0.330092
0.301821
0.329199
0.302601
0.409498
0.527678
0.439862
0.494150
0.524361
0.549011
0.549067
0.464851
0.525008
0.595573
0.557232
0.589215
0.645846
0.606459
0.666115
0.669383
0.648007
0.561008
0.621586
0.594127
0.546140
0.598591
0.543791
0.533022
0.536499
0.481867
0.435528
0.461581
0.413490
0.422566
0.421085
0.443742
0.330212
0.364990
0.328416
0.258409
0.239786
0.207862
0.120593
0.225949
0.254208
0.217046
0.169825
0.189750
0.042563
0.149142
0.114743
0.129383
0.147119
0.033984
0.032367
0.092923
0.054201
0.049563
0.081437
0.081592
0.084633
0.045846
0.030793
-0.024426
0.036400
0.153827
0.055675
0.088295
0.022609
-0.013576
0.098993
0.079678
-0.002879
0.039042
0.030487
0.088253
-0.010864
0.082610
0.091001
0.024941
-0.029320
0.100322
-0.025278
0.067887
0.033962
0.039743
0.072777
0.076599
0.021650
0.032747
0.062217
0.051510
0.005438
0.037547
-0.019890
0.021213
0.108145
0.039331
0.052855
0.017284
0.085973
0.034484
0.116743
0.119103
0.134926
0.091046
0.110365
0.069506
0.171563
0.133404
0.214971
0.135416
0.186232
0.282281
0.178149
0.181260
0.203590
0.184914
0.235198
0.166284
0.154311
0.132507
0.206360
0.234616
0.235903
0.150567
0.063283
0.079520
0.136703
0.094750
0.156867
0.098232
0.087439
0.117848
0.023859
0.072745
0.051161
0.059405
0.005635
0.069799
-0.026422
0.039793
0.020074
-0.009558
-0.000123
-0.018175
0.040336
-0.011106
0.034674
0.075211
0.214202
0.445187
0.849365
1.070615
1.310436
1.360329
1.183927
0.839416
0.540450
0.201348
-0.036897
-0.204889
-0.203213
-0.093634
-0.066714
-0.029107
0.015371
0.024818
0.021301
0.046378
0.050710
0.067641
0.078884
0.125549
0.099570
0.100889
0.187444
0.138222
0.213516
0.215658
0.185475
0.189763
0.218196
0.282332
0.275293
0.225787
0.338041
0.237234
0.319776
0.412663
0.369568
0.404396
0.428878
0.526100
0.483209
0.485436
0.515513
0.528509
0.533226
0.566194
0.535522
0.415714
0.442681
0.425333
0.439559
0.466155
0.462414
0.355848
0.406252
0.390837
0.330007
0.309448
0.317072
0.338965
0.263683
0.266026
0.234658
0.236462
0.308137
0.175714
0.119595
0.099133
0.142309
0.115134
0.117989
0.056295
0.061793
0.039387
0.137128
0.015633
0.024508
0.073451
-0.022565
0.042527
0.004420
-0.044545
-0.012184
-0.109992
-0.080624
0.004512
-0.070163
-0.021798
-0.097038
0.006811
-0.120382
-0.059293
-0.076078
-0.094073
-0.036405
-0.031870
-0.120424
-0.021070
-0.095656
0.009366
-0.079820
-0.161952
-0.072969
-0.030580
-0.095183
-0.079625
-0.057729
-0.069860
-0.030421
-0.142276
-0.037403
-0.007456
-0.103567
-0.038277
-0.092959
-0.092068
-0.034911
-0.072597
-0.118595
-0.015466
-0.071367
-0.039124
-0.099143
-0.012688
-0.012014
-0.012273
0.012149
-0.134614
-0.049085
-0.044385
-0.045747
-0.055441
-0.036553
-0.087784
0.083672
0.084630
0.094432
0.056002
0.095688
0.009087
0.036080
0.052549
0.131498
0.034801
0.095484
0.072962
0.112812
0.035651
0.062154
0.045545
0.102732
-0.018931
0.101213
0.060261
0.067639
0.057357
-0.012492
0.003492
0.005357
-0.023067
-0.070357
-0.052522
0.003248
0.005710
-0.104418
-0.066655
-0.169239
-0.132045
-0.108602
-0.023085
-0.005431
-0.016563
-0.129259
-0.142934
-0.103214
-0.030255
0.048259
0.275063
0.465676
0.786799
1.153293
1.295790
1.276018
1.033394
0.701467
0.298099
0.069361
-0.183049
-0.262575
-0.274546
-0.205014
-0.101413
-0.125504
0.037335
-0.034298
-0.021297
0.015720
0.051522
0.035272
0.089113
0.051937
0.077394
-0.002367
0.141593
0.163363
0.106760
0.136484
0.162703
0.135357
0.166030
0.196149
0.262848
0.223008
0.317359
0.316335
0.306558
0.287279
0.356542
0.295824
0.302151
0.382802
0.407483
0.483161
0.416097
0.479766
0.377426
0.455393
0.465174
0.397267
0.503906
0.433426
0.389643
0.474475
0.353500
0.439445
0.344589
0.349524
0.303806
0.265673
0.359014
0.222554
0.280963
0.201552
0.265945
0.148212
0.154646
0.166172
0.099806
0.092399
0.062202
0.075519
0.051710
0.037301
-0.020850
0.000783
-0.025591
-0.001235
0.066776
-0.059879
-0.096689
-0.017975
-0.048034
-0.062591
-0.020162
0.044789
0.009106
-0.013535
-0.088962
-0.021060
-0.003936
-0.086386
0.056073
0.012646
-0.035374
-0.096025
-0.031748
-0.057710
-0.103718
-0.136952
-0.025366
0.002441
-0.085532
-0.094533
-0.158086
-0.083555
-0.063944
-0.017554
-0.124088
-0.062330
-0.089530
-0.052157
-0.112078
-0.075311
-0.023370
-0.058270
-0.022851
-0.046475
-0.079382
-0.096398
-0.057203
-0.122696
-0.034863
-0.039985
-0.063014
-0.043128
0.031141
0.036752
-0.012371
-0.050147
-0.002005
-0.055524
-0.031966
-0.003144
0.041534
0.060792
0.133208
0.085008
0.013001
0.070109
0.136449
0.017180
0.139006
0.146664
0.172906
0.136673
0.156837
0.121246
0.088059
0.023537
0.173543
0.150498
0.079951
0.105247
0.103490
0.064232
0.050758
0.035934
0.055451
0.064871
-0.036147
0.036835
-0.005557
0.042760
-0.026896
-0.080759
0.052307
0.008461
-0.049356
-0.079564
0.010998
0.006257
0.084365
0.063424
0.002129
-0.051064
0.048788
0.007535
0.158600
0.413773
0.630752
0.953310
1.193120
1.334292
1.320443
1.048315
0.610113
0.325037
0.085856
-0.071556
-0.288070
-0.212891
-0.111281
0.068100
0.016767
0.031371
0.033791
0.115698
0.098363
0.057449
0.143525
0.139950
0.142281
0.139924
0.174442
0.189406
0.151216
0.235882
0.149361
0.261600
0.216224
0.287972
0.249471
0.250125
0.420233
0.364341
0.404223
0.320264
0.504665
0.429436
0.411054
0.476149
0.520459
0.460962
0.613737
0.514368
0.558005
0.532362
0.552180
0.512538
0.532873
0.468477
0.463961
0.529258
0.496676
0.501348
0.474512
0.457857
0.450788
0.467169
0.423356
0.372483
0.297404
0.285264
0.319197
0.174985
0.244878
0.239189
0.256215
0.145945
0.180117
0.189641
0.244676
0.138185
0.096461
0.102320
0.163691
0.137895
0.149549
0.117234
0.099822
0.141813
0.080990
0.048315
0.113495
-0.017215
0.104727
0.061325
0.031581
-0.004135
0.031687
-0.019718
0.047880
0.070981
0.002620
0.025475
-0.014668
0.043680
-0.060312
0.061377
0.112784
0.124269
-0.019888
0.021929
0.049620
0.049233
0.094840
0.012608
0.160573
0.062127
0.102735
0.018650
0.011063
0.128326
0.092758
0.056565
0.174807
0.026456
0.139834
-0.040097
0.043230
0.004428
0.080785
0.039584
0.045200
0.082780
0.088359
0.063637
0.042125
0.067145
0.019611
0.056472
0.149145
0.067458
0.095729
0.089708
0.148333
0.138713
0.121494
0.216873
0.198044
0.124641
0.266271
0.114854
0.197412
0.162429
0.170105
0.226011
0.252447
0.192002
0.214185
0.184990
0.205869
0.202122
0.180163
0.213054
0.158811
0.154896
0.157340
0.185019
0.090750
0.086419
0.160809
0.138982
0.011884
0.162832
0.068017
0.058371
0.050265
0.138894
0.136393
0.091045
0.012622
0.132931
0.001102
0.042460
-0.018737
0.105955
0.196959
0.249218
0.422642
0.708917
1.049526
1.410124
1.499115
1.309511
1.041988
0.701488
0.299765
0.010154
-0.137291
-0.196527
-0.103858
-0.036188
-0.002522
0.020984
0.018262
0.087149
0.107960
0.075412
0.201424
0.179939
0.117233
0.206195
0.200483
0.210357
0.183961
0.238043
0.259235
0.204336
0.305751
0.405747
0.358129
0.245725
0.390537
0.345596
0.499903
0.363646
0.376105
0.368776
0.447671
0.498405
0.505633
0.424725
0.534419
0.507544
0.593293
0.517003
0.515542
0.570514
0.549852
0.555039
0.578313
0.485842
0.559812
0.472973
0.577767
0.399894
0.462563
0.510307
0.439419
0.423145
0.407170
0.278536
0.408334
0.292417
0.332740
0.284093
0.285073
0.350608
0.243389
0.246898
0.184285
0.101573
0.219668
0.228994
0.148938
0.118631
0.201891
0.154157
0.153972
-0.000602
0.125309
0.069765
0.060412
-0.006601
0.082743
0.131065
0.121370
0.011895
-0.012139
0.134060
0.034069
-0.013672
0.094000
0.037457
0.015894
0.101161
0.062907
0.015851
-0.019817
0.020642
0.012753
0.031362
0.000203
0.064052
0.016376
-0.021111
0.095459
0.005866
-0.053099
0.085715
0.045666
-0.038292
0.049537
-0.044483
0.027418
0.035996
0.026649
-0.026046
0.007438
-0.011351
0.058477
0.081922
0.016385
0.022444
0.073909
0.044837
0.059427
0.024685
0.058823
0.042075
-0.018302
0.091820
0.016657
0.032772
0.047852
0.184360
-0.013753
0.115199
0.121357
0.204737
0.159537
0.193984
0.191979
0.146512
0.247232
0.159410
0.162654
0.135975
0.226429
0.149072
0.126234
0.112635
0.156450
0.155616
0.180047
0.155979
0.169977
0.139362
0.090554
0.050468
0.100998
0.045039
0.096723
0.040803
0.000456
0.007385
0.001286
0.056230
-0.008201
0.016834
-0.016475
0.051570
-0.000145
-0.006741
-0.040855
0.000041
-0.030085
0.052216
0.183539
0.500640
0.835770
1.132142
1.371028
1.337566
1.097595
0.791730
0.441368
0.117476
-0.002780
-0.234367
-0.250939
-0.104426
-0.089647
0.001041
0.000830
-0.001606
-0.019218
0.043090
-0.001461
0.030898
0.030251
0.044973
0.067081
0.150513
0.116507
0.209069
0.160126
0.106442
0.237943
0.148800
0.253368
0.257879
0.277516
0.274236
0.341416
0.267465
0.328895
0.367315
0.404799
0.385863
0.490963
0.490313
0.477673
0.430166
0.427677
0.381897
0.578166
0.348477
0.497951
0.427295
0.472724
0.379069
0.442516
0.478055
0.380415
0.416359
0.394759
0.328799
0.450403
0.371838
0.349753
0.306719
0.240846
0.185875
0.255351
0.274882
0.163409
0.222824
0.093191
0.100538
0.216996
0.142138
0.092919
0.038983
0.047612
0.019877
0.086518
0.097779
-0.136747
0.008955
-0.022194
0.019903
-0.049352
0.017707
-0.078187
-0.109958
-0.062255
0.028111
-0.077933
-0.035141
-0.116937
-0.011666
-0.088675
-0.012888
-0.143642
-0.126944
-0.065766
-0.019160
-0.077133
-0.037491
-0.104068
-0.105769
-0.055619
-0.065280
-0.187593
-0.073877
-0.103852
-0.092092
-0.002840
-0.064484
-0.033845
-0.045066
-0.056551
-0.072523
-0.100276
-0.048422
-0.063402
-0.127432
-0.120662
-0.050106
-0.018776
-0.109617
-0.042013
-0.033974
-0.074515
-0.072737
-0.095434
-0.106028
-0.025333
-0.043453
0.038036
-0.069257
-0.035933
-0.025864
0.015953
0.024619
-0.041158
0.021519
0.020673
-0.023149
0.065924
0.078486
0.008036
0.079166
0.030544
0.080405
0.044363
0.132831
0.120036
0.103751
0.042102
0.128834
0.027399
0.035161
0.009048
0.052622
0.062839
-0.016014
-0.006974
-0.012713
-0.008639
-0.068229
-0.055987
-0.054378
0.009052
-0.101846
0.003918
-0.065077
-0.069399
-0.021939
-0.122640
-0.081404
-0.024403
-0.022388
0.013891
-0.071845
-0.072429
-0.076725
-0.031841
0.175308
0.522126
0.858348
1.140456
1.268727
1.205440
0.958465
0.596927
0.260671
0.002673
-0.250231
-0.230325
-0.359206
-0.230224
-0.138426
-0.089711
-0.070540
-0.022567
-0.045768
-0.042501
-0.011852
-0.002758
0.011506
-0.037384
0.017509
0.031777
0.020309
0.071707
0.088174
0.089461
0.085034
0.207994
0.133372
0.267860
0.216131
0.256249
0.286093
0.261426
0.302570
0.261643
0.306901
0.413042
0.386305
0.401270
0.286725
0.436695
0.407017
0.385193
0.371815
0.423866
0.448754
0.391449
0.472664
0.444567
0.327231
0.408459
0.315332
0.352216
0.327046
0.312753
0.261766
0.330275
0.205307
0.237559
0.222448
0.283458
0.180568
0.139043
0.098728
0.123863
0.110008
-0.006609
0.102015
0.007139
0.056815
0.045848
0.036122
-0.043107
-0.024383
0.078498
-0.053657
-0.022426
-0.095389
-0.089359
-0.108254
-0.065271
-0.055288
-0.121169
-0.118624
-0.040380
-0.120044
-0.121314
-0.158544
-0.087890
-0.175815
-0.057625
-0.013018
-0.108368
-0.137553
-0.154626
-0.028296
-0.055680
-0.152506
-0.128394
-0.089584
-0.041560
-0.035868
-0.165603
-0.053058
-0.154193
-0.144597
-0.038107
-0.111730
-0.094499
-0.065189
-0.011371
-0.037143
-0.029376
-0.048111
-0.128278
-0.106481
-0.083211
-0.040919
-0.095169
-0.002996
-0.069084
-0.044908
-0.017588
-0.075234
-0.062227
-0.068597
-0.056450
0.025577
-0.042647
0.029343
0.035400
-0.014032
0.044187
0.007365
0.081827
0.118094
0.075563
0.161699
0.079580
0.144344
0.107948
0.088308
0.120317
0.184338
0.114660
0.127877
0.052709
0.159290
0.128662
0.038281
0.093987
0.066687
0.110017
0.005560
0.012571
0.050116
-0.028863
0.126051
-0.025588
-0.005006
0.014818
-0.004787
0.024193
0.024667
0.011986
-0.023433
0.034133
-0.061668
-0.069155
-0.002399
-0.057650
0.004614
-0.008754
-0.086085
0.008330
0.134294
0.379412
0.659448
1.015711
1.184907
1.255159
1.180916
0.902447
0.653276
0.240150
0.021148
-0.189211
-0.249330
-0.262984
-0.093895
-0.021408
-0.051655
-0.036529
0.026955
0.037093
0.113656
0.036187
0.047078
0.125740
0.032775
0.106315
0.099233
0.104124
0.087098
0.173944
0.238478
0.214906
0.237780
0.242528
0.285168
0.363557
0.325974
0.348469
0.383779
0.388966
0.349717
0.463190
0.459949
0.426755
0.530081
0.529624
0.469452
0.531278
0.497297
0.442547
0.537419
0.544021
0.546369
0.526953
0.461986
0.498707
0.481450
0.538005
0.439821
0.377194
0.415782
0.431733
0.419647
0.399708
0.398310
0.306274
0.311175
0.247749
0.269696
0.208594
0.153925
0.216181
0.227094
0.156623
0.159156
0.143173
0.093149
0.107765
0.142844
0.156548
0.108578
0.108464
0.042504
0.037194
0.116461
0.079288
0.093327
0.045406
0.029950
0.065953
0.022550
0.026732
0.037241
-0.008735
0.013478
0.043168
0.153089
0.045594
0.020732
0.037797
0.028186
0.087740
-0.057715
0.068146
0.022785
0.050863
0.023658
0.026974
0.028212
0.081423
0.051195
0.035704
0.042325
0.020543
0.057839
-0.050840
0.052999
-0.030149
0.064206
0.013717
0.054712
0.035122
0.093936
0.052439
0.041199
0.059694
0.052649
0.115534
0.096035
0.042789
0.096858
0.085926
0.037018
0.086157
0.135552
0.146968
0.150716
0.140698
0.132077
0.220280
0.200111
0.139597
0.253332
0.115382
0.148416
0.239913
0.208697
0.174912
0.226797
0.247596
0.251625
0.260308
0.250010
0.271601
0.161182
0.238254
0.217969
0.130045
0.101146
0.209860
0.237894
0.152001
0.107933
0.216696
0.138344
0.101103
0.052031
0.117697
0.082672
0.049105
0.089972
0.001727
0.048094
0.136725
0.143182
0.079161
0.068550
0.070822
0.094008
0.088259
0.133391
0.272081
0.541447
0.905783
1.179351
1.348608
1.459383
1.366158
0.986478
0.593832
0.339273
-0.042489
-0.110937
-0.029238
-0.154826
0.033734
0.111660
0.074494
0.025569
0.137820
0.144463
0.133211
0.043696
0.092918
0.175844
0.264089
0.298402
0.165148
0.229944
0.283979
0.201303
0.292413
0.212492
0.325559
0.355840
0.350296
0.387213
0.370085
0.393474
0.469487
0.515548
0.542666
0.511698
0.499236
0.557990
0.474819
0.590650
0.610589
0.615805
0.585322
0.573984
0.686127
0.505907
0.671434
0.547610
0.525452
0.582151
0.545760
0.590767
0.493750
0.409208
0.473495
0.463006
0.421420
0.430296
0.317847
0.356975
0.371011
0.454909
0.230484
0.256525
0.368065
0.240941
0.251829
0.151445
0.156310
0.297380
0.225936
0.133539
0.124524
0.138099
0.220610
0.139594
0.161850
