0.032743
-0.044288
0.013013
-0.043754
-0.035682
-0.000479
-0.062089
-0.021412
-0.015282
0.062748
-0.020298
0.018043
-0.033360
-0.026871
-0.027026
0.022328
0.012438
0.011458
0.029105
0.048043
0.008018
0.046257
0.082751
-0.025689
0.114523
0.081460
0.143534
0.082968
0.091011
0.096232
0.048189
0.172589
0.181658
0.177019
0.112518
0.211431
0.228500
0.211129
0.216109
0.238225
0.200218
0.258979
0.199788
0.162332
0.155494
0.179852
0.223382
0.092250
0.193793
0.086962
0.066673
0.120861
0.103445
-0.020379
0.066311
0.100256
0.069447
0.056700
0.065023
0.069576
0.043468
0.046016
0.052008
0.080009
0.013441
0.035318
0.053798
0.041286
0.005896
-0.017733
0.073013
0.116191
0.218878
0.454597
0.710514
1.033723
1.310766
1.459726
1.327129
1.061591
0.705881
0.310999
0.060897
-0.101095
-0.156903
-0.223388
-0.007171
0.021421
-0.032374
0.077728
0.094744
0.086142
0.033744
0.089168
0.073564
0.182402
0.131743
0.193207
0.192457
0.099137
0.197962
0.137973
0.221703
0.203389
0.241653
0.210275
0.255802
0.295338
0.374241
0.380416
0.381905
0.341504
0.359638
0.450511
0.531892
0.424268
0.470204
0.463294
0.441920
0.501890
0.504007
0.493058
0.620541
0.637914
0.655299
0.565679
0.579683
0.458172
0.591162
0.552480
0.574391
0.590035
0.507802
0.526159
0.456703
0.535163
0.467177
0.485320
0.383602
0.461360
0.329092
0.326237
0.396356
0.300614
0.347985
0.323197
0.253182
0.282810
0.212268
0.217957
0.274019
0.149966
0.160999
0.160924
0.186211
0.095212
0.132645
0.147919
0.155889
0.098165
0.143533
0.131964
0.082894
0.155507
0.168454
0.080936
0.185078
0.117012
0.146547
0.067651
-0.015096
0.066900
0.071583
0.100510
0.042555
0.045999
0.047242
0.051485
0.080863
0.017725
0.163378
0.114533
0.030071
0.085203
0.028110
0.055378
0.046961
0.070230
0.023487
0.045475
0.058013
0.154179
0.089357
0.074427
0.130615
0.081670
0.134676
0.145017
0.182005
0.073910
0.078867
0.094406
0.178320
0.030372
0.099099
0.125022
0.048825
0.061720
-0.014832
0.188962
0.170798
0.094334
0.095694
0.129912
0.174502
0.098438
0.126078
0.099959
0.142046
0.157630
0.177757
0.183847
0.163247
0.252459
0.258253
0.251614
0.294484
0.288494
0.272892
0.273869
0.269124
0.227215
0.297382
0.269464
0.209245
0.277917
0.264339
0.217045
0.211856
0.173443
0.176208
0.207239
0.147882
0.190482
0.084439
0.223302
0.175569
0.146726
0.002406
0.200125
0.091869
0.039759
0.113475
0.131844
0.082649
0.127586
0.067328
0.042225
0.101539
0.131236
0.067879
0.059262
0.040130
0.135220
0.154246
0.322758
0.602632
1.002780
1.246264
1.500000
1.293756
1.128101
0.844824
0.495588
0.099538
-0.127566
-0.159848
-0.163972
-0.131672
-0.057635
0.037672
0.147280
0.109076
0.003825
0.132437
0.149747
0.084388
0.068862
0.197826
0.122317
0.205487
0.178909
0.147708
0.227265
0.178639
0.181611
0.220854
0.222152
0.254326
0.268452
0.341785
0.382208
0.358769
0.378148
0.408910
0.490671
0.378425
0.440077
0.487071
0.509606
0.450056
0.498062
0.537728
0.627138
0.472842
0.678827
0.553238
0.627031
0.512275
0.593235
0.588067
0.611360
0.544443
0.524794
0.496312
0.593860
0.472824
0.471642
0.386610
0.439174
0.376523
0.393654
0.393238
0.382106
0.302242
0.310884
0.324107
0.253374
0.246677
0.307055
0.242900
0.213211
0.222558
0.166636
0.145830
0.169259
0.097164
0.114375
0.130113
0.056030
0.033147
0.058726
0.113729
0.059324
0.095417
0.063400
0.030356
-0.026771
0.067932
0.078532
0.067853
0.073437
0.048679
0.096474
-0.029522
0.000705
0.030304
0.024923
0.025106
0.143889
0.010033
0.070627
0.055508
0.076950
0.057274
0.069789
0.054166
0.002692
0.066521
0.082645
0.039565
0.059977
0.005479
0.011649
-0.067154
0.058268
0.049535
0.014476
-0.074290
0.082800
0.128641
0.016914
-0.092068
0.008159
0.062107
0.038554
0.023487
-0.042694
0.038507
0.055557
0.059545
0.043835
0.035338
0.021695
-0.034006
0.007835
0.104395
0.034798
-0.020280
0.019591
0.149220
0.119462
0.050862
0.032527
0.108479
0.084052
0.113313
0.200209
0.148535
0.184369
0.201886
0.167834
0.144752
0.184411
0.195965
0.136934
0.056747
0.198174
0.153990
0.143388
0.158338
0.105452
0.145294
0.069736
0.129855
0.054245
0.068497
0.050687
0.072203
0.048213
0.073557
0.038249
-0.016349
-0.030284
0.038368
0.002675
-0.021357
-0.008374
0.014390
-0.049134
-0.001752
0.016511
-0.023550
-0.058685
-0.110265
0.034567
0.103674
0.266316
0.512350
0.840668
1.142948
1.301669
1.343312
1.196870
0.948006
0.413152
0.101743
-0.095434
-0.207752
-0.322324
-0.119647
-0.120546
-0.109317
-0.035052
-0.010788
0.039671
0.007356
0.046750
0.060204
-0.003441
0.088155
0.090814
0.059253
0.025320
0.076298
0.018213
0.108973
0.140911
0.171884
0.111035
0.175610
0.214725
0.229533
0.342883
0.220925
0.319981
0.184465
0.330073
0.253821
0.370727
0.382025
0.408801
0.452226
0.447918
0.478058
0.435983
0.401788
0.379693
0.500902
0.469653
0.427259
0.479269
0.459736
0.371420
0.422975
0.394230
0.411333
0.365636
0.419153
0.388856
0.369059
0.340636
0.367343
0.260757
0.273421
0.233048
0.283131
0.121580
0.144203
0.100117
0.210496
0.111513
0.166767
0.127695
0.116781
0.095199
0.089781
0.003975
0.019811
0.063044
0.022424
0.026157
-0.024063
0.058517
-0.013628
-0.019281
0.067554
-0.012017
-0.076192
-0.087071
-0.032947
-0.077889
0.011190
0.022568
-0.055303
-0.010933
-0.093264
-0.085275
-0.017540
-0.087219
-0.064333
-0.030188
-0.040030
0.022790
0.003548
-0.004165
-0.106081
-0.026881
-0.061835
-0.003587
-0.055967
-0.077532
0.001648
-0.011720
-0.038692
-0.015959
-0.012659
-0.089346
-0.085719
-0.043156
-0.022856
-0.109594
0.010166
-0.054582
-0.058323
-0.051955
-0.064743
-0.008132
-0.012600
0.009099
-0.006077
0.020402
-0.114727
-0.067911
0.026091
0.058844
-0.116337
-0.008679
-0.042898
0.038556
-0.011269
0.020426
-0.030193
-0.004887
0.072727
0.000219
0.012790
0.005893
0.062334
0.144615
0.173545
0.147681
0.114328
0.137962
0.126877
0.090003
0.056796
0.081639
0.150306
0.071198
0.142769
0.032028
0.088635
0.196264
0.166045
0.062310
0.049803
0.028049
0.010028
0.023008
0.073259
0.025747
0.021470
-0.056434
-0.014471
0.044640
-0.030530
-0.017046
-0.048084
0.029303
-0.037888
-0.078969
-0.053647
-0.008779
-0.024704
-0.049068
-0.079114
-0.050966
-0.026395
0.163774
0.431142
0.589421
0.964001
1.336928
1.312671
1.165944
0.949130
0.591429
0.270162
0.014994
-0.186718
-0.285805
-0.203660
-0.107251
-0.077765
-0.148733
0.016531
0.000277
-0.096597
0.037812
0.040161
0.060851
0.010100
0.076304
0.074993
0.102627
0.142931
0.083923
0.216557
0.167599
0.184747
0.226127
0.232315
0.219561
0.206203
0.269673
0.292013
0.303475
0.331290
0.379524
0.255541
0.342506
0.352558
0.518311
0.443600
0.505348
0.348152
0.486979
0.455725
0.570856
0.550293
0.494814
0.430282
0.492554
0.501528
0.539006
0.433753
0.381502
0.420971
0.413707
0.462606
0.448363
0.392742
0.350876
0.380659
0.298024
0.250694
0.379956
0.247510
0.288912
0.265917
0.198897
0.262639
0.186257
0.162108
0.203511
0.167587
0.135417
0.113192
0.096986
0.167904
0.027409
0.075229
0.134196
0.114955
0.087267
-0.002322
0.078876
-0.010152
-0.052663
0.030547
0.017775
0.021673
0.032152
0.062056
0.024293
0.013207
0.003137
0.085742
-0.057616
0.066975
-0.078526
-0.080320
0.071569
0.122078
-0.012979
0.018325
-0.004995
0.090617
0.028046
0.008826
0.001865
0.014482
0.046275
0.025888
0.033889
0.032625
-0.020903
0.063246
-0.016536
0.082394
0.027410
-0.016316
0.053717
0.057434
0.059091
0.003759
0.127725
0.078656
0.090577
0.004996
0.007571
0.050290
0.102015
0.048469
0.026482
0.083270
0.137507
0.107947
0.071246
0.096763
0.166329
0.059901
0.034217
0.066340
0.137981
0.131230
0.159736
0.092244
0.243919
0.117124
0.147562
0.158415
0.258749
0.175771
0.174374
0.247538
0.205840
0.216837
0.167695
0.162676
0.185070
0.294361
0.203418
0.210453
0.243366
0.166666
0.189630
0.131947
0.128900
0.198051
0.165422
0.140251
0.148176
0.042174
0.152270
0.039684
0.143865
0.118472
0.008878
0.073800
0.105622
0.105910
0.027154
0.066974
0.027236
-0.049524
-0.004603
0.040284
0.024375
0.122032
0.237218
0.410675
0.682861
0.974131
1.196914
1.430347
1.349916
1.054079
0.780131
0.446055
0.099028
0.000844
-0.145750
-0.115473
-0.133608
-0.050150
-0.009657
0.107406
0.195241
0.096543
0.150892
0.122691
0.111505
0.205532
0.130004
0.172038
0.171132
0.077672
0.142873
0.190399
0.340377
0.232410
0.199257
0.252726
0.392383
0.314113
0.304772
0.334196
0.316848
0.356772
0.374712
0.422570
0.513143
0.536618
0.520042
0.519338
0.514584
0.552718
0.575884
0.512403
0.557313
0.609317
0.510688
0.528906
0.640743
0.621784
0.566812
0.591826
0.579250
0.590001
0.562580
0.548581
0.538218
0.521792
0.469076
0.439843
0.467605
0.396731
0.387495
0.406451
0.364775
0.276897
0.268677
0.205822
0.275217
0.190092
0.269262
0.237109
0.235623
0.176313
0.229230
0.178253
0.156595
0.187255
0.123955
0.176054
0.086185
0.082744
0.117079
0.118745
0.071333
0.118450
0.147531
0.098366
0.064502
0.004091
0.073384
0.082020
0.018519
0.112244
0.038584
0.086063
0.136289
0.135739
0.044034
0.064128
0.125718
0.109605
0.105973
0.223340
0.096840
0.173594
0.089290
0.041070
0.050768
0.017177
0.024852
0.123984
0.170633
0.074740
0.054750
0.042919
0.063574
0.094454
0.012315
0.074712
0.123223
0.148753
0.113493
0.062802
0.094006
0.092634
0.168924
0.121590
-0.002209
0.100386
0.070738
0.056870
0.182686
0.088424
0.098677
0.154519
0.038424
0.190178
0.114824
0.141062
0.097414
0.221959
0.107731
0.163753
0.210608
0.254152
0.165288
0.215252
0.227306
0.183060
0.228842
0.187731
0.237220
0.244971
0.172185
0.270439
0.183574
0.251554
0.253464
0.196029
0.231171
0.129677
0.242142
0.202534
0.110416
0.124755
0.138059
0.069696
0.080432
0.084530
0.145153
0.130797
0.039083
0.114410
0.192029
0.149488
0.151811
0.101197
0.075936
0.099302
0.074935
0.007986
0.022848
0.052028
0.003848
0.079272
0.166082
0.333343
0.634890
0.941066
1.182725
1.332193
1.391001
1.270833
0.896632
0.534173
0.264888
0.029867
-0.154308
-0.169628
-0.043711
-0.011613
0.148422
0.086946
0.083803
0.070895
0.146033
0.202564
0.084728
0.216762
0.178548
0.065290
0.167411
0.169072
0.135775
0.131236
0.268940
0.289010
0.199191
0.183069
0.197358
0.236208
0.283938
0.343948
0.313671
0.342463
0.456529
0.345365
0.382461
0.413102
0.456453
0.495320
0.583268
0.515395
0.464250
0.498348
0.561982
0.591382
0.593707
0.501165
0.559762
0.539102
0.602909
0.446020
0.553024
0.498495
0.475738
0.537024
0.439673
0.409014
0.372380
0.413793
0.436180
0.320625
0.384796
0.358045
0.327832
0.301234
0.277623
0.266537
0.191953
0.170302
0.175452
0.206258
0.210251
0.123635
0.114718
0.075531
0.085032
0.100712
0.078599
0.052442
0.038556
0.043365
0.069164
0.019681
0.017036
0.044375
0.092132
0.043133
0.065398
0.043007
0.094923
0.101497
-0.018991
0.029450
0.040620
-0.065161
-0.022396
0.054070
-0.042417
0.014096
0.006533
-0.016030
0.001529
0.094048
0.057474
0.040381
0.047303
0.055360
-0.079541
-0.021456
-0.038850
0.018574
-0.043183
-0.003371
-0.022213
0.038248
0.008528
-0.050777
0.005708
-0.000821
-0.035174
0.041430
0.017931
0.023115
0.032005
0.074801
0.032544
-0.026943
-0.069058
-0.024557
-0.074033
0.032526
0.040921
-0.020650
0.074053
-0.026428
0.055712
0.053919
0.021980
0.094016
0.098329
0.053796
0.083784
0.116140
0.065076
0.013839
0.086912
0.109354
0.140431
0.213975
0.163166
0.144886
0.107425
0.086884
0.190064
0.233600
0.166865
0.156387
0.141906
0.034147
0.052206
0.071810
0.020914
0.059113
0.021054
0.058164
-0.003750
-0.019728
0.066247
0.012429
-0.017670
0.044483
0.018124
-0.006574
-0.042500
-0.037296
-0.057260
-0.079107
-0.086920
-0.010733
-0.048512
-0.083581
0.030061
-0.036213
-0.115250
-0.076080
0.079161
0.215892
0.363572
0.634512
1.029379
1.224195
1.265549
1.265907
0.919439
0.560787
0.175044
-0.101577
-0.221300
-0.313414
-0.215444
-0.129843
-0.099912
-0.016529
0.044175
-0.009700
-0.061829
0.039195
-0.028329
0.033124
-0.018454
0.014050
-0.016554
0.066696
0.049930
0.102271
0.042766
0.086612
0.066911
0.158333
0.098223
0.200924
0.116572
0.140733
0.203422
0.235666
0.253099
0.257299
0.318489
0.217781
0.298690
0.310511
0.377213
0.457235
0.347596
0.426928
0.369639
0.420119
0.434814
0.540565
0.357226
0.436030
0.408059
0.342331
0.420859
0.418524
0.389236
0.443916
0.363178
0.342370
0.395545
0.312946
0.292554
0.196114
0.299693
0.202671
0.167777
0.209276
0.167634
0.104897
0.112298
0.126313
0.177348
0.072657
0.098235
0.070864
-0.013640
0.091237
0.048788
0.030790
0.045274
-0.034087
0.009348
-0.025980
-0.074062
-0.009895
-0.142299
-0.133984
-0.105209
-0.030694
-0.069304
-0.005640
-0.137581
-0.094947
-0.140342
-0.102012
-0.055855
-0.028145
-0.092837
-0.117825
-0.017720
-0.082577
-0.072725
-0.110535
-0.149932
-0.094429
-0.079792
-0.143876
-0.004829
-0.030815
-0.005047
-0.122289
-0.123642
-0.051132
-0.069683
-0.037879
-0.042504
-0.131213
0.025881
-0.090946
-0.082007
-0.022163
-0.039204
-0.077491
-0.058994
-0.034724
-0.071856
-0.023858
-0.038246
0.035964
-0.037112
-0.083035
-0.072073
-0.138497
0.008480
-0.105577
-0.077060
-0.125113
-0.106494
-0.090383
-0.085482
-0.066591
0.029441
0.035823
-0.016447
0.092348
0.016209
-0.044931
0.170910
0.050704
0.072203
0.097180
0.048075
0.081584
0.079441
0.052532
0.064300
0.000426
0.063087
0.134605
0.108429
0.001628
0.098192
0.082901
0.033833
0.060883
0.065380
-0.026493
0.013398
-0.065208
0.011039
-0.001316
-0.051847
-0.012607
-0.056383
0.006019
-0.127820
-0.137861
0.029791
-0.093318
-0.093716
0.001477
0.051134
-0.116718
-0.042119
-0.062948
-0.023063
-0.103080
-0.027928
0.052934
0.294396
0.663927
0.890577
1.138323
1.330780
1.183111
1.064074
0.613558
0.244007
-0.057947
-0.196621
-0.294949
-0.190403
-0.157609
-0.142510
-0.048787
-0.054318
-0.043874
-0.021291
-0.024732
0.010085
0.051348
0.014075
-0.009308
0.054945
0.054804
0.103113
0.023542
0.087826
0.163211
0.073191
0.053789
0.194336
0.200628
0.214097
0.230893
0.241743
0.180311
0.299718
0.305945
0.316612
0.334171
0.361282
0.393299
0.392219
0.323018
0.474239
0.427740
0.478103
0.392398
0.509606
0.427471
0.478169
0.479628
0.441846
0.478540
0.426224
0.401159
0.427998
0.343703
0.359344
0.405923
0.372180
0.348251
0.362001
0.351707
0.271297
0.239405
0.260600
0.295295
0.287248
0.192235
0.191676
0.202970
0.146099
0.102316
0.104528
0.109866
0.099848
0.025465
0.105258
0.055586
0.092852
0.007184
0.005148
0.094893
-0.009650
0.036281
-0.010384
-0.061929
-0.020057
-0.055202
-0.089634
-0.102269
0.008940
-0.023107
0.060104
-0.044328
-0.044913
-0.102613
-0.022037
-0.014723
-0.161934
0.044491
0.141417
0.001721
-0.048602
-0.034837
-0.035242
-0.048798
-0.104241
0.002455
-0.025714
0.018324
-0.025688
0.001495
0.027768
0.087726
0.016287
0.011672
-0.015072
0.046819
0.038103
0.049622
0.065394
-0.005098
0.025735
0.023566
0.112365
-0.059428
-0.002156
0.032483
-0.007253
0.005984
0.061109
0.028521
-0.030121
-0.026769
0.004215
0.078230
0.086378
-0.020496
0.088261
0.096270
0.102167
-0.045447
0.084360
0.135299
0.073372
0.140493
0.091429
0.144286
0.100608
0.194608
0.137421
0.158205
0.205743
0.192788
0.212636
0.185977
0.183627
0.145146
0.173701
0.165547
0.205658
0.100214
0.158804
0.118183
0.150258
0.095379
0.047563
0.042599
0.069459
0.056865
0.081911
0.035597
-0.031470
-0.054235
0.013145
0.042894
0.005193
0.040012
0.104798
0.014079
0.045568
0.075147
0.072975
-0.002990
0.030014
-0.015490
0.023643
0.117379
0.331466
0.620605
0.852215
1.147840
1.351528
1.300190
1.117420
0.766255
0.496281
0.132824
0.003095
-0.125280
-0.183972
-0.057481
-0.102596
-0.025575
0.003089
0.056937
0.133265
-0.031555
0.046850
0.122723
0.142023
0.134372
0.185068
0.109835
0.113864
0.162722
0.185419
0.133244
0.188350
0.220868
0.315933
0.199104
0.218982
0.272485
0.308784
0.320698
0.303516
0.276319
0.448547
0.406870
0.495035
0.456468
0.433392
0.449880
0.419085
0.534322
0.577350
0.478612
0.544796
0.572888
0.437535
0.589158
0.567306
0.604428
0.618725
0.552009
0.519953
0.498315
0.538537
0.443134
0.449477
0.469348
0.361686
0.342096
0.380482
0.362911
0.376604
0.308288
0.298919
0.262859
0.251885
0.216893
0.204794
0.134371
0.101581
0.117113
0.135046
0.190420
0.210193
0.101575
0.072784
0.139024
0.144834
0.067525
0.121668
0.087314
0.129615
0.036323
0.154660
0.089989
-0.031030
-0.003632
0.059893
0.050026
0.022357
0.055130
0.041227
0.079673
0.020159
0.074263
0.180533
-0.007218
0.064859
0.015028
0.043638
0.012131
0.052341
0.048228
0.007807
0.068872
0.111199
0.075262
0.060262
0.102228
0.089061
0.047198
-0.015331
0.009301
0.031546
0.086396
0.021858
-0.002797
0.127052
0.019644
0.111874
0.078034
-0.001720
0.103825
0.051736
0.033641
0.005706
-0.001439
0.041606
0.079577
0.150563
0.032125
0.016810
0.055552
0.052794
0.098826
0.022701
0.034543
0.142198
0.037146
0.146265
0.178738
0.136515
0.138893
0.101101
0.151593
0.184077
0.160116
0.144635
0.250031
0.187268
0.241003
0.228238
0.221140
0.182547
0.198775
0.168231
0.213212
0.133644
0.210567
0.125968
0.061017
0.083318
0.186743
0.110747
0.170757
0.103224
0.080352
0.037557
0.102917
0.013497
0.053653
0.075401
-0.042585
-0.033283
-0.020658
0.023823
0.026723
0.019895
0.130052
0.027938
0.005249
-0.052629
-0.008607
-0.044019
0.156888
0.267077
0.530573
0.782544
1.128320
1.330314
1.381833
1.232835
0.976273
0.552986
0.232984
0.001772
-0.235649
-0.203482
-0.140789
-0.061396
-0.040489
-0.004846
-0.101631
0.043721
0.025957
-0.023370
0.057364
0.119827
0.121912
0.091252
0.045151
0.090598
0.108056
0.132073
0.208286
0.173998
0.155222
0.178195
0.205831
0.200016
0.308655
0.217519
0.292050
0.330267
0.327909
0.371862
0.328042
0.437891
0.451675
0.387044
0.399424
0.469420
0.521852
0.420535
0.460553
0.537377
0.546605
0.531735
0.571118
0.489010
0.462461
0.427706
0.512082
0.458056
0.462696
0.467904
0.428693
0.391376
0.347367
0.319269
0.333939
0.387811
0.220245
0.183969
0.197535
0.223864
0.245048
0.289427
0.219421
0.110273
0.088328
0.107611
0.076976
0.071069
0.022807
0.104410
-0.012498
0.093596
0.050525
0.020046
0.010419
0.051308
0.071179
-0.026771
0.055792
0.025437
0.012025
-0.076737
-0.037314
-0.041545
-0.057900
-0.025990
-0.102476
0.014894
0.014227
-0.058791
-0.095976
0.054803
0.001757
-0.055934
-0.063337
-0.034603
-0.077266
-0.007737
-0.077246
-0.136887
-0.021134
-0.064703
-0.084607
-0.068050
0.017093
-0.076027
-0.087783
0.018071
-0.119964
-0.065447
-0.103920
-0.003312
-0.111249
-0.022241
-0.083744
-0.100130
-0.073853
0.040981
-0.010236
-0.024462
-0.085465
-0.024399
-0.013878
-0.000129
0.049876
-0.161804
-0.021755
0.011209
-0.001633
-0.017687
-0.007753
-0.025416
-0.081547
-0.002413
-0.000061
0.073523
-0.051408
0.001851
0.055997
0.043406
0.119128
0.150353
0.073693
0.117359
0.194134
0.086232
0.043101
0.128310
0.065799
0.105917
0.060367
0.123763
0.089688
0.095526
-0.000668
0.067870
0.066096
-0.027823
0.019035
-0.109936
0.006791
0.026609
-0.089590
-0.005045
0.013894
-0.036780
-0.079816
-0.035468
-0.070417
-0.053500
-0.007975
-0.042987
-0.134931
-0.084155
-0.075026
-0.058583
-0.060306
-0.114604
-0.104679
-0.041137
-0.014557
0.076835
0.233448
0.660954
0.926272
1.205933
1.287819
1.187583
0.996380
0.600748
0.144003
-0.054984
-0.185735
-0.287358
-0.264396
-0.128917
-0.159771
-0.129666
-0.123407
-0.089761
-0.061880
-0.038119
-0.066526
0.002501
-0.067938
-0.033927
0.032599
0.102365
0.069920
-0.017612
0.047141
0.059220
0.094001
0.075277
0.111879
0.129016
0.208577
0.243678
0.120255
0.218913
0.133903
0.222674
0.330456
0.292899
0.238659
0.410255
0.376817
0.343422
0.391689
0.319393
0.442660
0.432341
0.418438
0.483380
0.392022
0.401478
0.393421
0.345561
0.431746
0.344198
0.401576
0.343266
0.361340
0.285238
0.261156
0.189921
0.271293
0.264071
0.256560
0.171105
0.201637
0.094866
0.185579
0.095707
0.163420
0.030033
0.075021
0.141465
0.024619
0.020836
0.014636
0.042189
-0.015519
-0.031551
0.010475
0.016103
-0.074383
-0.073406
-0.064276
-0.072885
-0.080812
-0.130264
-0.131589
-0.029503
-0.002611
-0.028633
-0.081193
-0.093905
-0.010647
-0.141999
-0.028663
-0.038246
-0.120004
-0.125527
-0.138404
-0.068866
-0.107872
-0.112417
-0.093100
-0.058688
-0.082591
-0.141666
-0.095243
-0.182815
-0.127076
-0.084578
-0.123554
-0.022957
-0.027032
-0.063747
-0.103848
-0.026385
-0.095471
-0.115153
-0.081335
-0.098941
-0.085327
-0.046401
-0.066802
-0.082060
-0.087912
-0.028354
-0.095637
-0.087782
-0.064081
-0.063417
-0.088437
-0.101978
-0.026496
-0.123343
-0.046531
-0.053611
-0.092029
-0.121846
-0.050297
-0.080968
-0.042574
-0.048247
0.059941
0.038684
0.029880
0.020600
0.070528
0.046785
0.028378
0.070428
0.002652
0.123843
0.068083
0.132272
0.117564
0.138641
0.061539
0.077706
0.067280
0.008730
0.058804
0.011102
0.052967
-0.017486
0.050488
0.021835
0.036159
0.054426
0.015385
-0.040561
-0.084249
-0.056645
-0.066907
-0.034981
-0.129547
-0.072295
-0.079214
-0.048113
-0.051833
-0.028442
-0.059961
-0.104984
-0.078051
-0.058223
-0.049954
-0.121290
-0.015450
0.080078
0.169467
0.434068
0.802413
1.118027
1.223791
1.208865
1.038629
0.685250
0.270681
0.020544
-0.191988
-0.266760
-0.292926
-0.246936
-0.140039
0.022453
-0.044616
-0.045006
-0.065288
-0.058129
-0.027583
-0.053895
0.006890
-0.064846
0.026200
0.064085
0.058075
0.024266
0.103139
0.137599
0.074324
0.144289
0.151577
0.179571
0.192050
0.234212
0.269363
0.297661
0.293125
0.243517
0.326773
0.274211
0.326197
0.354842
0.448562
0.353611
0.393935
0.416682
0.414690
0.409633
0.362528
0.412064
0.479261
0.533752
0.475458
0.439082
0.509710
0.432202
0.457650
0.415786
0.399810
0.303670
0.358877
0.304610
0.416246
0.350712
0.272901
0.389516
0.285260
0.255764
0.224922
0.247156
0.165347
0.178823
0.186725
0.167670
0.139352
0.089779
0.088562
0.128730
0.096530
0.139288
0.055902
0.011154
0.060229
-0.007205
-0.006240
0.032787
-0.026916
0.010157
-0.040119
-0.027402
0.011335
0.001375
-0.079032
-0.116071
-0.024551
0.013605
-0.034510
0.068087
-0.011562
0.038028
-0.062059
0.036946
0.010218
-0.087223
-0.104048
0.033443
0.078366
-0.014665
-0.001758
0.060439
0.018197
-0.034982
0.012225
0.032227
-0.013236
0.056370
-0.007201
-0.017702
0.017285
0.020060
-0.076429
-0.020185
0.047305
0.007512
0.049502
-0.051977
0.023880
0.071300
0.076703
-0.023357
-0.038966
0.008737
-0.032930
0.092176
-0.004000
0.007365
0.073950
0.038713
0.008157
0.055966
0.012835
0.031484
0.133806
0.108407
0.087008
0.176534
0.065891
0.113792
0.086446
0.109353
0.190365
0.159508
0.268215
0.226758
0.174009
0.163112
0.201934
0.137098
0.235122
0.255721
0.087797
0.181421
0.088897
0.080391
0.200910
0.141163
0.161539
0.023735
0.147972
0.139986
0.051922
0.122000
0.059073
0.079347
0.033411
0.098126
0.047131
0.013429
0.077791
0.084707
0.004712
0.019364
-0.039479
-0.044856
0.036537
0.091021
0.044177
0.083992
0.049613
0.119456
0.353719
0.497150
0.744877
1.206076
1.338406
1.309247
1.193436
0.937875
0.525173
0.253596
-0.039856
-0.158221
-0.146686
-0.167857
-0.088185
0.030179
0.096451
0.080852
0.061763
0.202576
0.153807
0.041935
0.146888
0.031204
0.159346
0.103342
0.132169
0.230772
0.120767
0.188425
0.178184
0.254424
0.238343
0.269080
0.295542
0.262680
0.286289
0.336434
0.338618
0.348635
0.461676
0.413597
0.338736
0.455225
0.536277
0.464262
0.442001
0.476631
0.507336
0.563961
0.621551
0.621977
0.540740
0.492282
0.575360
0.531563
0.577164
0.580442
0.565660
0.533418
0.532703
0.456023
0.528276
0.436823
0.398108
0.437212
0.409490
0.342382
0.379753
0.326477
0.408209
0.299267
0.194078
0.256746
0.226568
0.206175
0.295276
0.141474
0.156031
0.161370
0.152086
0.215307
0.098236
0.172091
0.163733
0.126984
0.114502
0.069903
0.074301
0.097432
0.046486
0.085327
0.088898
0.103346
0.107302
0.130104
0.050622
0.083565
0.002533
0.122434
0.066085
0.115787
0.172988
0.052606
0.135734
0.112529
0.074970
0.059651
0.082683
0.060056
0.079779
0.115831
0.020352
0.085764
0.055330
0.132823
0.109358
0.014941
0.029974
-0.005061
