0.031840
-0.032014
-0.040690
0.005625
0.041109
-0.017109
0.012594
-0.081931
0.127452
0.038807
0.030601
0.024820
0.057465
0.088075
-0.021687
0.094971
-0.013991
-0.047655
0.014806
-0.002156
0.049936
0.092747
0.192367
0.108617
0.102121
0.132000
0.194437
0.149427
0.095999
0.153464
0.166450
0.251723
0.221376
0.175431
0.195036
0.197124
0.218658
0.190613
0.268423
0.160262
0.161965
0.177597
0.137235
0.163108
0.191742
0.132746
0.207587
0.193957
0.062821
0.144783
0.175799
0.192350
0.103508
0.058549
0.104213
0.141211
0.108520
0.155782
0.011265
0.033011
0.081362
0.126621
-0.034037
0.101298
0.071978
0.082270
0.033622
0.102417
0.017512
0.251648
0.415921
0.667844
0.995488
1.415197
1.389860
1.295457
1.034657
0.689501
0.391499
0.113197
-0.084568
-0.176397
-0.075270
-0.123911
0.030113
0.006090
0.146760
0.102967
0.106839
0.153135
0.122097
0.163101
0.134296
0.181384
0.202514
0.173978
0.157333
0.192520
0.245565
0.361856
0.252130
0.251781
0.201427
0.324674
0.353635
0.323007
0.378353
0.418370
0.443451
0.496983
0.447536
0.487729
0.493493
0.594303
0.500633
0.671015
0.567061
0.558572
0.624046
0.595152
0.565802
0.554825
0.626888
0.608803
0.542182
0.558439
0.545304
0.497651
0.552934
0.536234
0.579296
0.521177
0.422839
0.390264
0.441447
0.427213
0.471382
0.326297
0.337773
0.359315
0.266234
0.301246
0.249806
0.206232
0.134651
0.252429
0.273065
0.185810
0.227224
0.171863
0.205088
0.152060
0.062131
0.107669
0.079619
0.128058
0.117455
0.100824
0.130419
0.123599
0.070161
0.101541
0.058912
0.079619
0.091197
0.027645
0.117881
0.064972
0.150963
0.178055
0.120584
0.094892
0.062921
0.049992
0.076096
0.166927
0.080077
0.046916
0.082402
-0.007664
0.143488
-0.001137
0.044992
0.059014
0.034232
0.042462
0.070630
0.048954
0.159454
0.056791
0.089381
0.064815
0.060210
0.158330
0.133427
0.110210
0.045403
0.152444
0.077781
0.069719
0.101880
0.139808
0.092546
0.103290
0.161495
0.202211
0.116790
0.157237
0.076307
0.221357
0.171896
0.240557
0.190053
0.202241
0.154244
0.244330
0.262188
0.269534
0.197345
0.227776
0.174496
0.246542
0.230669
0.341336
0.172633
0.227858
0.326717
0.277998
0.248810
0.178693
0.151969
0.192256
0.193983
0.151772
0.158311
0.161520
0.167032
0.137730
0.109994
0.120989
0.121115
0.081763
0.152658
0.146435
0.100688
0.047667
0.112597
0.103452
0.047833
0.105314
-0.014497
0.076686
0.155604
0.106027
0.195620
0.452833
0.715819
0.995982
1.290955
1.447982
1.319148
1.227996
0.957439
0.438101
0.172219
-0.092882
-0.076808
-0.153674
0.010299
0.006967
0.041930
0.102511
0.215486
0.088763
0.293018
0.131114
0.179200
0.141061
0.175928
0.259015
0.230955
0.227095
0.223778
0.245050
0.189924
0.320037
0.251846
0.384575
0.357312
0.346108
0.384164
0.396530
0.422359
0.394487
0.519497
0.575654
0.451062
0.488849
0.447772
0.641813
0.596264
0.580387
0.583457
0.608977
0.597909
0.586921
0.572572
0.574675
0.544362
0.558402
0.518015
0.485932
0.468617
0.551578
0.521231
0.422299
0.479564
0.440881
0.437243
0.423789
0.383326
0.360006
0.228806
0.357926
0.379105
0.246048
0.197976
0.240652
0.289789
0.131977
0.200172
0.238468
0.155371
0.172221
0.049687
0.091787
0.121129
0.140763
0.110097
0.170193
0.120886
0.055265
0.102764
0.034844
0.066358
0.048945
0.045318
0.009832
0.070368
0.112490
0.024647
0.061027
0.036646
-0.005013
0.023678
0.052356
-0.002979
0.080464
-0.030560
0.005035
0.079080
0.107201
0.016903
0.048294
0.156684
0.025115
0.039378
0.021104
0.020866
0.036893
0.085390
0.024602
0.054934
-0.026743
-0.028081
-0.002846
0.033429
0.024403
0.055923
-0.071131
0.091257
0.042764
0.010483
0.026095
0.072684
-0.035206
0.012500
0.070737
-0.020827
0.007517
-0.013689
0.086547
0.137523
0.109107
0.046751
0.065736
0.008983
0.141272
0.047823
0.103171
0.185718
0.152805
0.254933
0.137342
0.163714
0.246297
0.167548
0.190764
0.131964
0.198039
0.128434
0.230808
0.115681
0.223559
0.106599
0.125599
0.161247
0.124673
0.096030
0.117864
0.143921
0.046181
0.003903
0.025647
-0.009976
0.029531
0.077316
0.125738
-0.016038
0.093462
0.053569
0.034557
0.010531
-0.050007
-0.057590
-0.038305
-0.106022
-0.038190
-0.003964
0.122182
0.350533
0.531743
0.843531
1.171333
1.334913
1.445074
1.129369
0.869996
0.517234
0.113733
-0.153949
-0.190868
-0.241797
-0.046312
-0.106629
-0.030311
0.034249
-0.017668
0.004025
0.070398
0.086917
-0.003215
0.045089
0.058750
0.101020
0.137236
0.061960
0.150878
0.185005
0.165666
0.237443
0.248675
0.228992
0.171045
0.219315
0.304000
0.277927
0.317595
0.269311
0.434286
0.426247
0.400411
0.412961
0.405588
0.458469
0.468471
0.438610
0.456451
0.476336
0.458210
0.501140
0.509559
0.427984
0.455963
0.510916
0.528772
0.432993
0.464933
0.527236
0.466372
0.449754
0.380817
0.345103
0.314560
0.310958
0.326899
0.189447
0.312949
0.278545
0.185476
0.158863
0.209351
0.116566
0.196130
0.076495
0.081164
0.096014
0.112970
0.042310
0.011187
0.071168
0.053214
0.021812
0.030708
0.036352
0.106661
-0.023537
-0.033693
-0.032482
-0.069936
0.052992
-0.113095
-0.019484
0.001402
-0.008339
-0.037492
-0.023674
-0.016378
-0.075405
0.026317
-0.031882
-0.013079
-0.016992
-0.059573
-0.004652
-0.057544
-0.104923
-0.082978
-0.051065
-0.001678
-0.061896
-0.005718
-0.106699
-0.037041
-0.048712
-0.065880
-0.025570
-0.070709
0.001254
-0.059347
-0.039192
-0.076458
0.023041
-0.036516
-0.010334
-0.035302
0.017291
-0.019167
0.019990
-0.001020
-0.066531
-0.026779
-0.100726
-0.053997
0.072283
0.026908
0.038249
0.016857
-0.025345
0.114455
0.030992
0.119952
0.027079
0.015901
0.075068
0.076125
0.123558
0.083273
0.072757
0.207159
0.194439
0.126545
0.116598
0.119900
0.145985
0.112455
0.088975
0.123763
0.069977
0.110267
0.129629
0.115033
0.111671
0.020165
0.027226
0.148674
-0.006218
0.020117
0.041041
-0.048769
0.010108
0.028962
-0.043784
-0.035578
0.047603
-0.035945
-0.038676
0.029153
-0.033220
-0.070691
-0.048080
-0.010480
-0.015162
-0.040072
0.104275
0.309746
0.482120
0.755541
1.129911
1.247777
1.315237
1.160858
0.752860
0.453695
0.260391
-0.007421
-0.190585
-0.195515
-0.138842
-0.075660
-0.039261
-0.020951
0.012435
0.007157
0.078291
-0.004090
0.056443
0.048714
0.019138
0.080494
0.101309
0.125979
0.142269
0.152529
0.178471
0.110779
0.189150
0.146669
0.213181
0.151952
0.329994
0.339433
0.281745
0.273034
0.337070
0.446435
0.448866
0.428150
0.438860
0.468483
0.514321
0.438542
0.515395
0.433953
0.468773
0.455366
0.504556
0.509329
0.486492
0.491334
0.465694
0.505091
0.568496
0.453239
0.385054
0.459449
0.441304
0.378557
0.378164
0.327788
0.310179
0.347282
0.295392
0.251995
0.245705
0.303042
0.268223
0.098715
0.154973
0.039334
0.165953
0.021207
0.184481
0.071465
0.178257
0.057177
0.053458
0.062579
0.093903
0.115381
0.068502
0.008919
0.074110
-0.000521
0.041245
0.008013
0.000479
0.011228
0.000209
0.027154
0.034147
-0.045508
0.039860
-0.079590
0.024948
-0.014691
0.092941
0.069442
-0.054507
-0.026456
-0.061961
0.030221
-0.042924
0.005253
0.013639
0.064275
0.041113
0.030064
-0.049910
-0.026238
0.073445
0.019352
0.031940
-0.120635
0.064044
-0.012671
0.056297
0.016411
0.007285
-0.017964
-0.021610
0.021460
0.009961
0.059141
0.031069
-0.069406
0.116501
0.078017
0.065381
0.023674
0.097866
0.143006
0.042668
0.072241
0.193865
0.085799
0.123814
0.052196
0.165090
0.083409
0.159545
0.236391
0.171092
0.201324
0.152498
0.225090
0.216564
0.241620
0.245426
0.221580
0.242859
0.176076
0.177099
0.212365
0.273089
0.260830
0.137619
0.207787
0.147764
0.166317
0.155546
0.189705
0.110007
0.147987
0.118587
0.059803
0.149045
0.038576
-0.018548
0.092439
0.094688
0.027605
-0.016907
-0.004805
0.092287
0.045146
0.038676
0.006116
0.105952
0.165842
0.254647
0.502635
0.757404
1.152955
1.440059
1.414628
1.304026
1.056719
0.696109
0.357340
0.040902
-0.181273
-0.121527
-0.045561
-0.022635
0.066962
0.124116
0.112376
0.069799
0.183930
0.133832
0.151073
0.101481
0.150555
0.205010
0.214020
0.129040
0.223615
0.220125
0.228064
0.280572
0.202103
0.272100
0.367515
0.382756
0.383708
0.382039
0.455318
0.453379
0.519566
0.512764
0.547650
0.607185
0.514798
0.545392
0.616401
0.465788
0.583938
0.684643
0.589781
0.571087
0.574155
0.627177
0.547589
0.619623
0.540170
0.508016
0.544902
0.560507
0.618385
0.565287
0.470238
0.498408
0.441561
0.432779
0.416734
0.398478
0.348933
0.359984
0.318628
0.390571
0.282473
0.329754
0.262520
0.265144
0.234924
0.214022
0.275602
0.231082
0.162977
0.106886
0.193379
0.168853
0.020957
0.099723
0.120822
0.076337
0.169379
0.163157
0.115164
0.132627
0.080032
0.094559
0.049172
0.139108
0.056188
0.091035
0.129535
0.160717
0.045207
0.045540
0.141341
0.112576
0.088514
0.090315
0.104708
0.048334
0.035567
0.149023
0.019718
0.123611
0.042640
0.102775
0.068028
0.088246
0.044203
0.039076
0.058188
0.123394
0.080876
0.106179
0.028539
0.130034
0.106669
0.133587
0.136215
0.072534
0.132359
0.051419
0.039185
0.150503
0.114836
0.079321
0.135959
0.106119
0.115896
0.154234
0.133802
0.163266
0.251123
0.125652
0.223376
0.177959
0.154818
0.274556
0.217144
0.261924
0.217170
0.240927
0.302175
0.276867
0.275263
0.267081
0.328262
0.269004
0.266480
0.249926
0.247856
0.211744
0.219863
0.335097
0.209189
0.150312
0.203998
0.201379
0.264933
0.151193
0.151015
0.110589
0.155585
0.178827
0.070796
0.098614
0.037422
0.083247
0.097233
0.069430
-0.033355
0.116865
0.052876
0.042106
0.069425
0.170455
0.160832
0.108605
0.244325
0.495379
0.843392
0.992993
1.366446
1.500000
1.490490
1.152077
0.739410
0.408669
0.061001
-0.077738
-0.155380
-0.083194
0.005821
0.104621
0.106315
0.114060
0.097517
0.133643
0.174986
0.219534
0.123261
0.184853
0.200488
0.173635
0.166806
0.269283
0.272556
0.291024
0.293025
0.248767
0.331823
0.293088
0.307066
0.314688
0.305826
0.420618
0.352703
0.476550
0.571104
0.459667
0.461076
0.501012
0.559930
0.464989
0.528698
0.625646
0.711563
0.528693
0.543145
0.607301
0.621825
0.601673
0.546353
0.538334
0.537161
0.574363
0.529409
0.536775
0.547245
0.479862
0.424512
0.468591
0.427357
0.337636
0.338809
0.417578
0.323348
0.282504
0.292046
0.323715
0.288797
0.260567
0.185454
0.201308
0.173153
0.170733
0.302283
0.141119
0.200194
0.120106
0.153831
0.063190
0.045083
0.062218
0.007425
0.101502
0.080970
0.041882
0.103650
0.098825
0.054291
0.068849
0.114508
0.058242
0.059636
0.098717
0.026553
0.040280
-0.021471
0.190399
0.052593
0.106432
-0.006014
0.023349
0.090464
0.113167
-0.032936
0.051517
0.044044
0.056600
0.068718
0.038928
0.009634
-0.039138
0.001860
0.060988
0.045283
-0.003272
0.125774
0.111332
-0.015330
0.057628
-0.053026
0.062178
0.078767
0.060236
-0.031669
0.055578
0.037503
-0.052329
0.040724
0.043451
0.020311
0.045660
0.105526
-0.078701
0.064354
0.120147
0.089531
0.065620
0.154349
0.067133
0.111699
0.163086
0.191855
0.170077
0.185882
0.134066
0.135634
0.139248
0.260733
0.218709
0.204904
0.158273
0.176193
0.223225
0.103670
0.125342
0.176957
0.160345
0.182089
0.045460
0.012126
0.079478
0.047515
0.119245
0.072612
0.007496
0.120964
0.036429
0.124695
0.061794
0.004019
0.008376
-0.009846
-0.064219
-0.036621
-0.037942
-0.006674
-0.025085
0.027892
-0.042815
-0.070706
0.143565
0.329643
0.638744
0.943897
1.168054
1.339774
1.263575
1.058236
0.803638
0.344827
0.108095
-0.135998
-0.201230
-0.189888
-0.084441
-0.031860
0.017917
-0.004435
0.075654
0.080326
0.025432
-0.002612
-0.009464
0.153035
0.092867
0.030664
0.078845
0.070780
0.193542
0.090424
0.189284
0.201890
0.168879
0.241572
0.182083
0.275605
0.314797
0.278456
0.366152
0.363449
0.360176
0.325044
0.344425
0.389041
0.534050
0.388533
0.427065
0.466926
0.456695
0.466721
0.454604
0.507112
0.447418
0.506342
0.435063
0.436744
0.441243
0.533813
0.473728
0.381607
0.368053
0.400126
0.376145
0.318550
0.250196
0.276164
0.317402
0.173044
0.173930
0.159473
0.330353
0.188417
0.124656
0.090684
0.176365
0.047231
0.103359
0.109038
0.128024
0.050847
-0.027068
-0.084707
0.042247
-0.006794
0.002312
-0.048009
-0.032530
-0.118156
-0.075378
-0.103173
-0.033590
-0.062788
0.036680
-0.043643
-0.076448
-0.142354
-0.116813
-0.079401
-0.042589
-0.055040
-0.132704
-0.109630
-0.050682
-0.084001
0.004576
-0.072394
0.002111
-0.068015
-0.113693
-0.035125
-0.036294
-0.053214
-0.133535
-0.148146
-0.030580
-0.093198
-0.093029
0.058079
-0.108171
-0.081712
-0.008205
-0.049111
-0.055995
0.037780
-0.000379
-0.045492
0.008255
-0.086278
-0.063318
-0.063058
-0.068365
-0.006532
-0.106587
-0.039854
-0.021778
-0.009221
-0.001321
0.008573
-0.028378
0.011947
0.047575
0.041887
0.037014
0.044645
0.028636
0.025647
0.106142
0.097306
0.027360
0.128098
0.073227
0.070293
0.042736
0.130647
0.118402
0.082843
0.079783
0.092148
0.116209
0.076000
0.031489
0.038557
0.081372
0.016980
-0.024041
0.069142
0.029872
-0.068499
-0.004577
0.013595
-0.031606
0.005790
-0.075885
-0.008470
-0.050860
-0.083109
-0.059512
-0.056342
-0.081731
-0.065438
-0.008163
-0.082883
-0.022440
-0.134549
-0.066858
0.045181
0.244925
0.434922
0.736023
1.067404
1.291557
1.236749
0.981812
0.728128
0.349836
0.026562
-0.161861
-0.284819
-0.289811
-0.249583
-0.203374
-0.033109
-0.116949
-0.049276
-0.030561
-0.070306
0.034844
0.066221
0.053403
0.045077
-0.021633
0.075957
0.012149
0.152145
0.034214
0.099530
0.133339
0.090708
0.141681
0.169365
0.280425
0.184087
0.328819
0.219408
0.377659
0.302403
0.305713
0.303912
0.292991
0.353127
0.402679
0.444236
0.493643
0.386059
0.415072
0.459554
0.493454
0.441807
0.455332
0.451065
0.471985
0.479670
0.404937
0.510148
0.459669
0.358179
0.364049
0.363867
0.399607
0.380453
0.350761
0.238949
0.258382
0.276113
0.185173
0.153022
0.108745
0.091276
0.172391
0.079403
0.103927
-0.002174
0.194126
0.075662
0.028376
0.026647
-0.083664
-0.007489
-0.036150
0.027710
-0.007672
0.072383
0.042330
-0.020096
-0.013056
-0.046366
-0.012010
-0.018918
0.004053
-0.123070
-0.056735
-0.062801
-0.141801
-0.030160
-0.025525
-0.068476
-0.067133
-0.032877
-0.084047
-0.117637
-0.026219
-0.066513
-0.041630
-0.067584
0.001819
-0.050416
-0.056056
-0.046274
-0.021905
-0.097360
-0.037268
-0.018515
-0.030308
-0.034133
-0.032508
-0.025860
-0.044031
-0.060389
0.000803
-0.007816
0.002138
-0.059561
-0.017862
0.006410
0.029574
0.023279
-0.052397
0.052221
-0.013969
-0.032492
0.019491
0.040174
0.001919
0.061745
0.027772
-0.025645
0.041550
0.078846
0.170216
0.039477
0.086677
0.127137
0.149234
0.149339
0.135361
0.161048
0.160941
0.203939
0.139982
0.126906
0.093685
0.200348
0.195439
0.106179
0.207600
0.114199
0.060763
0.183689
0.112956
0.043295
0.098355
0.034114
0.044570
0.053779
0.166049
0.109217
-0.006048
0.028659
0.044564
-0.030080
-0.023481
0.110594
0.063677
0.014538
-0.017795
0.052981
-0.016551
0.052596
-0.041744
0.041341
0.067155
0.203770
0.588027
0.792068
1.169245
1.325230
1.299945
1.235289
0.846908
0.537634
0.190158
-0.057495
-0.228042
-0.168829
-0.100375
-0.079371
-0.080934
0.048302
0.072152
0.021182
0.128841
0.096056
0.124277
0.078363
0.061253
0.091118
0.133745
0.138259
0.192197
0.267817
0.236456
0.253435
0.238853
0.252259
0.313056
0.304833
0.311238
0.353277
0.386052
0.374303
0.368321
0.475108
0.516178
0.390234
0.493370
0.511363
0.511302
0.493492
0.516419
0.617495
0.500526
0.530897
0.553211
0.495540
0.553785
0.490572
0.467656
0.609303
0.538578
0.411765
0.460047
0.406953
0.459672
0.384829
0.414093
0.379409
0.418848
0.441162
0.305841
0.229284
0.302267
0.146651
0.275934
0.264652
0.199461
0.179485
0.145731
0.236748
0.161891
0.115793
0.162944
0.178463
0.171079
0.120175
0.056738
0.117237
0.109601
0.009185
0.040865
0.091754
0.052611
0.030197
0.095445
0.029284
0.120712
0.044040
0.018624
0.118995
0.038141
0.090179
0.078889
0.045740
-0.070318
0.035323
0.022419
0.050110
0.070284
-0.040923
-0.008156
0.032079
0.104997
0.012388
-0.016775
0.090764
0.031656
0.037461
-0.032312
0.092729
0.079990
0.014811
0.038612
0.042686
0.013764
-0.016207
0.088278
0.028975
0.068950
0.056867
-0.052545
0.152105
0.072286
0.079833
0.021466
0.018805
0.045895
0.140642
0.097914
0.050056
0.063226
0.106237
0.106249
0.128813
0.081786
0.187034
0.128315
0.179086
0.238259
0.214207
0.150987
0.252035
0.257176
0.246495
0.277720
0.204636
0.215949
0.256536
0.282599
0.219440
0.218410
0.221029
0.174767
0.135797
0.199069
0.200649
0.130307
0.167741
0.193354
0.095282
0.137490
0.105628
0.100096
0.118157
0.085333
0.088862
0.184068
0.065127
0.052556
0.103042
-0.000202
0.093891
0.057235
0.066606
0.046945
0.101646
0.023662
0.105537
0.236386
0.563719
0.833830
1.147370
1.331819
1.443292
1.292140
0.987500
0.705111
0.279370
-0.005334
-0.161183
-0.212052
-0.060295
-0.056848
-0.021536
0.097870
0.105533
0.058466
0.094763
0.042710
0.127819
0.137866
0.103278
0.098436
0.244212
0.155400
0.190434
0.256029
0.152495
0.246197
0.242387
0.224885
0.248699
0.380500
0.343390
0.325284
0.409126
0.379353
0.328437
0.390065
0.427174
0.465360
0.499172
0.513900
0.488121
0.607680
0.492786
0.497263
0.534560
0.565030
0.654159
0.507629
0.625375
0.586492
0.542168
0.526380
0.542461
0.590060
0.464059
0.474295
0.414491
0.531366
0.416898
0.400536
0.364930
0.396977
0.247715
0.321553
0.271658
0.261864
0.191098
0.243854
0.080171
0.137484
0.108909
0.188737
0.123370
0.167867
0.121392
0.081409
0.173042
0.027141
0.117443
0.014525
0.066323
0.023525
0.075089
-0.011483
0.069021
-0.010363
-0.048315
0.006048
-0.047027
-0.059466
-0.000710
0.027354
0.020244
0.065483
-0.022786
0.086323
-0.001396
0.010089
0.055410
-0.004705
0.017251
-0.053729
-0.029822
0.010018
-0.005207
-0.047343
0.001861
-0.031281
-0.057586
0.078424
0.010244
0.009141
-0.035038
-0.007965
-0.061257
0.034510
-0.062984
-0.032756
0.004949
-0.007267
0.036777
-0.038669
0.039771
-0.070070
0.056213
-0.040183
-0.048634
-0.019076
0.012423
0.016442
-0.081060
0.016845
-0.061554
0.049845
0.059974
-0.006191
-0.008914
0.082291
0.079503
0.135664
0.158038
0.092764
0.113681
0.148149
0.140370
0.133760
0.212896
0.273663
0.112354
0.201011
0.114625
0.084266
0.062321
0.092208
0.220427
0.113158
-0.014331
0.181321
0.075370
0.078118
0.013792
0.164522
0.032949
0.062308
0.001431
0.032082
-0.013770
-0.009094
0.013739
-0.000774
-0.014934
-0.088796
-0.070453
0.010787
0.007864
-0.035540
0.052390
0.004676
-0.031752
0.062790
0.176761
0.384631
0.667407
1.013295
1.273748
1.299072
1.285743
0.916543
0.551758
0.275791
-0.136543
-0.258455
-0.232532
-0.183891
-0.153246
-0.144062
-0.087989
0.071445
0.037583
0.090148
-0.017319
0.045076
0.057426
-0.026227
0.102161
0.059239
0.070820
0.044047
0.128188
0.045907
0.162913
0.166866
0.205826
0.112092
0.129169
0.235990
0.258189
0.230391
0.356280
0.299935
0.319057
0.369166
0.376874
0.370818
0.439429
0.361114
0.428116
0.448345
0.420979
0.455062
0.475352
0.454592
0.455180
0.458303
0.475811
0.363464
0.416216
0.468719
0.391169
0.366574
0.467983
0.303966
0.337237
0.221708
0.228985
0.262086
0.195928
0.237623
0.239978
0.140446
0.201841
0.072820
0.071261
0.062261
0.028421
-0.006613
0.107405
0.036152
0.034934
-0.007413
-0.020777
0.014887
-0.020221
-0.054380
-0.066048
-0.033898
-0.037175
-0.081983
-0.078253
-0.115998
-0.063248
-0.033329
-0.167211
-0.032276
-0.129093
-0.030998
-0.106065
-0.138163
-0.141045
-0.050928
-0.050381
-0.030373
-0.068647
-0.104459
-0.135279
-0.048342
-0.098879
-0.058555
0.014733
-0.127713
-0.073881
-0.093206
-0.068038
-0.189036
-0.067188
-0.046656
-0.139096
-0.007614
-0.177288
-0.056592
-0.060055
-0.092458
-0.136696
-0.124924
-0.067903
-0.070771
-0.058250
-0.096628
-0.070102
-0.077313
-0.073839
-0.051639
-0.071035
-0.045371
-0.044414
-0.088474
-0.072234
0.054736
-0.058634
-0.046637
-0.047425
-0.019289
0.062490
0.016398
0.045941
0.053902
0.014587
0.067920
0.018249
0.029856
0.057684
0.056263
0.034365
0.076201
0.085925
0.118908
0.143371
0.101042
0.057426
-0.061494
0.139578
0.120578
0.087616
-0.006738
0.072398
-0.062247
-0.078480
-0.035962
-0.009412
-0.060545
-0.039283
-0.127355
-0.093906
-0.107863
-0.068951
-0.112838
-0.036479
-0.021177
-0.114267
-0.063056
-0.071140
-0.073863
-0.082324
-0.039797
-0.010697
0.006231
0.337762
0.641863
0.903154
1.163645
1.257638
1.209520
0.925835
0.608724
0.295462
0.011483
-0.228834
-0.331487
-0.254779
-0.248249
-0.155738
-0.135999
-0.081147
-0.002536
-0.025323
-0.058193
-0.060003
-0.023667
-0.031800
0.026246
0.043739
-0.018201
0.048411
0.087071
0.088259
0.092651
0.096468
0.197206
0.153138
0.180244
0.204235
0.218257
0.169513
0.272708
0.371070
0.269685
0.325066
0.419813
0.279507
0.371462
0.415003
0.399575
0.479393
0.377072
0.397982
0.431847
0.500961
0.506329
0.525007
0.445063
0.436970
0.523655
0.365096
0.426462
0.339206
0.286310
0.347296
0.266532
0.287876
0.411208
0.324870
0.319398
0.216414
0.183831
0.250306
0.180125
0.076531
0.123772
0.118927
0.023197
0.052062
0.112990
0.037423
-0.008102
0.049365
0.060513
0.050308
0.058870
-0.009067
-0.077242
-0.064422
-0.038150
-0.034058
-0.104342
0.011462
-0.052306
-0.079879
-0.101835
-0.116888
0.014037
-0.049085
-0.007654
-0.126301
-0.055059
-0.089369
-0.135864
0.023755
-0.089571
-0.044170
-0.015582
-0.095574
0.017544
-0.081655
-0.088987
-0.022659
-0.084658
-0.050034
-0.089715
-0.128656
-0.082027
-0.018381
-0.028224
-0.090784
-0.094947
-0.050830
-0.019996
-0.143077
-0.038252
-0.105701
-0.048654
-0.077396
-0.045880
-0.062649
-0.017026
0.025661
0.027614
0.002158
-0.030658
0.003357
0.016644
0.006986
-0.065824
0.093248
-0.016617
0.023262
-0.032214
0.070117
0.095628
0.075860
0.092127
0.163206
0.064492
0.220003
0.077132
0.042386
0.081012
0.169247
0.155123
0.110286
0.198177
0.232048
0.174593
0.182594
0.144594
0.076180
0.128500
0.067109
0.210797
0.080766
0.110142
-0.028526
0.055810
0.037592
-0.027001
0.080456
0.046926
0.067198
-0.028267
0.009402
0.002700
0.028752
0.064577
-0.039455
-0.000744
0.033519
0.000345
-0.043014
-0.007782
-0.048750
0.047837
0.089655
0.368272
0.616877
0.970952
1.200103
1.320305
1.313739
1.138090
0.778092
0.479623
0.056195
-0.059624
-0.194973
-0.143766
-0.112416
-0.035071
-0.074980
0.052022
0.018053
0.012077
0.026346
0.028882
0.048142
0.135694
0.178352
0.175397
0.161985
0.176596
0.219873
0.216130
0.169203
0.204921
0.239466
0.309050
0.280086
0.336275
0.333540
0.356837
0.336157
0.366139
0.395187
0.453718
0.462733
0.511423
0.428431
0.551600
0.520792
0.500321
0.599827
0.571076
0.480103
0.565773
0.592105
0.506888
0.540720
0.537019
0.549690
0.573014
0.510204
0.528534
0.436495
0.474004
0.457982
0.520409
0.330263
0.390726
0.370095
0.324790
0.297756
0.298214
0.302440
0.271546
0.239012
0.210116
0.195684
0.244791
0.172652
0.173650
0.142064
0.203302
0.151563
0.080954
0.150138
0.084798
0.020454
0.122589
0.132918
0.181826
0.112875
0.025808
0.067369
0.004671
0.023118
0.092858
0.043817
0.079349
0.085957
0.083867
0.010745
0.055308
0.052042
0.010147
0.075713
0.055796
0.059638
0.096775
0.081381
0.078393
-0.004323
0.027227
0.040103
0.013809
0.066279
0.020353
0.136072
0.097478
0.138428
0.062100
0.056131
0.111743
0.106962
0.090521
0.088103
0.128731
0.051653
0.026577
0.147778
0.106692
0.082530
0.123196
0.110142
0.072057
0.074043
0.094971
0.070805
0.186221
0.140011
0.137058
0.076560
0.129901
0.141758
0.187274
0.156372
0.198700
0.187450
0.276736
0.176793
0.258048
0.196833
0.275977
0.278071
0.261048
0.181116
0.209180
0.257940
0.249729
0.280146
0.245610
0.254768
0.225705
0.215864
0.242144
0.213142
0.176032
0.170684
0.199804
0.201604
0.108253
0.218154
0.177304
0.119623
0.109273
0.111843
0.143617
0.071101
0.134274
0.088883
0.087245
0.080506
0.103019
0.084702
0.049988
0.020695
0.077035
0.051461
0.204291
0.356721
0.492723
0.948803
1.224314
1.475282
1.361258
1.281532
0.847040
0.560386
0.331082
-0.096517
-0.225357
-0.127963
-0.053567
-0.007294
0.045327
0.016418
0.091758
0.138266
0.074836
0.099685
0.100151
0.113531
