-0.077236
0.014376
-0.021969
0.013172
0.006400
0.068405
-0.007749
0.017469
-0.001258
-0.027885
0.077855
0.029492
0.033077
0.025072
0.039730
0.038799
-0.044513
0.102098
0.055068
0.106436
-0.018125
0.070253
-0.024246
0.073163
0.068451
0.094249
0.160504
0.074286
0.158114
0.115783
0.070298
0.152872
0.212118
0.220515
0.182497
0.280341
0.198874
0.222490
0.171732
0.232759
0.167993
0.173863
0.227455
0.231797
0.235238
0.179680
0.192657
0.209269
0.092974
0.184036
0.178988
0.118875
0.084359
0.055883
0.106179
0.147461
0.070028
0.089971
0.098345
0.039327
0.009523
0.018363
-0.004593
-0.011259
0.115937
0.140797
-0.017737
0.043712
0.105434
0.095647
0.023867
0.087235
0.032841
0.072495
0.025085
0.174409
0.349563
0.710431
1.012650
1.440890
1.451852
1.347242
1.095000
0.723748
0.361687
0.210388
-0.148507
-0.161548
-0.161611
-0.008350
-0.025508
0.018061
0.059214
0.107546
0.089650
0.041670
0.045960
0.059916
0.106245
0.128829
0.203641
0.188771
0.155615
0.246140
0.188002
0.189713
0.229415
0.210938
0.253481
0.269955
0.304299
0.256263
0.327516
0.344739
0.329384
0.408141
0.428989
0.398188
0.413039
0.444261
0.486124
0.571143
0.560905
0.552285
0.579675
0.658990
0.558409
0.577569
0.585548
0.611706
0.638168
0.625440
0.510406
0.590992
0.644682
0.563151
0.472574
0.529172
0.537106
0.484294
0.514553
0.568026
0.430716
0.484755
0.445446
0.360951
0.355109
0.382940
0.307423
0.328189
0.300389
0.302700
0.283212
0.236006
0.210081
0.223583
0.166125
0.196311
0.189932
0.104042
0.137564
0.149165
0.172161
0.054420
0.089921
0.196562
0.142581
0.072348
0.220784
0.129454
0.077687
0.154005
0.171380
0.072495
0.081992
0.068360
0.093539
0.055400
0.056454
0.034229
0.035056
0.096278
0.065842
0.094439
0.029564
0.014971
0.146618
0.047012
0.044671
0.125462
0.116259
0.083547
0.100472
0.095680
0.028644
0.122863
0.121439
0.041703
0.072096
0.088873
0.021439
0.094614
0.105117
-0.006960
0.163701
0.111303
0.031899
0.035801
0.169670
0.134295
0.031159
0.114865
0.026617
0.162349
0.107257
0.087183
0.043470
0.052101
0.134686
0.131495
0.119202
0.050244
0.188858
0.106642
0.197554
0.128224
0.136826
0.131077
0.151549
0.225078
0.266884
0.186850
0.180430
0.175246
0.273348
0.293810
0.234196
0.273878
0.238343
0.273842
0.288325
0.314877
0.244137
0.269002
0.313584
0.275786
0.182723
0.215593
0.183898
0.186821
0.138741
0.204451
0.121139
0.174358
0.105893
0.114177
0.147611
0.178421
0.170310
0.154401
0.058643
-0.003078
0.087562
0.095512
0.045190
0.121246
0.069394
0.106161
0.058895
0.035464
0.054715
0.128834
0.103257
0.006816
0.158432
0.235724
0.445383
0.774483
0.996992
1.390178
1.488322
1.398436
1.109900
0.805426
0.480347
0.122285
-0.093094
-0.179675
-0.131229
-0.075342
-0.046043
-0.010172
0.060710
0.080115
0.047899
0.038519
0.190676
0.081445
0.148217
0.122421
0.161830
0.134814
0.156417
0.092413
0.167579
0.227624
0.160332
0.216710
0.225039
0.292540
0.218303
0.337752
0.301005
0.370435
0.330959
0.407943
0.369770
0.378938
0.374891
0.447021
0.493499
0.455706
0.469891
0.464623
0.557440
0.511668
0.523421
0.505897
0.583059
0.615651
0.570119
0.571450
0.552577
0.591362
0.622797
0.573795
0.489069
0.479455
0.433214
0.412406
0.470266
0.380984
0.413829
0.445265
0.371547
0.351855
0.434905
0.357099
0.170622
0.272253
0.262101
0.278008
0.219276
0.205521
0.141667
0.060561
0.145879
0.139351
0.134942
0.117789
0.096510
0.053241
0.079953
0.094620
0.123672
0.079898
0.050274
0.014682
0.116748
-0.019934
0.029673
0.011770
0.055638
0.089593
0.109636
-0.004511
-0.030410
0.008059
0.075571
0.059860
0.041171
0.045853
0.008634
-0.059977
-0.011994
-0.014995
0.013768
0.048433
0.009135
0.076425
-0.017936
-0.005879
0.054523
-0.000484
0.040003
0.118977
-0.046839
-0.004083
0.029794
0.049016
0.041012
0.028565
-0.016278
0.035259
0.053971
0.066235
0.084967
0.018601
0.014744
0.040839
-0.003514
-0.016413
0.052050
0.020769
-0.026884
-0.037453
0.052266
-0.005937
-0.019716
-0.007145
0.034500
-0.014228
0.009205
0.036645
0.023554
0.072576
0.039350
0.092483
0.090393
0.023612
0.094605
0.066217
0.215477
0.061761
0.086541
0.135787
0.085689
0.186030
0.190370
0.199623
0.155497
0.098564
0.201252
0.242615
0.130957
0.264982
0.135750
0.148074
0.107694
0.156276
0.134995
0.046091
-0.005302
0.015610
0.073685
0.004296
0.065111
0.055458
0.013587
0.020705
0.041848
0.062621
-0.045826
-0.045885
-0.026009
0.047757
-0.004392
-0.009847
-0.044190
0.015266
0.048202
-0.030942
-0.039026
-0.047104
0.005484
0.085834
0.364729
0.642580
0.998124
1.227890
1.385705
1.305061
1.084920
0.716157
0.277336
-0.047476
-0.186779
-0.278631
-0.267591
-0.214961
-0.070105
-0.008465
-0.042827
0.057892
-0.096657
0.006125
0.007299
0.085806
0.005820
-0.009870
0.058135
0.051528
0.031636
0.057607
0.080753
0.039606
0.114949
0.138912
0.142971
0.135831
0.137527
0.119901
0.249441
0.168133
0.300132
0.281658
0.296190
0.325337
0.351226
0.342863
0.362013
0.462159
0.329573
0.341540
0.499730
0.451507
0.461266
0.422019
0.408231
0.442904
0.539633
0.474050
0.493564
0.473612
0.436479
0.516602
0.412257
0.376991
0.355157
0.391650
0.288338
0.300109
0.360653
0.359007
0.354468
0.286858
0.289843
0.169377
0.215709
0.174053
0.176785
0.133211
0.177096
0.079059
0.045706
0.064687
0.048487
0.127956
-0.021823
0.012973
-0.008748
0.048329
0.047395
0.024791
0.054059
0.029533
-0.050183
-0.027241
-0.019591
0.012826
-0.103259
-0.055370
-0.073523
-0.072862
0.035689
-0.070699
-0.055244
0.009008
-0.070839
-0.052321
-0.104617
-0.030132
-0.014042
-0.028220
0.015343
-0.076730
-0.071227
-0.032444
-0.073589
0.020684
0.010566
-0.053410
0.024192
-0.030973
-0.023883
-0.039406
-0.030986
-0.007350
-0.071606
-0.006134
-0.027300
-0.071023
-0.138539
-0.105657
-0.098844
-0.004592
-0.104884
-0.061047
-0.000437
-0.007620
0.011471
-0.140733
-0.039077
-0.033388
-0.030168
-0.011333
-0.042096
-0.007704
-0.073640
-0.022317
-0.142854
0.057985
0.033081
0.114486
0.034161
0.018207
0.012177
0.082394
0.068448
0.111802
0.075678
0.007487
0.102410
0.164507
0.059268
0.117423
0.143334
0.170084
0.202423
0.108696
0.090079
0.203083
0.089731
0.210156
0.096924
0.114644
0.136642
0.070236
0.047408
0.081241
0.119841
-0.002977
-0.093260
0.017042
0.010141
0.043721
-0.019280
-0.000899
0.067338
0.016452
0.067911
-0.011875
-0.082198
-0.018421
-0.095395
0.004720
0.038229
-0.016809
0.001406
0.006121
-0.006156
-0.013062
-0.061023
-0.023166
-0.034825
0.183708
0.442426
0.668229
0.987914
1.221032
1.408173
1.236564
1.080463
0.691400
0.386725
0.027896
-0.292200
-0.282495
-0.165145
-0.202007
-0.036965
-0.020452
-0.038698
0.076832
0.101899
0.072237
0.001331
0.090280
-0.017682
0.100968
0.041034
0.091724
0.085162
0.172873
0.089377
0.081166
0.171165
0.173243
0.179163
0.187036
0.227676
0.253728
0.311548
0.306837
0.354565
0.371548
0.320785
0.347829
0.359369
0.373791
0.428482
0.380063
0.420421
0.389289
0.535605
0.490588
0.457210
0.553790
0.560410
0.585467
0.586833
0.547829
0.512774
0.478858
0.454231
0.508858
0.525849
0.507078
0.492954
0.483345
0.549013
0.416227
0.400905
0.374508
0.336902
0.366130
0.343288
0.356340
0.279069
0.339923
0.275679
0.141608
0.147097
0.156167
0.191877
0.160931
0.122881
0.168763
0.117281
0.208220
0.138260
0.132111
0.140496
0.028931
0.054756
0.073053
0.014898
0.133069
0.010846
-0.006280
0.036704
0.036394
0.056768
0.045699
-0.003791
0.051783
0.051949
0.023000
0.047480
0.021750
0.044816
0.017333
0.110628
0.050031
0.086728
0.078223
0.108224
0.061914
0.056389
0.161586
-0.012899
0.088751
-0.023136
0.098000
0.039519
0.064107
-0.001622
-0.041087
0.003340
-0.023609
0.066674
0.050380
0.006474
0.099068
0.061531
0.114106
0.054630
0.071355
0.121373
0.097897
0.042246
0.031968
0.072421
0.048081
0.156386
0.038035
0.049299
0.142879
0.068784
0.100553
0.035492
0.038860
0.022343
0.065821
0.112003
0.141332
0.080434
0.124524
0.080306
0.125533
0.072149
0.151785
0.202198
0.236185
0.241821
0.191054
0.208975
0.288683
0.194187
0.218978
0.303078
0.243554
0.216824
0.208735
0.227641
0.182084
0.211959
0.184106
0.131669
0.262053
0.106445
0.180045
0.161201
0.083868
0.140723
0.163661
0.088791
0.037448
-0.021603
0.121306
0.136553
0.128893
0.137130
-0.013091
0.121974
0.064398
0.103999
0.073640
0.108366
0.052161
0.102336
0.043269
0.088601
-0.025414
0.052113
0.215905
0.428947
0.770238
1.172532
1.360858
1.368323
1.356457
1.204756
0.808903
0.428711
0.166273
0.019302
-0.118141
-0.205098
-0.144872
0.018948
0.026447
0.071075
0.089748
0.176240
0.141977
0.072759
0.087480
0.137930
0.176285
0.204067
0.185011
0.184614
0.104517
0.204183
0.289570
0.277921
0.187623
0.218716
0.357939
0.296730
0.331462
0.360493
0.474524
0.339647
0.386875
0.404501
0.489719
0.448720
0.538086
0.558963
0.469630
0.519515
0.496159
0.665141
0.635468
0.512488
0.606650
0.581342
0.585500
0.609552
0.661935
0.615274
0.670277
0.595695
0.611715
0.570540
0.513476
0.555007
0.464293
0.435702
0.483893
0.396703
0.377573
0.397437
0.384222
0.362404
0.320649
0.389908
0.349729
0.266360
0.274402
0.167108
0.208933
0.242351
0.247664
0.159372
0.206751
0.207277
0.237757
0.192663
0.210728
0.287200
0.127806
0.061970
0.096826
0.150049
0.049278
0.088078
0.053488
-0.013560
0.081393
0.052608
0.103261
0.100659
0.075195
0.150449
0.182777
0.180313
0.113651
0.178800
0.018005
0.073216
0.118878
0.077021
-0.007194
0.010134
0.137684
0.065294
0.029671
0.123653
-0.004342
0.084316
0.111077
0.042965
0.093801
0.063520
0.072894
0.135875
0.033322
0.099455
0.115186
0.133842
0.095051
0.094442
0.015347
0.080068
0.145807
0.086490
0.087405
0.102111
0.054430
0.095673
0.027035
0.123127
0.131749
0.173581
0.157897
0.058011
0.060323
0.147604
0.113135
0.174360
0.061713
0.131963
0.085338
0.105699
0.179399
0.171954
0.156256
0.298980
0.237498
0.185783
0.196324
0.203376
0.226384
0.313664
0.262636
0.263779
0.138744
0.214221
0.143245
0.216453
0.161747
0.277095
0.160078
0.268663
0.211910
0.191132
0.232310
0.151541
0.121882
0.129515
0.195516
0.174640
0.176545
0.148705
0.047116
0.136588
0.055802
0.109484
0.082477
0.005166
0.089106
0.014537
0.047181
0.051563
0.119705
0.108485
0.034583
-0.006381
-0.013753
0.014888
0.039684
0.094064
0.213763
0.499072
0.763215
1.054325
1.360459
1.384552
1.273407
1.180631
0.759076
0.383447
0.111393
-0.219094
-0.181712
-0.163402
-0.114348
0.022918
0.034193
0.042396
0.047253
0.054771
0.139887
0.050337
0.079897
0.086141
0.053480
0.122830
0.057386
0.127238
0.189826
0.103808
0.215226
0.237388
0.184131
0.201974
0.162132
0.226742
0.205588
0.194224
0.295143
0.300003
0.331545
0.367369
0.364178
0.446239
0.410442
0.423415
0.427468
0.379978
0.488245
0.411140
0.509503
0.552001
0.562288
0.448813
0.561696
0.521802
0.532750
0.461886
0.549182
0.449410
0.483204
0.478576
0.479995
0.480067
0.503309
0.457886
0.374810
0.349910
0.380905
0.343328
0.304118
0.288415
0.278729
0.301771
0.243153
0.161697
0.227644
0.138186
0.136780
0.205383
0.029269
0.160828
0.131251
0.150589
0.010757
0.077841
-0.010385
0.065628
0.037032
0.126878
0.013788
-0.059286
-0.061009
0.042520
0.062856
0.041603
0.000202
-0.061934
-0.073680
0.020907
-0.001094
-0.047115
-0.043049
-0.011835
-0.036312
-0.046018
0.030234
-0.025317
0.004261
0.003789
0.011890
-0.043939
-0.083910
-0.044956
-0.059871
0.027725
-0.052218
0.015419
0.020885
-0.064284
-0.048793
-0.094350
-0.022537
-0.031642
-0.044857
-0.064943
-0.051248
0.000371
-0.088490
0.018402
-0.097605
-0.015312
0.016447
-0.038680
-0.076305
0.010904
-0.053954
0.010324
-0.044877
-0.015016
0.020843
-0.121048
0.010173
-0.049721
-0.024254
0.008335
-0.033171
-0.039822
0.000713
0.024043
0.137990
0.044537
0.046130
-0.031411
0.076499
0.057154
0.132384
0.097477
0.090869
0.011846
0.130969
0.095929
0.056023
0.111900
0.035038
0.165302
0.121156
0.085050
0.176359
0.134686
0.083858
-0.054217
0.078937
0.023069
-0.019367
0.041141
0.026630
0.111112
0.022652
-0.061106
0.016508
-0.049373
-0.016938
-0.132365
-0.008720
-0.033412
-0.012189
-0.052190
-0.085361
-0.054850
-0.108002
-0.137645
-0.077038
-0.124590
-0.072472
-0.113618
-0.115110
-0.151185
-0.150517
0.021861
0.155465
0.316100
0.552769
0.959656
1.194473
1.381448
1.266236
0.977246
0.670423
0.318772
-0.014431
-0.261070
-0.325881
-0.379962
-0.253417
-0.117027
-0.204299
-0.191043
-0.024680
-0.139805
-0.093152
-0.028632
0.012377
-0.101569
0.036003
0.010802
-0.001185
0.023286
0.115797
0.027910
0.054420
0.030483
0.036607
0.182322
0.091529
0.183060
0.129867
0.158465
0.249584
0.224457
0.258652
0.228208
0.327335
0.268182
0.342127
0.247995
0.329737
0.373516
0.360270
0.293448
0.416557
0.447153
0.430348
0.435964
0.385100
0.385935
0.437569
0.525597
0.410182
0.383734
0.476629
0.354597
0.400203
0.345791
0.328362
0.331268
0.230761
0.265707
0.296493
0.314840
0.179958
0.187790
0.221332
0.213615
0.176462
0.122804
0.121193
0.095022
0.056510
0.062845
-0.013778
0.036061
0.003711
0.076258
-0.021505
-0.018033
0.016984
-0.040171
-0.039855
-0.081006
-0.055114
0.041142
0.013124
-0.046503
-0.070944
-0.016194
-0.088924
-0.081209
-0.018292
-0.067302
-0.134462
-0.050474
-0.039357
-0.182873
-0.116867
-0.192165
-0.138138
-0.086698
-0.061924
-0.046516
-0.084039
-0.128446
0.013112
-0.099386
-0.073221
-0.115676
-0.104636
-0.170964
-0.101486
-0.006604
-0.090055
-0.079881
-0.010928
-0.033729
-0.061735
-0.043890
-0.069849
-0.102393
-0.040426
-0.075995
-0.051785
-0.100657
-0.098466
-0.044715
-0.064114
-0.091603
-0.010743
-0.055938
-0.099788
-0.034774
-0.042139
-0.040170
-0.051107
-0.060857
0.075262
0.035620
-0.105796
0.002923
0.018634
-0.031580
0.001818
0.059161
0.102268
0.033532
0.018846
0.039949
0.073410
0.117919
0.094408
0.031116
0.136387
0.122232
0.193487
0.104698
0.131487
0.100827
0.139456
0.201448
0.141596
0.091755
0.072699
0.082121
0.085961
0.035485
0.105959
-0.018082
0.081935
-0.009556
0.044658
0.000084
0.003454
-0.004103
0.046258
0.030158
-0.050675
-0.065569
0.029607
-0.032205
-0.066058
-0.021056
-0.059336
-0.017309
-0.068884
-0.045357
-0.047955
-0.131291
-0.065971
-0.034922
-0.072707
-0.003299
0.201562
0.329207
0.650314
0.873789
1.167923
1.296619
1.414734
1.084459
0.695865
0.257560
0.000980
-0.235002
-0.328059
-0.185622
-0.175120
-0.116564
-0.007342
-0.045676
0.006004
-0.003004
-0.090326
0.035934
-0.008126
0.035652
0.015803
0.042449
0.064980
0.005511
-0.027983
0.069982
0.081456
0.091838
0.148337
0.159016
0.221131
0.207918
0.187365
0.217403
0.239249
0.274087
0.291962
0.254958
0.288968
0.435304
0.404070
0.364350
0.382840
0.443001
0.437030
0.462283
0.433898
0.479133
0.507243
0.449510
0.493493
0.527145
0.469602
0.569746
0.501780
0.510644
0.582501
0.446143
0.457172
0.367824
0.447498
0.462870
0.444393
0.385319
0.310828
0.379927
0.230236
0.175242
0.285458
0.196615
0.171250
0.240184
0.165085
0.154681
0.153654
0.184298
0.103042
0.090255
0.083099
0.125681
0.119723
0.026112
0.080466
-0.020716
0.001157
0.066511
0.058286
0.007501
0.040448
-0.021465
0.098293
0.122981
0.000055
0.023018
0.063040
0.008636
0.047836
-0.055426
0.002073
0.010132
0.058629
0.028472
0.031393
0.025301
0.018701
0.035027
0.016171
-0.084163
0.004680
0.049242
0.027796
0.031946
0.031813
0.041224
0.088959
0.057543
-0.021675
-0.070106
0.059280
0.092776
-0.048561
0.008963
-0.008022
0.051341
0.012788
0.041523
0.085385
0.115042
0.012812
-0.002796
0.036850
-0.059671
0.083210
0.054030
0.056437
0.063170
-0.029345
0.024571
0.111565
-0.007659
0.075461
0.129352
0.163055
0.054473
0.118752
0.062591
0.109380
0.123766
0.132019
0.115649
0.083785
0.174696
0.152466
0.164490
0.187236
0.157490
0.150082
0.194562
0.165231
0.300965
0.282146
0.170446
0.137540
0.121703
0.164734
0.201591
0.203824
0.193051
0.171723
0.172153
0.096672
0.078964
0.103643
0.150061
0.098129
0.093610
0.091507
0.176225
0.106897
0.074812
0.065790
0.020935
0.002871
0.119578
0.159235
0.119422
0.046555
0.048561
0.044650
0.091424
-0.000747
0.010149
0.053318
-0.015281
0.152907
0.032297
0.201419
0.433771
0.787394
1.103281
1.337167
1.405501
1.335185
1.115375
0.690283
0.373780
0.072877
-0.099626
-0.252460
-0.230511
-0.059724
-0.043677
-0.040549
0.012600
0.066410
0.045455
0.052180
0.074643
0.150156
0.136335
0.171348
0.093360
0.056485
0.086427
0.136654
0.133983
0.097093
0.267244
0.213830
0.196263
0.268967
0.246885
0.271866
0.314586
0.351274
0.352171
0.343120
0.475760
0.387055
0.407801
0.412036
0.501306
0.535525
0.463025
0.551918
0.476462
0.580629
0.530501
0.585258
0.509245
0.629634
0.532829
0.553376
0.587281
0.619027
0.470774
0.553476
0.455832
0.542468
0.554314
0.443961
0.469950
0.458975
0.410498
0.428247
0.322116
0.276988
0.381602
0.275659
0.358292
0.327329
0.296122
0.242818
0.182532
0.260408
0.179740
0.172752
0.189502
0.187449
0.140130
0.052137
0.058285
0.061914
0.087910
0.036213
-0.026025
0.044339
0.095061
0.036953
0.145456
0.092160
0.105983
0.021431
0.025830
-0.012178
0.023575
0.038973
-0.004009
-0.001098
0.046958
0.027680
0.051465
0.028027
0.043496
0.072262
0.006199
0.012448
0.041007
-0.014310
0.072394
0.131165
0.018945
-0.015166
0.091829
0.040563
0.082308
-0.001790
-0.023500
0.084641
-0.040189
0.038501
-0.009077
0.008281
-0.060035
0.005611
0.074629
0.030774
0.027129
0.042332
-0.042396
0.089941
-0.019695
0.050900
0.077432
0.002650
0.035182
0.027821
0.036496
-0.004989
0.035725
-0.006323
0.037479
0.039933
0.036068
0.015508
0.157280
0.071022
0.104488
0.104252
0.127253
0.100255
0.199569
0.139890
0.109787
0.221318
0.151920
0.122186
0.195883
0.252291
0.100043
0.124574
0.129165
0.219432
0.160272
0.174093
0.144649
0.114630
0.172037
0.169173
0.099674
0.093046
0.046033
0.027880
0.123550
0.029449
0.152199
0.046304
0.045625
0.076333
0.036663
0.143389
0.009363
0.035565
-0.006111
-0.065847
-0.015660
-0.021934
-0.008083
0.058383
0.001174
-0.033380
-0.042557
-0.012993
-0.063198
0.020374
0.027570
0.126374
0.336231
0.734270
1.016655
1.284531
1.418017
1.305224
1.056258
0.698029
0.261560
-0.031534
-0.135515
-0.239382
-0.266611
-0.190724
-0.170262
-0.104535
-0.022128
0.010649
-0.031150
0.050070
-0.045032
0.049278
-0.098556
-0.010304
0.069177
-0.010090
0.081717
0.061717
0.174165
0.071994
0.119064
0.154139
0.099712
0.085213
0.234315
0.217568
0.218720
0.239389
0.251855
0.208693
0.345706
0.285470
0.408181
0.279309
0.401485
0.416303
0.386204
0.312246
0.465590
0.425813
0.444479
0.425384
0.444079
0.478014
0.478228
0.504991
0.436945
0.431232
0.445923
0.408854
0.499233
0.417009
0.360499
0.359903
0.483280
0.316986
0.337768
0.287099
0.280317
0.323646
0.134055
0.230179
0.234381
0.153488
0.052901
0.118817
0.066919
0.165161
0.145500
0.016883
0.051458
0.160429
0.051480
0.036544
-0.056249
0.043719
-0.013414
0.014489
-0.034165
-0.058495
-0.049173
-0.035131
-0.025680
0.005120
-0.020454
-0.032144
-0.052664
-0.018465
-0.155468
-0.076763
-0.059439
-0.073847
-0.031249
-0.069313
-0.033185
-0.075602
-0.071403
-0.063715
-0.144033
-0.094077
-0.128991
-0.079665
-0.040219
-0.071934
-0.030177
-0.093867
-0.076889
-0.127155
-0.071222
-0.061630
-0.064400
-0.089830
-0.139320
-0.099784
-0.142002
-0.135725
-0.103022
-0.164891
-0.006251
-0.037247
-0.121689
-0.176165
-0.133578
-0.147189
-0.058095
-0.111933
-0.055960
-0.125495
-0.063167
-0.076472
-0.050106
-0.092538
-0.087719
-0.071464
0.010769
-0.113576
-0.125561
-0.096065
-0.047275
-0.004699
-0.051079
-0.035973
-0.014922
0.014011
0.031039
0.097064
0.039570
0.001110
0.040146
0.133685
0.106059
0.039704
0.136884
0.148284
0.072789
0.107749
-0.023795
0.111750
0.156034
0.122716
0.058912
-0.012511
0.044339
0.030220
-0.020672
-0.030845
-0.031595
0.021337
-0.056566
-0.046746
-0.109915
-0.102341
-0.103528
-0.107400
-0.072735
-0.123006
-0.003952
-0.044854
-0.113587
-0.062689
-0.071000
-0.087037
-0.133507
-0.047123
-0.103971
-0.074350
-0.191190
-0.160024
-0.196122
0.007633
0.279919
0.598664
0.947073
1.223562
1.266611
1.204604
1.040426
0.650657
0.224165
-0.059184
-0.254356
-0.381044
-0.302561
-0.187378
-0.132358
-0.160094
-0.109607
-0.105846
-0.014307
-0.124664
-0.038955
-0.093401
0.021857
-0.008195
-0.067812
-0.089047
0.016842
0.018230
0.041934
-0.000349
0.038860
0.050940
0.106588
0.164074
0.096599
0.238284
0.181398
0.195188
0.104793
0.187805
0.114555
0.272665
0.254699
0.294699
0.395641
0.390276
0.325558
0.392625
0.420514
0.382235
0.468680
0.453000
0.348658
0.384292
0.435339
0.349074
0.507830
0.405983
0.341750
0.359912
0.450470
0.393933
0.333979
0.369421
0.294943
0.357538
0.238537
0.295770
0.211354
0.163568
0.186876
0.214672
0.253987
0.102268
0.093084
0.080243
0.072443
0.077907
0.145389
0.130265
0.057966
-0.089634
0.067731
-0.033484
0.016737
-0.003103
0.004158
-0.024978
-0.167433
-0.077466
-0.041871
-0.012166
-0.081612
-0.033592
-0.041678
-0.049313
0.019977
-0.094423
-0.063089
-0.013003
-0.072479
-0.018005
-0.048047
-0.008836
-0.082407
-0.107617
-0.131426
-0.114923
-0.116354
-0.055968
-0.119399
-0.009162
-0.039450
0.072640
0.018885
-0.038103
-0.048789
-0.131016
-0.045705
-0.004207
-0.009698
-0.149326
-0.012952
-0.037818
-0.182574
-0.129395
0.016313
0.035564
-0.055791
-0.104089
-0.005213
-0.000472
-0.054956
-0.096105
-0.017724
-0.067745
-0.057187
-0.084861
-0.047819
-0.017551
-0.040208
-0.115339
-0.030483
0.039318
-0.055280
-0.037662
-0.017247
-0.013645
-0.018321
0.038520
-0.008753
0.031490
0.023593
-0.005973
0.076605
0.058763
0.095009
0.145389
0.087007
0.190090
0.027743
0.092885
0.197013
0.175115
0.113184
0.169567
0.142055
0.214723
0.141334
0.069047
0.195816
0.166855
0.087081
0.088175
0.122564
0.022014
0.107558
0.072317
-0.021587
0.005346
-0.005787
0.092761
-0.008094
-0.012594
0.048485
0.007236
-0.049661
0.034370
-0.026654
-0.052492
0.045364
-0.074025
-0.023077
-0.024958
0.010140
-0.064156
-0.091056
-0.036103
0.081733
0.181454
0.408733
0.638057
0.964047
1.254974
1.318747
1.347697
1.046420
0.701281
0.426080
0.012239
-0.262434
-0.270540
-0.244811
-0.193494
-0.039765
-0.075420
0.052276
0.025295
0.013953
0.017804
0.017033
0.072487
0.111480
0.020035
0.023423
0.123304
0.080397
0.086717
0.232939
0.154929
0.244875
0.230141
0.225451
0.314621
0.266889
0.183350
0.301286
0.239462
0.269921
0.366339
0.338819
0.445470
0.380448
0.417171
0.440212
0.383614
0.451201
0.379563
0.535252
0.410105
0.563148
0.540349
0.520687
0.591196
0.525230
0.500038
0.543261
0.535655
0.515032
0.548144
0.519514
0.422235
0.490502
0.471552
0.440431
0.439156
0.376144
0.361476
0.377214
0.284861
0.375194
0.321886
0.200793
0.274640
0.163977
0.152777
0.244711
0.182478
0.080348
0.110994
0.138697
0.198790
0.131924
0.142295
0.116479
0.165712
0.038523
0.091882
0.016078
0.101127
0.105268
0.062332
0.080497
0.064511
-0.001243
0.125094
-0.041006
0.050236
0.054733
0.052499
0.048932
0.062471
0.017289
0.045548
0.037199
0.117141
0.042095
0.032232
0.070892
0.067443
0.126372
-0.007606
0.037477
0.052684
0.028961
0.063452
0.091989
0.008047
0.043549
0.075202
0.094707
0.049265
0.066182
-0.012637
0.066169
0.032379
0.071364
0.027154
0.071506
0.064666
0.038160
0.110884
0.017398
0.065850
0.064601
0.069562
0.038025
0.047097
0.072577
0.040482
0.024904
0.063096
0.126806
0.087063
0.123506
-0.003063
0.052709
0.080866
0.127438
0.157010
0.103670
0.153891
0.162544
0.114749
0.175731
0.181725
0.236969
0.170679
0.176898
0.282747
0.198312
0.224315
0.232158
0.283488
0.334525
0.275726
0.274266
0.245755
0.165646
0.168995
0.232539
0.308864
0.215854
0.153645
0.220372
0.078625
0.083664
0.172003
0.090892
0.139840
0.116860
0.110173
0.084515
0.123781
0.109930
0.149449
0.156675
0.047038
0.113065
0.085068
-0.000837
0.053785
0.120031
0.081518
0.130860
-0.036394
0.073717
0.019072
0.004266
0.317923
0.417818
0.757298
1.052642
1.336015
1.500000
1.378331
1.146926
0.800202
0.427232
0.183985
-0.077176
-0.149776
-0.174840
-0.161893
-0.032814
0.062052
0.096553
0.124944
0.090140
0.031502
0.186760
0.105397
0.135268
0.155912
