0.059664
-0.046819
-0.056411
0.007121
-0.031876
0.073318
-0.042514
-0.071663
0.085740
-0.023884
-0.065363
0.079804
-0.049768
0.061996
0.041551
-0.001699
0.048275
0.109009
0.035126
0.028703
0.079124
0.021068
0.044528
0.090316
0.001026
0.093818
0.032791
0.023507
0.114315
0.039303
0.084055
0.138793
0.123359
0.078850
0.127992
0.179363
0.182479
0.193567
0.168047
0.151278
0.233896
0.130252
0.234985
0.230169
0.300979
0.146220
0.198652
0.171692
0.136851
0.171715
0.159521
0.217695
0.169861
0.224525
0.116195
-0.051431
0.128792
0.020832
0.033831
0.090585
0.088422
0.043059
0.001305
0.117278
0.079456
0.043363
0.035363
0.068014
0.028388
0.086602
0.053751
0.016581
0.006790
0.134392
0.033310
-0.000355
0.108390
0.033039
0.051202
0.113822
0.307228
0.583144
0.845612
1.130676
1.376555
1.422858
1.249835
0.944875
0.520946
0.236720
-0.063853
-0.169726
-0.167220
-0.232871
-0.132274
-0.112428
0.089719
0.097764
0.000491
0.089451
0.141383
0.074456
0.111326
0.088462
0.087390
0.116602
0.171686
0.129796
0.216764
0.164940
0.148182
0.125110
0.223681
0.233534
0.223696
0.226937
0.261462
0.255742
0.354637
0.273682
0.324966
0.319390
0.346594
0.401569
0.371831
0.460846
0.370547
0.445159
0.463922
0.553282
0.460517
0.509130
0.531966
0.520114
0.524038
0.575892
0.513615
0.531868
0.605902
0.567570
0.635007
0.603051
0.510429
0.512877
0.492824
0.510720
0.497585
0.425318
0.395875
0.522326
0.409072
0.338464
0.380988
0.385377
0.393306
0.297401
0.302623
0.285450
0.269661
0.338443
0.162137
0.225717
0.262972
0.109026
0.208364
0.195922
0.191392
0.140454
0.087494
0.152099
0.174408
0.098018
0.035112
0.075231
0.096040
0.121971
0.097615
0.070425
0.071709
0.084267
0.108069
-0.062302
0.143532
0.148479
0.076276
0.096788
0.066785
0.197668
0.063319
0.114115
0.146913
0.105690
0.037200
0.066246
0.084796
0.093678
0.011117
0.124113
0.062752
0.015539
-0.037621
0.120788
0.117692
0.127746
0.038305
0.122251
0.109265
0.131909
0.124271
0.074465
0.032425
0.072602
0.077282
0.091296
0.037963
0.126890
0.135430
0.154839
0.040462
0.129647
0.062556
0.088113
0.135146
0.131329
0.053882
0.127093
0.036495
0.107074
0.085174
0.055652
0.078624
0.120024
0.138543
0.087413
0.153377
0.065377
0.134868
0.095725
0.224132
0.159571
0.144798
0.082240
0.113133
0.203116
0.196564
0.201086
0.227342
0.151316
0.249846
0.221836
0.187739
0.239433
0.248347
0.250092
0.259570
0.230144
0.231368
0.213062
0.253039
0.249405
0.292254
0.244875
0.160098
0.151454
0.214646
0.111880
0.154788
0.137736
0.113533
0.152844
0.149702
0.043861
0.058329
0.029961
0.107477
0.131120
0.112979
0.069830
0.005847
0.095738
0.050222
0.099495
0.049163
0.044880
0.078758
0.057921
0.093063
-0.011339
0.097287
0.091199
0.090341
0.258508
0.464643
0.838642
1.030937
1.327771
1.362402
1.339181
1.102732
0.717251
0.269557
0.015722
-0.098370
-0.100449
-0.104545
-0.096637
0.040523
0.001054
0.034050
0.113811
0.150070
0.074953
0.055893
0.118589
0.163639
0.165986
0.055566
0.063310
0.078543
0.089921
0.146758
0.144300
0.208667
0.154715
0.208893
0.200831
0.187754
0.235808
0.247527
0.251464
0.297785
0.289719
0.349824
0.278938
0.299589
0.369335
0.389319
0.368923
0.450729
0.512280
0.414199
0.457560
0.556033
0.531521
0.514070
0.560835
0.541850
0.550017
0.510685
0.612585
0.546149
0.576397
0.581669
0.473089
0.408958
0.383120
0.518923
0.381225
0.425501
0.426946
0.414442
0.388798
0.432186
0.383976
0.334541
0.385654
0.382521
0.281439
0.182590
0.159215
0.207340
0.145447
0.156392
0.115367
0.157342
0.081334
0.129900
0.119928
0.106850
0.129052
0.043005
0.100060
0.037601
0.092463
-0.022262
0.073808
-0.011167
0.053164
0.002301
0.045327
0.016404
0.028547
-0.018504
0.014692
0.047851
-0.046773
-0.041559
0.024166
0.086908
0.007692
0.088340
0.025601
0.007780
0.003439
0.047859
-0.004840
-0.011551
-0.058798
0.005661
-0.004494
-0.016776
0.057362
0.008619
0.005180
0.003869
0.012652
0.018498
-0.021178
0.044674
-0.029278
0.052762
-0.002075
0.020555
0.008910
-0.010958
0.036266
-0.049202
0.007725
0.087701
0.033862
0.011927
-0.012234
0.069896
-0.012837
-0.017668
-0.036188
-0.032472
-0.033955
-0.010743
-0.052559
-0.061151
-0.030967
0.066214
-0.021739
-0.028456
0.045693
0.090813
0.090040
0.011434
0.074415
0.001302
-0.016947
-0.035230
0.102446
0.085114
0.127071
0.120198
0.190386
0.125689
0.094334
0.112360
0.128833
0.173252
0.142917
0.120835
0.105317
0.157973
0.153280
0.141657
0.140183
0.046617
0.149361
0.111700
0.106314
0.011448
0.024033
0.058836
0.070417
0.006949
-0.033652
0.066592
0.051197
0.059096
-0.002424
0.006450
-0.045705
0.010810
-0.065259
-0.009954
-0.028206
-0.006026
-0.010062
-0.078131
-0.052817
-0.003250
-0.118630
-0.063140
-0.074435
-0.005559
-0.060169
-0.087459
0.045698
0.140877
0.302889
0.632645
0.953826
1.183326
1.302740
1.294657
1.001482
0.657935
0.298947
0.078946
-0.205008
-0.327490
-0.298299
-0.245904
-0.148199
-0.122542
-0.080877
-0.125812
0.013462
-0.035918
-0.063319
0.047906
0.050838
0.038761
-0.088790
0.048063
-0.079697
-0.001903
0.044250
0.048026
-0.024377
0.063779
0.060473
0.077524
0.113750
0.130911
0.189325
0.164631
0.194806
0.254227
0.209102
0.172881
0.249219
0.302118
0.302139
0.375659
0.370956
0.409939
0.352333
0.394604
0.405774
0.476313
0.482147
0.357146
0.430602
0.443190
0.366119
0.425398
0.527039
0.473139
0.437697
0.422242
0.447103
0.353711
0.422883
0.413526
0.331397
0.356734
0.337257
0.335302
0.332733
0.308268
0.257827
0.135500
0.184135
0.165202
0.132890
0.163192
0.134095
0.080059
0.126389
0.077324
0.144802
0.009153
-0.021175
-0.045692
0.056114
-0.009217
0.012711
0.022093
0.025804
-0.030337
-0.000733
-0.046490
0.082932
0.028817
0.008709
0.014490
-0.061136
-0.067939
-0.080366
-0.041492
-0.027379
-0.070178
-0.094275
-0.050968
-0.022145
0.049601
0.002190
-0.052611
0.023303
0.018140
-0.050799
-0.041032
0.002667
0.018432
-0.010866
-0.043620
-0.028621
-0.040188
-0.010982
-0.014255
0.014247
-0.063641
-0.001846
-0.017544
0.013483
-0.071014
-0.045019
-0.065017
-0.119539
-0.036672
0.003537
-0.028979
-0.118007
-0.018844
-0.095790
0.068128
-0.003507
-0.056420
-0.002922
-0.016261
-0.071842
0.032096
0.005604
0.022291
-0.051391
-0.045865
0.004544
0.000594
-0.049348
-0.009036
0.021845
0.041885
-0.044908
0.015672
0.034552
-0.029504
-0.013388
0.116939
0.091550
0.045030
0.129590
0.014971
0.136238
0.092439
0.195394
0.121653
0.154847
0.149187
0.134991
0.102446
0.060576
0.130671
0.079080
0.129776
0.173978
0.111526
0.137044
0.080338
0.162313
0.170147
0.118242
0.083012
0.086571
0.045555
0.046278
0.066193
0.007292
0.005179
0.067128
-0.014203
0.033450
0.011212
0.060228
0.007740
-0.007837
0.040535
0.070276
-0.034955
-0.004984
0.032122
-0.058763
-0.083549
-0.051253
0.023852
0.044147
-0.039101
0.034005
0.014719
0.045526
0.287359
0.651255
0.846603
1.209126
1.312556
1.317228
1.138129
0.730707
0.452526
0.147968
-0.100306
-0.207376
-0.262340
-0.171556
-0.101600
-0.074929
-0.004812
0.032488
0.087658
0.082192
0.043977
0.090853
0.054271
0.058251
0.031251
0.148060
0.082201
0.063867
0.127109
0.130793
0.207120
0.086214
0.139343
0.203266
0.163097
0.236316
0.226040
0.208185
0.238731
0.242710
0.259097
0.293781
0.286218
0.385164
0.379136
0.352464
0.450342
0.391694
0.434920
0.461513
0.475829
0.498175
0.436486
0.564877
0.558447
0.554837
0.570646
0.624772
0.546574
0.544005
0.519530
0.496665
0.489506
0.501025
0.481621
0.504651
0.453147
0.454980
0.477343
0.396094
0.385568
0.363168
0.354956
0.309289
0.229476
0.238650
0.316003
0.295500
0.263569
0.213325
0.161327
0.208584
0.135624
0.170126
0.165673
0.186406
0.169915
0.106709
0.125457
0.133275
0.124061
0.145451
0.141474
0.135097
0.174560
0.087002
0.061869
0.049416
0.097211
0.007380
0.031918
0.094307
0.082784
0.114615
0.093316
0.075016
0.026083
0.085684
0.109409
0.016976
0.109616
0.068700
0.024071
0.058701
0.127151
0.042219
0.143487
0.095836
0.062401
-0.015769
0.017531
0.073274
0.006033
0.055655
0.060514
0.088313
0.037684
0.080148
0.065618
0.061444
0.135549
0.067791
0.179531
0.044024
0.003357
0.107538
0.096769
0.049976
0.006942
0.082568
0.119787
0.063050
0.129230
0.123548
0.007740
0.130845
0.066297
0.114266
0.071667
0.009575
0.077267
0.202564
0.089244
0.181216
0.140753
0.076947
0.110736
0.058852
0.179053
0.110353
0.120482
0.290994
0.135489
0.267101
0.243658
0.223712
0.160859
0.193207
0.193082
0.268056
0.279821
0.229556
0.226889
0.295996
0.287471
0.253247
0.238654
0.250924
0.170429
0.302422
0.282329
0.175086
0.161688
0.137613
0.213444
0.227669
0.173936
0.122989
0.215540
0.161271
0.092814
0.125908
0.124760
0.172807
0.034706
0.139294
0.140163
0.135893
0.065601
0.097043
0.028979
0.052062
0.107599
0.062868
0.075618
0.076161
0.073621
0.029994
0.097287
0.118269
0.122449
0.289579
0.559823
0.892905
1.267295
1.500000
1.371191
1.312945
1.090166
0.640693
0.243345
0.001648
-0.114658
-0.141341
-0.109932
0.033502
-0.050266
0.069579
0.081944
0.163801
0.176733
0.117827
0.191879
0.164596
0.144181
0.126777
0.096995
0.232451
0.124419
0.248520
0.239311
0.188554
0.285441
0.171164
0.185028
0.228208
0.277178
0.320824
0.290959
0.331560
0.335949
0.418234
0.323133
0.394248
0.347441
0.432119
0.372538
0.466767
0.457820
0.505086
0.506025
0.558955
0.520980
0.577424
0.511277
0.643617
0.521882
0.561399
0.494875
0.585661
0.634971
0.602718
0.507248
0.558599
0.556388
0.551622
0.549275
0.525862
0.493323
0.530495
0.419549
0.432950
0.419839
0.387547
0.349002
0.329763
0.261586
0.312494
0.297019
0.294227
0.242397
0.223639
0.298182
0.141396
0.174700
0.224629
0.210142
0.198901
0.172871
-0.020016
0.149272
0.147325
0.063750
0.161311
0.096558
0.042787
0.109200
0.122807
0.092674
0.008003
0.056520
0.065052
0.101718
0.026818
0.103389
0.092390
0.141673
0.070069
0.083714
0.131897
0.056425
0.071458
0.081972
0.062946
0.009842
0.019947
0.060469
0.038950
0.080800
0.040399
0.012829
0.122222
0.087718
0.083106
0.178380
0.114647
0.068806
0.013882
0.046648
-0.001075
0.034616
0.099598
0.018082
0.075858
0.098678
0.068511
0.083007
0.052187
0.018609
0.105895
0.008794
-0.012860
0.000484
-0.003103
0.021177
0.010488
0.062606
0.055072
0.077382
-0.008481
0.085258
0.113286
0.136482
0.109890
0.057381
0.085601
0.018614
0.013405
0.123417
0.084819
0.099481
0.090973
0.083517
0.044770
0.158629
0.162359
0.206791
0.139687
0.230346
0.148453
0.150540
0.178461
0.202553
0.181476
0.220701
0.187439
0.202440
0.177468
0.241337
0.229180
0.254624
0.111039
0.178487
0.142569
0.223791
0.094746
0.143292
0.128449
0.159380
0.053976
0.051404
0.069789
0.116954
0.108221
0.026620
0.048601
-0.019042
0.080225
0.143008
0.025267
0.027842
0.028733
0.013390
0.028519
0.035009
0.013112
-0.012350
0.029158
-0.098486
-0.002163
-0.024148
-0.054427
0.104338
0.374608
0.728347
1.056777
1.189287
1.436247
1.283807
0.922213
0.657053
0.289436
-0.008824
-0.111434
-0.227176
-0.226945
-0.149012
-0.219796
0.011439
-0.018993
-0.068876
0.075887
0.060120
0.049475
0.024379
-0.104073
0.102717
0.088993
0.073359
0.019688
0.026210
0.079536
0.057294
0.122361
0.088000
0.133121
0.120181
0.161428
0.222420
0.147452
0.192870
0.218224
0.241009
0.246030
0.264203
0.301967
0.278286
0.280363
0.347523
0.345929
0.410721
0.394228
0.391081
0.410295
0.410556
0.409766
0.439805
0.443064
0.490955
0.488736
0.501571
0.469728
0.459839
0.424455
0.380275
0.443468
0.446094
0.351015
0.430851
0.407011
0.370350
0.392796
0.256843
0.273334
0.282136
0.234631
0.227394
0.176442
0.176395
0.176484
0.197345
0.235309
-0.019113
0.090624
0.042763
0.144308
0.082044
0.103289
0.062219
-0.042983
0.062509
-0.040308
-0.033052
0.019518
-0.004339
-0.026219
0.026002
-0.072826
-0.001872
-0.090207
-0.022160
-0.053802
-0.077422
-0.066623
-0.026368
-0.047620
0.037141
-0.025753
-0.039313
-0.097245
-0.010816
-0.004565
-0.034559
-0.027502
-0.011655
-0.032111
-0.014773
-0.067666
0.001550
-0.124947
-0.077781
-0.017538
-0.008930
-0.053204
-0.086934
-0.127846
-0.053202
-0.059118
-0.035579
0.050588
-0.085809
-0.134691
-0.064367
-0.020794
-0.038280
-0.060886
-0.088748
-0.103331
-0.000219
-0.073735
-0.011784
-0.102441
-0.100726
-0.060673
-0.079380
-0.118090
-0.090417
-0.056875
-0.037056
-0.017023
-0.057816
-0.051651
-0.094277
-0.033498
-0.150651
-0.071318
-0.081700
0.002856
-0.066612
-0.052148
-0.018440
-0.010868
0.051672
0.001927
-0.059127
0.017723
0.093567
0.044434
0.126547
0.077363
0.058445
-0.018317
0.062078
0.148934
0.058115
0.134580
0.072400
0.132617
0.081924
0.102654
0.164545
0.080244
0.117323
0.102974
0.012652
0.084638
0.009642
-0.001679
0.065232
0.048238
0.001010
-0.016578
-0.042240
-0.006590
-0.028000
-0.018551
-0.025825
-0.006093
-0.016981
-0.061187
-0.131045
-0.052839
-0.047080
-0.132628
-0.023864
-0.045509
-0.063227
-0.122542
-0.053828
-0.086845
-0.063867
-0.119368
-0.047960
0.050849
0.252112
0.529750
0.895858
1.143834
1.277778
1.212560
0.958327
0.609199
0.326628
0.045539
-0.146767
-0.244470
-0.302375
-0.203611
-0.197718
-0.108763
-0.095532
-0.056659
-0.040378
0.006771
-0.011193
-0.098096
-0.016057
-0.044391
-0.073813
0.014277
-0.041588
-0.024175
0.071674
-0.039279
0.065027
0.127077
0.075318
0.045417
0.013496
0.011182
0.153238
0.084307
0.125676
0.191217
0.238923
0.197141
0.274167
0.255443
0.267263
0.301590
0.274538
0.347802
0.331993
0.371549
0.413557
0.361495
0.366513
0.428743
0.467018
0.446689
0.421550
0.474992
0.357926
0.332291
0.452034
0.393889
0.411931
0.206018
0.401933
0.343346
0.404525
0.311680
0.290951
0.262143
0.336847
0.284314
0.226012
0.222147
0.299076
0.124190
0.197967
0.197635
0.047881
0.015657
0.092377
0.060699
0.130944
0.046091
0.008052
0.168783
0.046034
0.010241
0.058698
-0.030368
-0.049613
-0.129082
-0.029506
0.008009
-0.007170
-0.019212
-0.104000
-0.100017
-0.056268
-0.044774
-0.091525
-0.044766
-0.075225
-0.126950
-0.002325
0.040470
-0.035251
0.019392
-0.021443
0.019364
-0.027126
-0.047636
-0.146479
-0.109835
-0.104588
0.030937
-0.083234
-0.105863
-0.122930
-0.078660
-0.058144
-0.028269
-0.035617
-0.073322
-0.037781
-0.080870
-0.060786
0.005710
-0.050432
-0.052933
-0.085258
-0.006072
0.025441
-0.101924
-0.059164
-0.009915
0.048305
-0.047305
-0.057843
0.016054
0.052562
-0.138723
-0.034819
-0.049282
0.044614
-0.015385
-0.019936
0.026844
0.042504
0.020852
-0.045315
-0.018393
-0.051251
0.033985
-0.018230
-0.065101
0.038093
0.019096
0.054692
0.074145
0.090987
0.107685
0.099385
0.098471
0.044163
0.061375
0.098751
0.090348
0.010772
0.113312
0.057344
0.164819
0.240762
0.114833
0.146021
0.103220
0.164490
0.159403
0.085957
0.104806
0.205173
0.172985
0.079540
0.037159
0.112186
0.050397
0.043218
0.029635
0.077534
0.058569
0.027184
0.003790
0.034087
0.024687
-0.018930
-0.020463
0.023765
0.055452
-0.007166
0.013611
0.022137
0.087749
0.059940
0.091653
0.007714
0.009215
-0.015556
-0.022442
-0.037989
-0.069120
0.035065
0.269467
0.567363
0.821372
1.195416
1.341266
1.351308
1.193556
0.818961
0.499805
0.201033
-0.072818
-0.194882
-0.254149
-0.203840
-0.126952
-0.112949
-0.031610
0.006699
0.058151
0.007125
-0.073238
0.085939
0.092883
0.051978
0.036052
0.059240
0.076700
0.095889
0.101400
0.090375
0.032490
0.124922
0.171692
0.049071
0.219958
0.180282
0.223418
0.196306
0.232357
0.255008
0.226168
0.305041
0.392545
0.382343
0.368344
0.403070
0.349419
0.415407
0.331637
0.497530
0.441417
0.489036
0.503671
0.547197
0.493444
0.496905
0.495435
0.570729
0.568936
0.515382
0.473550
0.480359
0.538099
0.521026
0.513924
0.498993
0.391832
0.473623
0.423316
0.408459
0.428661
0.325463
0.318820
0.333525
0.298606
0.238238
0.249141
0.254212
0.167345
0.130705
0.190054
0.203502
0.185601
0.110860
0.169220
0.099684
0.129424
0.121905
-0.003451
0.042463
0.039203
0.049526
0.104850
0.085356
0.089711
0.007098
0.058848
0.038899
0.070809
0.032603
0.018814
0.055418
0.037610
-0.002079
0.100454
0.011946
0.040725
-0.002698
0.108462
0.079649
0.047220
-0.053974
0.025748
-0.011548
0.084831
0.028877
0.033288
0.055297
0.051429
0.047322
0.052599
0.000570
0.033338
0.036221
0.087211
0.053347
0.001623
0.027264
0.071060
0.056373
-0.008576
0.070262
-0.001161
0.026585
0.009639
0.103148
0.039358
-0.034841
0.010587
0.102602
0.008865
-0.015156
0.056381
0.020963
0.130587
0.132121
0.026522
0.016563
0.059075
-0.005622
0.014980
0.064940
-0.000368
0.126396
0.016193
0.032666
0.129535
0.155059
0.104729
0.068465
0.140696
0.117032
0.155772
0.190864
0.136544
0.090601
0.149246
0.188335
0.243767
0.115267
0.168294
0.162525
0.201449
0.230558
0.249431
0.255448
0.229877
0.158195
0.219744
0.208208
0.209546
0.239683
0.145701
0.084920
0.124018
0.127750
0.164281
0.110432
0.098865
0.122425
0.114517
0.123146
0.162506
-0.000069
0.076435
0.020624
0.060957
0.070896
0.055232
0.087882
0.093913
-0.007591
-0.039939
0.028409
0.019101
0.020282
-0.019257
0.017892
0.048763
-0.024275
0.123085
0.243750
0.517933
0.780567
1.093311
1.343186
1.381365
1.204775
0.894731
0.687355
0.294557
-0.063918
-0.128083
-0.221548
-0.250688
-0.095155
-0.044237
-0.024635
-0.050563
0.080703
0.090532
-0.032789
0.163882
0.068926
0.018831
0.142545
0.039979
0.021867
0.096591
0.129133
0.092137
0.189792
0.144101
0.109385
0.093147
0.203577
0.136767
0.209445
0.150604
0.231485
0.285641
0.257134
0.295945
0.307147
0.300352
0.333432
0.404088
0.370178
0.357071
0.471956
0.507817
0.369157
0.461530
0.428811
0.469694
0.450201
0.473854
0.494075
0.475736
0.484548
0.510027
0.431833
0.522060
0.493821
0.458965
0.378490
0.396364
0.370579
0.389010
0.433833
0.380527
0.364725
0.229469
0.341830
0.327420
0.313189
0.263229
0.230235
0.277249
0.129290
0.213887
0.129800
0.165884
0.154328
0.045576
0.026512
0.004770
0.118582
0.089015
0.032387
0.116131
-0.031042
0.082306
-0.041332
0.017403
-0.075151
0.002163
0.010710
-0.018240
0.014623
0.026925
-0.070191
0.031454
0.013519
0.037199
-0.082245
-0.012714
-0.034363
-0.117869
-0.067432
-0.017499
0.025583
0.049255
-0.038590
0.033974
-0.020402
-0.102217
-0.025587
0.013373
-0.057687
-0.005214
-0.008207
-0.011658
-0.030437
-0.055834
-0.073432
0.000671
-0.041332
-0.000900
-0.074588
-0.008385
-0.058399
-0.011559
-0.086995
-0.010766
-0.075425
-0.020907
-0.057497
-0.027817
-0.022950
0.019536
-0.095973
-0.062122
-0.078736
-0.046153
-0.047509
-0.024404
-0.021172
-0.006081
-0.104095
-0.071902
-0.068895
-0.014405
-0.028732
-0.014453
-0.136012
-0.031185
-0.033820
-0.001799
0.051889
0.082016
-0.001279
0.024535
0.037983
0.015103
0.104298
0.050509
0.011328
0.098088
0.000678
0.083514
0.120409
0.167629
0.128291
0.190130
0.141095
0.107370
0.045796
0.083026
0.083099
0.042205
0.072019
0.118528
0.033724
0.022074
0.077037
-0.014843
0.002220
-0.032138
-0.026261
0.080669
-0.000375
-0.077453
-0.010975
0.031872
-0.012678
0.063583
-0.017932
-0.048371
-0.063860
-0.062983
-0.079255
-0.027465
-0.074252
-0.136095
0.047253
-0.055875
-0.084475
-0.089851
-0.166968
-0.104113
-0.085257
0.078059
0.362321
0.628797
0.972170
1.152975
1.349382
1.202665
0.947939
0.633918
0.239914
-0.048984
-0.193256
-0.331713
-0.300598
-0.174025
-0.156396
-0.210604
-0.029204
-0.052340
-0.001712
-0.026105
-0.087118
0.024360
-0.060887
-0.057684
-0.022466
-0.020912
0.027500
0.055958
0.042462
-0.003630
0.100094
-0.000185
0.025045
0.068986
0.044414
0.063820
0.054737
0.065812
0.066797
0.164820
0.162006
0.173630
0.224677
0.209585
0.288990
0.269614
0.289401
0.327345
0.320419
0.349072
0.293188
0.463620
0.414437
0.349892
0.452570
0.344364
0.410806
0.358584
0.339557
0.391144
0.406395
0.348912
0.393344
0.410645
0.314256
0.339831
0.324139
0.300386
0.286970
0.167402
0.206874
0.231484
0.242533
0.020239
0.207681
0.193566
0.187900
0.131233
0.066078
0.084361
0.043969
0.061308
-0.008954
0.115081
-0.026640
0.048751
0.010709
-0.097097
-0.059603
0.025132
-0.033036
-0.118653
-0.104217
-0.044546
-0.085100
-0.107183
-0.103454
-0.062290
-0.122323
-0.076562
-0.037551
-0.091615
-0.113261
-0.061990
-0.108859
-0.108805
-0.043051
-0.028343
-0.073460
-0.019004
-0.075822
-0.089605
-0.105698
-0.008185
-0.074822
-0.098043
-0.055527
-0.186080
-0.133096
-0.145952
-0.078935
-0.110956
-0.141591
-0.047293
-0.094440
-0.045557
-0.100254
-0.058063
-0.146195
-0.187288
-0.173851
-0.122017
-0.101224
-0.146119
-0.182385
-0.088032
-0.071320
-0.069432
-0.098385
-0.075747
0.011711
-0.056616
-0.010440
-0.042407
-0.162559
-0.106462
-0.086966
-0.069203
-0.078574
-0.090933
-0.085420
-0.068671
-0.080420
-0.100207
-0.055902
-0.079824
-0.078698
0.067900
-0.006724
0.007516
-0.141292
-0.027440
-0.018586
0.022334
0.037388
0.071380
0.063553
0.033114
0.074541
0.013022
0.071696
0.058249
0.086739
0.105616
0.128312
0.069666
0.065908
0.135093
0.081336
0.058364
0.054820
0.054959
0.018821
-0.033922
0.039732
-0.008475
-0.104545
-0.083008
-0.009530
-0.034121
-0.052278
-0.126878
-0.111419
-0.082554
-0.081021
-0.054996
-0.006747
-0.072482
0.020082
-0.126276
-0.162134
0.042000
-0.056926
-0.077759
-0.037562
-0.086730
-0.074848
-0.099470
-0.143971
-0.042918
0.071050
0.310447
0.578422
0.809112
1.106071
1.300797
1.286052
0.986424
0.760752
0.361397
0.122280
-0.128167
-0.261985
-0.214644
-0.259334
-0.194101
-0.145519
-0.157312
-0.047114
-0.033484
-0.080767
0.039800
0.003481
-0.040306
0.034436
-0.030586
0.015192
-0.002448
-0.032437
0.025962
0.081747
0.021110
0.055216
0.082027
0.086398
0.118079
0.065700
0.097183
0.093006
0.188528
0.227306
0.288992
0.268586
0.291176
0.390496
0.336624
0.249287
0.440897
0.369841
0.331460
0.366909
0.299407
0.449464
0.421899
0.465259
0.441087
0.455613
0.500123
0.448014
0.415318
0.473830
0.409803
0.419823
0.496284
0.456606
0.399443
0.421507
0.425002
0.301952
0.368428
0.298685
0.287900
0.268699
0.239151
0.323870
0.252193
0.226993
0.158355
0.142517
0.215958
0.178486
0.077287
0.201104
0.158771
0.070451
0.143616
0.121452
0.048135
0.013755
0.025976
0.022749
-0.028705
-0.074878
0.053719
-0.044483
-0.008007
0.021568
0.046378
-0.010296
-0.006874
0.016334
-0.047673
0.089309
0.004838
-0.017699
-0.020198
-0.010951
-0.005380
-0.023937
0.015917
0.024709
-0.095226
-0.023810
0.045733
-0.033540
0.004727
-0.043834
0.033919
-0.004456
0.014184
-0.021165
0.076012
-0.042773
0.011954
0.096763
0.033635
-0.009428
0.007130
-0.009750
-0.020645
-0.014299
0.040602
-0.022605
-0.047428
0.042117
0.041994
0.018829
0.017193
-0.057961
0.061954
0.008733
0.013075
0.034460
-0.007281
0.034658
0.032560
0.035975
-0.023727
0.032510
0.027285
0.097903
-0.019046
0.086648
-0.011460
0.077457
0.086868
0.042096
0.092471
0.058225
0.034363
0.131263
0.100525
0.145072
0.155097
0.107646
0.145902
0.159960
0.126320
0.201012
0.151664
0.158378
0.196577
0.252725
0.149033
0.187045
0.192612
0.218328
0.211494
0.266330
0.162680
0.187753
0.165343
0.186974
0.145428
0.152561
0.144427
0.134571
0.117895
0.135261
0.094134
0.071399
0.120805
0.086482
0.126384
0.129012
0.052706
0.032727
0.079385
0.056498
0.044581
0.039750
-0.005300
0.025896
0.084700
0.089169
0.054584
0.110640
-0.009300
0.043547
0.054956
0.010526
0.129657
0.413560
0.575878
0.880471
1.160821
1.415075
1.476394
1.246392
0.938331
0.627333
0.243968
0.052844
-0.118201
-0.119080
-0.102798
-0.045897
-0.031879
-0.012095
-0.002870
0.108153
0.020324
0.100758
0.001923
-0.021952
0.077481
0.081836
0.086983
0.112299
0.137402
0.095247
0.166054
0.248850
0.178035
0.268350
0.253290
0.219564
0.278090
0.230054
0.279548
0.238598
0.283236
0.344191
0.339691
0.293908
0.363346
0.412120
0.471643
0.399630
0.519255
0.457777
0.414230
0.545374
0.557019
0.537796
0.516150
0.500916
0.568782
0.548007
0.587001
0.534059
0.538279
0.558404
0.595373
0.536726
0.459247
0.493460
0.505666
0.475879
0.524204
0.428623
0.416112
0.396987
0.334196
0.412272
0.379282
0.291543
0.269333
0.285525
0.308862
0.259802
0.278013
0.140960
0.256281
0.144596
0.116126
0.146312
0.135960
0.140866
0.102342
0.146520
0.152386
0.087753
0.090234
0.157248
0.118486
0.028377
0.118857
