0.008260
0.015853
-0.007681
0.027687
-0.032420
-0.051742
-0.021075
0.015269
0.057111
-0.028042
-0.041296
-0.027947
0.026784
0.006409
0.034318
0.022218
0.047315
-0.017352
-0.004838
0.005631
0.012092
0.011176
0.010359
0.017090
0.007317
0.036392
-0.016180
0.017098
-0.022472
0.037960
0.048586
0.025656
0.091932
0.073533
0.075093
0.088407
0.098287
0.050777
0.148049
-0.023190
0.095753
0.073360
0.161924
0.106120
0.098522
0.100590
0.167357
0.100535
0.178709
0.196716
0.158062
0.209090
0.168562
0.215484
0.188407
0.176199
0.173395
0.109471
0.171625
0.137591
0.162145
0.116787
0.174228
0.109372
0.122143
0.042985
0.113960
0.092017
0.103140
0.151807
0.132264
0.027282
0.052650
0.116249
0.036527
0.101692
-0.006612
0.113789
0.020580
0.037581
0.091174
0.079613
0.037417
0.058707
0.052451
0.108093
-0.000094
0.095745
0.023885
0.055825
0.051300
0.092850
0.078857
0.084587
0.101384
0.045672
0.070923
0.062633
-0.031713
-0.073294
0.041273
0.060615
0.255107
0.420584
0.824889
1.098909
1.409062
1.363827
1.500000
1.157239
0.908074
0.669819
0.329739
0.015714
-0.086492
-0.256568
-0.285324
-0.144628
-0.113894
0.016451
0.015465
0.016466
0.131589
-0.014914
0.077164
0.089937
0.151069
-0.005439
0.037171
0.178067
0.080307
-0.000307
0.066694
0.006560
0.072727
0.139749
0.021873
0.130558
0.119694
0.106353
0.081824
0.068564
0.120772
0.151355
0.151658
0.094451
0.156819
0.174300
0.217956
0.191851
0.180375
0.204324
0.268217
0.269389
0.228600
0.293213
0.307174
0.405610
0.382174
0.380144
0.385046
0.400846
0.461827
0.420757
0.503990
0.496334
0.466683
0.510180
0.512517
0.571152
0.599335
0.558705
0.561469
0.585717
0.651054
0.594617
0.556077
0.608590
0.602594
0.610568
0.505796
0.573791
0.495959
0.446743
0.508330
0.440207
0.486838
0.484893
0.399765
0.366651
0.415302
0.358975
0.336857
0.293511
0.327451
0.269070
0.320309
0.215676
0.188455
0.197377
0.132669
0.102763
0.197152
0.160642
0.189381
0.151417
0.137492
0.125850
0.100843
0.113441
0.117606
0.183453
0.135454
0.109702
0.065975
0.094921
0.172350
0.140065
0.104438
0.068950
0.087669
0.078257
0.072357
0.102798
0.066295
0.065471
0.207469
0.107132
0.077473
0.073581
0.097290
0.105775
0.129485
0.086482
0.066549
0.058480
0.109271
0.071209
0.016962
0.075570
0.052258
0.033094
0.086189
0.113940
0.040538
0.030210
0.052707
0.099453
0.027442
0.114502
0.092586
0.115302
0.167236
0.008699
0.169366
0.012213
0.044517
0.131266
0.060744
0.073690
0.083181
0.170884
0.012808
0.139879
0.073165
0.063934
0.053142
0.038400
0.120823
0.051250
0.152345
0.044753
0.090147
-0.002438
0.140515
0.164877
0.051545
0.029102
0.077493
0.086115
-0.016195
0.084947
0.070074
0.058730
0.082121
0.042330
0.076708
0.093014
0.085734
0.073625
0.082062
0.045161
0.118983
0.164413
0.137579
0.028143
0.104913
0.097543
0.070712
0.067218
0.008589
0.063226
0.042772
0.100492
0.116427
0.086657
0.130952
0.109441
0.189051
0.217395
0.065122
0.158964
0.127233
0.163798
0.174000
0.148575
0.189226
0.137402
0.205330
0.202122
0.194433
0.190431
0.223873
0.190972
0.156107
0.206093
0.169405
0.195188
0.191625
0.213125
0.187888
0.096111
0.206413
0.117635
0.130697
0.081609
0.048625
0.050625
0.092053
0.064715
0.023505
0.057338
0.000036
0.030195
0.040620
0.022631
0.025729
0.020598
0.077283
0.073384
0.052008
0.036686
0.040761
0.068930
0.034398
0.008778
0.046694
0.056984
-0.053058
0.049614
-0.000367
0.009099
0.093913
0.048120
-0.052731
-0.057215
0.007343
-0.041095
-0.028610
0.071532
0.156131
0.448045
0.770993
1.115955
1.262159
1.344270
1.350893
1.130087
0.823541
0.491989
0.226453
-0.018696
-0.273013
-0.229877
-0.334176
-0.217716
-0.126833
-0.087302
-0.025001
-0.072557
0.039265
0.043062
0.032115
-0.019962
0.052789
-0.021059
0.039430
0.030977
0.017230
0.034074
0.045914
-0.023006
0.074667
0.020389
0.094234
0.014225
-0.015142
0.054819
-0.010520
0.100318
0.121231
0.114783
0.105945
0.172441
0.122775
0.128449
0.194740
0.157055
0.079257
0.229226
0.188602
0.194598
0.242029
0.181821
0.196403
0.229352
0.244017
0.290321
0.327640
0.223947
0.362690
0.400740
0.331623
0.433492
0.419371
0.424557
0.414616
0.416174
0.522644
0.483370
0.590621
0.505055
0.413505
0.525604
0.467462
0.463437
0.456702
0.419647
0.442136
0.411097
0.463947
0.322122
0.309551
0.365251
0.353387
0.373007
0.261735
0.231947
0.234206
0.308098
0.159048
0.221058
0.190789
0.093798
0.143152
0.107635
0.098598
0.047685
0.143730
0.029411
0.031787
-0.018162
0.098154
0.056176
0.077946
0.000838
-0.046099
0.013650
0.034415
-0.001608
0.031783
0.004623
-0.001400
-0.062308
-0.130992
-0.043560
-0.032205
-0.018009
-0.027307
-0.100484
-0.034893
-0.045054
-0.010088
-0.049937
-0.009162
-0.025038
-0.046922
-0.068937
-0.020867
-0.013294
-0.010746
-0.002909
-0.015868
-0.019669
-0.039300
-0.035767
-0.095907
0.002732
-0.011654
-0.070826
-0.022726
0.000443
-0.078834
-0.080455
-0.053559
-0.074810
-0.022078
0.002517
-0.073076
-0.058575
-0.036643
-0.030605
-0.031673
-0.013354
-0.087981
0.004367
0.038283
-0.015981
-0.070874
-0.030461
-0.015242
-0.061435
-0.035997
-0.018801
-0.088284
-0.005561
0.016554
-0.101357
-0.072496
-0.012193
-0.046202
-0.018138
-0.047047
-0.045682
-0.076942
-0.021802
-0.023012
-0.103490
-0.054226
0.011329
-0.001427
-0.044663
0.010760
-0.009801
-0.101984
-0.007480
-0.030793
-0.041833
-0.012710
0.040370
0.032846
-0.043814
-0.019945
-0.072263
-0.093158
-0.031281
-0.036779
-0.080043
0.018766
0.054760
-0.012487
0.000450
-0.025194
0.046080
-0.015354
0.052869
0.033373
0.046924
0.089272
0.050365
0.008289
0.087595
0.118066
0.105181
0.102424
0.093095
0.082101
0.111229
0.065385
0.125138
0.122928
0.161469
0.076109
0.164298
0.069891
0.127025
0.074360
0.048044
0.065171
0.109566
0.048026
0.028636
-0.033669
0.063168
0.008898
-0.035656
-0.007618
0.028634
0.015055
-0.055829
0.037192
-0.033766
-0.032693
-0.054294
-0.066561
-0.026566
-0.009151
0.046908
-0.044887
-0.055865
-0.023953
-0.129215
-0.005987
-0.021562
-0.065426
0.022712
-0.065537
-0.077280
0.031097
-0.031208
-0.023260
0.012175
-0.109822
-0.043121
-0.137495
-0.127128
-0.110630
0.040973
0.129034
0.398066
0.734162
1.110217
1.230586
1.343478
1.276257
0.991335
0.754930
0.442734
0.091020
-0.156782
-0.302937
-0.296101
-0.391199
-0.244029
-0.171596
-0.136718
-0.062029
-0.030209
-0.067535
-0.075437
-0.040620
-0.028692
0.004149
-0.080260
0.063185
-0.067675
-0.015250
0.005913
-0.074943
0.046172
0.067923
0.074345
-0.009350
-0.021457
-0.036292
0.011609
0.016256
0.095835
0.079045
-0.021922
0.066484
0.062035
0.101308
0.061480
0.052251
0.128884
0.151274
0.138343
0.125364
0.108419
0.181023
0.270805
0.290764
0.273629
0.322445
0.337815
0.272404
0.305659
0.283938
0.445302
0.348362
0.393464
0.422431
0.467843
0.497119
0.462232
0.487329
0.510758
0.491458
0.519013
0.523430
0.489489
0.524986
0.536407
0.481739
0.450197
0.426179
0.482529
0.454198
0.408789
0.396364
0.327516
0.339912
0.374296
0.348799
0.311451
0.315019
0.268589
0.274671
0.146640
0.213411
0.183930
0.240539
0.168881
0.188392
0.132794
0.204059
0.109055
0.119543
0.099782
0.099434
0.025958
0.104589
0.061106
0.054472
-0.002239
0.036678
0.073409
0.071408
0.083621
0.033944
0.107486
0.075681
0.043769
0.030052
-0.056390
-0.038177
-0.006157
-0.019270
-0.045802
0.091962
0.050010
-0.015089
0.032378
0.085865
0.049545
0.028241
-0.004128
0.129040
0.015974
0.028982
0.067582
0.003933
0.029055
0.055833
0.064507
0.015189
0.102670
-0.007212
0.128624
0.077172
-0.098196
-0.015821
0.103056
0.061349
0.036362
0.029465
0.037686
0.107698
0.036622
0.038598
0.017180
0.026308
0.073502
0.065668
0.037429
0.071200
0.024366
0.071808
0.070024
0.093484
0.078807
0.105377
0.082978
0.077129
0.040451
0.068030
0.023525
0.063309
0.028143
0.011261
0.068615
0.026983
0.039384
0.034224
-0.011086
0.064524
0.057301
0.085202
0.021060
0.064501
0.091952
0.002774
0.152611
0.053439
0.110920
0.016940
0.137753
0.070733
-0.038921
0.118220
0.093564
0.066025
0.025404
0.108010
0.054512
0.101225
0.128993
0.095250
0.115397
0.134408
0.157177
0.070098
0.151118
0.060664
0.174023
0.209590
0.159930
0.116111
0.182137
0.216219
0.200216
0.210517
0.211502
0.185298
0.285806
0.252932
0.225889
0.247661
0.252351
0.186473
0.215879
0.212953
0.246604
0.191093
0.142755
0.186045
0.175998
0.132066
0.164195
0.139495
0.095638
0.075524
0.121463
0.199541
0.160859
0.172579
0.148915
0.088343
0.030437
0.184967
0.054210
0.111140
0.117452
0.101231
0.109179
0.075446
0.106313
0.038789
0.087118
0.055058
0.087576
0.066315
0.061920
0.086692
0.103982
0.111381
0.142534
0.136424
0.085704
0.150847
0.109138
0.023272
0.004653
0.001716
0.040824
0.324323
0.607056
0.904476
1.235499
1.420927
1.420006
1.372645
1.084822
0.845210
0.462579
0.205252
-0.066894
-0.165846
-0.189487
-0.254791
-0.146097
-0.095172
0.050551
0.042302
0.057829
0.017390
0.062393
0.092323
0.025705
0.070755
0.070417
0.145613
0.191932
-0.019542
0.110089
0.122095
0.146851
0.094937
0.105790
0.118033
0.108479
0.249475
0.098851
0.138243
0.103342
0.024802
0.218056
0.107676
0.079200
0.117525
0.188934
0.209828
0.224702
0.222626
0.186066
0.233202
0.302587
0.384842
0.410913
0.299470
0.315889
0.411745
0.396037
0.443976
0.405140
0.458136
0.522685
0.425056
0.498250
0.469229
0.557448
0.515899
0.584400
0.593251
0.552999
0.552188
0.578509
0.546044
0.609145
0.574281
0.578419
0.491007
0.542301
0.531142
0.527901
0.517797
0.548121
0.487455
0.468971
0.485252
0.441838
0.386314
0.366576
0.324112
0.272217
0.300766
0.307687
0.231711
0.163319
0.225479
0.230919
0.204037
0.187102
0.232607
0.092097
0.141999
0.171510
0.084470
0.098041
0.142520
0.133846
0.120455
0.188951
0.056559
0.094070
0.113071
0.145070
0.058122
0.106389
0.146719
0.094758
0.137969
0.095930
0.066016
-0.003459
0.115141
0.079731
0.089503
0.107497
0.079103
0.071847
0.032534
-0.029342
0.079831
0.020917
0.120550
0.042938
0.091493
0.005935
0.031895
0.095348
0.120719
0.058739
-0.003478
-0.002777
0.084152
0.016559
0.064398
0.093568
0.067815
0.075863
0.079560
0.019479
0.159205
-0.021441
-0.012037
0.062571
0.019513
0.114364
-0.015671
0.019738
0.007300
0.022866
0.029205
0.026617
0.022878
0.086499
0.119767
0.060968
0.042251
0.138605
0.049625
0.019586
-0.001842
0.061921
0.012353
0.093454
-0.003506
0.076431
0.066643
0.053241
0.011298
-0.027151
0.036870
0.093883
0.030813
0.054583
0.076521
0.045136
0.001588
0.068967
0.031074
0.036369
0.105607
-0.005042
0.079420
0.078775
0.092399
0.086483
0.036005
0.035047
0.011232
0.095272
0.063677
0.067162
0.134799
0.039355
0.077937
0.055816
0.055457
0.097795
0.064845
0.113268
0.138814
0.175240
0.066598
0.166089
0.151825
0.133175
0.244882
0.189163
0.129909
0.226083
0.211822
0.218327
0.221276
0.098935
0.183032
0.132179
0.268569
0.120424
0.130629
0.101302
0.190298
0.118835
0.111360
0.037224
0.059384
0.043170
0.038592
0.065567
0.058275
-0.001089
-0.015937
0.123938
-0.017695
0.081793
0.040389
0.003171
0.013695
-0.011708
0.094582
-0.051099
0.043100
-0.065057
-0.031475
-0.016747
-0.071351
-0.031159
-0.029159
-0.043705
0.034306
0.109782
0.061249
0.032215
-0.020848
-0.019979
-0.036521
-0.032499
-0.056172
-0.095603
-0.071329
0.019459
0.138702
0.528105
0.837368
1.173623
1.304129
1.349846
1.219037
0.936898
0.661451
0.417782
0.006481
-0.118298
-0.323216
-0.348500
-0.307673
-0.314924
-0.187427
-0.097386
-0.096269
-0.069920
-0.033749
-0.020319
-0.017491
-0.029896
-0.027443
-0.035703
-0.016106
-0.011747
0.046482
-0.043721
0.006856
-0.064117
-0.094887
0.000599
0.057261
-0.042756
-0.005211
0.023562
-0.097173
0.051348
-0.031465
0.002103
0.145431
0.097708
0.055664
0.041566
0.060176
0.105888
0.113356
0.177650
0.075687
0.112054
0.185671
0.220001
0.198728
0.214078
0.250513
0.198422
0.294875
0.282956
0.326563
0.350686
0.278967
0.369481
0.387041
0.340330
0.470744
0.475707
0.501378
0.489179
0.415737
0.402847
0.417959
0.450495
0.406105
0.462523
0.413673
0.345246
0.379284
0.351410
0.354797
0.301899
0.303643
0.340413
0.310163
0.319250
0.246843
0.164526
0.249583
0.246261
0.171591
0.103398
0.106656
0.120808
0.052988
0.154700
0.001469
0.060610
0.041288
-0.006783
-0.025125
0.010278
0.041995
0.042279
-0.048079
0.046715
-0.009997
-0.017647
-0.000936
-0.071473
-0.157422
-0.060311
-0.107764
-0.004267
-0.017018
-0.058446
-0.096713
-0.072172
-0.032255
-0.066347
-0.028635
-0.081884
-0.081784
-0.084705
-0.068061
-0.078772
-0.087987
-0.103481
-0.062652
-0.027723
-0.117707
-0.064122
-0.099794
-0.038737
-0.119447
-0.029722
-0.030618
-0.048584
0.000352
-0.064721
-0.083271
-0.057368
-0.067066
-0.044012
-0.123518
-0.144128
-0.085546
-0.060340
-0.118886
-0.140554
-0.108094
-0.106258
-0.072084
-0.025392
-0.073678
-0.069340
-0.152322
-0.143805
-0.107483
-0.083596
-0.113049
-0.042608
-0.039898
-0.104733
-0.099014
-0.051173
-0.084958
-0.041541
-0.166307
-0.030174
-0.137715
-0.017699
-0.093891
-0.075595
-0.102703
-0.104393
-0.007166
-0.091027
-0.080284
-0.032283
-0.090101
-0.075897
-0.074750
-0.061935
-0.059558
0.030463
0.003829
-0.025139
-0.115145
-0.049115
-0.058011
-0.072564
-0.029756
-0.053485
-0.126674
-0.101421
-0.080867
-0.007942
-0.055991
-0.083916
-0.044702
0.000399
-0.033156
-0.044659
-0.005897
-0.012842
-0.013398
0.004129
-0.004206
-0.032553
0.008162
0.037407
0.055322
0.081933
0.077461
0.071805
0.121865
0.118418
0.139262
0.087431
0.066053
0.111269
0.097877
0.060202
0.035523
0.119173
0.101437
0.021546
0.087168
0.044262
0.037350
-0.089064
-0.051692
-0.085162
-0.067312
-0.013584
-0.018511
-0.041359
-0.039834
-0.040318
-0.032332
0.066343
-0.114966
-0.043315
-0.040348
-0.101533
-0.072009
-0.051180
-0.004850
0.000063
0.036321
-0.075170
-0.052352
-0.062095
0.013181
-0.050748
-0.034441
-0.095205
-0.104245
-0.046235
-0.031828
-0.049819
-0.106747
-0.123395
-0.150911
-0.208831
-0.047476
0.071809
0.262636
0.539665
0.866624
1.077315
1.319532
1.295784
1.164373
0.868229
0.553680
0.264484
-0.023137
-0.251665
-0.374281
-0.393550
-0.319584
-0.234576
-0.234768
-0.105160
-0.045904
-0.040179
-0.054757
0.013296
0.054894
-0.048665
-0.068795
-0.023262
-0.049232
0.049410
-0.052459
-0.032746
0.038198
-0.056975
0.053582
-0.067151
0.066974
-0.044704
-0.052868
-0.011747
-0.022480
0.036751
0.053645
-0.011751
0.079650
0.090943
0.074815
0.023647
0.086007
0.110509
0.175567
0.092412
0.101056
0.191181
0.177276
0.211673
0.219744
0.265858
0.230347
0.221409
0.293714
0.305684
0.389758
0.342191
0.346903
0.413385
0.466850
0.390103
0.479980
0.442036
0.486351
0.497312
0.429765
0.466344
0.413205
0.448369
0.494784
0.441255
0.454921
0.434223
0.419831
0.508140
0.415210
0.370613
0.370939
0.357103
0.335758
0.392679
0.375087
0.212598
0.251500
0.230635
0.216917
0.193691
0.109735
0.167818
0.150722
0.060282
0.124342
0.007393
0.134148
0.175141
0.046030
0.086381
0.033151
0.046448
0.011825
0.084379
0.061462
0.022262
0.015008
0.025268
-0.037085
0.000616
-0.003426
0.001704
0.017982
0.027280
-0.036908
0.002624
0.039364
0.079346
0.035438
0.000601
-0.016750
-0.004254
-0.000107
0.002568
0.042331
-0.039660
0.050719
0.044471
-0.015945
0.128974
-0.041591
0.062005
-0.022078
0.029932
-0.009641
-0.005551
0.041725
0.038495
0.001183
-0.005772
0.015296
0.011184
0.017890
0.039110
0.034256
0.052389
-0.035029
-0.029012
0.013878
0.017780
-0.023090
0.063284
0.061658
-0.037114
0.006991
0.014135
0.058486
0.000611
0.113094
-0.011250
0.042393
0.041126
-0.019281
0.109359
0.100260
0.062827
-0.066553
0.072467
0.041764
0.054104
0.059953
-0.003126
-0.010329
-0.026683
-0.012620
0.038158
0.026989
0.006257
-0.033100
-0.030243
0.015765
0.062848
-0.010906
0.068314
-0.050793
0.085109
-0.017303
-0.021784
-0.029284
0.043943
0.065859
0.058227
0.030842
0.126200
0.025854
0.045362
0.036917
-0.007813
0.078903
0.145955
0.111931
0.125027
0.165639
0.037207
0.103683
0.208390
0.140828
0.174429
0.111998
0.208660
0.226902
0.196298
0.179739
0.252986
0.240641
0.241993
0.132313
0.305050
0.230942
0.138376
0.158137
0.250177
0.163074
0.141083
0.127325
0.229059
0.194290
0.118787
0.211451
0.129480
0.108377
0.180302
0.091432
0.057767
0.099310
0.095872
-0.015899
0.101700
0.024146
0.047381
0.100834
0.068308
0.077048
0.055461
0.062875
0.078206
0.062451
0.079749
0.048691
-0.008703
-0.002265
0.115057
0.082872
0.049141
0.026020
0.022761
0.022638
0.038069
0.031412
0.034046
-0.032219
-0.019976
-0.040977
-0.042838
0.038505
0.080565
0.406006
0.623374
0.985116
1.317220
1.447938
1.382691
1.259901
0.997467
0.619132
0.344195
0.145288
-0.176830
-0.354191
-0.326239
-0.264650
-0.138103
0.006727
0.019271
0.038791
-0.008665
0.042593
0.001778
0.056200
0.082376
0.059777
0.048360
0.003114
0.015442
-0.033073
0.069412
0.071892
0.075674
0.005994
0.051669
0.038559
0.064525
0.039618
0.112711
0.152825
0.033588
0.069341
0.173835
0.082958
0.181949
0.056819
0.167160
0.174189
0.153078
0.194870
0.240990
0.271178
0.206286
0.225081
0.305409
0.302703
0.331420
0.334523
0.341514
0.391427
0.334455
0.377075
0.380653
0.462467
0.412894
0.507036
0.472189
0.495137
0.521072
0.504716
0.526643
0.446548
0.563265
0.534645
0.505100
0.529731
0.527887
0.498607
0.410801
0.434518
0.472992
0.408708
0.432367
0.431448
0.389705
0.317698
0.343316
0.340671
0.202323
0.215860
0.293370
0.190865
0.271277
0.240901
0.188681
0.149872
0.194128
0.076838
0.137811
0.109500
0.090675
0.052524
0.076594
0.138191
0.075618
0.025744
0.088368
0.001034
0.095828
0.032315
0.094176
0.071924
0.084418
0.027898
0.081773
0.024033
0.048954
0.087377
0.054964
0.007529
0.025348
0.114266
0.004331
0.070501
0.014189
-0.015282
0.001944
0.006221
-0.012775
0.003035
-0.041129
0.004960
0.010151
-0.107887
-0.072344
-0.085129
0.014263
-0.017168
-0.002578
-0.045285
0.021901
-0.035211
0.046215
0.033387
0.056401
-0.046964
-0.009965
0.027947
0.014882
0.060523
-0.012139
-0.075284
0.030207
0.020556
-0.083695
-0.000105
-0.021946
-0.006906
-0.034790
0.022790
-0.012177
0.075460
-0.019582
-0.068242
-0.052942
-0.002668
-0.048877
-0.043402
-0.028372
0.103437
-0.041051
-0.042365
-0.079259
-0.000543
-0.077176
0.006448
-0.002413
-0.085398
-0.025239
-0.045347
-0.025949
0.060341
-0.034312
0.117440
-0.069519
-0.069596
-0.096460
-0.103074
-0.038428
0.018616
-0.063188
0.015086
-0.020973
-0.005900
-0.055048
-0.022497
-0.002496
-0.060035
-0.038004
-0.021134
-0.017323
0.035147
-0.019149
-0.037583
-0.066023
-0.003844
0.061963
0.045771
0.058535
0.062048
0.108762
0.180927
0.057646
0.095253
0.177141
0.101355
0.091568
0.133716
0.206106
0.091171
0.123072
0.160892
0.060005
0.088707
0.169412
0.067902
0.051246
0.097177
0.103610
0.053349
0.018226
0.006744
-0.064259
-0.027931
-0.027378
-0.058510
-0.002527
-0.018718
-0.023301
-0.151290
-0.082674
-0.035303
0.034023
-0.064122
0.073658
-0.072163
-0.081774
-0.054177
-0.127064
-0.074643
-0.046482
-0.041809
-0.051702
-0.076814
-0.071924
-0.090620
-0.055951
-0.023254
-0.097854
-0.162623
-0.033897
-0.107300
-0.061507
-0.040688
-0.017925
-0.094584
-0.173965
-0.046506
0.021904
0.350952
0.562866
0.863146
1.161074
1.296600
1.136743
1.106207
0.786364
0.478898
0.182762
-0.084458
-0.331666
-0.392330
-0.454000
-0.292187
-0.328431
-0.173288
-0.122330
-0.147897
-0.111332
-0.042649
-0.046617
-0.104561
-0.113100
-0.108740
-0.046558
-0.106905
0.009765
-0.147629
-0.016182
-0.028813
-0.004064
-0.077686
-0.128876
-0.061627
0.000776
-0.111645
-0.054453
-0.016136
-0.031336
-0.042145
-0.015899
-0.059767
0.020278
-0.034466
0.007221
0.084472
0.076043
0.025999
0.117378
0.048130
0.137490
0.127221
0.168161
0.145089
0.219055
0.262379
0.194351
0.261919
0.205069
0.295438
0.308592
0.369561
0.364647
0.359132
0.363675
0.423140
0.422566
0.382755
0.475893
0.378777
0.342966
0.425300
0.406845
0.370761
0.403632
0.401908
0.336354
0.405759
0.306825
0.345566
0.252016
0.269495
0.269678
0.228839
0.255445
0.222395
0.201545
0.115674
0.112305
0.114799
0.169718
0.083314
0.006216
0.029040
-0.002708
0.067692
-0.026852
-0.021090
-0.052933
-0.034083
-0.001650
-0.037902
0.062422
0.002853
-0.061933
-0.108067
-0.132724
-0.121193
-0.161209
-0.140980
-0.158519
-0.140710
-0.101677
-0.047110
-0.092771
-0.160746
-0.060772
-0.144941
-0.183575
0.013292
-0.099234
-0.047122
-0.090292
-0.044549
-0.084486
-0.120754
-0.043371
-0.099931
-0.089776
-0.086718
-0.040774
-0.166561
-0.056174
-0.128939
-0.091522
-0.084311
-0.092122
0.002160
-0.038250
-0.141199
-0.083012
-0.155022
-0.003492
-0.134796
-0.098881
-0.039728
-0.103296
-0.093982
-0.081723
-0.061582
-0.074317
-0.087544
-0.136477
0.008507
-0.088593
-0.086812
-0.045231
-0.088999
-0.077012
-0.074591
-0.084876
-0.032117
-0.027211
-0.057569
-0.113560
-0.033817
-0.187853
-0.186964
-0.121198
0.001619
-0.080308
-0.076322
-0.128046
-0.119883
0.002579
-0.114632
-0.126801
-0.061846
-0.066655
-0.044841
-0.048497
-0.098393
-0.080370
-0.075533
-0.059662
-0.044151
-0.119508
-0.057396
-0.107865
0.021994
-0.026698
-0.072122
-0.112797
-0.136060
-0.051831
-0.042834
-0.090722
-0.067121
-0.102111
0.018749
-0.035564
-0.043740
0.000758
0.036183
-0.027873
-0.054776
0.048915
0.037062
0.018049
0.120475
0.014886
0.034752
0.135563
0.042357
0.159838
0.055266
0.149601
0.060204
0.072471
0.008388
0.049709
0.192026
0.058204
0.135864
0.116323
0.017971
0.045076
-0.035871
0.012151
0.010998
0.008161
-0.019871
0.065983
0.013601
0.060228
-0.029740
0.039405
-0.037449
-0.102456
0.002230
-0.116002
-0.037514
-0.039949
-0.035296
-0.042838
-0.003611
-0.018691
0.049252
-0.086806
-0.055223
-0.100557
-0.063801
-0.122843
-0.020454
-0.074335
-0.093164
0.016727
0.000287
-0.112281
-0.085033
-0.118501
0.011832
-0.116791
-0.143534
-0.086818
-0.026798
0.149441
0.395097
0.681273
1.028341
1.205498
1.359292
1.218918
1.128110
0.818135
0.426470
0.181405
-0.126915
-0.192517
-0.317717
-0.287040
-0.303075
-0.170431
-0.123606
-0.053869
-0.014889
0.034462
0.009229
0.021823
-0.041655
-0.002990
-0.038814
0.031414
0.015900
0.012972
-0.033325
-0.025072
-0.040511
-0.057249
0.013319
0.023307
-0.041752
-0.009769
0.090354
-0.079756
0.056693
-0.007945
0.105156
0.020731
0.088256
0.094048
0.122878
0.126943
0.109773
0.158394
0.235091
0.125776
0.124094
0.204071
0.253410
0.233441
0.328918
0.285701
0.319593
0.277642
0.367474
0.392654
0.380709
0.369912
0.490286
0.359394
0.492960
0.433802
0.476630
0.481904
0.495035
0.536992
0.513083
0.481468
0.491879
0.438988
0.465460
0.507837
0.495962
0.474385
0.457099
0.400979
0.435045
0.463301
0.378181
0.404503
0.372010
0.327764
0.297727
0.277634
0.318405
0.289506
0.232936
0.189663
0.179709
0.183583
0.153091
0.202171
0.187524
0.166372
0.155424
0.132224
0.098743
0.126088
0.056492
0.143447
0.150550
0.063240
0.066730
0.038853
0.056341
0.099653
0.064549
0.008520
0.030959
0.028820
-0.001732
-0.000364
0.026303
0.057021
0.067094
0.095203
0.051707
0.016834
0.037128
0.087248
0.054661
0.069414
-0.005767
0.140329
0.019372
0.154405
0.058513
0.006529
0.078275
0.080100
0.077938
0.020503
-0.049989
0.024398
0.031557
0.077626
0.072797
0.039030
0.064325
0.070076
-0.089428
0.008886
0.111955
0.115655
0.065857
0.078056
-0.059107
0.013678
0.109844
0.034795
0.111801
0.039826
0.075750
0.020451
0.061852
0.122623
0.007551
0.150296
0.135719
-0.011557
0.099255
0.134325
0.092227
0.001613
0.062254
0.038596
0.093916
0.033497
0.062787
0.078215
0.061329
0.083002
0.084297
0.054010
0.133882
0.083374
0.049883
0.077124
0.069548
0.107392
0.087202
0.088964
0.075637
0.068098
0.074123
0.049397
0.081425
0.033292
0.087788
0.126817
0.021836
0.142317
0.096800
0.135240
0.101067
0.045736
0.086449
0.080381
0.073800
0.153975
0.167597
0.124221
0.200680
0.253909
0.107593
0.086423
0.153056
0.180568
0.226883
0.218692
0.214854
0.132159
0.264354
0.157627
0.237920
0.311395
0.237669
0.251245
0.175011
0.187409
0.209126
0.204808
0.161622
0.268832
0.148085
0.195662
0.183526
0.158276
0.164852
0.065300
0.166986
0.153648
0.174137
0.085735
0.026815
0.050621
0.028387
0.153823
0.011923
0.107733
0.052289
0.121072
0.068991
0.049667
0.117033
0.071627
0.084955
0.024072
0.025775
0.048661
