0.035362
0.015612
0.037067
0.011805
-0.052940
-0.019979
0.063551
-0.011456
-0.003697
-0.068972
-0.013092
-0.002335
0.052888
-0.052021
0.069858
-0.033815
-0.075264
0.004893
-0.029110
0.047898
-0.000930
0.009227
0.032785
-0.014860
0.036266
0.012825
-0.091686
-0.003937
0.045063
-0.011571
0.063548
0.001179
-0.021351
0.032644
0.080848
0.026301
0.054794
0.053442
0.034260
0.051155
0.052626
0.067421
0.034493
0.071919
0.004353
0.052708
0.113042
0.072191
0.009123
0.138352
0.136995
0.189759
0.149713
0.147352
0.213479
0.084480
0.178565
0.170107
0.173640
0.222465
0.185601
0.190803
0.209454
0.120277
0.114238
0.160432
0.139026
0.208788
0.148932
0.154288
0.097667
0.116598
0.126710
0.119243
0.144501
0.104358
0.065415
0.038329
0.058302
0.062719
0.040457
0.051760
0.036854
0.062910
0.077080
0.030895
0.113039
0.077052
0.071295
0.044430
0.073314
0.016097
0.076080
0.052843
0.035277
0.116975
0.071646
0.112362
0.099290
0.072850
0.016675
-0.065598
0.094214
0.007986
-0.036363
0.042197
0.125692
0.009677
0.047854
0.055945
0.075066
0.043521
-0.038915
-0.020961
-0.019819
0.253245
0.491919
0.847696
1.242896
1.404369
1.488240
1.373348
1.216390
0.888906
0.617186
0.257512
0.062417
-0.119393
-0.272423
-0.210019
-0.261029
-0.243829
-0.063796
-0.004218
0.006990
0.064554
0.130721
0.031521
0.068455
0.054148
0.105279
0.088525
0.136933
0.106576
0.109424
0.113552
0.127984
0.049170
0.091622
0.185723
0.067165
0.143860
0.057409
0.136207
0.100511
0.151341
0.078306
0.087652
0.110711
0.122209
0.096988
0.153970
0.147707
0.066309
0.112916
0.152621
0.158658
0.225249
0.181966
0.172586
0.249520
0.308240
0.297931
0.260799
0.319832
0.230043
0.352633
0.321419
0.434626
0.301672
0.367637
0.396761
0.465655
0.436897
0.398311
0.482790
0.496529
0.549265
0.535893
0.530901
0.510859
0.561651
0.622386
0.582120
0.558630
0.557551
0.528928
0.578020
0.522938
0.577595
0.566365
0.548050
0.524388
0.551062
0.520520
0.497448
0.479635
0.481242
0.369542
0.469763
0.355052
0.258277
0.332432
0.291933
0.216083
0.305106
0.279008
0.278725
0.229490
0.270559
0.190054
0.185288
0.203631
0.162569
0.126152
0.087087
0.178465
0.118235
0.084468
0.116303
0.058675
0.018786
0.098110
0.049531
0.167549
0.089773
0.091668
0.152681
0.089616
0.077988
0.001966
0.125033
0.022993
0.045256
0.106891
0.071090
0.124071
0.018269
0.116725
0.065004
0.064116
0.102525
0.082933
0.105670
0.070335
0.178866
0.149267
0.115777
0.117199
0.113186
0.119817
0.051941
0.073082
0.104686
0.125889
0.107860
0.090837
0.035797
0.119192
0.041494
0.074792
0.060003
0.100768
0.105393
-0.011349
0.227782
0.057289
-0.015503
0.114247
0.008924
0.049604
0.034076
0.112036
0.015746
0.123800
0.164571
0.045810
0.090118
0.017313
0.077008
0.045236
0.033920
0.028236
0.063293
0.044864
0.084466
0.062666
0.041740
0.088053
0.119032
0.066810
0.060321
0.017691
0.040150
0.044178
0.073898
0.012232
0.000285
0.075492
0.104516
0.128762
0.093585
0.115611
0.097499
0.071278
0.079787
0.072910
0.011206
0.033925
0.019421
0.084251
0.103700
0.061623
0.002955
0.101392
0.073451
0.107312
0.067141
0.101719
0.103804
0.054889
0.048226
0.106993
0.062379
0.113181
0.116824
-0.014518
0.004242
0.018923
0.058959
0.065797
0.059996
0.080608
0.108611
0.101618
0.059710
0.121465
0.061840
0.152390
0.108061
0.181654
0.213496
0.158130
0.167905
0.201505
0.284444
0.144537
0.230525
0.188336
0.152318
0.222568
0.189713
0.202006
0.211680
0.188446
0.135894
0.156423
0.123880
0.139468
0.165828
0.083622
0.141204
0.116936
0.108365
0.088884
0.121526
0.048606
0.060205
0.122038
0.092580
0.048920
0.045831
0.020804
-0.005044
0.042732
0.027688
0.051740
-0.006684
-0.032323
-0.056057
0.037308
0.031492
0.031806
-0.015115
0.025058
0.109081
0.060249
0.001629
-0.020849
-0.025908
0.024765
0.007279
0.125680
0.076695
-0.072867
-0.025080
0.021808
0.050245
-0.022609
0.050036
-0.055454
-0.147204
-0.071042
-0.097215
-0.004563
0.133204
0.408752
0.703839
1.093062
1.292099
1.500000
1.331701
1.053041
0.764311
0.490041
0.213936
-0.030360
-0.172239
-0.241669
-0.420363
-0.316813
-0.286838
-0.125111
-0.060201
-0.055784
-0.021900
-0.037738
-0.000106
-0.078011
-0.052685
0.010960
0.020533
-0.027681
0.012134
-0.049895
-0.016345
-0.018230
0.046340
0.014381
-0.022737
0.052435
0.077798
-0.008312
-0.076635
0.042904
-0.029907
0.059745
0.013329
-0.060154
-0.056673
0.063926
0.059968
0.063315
-0.004440
0.052205
0.013799
0.125085
0.036043
0.138347
0.070381
0.205216
0.064096
0.156051
0.081506
0.130714
0.193828
0.144289
0.300277
0.294723
0.296069
0.280411
0.167462
0.295875
0.322365
0.348325
0.361094
0.390517
0.344861
0.455203
0.473122
0.491658
0.492335
0.412868
0.463607
0.465669
0.437483
0.415295
0.494497
0.429839
0.453205
0.476744
0.482587
0.443509
0.393967
0.375368
0.388934
0.372775
0.275135
0.320591
0.278296
0.368549
0.262951
0.299287
0.173848
0.267076
0.226150
0.185162
0.099958
0.143860
0.150200
0.097150
0.103948
0.057606
0.017561
-0.005976
0.059627
0.071669
-0.019216
0.031693
-0.007602
0.017830
0.035307
-0.129358
0.013523
-0.094823
-0.033186
-0.082897
0.071758
-0.086065
-0.011868
-0.032814
-0.137163
-0.092683
-0.021405
0.003201
-0.067650
-0.036661
-0.084434
-0.055269
0.023406
-0.017736
-0.051376
-0.081392
-0.039746
0.033094
-0.089889
-0.042337
-0.071722
-0.032980
0.052072
-0.059026
-0.044298
-0.120649
-0.085777
-0.068024
-0.074062
0.001468
0.009528
-0.077305
-0.021119
0.012816
0.020577
-0.064730
-0.043030
-0.024759
-0.079858
-0.062948
-0.065420
-0.073133
-0.109730
-0.049013
-0.039662
0.049631
0.001000
-0.037129
-0.108151
-0.046566
-0.062052
-0.026757
0.011289
0.001352
-0.057335
-0.134705
0.017077
-0.055111
-0.065454
-0.003683
-0.081660
-0.039913
0.000056
-0.041925
-0.083999
-0.128174
-0.079658
-0.077350
-0.061479
-0.067102
-0.160258
0.023002
-0.069451
0.036198
0.073627
-0.030229
-0.072976
-0.039779
-0.031243
0.023480
-0.078364
-0.006863
0.015738
0.021172
-0.047883
-0.058272
0.009037
-0.063824
-0.047400
0.024765
-0.019777
0.079817
0.026843
0.012853
-0.042532
-0.077680
-0.043598
-0.048865
-0.078273
0.010633
-0.054833
-0.013401
-0.003121
0.002196
-0.025478
0.003288
0.077371
0.051716
-0.076814
-0.040969
-0.004716
-0.030912
0.043939
0.038834
0.118706
0.089044
0.115078
0.114727
0.122998
0.135721
0.091840
0.159626
0.121325
0.138093
0.056869
0.153594
0.173087
0.170875
0.090338
0.235002
0.065059
0.143313
0.140626
0.077550
0.095994
0.063127
0.075265
0.100451
-0.042482
-0.028152
0.061531
0.014198
0.039738
-0.038564
0.078466
0.039082
-0.034454
0.017997
0.002510
0.007856
-0.072284
-0.014181
0.031694
-0.049357
0.050294
-0.001374
0.041844
-0.008552
-0.036593
0.072946
0.061502
-0.053549
0.037874
0.010566
-0.048480
-0.090018
0.032886
0.061148
-0.050339
-0.026124
0.001171
0.011098
-0.070432
-0.064182
-0.090028
-0.153874
-0.155354
-0.113501
0.242658
0.335384
0.747171
1.046564
1.344273
1.401063
1.325265
1.181997
0.853210
0.477884
0.312874
0.001188
-0.176863
-0.295984
-0.420505
-0.280746
-0.260392
-0.107496
-0.135777
-0.106552
0.025432
0.039140
0.030679
0.092200
0.034687
0.046237
-0.001449
-0.034358
0.007492
0.017439
-0.031561
0.012048
0.044976
0.002453
0.081336
-0.054251
-0.033944
0.046270
0.041083
-0.003103
0.018727
0.100473
0.024820
-0.017758
0.017830
0.089753
0.052313
0.071076
0.049193
0.104344
0.043610
0.056119
0.140851
0.130637
0.098636
0.152492
0.153077
0.102040
0.160345
0.218763
0.229928
0.305877
0.276176
0.269104
0.334290
0.278667
0.342197
0.375806
0.439324
0.462622
0.391141
0.419255
0.507491
0.496590
0.487379
0.525573
0.493039
0.561397
0.524379
0.530545
0.509336
0.570527
0.516587
0.551788
0.523578
0.583299
0.517305
0.487750
0.487623
0.545131
0.321067
0.429640
0.468628
0.366743
0.432506
0.389094
0.354478
0.264065
0.269094
0.279631
0.227078
0.289787
0.211851
0.187535
0.282195
0.168563
0.171656
0.171079
0.231702
0.147188
0.121837
0.137084
0.096339
0.129061
0.101518
0.066826
0.149043
0.066708
0.021227
0.030980
0.029427
0.048146
0.151639
0.164197
0.129291
0.083353
-0.020333
0.087203
0.066211
0.048243
0.051371
0.091001
0.158440
0.057163
0.060842
0.191206
0.064717
0.107212
0.112396
0.068198
0.053636
0.126756
0.045841
0.116446
0.092284
0.060168
0.094061
0.017497
0.089277
0.049253
0.077444
0.198752
0.136811
0.150217
0.099107
0.116850
0.024276
0.099297
0.123732
0.097722
0.065829
0.067183
0.153714
0.145486
0.165437
0.155088
0.147410
0.063766
0.093540
-0.005640
0.040025
0.055244
0.143230
0.101715
0.106277
-0.001435
0.019669
-0.043032
0.075001
0.140952
0.079716
0.093633
0.113269
0.100996
0.139845
0.141641
0.096499
0.123046
0.120066
0.119955
0.070737
0.121479
0.116962
0.119302
0.148873
0.096820
0.059275
0.028595
0.119925
0.081597
0.143485
0.067144
0.139831
0.121571
0.097845
0.127766
0.162533
0.134732
0.125212
0.037525
0.127158
0.203973
0.080870
0.080099
0.013406
0.131701
0.088697
0.035181
0.102324
0.077999
0.101096
0.050236
0.119728
0.143909
0.112816
0.070463
0.111493
0.151304
0.179110
0.088610
0.165818
0.122947
0.126769
0.121937
0.185172
0.188893
0.263935
0.267870
0.232581
0.284197
0.242978
0.184187
0.251891
0.197159
0.223453
0.289416
0.377007
0.232165
0.242663
0.180350
0.229292
0.245048
0.200949
0.234905
0.173373
0.103712
0.196522
0.180841
0.177011
0.119979
0.028063
0.180870
0.140495
0.063552
0.074244
0.118167
0.058690
0.064368
0.076907
0.089605
0.081356
0.023182
0.153813
0.054650
0.039686
0.096485
0.120541
0.131418
0.025787
0.149429
0.047987
0.037806
0.128425
0.073323
0.041517
0.061926
0.084649
0.052074
0.115624
0.021259
0.104964
0.084375
0.030248
0.099054
0.082321
0.054391
0.015170
-0.018644
0.061750
0.057829
0.234787
0.467370
0.807691
1.151158
1.367078
1.473759
1.407578
1.190792
0.931243
0.659913
0.240088
0.121485
-0.136756
-0.200589
-0.289360
-0.289823
-0.160280
-0.177405
-0.049256
0.046704
0.035775
0.082352
0.047029
-0.036283
0.099879
0.036403
0.074500
0.011761
0.026297
0.054282
0.142285
0.049928
0.067555
-0.032002
0.065259
0.078154
0.002597
0.028582
-0.019413
0.076919
0.091426
0.148593
0.097233
0.051581
0.152367
0.128539
0.089692
0.066551
0.119955
0.140387
0.155676
0.068789
0.133851
0.174996
0.127679
0.199406
0.172182
0.224608
0.201997
0.239232
0.256906
0.157895
0.360507
0.316932
0.364001
0.345654
0.401619
0.357761
0.377026
0.461672
0.454591
0.414621
0.517386
0.440897
0.466506
0.513346
0.534089
0.482733
0.516343
0.507740
0.551123
0.493139
0.535045
0.560093
0.494258
0.473194
0.526968
0.448937
0.517713
0.485255
0.398984
0.385455
0.455241
0.402123
0.399718
0.336079
0.231323
0.314799
0.248942
0.189713
0.247097
0.230557
0.226430
0.201849
0.177104
0.101863
0.084799
0.090660
0.164299
0.111221
0.153494
0.045993
-0.012232
0.045337
0.114291
0.088744
-0.045227
-0.022672
0.024251
-0.015755
-0.061334
-0.006325
0.013920
0.039801
-0.072614
0.119775
-0.035000
0.030075
0.071750
-0.042920
0.066750
-0.018515
0.035187
-0.013212
-0.056629
0.037203
0.045563
-0.012480
0.001388
0.029972
-0.041776
0.005776
-0.006508
-0.072197
0.108495
-0.048721
0.000243
0.038483
0.057717
0.011946
-0.071868
0.024240
-0.009127
0.027506
-0.047919
0.032721
-0.057501
0.013499
-0.037980
-0.094695
-0.027958
0.017205
-0.007784
-0.042784
0.027519
-0.055044
-0.046328
-0.026327
-0.040041
0.008185
-0.058191
-0.000172
0.021715
-0.078755
-0.055015
-0.050979
-0.069006
0.015546
0.027802
-0.032487
-0.070889
0.053129
-0.011734
-0.033749
0.003090
0.026089
-0.038514
-0.083563
-0.010564
-0.012281
-0.041948
-0.047540
-0.098478
-0.005497
-0.067130
-0.044318
-0.031165
-0.031325
-0.120073
-0.026939
-0.002691
-0.062495
-0.104138
0.029360
-0.011835
-0.010877
-0.037879
-0.038426
-0.025297
-0.001474
-0.005261
-0.118138
-0.004920
-0.052101
-0.043413
0.024629
-0.014303
-0.072460
-0.113426
-0.068795
-0.085660
-0.053825
-0.026264
0.025717
-0.013236
-0.032166
-0.026806
0.080873
0.015911
-0.001781
0.015934
-0.002097
0.050876
0.018178
0.069281
-0.018992
0.103829
0.052220
0.141188
0.064555
0.077168
0.164766
0.157505
0.051099
0.107290
0.048638
0.133990
0.167169
0.133791
0.082589
0.072708
0.065941
-0.020787
-0.006868
-0.020820
-0.023278
-0.008430
0.012801
-0.025616
-0.024920
-0.045147
-0.014351
-0.013788
0.004457
-0.029983
-0.045869
-0.079211
-0.057590
-0.057090
0.009301
-0.059795
-0.118941
-0.096323
-0.042796
-0.103822
-0.086726
-0.143684
-0.055589
-0.124723
-0.064985
-0.035145
-0.149439
-0.039774
-0.093725
-0.035651
-0.062958
-0.088453
-0.055012
-0.089543
-0.043138
0.031354
-0.122756
-0.088559
-0.093593
-0.130008
-0.072060
-0.144038
-0.224427
-0.161928
-0.185565
0.063830
0.337876
0.757302
0.976409
1.139519
1.352751
1.250734
1.069838
0.812543
0.478302
0.169037
-0.090255
-0.196563
-0.399433
-0.431358
-0.445850
-0.324199
-0.282715
-0.160604
-0.065720
-0.110741
-0.040261
-0.145509
-0.088935
-0.056884
-0.071227
-0.063417
-0.039938
-0.057364
-0.110750
-0.150483
-0.127853
-0.152879
-0.117724
-0.119083
-0.121945
-0.059183
-0.122411
-0.081883
-0.123298
0.072969
-0.065160
-0.085111
-0.059278
-0.115315
-0.005178
-0.024941
-0.028299
0.042724
-0.016519
0.008402
0.051495
-0.024502
0.018671
0.013454
-0.007341
0.030989
0.131063
0.100766
0.176531
0.082313
0.085416
0.161097
0.163543
0.329738
0.247970
0.271027
0.286465
0.259386
0.337851
0.362849
0.333594
0.354812
0.427649
0.449819
0.383745
0.472654
0.413344
0.438876
0.452346
0.480265
0.463398
0.267546
0.330615
0.391108
0.432883
0.343621
0.382099
0.362611
0.294953
0.274715
0.315409
0.351290
0.260295
0.198492
0.292005
0.192726
0.209924
0.133199
0.203670
0.102630
0.180381
0.130803
0.065221
0.061015
0.030353
0.159867
0.062690
0.021136
0.009949
-0.031947
-0.033073
-0.056553
0.028829
-0.015690
-0.040046
-0.024235
-0.036069
-0.035708
-0.084723
-0.040033
-0.114827
-0.061490
-0.046913
-0.052646
-0.091824
0.046628
-0.097117
-0.008237
-0.074706
-0.036289
-0.089618
-0.075933
-0.067066
-0.040721
0.042887
-0.072779
-0.106908
-0.074209
-0.024233
-0.093694
0.011014
-0.046410
-0.002287
-0.035297
0.044619
-0.037389
-0.063678
0.000054
-0.018370
-0.011198
-0.017052
-0.055235
-0.065719
-0.047946
-0.037058
-0.134183
-0.022842
-0.075236
0.041756
-0.029527
-0.088141
0.046839
-0.082410
0.001452
0.018390
-0.002639
-0.011213
0.011332
-0.112898
-0.006347
0.017693
0.005330
-0.095430
-0.001327
-0.020282
-0.047763
-0.028843
-0.071496
-0.074874
-0.030633
-0.015437
-0.051220
-0.024029
-0.066688
-0.051082
-0.016441
-0.051971
-0.007614
-0.074862
-0.061558
0.017657
-0.011849
-0.005800
-0.037378
-0.030672
-0.009840
0.033395
0.003598
-0.052091
-0.029468
-0.016383
-0.029548
-0.010230
-0.041567
-0.048881
-0.004652
-0.062035
0.044599
-0.055290
0.099271
0.111968
0.046213
0.022900
0.000451
-0.008917
-0.099784
0.010865
-0.009145
0.059419
-0.092581
0.062600
0.032886
-0.026895
-0.015491
0.091116
0.069677
-0.040582
0.004333
0.032673
0.019888
0.083868
0.038558
0.056807
0.059923
0.057487
0.195926
0.154219
0.178731
0.113647
0.170152
0.052060
0.121362
0.250385
0.222610
0.099410
0.217859
0.226530
0.177520
0.123763
0.175237
0.211103
0.112788
0.210098
0.172091
0.098855
0.101619
0.074908
0.035150
0.092375
0.027987
0.054893
-0.026418
0.097133
-0.006815
0.025424
0.064096
0.048075
0.090225
0.050142
0.048026
0.004301
-0.017990
-0.000915
-0.079910
0.019870
0.017282
-0.005885
0.058183
0.013896
0.005342
-0.010576
0.091346
-0.096692
0.013375
0.056143
-0.011948
0.073627
0.002632
0.021372
0.001424
0.035216
0.079039
0.046360
0.023557
-0.076048
-0.111502
-0.052666
-0.125699
-0.053050
0.180745
0.523549
0.808089
1.105757
1.385780
1.457547
1.355278
1.239110
0.840119
0.562055
0.260253
0.083248
-0.146196
-0.342978
-0.298083
-0.329985
-0.219951
-0.145247
-0.024855
0.096780
0.033370
0.093394
0.048441
0.098536
-0.037776
0.029444
-0.019113
0.035563
0.023794
0.134996
0.068931
0.038571
0.051179
-0.026955
0.014905
0.076782
0.043007
0.056837
0.117791
0.006510
0.139398
0.099954
0.070341
0.078375
0.025593
0.012282
0.036841
0.081430
0.084211
0.188392
0.149558
0.178989
0.233082
0.201913
0.113622
0.210577
0.223995
0.180430
0.226074
0.209983
0.245396
0.273787
0.317695
0.304672
0.338203
0.300435
0.360655
0.392301
0.427474
0.373377
0.456564
0.521646
0.402884
0.477654
0.549986
0.504405
0.527543
0.501873
0.520006
0.498335
0.566393
0.543243
0.582211
0.535552
0.490677
0.432764
0.516772
0.548024
0.517620
0.445775
0.431129
0.434245
0.464679
0.408822
0.323370
0.353941
0.353599
0.214204
0.232270
0.264449
0.278463
0.271473
0.252288
0.151020
0.189393
0.120722
0.170975
0.191198
0.165327
0.069725
-0.023278
0.146754
0.108219
0.084963
0.072569
0.113660
0.096392
0.076707
0.158791
0.100519
0.066688
0.055191
-0.036074
0.074234
-0.006818
0.009776
0.050795
0.012666
0.076871
0.066283
0.040004
-0.014890
0.055816
0.027424
0.015759
0.041895
0.072039
0.010548
0.070622
0.002953
0.024163
0.073497
0.022121
0.004783
0.061038
0.102008
-0.023093
0.002280
0.054874
0.069640
0.080957
0.103464
0.040071
-0.017864
0.033594
0.088054
0.032900
0.082029
0.075961
0.002231
0.040071
0.115563
0.054534
0.025389
0.006662
0.096019
0.021679
0.046847
-0.037451
-0.021924
0.058450
0.077124
0.077142
0.034770
0.035119
-0.006687
0.000611
0.103778
-0.035599
-0.026203
-0.030084
0.057024
-0.000087
0.011684
0.021911
-0.048938
0.103998
0.053718
0.033096
0.050003
0.037951
0.082062
-0.004967
0.042678
0.038434
-0.007644
-0.005327
0.027386
0.013097
-0.012521
0.013589
-0.005995
0.013615
0.052321
0.001748
0.004934
-0.055548
-0.001256
-0.039176
-0.012245
0.046024
0.093135
0.032523
0.037564
0.058536
-0.061321
0.040058
-0.044782
0.041819
0.063719
0.030766
-0.010894
0.001686
-0.010061
-0.005961
0.075485
-0.025912
0.070430
0.056323
0.078336
0.018875
0.141966
0.075119
0.167641
0.141035
0.140088
0.128798
0.051551
0.135703
0.208346
0.178231
0.080333
0.175823
0.144130
0.176335
0.271884
0.286240
0.143867
0.127442
0.138102
0.192090
0.151498
0.131110
0.142731
0.089779
0.048364
0.060333
0.098967
0.034070
0.097322
0.033972
0.037345
0.028030
0.006149
-0.031208
0.016263
0.011295
-0.006796
-0.063072
0.003441
0.002515
-0.027854
-0.064231
-0.025646
-0.071696
0.001631
-0.029815
-0.054742
-0.033369
0.005479
-0.022085
-0.053429
0.015847
-0.063519
-0.009674
-0.043337
0.039718
-0.067542
0.018697
-0.055343
-0.003644
-0.047772
0.047763
-0.026940
-0.090302
-0.075386
-0.048140
-0.196056
-0.160255
-0.069663
0.082973
0.349553
0.755892
1.072983
1.287298
1.446606
1.303862
1.097368
0.815268
0.443889
0.161597
-0.030402
-0.198877
-0.369363
-0.471850
-0.354935
-0.289201
-0.206224
-0.177537
-0.015708
-0.109866
-0.014244
-0.048162
-0.106705
0.029325
-0.028065
-0.147499
-0.074979
0.015380
-0.021893
-0.059674
-0.046617
-0.070364
-0.012872
-0.046688
-0.041747
-0.069176
-0.055035
-0.048486
-0.077432
-0.074789
-0.009969
0.047256
-0.006686
-0.053459
0.114832
-0.081158
-0.030313
-0.028009
0.007385
-0.015326
0.038703
0.003633
0.025908
0.017520
0.095858
0.100107
0.078371
0.083338
0.165048
0.186248
0.133638
0.169975
0.169822
0.192997
0.305373
0.215978
0.233666
0.283187
0.294230
0.325253
0.404888
0.348844
0.362815
0.376049
0.367234
0.394839
0.458580
0.419140
0.412867
0.403088
0.383560
0.410808
0.406010
0.366956
0.398459
0.331419
0.364042
0.321112
0.331073
0.364906
0.282125
0.315214
0.272845
0.227491
0.256127
0.165049
0.224248
0.116688
0.178258
0.097930
0.131762
0.072868
0.012653
0.069526
0.040330
-0.021149
0.038918
0.026909
0.010288
-0.029571
-0.017700
-0.056148
-0.040088
0.004933
-0.076816
-0.041594
-0.101170
-0.047437
-0.072688
-0.073689
-0.014868
-0.058033
-0.067712
-0.124395
-0.063614
-0.130471
-0.095225
-0.036924
-0.052566
-0.067111
-0.088618
-0.039174
-0.114752
-0.070755
-0.059786
-0.104771
-0.154114
-0.059254
-0.113867
-0.195981
-0.104316
-0.113993
-0.084770
-0.102037
-0.113979
-0.085530
-0.101174
-0.037477
-0.129564
-0.136599
-0.073357
-0.110777
-0.084168
-0.130476
-0.109239
-0.139389
-0.051464
-0.096991
-0.067023
-0.032855
-0.073055
-0.073048
-0.087781
-0.105329
-0.150483
-0.168274
-0.174555
-0.041051
-0.034390
-0.024405
-0.107957
-0.083094
-0.115989
-0.161652
-0.082106
-0.076279
-0.172905
-0.087032
-0.111835
-0.023063
-0.159159
-0.047624
-0.116152
-0.138747
-0.082197
-0.122744
0.009783
-0.101833
-0.039840
-0.083890
-0.193211
-0.095237
-0.097482
-0.112083
-0.102575
-0.153825
-0.086881
-0.121336
-0.174111
-0.105718
-0.036454
-0.125108
-0.086333
-0.067251
-0.132301
-0.072318
-0.123154
-0.105156
-0.059137
-0.069582
-0.034584
-0.142461
-0.143179
-0.077512
-0.029487
-0.061416
-0.003125
-0.104812
-0.137163
-0.126888
-0.006294
-0.006597
-0.058271
-0.076466
-0.026112
-0.036514
-0.092034
0.000299
-0.061074
0.075913
-0.025426
0.048695
-0.043408
0.039291
-0.051461
0.099434
0.016675
0.093568
0.073922
0.047658
0.083964
0.039137
0.083589
0.106840
0.119750
0.071270
0.029477
0.068339
0.090106
0.001567
0.135832
0.023948
0.060202
0.020004
0.050905
-0.009560
0.022593
-0.008904
0.069536
-0.043308
0.024590
-0.065714
-0.056289
-0.187004
-0.021563
-0.016376
-0.071335
-0.121554
-0.035893
-0.126130
-0.075861
-0.031703
-0.030243
0.040803
-0.059997
-0.138891
-0.052670
-0.049231
-0.068764
-0.161952
-0.108645
0.029646
-0.150913
-0.130776
-0.049711
-0.030206
-0.003806
-0.046055
-0.038320
-0.020922
-0.112143
-0.070319
-0.017005
-0.069353
-0.082584
-0.233795
-0.206303
-0.142617
-0.088552
0.139608
0.383611
0.689940
1.100864
1.272923
1.433305
1.302151
1.033896
0.792363
0.481149
0.208371
0.004583
-0.178096
-0.341672
-0.384990
-0.350767
-0.274053
-0.319266
-0.069947
-0.070186
-0.059967
-0.079945
-0.056434
0.062040
0.013714
-0.015881
-0.082637
0.032017
-0.018913
0.123140
0.012350
-0.029856
-0.075321
-0.094248
-0.058864
0.017038
-0.068562
0.027962
-0.001953
-0.051093
0.041980
0.071963
-0.034843
-0.013582
-0.001619
-0.011962
-0.051976
-0.009052
-0.027761
0.051725
0.013054
0.069440
0.012789
0.120611
0.073147
0.155477
0.091580
0.111932
0.197958
0.142897
0.106622
0.177528
0.218572
0.268604
0.261157
0.289650
0.321835
0.378640
0.332017
0.352324
0.373717
0.454840
0.421901
0.362588
0.462505
0.493911
0.465584
0.407387
0.503538
0.530533
0.480595
0.488284
0.518011
0.464068
0.466220
0.432071
0.410226
0.433037
0.527522
0.347558
0.410223
0.374577
0.405565
0.349247
0.375706
0.264841
0.213682
0.320418
0.295088
0.191369
0.350447
0.181118
0.219001
0.162066
0.212029
0.187100
0.155970
0.088178
0.151070
0.123404
0.102398
0.041613
0.071106
-0.034550
0.047846
-0.008750
0.108763
0.123357
0.027063
0.099160
0.079821
0.085309
0.046259
-0.014424
0.034220
-0.005760
0.125659
-0.052871
0.016733
0.008000
0.091688
0.108534
0.044995
0.002860
0.019155
0.026121
0.022274
-0.039821
0.077082
0.054195
0.069718
0.004799
0.124532
-0.012960
0.039660
0.062802
0.072905
-0.015195
0.019566
0.001416
0.064577
0.006975
0.068665
-0.005588
-0.037164
0.027359
0.155254
0.115837
0.053389
0.018865
0.102067
0.152067
0.031254
0.106275
0.015627
-0.023889
0.009094
0.140604
0.058790
0.005961
-0.048061
0.073439
0.017148
0.022087
0.076759
0.018041
0.061339
0.059782
0.092568
0.044138
0.002712
0.005113
0.056641
0.086638
0.028116
0.014195
-0.004942
0.061050
0.091177
0.018318
0.038885
0.039060
0.007377
0.080973
0.045101
0.024613
0.028402
0.024588
0.054960
0.032076
0.072851
0.094375
0.056551
0.000371
0.106542
0.080478
0.076134
0.103080
0.056019
0.041383
0.103399
0.091035
0.042020
0.048760
0.025262
0.038842
0.124143
0.069195
0.069834
0.098420
0.099070
0.051693
0.087171
0.018918
0.058417
0.114475
0.060580
0.115422
0.110261
0.070619
0.067354
0.136068
0.117658
0.116463
0.148730
0.228782
0.195060
0.171240
0.187822
0.119651
0.216469
0.222374
0.278883
0.191740
0.328710
0.186520
0.222440
0.272100
0.214780
0.279401
0.301237
0.276166
0.279498
0.227437
0.114141
0.207076
0.137137
0.166228
0.158592
0.103482
0.146610
0.154493
0.061935
0.096816
0.039054
0.156147
0.083498
0.107992
0.100790
0.078252
0.117229
0.075686
0.074032
0.125621
0.026692
0.074144
0.032373
0.001681
0.059268
0.122989
0.096209
0.012835
0.141934
0.048641
0.116933
