-0.030096
-0.057340
-0.075199
0.005358
-0.007286
0.025888
0.018388
0.078274
-0.029861
0.055554
0.018689
-0.015566
-0.026321
0.033335
0.053242
0.077818
0.140390
0.092013
0.075029
0.125900
0.077788
0.115499
0.030715
0.092490
0.163744
0.168756
0.165907
0.205128
0.078554
0.151412
0.182089
0.182114
0.170523
0.207861
0.250690
0.207703
0.161365
0.124395
0.134969
0.202433
0.016281
0.103459
0.064714
0.091115
0.141422
0.064462
0.096809
0.155683
0.144112
0.065681
0.091400
0.101278
0.065343
0.086167
0.138553
0.035081
0.080460
0.114486
0.079342
-0.002792
0.059719
0.232879
0.426844
0.754830
1.039320
1.353062
1.385842
1.404798
0.927706
0.698818
0.344450
0.018970
-0.060850
-0.139488
-0.007036
-0.020964
0.042827
0.053232
0.097798
0.154411
0.166818
0.128379
0.187827
0.129308
0.221383
0.281998
0.216351
0.207562
0.262179
0.331740
0.302156
0.404775
0.334379
0.409781
0.360719
0.392666
0.479116
0.561417
0.479397
0.472300
0.525206
0.520750
0.599406
0.573327
0.608298
0.527604
0.593157
0.563118
0.547156
0.559137
0.588900
0.522294
0.525366
0.578644
0.520194
0.559748
0.551356
0.635346
0.468535
0.403989
0.361820
0.391244
0.402622
0.431978
0.433713
0.391398
0.411791
0.329217
0.242601
0.187381
0.158234
0.158078
0.230190
0.241564
0.117221
0.141659
0.155014
0.108507
0.120694
0.062859
0.157206
0.167337
0.119451
0.116968
0.146765
0.079086
0.141214
0.040749
0.129894
0.061484
0.156746
0.036759
0.193168
0.079867
0.178373
0.097273
0.093085
0.114807
0.095324
0.206831
0.082667
0.073293
0.106464
-0.002804
0.080919
0.149890
0.135553
0.120325
0.076656
0.105226
0.103328
0.077096
-0.000344
0.117436
0.123679
0.102780
0.141961
0.155243
0.225324
0.070193
0.098974
0.141938
0.112166
0.178519
0.190160
0.153841
0.121489
0.144907
0.209887
0.130135
0.225498
0.200758
0.320746
0.270714
0.218837
0.206204
0.292693
0.220891
0.294493
0.269298
0.243018
0.312428
0.204370
0.243603
0.282984
0.278231
0.164047
0.183312
0.152941
0.133434
0.163263
0.113332
0.154161
0.122272
0.189484
0.079646
0.099190
0.143565
0.044788
0.101021
0.116646
0.080247
0.087881
0.175242
0.221173
0.169851
0.300546
0.497830
0.837095
1.184053
1.454221
1.500000
1.371920
1.060213
0.669093
0.278953
0.067496
0.031727
-0.033202
-0.037606
0.024758
0.171161
0.142220
0.109903
0.108374
0.134973
0.218291
0.261699
0.216705
0.146683
0.220364
0.273170
0.361249
0.458147
0.281408
0.364486
0.321227
0.440687
0.467779
0.470032
0.492023
0.427157
0.458367
0.489369
0.512711
0.430897
0.507453
0.598415
0.537810
0.544003
0.583170
0.643808
0.580971
0.621535
0.626071
0.580734
0.648051
0.580027
0.494499
0.544390
0.548441
0.425536
0.535377
0.472200
0.480238
0.390508
0.437492
0.408154
0.412501
0.352190
0.380446
0.315356
0.190356
0.221838
0.275022
0.231082
0.227930
0.271838
0.152063
0.185815
0.183172
0.173475
0.221039
0.115364
0.080863
0.110903
0.136205
0.074538
0.131947
0.124361
0.085918
0.131400
0.056190
0.056800
0.070935
0.054192
0.109706
0.042385
0.088463
0.055786
0.027211
0.106429
0.016694
0.069754
0.025949
0.040681
0.120082
0.067426
0.104395
-0.009124
0.023512
0.086548
0.090706
0.102033
0.076906
0.021029
0.059772
-0.028478
0.145398
0.027400
-0.011871
0.064700
0.024642
0.087538
0.107627
-0.057362
0.143568
0.116110
0.094987
0.115677
0.128868
0.128363
0.133810
0.151314
0.185935
0.254844
0.191966
0.268646
0.177393
0.154504
0.150548
0.165044
0.199321
0.200746
0.242774
0.252115
0.206557
0.249035
0.195186
0.231561
0.194018
0.169976
0.138278
0.141655
0.122030
0.060464
0.183415
0.049299
0.068445
0.078108
0.110959
-0.006427
-0.015428
0.011076
-0.012269
0.014147
0.093889
0.019478
0.003665
0.119158
0.146030
0.340556
0.484268
0.887692
1.149704
1.334306
1.423222
1.171955
0.960190
0.509144
0.161894
-0.102189
-0.087586
0.004426
-0.096142
0.011643
0.065200
0.079015
0.160602
0.145737
0.151492
0.100213
0.084884
0.144828
0.248313
0.183057
0.238429
0.272608
0.276544
0.251867
0.296821
0.322276
0.310994
0.407332
0.370769
0.361560
0.366993
0.472565
0.469821
0.419674
0.467955
0.458903
0.489322
0.544490
0.515191
0.545653
0.565779
0.557473
0.514698
0.503733
0.536896
0.569282
0.572562
0.464916
0.390595
0.451727
0.490840
0.366993
0.419649
0.350800
0.428617
0.285503
0.268374
0.312261
0.280308
0.276665
0.190446
0.163047
0.216281
0.133677
0.230568
0.071772
0.089820
0.051735
0.054298
0.060311
-0.012039
0.053911
0.069303
-0.010491
0.066088
0.083801
-0.003663
0.006109
0.069764
0.012235
0.060870
0.035050
0.012269
0.088190
0.022113
-0.033361
0.008461
-0.066884
0.015355
-0.032410
-0.005995
-0.003331
0.013249
0.015983
0.001688
-0.075827
-0.037338
0.107197
-0.075205
0.044304
-0.011522
-0.072456
-0.032605
-0.134086
-0.063446
0.023327
-0.010427
-0.024486
-0.049545
0.041432
-0.049753
0.022706
-0.056023
0.038436
-0.016988
0.066171
-0.001362
0.000564
0.071528
-0.027578
0.108577
0.038918
0.117985
0.087569
0.077014
0.045329
0.096014
0.152981
0.080491
0.066155
0.068593
0.127195
0.077923
0.145869
0.083634
0.182002
0.186174
0.148863
0.170647
0.071621
0.062769
0.058894
0.089111
0.081978
0.032270
0.006227
-0.036052
0.022279
0.005852
0.077516
-0.021873
-0.035126
-0.073489
-0.032965
-0.074066
0.026961
-0.061459
-0.034443
-0.032183
0.140063
0.246517
0.448316
0.797690
1.044461
1.206317
1.288018
1.157369
0.754690
0.471781
0.074457
-0.101476
-0.124099
-0.149049
-0.188708
0.028247
-0.000247
-0.031856
0.058728
0.097270
-0.014129
0.043439
0.101705
0.109008
0.160883
0.102293
0.209371
0.131750
0.300215
0.286939
0.190287
0.301906
0.282842
0.413010
0.360614
0.334218
0.372683
0.437775
0.272478
0.336237
0.496703
0.405838
0.384325
0.428890
0.532914
0.509079
0.485455
0.515550
0.559983
0.433255
0.486746
0.470388
0.444279
0.470675
0.416933
0.456931
0.387837
0.351105
0.286128
0.336941
0.347854
0.315172
0.269517
0.267433
0.268786
0.240000
0.234888
0.158323
0.167778
0.146231
0.122401
0.069586
0.123455
0.088296
0.044514
0.064278
0.081130
-0.004614
0.041300
0.060265
0.015272
0.018050
0.002163
-0.011945
-0.023242
-0.038968
-0.043311
0.001195
0.045535
0.031393
0.021019
0.004898
-0.046000
-0.071642
0.005905
-0.030496
-0.032347
-0.062181
-0.011858
-0.009311
-0.028532
-0.066855
-0.090682
-0.042820
-0.019445
0.051861
-0.022065
-0.006258
0.039481
-0.089372
-0.032974
-0.108107
-0.000971
-0.017300
-0.023742
-0.102496
0.003581
0.014944
0.022811
0.035334
0.019318
-0.014107
0.023581
-0.017111
0.028950
0.074558
0.080549
0.098492
0.154528
0.137691
0.142088
0.196776
0.198646
0.124815
0.111837
0.194943
0.117296
0.194266
0.279092
0.144800
0.071486
0.126446
0.237815
0.231086
0.136696
0.034634
0.120730
0.096233
-0.013795
0.101921
0.067123
0.056652
0.150398
0.153234
0.054907
0.047006
-0.002321
-0.000653
0.017789
0.003420
0.057863
0.077940
0.002060
0.090841
0.145909
0.151149
0.356016
0.572799
0.924639
1.169999
1.296060
1.354394
1.149471
0.728335
0.437486
0.094201
-0.063583
-0.221168
-0.109384
-0.096895
0.059605
0.110349
0.103663
0.092072
0.138398
0.171903
0.057018
0.195394
0.166359
0.140981
0.175159
0.199121
0.302537
0.203756
0.227050
0.348766
0.385946
0.368114
0.466390
0.379447
0.448228
0.425806
0.482244
0.490790
0.542549
0.542507
0.520873
0.626916
0.539998
0.510925
0.554635
0.626978
0.637475
0.557395
0.524120
0.489158
0.556047
0.599856
0.493580
0.452588
0.434474
0.432117
0.430193
0.420839
0.467312
0.470985
0.404898
0.370223
0.341199
0.299051
0.262834
0.368137
0.243460
0.200621
0.255695
0.167408
0.293537
0.156441
0.154752
0.195651
0.113116
0.098065
0.164364
0.088331
0.055474
0.084336
0.032615
0.078466
0.083590
0.119763
0.052300
0.098311
0.017786
0.112962
0.040839
0.007812
0.049002
0.102777
0.039258
0.077107
0.036484
0.007969
-0.030690
-0.008068
0.061401
0.088982
0.129823
0.053352
0.040163
-0.000720
0.145568
0.030473
0.105684
0.001456
0.172066
0.100382
0.067851
0.016750
0.124114
0.078048
0.125509
0.097769
0.056780
0.094455
0.108876
0.031268
0.169078
0.195493
0.156195
0.123858
0.041327
0.102989
0.232412
0.249264
0.229029
0.252447
0.200711
0.201804
0.233307
0.310193
0.252847
0.272937
0.352532
0.238047
0.285628
0.224300
0.279211
0.272709
0.231945
0.255284
0.247532
0.127739
0.127309
0.196766
0.138895
0.164027
0.181794
0.169253
0.075086
0.178456
0.121789
0.149252
0.080703
0.090422
0.039813
0.065728
0.102709
0.113978
0.118149
0.174234
0.330653
0.483524
0.727730
1.030202
1.343037
1.435062
1.406816
0.986730
0.694059
0.339051
0.190376
0.073410
-0.123368
-0.031585
0.083487
0.095081
0.157813
0.162526
0.168169
0.227393
0.233377
0.213781
0.252031
0.270033
0.150124
0.197212
0.375709
0.313327
0.289204
0.398999
0.404062
0.490618
0.481562
0.478218
0.384924
0.484037
0.542220
0.457940
0.556316
0.496997
0.584723
0.571412
0.574855
0.617138
0.662087
0.553026
0.640763
0.629721
0.547385
0.592782
0.621015
0.546986
0.601099
0.651400
0.524613
0.538808
0.573349
0.481348
0.460823
0.445036
0.529204
0.469225
0.397758
0.368062
0.313103
0.343912
0.347581
0.339437
0.305201
0.361311
0.233701
0.276613
0.186475
0.194428
0.180824
0.104920
0.144850
0.158938
0.194267
0.186262
0.173740
0.155297
0.180293
0.205288
0.127867
0.144930
0.149101
0.133489
0.056916
0.056444
0.053509
0.066311
0.108864
0.017635
0.058422
0.151796
0.122498
0.137677
0.074735
0.058742
0.091922
0.171434
0.065868
0.092649
0.021754
0.039966
0.094089
0.027923
0.064205
0.044891
0.078058
0.028247
0.048552
0.056760
0.078073
0.119467
0.075167
0.079733
0.141497
0.062440
0.097890
0.119787
0.210759
0.142854
0.184529
0.220992
0.234676
0.132583
0.211234
0.234052
0.159708
0.201966
0.178081
0.297478
0.265526
0.244459
0.280961
0.289439
0.227664
0.221467
0.216250
0.222886
0.259074
0.251073
0.226077
0.194431
0.206748
0.175768
0.120311
0.170144
0.140989
0.164294
0.204222
0.135413
0.105730
0.138662
0.163038
0.153206
0.141197
0.084176
0.059085
0.083056
0.119522
0.002374
0.172290
0.224252
0.487457
0.714927
1.074097
1.328232
1.329564
1.316167
1.123636
0.739249
0.372651
0.039894
-0.046455
-0.066355
-0.086556
0.013214
0.208903
0.065245
0.163220
0.126758
0.125234
0.184000
0.290958
0.171179
0.224321
0.246639
0.293760
0.197447
0.283895
0.251377
0.293965
0.390279
0.389604
0.366760
0.369919
0.368691
0.501487
0.444202
0.409430
0.536951
0.425115
0.527955
0.566690
0.484035
0.600638
0.473663
0.579744
0.556582
0.508057
0.513415
0.530025
0.526891
0.476226
0.493298
0.485201
0.506027
0.397480
0.499038
0.497388
0.388993
0.403786
0.454142
0.298248
0.290696
0.301818
0.238052
0.197530
0.191646
0.271863
0.198349
0.198671
0.218161
0.072496
0.166238
0.104553
0.095745
0.040805
0.140092
0.108760
0.064584
0.085648
-0.024023
-0.028518
0.019202
0.024256
0.029085
0.060372
-0.038622
0.014007
0.023121
0.009402
0.011163
-0.022935
0.005226
-0.017209
-0.040163
-0.009381
0.029025
0.023061
0.054150
0.034910
-0.001174
-0.014366
-0.037967
0.051208
-0.045705
0.000793
-0.037268
0.000667
-0.009763
-0.026764
-0.059390
0.023633
-0.077815
-0.014541
0.065513
-0.042645
0.018227
-0.006791
0.061320
-0.010355
-0.038705
0.025095
0.021079
0.038336
0.156752
0.099053
0.116458
0.115544
0.146076
0.074555
0.170219
0.113646
0.241301
0.138542
0.210841
0.110788
0.116091
0.076934
0.135990
0.219623
0.125342
0.110468
0.202287
0.039027
0.164987
0.093439
0.084164
0.053809
0.116594
-0.038109
-0.012399
0.030079
0.011329
0.036411
-0.000399
0.019757
0.066714
-0.046958
-0.096991
0.075732
-0.021602
-0.082799
-0.009771
-0.066636
-0.012305
0.180407
0.428699
0.684745
0.982555
1.234645
1.328160
1.162762
0.960429
0.521902
0.218801
-0.169131
-0.228074
-0.112051
-0.112833
0.018540
-0.077508
-0.003738
0.106738
0.014217
-0.053077
0.149016
0.097248
0.100732
0.127341
0.130484
0.092200
0.244371
0.164996
0.212614
0.190829
0.228791
0.251179
0.257050
0.263681
0.336382
0.304237
0.426627
0.421354
0.385133
0.353218
0.355959
0.429243
0.455642
0.542983
0.564329
0.400592
0.452233
0.463056
0.481905
0.467732
0.479338
0.490911
0.282941
0.388929
0.395521
0.464380
0.348134
0.304278
0.311215
0.279846
0.349285
0.229412
0.186368
0.160150
0.233405
0.194377
0.199176
0.061920
0.052284
-0.002246
0.103543
-0.007630
0.098368
0.014361
-0.002008
0.049310
-0.078800
-0.021299
0.065459
-0.082382
-0.053845
-0.030199
-0.036745
-0.026797
-0.016646
-0.023787
-0.035757
-0.079480
-0.117842
-0.058768
-0.142528
-0.067105
-0.107727
-0.056969
-0.047237
-0.152533
-0.042146
-0.082703
-0.056867
-0.064565
-0.157243
-0.077779
-0.201511
-0.072441
-0.048913
-0.176042
-0.096388
-0.124734
-0.059914
-0.099819
-0.110515
-0.091764
-0.128789
-0.040803
-0.049371
-0.011165
-0.015295
-0.113205
-0.070027
-0.014157
0.014924
-0.032651
0.024505
-0.112395
0.023651
0.022609
0.092409
-0.017916
-0.078147
0.109291
0.068994
0.029300
0.105494
0.108584
0.045891
0.190321
0.129731
0.123813
0.165300
0.111558
0.100993
0.043051
0.061063
0.131787
0.147770
0.066110
-0.018500
-0.019884
0.039715
0.066362
-0.037585
0.042531
-0.063058
-0.023315
-0.100768
-0.099551
-0.046823
-0.010172
-0.164940
-0.113220
-0.077641
-0.145630
-0.063407
-0.053104
0.019811
0.146414
0.424708
0.666685
1.071765
1.261954
1.341778
1.059993
0.833550
0.344991
0.092075
-0.161388
-0.183100
-0.130810
-0.174018
-0.002456
-0.050610
-0.033457
-0.052086
0.047416
-0.070990
0.066704
0.042243
0.051943
0.182230
0.152741
0.135631
0.032574
0.212238
0.240004
0.172900
0.280899
0.238318
0.290594
0.292194
0.291823
0.403365
0.373530
0.283161
0.369382
0.394041
0.417180
0.437042
0.506989
0.503097
0.426347
0.503744
0.406459
0.397959
0.459803
0.496623
0.485185
0.428130
0.399636
0.439246
0.479388
0.422478
0.344792
0.310160
0.289857
0.255679
0.250787
0.288762
0.209803
0.269332
0.247188
0.163467
0.100503
0.078961
0.096190
0.129626
0.107509
0.085361
0.009159
0.082672
0.051823
0.065757
0.011429
-0.093506
0.085315
-0.008786
-0.070287
-0.026978
0.058660
-0.020827
-0.010805
0.017983
0.004121
0.035755
-0.061822
-0.030514
-0.042448
-0.042797
-0.092528
-0.097436
-0.039640
-0.089308
-0.029895
-0.058070
-0.008654
-0.016040
0.031057
0.006092
-0.030090
0.038435
-0.054003
-0.093437
-0.086592
-0.066607
-0.091363
-0.080821
-0.039792
0.026386
-0.022890
-0.021158
0.033731
0.041744
-0.041359
0.089831
-0.044625
-0.018851
-0.015704
0.004317
0.021775
0.063387
-0.010867
0.127804
0.121218
0.075174
0.069321
0.155480
0.136675
0.081646
0.106828
0.315566
0.238855
0.132874
0.087109
0.127788
0.150831
0.116079
0.148055
0.235726
0.159947
0.087204
0.147439
0.095521
0.087007
0.063733
-0.024883
0.070716
0.122933
0.029070
0.054861
0.077069
0.023320
-0.033450
-0.025427
0.026074
-0.014616
-0.008803
0.041415
0.070370
0.079469
0.068259
0.084254
0.352654
0.552025
0.898482
1.160934
1.357309
1.363226
1.139619
0.797299
0.422785
0.066222
0.051194
-0.107234
-0.129107
-0.014453
0.036017
0.037287
0.130969
-0.009541
0.103772
0.080114
0.172853
0.129922
0.222307
0.241905
0.179467
0.204912
0.309767
0.252258
0.268538
0.320636
0.303253
0.254576
0.355195
0.380440
0.432139
0.393692
0.488181
0.472173
0.439328
0.462531
0.542916
0.476511
0.448931
0.506386
0.482447
0.513162
0.573593
0.525327
0.605942
0.501742
0.508738
0.499604
0.512155
0.460049
0.487328
0.419743
0.559125
0.426794
0.357353
0.399959
0.381011
0.312521
0.275757
0.248584
0.192324
0.263118
0.212266
0.290302
0.147700
0.225544
0.235802
0.169350
0.182006
0.125125
0.142227
0.067956
0.078860
0.082992
0.080537
0.123391
0.050633
-0.038113
0.148506
0.057376
0.044972
0.100971
0.034913
0.086854
0.065853
0.023253
0.153229
-0.011246
0.111599
0.032331
0.061031
0.025836
0.090081
0.015873
0.083320
0.021633
-0.003630
0.032211
0.080245
0.080498
-0.036026
0.016907
0.083045
0.015404
-0.001394
0.035821
0.072106
0.064459
0.135364
0.047921
0.075399
0.048659
0.088251
0.036259
0.089859
0.063137
0.109226
0.147385
0.179115
0.091830
0.049344
0.079649
0.123172
0.154464
0.168303
0.108010
0.238027
0.181323
0.242245
0.158096
0.100490
0.290048
0.253695
0.273986
0.202534
0.175432
0.258426
0.178090
0.310804
0.213497
0.053759
0.195803
0.201370
0.117848
0.121766
0.165484
0.128907
0.069272
0.096748
0.091616
0.012173
0.095425
0.126353
0.021599
0.059838
0.080015
0.066837
0.075918
0.103581
0.155239
0.198655
0.315893
0.666180
0.978662
1.262137
1.392492
1.318765
1.117342
0.880917
0.476456
0.121684
0.020758
-0.090621
-0.071357
0.001851
-0.019433
0.020738
0.099198
0.076636
0.129932
0.238203
0.162038
0.181425
0.165876
0.237594
0.163769
0.297637
0.248116
0.316308
0.281007
0.287261
0.375948
0.414227
0.357481
0.369569
0.456006
0.465351
0.560152
0.405689
0.422707
0.429852
0.547467
0.506733
0.617224
0.645871
0.560209
0.538073
0.567573
0.500400
0.594737
0.526180
0.531446
0.499428
0.430477
0.551716
0.426666
0.476917
0.433437
0.498917
0.335065
0.354487
0.420148
0.344491
0.288915
0.300914
0.289184
0.289002
0.229300
0.224326
0.199701
0.187293
0.162067
0.179731
0.127327
0.098217
0.144283
0.144128
0.161904
0.137442
0.081509
0.105810
0.138920
0.035817
0.105142
0.021132
-0.014148
-0.012405
0.049689
0.058581
0.115431
-0.041098
0.107499
0.032262
-0.003418
0.017392
0.013441
0.013494
0.098148
-0.029655
0.050130
0.075451
0.063709
0.074410
-0.047486
-0.070739
0.006826
0.064119
0.027571
0.078363
0.078092
0.056353
0.011540
0.047485
0.033409
-0.059965
0.049990
0.106614
0.025091
0.120179
0.008333
0.028372
0.015781
-0.041654
0.063504
0.129208
0.058758
0.096933
0.167911
0.093648
0.158674
0.112567
0.142816
0.185675
0.185324
0.146128
0.089916
0.212769
0.135109
0.175798
0.206071
0.180826
0.163761
0.191076
0.172597
0.114519
0.166020
0.111738
0.176636
0.076155
0.094393
0.054937
0.093621
-0.029601
0.035564
0.043426
0.015594
-0.053851
-0.031849
-0.000581
0.017206
-0.099038
0.080815
-0.094696
0.052475
0.043325
0.234499
0.340224
0.647329
0.987613
1.181890
1.379361
1.248631
0.977480
0.676517
0.274681
0.048323
-0.068585
-0.129504
-0.101507
-0.092388
0.011348
0.073531
0.050416
0.056249
-0.060461
0.068892
0.055197
0.202423
0.152103
0.119548
0.195196
0.176469
0.205447
0.219345
0.306044
0.231777
0.327108
0.286526
0.278326
0.336510
0.371528
0.408915
0.396735
0.377561
0.397319
0.420217
0.424236
0.459359
0.512712
0.558798
0.530734
0.539433
0.424665
0.443650
0.451710
0.517623
0.419464
0.499266
0.375157
0.397903
0.384745
0.391433
0.369805
0.276373
0.326178
0.226166
0.306690
0.336559
0.226835
0.204882
0.227829
0.231927
0.162960
0.025241
0.118014
0.057969
0.094808
0.021602
0.132481
0.031023
0.012728
0.018547
0.058443
-0.001221
0.010017
-0.014357
-0.013450
-0.019844
-0.049612
-0.026187
0.007649
-0.058124
-0.003097
-0.008348
-0.031444
-0.037773
-0.070066
-0.066196
-0.029125
-0.108629
-0.028290
0.000664
-0.074602
-0.108474
-0.124719
-0.076851
-0.074919
-0.008688
-0.114783
-0.029215
-0.071517
-0.122911
-0.109349
-0.049983
-0.033322
-0.107325
-0.100534
-0.126135
-0.080126
-0.123890
-0.001010
-0.073997
-0.016142
-0.101152
0.000643
-0.074143
-0.076974
-0.016798
-0.092470
-0.084474
-0.056134
0.038770
-0.001733
0.060353
0.116631
0.027457
0.002705
-0.034992
0.054873
0.058869
0.104118
0.039604
0.132771
0.092718
0.077239
0.115398
0.071859
0.123150
0.081206
0.103753
0.025007
-0.009409
-0.047352
0.030741
-0.046723
-0.052828
-0.117097
-0.041143
-0.016389
-0.100334
-0.150032
-0.149746
-0.124817
-0.068921
-0.121278
-0.127933
-0.100466
-0.089113
-0.131728
-0.056141
0.052734
0.274571
0.685153
0.906838
1.115054
1.226403
1.249860
0.882386
0.598442
0.121358
-0.054313
-0.228441
-0.241645
-0.197645
-0.140202
-0.101800
-0.116071
-0.017239
-0.120581
-0.020773
-0.046278
0.015457
0.035392
0.063957
0.139423
0.106088
0.066647
0.096849
0.217744
0.126310
0.162651
0.308377
0.258922
0.261106
0.269129
0.121418
0.351476
0.367480
0.348931
0.438881
0.453905
0.393230
0.491246
0.419418
0.466785
0.481545
0.440564
0.423947
0.425721
0.412762
0.391389
0.374711
0.413401
0.301214
0.293638
0.346577
0.379471
0.270897
0.357096
0.277947
0.201175
0.212980
0.214046
0.120878
0.214261
0.172590
0.116146
0.064210
0.121593
0.025268
0.065680
0.016429
-0.005733
0.034301
-0.007455
-0.090775
-0.078050
-0.042599
-0.102220
-0.075242
-0.015531
-0.024549
-0.032768
-0.089662
-0.061877
-0.011524
-0.111381
-0.070631
-0.112637
-0.067056
-0.064354
-0.180261
-0.113647
-0.081992
-0.113303
-0.104483
-0.090951
-0.014304
-0.080060
-0.034204
-0.155063
-0.144423
-0.149822
-0.116983
-0.192197
-0.043406
-0.082317
-0.108421
-0.102537
-0.058690
-0.031462
-0.030405
-0.091022
-0.109183
-0.083595
-0.081632
-0.009986
0.017080
-0.102059
-0.021492
-0.159063
0.036015
0.021524
-0.025901
-0.018110
0.060618
-0.082314
-0.029174
-0.002973
0.009531
0.021864
0.073666
0.072925
0.084159
0.116292
0.010263
0.084364
0.042663
0.144069
0.174427
0.094346
0.050430
0.156145
0.058882
0.069009
-0.000708
0.053287
0.107292
0.037765
0.026532
0.035463
0.002658
-0.004093
-0.002076
-0.006256
-0.039863
-0.070130
-0.095636
-0.100512
-0.048528
-0.086745
-0.133287
-0.066177
-0.044001
0.036052
0.168343
0.371068
0.713042
0.980672
1.260708
1.328188
1.201150
0.956703
0.578566
0.241737
-0.095269
-0.123016
-0.137062
-0.077352
-0.146318
-0.167124
0.022310
0.018882
0.089858
-0.012040
0.003521
0.134684
0.128019
0.012544
0.116199
0.127910
0.167719
0.120710
0.169398
0.199349
0.307078
0.220097
0.185783
0.320898
0.299601
0.381728
0.379102
0.475892
0.420288
0.448643
0.431300
0.363078
0.554155
0.539419
0.510731
0.432544
0.576863
0.526064
0.472174
0.475687
0.515829
0.501559
0.508744
0.430261
0.412033
0.387671
0.376021
0.375936
0.301222
0.306480
0.326332
0.303717
0.382294
0.305715
0.183096
0.225702
0.102043
0.237248
0.125055
0.177382
0.150631
0.176169
0.184938
0.107731
0.167966
0.002475
0.054559
-0.050261
0.079749
0.051998
0.044067
0.001658
0.136102
0.036211
0.011418
0.040543
0.058749
-0.002607
-0.004605
0.018985
0.048548
-0.019543
0.011738
0.019886
-0.077608
0.002154
0.026265
0.010925
-0.036046
0.144101
-0.047226
0.033900
0.061360
-0.024355
-0.064820
-0.052482
0.028425
0.043613
0.021695
0.017608
0.062314
0.092258
0.046917
0.055781
0.051637
0.053073
0.057139
0.004620
0.017790
0.060462
0.059467
0.154858
0.159509
0.041461
-0.012988
0.151554
0.142762
0.223018
0.174618
0.151722
0.183128
0.280340
0.130951
0.156729
0.235570
0.221016
0.221520
0.202714
0.231340
0.223196
0.281071
0.166262
0.177916
0.147601
0.159434
0.155018
0.097050
0.163158
0.110140
0.149488
0.134741
0.124750
0.099788
0.082919
0.147988
0.065358
0.041865
0.059515
-0.010431
0.032973
0.021320
0.068540
0.104545
0.091747
0.202234
0.296766
0.525308
0.835232
1.202630
1.316004
1.371919
1.203952
0.820377
0.499371
0.229778
-0.034257
-0.155149
-0.052410
-0.088789
0.042076
0.099885
0.090486
0.091194
0.218846
0.141743
0.179565
0.173282
0.170632
0.305406
0.260125
0.191061
0.254792
0.249503
0.337517
0.236945
0.318568
0.301220
0.450472
0.365025
0.338394
0.458906
0.522024
0.548769
0.498476
0.566832
0.544753
0.524521
0.571297
0.600410
0.544994
0.609522
0.639984
0.533162
0.581538
0.598122
0.545334
0.553384
0.655888
0.530347
0.600842
0.498103
0.454611
0.400883
0.538666
0.454759
0.396269
0.379134
0.432545
0.397266
0.308498
0.318087
0.254950
0.244753
0.232216
0.270102
0.185723
0.223072
0.198873
0.115925
0.195590
0.177549
0.189476
0.127251
0.144898
0.077996
0.142598
0.100379
0.140344
0.067336
0.173571
0.027125
0.095795
0.056760
0.040248
0.032309
0.062274
0.117485
0.105398
0.080631
0.048317
0.042427
0.054729
0.078862
0.151470
0.086663
0.073626
0.168532
0.027211
0.062004
0.006678
0.127952
0.101795
0.040061
0.093492
0.111871
-0.044777
0.095751
-0.012642
0.076927
0.074224
-0.002661
0.149966
0.153522
0.112284
0.102402
-0.006505
0.058040
0.195623
0.157417
0.161750
0.192096
0.171924
0.174682
0.204605
0.176682
0.176428
