0.110735
-0.028879
-0.017488
0.002664
0.088120
0.040980
0.023691
0.033252
-0.004236
0.076120
-0.130736
-0.010760
-0.022183
0.050091
-0.019820
0.027392
-0.054860
0.084414
0.029049
-0.007103
0.081623
-0.005031
0.014951
0.015130
0.048350
0.175039
0.006369
0.058441
0.084074
0.140954
0.166904
0.167579
0.176444
0.239926
0.227802
0.235324
0.222894
0.212817
0.182029
0.248212
0.261166
0.168542
0.205296
0.186355
0.096510
0.184884
0.145266
0.133246
0.144489
0.120919
0.145041
0.063535
0.101251
0.189054
0.128570
0.117343
0.110717
0.060808
0.114801
0.048811
0.051399
0.054486
0.022694
0.017147
0.028407
0.055695
0.023461
0.046907
-0.028832
0.099752
-0.009404
0.098941
0.125787
0.433580
0.726317
1.044160
1.302566
1.479727
1.329810
1.084896
0.746377
0.357050
0.083536
-0.073889
-0.152320
-0.115854
-0.079017
0.028659
-0.037617
0.088397
0.072247
0.101089
0.097743
0.106689
0.079087
0.155559
0.090992
0.132496
0.106046
0.177391
0.208434
0.221815
0.216504
0.163961
0.238511
0.301327
0.310439
0.286354
0.351301
0.366637
0.387653
0.408857
0.416787
0.464733
0.492758
0.562045
0.443623
0.503957
0.549448
0.572472
0.458156
0.481027
0.572096
0.612224
0.509104
0.693213
0.581591
0.504782
0.546642
0.551154
0.518670
0.631780
0.561647
0.492630
0.422273
0.472452
0.510958
0.434760
0.410668
0.426177
0.381399
0.344090
0.408883
0.395129
0.279435
0.374260
0.276533
0.265088
0.299956
0.237073
0.269470
0.160634
0.187449
0.221732
0.204995
0.166486
0.139320
0.084974
0.112895
0.158938
0.134553
0.130033
0.092669
0.143099
0.177603
0.169481
0.133137
0.166053
0.013440
0.022894
0.098930
0.073802
0.118531
0.011494
0.062329
0.037719
0.077519
0.073751
0.080327
0.113157
0.122172
0.020250
0.139009
0.003943
0.122730
-0.010291
0.113690
0.040326
0.151251
0.079660
0.118241
0.119580
0.137838
0.114156
0.071245
0.149514
0.046841
0.039608
0.112618
0.077126
0.030983
0.034403
0.097514
0.144725
0.164913
0.076695
0.095367
0.113919
0.033997
0.171252
0.094610
0.053810
0.114414
0.117601
0.048456
0.212465
0.179926
0.189668
0.148057
0.106635
0.210847
0.233223
0.288269
0.226775
0.309917
0.178728
0.343661
0.268017
0.289081
0.251486
0.298402
0.273333
0.305530
0.333773
0.274073
0.180560
0.225595
0.176342
0.271434
0.310071
0.204589
0.239467
0.172674
0.169104
0.106071
0.170895
0.092037
0.196656
0.109911
0.180449
0.023171
0.142803
0.099524
0.051147
0.182229
0.147257
0.057507
0.076072
0.120183
0.181258
0.054640
0.071650
0.030984
0.054267
0.221519
0.428752
0.681329
1.003973
1.340297
1.416885
1.457075
1.151463
0.912847
0.485657
0.189959
-0.035190
-0.188476
-0.181914
-0.055587
-0.001097
0.030253
0.049165
0.162981
0.203331
0.094770
0.086816
0.129539
-0.001847
0.114726
0.220133
0.120198
0.112175
0.156149
0.277487
0.154168
0.228063
0.324090
0.289321
0.303027
0.297964
0.262912
0.314780
0.425304
0.377130
0.415754
0.443046
0.481668
0.472697
0.378019
0.459524
0.506367
0.521972
0.492408
0.567528
0.655656
0.638287
0.552798
0.552489
0.556013
0.640323
0.611942
0.547519
0.526933
0.549704
0.528446
0.489025
0.493965
0.510991
0.428272
0.469750
0.389676
0.378899
0.360483
0.414870
0.310725
0.324358
0.249036
0.190176
0.360878
0.195778
0.219183
0.183943
0.197403
0.087550
0.151384
0.143307
0.124965
0.124877
0.075857
0.107423
0.126601
-0.009088
0.067350
0.095605
-0.024680
0.048374
0.085154
0.059781
-0.008128
0.007121
0.072512
0.018022
0.101829
0.068240
-0.016808
0.089203
0.084187
-0.000268
-0.062929
0.014753
0.000667
0.114138
0.001962
0.169871
0.047781
0.028439
0.043056
0.021736
0.041705
0.029571
0.046208
0.092524
0.055588
-0.023156
0.079398
0.042803
-0.015727
0.050806
0.009632
0.023177
0.053159
0.030873
0.030784
0.017724
0.077589
0.047467
0.095115
0.070512
0.054507
-0.036686
-0.029417
0.064144
0.042268
0.035199
0.009878
0.082780
0.082326
0.071975
0.081159
0.062522
0.081287
0.151152
0.062025
0.121726
0.093573
0.104186
0.144701
0.185808
0.145500
0.154850
0.133597
0.188108
0.108103
0.147147
0.182008
0.187648
0.135050
0.150752
0.211710
0.155402
0.188923
0.131884
0.221419
0.179529
0.020044
0.037332
-0.020112
0.068141
0.082673
0.033821
0.034333
0.056140
0.013897
0.022138
-0.052373
-0.012014
0.006962
-0.019437
-0.010378
-0.001321
-0.026094
-0.015530
0.083645
0.040296
-0.040289
0.024721
0.062921
0.254002
0.459777
0.776936
1.030698
1.300755
1.361560
1.164711
0.950494
0.505664
0.094241
-0.107193
-0.232240
-0.304035
-0.166607
-0.115327
0.000111
-0.043654
0.129187
0.021012
-0.004991
0.015066
0.108588
0.043499
0.090236
0.027618
0.017149
0.115729
0.108036
0.152178
0.136865
0.134554
0.177511
0.161141
0.264341
0.152145
0.224992
0.294447
0.275304
0.317659
0.321428
0.398764
0.338893
0.426508
0.405560
0.360967
0.384750
0.448881
0.473582
0.384104
0.459555
0.418959
0.556173
0.552929
0.431900
0.440597
0.527337
0.405860
0.486767
0.399106
0.550117
0.341489
0.409288
0.377579
0.308899
0.343905
0.365335
0.306571
0.386123
0.282060
0.248797
0.247256
0.200772
0.180888
0.144372
0.108404
0.087828
0.048672
0.124409
0.106007
0.020960
0.057987
0.084023
0.099726
0.137908
-0.050229
-0.046257
-0.043188
-0.055506
0.003518
-0.010852
-0.005477
-0.102050
-0.028122
-0.076504
-0.031076
0.029208
0.002350
-0.002653
0.053617
-0.037582
0.023700
-0.122378
-0.024028
-0.063578
-0.003904
-0.013811
-0.006634
0.022391
0.003910
0.022761
-0.036371
-0.066146
-0.084121
-0.053706
-0.114967
0.024528
-0.033344
-0.007224
-0.105498
-0.076169
-0.056255
-0.081687
0.072182
-0.047285
-0.041602
-0.037499
-0.016224
-0.020111
0.006161
-0.044293
-0.013050
-0.143886
-0.013347
-0.016433
-0.064806
0.005339
0.054198
0.053832
0.009497
-0.064521
0.049479
-0.065745
-0.054469
0.067489
0.014899
0.074704
0.069401
0.120004
0.028577
0.098797
-0.006530
0.112142
0.099231
0.118664
0.131756
0.214696
0.206456
0.167540
0.111859
0.119264
0.119676
0.195494
0.129559
0.010182
0.135501
0.092810
0.083776
0.089167
0.064223
0.016580
0.123960
0.108193
0.074562
-0.011378
-0.033694
0.032378
-0.034809
0.028467
0.039182
-0.078429
0.075823
-0.024584
-0.015390
-0.025555
-0.075943
-0.021687
0.009848
0.010718
-0.074986
-0.034520
0.036851
0.074458
0.145448
0.427763
0.730190
1.012898
1.262992
1.356039
1.224941
0.975345
0.685406
0.243154
-0.083532
-0.189697
-0.329184
-0.232976
-0.142747
-0.019200
-0.053437
-0.053099
0.070669
0.017009
-0.001675
0.097727
0.028931
0.026148
0.027845
0.072676
0.035238
0.122451
0.118037
0.166099
0.121545
0.107584
0.179983
0.135372
0.267394
0.259668
0.255391
0.298074
0.343717
0.295012
0.356014
0.411411
0.363705
0.404612
0.487504
0.471898
0.477192
0.440534
0.518809
0.524391
0.609916
0.509743
0.526771
0.555616
0.539994
0.511537
0.488144
0.512469
0.540055
0.457552
0.548752
0.486116
0.430391
0.343060
0.410021
0.420402
0.381552
0.342023
0.250519
0.363573
0.313076
0.268646
0.228781
0.210292
0.169913
0.158218
0.164467
0.221929
0.232224
0.115373
0.142464
0.108703
0.008135
-0.003743
0.122051
0.028916
0.028617
0.063482
0.111540
-0.008241
0.111216
0.038262
-0.010252
0.031386
0.039226
0.000516
0.007124
0.084574
0.089070
0.061817
0.034369
-0.010501
0.077814
-0.051965
0.006313
-0.028364
0.046318
0.026394
0.021518
0.008176
0.051966
0.091692
-0.030166
0.024971
0.129129
0.031744
0.015951
-0.003591
0.013856
0.127347
0.024989
0.100091
0.020483
0.086133
0.079293
0.049484
0.086933
0.127545
0.013506
0.049280
0.105299
0.084437
0.148638
0.076254
0.094891
0.037250
0.032751
0.116264
0.100600
0.149167
0.022432
0.041204
0.074936
0.065294
0.098295
0.175745
0.171900
0.125937
0.100220
0.174302
0.212027
0.124174
0.243124
0.102465
0.226329
0.203546
0.251823
0.346866
0.309581
0.189988
0.289224
0.262327
0.190425
0.205693
0.144457
0.207248
0.135275
0.202149
0.129644
0.189607
0.166416
0.104922
0.094835
0.099765
0.103375
0.101892
0.089416
0.068937
0.112823
0.142233
0.009914
0.177081
0.070089
0.044953
0.084069
0.013174
0.023653
0.121732
0.041901
0.069527
0.101065
0.193218
0.215485
0.431407
0.805792
1.054357
1.388164
1.500000
1.395547
1.149765
0.886523
0.490684
0.121280
-0.009759
-0.160167
-0.126099
-0.015784
0.030734
0.006262
0.068836
0.053505
0.120430
0.121076
0.141561
0.148984
0.050242
0.199496
0.204273
0.199303
0.228253
0.197254
0.216871
0.219525
0.246556
0.286842
0.214653
0.324606
0.348604
0.353804
0.321228
0.326755
0.460058
0.408048
0.466519
0.483938
0.492358
0.543732
0.534561
0.540639
0.547542
0.525002
0.598840
0.614887
0.641623
0.608627
0.560410
0.622915
0.597291
0.702939
0.504706
0.561181
0.584586
0.589861
0.488131
0.422987
0.525567
0.530589
0.571109
0.506231
0.505688
0.435768
0.363507
0.496010
0.330843
0.320783
0.299235
0.277316
0.399100
0.306635
0.288131
0.242426
0.163520
0.176061
0.165631
0.184389
0.225862
0.089206
0.080578
0.148653
0.186293
0.103638
0.016613
0.130544
0.130289
0.191303
0.078311
0.162668
0.115177
0.067567
0.174000
0.072490
0.105748
0.170556
0.198319
0.073339
0.059714
0.038475
0.004978
0.105926
0.073693
0.058136
0.076248
0.064197
0.135970
0.101353
0.047411
0.108075
0.063699
0.014140
-0.016271
0.175354
0.094776
0.071866
0.091801
0.093978
0.053455
0.062810
0.085531
0.044912
0.130129
0.168180
0.108287
0.119254
0.073098
0.118851
0.131191
0.104069
0.142354
0.100367
0.093908
0.133841
0.070908
0.173061
0.071994
0.208214
0.091599
0.181598
0.164161
0.138205
0.147122
0.135773
0.178643
0.186545
0.237432
0.281787
0.220137
0.215952
0.264501
0.266182
0.153505
0.352304
0.250952
0.249509
0.224893
0.161220
0.292697
0.227912
0.250724
0.160043
0.216082
0.162190
0.194434
0.188482
0.127082
0.174739
0.077230
0.169567
0.129838
0.188473
0.124336
0.157805
0.068379
0.157328
0.107942
0.133388
0.128574
0.100738
0.107792
0.087368
0.009819
-0.001865
0.077974
0.079890
0.081705
0.199533
0.317918
0.655220
0.872930
1.322779
1.362355
1.487036
1.206897
0.924024
0.533432
0.222402
-0.012641
-0.123441
-0.168419
-0.085338
-0.066630
-0.059955
0.012105
0.068400
0.136928
0.101485
0.013183
0.113858
0.082767
0.180825
0.116735
0.208992
0.142115
0.160239
0.233501
0.267142
0.272248
0.271624
0.397680
0.254888
0.299317
0.298440
0.364369
0.352236
0.399055
0.371520
0.468134
0.472233
0.424269
0.448037
0.434252
0.449828
0.542600
0.520389
0.558769
0.552009
0.570225
0.595600
0.567102
0.475920
0.491886
0.616365
0.593608
0.505095
0.462891
0.538009
0.520374
0.507386
0.437339
0.373513
0.398874
0.351108
0.397238
0.332109
0.257891
0.278959
0.273312
0.261835
0.267780
0.209125
0.277706
0.219811
0.114055
0.166272
0.141227
0.071797
0.083210
0.127659
0.121050
0.094762
0.143897
0.107696
0.069677
0.026699
0.030640
0.084861
-0.071278
-0.001771
0.075214
-0.002244
0.047600
-0.004215
0.057917
-0.011752
-0.037710
0.014414
0.026391
0.052820
0.019485
-0.082466
-0.019637
0.039606
-0.046145
0.050324
0.036855
-0.008941
-0.036248
-0.055560
0.014223
0.030446
0.045597
0.041767
0.007150
-0.032534
0.024636
-0.078785
0.008600
-0.039482
0.001574
0.056381
-0.048526
-0.023328
0.082815
0.051396
-0.064149
0.000629
-0.015774
0.047729
0.021794
-0.024919
-0.038604
0.034049
0.028059
0.063990
0.079259
0.073848
-0.052622
-0.011159
-0.024664
0.023503
0.069839
0.084181
-0.010654
0.046331
0.088523
0.028136
0.087587
0.138912
0.090813
0.153077
0.123507
0.100048
0.152491
0.164356
0.168647
0.152549
0.181274
0.149819
0.089752
0.094153
0.119489
0.068234
0.110671
0.048121
0.069759
0.014886
0.066773
0.001082
0.041587
-0.003663
0.001664
0.028014
-0.065398
0.006406
-0.046594
-0.004369
0.028769
-0.030027
-0.046147
-0.097528
-0.019986
-0.027744
0.003810
0.013390
-0.052538
-0.161919
-0.056157
0.007352
0.147372
0.392186
0.709003
0.956858
1.231202
1.381559
1.277347
0.974421
0.559478
0.112009
-0.087041
-0.287188
-0.180499
-0.108619
-0.120606
-0.125974
-0.080652
0.054900
0.000086
-0.017173
0.018352
-0.061859
0.032314
0.042302
0.042601
0.148805
0.092716
-0.019936
0.022715
0.039474
0.099015
0.083902
0.086445
0.210883
0.172450
0.148594
0.240300
0.141723
0.298309
0.253998
0.282229
0.306123
0.306361
0.360534
0.420388
0.322233
0.348866
0.343652
0.517870
0.441264
0.462638
0.450751
0.374875
0.464158
0.477870
0.492559
0.412891
0.497091
0.388981
0.396888
0.332254
0.344759
0.321561
0.336672
0.365113
0.360585
0.288316
0.309716
0.304765
0.196698
0.209866
0.179343
0.136830
0.196274
0.187520
0.165298
0.093878
0.095462
-0.028305
0.126170
0.053143
0.017962
0.020444
-0.032197
0.036019
-0.042315
0.000530
-0.044351
-0.086034
-0.114053
-0.102718
-0.106190
-0.086847
-0.074165
-0.043927
-0.055454
-0.067548
-0.114082
-0.120596
0.035121
-0.024021
-0.167649
-0.111161
-0.126276
-0.103342
-0.026679
-0.131328
0.025092
-0.056372
0.006269
-0.043990
-0.052869
-0.054891
-0.032623
-0.106173
-0.080641
-0.081317
-0.067280
-0.062998
-0.078652
-0.110834
-0.044541
-0.030110
-0.020388
-0.078083
-0.159567
-0.089564
-0.083073
-0.053060
-0.109936
0.030241
-0.082585
-0.106439
-0.116400
-0.038276
-0.040620
-0.043450
-0.054397
-0.009659
0.010973
-0.004781
-0.030811
-0.060091
-0.006793
-0.002096
-0.015602
0.029109
0.048118
0.018091
0.024505
0.073694
0.076096
0.028012
-0.008131
0.104306
0.116380
0.144391
0.176231
0.089829
0.170640
0.155007
0.118489
0.065625
0.163868
0.081611
0.078471
0.084821
0.045788
0.013659
0.109836
0.057268
0.089579
-0.040199
0.018804
-0.040893
-0.108213
0.022118
-0.048153
-0.020482
-0.048705
-0.063842
-0.075408
-0.034981
-0.079534
-0.048088
-0.033284
-0.033812
0.001118
-0.167344
-0.058013
-0.046231
-0.077165
0.079357
0.326007
0.654846
0.929387
1.178139
1.324798
1.248995
1.053358
0.690000
0.326249
0.048821
-0.098391
-0.264927
-0.265194
-0.212178
-0.178279
-0.000753
-0.053476
-0.052576
0.009674
-0.006016
-0.036120
-0.023582
0.039777
0.006414
-0.006668
0.023837
0.064173
0.098271
0.119281
0.078375
0.120371
0.154211
0.125964
0.166081
0.158818
0.196898
0.279443
0.208318
0.247538
0.262398
0.320344
0.264804
0.350187
0.393527
0.344975
0.458545
0.407906
0.429039
0.494813
0.442406
0.437609
0.419964
0.489305
0.460312
0.392979
0.444155
0.427772
0.419996
0.441692
0.388055
0.436259
0.431272
0.413281
0.390729
0.321733
0.278529
0.345698
0.374301
0.274623
0.270809
0.202864
0.195509
0.243988
0.101926
0.151048
0.126079
0.066503
0.109193
0.101240
0.013733
0.084287
0.075607
0.132434
0.015126
-0.073145
-0.026449
-0.043256
-0.018675
0.054573
0.011331
-0.000567
-0.014789
-0.012038
-0.011746
-0.044919
-0.099304
0.040140
0.099682
0.002254
0.002877
-0.103396
-0.056970
-0.046387
0.030359
0.045486
0.050860
0.078820
0.050843
-0.041383
0.014573
-0.011485
-0.015918
0.039332
-0.050039
-0.040222
0.091343
0.026091
0.015236
-0.027843
0.044194
-0.055574
-0.068943
0.062467
-0.041455
0.018024
0.045594
0.003870
-0.016902
-0.026875
-0.048853
0.064694
0.034337
0.024570
-0.054410
-0.069214
-0.072790
-0.005646
-0.021553
0.141220
0.001080
-0.026181
-0.025119
0.082371
0.000064
0.037411
0.114017
0.117975
-0.016253
0.181368
0.100717
0.113215
0.084224
0.121219
0.194022
0.205171
0.101215
0.114614
0.148351
0.104240
0.193584
0.176703
0.253915
0.223995
0.165012
0.100060
0.135049
0.096039
0.162826
0.090292
0.138779
0.109023
0.066972
0.091547
0.056689
0.036365
0.058283
0.051593
0.008428
0.083099
0.040234
0.053598
0.064594
0.066994
0.073915
0.005919
0.075075
-0.033846
0.016740
0.013156
0.051540
0.041310
0.144350
0.437393
0.605341
0.934323
1.157798
1.291660
1.410791
1.192498
0.891747
0.491803
0.177933
-0.046069
-0.242647
-0.106131
-0.142417
-0.024980
-0.000840
0.015998
0.094489
0.137909
0.013973
0.075180
0.107950
0.093961
0.028617
0.133109
0.112936
0.093351
0.174521
0.188151
0.105319
0.204662
0.178281
0.248254
0.214366
0.217564
0.362958
0.291862
0.303584
0.286642
0.414151
0.428526
0.482596
0.397664
0.386799
0.416140
0.465728
0.557936
0.509528
0.535147
0.569042
0.575766
0.588948
0.571480
0.486104
0.573939
0.558479
0.609640
0.518816
0.516741
0.479508
0.506560
0.440512
0.513585
0.538434
0.436069
0.378218
0.417760
0.388114
0.368384
0.315036
0.339361
0.303774
0.255399
0.248268
0.346693
0.208772
0.321050
0.174118
0.164104
0.164141
0.032159
0.143117
0.065691
0.082068
0.132968
0.126893
0.087404
0.056561
0.102471
0.041892
0.056641
0.097473
0.007012
0.137995
0.050190
0.062275
0.076968
0.034698
0.061071
0.063149
-0.000768
-0.033067
0.062959
0.026767
0.123065
0.010528
0.027086
0.013562
0.042960
0.015972
0.036062
0.039218
0.009342
0.064891
0.104016
-0.013896
0.120324
0.107840
-0.027379
0.093474
-0.010272
-0.031680
0.035825
0.000564
0.047425
-0.053097
0.034682
0.032666
0.112166
0.125724
0.019825
0.048094
0.005508
0.146762
0.070045
0.038462
0.031441
0.026672
0.000559
0.025826
0.088297
0.017667
0.044597
0.031440
0.212779
0.084726
0.042984
0.110041
0.168528
0.089034
0.181193
0.169784
0.158011
0.227046
0.233794
0.172273
0.194708
0.164672
0.191284
0.164561
0.167898
0.289195
0.199505
0.185082
0.074670
0.195221
0.241185
0.109095
0.134079
0.155669
0.130640
0.080037
0.063365
0.155006
0.143322
0.050319
0.069004
0.113422
0.057225
0.070020
-0.038493
0.097000
0.000188
-0.010730
-0.002800
0.032776
-0.045464
0.047826
0.086824
-0.040465
-0.031765
0.152963
0.230313
0.486635
0.773451
1.168943
1.305174
1.367577
1.245717
0.989996
0.664581
0.248981
-0.042265
-0.200499
-0.227518
-0.221084
-0.087907
-0.028459
0.030221
-0.030788
0.107809
0.059749
0.067937
0.036336
0.089593
0.056450
0.008945
0.134475
0.048924
0.103672
0.188301
0.204638
0.113886
0.214399
0.202794
0.230599
0.223711
0.249323
0.204388
0.277683
0.316633
0.305763
0.321093
0.357165
0.388028
0.410330
0.408615
0.366733
0.409720
0.415787
0.430901
0.560075
0.500630
0.421329
0.527897
0.504819
0.513654
0.528913
0.465495
0.466278
0.428395
0.364472
0.471917
0.451001
0.408449
0.429667
0.362905
0.358226
0.324180
0.315064
0.282262
0.295348
0.306087
0.255444
0.198738
0.197040
0.221046
0.073361
0.121148
0.036386
0.068335
0.083145
0.083081
0.036839
0.045193
0.012223
0.077141
-0.056377
0.050537
0.006987
0.062471
-0.086699
-0.020996
-0.030481
0.029536
0.088959
-0.051825
0.000789
0.066926
0.060580
-0.008128
-0.043971
0.062215
-0.052538
-0.047959
-0.118290
-0.021005
-0.061540
0.007273
-0.025000
-0.088494
-0.004569
-0.037704
-0.010339
-0.060566
0.026172
0.033408
-0.054815
-0.019180
-0.028730
-0.032413
-0.064804
0.003974
-0.064622
-0.047322
-0.074864
-0.017398
0.064400
-0.104776
-0.030933
-0.070254
-0.016985
0.015229
-0.022008
0.010346
-0.023821
-0.078387
0.029872
-0.105084
0.000146
-0.020305
-0.037921
-0.037992
-0.116354
0.028164
-0.061652
0.115031
-0.072661
0.061611
-0.016611
0.074037
0.122215
0.044178
0.065028
0.089422
0.123304
0.074049
0.047893
0.106261
0.089501
0.085453
0.143086
0.104630
0.030467
0.056305
0.178222
0.109356
0.078654
0.001239
-0.005068
0.057392
0.029419
0.067045
-0.004687
0.059221
-0.037302
0.012904
-0.076328
-0.031922
-0.045679
-0.074680
-0.048714
-0.007436
-0.046424
-0.081958
-0.029301
-0.082905
-0.112988
-0.121130
-0.111400
-0.046128
-0.091119
-0.048389
-0.107783
0.116614
0.388643
0.635170
0.984952
1.182481
1.218273
1.198469
0.905047
0.615428
0.223686
0.016629
-0.230827
-0.283588
-0.191757
-0.223075
-0.115007
-0.157413
-0.073750
0.007671
-0.060918
-0.008665
-0.048180
-0.056937
-0.014747
0.014301
0.062568
-0.018530
0.020982
0.085847
0.063422
0.095733
0.113632
0.099979
0.069237
0.174434
0.177056
0.143566
0.219516
0.200706
0.218867
0.341705
0.282408
0.280829
0.362349
0.373993
0.369695
0.347747
0.338663
0.362983
0.433254
0.389783
0.419136
0.412443
0.414239
0.398413
0.507722
0.487223
0.397522
0.340625
0.376111
0.331415
0.331362
0.265699
0.290417
0.396436
0.295737
0.288262
0.219570
0.180766
0.157282
0.191248
0.092425
0.049769
0.157340
0.044172
0.023998
0.059712
0.033422
0.032125
0.026329
0.021624
0.007512
-0.009991
0.016449
-0.140063
-0.071468
-0.031314
-0.009736
-0.075961
-0.020107
-0.088733
-0.126128
-0.072288
0.041718
-0.101650
-0.144693
-0.089410
-0.050359
-0.082529
-0.073828
-0.116468
-0.081297
-0.073509
-0.073434
-0.189223
-0.160554
-0.017774
-0.160355
-0.092583
-0.025094
-0.098442
-0.035230
-0.113330
-0.124059
-0.044402
-0.137158
-0.118549
-0.065088
-0.111544
-0.136583
-0.073084
-0.100404
-0.097270
-0.068921
-0.040353
-0.108598
-0.077768
-0.114830
-0.072205
-0.067066
-0.082130
-0.163856
-0.080245
-0.158751
-0.089208
-0.037096
0.034646
-0.064812
-0.073256
-0.050260
-0.059040
-0.064579
-0.062059
-0.029786
-0.050940
0.025905
0.021270
-0.001368
-0.062400
0.012282
0.000347
0.043375
0.088871
0.132398
0.077516
0.089495
0.132305
0.097598
0.077564
0.097102
0.058659
0.037330
0.099384
0.104898
0.104076
0.056096
0.043823
0.017224
-0.044556
0.049113
0.026571
0.065153
0.011333
-0.021685
0.011734
-0.019762
-0.052251
-0.087014
-0.092874
-0.035883
0.002271
-0.077701
-0.091152
-0.120916
-0.059052
-0.013187
-0.160119
-0.068430
-0.070614
-0.027084
-0.113487
-0.044638
0.091829
0.207226
0.523907
0.870717
1.103727
1.320205
1.339490
0.974837
0.797861
0.337920
0.057138
-0.157934
-0.262856
-0.241021
-0.172591
-0.198802
-0.065641
0.004082
-0.001537
0.003246
0.080077
-0.021206
-0.047129
0.040785
0.040484
0.024490
0.034276
0.132380
0.055287
0.115017
0.042230
0.115046
0.143272
0.168352
0.193064
0.274735
0.214234
0.205902
0.249839
0.273512
0.287790
0.274089
0.282489
0.332376
0.389149
0.331285
0.458605
0.467621
0.403437
0.455687
0.492215
0.397320
0.428401
0.498768
0.556587
0.460914
0.559647
0.362856
0.416318
0.451798
0.422593
0.340333
0.349340
0.380928
0.382537
0.315826
0.319466
0.361879
0.294439
0.222375
0.327710
0.183360
0.166272
0.164363
0.090548
0.162182
0.179127
0.104871
0.097019
0.086711
0.121709
0.088080
0.054457
0.050121
0.071693
-0.051020
0.086103
0.059547
-0.012285
0.069573
-0.031924
-0.018428
0.001235
0.055100
-0.038622
0.006249
-0.034152
-0.068235
-0.056349
-0.005771
0.117380
-0.057728
-0.032838
-0.032440
-0.016939
0.053579
-0.079591
-0.025801
0.051029
0.039147
-0.016515
0.003709
0.003048
0.029937
-0.069650
-0.055318
0.003184
0.000640
-0.026044
0.021650
0.007127
0.033930
0.033579
0.005517
0.016888
-0.028875
0.004280
0.020557
-0.000384
-0.013772
-0.020886
-0.004315
0.072271
-0.026917
-0.047651
0.008725
0.020600
0.076774
0.028891
0.073851
0.055852
0.100229
0.090120
0.016708
0.139414
0.038848
0.080685
0.071355
0.173375
0.175520
0.135050
0.201943
0.121810
0.119593
0.194239
0.143246
0.176818
0.245246
0.182425
0.246473
0.224105
0.145042
0.197396
0.257615
0.232303
0.140308
0.134397
0.254529
0.103598
0.070160
0.142819
0.085124
0.187336
0.119524
0.089601
0.051069
0.103389
0.089097
0.093986
0.077394
0.086263
0.068831
0.122248
0.064487
0.085050
-0.022024
-0.012965
-0.041732
0.102506
0.118896
-0.004597
-0.012677
0.115702
0.284797
0.549186
0.817167
1.169198
1.331566
1.341641
1.218470
1.025072
0.586817
0.245679
-0.007658
-0.095243
-0.136051
-0.237510
-0.073011
0.013730
0.010265
0.032640
0.121119
0.115095
0.126565
0.082538
0.122074
0.112325
0.093444
0.089518
0.186694
0.182421
0.217113
0.192396
0.141976
0.272129
0.197669
0.287499
0.366869
0.351123
0.263233
0.296326
0.385397
0.384273
0.461875
0.510888
0.422090
0.454932
0.478267
0.567905
0.558188
0.515320
0.528830
0.547634
0.554135
0.601112
0.563633
0.618322
0.554774
0.603644
0.607295
0.564615
0.465427
0.603228
0.516559
0.506592
0.452904
0.501491
0.381362
0.444303
0.449472
0.344891
0.371608
0.378730
0.336427
0.335752
0.325232
0.229361
0.247839
0.269665
0.203300
0.105495
0.171334
0.202161
0.146927
0.113859
0.140958
0.108093
0.208083
0.010231
0.105021
0.068466
0.089771
0.073325
0.137083
0.061121
0.074595
0.008109
0.036263
0.088130
0.049505
0.024434
0.040960
0.054197
0.095067
0.103163
0.023195
0.079300
0.016046
-0.038987
0.129551
0.007718
0.077065
0.120444
0.011176
0.059931
0.041878
0.092191
0.053272
0.034559
0.055416
0.043474
0.068998
0.105260
