-0.026033
-0.015790
-0.002214
0.104321
-0.004382
0.066503
-0.028220
0.085519
0.041967
0.012217
-0.021200
0.009691
-0.029525
0.003370
0.044294
0.009594
-0.007067
-0.133765
-0.009279
0.070105
-0.045174
0.078975
0.049334
0.022035
0.036962
0.033479
0.121322
0.041404
0.063467
0.151999
0.088923
0.134767
0.170787
0.045028
0.155258
0.164043
0.095615
0.147342
0.241779
0.140049
0.207781
0.207483
0.218025
0.233695
0.140118
0.230368
0.203460
0.191368
0.134758
0.243351
0.227713
0.157592
0.198771
0.173526
0.205094
0.174793
0.121185
0.151281
0.079448
0.130726
0.098281
0.076175
0.001646
0.098241
0.031491
0.013427
0.048968
0.043145
0.056778
0.040552
-0.011908
0.043270
0.063855
-0.012407
-0.043259
0.129552
0.063568
0.057970
0.006079
0.078399
0.061853
0.022525
-0.022123
0.034940
0.076909
0.373559
0.617966
0.927540
1.250179
1.321476
1.500000
1.357662
0.994013
0.560785
0.302577
0.071407
-0.167043
-0.238600
-0.142850
-0.089488
-0.126439
0.065295
0.008374
0.104884
0.020673
0.086081
0.107183
0.102948
-0.018783
0.156291
0.090803
0.074652
0.136840
0.150703
0.119347
0.174761
0.131351
0.100090
0.147229
0.135109
0.159184
0.232971
0.222116
0.191807
0.348915
0.312336
0.271018
0.383976
0.323704
0.341660
0.341422
0.432466
0.367778
0.416194
0.445106
0.449005
0.482887
0.501199
0.467047
0.597331
0.629251
0.575866
0.655092
0.591755
0.647196
0.658269
0.551722
0.635334
0.595082
0.617603
0.623251
0.554756
0.573163
0.531550
0.519668
0.462071
0.531009
0.480591
0.392562
0.440374
0.367203
0.404180
0.329368
0.358214
0.361853
0.215665
0.292480
0.188436
0.264635
0.256874
0.223839
0.263124
0.241500
0.223704
0.210678
0.156609
0.192075
0.112715
0.129249
0.092417
0.128023
0.195240
0.070272
0.164268
0.090123
0.051963
0.094846
0.066946
0.170129
0.119134
0.136984
0.183022
0.050664
0.050390
0.060900
0.097707
0.088124
0.127825
0.095733
0.022402
0.159651
0.030596
0.103012
0.137343
0.088662
0.103640
-0.026647
0.071901
0.147012
0.089051
0.027758
0.090591
0.090796
0.091524
0.074637
0.128695
0.132211
0.064988
0.113783
0.127264
0.081220
0.056802
0.128470
0.158728
0.122616
0.097309
0.127268
0.109513
0.099892
0.086240
0.074963
0.065843
0.108510
0.005162
0.159452
0.096505
0.090154
0.088845
0.065821
0.052401
0.034654
0.118164
0.082365
0.098983
0.083669
0.149675
0.128274
0.056906
0.065832
0.027489
0.104484
0.088713
0.157359
0.185286
0.121890
0.230031
0.136994
0.148239
0.244529
0.169390
0.235617
0.242340
0.225643
0.268026
0.294639
0.189134
0.273931
0.223388
0.248910
0.236652
0.203810
0.212197
0.108369
0.291935
0.267072
0.229367
0.165670
0.156274
0.201742
0.188354
0.177037
0.267256
0.052620
0.189851
0.116577
0.201783
0.110141
0.084892
0.146143
0.128940
0.102316
0.091564
0.118770
0.090324
0.037788
0.054569
0.043005
0.098103
0.126763
0.106401
0.062703
-0.008789
0.094901
0.022112
0.006535
0.066030
0.037914
0.075267
0.109433
0.371874
0.669989
0.943705
1.270066
1.464755
1.486601
1.267550
0.942967
0.731421
0.280528
0.020329
-0.166244
-0.194852
-0.104828
-0.106262
-0.032049
0.057394
-0.013209
0.030569
0.037217
0.083471
0.099502
0.062731
0.031422
-0.016291
-0.002056
0.070515
0.028734
0.085976
0.124873
0.114353
0.033695
0.144879
0.171314
0.128514
0.142909
0.204746
0.217352
0.288795
0.208521
0.282102
0.279211
0.225489
0.278942
0.313587
0.382629
0.329145
0.390884
0.421726
0.397293
0.521031
0.483608
0.548996
0.534223
0.537696
0.539384
0.530682
0.636747
0.533841
0.482802
0.543600
0.581776
0.542069
0.574412
0.590161
0.526039
0.603643
0.532815
0.522025
0.490269
0.477574
0.440897
0.409257
0.455335
0.370278
0.289372
0.360487
0.271254
0.309507
0.271789
0.155999
0.232819
0.208008
0.196014
0.127332
0.198477
0.189162
0.102958
0.096905
0.163572
0.086316
0.113026
0.065188
0.061506
0.039540
0.048006
0.028674
0.018916
0.062172
-0.050453
-0.013838
0.085384
0.026658
-0.034128
0.054966
0.072979
0.020561
0.028109
-0.022891
0.064140
-0.030504
-0.067975
0.011143
0.062499
-0.053263
-0.014234
0.062159
0.092048
-0.039168
0.020289
0.048050
0.030002
0.011019
-0.044997
0.023090
0.004303
0.012098
0.037941
-0.040178
-0.055779
0.036865
0.029410
-0.046694
0.026650
0.002592
0.021102
0.123801
0.011107
-0.010772
0.070232
-0.001314
-0.065085
-0.044947
0.024741
-0.058231
-0.057041
-0.009656
0.016241
-0.055367
0.016393
-0.104598
0.037489
0.033067
-0.059446
0.020408
0.034056
-0.131958
-0.092418
-0.029260
0.065312
-0.007075
-0.000371
0.047485
-0.016997
0.092783
-0.006880
0.122601
0.070501
0.010892
-0.001367
-0.033522
0.086020
0.058491
0.085228
0.046569
0.160067
0.005371
0.083959
0.135607
0.112712
0.200142
0.119367
0.139289
0.199645
0.201662
0.155434
0.139524
0.116391
0.179992
0.082191
0.148318
0.117982
0.127202
0.120970
0.049911
0.060724
0.007481
0.075152
0.096506
-0.080876
-0.036874
-0.011723
0.062237
-0.073635
0.032819
-0.023971
-0.062233
0.044298
-0.048318
-0.014203
-0.051445
0.039956
0.013056
0.012297
-0.028146
-0.028773
-0.048432
-0.042937
-0.024334
-0.073840
-0.018804
-0.017718
-0.043876
0.095386
0.237860
0.596819
0.942950
1.195182
1.242634
1.371181
1.157940
0.837022
0.520195
0.137136
-0.123388
-0.319159
-0.274494
-0.315550
-0.166902
-0.125460
-0.184247
-0.048583
0.012545
-0.036593
-0.019627
-0.031558
-0.046347
-0.081206
-0.073089
-0.031936
-0.047940
0.004388
-0.011780
0.108587
0.011509
-0.022261
0.040265
-0.000200
0.045797
0.094516
0.046232
0.145214
0.110114
0.159307
0.131596
0.135783
0.167785
0.223077
0.168375
0.294782
0.323412
0.253037
0.329428
0.380954
0.448700
0.300668
0.454434
0.394362
0.449139
0.410287
0.461754
0.373093
0.439740
0.468499
0.372966
0.605526
0.434099
0.481693
0.428489
0.489874
0.433662
0.468819
0.461347
0.400813
0.372404
0.411691
0.348976
0.358364
0.347883
0.284198
0.295343
0.163602
0.235964
0.199627
0.125022
0.118030
0.138628
0.117336
0.145227
0.074802
0.092415
0.058719
0.091748
0.019902
0.043629
-0.047226
-0.057137
0.078076
0.019798
0.001554
-0.012638
0.034451
-0.030433
0.021441
0.019024
-0.058854
-0.031476
0.064167
-0.049265
-0.020504
-0.006729
-0.039875
-0.027826
-0.055991
-0.096486
-0.021355
-0.060919
-0.042854
0.018768
-0.028976
0.029854
-0.011045
-0.067249
0.029790
-0.043851
0.047029
-0.072015
-0.057536
0.006599
-0.011651
-0.025560
0.006482
0.008836
-0.076455
-0.022949
0.004442
-0.080908
0.018349
-0.064416
0.076356
0.045886
0.005097
-0.003941
-0.006855
0.021653
0.056397
-0.099643
-0.022873
-0.086265
-0.091174
0.028581
0.054827
-0.013613
-0.002902
-0.017924
0.023171
0.035303
-0.029519
0.064563
0.003430
0.033949
-0.044525
-0.029260
0.018452
0.086912
0.004864
-0.024032
0.058919
0.064077
0.029809
0.048150
-0.038838
0.094945
0.086307
-0.012587
0.052551
0.104296
0.108008
0.107220
0.129350
0.109756
0.129743
0.215529
0.075554
0.152098
0.152907
0.262183
0.209097
0.205188
0.172063
0.198456
0.114543
0.191113
0.235026
0.156092
0.174175
0.146797
0.136621
0.215622
0.086593
0.102420
-0.005769
0.062538
0.052484
0.031864
0.029978
0.100769
-0.027771
0.019574
0.081112
0.078154
0.139682
0.074177
0.043794
0.016241
-0.004242
-0.021750
0.075520
0.026270
-0.025817
0.085640
-0.004228
0.044189
0.003193
-0.110274
0.042050
0.016815
0.165321
0.451903
0.681984
0.958329
1.251844
1.431266
1.346554
1.237063
0.964170
0.479876
0.171597
-0.151991
-0.283537
-0.179987
-0.153314
-0.134414
-0.173469
0.036584
0.054314
0.074655
0.040880
0.074949
0.109690
0.056003
0.022403
0.159785
0.065015
0.113306
0.062564
0.210552
0.116711
0.165895
0.060703
0.063571
0.133309
0.204054
0.177384
0.244602
0.129065
0.216737
0.257677
0.230587
0.287574
0.388911
0.245148
0.311830
0.416561
0.372819
0.357887
0.404858
0.422407
0.495498
0.539584
0.489784
0.567709
0.475716
0.607260
0.578429
0.577259
0.551891
0.609748
0.552066
0.539944
0.592560
0.619260
0.599607
0.586328
0.559880
0.472578
0.505771
0.515177
0.453130
0.565822
0.427771
0.450481
0.336986
0.328865
0.326085
0.437183
0.290641
0.390289
0.301986
0.248561
0.265157
0.283306
0.210620
0.099212
0.188087
0.147614
0.183234
0.193401
0.188225
0.158178
0.115424
0.147313
0.146378
0.074213
0.069906
0.128757
0.005873
0.152482
0.113050
0.074656
0.021537
0.091077
0.062644
0.101057
0.074622
0.098157
0.126782
0.081068
0.120878
0.011801
0.117371
0.061214
0.120904
0.146688
0.068663
0.144084
0.165212
0.079933
-0.015266
0.088285
0.125768
0.089706
0.128951
0.087100
0.110026
0.075702
0.093412
0.169121
0.156491
0.105843
0.105367
0.021988
0.058909
0.148405
0.035899
0.078963
0.015029
0.075181
0.086697
0.050363
0.133537
0.155888
0.091372
0.068603
0.127080
0.032609
0.110054
0.121484
0.053778
0.017469
0.111585
0.090665
0.093650
0.061369
0.102041
0.076650
0.048764
0.117410
0.078047
0.060444
0.071538
0.132922
0.097847
0.119849
0.082032
0.165143
0.191505
0.171786
0.171108
0.211646
0.242644
0.191398
0.311338
0.198600
0.221564
0.249190
0.181823
0.380048
0.297255
0.319491
0.255407
0.241840
0.209295
0.227453
0.250597
0.384672
0.247091
0.241839
0.180757
0.226178
0.201324
0.216105
0.243924
0.195715
0.206448
0.116430
0.187045
0.087123
0.206596
0.143235
0.116589
0.183520
0.064209
0.158986
0.051720
0.126499
0.084476
0.088895
0.108976
0.099812
0.065242
0.140942
0.204632
0.124879
0.123528
0.144271
0.101964
0.142001
0.017888
0.113729
0.084791
0.168878
0.470437
0.734920
1.176629
1.417694
1.499084
1.443714
1.256632
0.854344
0.566386
0.250000
-0.032364
-0.174167
-0.191864
-0.155407
-0.031135
0.002808
0.070933
0.139913
0.004895
0.016221
0.131767
0.059401
0.157112
0.047551
0.022253
0.086526
0.171807
0.035470
0.132935
0.131286
0.206639
0.208203
0.183482
0.249786
0.168971
0.160112
0.204342
0.167180
0.205342
0.277376
0.304518
0.299980
0.312378
0.371139
0.451153
0.347798
0.361927
0.463369
0.392390
0.503266
0.498583
0.563220
0.562282
0.581789
0.529679
0.546320
0.475609
0.621238
0.555295
0.625347
0.568635
0.629193
0.597321
0.608622
0.623510
0.600789
0.488916
0.517505
0.488241
0.520286
0.499043
0.523335
0.467122
0.390720
0.435429
0.328057
0.335861
0.295823
0.303458
0.217890
0.296246
0.238511
0.235933
0.214185
0.217884
0.139070
0.192011
0.143884
0.084399
0.130666
0.158999
0.108947
0.116980
0.147279
0.068080
0.065723
0.006399
0.146941
0.077648
0.051014
0.105200
0.100673
0.042235
0.139596
0.097853
0.057644
0.075473
0.074030
0.029055
0.057949
0.085145
0.063251
0.051597
0.035327
-0.009052
0.083525
0.060729
-0.008075
0.095854
0.061392
0.104118
-0.073394
-0.004438
-0.021495
-0.004225
-0.001983
0.062493
0.078007
0.003595
0.015029
0.023922
-0.007925
-0.065277
-0.014020
0.074125
0.029247
0.046478
0.047220
0.048497
0.036780
-0.010244
0.034557
-0.026338
0.047231
0.046606
-0.001499
0.079734
0.070437
0.018348
0.073386
-0.009232
-0.048548
-0.016786
-0.038452
0.037173
0.015164
0.070707
0.044494
0.024803
0.072893
0.070720
0.011969
0.018522
0.108203
0.059025
0.102791
0.032539
0.047610
0.031890
0.139147
0.043541
0.096105
0.106140
0.137218
0.060289
0.148481
0.141087
0.213457
0.129329
0.133272
0.129798
0.191366
0.216306
0.208369
0.178574
0.126708
0.207017
0.193784
0.129398
0.073623
0.139391
0.108388
0.153573
0.133915
0.052690
0.114346
0.030983
0.108690
-0.016649
0.039607
-0.005941
-0.020930
0.028163
-0.128767
-0.007250
-0.067470
-0.063643
0.114354
0.007211
-0.040770
-0.008080
0.065330
-0.051647
-0.063546
-0.001002
-0.108346
-0.064622
-0.044891
-0.100178
-0.023973
-0.016995
-0.056906
0.037484
0.159308
0.351915
0.638661
0.994960
1.241235
1.386219
1.298345
1.038470
0.794858
0.310199
-0.035252
-0.124187
-0.324713
-0.347684
-0.256996
-0.158389
-0.109194
-0.108821
-0.108587
-0.028951
-0.009704
0.020039
-0.081252
-0.090036
-0.031982
-0.026188
-0.010234
-0.116458
0.052215
-0.081490
0.000749
0.114858
0.055183
0.020568
-0.027779
0.018257
0.102178
0.062103
0.069244
0.152085
0.174118
0.208105
0.203155
0.180686
0.245894
0.235341
0.250690
0.305570
0.220406
0.274417
0.361971
0.313832
0.371834
0.356517
0.431217
0.370710
0.468817
0.394212
0.486041
0.442806
0.494912
0.487871
0.427216
0.450023
0.429385
0.499145
0.509885
0.324629
0.346975
0.398589
0.376677
0.356058
0.272484
0.322270
0.210538
0.265096
0.286236
0.272755
0.172166
0.183867
0.231832
0.115903
0.076403
0.145903
0.071081
0.095161
0.089956
-0.038721
0.082592
0.024502
-0.010174
-0.108465
-0.011099
-0.005612
-0.055841
-0.073295
-0.019563
-0.055956
-0.110102
-0.060374
0.023052
-0.073886
-0.042704
-0.147412
-0.122319
-0.176123
-0.040381
-0.069624
-0.095971
-0.099186
-0.066351
-0.081770
-0.068899
-0.091562
-0.054056
-0.104446
-0.094340
-0.038857
-0.031829
-0.045849
-0.150423
-0.090329
0.015833
-0.074210
-0.041042
-0.108792
-0.050495
0.034351
-0.061621
0.009136
-0.022872
-0.036908
-0.079936
-0.090729
-0.054974
-0.165545
-0.120807
-0.130606
0.013862
-0.029315
-0.100202
-0.043261
-0.114205
-0.052074
-0.172036
0.004419
-0.038284
-0.032344
-0.094362
-0.038583
-0.008010
-0.031634
-0.082744
-0.068193
-0.093859
-0.017501
-0.084990
-0.080194
-0.093677
-0.093618
-0.009919
-0.101279
-0.103277
-0.131930
-0.022045
-0.017410
-0.110314
0.027483
0.003911
-0.038986
0.010394
0.013558
-0.050942
-0.011186
-0.002759
0.009375
0.090826
0.084596
0.022522
0.046487
0.036862
0.083005
0.115879
0.086063
0.105387
0.143605
0.099815
0.054215
0.086329
0.151495
0.153005
0.064385
0.019484
-0.021987
0.099146
-0.003497
-0.035242
0.073998
-0.060586
-0.054641
-0.013374
-0.026093
-0.004210
0.002102
-0.022674
-0.036834
-0.110653
-0.001198
-0.008829
-0.020457
-0.046598
-0.028074
-0.055655
-0.085121
-0.106347
-0.013425
-0.040496
-0.072781
0.035754
-0.103180
-0.129340
-0.132147
-0.151743
-0.060687
0.120941
0.397754
0.706643
1.084295
1.331699
1.408283
1.336837
0.928004
0.612459
0.350740
-0.081437
-0.272405
-0.315088
-0.251977
-0.167950
-0.203342
-0.184502
-0.057216
0.028964
-0.061610
-0.091810
-0.028111
0.009214
-0.043832
-0.114372
-0.012680
0.001772
0.039559
-0.009930
-0.060764
0.042933
0.032075
0.026765
0.059717
0.117070
0.085011
0.109467
0.102738
0.059126
0.147654
0.082159
0.257542
0.192081
0.323647
0.190602
0.275458
0.349476
0.335272
0.293309
0.350744
0.371754
0.428371
0.411154
0.443547
0.374298
0.425921
0.472847
0.391693
0.480262
0.462746
0.520047
0.640170
0.445068
0.509303
0.523563
0.427758
0.457848
0.432633
0.437063
0.405274
0.446667
0.374868
0.383424
0.365945
0.300283
0.354610
0.234874
0.256361
0.273080
0.276551
0.194548
0.183784
0.262729
0.129576
0.204889
0.115671
0.141633
0.074472
0.004434
0.006583
0.068936
0.051586
-0.001786
0.039948
0.028074
0.043754
-0.025073
-0.029437
0.044082
0.082982
-0.032711
0.013523
-0.021610
-0.006063
0.055333
0.031200
-0.039086
0.099419
0.038714
0.002674
-0.049556
-0.042885
0.015761
-0.034640
-0.011682
-0.003471
-0.045908
0.055136
-0.058565
-0.059069
0.102853
0.008634
0.030663
-0.042432
-0.039187
-0.002604
0.063959
-0.011053
0.036727
-0.045504
-0.067671
-0.017023
0.092390
0.007649
0.076376
-0.028865
-0.008861
0.028104
-0.016236
-0.035407
-0.026120
-0.097347
-0.035355
0.078012
-0.050223
0.042730
0.013427
0.050592
-0.079808
-0.059912
-0.011806
0.123699
0.024469
0.008967
0.019828
0.019914
0.071256
0.022869
0.002034
0.003404
-0.027339
0.019956
0.048762
0.052941
0.038980
-0.059612
0.044810
0.099055
0.076098
0.038798
0.110439
0.096971
0.142114
0.094134
0.155613
0.135929
0.245996
0.137146
0.139831
0.218408
0.218625
0.121467
0.190661
0.336438
0.201820
0.190685
0.193422
0.224908
0.243697
0.104538
0.212929
0.079425
0.213943
0.155690
0.153913
0.111216
0.239181
0.128314
0.051434
0.111942
0.083496
0.100394
0.064553
0.089386
0.045538
0.051564
-0.012711
0.094212
0.080907
0.104770
0.032698
0.067680
0.023686
-0.000463
0.048622
-0.036278
-0.013629
0.002107
0.001223
-0.013861
0.018109
0.028920
0.008622
0.089742
0.347007
0.509569
0.780160
1.183707
1.398232
1.499973
1.243989
1.106912
0.841941
0.417703
0.015243
-0.093518
-0.219210
-0.180511
-0.193243
-0.170474
-0.058986
0.024346
0.044800
0.029993
0.009022
0.058117
0.117381
0.055186
-0.059443
0.034146
0.161297
-0.029308
0.067846
0.103360
0.122827
0.209558
0.064363
0.112399
0.038635
0.180905
0.119001
0.206048
0.115172
0.164602
0.227889
0.289690
0.318174
0.269370
0.331790
0.342695
0.397219
0.398965
0.442327
0.461258
0.524513
0.449278
0.502991
0.563679
0.524119
0.512726
0.463432
0.529292
0.563294
0.517316
0.536891
0.546005
0.614720
0.570558
0.528083
0.538609
0.557607
0.501370
0.468872
0.455300
0.497646
0.477633
0.481573
0.404296
0.347018
0.390543
0.356264
0.313575
0.294307
0.297595
0.351865
0.223621
0.206970
0.134649
0.188087
0.125493
0.169891
0.208525
0.148506
0.136869
0.022057
0.123717
0.119508
0.068255
0.064937
0.101886
0.055001
-0.007197
0.107228
0.082136
0.000600
0.066836
0.069277
0.010419
0.022617
0.043580
0.092227
0.070210
0.070335
-0.020375
0.027300
-0.031768
0.113981
0.047884
0.051713
0.087039
0.134497
-0.019391
0.049219
0.120059
0.037338
0.020511
0.004772
-0.014395
0.082334
0.060208
0.029753
0.046157
0.010311
0.001828
-0.005988
0.017891
0.108441
-0.025988
0.059687
-0.027035
0.018646
-0.020302
-0.101983
0.039582
0.115713
-0.005467
-0.060904
0.038801
-0.016454
0.067231
-0.000479
0.058911
0.025751
0.069528
0.062134
0.036741
-0.075214
-0.072012
0.038337
0.099539
-0.025900
-0.012477
0.047226
0.028929
-0.044038
0.090756
0.039828
-0.022961
0.038138
0.187330
0.036304
0.039727
0.092998
0.097623
0.055207
0.114156
0.062738
0.089015
0.128229
0.180962
0.124446
0.204668
0.232740
0.162444
0.210876
0.167568
0.186559
0.164959
0.170134
0.175243
0.100832
0.187411
0.157383
0.181029
0.152663
0.015503
0.149218
0.065308
0.137769
0.016059
0.101021
0.063693
0.044111
0.110041
0.046694
0.082518
-0.015201
0.051501
0.031594
0.072490
-0.015993
0.018980
0.046713
-0.039903
-0.023505
-0.037139
-0.019980
-0.004036
-0.047101
0.030548
0.044897
-0.086068
-0.056149
0.026938
-0.085730
-0.028536
-0.014541
0.034597
0.228330
0.490640
0.839877
1.086457
1.322750
1.363698
1.179045
0.954450
0.717727
0.193132
0.024394
-0.201966
-0.328950
-0.289509
-0.159330
-0.174455
-0.083705
-0.140728
-0.042812
0.020251
-0.062147
0.031567
-0.024498
0.017822
-0.053269
-0.009487
0.008619
-0.018919
0.020301
0.052788
0.059804
0.028648
0.084886
0.126173
0.082221
0.035995
0.158198
0.121066
0.201279
0.124020
0.100691
0.154292
0.241947
0.187060
0.177044
0.302998
0.328956
0.409316
0.339661
0.383961
0.311723
0.404900
0.388777
0.414300
0.402791
0.457460
0.520771
0.421988
0.494840
0.489620
0.400403
0.447067
0.516414
0.383204
0.457695
0.403500
0.374564
0.321656
0.412759
0.390721
0.362580
0.310498
0.349960
0.297371
0.309494
0.313656
0.232873
0.180040
0.221985
0.087807
0.192260
0.117302
0.088477
0.082155
0.082209
0.109741
0.060113
0.045380
0.083099
-0.001392
-0.004074
0.055090
0.026364
-0.011102
-0.040011
-0.012680
-0.015538
-0.044318
-0.085401
-0.081869
-0.028270
0.003241
-0.050868
-0.046866
0.017212
-0.112202
-0.042642
-0.082613
-0.103474
-0.044213
-0.141835
-0.066516
-0.182342
-0.088044
-0.078212
-0.117138
-0.117364
-0.092758
-0.086806
-0.128752
-0.030367
-0.060363
-0.103863
-0.030831
-0.115038
-0.028330
-0.095947
-0.086837
-0.124079
-0.117825
-0.157466
-0.103368
-0.156777
-0.093282
-0.101597
0.018503
-0.144379
-0.131108
-0.099152
-0.007993
-0.141849
-0.102424
-0.037526
-0.091574
-0.102436
-0.059381
-0.122105
-0.088493
-0.112136
-0.039053
-0.140405
-0.168148
-0.083543
0.025418
-0.199823
-0.015937
-0.119860
-0.158451
-0.166412
-0.036576
-0.044756
-0.102289
-0.060991
-0.048324
-0.039319
-0.093474
-0.143733
-0.042162
-0.030632
-0.044386
-0.090913
0.010211
-0.011594
0.012079
0.028738
0.010336
0.092206
-0.046479
0.002980
0.062737
-0.010458
0.130426
0.120845
0.127304
0.019133
0.122452
0.026554
0.036023
0.047242
0.090064
0.050158
0.010819
0.038226
-0.034297
0.006626
0.012192
-0.024481
-0.008216
0.030277
-0.016904
-0.008738
0.037425
-0.138180
-0.096200
-0.119909
-0.139219
-0.132261
-0.158337
-0.081675
-0.060627
-0.108773
-0.095343
-0.112810
-0.097654
-0.165231
-0.158312
-0.103379
-0.124517
-0.109237
-0.241974
-0.164323
-0.170562
-0.085485
-0.015803
0.176790
0.481596
0.787541
1.116148
1.324391
1.316772
1.147510
0.797019
0.476557
0.103548
-0.119997
-0.373322
-0.414044
-0.298511
-0.256996
-0.244918
-0.147010
-0.140115
-0.053285
-0.058580
-0.027826
-0.134955
-0.056805
-0.101551
-0.089445
-0.069422
0.033787
0.009043
-0.038814
-0.020406
-0.136091
0.006047
-0.019508
-0.022497
0.043765
0.067621
0.069184
0.121027
0.071562
0.145312
0.121778
0.081317
0.175902
0.228360
0.270304
0.232595
0.171508
0.275736
0.228683
0.264093
0.372048
0.305030
0.308375
0.398183
0.436881
0.338474
0.408643
0.445922
0.411009
0.341867
0.401327
0.435080
0.421550
0.389926
0.447530
0.396564
0.437530
0.358399
0.271250
0.410443
0.287823
0.292466
0.263601
0.305088
0.296349
0.174668
0.185743
0.201165
0.126167
0.215212
0.214924
0.208538
0.065376
0.083390
0.071675
0.002672
0.058935
0.057576
0.085834
0.093911
0.054298
0.001450
0.019923
-0.079198
-0.089949
-0.073762
-0.053758
0.011973
-0.074296
-0.053333
-0.032169
-0.099078
-0.056821
-0.072547
-0.043763
-0.112047
-0.027028
-0.096066
-0.046726
-0.091242
-0.104733
-0.021905
-0.104503
-0.107160
-0.090147
0.036211
-0.043684
-0.096621
-0.139827
-0.021367
-0.088243
-0.139221
-0.059428
-0.055836
-0.091863
-0.060172
-0.048685
-0.035338
-0.089017
-0.039664
-0.041611
-0.038003
-0.074180
-0.089467
-0.071539
-0.018899
-0.018040
-0.120587
-0.034634
-0.114810
-0.035077
-0.039136
-0.123426
-0.021464
0.022771
0.000591
0.075113
-0.048440
0.039851
-0.127015
-0.053027
-0.092096
0.016463
-0.045431
0.044629
0.028716
-0.046512
-0.062521
-0.005621
0.064716
-0.017132
-0.027510
-0.001475
0.007607
0.054925
-0.030244
0.030038
-0.009468
0.120664
0.155270
0.078151
0.120961
0.116495
0.012293
0.073805
0.122748
0.163840
0.137879
0.138585
0.192993
0.161673
0.174665
0.191819
0.114042
0.227025
0.128607
0.150830
0.150359
0.177690
0.085881
0.117547
0.145017
0.133365
0.085078
0.129624
0.067101
0.057261
0.056706
0.085781
-0.005480
-0.003644
0.000821
0.063571
-0.040483
0.068471
-0.003194
0.008195
-0.008500
0.064818
0.032505
0.076840
0.004044
-0.002248
-0.021644
-0.016015
0.009449
-0.033348
0.029416
0.029334
-0.039474
-0.015633
-0.066456
-0.050224
0.122441
0.306048
0.646185
0.854143
1.192238
1.427188
1.463250
1.188274
0.974411
0.546926
0.293471
-0.053533
-0.227120
-0.309645
-0.155434
-0.111363
-0.057759
-0.074123
0.101206
0.031091
0.033999
0.019980
0.025443
-0.022679
0.072132
0.093786
-0.018429
0.080105
0.073262
0.068993
0.072907
0.144096
0.118323
0.067732
0.129869
0.099953
0.211534
0.096232
0.180460
0.183669
0.186406
0.241283
0.282614
0.295653
0.278991
0.306379
0.353714
0.334075
0.396856
0.427413
0.506602
0.364859
0.389231
0.510928
0.522110
0.479161
0.514133
0.544796
0.600640
0.560530
0.546537
0.539269
0.552265
0.556458
0.575982
0.554580
0.528338
0.572757
0.479807
0.514443
0.485192
0.508020
0.504779
0.492174
0.378932
0.429563
0.363990
0.475119
0.382682
0.342251
0.342731
0.247769
0.250180
0.243670
0.235578
0.238517
0.204817
0.090001
0.105725
0.160871
0.130847
0.160956
0.065337
0.071453
0.076587
0.101820
0.106962
0.065199
-0.011883
0.125931
0.117078
0.072587
0.123298
0.052370
0.115776
0.000699
0.115119
0.106634
0.125054
0.094299
0.116920
0.128339
0.033064
0.039225
0.030973
0.088428
0.034671
0.111076
0.070219
0.112281
0.054786
-0.035226
0.102054
0.114224
0.081828
0.028179
0.073549
0.033273
0.018653
0.060550
0.029162
-0.024036
0.087152
0.054656
-0.014777
0.027146
0.089277
0.110243
0.057795
0.104708
0.030052
0.057450
0.014892
0.165717
0.034402
0.074030
0.179329
0.026012
-0.041579
0.085831
0.108681
0.058392
0.089682
0.116033
0.086239
-0.051682
0.141522
0.041201
0.043778
0.101712
0.030582
0.148327
0.080906
0.053928
0.126557
0.052565
0.063360
0.173779
0.096388
0.207514
0.145130
0.166903
0.184615
0.156304
0.120278
0.211578
0.148223
