-0.002962
-0.016634
0.093083
-0.072394
0.017659
-0.020370
-0.079753
-0.104095
0.018189
0.001444
-0.027398
-0.066196
0.030754
-0.068687
0.030066
0.025516
-0.041216
-0.030400
0.051773
-0.064498
0.094328
0.061811
-0.045949
0.084798
-0.003628
-0.059526
0.024214
0.106611
0.027920
0.076639
0.141804
0.022957
0.038538
0.137551
0.073216
0.179718
0.128658
0.116879
0.158464
0.150016
0.172019
0.277168
0.315762
0.209696
0.210747
0.222900
0.174071
0.160301
0.289258
0.226719
0.219583
0.241814
0.187282
0.179167
0.115655
0.173555
0.110284
0.055653
0.063574
0.111153
0.078027
0.044762
0.153552
0.150282
0.115582
0.090928
0.115884
0.081391
0.066416
-0.008441
-0.015064
0.052420
-0.015465
0.112513
0.018654
0.009096
0.023803
0.017682
-0.033364
0.071797
0.079159
0.006665
0.070726
0.053688
0.145874
0.285301
0.606481
0.910890
1.250462
1.447091
1.500000
1.266943
0.955631
0.687850
0.233319
0.092391
-0.073543
-0.158315
-0.202683
-0.180670
-0.028336
0.086757
0.017575
0.051925
0.043541
0.075488
0.114595
0.059990
0.101794
0.057884
0.087351
0.230284
0.066866
0.138249
0.120541
0.186766
0.121797
0.172861
0.275584
0.185711
0.138127
0.184890
0.222041
0.140028
0.190372
0.266743
0.324876
0.341692
0.356497
0.290863
0.322758
0.451169
0.403109
0.456048
0.519335
0.476444
0.494644
0.538795
0.472188
0.580228
0.602461
0.640317
0.555842
0.512446
0.603255
0.514915
0.615932
0.571431
0.580469
0.653177
0.540527
0.571601
0.585964
0.571835
0.540885
0.572913
0.456105
0.465163
0.451300
0.454455
0.399016
0.446477
0.474971
0.258823
0.291617
0.256574
0.287144
0.261694
0.211376
0.236335
0.258690
0.133363
0.205503
0.132200
0.123486
0.187405
0.107575
0.045647
0.215128
0.217624
0.163407
0.149092
0.203311
0.036587
0.174206
0.087524
0.091972
0.141408
0.095351
0.046543
0.081410
-0.026209
0.115056
0.034997
0.069470
0.032904
0.055808
0.038641
0.059960
0.075856
0.132488
0.138744
0.076889
0.082698
0.133492
0.136613
0.154196
0.111183
0.160817
0.038842
0.100228
0.041326
0.109450
0.067559
0.052761
0.013949
0.145434
0.053204
0.108931
0.116101
0.099683
0.204099
0.113652
0.139851
0.112866
0.122732
0.063532
0.127101
0.081845
0.030892
-0.016789
0.040149
0.188488
0.057560
0.106829
0.099134
0.101224
0.102730
0.116689
0.046008
0.136361
0.088108
0.099331
0.054014
0.115917
0.087018
0.002715
0.151952
0.129358
0.124229
0.110027
0.128143
0.143979
0.187459
0.161724
0.203416
0.176296
0.225980
0.200706
0.198451
0.182623
0.228083
0.241448
0.249357
0.266908
0.159208
0.155327
0.171154
0.234539
0.225424
0.256197
0.282344
0.136931
0.201000
0.319785
0.241965
0.344687
0.280790
0.114687
0.129910
0.133647
0.154378
0.180525
0.095791
0.141355
0.093989
0.046309
0.113446
0.142331
0.095240
0.101556
0.066797
0.128066
0.065604
0.081857
0.041881
0.079648
0.000672
-0.002604
0.091266
0.068333
0.028504
0.101030
0.013163
0.021779
0.080378
0.018023
0.068361
0.172155
0.296441
0.706449
0.869496
1.318217
1.407708
1.431043
1.364693
0.955909
0.589604
0.227333
-0.043949
-0.145738
-0.309674
-0.157391
-0.094538
-0.048359
0.055212
0.001596
0.014737
0.124354
0.061389
0.096592
0.108282
0.159536
0.081082
0.069594
0.079272
0.063284
0.052411
0.165101
0.136116
0.127008
0.028717
0.162705
0.184034
0.136131
0.111738
0.129038
0.301429
0.244846
0.245941
0.298318
0.250228
0.252008
0.338248
0.368001
0.346717
0.359102
0.504106
0.432964
0.412350
0.451380
0.444031
0.445028
0.449275
0.517797
0.524736
0.466722
0.527176
0.589031
0.544476
0.606252
0.519620
0.506972
0.489372
0.537565
0.553995
0.586681
0.439259
0.429804
0.468572
0.445160
0.395835
0.302864
0.415889
0.292234
0.258157
0.307677
0.234584
0.239113
0.204196
0.166674
0.166650
0.165349
0.128969
0.171474
0.114880
0.167626
0.011206
0.157586
0.096786
0.075311
0.085347
0.086234
-0.038896
-0.005060
0.017486
-0.040647
0.062012
0.050945
0.012993
0.023846
0.062532
0.035940
0.077488
-0.014649
-0.056948
0.028127
0.030078
-0.118768
0.087162
-0.005014
0.052002
-0.050968
-0.037336
0.092243
-0.012364
-0.069129
0.076925
0.002930
-0.050547
0.012726
0.061387
-0.050284
0.071187
-0.023776
0.008714
-0.039307
0.045453
0.012424
0.054367
0.029692
-0.006363
-0.083064
-0.011538
0.070478
-0.067474
-0.107219
-0.005301
0.087592
0.021558
-0.045811
-0.043106
-0.012376
-0.030494
0.014214
-0.029814
-0.048882
0.020129
-0.033053
0.045851
0.057008
-0.057542
0.076270
0.002313
-0.082780
-0.021067
0.009949
-0.035502
-0.023783
0.022664
0.032609
0.065749
-0.082020
-0.019566
-0.065867
0.020384
0.059701
-0.039670
0.103192
0.018122
0.060416
0.130868
0.005284
0.032410
0.103780
0.099265
0.139324
0.082899
0.083202
0.067677
0.067171
0.140086
0.136064
0.124636
0.173313
0.138963
0.146668
0.146938
0.066924
0.137309
0.118843
0.095456
-0.035504
0.011099
0.075843
0.030645
0.065407
0.053226
0.007186
-0.026510
-0.039047
-0.034311
-0.047616
-0.039325
-0.057710
-0.022141
-0.025246
-0.133470
0.000190
-0.012905
0.014481
-0.046984
-0.047248
-0.126802
-0.133615
-0.024999
-0.063222
-0.049516
-0.094497
-0.030701
-0.098122
-0.072634
0.026398
0.218701
0.536286
0.853001
1.219271
1.359691
1.352894
1.128099
0.801441
0.437894
0.081286
-0.161492
-0.341234
-0.305801
-0.338934
-0.221978
-0.086362
-0.167953
-0.153951
-0.042079
-0.000766
-0.152823
-0.033567
0.026650
-0.034039
-0.054615
-0.058308
-0.052632
-0.075227
-0.018777
0.075960
0.034498
0.009706
0.102765
0.038426
0.009330
0.127187
0.135348
0.139885
0.155450
0.089891
0.194985
0.246706
0.225574
0.269140
0.248499
0.307093
0.283796
0.293084
0.341989
0.342708
0.442030
0.366991
0.471195
0.486492
0.474350
0.482160
0.509777
0.482601
0.444419
0.505415
0.575112
0.563667
0.363953
0.446224
0.399303
0.474630
0.431608
0.406148
0.441960
0.412813
0.367616
0.384783
0.405339
0.310971
0.305471
0.275944
0.261903
0.168721
0.189535
0.281812
0.162407
0.183379
0.209031
0.155721
0.043399
0.120011
0.102895
0.092478
0.102178
-0.055684
-0.024768
0.018058
-0.012147
-0.084268
-0.002288
0.019056
0.033409
-0.062539
0.025084
0.010800
-0.057030
0.046084
-0.015574
-0.094110
-0.093591
-0.072646
0.045212
0.126464
-0.031581
-0.049094
-0.015487
-0.051393
-0.009964
0.038104
0.006792
-0.021753
-0.088885
-0.111151
0.013826
0.032224
0.003374
-0.070228
-0.038743
-0.144050
-0.010119
0.021939
-0.023754
0.026481
-0.078178
-0.008404
-0.013649
-0.064477
-0.068675
-0.052227
0.004441
0.071545
0.013564
0.022424
0.001671
0.012533
-0.035400
-0.068721
0.022721
0.035266
0.033064
0.117071
-0.013791
0.004688
-0.000695
0.024396
-0.040016
-0.051092
-0.006571
-0.108816
-0.066286
0.008796
0.012638
-0.039317
-0.015935
0.106200
0.000453
0.004647
-0.003375
0.006131
0.044824
0.087422
0.013898
0.036565
0.069328
0.068602
0.041242
0.099319
0.097207
0.113924
0.183439
0.092535
0.089761
0.193354
0.175063
0.150807
0.231366
0.218306
0.198540
0.160914
0.138743
0.245322
0.249705
0.197361
0.129565
0.170236
0.113752
0.160975
0.162212
0.114764
0.126132
0.060922
0.090297
0.044919
0.063127
0.001120
0.031752
0.047826
0.047465
0.029001
-0.032936
0.003685
0.066545
-0.081612
0.020390
0.016160
0.093147
-0.036183
-0.083616
-0.002932
0.013813
0.064554
-0.060822
0.030391
0.007695
-0.053063
0.067900
0.050022
0.088250
0.131794
0.341975
0.654358
1.043642
1.288925
1.488767
1.414816
1.277285
0.906626
0.479878
0.208510
-0.059646
-0.244375
-0.210636
-0.211787
-0.153217
-0.094723
0.097726
-0.019109
0.158071
0.123136
0.066885
0.118720
0.069585
0.017466
0.130562
0.140621
0.029029
0.072386
0.094811
0.078229
0.083043
0.119503
0.177126
0.113206
0.070964
0.167966
0.268761
0.149397
0.231661
0.271818
0.329865
0.285766
0.342881
0.328722
0.335829
0.370680
0.444715
0.438276
0.419244
0.505800
0.549318
0.485626
0.468179
0.500390
0.587000
0.561766
0.532128
0.526612
0.697634
0.492631
0.545882
0.564404
0.573853
0.595375
0.596201
0.601723
0.485869
0.557605
0.484366
0.578325
0.490563
0.399347
0.490348
0.486317
0.362473
0.364089
0.307398
0.272228
0.341454
0.284079
0.322199
0.301126
0.221862
0.212831
0.221647
0.206674
0.161694
0.153673
0.133693
0.165154
0.120679
0.179726
0.085171
0.159167
0.074033
0.054873
0.135952
0.118413
0.102671
0.082209
0.102543
0.097204
0.044102
0.091915
0.112477
0.168381
0.002989
0.059999
0.042809
0.123722
0.099826
0.018482
0.128670
0.050515
0.129012
0.061604
-0.007288
0.064760
0.079180
0.126699
0.133605
0.029365
0.104935
0.115561
0.036962
0.143729
0.115793
0.100293
0.089427
0.092268
0.075899
0.066378
0.002709
0.029011
0.108566
0.078191
0.030927
0.117762
0.076677
0.088207
0.143244
0.065731
0.060959
0.051028
-0.008196
0.072981
0.152751
0.045107
0.095617
0.037246
0.023564
0.145735
0.067481
0.071032
-0.005160
0.048242
0.037816
0.083790
0.012039
0.162914
0.100262
0.206324
0.113553
0.164678
0.090151
0.138236
0.165294
0.127803
0.096543
0.126601
0.157019
0.135515
0.238010
0.141158
0.197328
0.215952
0.278457
0.318539
0.224569
0.329853
0.272660
0.302684
0.310428
0.204431
0.250748
0.249956
0.306057
0.278673
0.244092
0.263503
0.316205
0.282654
0.237053
0.214777
0.181392
0.204845
0.148670
0.126631
0.180106
0.120690
0.090344
0.186008
0.050889
0.084750
0.018745
0.142505
0.150979
0.178723
0.153215
0.161779
0.165517
0.114876
0.119089
0.107739
0.071663
0.133179
0.080556
0.127286
0.092786
0.033090
0.038589
0.052068
0.121893
0.288100
0.401470
0.831386
1.063446
1.299338
1.495275
1.419327
1.239984
0.917653
0.517700
0.156794
-0.041612
-0.231356
-0.193462
-0.139395
-0.012539
0.041117
0.059629
0.042955
0.108082
0.114183
0.154765
0.226612
0.095703
0.130573
0.062811
0.166546
0.154476
0.112569
0.155155
0.113397
0.248405
0.170517
0.186585
0.196494
0.224452
0.282219
0.242273
0.237812
0.319341
0.198850
0.286484
0.306088
0.333354
0.399907
0.407777
0.353940
0.422245
0.387270
0.525889
0.382212
0.474789
0.526437
0.458136
0.536992
0.480240
0.574206
0.564167
0.531291
0.543382
0.568814
0.583525
0.554786
0.516877
0.617198
0.577345
0.503990
0.584901
0.573400
0.581230
0.513195
0.470184
0.451478
0.427083
0.379003
0.464047
0.392298
0.419148
0.353491
0.369980
0.296426
0.304344
0.316170
0.205302
0.163496
0.245685
0.193772
0.181203
0.156988
0.263183
0.119098
0.119471
0.073264
0.113352
-0.004006
0.081539
0.085810
-0.002703
0.050281
0.017770
0.068362
0.091067
0.009050
0.059975
0.068920
0.017081
-0.001615
0.036462
0.039587
0.088231
0.091824
0.097678
0.117240
0.085030
0.073756
0.015375
-0.026342
0.013346
-0.004732
0.004629
0.049010
-0.044895
0.022418
0.012737
0.090316
0.032897
0.059677
0.037276
-0.005294
-0.056449
0.066968
0.026755
0.002996
-0.006444
-0.032933
0.022120
0.023846
-0.021717
0.039265
-0.062270
-0.020589
-0.016836
0.029372
0.044416
-0.071232
0.040688
0.041613
0.018035
-0.002351
-0.012447
0.109878
0.021849
-0.003121
-0.026721
-0.024972
-0.042294
-0.057690
-0.025634
0.026792
0.136255
0.061150
0.017736
0.060995
0.031566
-0.012865
0.044106
0.086776
0.077157
0.060471
0.118077
0.022688
0.074518
0.122742
0.115423
0.118778
0.134437
0.121310
0.145408
0.060014
0.179989
0.175208
0.144516
0.157514
0.165309
0.213961
0.175707
0.160663
0.118073
0.091642
0.152958
0.148046
0.166233
0.095822
0.086319
0.027016
0.110787
0.082556
0.098377
0.016450
0.002691
-0.052880
0.061653
0.037513
0.028322
-0.018598
-0.040495
0.005195
0.016864
-0.027909
-0.002878
0.058901
-0.065983
-0.065935
-0.081734
0.001638
0.038349
-0.067755
-0.120505
0.008093
-0.042522
-0.046690
-0.116412
0.017129
0.004590
0.036957
0.393374
0.697350
0.996280
1.256078
1.306082
1.260003
1.081443
0.700746
0.385937
-0.024309
-0.119330
-0.255169
-0.282272
-0.271798
-0.182708
-0.090241
-0.098028
0.044364
-0.087249
-0.010377
-0.060320
-0.080430
0.041609
-0.041725
-0.035073
-0.031531
-0.070488
-0.065079
0.056307
-0.078968
-0.068286
0.091742
0.071433
0.106162
0.025158
0.157638
0.152459
0.077522
0.110485
0.102938
0.181095
0.199446
0.236235
0.275718
0.198680
0.333389
0.311373
0.299600
0.342198
0.308319
0.337868
0.420422
0.350705
0.438161
0.365598
0.436884
0.339400
0.472518
0.479367
0.442226
0.398402
0.378158
0.447703
0.441360
0.463565
0.441552
0.427214
0.404438
0.432195
0.319422
0.372341
0.353198
0.366105
0.284345
0.281716
0.200260
0.254701
0.205409
0.203515
0.215366
0.202108
0.174869
0.118303
0.063617
0.060565
0.025915
0.082351
0.060217
-0.064162
-0.013755
-0.067553
-0.035484
-0.033100
-0.055035
-0.003006
-0.065159
-0.090244
-0.039623
-0.036702
0.000804
-0.095687
0.038256
-0.085752
0.016808
-0.095711
-0.101772
-0.006874
-0.079534
-0.046212
-0.042672
-0.084441
-0.118744
0.001000
-0.061829
-0.022288
-0.036657
0.004193
-0.015723
-0.064777
-0.099695
-0.105779
-0.109228
-0.082098
-0.004080
-0.071372
-0.072880
-0.067832
-0.103106
-0.051700
-0.070730
-0.057777
-0.095543
-0.086950
-0.103170
-0.092776
-0.105262
-0.040313
-0.070616
-0.059078
-0.154006
-0.003022
-0.113099
-0.050891
-0.067586
-0.100165
-0.022379
-0.039111
-0.079633
-0.054762
-0.046547
-0.024557
-0.011988
-0.086739
-0.111001
-0.028866
0.003993
-0.039884
-0.096030
-0.146822
-0.077932
-0.103814
-0.037091
-0.119370
-0.136724
-0.086369
-0.019026
0.037706
0.016476
-0.012771
-0.037454
0.002511
0.022124
0.016534
-0.009378
0.128949
0.038482
0.038553
0.052042
0.085173
0.093047
0.136181
0.143528
0.087206
0.153098
0.085776
0.028299
0.172680
0.086149
0.120959
0.061746
0.142955
0.067221
-0.016671
0.103064
-0.026201
-0.008844
0.055205
0.025944
-0.147022
-0.083460
-0.072268
0.005034
-0.031992
-0.015031
-0.032804
-0.081082
-0.084505
-0.071339
-0.083023
-0.133681
-0.081462
-0.085821
-0.051656
-0.016210
-0.071301
-0.076817
-0.091682
-0.063777
-0.140676
-0.131103
-0.002776
-0.082743
-0.090524
-0.007017
0.449612
0.702835
1.045583
1.263767
1.319029
1.187812
1.042044
0.612014
0.248390
-0.055545
-0.221200
-0.385691
-0.282166
-0.236778
-0.247778
-0.093285
-0.131716
-0.033768
-0.041746
0.062299
-0.011154
-0.033698
0.028242
0.012236
-0.029650
-0.026304
-0.057814
-0.041676
0.014047
0.012402
0.035836
0.024157
0.031740
0.084666
0.088844
0.073025
0.055595
0.145828
0.062608
0.166642
0.214802
0.132108
0.172650
0.250632
0.289474
0.298366
0.340918
0.358467
0.378253
0.322741
0.385743
0.406735
0.384846
0.403907
0.396098
0.465884
0.521201
0.474681
0.500361
0.503120
0.534514
0.588676
0.428692
0.473874
0.419895
0.475088
0.437506
0.441957
0.397301
0.421070
0.337806
0.321905
0.378398
0.340288
0.250819
0.329183
0.251530
0.225802
0.211536
0.270035
0.188175
0.258249
0.118677
0.153282
0.132994
0.103729
0.041324
0.008403
0.138717
0.043463
0.071374
0.045190
-0.084337
0.040113
0.080580
0.026750
-0.011535
0.014154
0.014524
0.040138
-0.003619
-0.019348
-0.042098
-0.013408
-0.014906
-0.121687
-0.022846
0.029316
-0.041410
0.057482
0.001906
-0.007516
-0.010931
-0.006927
-0.050080
0.004326
0.034888
-0.002857
0.030484
-0.005036
0.020820
-0.001748
0.033332
-0.036371
-0.027112
0.053156
0.029228
0.027538
0.054421
-0.045651
0.032873
-0.023666
0.018424
-0.056857
-0.017871
-0.053658
-0.070448
-0.002779
-0.029537
0.038837
0.074657
0.154244
-0.002362
0.013208
0.061626
0.002275
0.058920
0.027916
0.056381
0.049444
0.020424
-0.033916
0.030196
0.036648
0.055526
-0.020746
-0.069372
-0.041912
-0.043183
0.116461
0.020678
0.089722
0.042950
0.072853
0.023756
0.090455
0.070296
0.141166
0.093311
0.068677
0.131077
0.164054
0.119592
0.118445
0.140272
0.186840
0.222829
0.175043
0.212884
0.159644
0.217020
0.195268
0.162709
0.249588
0.216540
0.286424
0.142768
0.206358
0.212866
0.201710
0.136134
0.164011
0.151776
0.201962
0.137277
0.116085
0.152175
0.106522
0.157161
0.053377
0.085813
0.092306
-0.025017
0.070976
0.116478
0.026038
0.057361
0.051081
0.061801
0.091705
0.075758
0.118948
-0.023293
0.025494
0.069456
0.048014
0.063064
0.009961
-0.001160
-0.036514
0.058068
0.012894
0.137103
0.295086
0.538733
0.844832
1.088084
1.286734
1.457523
1.339272
1.096926
0.760058
0.344215
0.063611
-0.104522
-0.270088
-0.180233
-0.268847
-0.079898
-0.023897
-0.000023
0.048561
0.006571
0.007197
0.129950
0.020924
0.097835
0.178317
0.111696
0.113457
0.128014
0.069520
0.124654
0.090708
0.131419
0.127915
0.125268
0.138078
0.153290
0.196996
0.247442
0.056534
0.312757
0.227427
0.282315
0.309648
0.247053
0.322667
0.362485
0.364220
0.415206
0.382181
0.375631
0.463081
0.551497
0.514620
0.491411
0.421440
0.513408
0.592716
0.609334
0.524831
0.606947
0.500228
0.604751
0.583278
0.474086
0.637450
0.602183
0.550437
0.452396
0.474104
0.482577
0.385128
0.431977
0.395876
0.396370
0.366289
0.363244
0.408754
0.342389
0.310493
0.300753
0.273471
0.293790
0.206780
0.220218
0.198507
0.193481
0.194907
0.062088
0.124469
0.125432
0.123888
0.073916
0.070788
0.159242
0.129963
-0.009749
0.057039
0.120672
0.004967
0.031408
0.105241
0.071861
0.060582
0.058439
0.018439
0.062601
0.047829
-0.031997
0.010620
0.087298
0.061905
0.003305
0.036720
0.054771
0.004888
0.056364
-0.014751
-0.068007
-0.004434
0.110338
0.012711
0.039097
-0.086216
0.030078
0.014999
0.041151
0.011439
0.015441
0.062913
-0.089725
0.061582
0.095167
-0.005179
-0.041743
0.005524
0.098410
0.015894
0.025565
-0.030487
-0.010616
0.026714
-0.028294
0.025868
0.037926
0.030014
0.036350
0.012053
0.045519
0.015079
0.006664
-0.041765
0.047476
0.014784
0.049679
0.117458
0.008470
0.009115
0.041912
-0.031229
0.045105
0.045299
-0.008488
0.032964
0.037550
-0.028889
0.033558
0.082865
0.023034
0.107950
0.024488
0.147641
0.049086
0.062799
0.171548
0.154748
0.221178
0.235570
0.173676
0.135962
0.112564
0.195535
0.156134
0.148000
0.225147
0.187230
0.141772
0.231194
0.292160
0.157503
0.100166
0.144637
0.194525
0.072420
0.112076
0.079297
0.043291
0.123014
0.040263
0.074800
-0.009811
0.019564
0.027565
0.053942
-0.011162
0.002532
-0.018855
0.053721
-0.074932
-0.009484
0.016412
-0.051378
-0.000232
0.038570
0.068859
0.073803
-0.015653
-0.035830
-0.050451
-0.062297
-0.104085
-0.044959
-0.095648
0.023869
0.109560
0.215766
0.481909
0.833779
1.176523
1.326477
1.423827
1.266627
1.030189
0.634123
0.301166
-0.192011
-0.377312
-0.321894
-0.288023
-0.253798
-0.164941
-0.113004
-0.048333
-0.078272
-0.040751
-0.020894
-0.026555
-0.007480
-0.037449
-0.011845
-0.025880
-0.005372
0.088498
-0.010416
0.007049
0.008965
0.048896
0.034938
0.080123
0.057966
0.053268
0.078192
0.073284
0.129843
0.048449
0.144747
0.190147
0.236380
0.246642
0.159653
0.322452
0.256335
0.293393
0.206722
0.241729
0.381577
0.362378
0.435660
0.426423
0.463402
0.457466
0.474430
0.383834
0.391937
0.457927
0.458261
0.522782
0.496983
0.466467
0.362325
0.458815
0.406078
0.427532
0.372362
0.383326
0.400224
0.435498
0.268722
0.348052
0.218980
0.251521
0.261686
0.176253
0.134838
0.150257
0.112057
0.136950
0.198427
0.102457
0.120804
0.042651
-0.013607
0.109796
0.040230
0.009193
0.027693
0.051285
0.023808
-0.065917
0.019462
-0.046000
-0.031465
-0.015461
-0.030149
-0.113824
-0.047081
-0.030142
-0.050244
-0.125244
-0.016182
-0.105572
0.053245
0.003265
-0.080724
-0.064226
-0.170518
-0.091008
-0.135275
-0.131263
-0.085894
-0.106789
-0.053846
-0.062879
-0.106346
-0.144101
-0.105005
-0.172640
-0.047576
-0.009474
-0.066876
-0.084882
-0.094545
-0.109303
-0.086347
-0.120210
-0.036704
-0.077211
-0.095503
-0.096750
-0.082691
-0.107030
-0.081428
-0.065869
-0.074070
-0.050663
-0.078356
-0.146643
-0.129260
-0.130401
-0.121977
-0.072644
-0.100324
-0.076253
-0.035744
-0.057910
-0.082807
-0.117505
-0.057208
-0.134525
-0.038805
-0.022081
-0.038530
-0.068486
-0.074831
-0.018161
-0.044724
-0.113487
-0.017246
-0.135503
-0.131970
-0.060157
-0.120884
-0.062646
-0.046036
-0.088783
0.005058
-0.007065
-0.034013
-0.076693
0.015799
0.040522
0.014643
0.084406
0.087573
0.108655
0.093197
0.126741
-0.015301
0.072816
0.032976
0.063323
0.014349
0.010775
0.162970
0.059286
0.073975
-0.026533
0.027929
-0.007155
0.038134
-0.014649
-0.076951
-0.071271
0.003972
0.055826
-0.007607
-0.000044
-0.013095
-0.057157
-0.062559
-0.154840
-0.094263
-0.110986
-0.079911
-0.018835
-0.103690
-0.049786
-0.118639
-0.066499
-0.054395
-0.008474
-0.120875
-0.052463
-0.107397
-0.118650
-0.187169
-0.097100
-0.154097
-0.030690
0.117421
0.465022
0.818712
1.039840
1.304858
1.352060
1.113269
0.862888
0.502237
0.075135
-0.186254
-0.285797
-0.398439
-0.288288
-0.208517
-0.301102
-0.200261
-0.112117
-0.113255
-0.105897
0.009665
-0.134187
-0.091977
-0.051579
-0.038531
-0.121428
-0.092202
-0.051042
-0.045305
-0.105802
0.022772
-0.015038
-0.067650
-0.017667
0.017533
-0.058367
-0.025226
0.073028
0.045609
0.008173
0.083165
0.116948
0.104174
0.241648
0.160442
0.244477
0.242748
0.329259
0.380307
0.233826
0.316684
0.270975
0.353253
0.358964
0.392653
0.414628
0.421024
0.402257
0.385398
0.455603
0.405987
0.459144
0.440726
0.486655
0.415548
0.428110
0.361730
0.397723
0.383769
0.319004
0.354066
0.293934
0.218202
0.387882
0.237641
0.234904
0.178191
0.253395
0.253599
0.112603
0.068333
0.074993
0.131558
0.120532
0.136956
0.053560
0.104946
0.082233
0.026445
0.054407
-0.019580
-0.007663
0.002937
-0.011397
-0.093681
-0.061877
-0.030295
-0.072579
-0.007868
-0.010869
-0.096066
-0.046313
-0.081780
-0.056550
-0.000681
0.028534
-0.079367
-0.049524
-0.005388
-0.047366
-0.099883
0.004088
-0.025887
-0.073527
0.001006
-0.086482
-0.143453
-0.073017
0.037933
-0.119479
-0.015732
-0.053079
-0.055402
-0.024996
-0.091662
-0.078646
-0.123482
-0.126206
-0.066544
-0.121996
-0.045763
-0.008160
-0.050883
-0.006264
-0.017379
-0.069998
0.006948
-0.074319
0.034480
-0.060735
-0.098241
0.003053
-0.074530
-0.100887
-0.053380
0.053488
-0.007176
-0.060061
-0.040470
-0.064506
-0.003685
-0.038056
-0.007191
-0.000324
-0.048650
-0.017481
-0.060297
-0.036845
0.050821
0.017978
-0.035469
-0.067169
0.046703
0.006785
0.064428
0.004130
-0.021168
0.087442
0.013457
0.100059
0.083883
-0.043157
0.203644
0.093428
0.086386
0.129462
0.199731
0.120892
0.109242
0.191190
0.181853
0.095196
0.107246
0.176764
0.131133
0.127475
0.162626
0.163251
0.211186
0.160421
0.160443
0.066537
0.135145
0.100612
0.025545
0.116834
0.089748
0.117526
0.057298
0.052591
0.142191
0.013684
0.040805
0.171262
-0.000944
0.015434
0.048832
0.036515
0.023247
-0.052669
0.026866
0.047952
-0.006470
-0.083368
-0.059267
0.054455
-0.021514
0.091746
-0.065979
-0.002788
0.009435
0.008361
0.057828
0.055954
0.289287
0.559708
0.902584
1.316073
1.432406
1.394588
1.396804
0.983263
0.628899
0.201566
-0.047223
-0.225380
-0.233778
-0.249605
-0.137944
-0.100011
-0.058946
0.047532
-0.021773
0.026521
0.056581
0.029556
0.087445
0.007724
0.116652
-0.008269
0.143932
0.113258
0.101113
0.132926
0.091245
0.117277
0.170530
0.205196
0.139235
0.135159
0.234962
0.164520
0.190976
0.248968
0.227237
0.295053
0.231015
0.316934
0.355364
0.311024
0.360297
0.431306
0.403323
0.357089
0.430556
0.494015
0.496717
0.603299
0.427200
0.557616
0.522375
0.560539
0.530985
0.593371
0.580588
0.567827
0.582966
0.537214
0.514220
0.507550
0.557909
0.472593
0.493426
0.580639
0.420519
0.479915
0.417055
0.412248
0.403101
0.347718
0.291983
0.340919
0.311933
0.292243
0.279682
0.266521
0.143882
0.109195
0.169586
0.165271
0.162493
0.186465
0.117015
0.116576
0.177281
0.053679
0.091884
0.141117
0.078758
0.142764
0.084288
0.005597
0.179939
0.099744
0.014586
0.027907
0.091436
-0.004396
0.075192
0.095414
0.083357
0.119014
0.120667
-0.006823
0.097968
0.016583
0.102658
0.109883
0.111116
0.042451
0.043266
0.044792
0.048680
0.049507
0.146108
0.056164
0.018150
0.066049
-0.027905
0.106361
0.072877
0.120383
0.026019
0.045118
0.093903
0.080091
-0.002654
0.092351
0.107790
0.044718
0.008144
0.074644
0.060820
0.093115
0.058941
-0.008585
0.012072
0.038954
0.019090
0.113531
0.085805
0.061211
0.059137
0.052783
0.113797
0.080306
0.086315
0.032275
0.013711
0.111723
0.015786
0.150236
0.164956
0.166248
0.044889
0.090260
0.089263
0.119375
0.186223
0.123308
0.158066
0.141998
0.060548
0.114793
0.170458
0.128212
0.138561
0.178129
0.178150
0.159756
