-0.021169
-0.028199
0.029095
0.061904
-0.056565
0.007023
0.078096
0.037338
0.016772
0.051109
0.014517
-0.015124
-0.037955
0.013005
-0.072656
0.035865
-0.077814
-0.010995
0.035103
0.017321
0.017323
0.084951
0.082639
0.008033
0.068919
0.013745
0.027886
0.054647
0.077202
0.126955
0.129312
0.070605
0.170200
0.232214
0.181049
0.259506
0.142935
0.172485
0.155801
0.145488
0.271953
0.128084
0.195319
0.191896
0.178435
0.181608
0.176209
0.148905
0.126329
0.120556
0.079351
0.100352
0.182752
0.118495
0.079201
0.076124
0.117963
0.023394
0.084582
0.045522
0.090469
0.077091
0.131420
0.093258
0.026964
0.098124
0.032592
0.146507
0.040022
-0.095875
0.083825
0.081799
0.098589
0.051808
0.008422
0.018072
0.129982
0.099155
0.377495
0.701811
1.015362
1.251888
1.479352
1.307562
1.167969
0.834042
0.472977
0.190685
-0.141922
-0.173193
-0.153972
-0.133731
-0.016332
-0.054488
0.024064
0.156686
0.013077
0.147625
0.051794
0.044051
0.076324
0.036160
0.059568
0.092424
0.189075
0.130934
0.268079
0.216978
0.108948
0.163430
0.217014
0.220907
0.242150
0.239837
0.340974
0.266982
0.275095
0.379097
0.372202
0.346160
0.422452
0.431027
0.442376
0.459958
0.560065
0.561713
0.548106
0.589454
0.517043
0.518546
0.620127
0.455854
0.551360
0.559807
0.576755
0.550885
0.656579
0.549816
0.629658
0.432276
0.558560
0.477551
0.476837
0.453894
0.380597
0.514832
0.507708
0.344192
0.462253
0.421993
0.373644
0.287526
0.320366
0.378638
0.292608
0.245119
0.240523
0.234727
0.191859
0.176854
0.198370
0.290478
0.169078
0.112778
0.132603
0.216129
0.089526
0.119847
0.109525
0.123690
0.071742
0.061387
0.098450
0.093618
0.152556
0.121394
0.170058
0.062416
0.110718
0.110017
0.151806
0.044199
0.026145
-0.007393
0.141312
0.059311
0.091728
0.123807
0.028788
-0.018907
0.057886
0.018033
0.052642
0.189095
0.074174
0.113437
0.083641
0.128896
0.111019
0.066151
0.124005
0.044295
0.073479
0.111940
0.047602
0.013744
0.156183
-0.009486
0.050940
0.156576
0.026031
0.112109
0.065775
0.047176
0.052988
0.102352
0.081225
0.110916
0.113943
0.108582
0.191762
0.071615
0.081491
0.081453
0.067639
0.111125
0.120583
0.070125
0.136839
0.121402
0.218818
0.084497
0.135741
0.240181
0.193620
0.205695
0.157296
0.181757
0.184700
0.170646
0.195719
0.267323
0.257342
0.251444
0.223010
0.305170
0.260077
0.293739
0.197028
0.201803
0.200799
0.236177
0.255097
0.224902
0.213182
0.175340
0.099003
0.189884
0.207185
0.158388
0.148166
0.088516
0.040479
0.140159
0.206414
0.157866
0.197248
0.099072
0.179127
0.064395
0.163455
0.167474
0.084429
0.173963
0.125205
0.053920
0.049284
0.040183
0.061239
0.001677
0.070743
0.017834
0.134231
0.314195
0.550901
0.859722
1.135934
1.500000
1.426525
1.271192
1.035628
0.639634
0.340927
0.070613
-0.085976
-0.074695
-0.132280
-0.118303
-0.008723
0.050740
0.033228
0.081359
-0.017343
0.061167
0.099214
0.031500
0.044123
0.088337
0.098400
0.185417
0.167186
0.087891
0.140549
0.167007
0.243095
0.206256
0.184519
0.323840
0.238955
0.229717
0.307674
0.303203
0.347607
0.362279
0.390111
0.433339
0.334531
0.450540
0.387699
0.432843
0.485731
0.516390
0.559418
0.535351
0.536443
0.553970
0.618065
0.527742
0.589564
0.520842
0.601581
0.534535
0.510680
0.471161
0.532369
0.585257
0.531824
0.537377
0.500444
0.457416
0.453823
0.361301
0.402174
0.426108
0.330071
0.368683
0.355367
0.330061
0.353502
0.279431
0.262314
0.217410
0.137029
0.129470
0.154845
0.144160
0.144804
0.146213
0.089897
0.055411
0.094678
0.148339
0.097996
0.114161
0.063810
-0.027425
0.073642
0.035845
0.092946
0.136200
0.007685
0.031765
0.033158
0.017346
0.007301
0.066454
0.042383
-0.067235
0.005240
0.024949
-0.039809
0.003409
-0.003686
0.029731
-0.001216
-0.035066
-0.004972
0.081290
-0.021666
0.107027
-0.040526
-0.067882
0.031103
0.047736
0.060426
-0.001094
0.050075
-0.030556
0.040604
-0.000732
0.022495
0.057533
0.090047
-0.005685
-0.006252
0.000087
-0.053896
0.074218
0.002007
0.015661
-0.018009
-0.076472
0.018810
0.034587
-0.052025
0.099105
0.043655
-0.058111
-0.012673
-0.009148
-0.017616
-0.012029
0.035074
-0.059933
0.034769
-0.003154
0.064114
0.099390
0.133060
0.057759
0.062792
0.049014
0.156278
0.085113
0.130181
0.115819
0.099338
0.107186
0.153634
0.187458
0.222802
0.181399
0.227573
0.136997
0.143089
0.220913
0.202630
0.192717
0.124583
0.111872
0.161722
0.081303
0.020886
0.079800
0.052633
0.135808
0.008919
-0.013283
0.036071
0.025891
0.023914
-0.042680
-0.028782
0.039961
0.030608
0.049250
-0.020069
0.034304
-0.044506
0.011134
-0.017518
0.063424
-0.041974
-0.043215
-0.100850
-0.087731
-0.053466
-0.014320
0.039246
0.278997
0.578303
0.821924
1.136606
1.294253
1.265111
1.015413
0.800186
0.369088
0.104229
-0.179323
-0.348587
-0.250149
-0.147582
-0.074839
0.009200
-0.062862
-0.026468
0.016500
-0.038702
-0.082355
0.021604
0.010418
-0.024083
0.050461
0.065331
0.091164
0.091197
0.066506
0.073792
0.068156
0.118480
0.124133
0.150325
0.131199
0.143184
0.122851
0.228851
0.163040
0.227593
0.270006
0.259339
0.320689
0.294474
0.357421
0.341094
0.285133
0.402947
0.339724
0.460820
0.458105
0.448227
0.541544
0.457597
0.485608
0.424862
0.424396
0.528311
0.434253
0.504324
0.434949
0.467167
0.509214
0.323003
0.443204
0.447725
0.418342
0.395955
0.359321
0.276550
0.279686
0.253545
0.237871
0.261141
0.184332
0.079089
0.177167
0.120845
0.163386
0.113939
0.048560
0.054976
0.065533
0.006579
0.046549
-0.013683
0.008314
-0.028972
-0.019972
-0.051059
0.001834
-0.016332
0.026615
-0.008755
-0.047728
-0.008038
0.038188
0.027949
-0.070495
-0.057328
0.099113
-0.074092
-0.026447
-0.036172
-0.063405
0.033042
-0.036213
-0.093103
-0.038382
-0.035599
0.018814
0.000549
-0.014675
0.041069
-0.020859
-0.023983
-0.023045
-0.118480
-0.093574
-0.019933
-0.046308
-0.060253
-0.024572
0.032449
0.028895
-0.122131
-0.000875
-0.061316
-0.000012
-0.096456
-0.032842
-0.011646
0.035901
-0.019427
-0.056484
-0.012724
-0.126331
-0.054595
0.039567
0.019639
0.045019
0.049231
0.058369
0.035653
-0.062972
-0.027298
-0.017121
0.020346
0.004581
-0.047255
0.035309
0.004198
0.019035
0.060919
0.009224
0.090632
0.014297
0.082326
0.099045
0.073902
0.074055
0.171791
0.185476
0.162553
0.147475
0.218903
0.147861
0.237121
0.234963
0.241257
0.174221
0.073431
0.123821
0.090496
0.159935
0.150944
0.087769
0.121242
0.223902
0.170517
0.062500
0.059158
0.088059
0.114981
0.072347
-0.061258
0.039648
0.045498
-0.007168
-0.061829
0.008933
0.068013
-0.033443
-0.029662
-0.031596
-0.042474
-0.016181
0.004832
0.016436
-0.030414
-0.044410
-0.074937
0.004310
-0.019952
0.024008
0.271815
0.443788
0.794582
1.054856
1.287638
1.387941
1.220672
0.939340
0.636748
0.175516
-0.066036
-0.264584
-0.317331
-0.262291
-0.177437
-0.048078
-0.017962
-0.000982
0.056812
-0.044916
0.076049
-0.001142
-0.007910
0.046528
0.037595
0.155390
0.170758
0.091943
0.080667
0.160788
0.112523
0.087065
0.162841
0.153511
0.207279
0.237347
0.269872
0.190374
0.293961
0.255228
0.354773
0.348805
0.311921
0.334994
0.359751
0.378082
0.470473
0.375793
0.495618
0.470321
0.485077
0.473411
0.420326
0.587513
0.469470
0.495509
0.549520
0.540773
0.576799
0.520954
0.483636
0.492277
0.459966
0.407628
0.501973
0.527706
0.453810
0.465302
0.299405
0.392808
0.499166
0.279654
0.360402
0.269033
0.279080
0.217690
0.241226
0.164187
0.226984
0.104205
0.155674
0.271876
0.170422
0.145047
0.099532
0.137385
0.089279
0.190922
0.141684
0.174106
0.084314
0.067360
0.107981
0.021687
0.010445
0.064747
0.062837
0.034854
0.108581
0.026927
0.058950
0.055488
0.067189
0.048743
0.060529
0.047103
0.162538
0.068414
0.085769
0.087125
0.024585
0.055382
0.100426
0.047173
0.090685
0.128040
0.051515
0.024356
0.041731
0.073427
0.007108
0.118858
0.055573
0.064557
0.071919
0.022280
0.022093
0.075542
0.050051
0.116762
0.039272
0.106466
0.064860
0.133551
0.029274
0.075434
0.079372
0.011500
0.104153
0.073770
0.058326
0.059183
0.156533
0.052045
0.103736
0.087980
0.105353
0.115989
0.016555
0.114339
0.158357
0.079397
0.026440
0.201672
0.082165
0.185313
0.157375
0.072539
0.259048
0.135625
0.147743
0.071510
0.206070
0.234432
0.244339
0.171391
0.222150
0.206633
0.168761
0.213366
0.284365
0.214695
0.253779
0.271424
0.162036
0.220385
0.245720
0.254680
0.210918
0.145270
0.209626
0.179691
0.092772
0.258391
0.153789
0.144470
0.131831
0.136527
0.101340
0.116265
0.065797
0.111197
0.068740
0.088292
0.064934
0.116453
0.056158
0.076787
0.129176
0.095332
0.078068
-0.034045
0.012839
0.042936
0.052503
0.171467
0.450242
0.730271
1.046068
1.369054
1.426959
1.466179
1.238980
0.849481
0.426042
0.147105
-0.053076
-0.105878
-0.143886
-0.083936
-0.020242
0.054191
0.042363
0.127548
0.059454
0.117252
0.120651
0.171932
0.146709
0.218545
0.215489
0.122392
0.148164
0.117019
0.179129
0.149140
0.206440
0.213034
0.291085
0.212762
0.237511
0.345438
0.283209
0.264570
0.377039
0.405978
0.379657
0.369670
0.469153
0.447597
0.443652
0.438116
0.458243
0.498654
0.547485
0.531211
0.476185
0.624167
0.583143
0.522219
0.543300
0.480204
0.619230
0.559663
0.624764
0.608825
0.514432
0.575557
0.570498
0.572463
0.529899
0.548222
0.506530
0.494077
0.338171
0.422652
0.400059
0.418423
0.341511
0.319593
0.388027
0.284804
0.263486
0.211054
0.158259
0.222544
0.155898
0.250320
0.204456
0.177019
0.131627
0.155573
0.166462
0.105557
0.158580
0.151291
0.118353
0.126335
0.163391
0.015577
0.120506
0.063632
0.058053
0.122996
0.181122
0.110647
0.077151
0.041840
0.104230
-0.005757
0.091645
0.033160
0.035026
0.011183
0.096117
0.085908
0.105344
0.044376
0.097810
0.164398
0.089513
0.107607
0.058352
0.043213
0.059023
0.077621
0.051521
0.045838
0.106270
0.010941
0.029730
0.068372
0.022042
0.079222
0.131962
0.062075
0.105037
0.058615
0.083831
0.061916
0.116900
0.068605
0.073804
-0.002662
0.033859
0.125885
0.033265
0.149117
-0.018355
0.160554
0.049486
0.001558
0.000413
0.096745
0.153485
0.079798
0.106844
0.034903
0.146350
0.217183
0.153537
0.108831
0.151221
0.152519
0.150752
0.138300
0.211673
0.210302
0.203750
0.254180
0.178282
0.235230
0.225296
0.312748
0.202502
0.181501
0.210240
0.208819
0.257205
0.233693
0.222744
0.143798
0.113825
0.131877
0.169989
0.155381
0.114100
0.132570
0.064507
0.060242
0.093489
0.041700
0.062057
0.120782
0.060831
0.077329
0.000412
0.042105
0.046568
-0.034538
0.055037
0.065774
0.103599
-0.018220
-0.011563
0.009662
-0.000975
0.067277
0.103967
-0.008468
0.063291
0.287529
0.530222
0.764211
1.146393
1.299726
1.377222
1.294130
0.995200
0.599580
0.190390
0.026711
-0.145402
-0.246511
-0.258783
-0.088675
0.017660
-0.000367
0.004092
0.069619
0.127952
0.007988
0.001488
0.042007
0.001527
0.074352
0.035669
0.096981
0.156427
0.140064
0.136197
0.115273
0.121291
0.091653
0.076134
0.236367
0.176204
0.246601
0.286127
0.315765
0.278310
0.278010
0.283478
0.342901
0.413282
0.329603
0.351873
0.488080
0.428662
0.411122
0.448269
0.498041
0.411621
0.458788
0.528126
0.445894
0.538786
0.470335
0.507655
0.511284
0.505269
0.385693
0.426499
0.507973
0.412814
0.372089
0.343973
0.321688
0.426935
0.422993
0.250666
0.342470
0.246022
0.280522
0.268769
0.212030
0.128767
0.289882
0.236769
0.130035
0.071510
0.192490
0.043686
0.147666
0.111548
0.005550
0.025872
0.062261
0.008892
-0.047272
-0.088946
-0.063814
0.028900
-0.030341
-0.028364
0.047069
0.017593
-0.009633
-0.084703
-0.054042
-0.074357
-0.104044
-0.027443
-0.019639
-0.042023
-0.029258
-0.005763
0.002221
-0.032053
-0.008626
-0.089380
-0.037104
-0.051478
-0.056576
-0.040456
-0.026476
-0.023058
-0.003781
-0.064361
0.011338
-0.099000
-0.048718
-0.108114
0.000333
0.020678
-0.054816
-0.080363
-0.105806
-0.048986
-0.063536
-0.007885
0.016900
-0.030337
-0.041259
-0.024163
-0.023332
-0.012996
0.006945
-0.068534
-0.081165
-0.087200
-0.001544
-0.023354
0.040494
-0.061904
-0.069123
-0.021048
-0.011018
-0.012882
-0.006747
-0.067981
-0.006773
-0.020302
0.047812
-0.071430
-0.038689
0.053554
0.032498
0.095692
0.020974
0.078076
-0.001896
0.054132
0.139904
0.149034
0.082142
0.049039
0.108917
0.124819
0.172204
0.160013
-0.001597
0.096420
0.143770
0.073174
0.089025
0.099444
0.130176
0.053212
0.113066
0.017967
0.085158
0.008648
-0.010605
0.010255
-0.000108
-0.024830
-0.040507
-0.058949
-0.016787
-0.061306
-0.048774
-0.057613
0.013537
-0.031795
-0.067475
-0.108811
-0.058078
-0.096296
-0.084717
-0.063498
-0.067809
-0.113175
-0.045533
-0.157623
-0.007544
0.109710
0.357012
0.610314
0.900157
1.195389
1.302889
1.245246
1.014243
0.616358
0.334138
-0.075411
-0.295210
-0.407480
-0.365645
-0.289066
-0.202112
-0.146210
-0.048116
-0.028450
-0.106847
-0.023213
-0.077252
0.007743
-0.064739
-0.046126
-0.061289
-0.007623
-0.052233
0.005934
0.073705
0.084746
0.060707
0.060579
0.026714
0.083651
0.158939
0.121989
0.119387
0.138962
0.189504
0.216375
0.260074
0.171756
0.270742
0.281459
0.344382
0.279692
0.357472
0.335858
0.359322
0.366494
0.377307
0.424248
0.380666
0.347884
0.426233
0.456591
0.379144
0.369195
0.422727
0.423615
0.427022
0.477465
0.389925
0.418504
0.359728
0.360692
0.342377
0.348633
0.226984
0.221082
0.207018
0.182648
0.183180
0.221789
0.148289
0.128523
0.166015
0.058943
0.013148
0.065205
-0.023616
-0.022099
0.074460
0.021722
-0.006821
0.032439
-0.003722
0.011009
-0.027905
-0.066500
0.001592
-0.041891
-0.034563
-0.058028
0.005559
-0.105471
-0.094097
-0.082588
-0.129928
-0.089698
-0.079393
-0.097871
-0.045512
-0.002620
-0.067001
-0.023604
-0.184671
-0.071940
-0.050635
-0.056992
-0.064435
-0.051350
0.027443
-0.044094
-0.067876
-0.141335
-0.038037
-0.034955
-0.020860
-0.032933
-0.048311
-0.059565
-0.089523
0.024518
0.039188
-0.018508
-0.119540
-0.051487
-0.106199
-0.059570
-0.111517
-0.020840
-0.061610
-0.074791
-0.076624
-0.013160
-0.149332
-0.063624
-0.130496
-0.082101
-0.071484
0.053452
-0.036402
0.016631
-0.058599
-0.019016
-0.066459
-0.085771
0.017346
0.037013
0.033044
0.047410
-0.030274
0.029652
-0.014939
0.059870
0.055931
0.090312
0.090483
0.072523
0.058486
0.106783
0.058998
0.105551
0.145982
0.125134
0.140040
0.183201
0.159619
0.119877
0.119191
0.120755
0.111789
0.143991
0.173310
0.119908
0.083263
0.100937
-0.008227
0.033767
0.022025
0.099423
-0.066493
0.093204
0.054665
0.012420
0.031810
-0.055278
-0.023236
0.002371
-0.035725
-0.050307
-0.021634
-0.008286
0.055625
-0.043373
-0.029155
-0.046354
0.042271
0.006405
-0.066473
-0.019398
0.009334
0.048461
0.074901
0.215975
0.514626
0.765863
1.081691
1.332190
1.419208
1.174283
0.922847
0.462577
0.188211
-0.070130
-0.236866
-0.263175
-0.246099
-0.144232
-0.037650
-0.119178
-0.030207
0.028039
-0.030524
-0.053404
0.046318
0.164094
0.010057
0.004543
0.025103
0.046407
0.115465
0.040029
0.171066
0.106411
0.111559
0.178000
0.173976
0.183793
0.136244
0.194441
0.249160
0.264341
0.207472
0.280730
0.313157
0.443702
0.378211
0.397844
0.427136
0.407815
0.452659
0.408831
0.483122
0.481966
0.437584
0.527079
0.486753
0.454340
0.554683
0.548067
0.492930
0.514004
0.523545
0.433305
0.461998
0.453473
0.440102
0.490823
0.434210
0.480045
0.356675
0.355844
0.385001
0.371513
0.327879
0.318030
0.399481
0.299662
0.264278
0.257421
0.196974
0.142850
0.200505
0.182734
0.079844
0.079807
0.086881
0.098712
0.090887
0.132834
0.095683
0.007328
0.084890
0.049219
0.028771
0.023174
-0.029688
0.132684
0.128118
-0.034505
-0.011487
0.012253
0.016115
0.077591
0.013873
-0.003757
0.056928
0.026367
-0.044888
0.028083
0.063176
0.058167
0.028954
0.067539
0.040598
0.055515
0.056374
0.147791
0.084880
0.050395
0.033708
-0.003232
0.063614
0.001635
0.065548
0.043977
-0.056723
0.025969
0.041518
0.087682
0.051467
0.042008
0.022272
0.099116
0.010970
0.005447
0.072431
0.100024
-0.019841
0.033715
0.080237
0.076427
0.031757
-0.020325
0.036686
0.089149
0.025418
0.120279
0.090477
0.140061
0.124257
0.083534
0.028583
0.096706
0.052541
0.077662
0.064700
0.109593
0.103451
0.110912
0.077003
0.124963
0.084420
0.174278
0.188786
0.209965
0.159085
0.167755
0.289983
0.304559
0.112845
0.208517
0.200611
0.248620
0.253553
0.128200
0.197483
0.180034
0.142551
0.147307
0.132145
0.246351
0.194182
0.167976
0.140429
0.168064
0.164349
0.013689
0.111645
0.107668
0.116358
0.113757
0.102201
0.049644
0.024167
0.074723
0.081517
0.070141
0.026061
-0.054996
0.063038
-0.002332
0.050076
0.085666
0.007544
0.034337
-0.000691
0.069962
0.177165
0.482165
0.789487
1.068919
1.265329
1.444181
1.390947
1.112854
0.730038
0.365123
0.058858
-0.126206
-0.221318
-0.143335
-0.128659
-0.061493
0.001602
0.055713
0.103027
0.018431
0.025226
0.078211
0.119887
0.037311
0.151938
0.043360
0.138855
0.119186
0.069444
0.141784
0.136354
0.112285
0.172793
0.213357
0.241823
0.194061
0.185717
0.308356
0.311552
0.332637
0.328352
0.269921
0.392445
0.431835
0.348660
0.498164
0.426603
0.455764
0.434291
0.498023
0.470963
0.503435
0.537031
0.520340
0.543182
0.547503
0.601979
0.478249
0.453006
0.468512
0.531637
0.521492
0.532671
0.499879
0.419731
0.434727
0.430308
0.439490
0.383919
0.405266
0.315700
0.320076
0.364622
0.249913
0.311227
0.245745
0.257630
0.259691
0.234098
0.194980
0.168470
0.178631
0.140820
0.109748
0.139334
0.167847
0.081258
0.023097
0.014259
0.099969
0.036377
0.001676
0.067435
0.059476
0.021619
0.019640
0.056367
0.036324
0.044640
0.005012
0.039001
0.026819
0.054388
0.051958
-0.033200
0.070062
-0.017683
0.023454
0.009737
0.003925
0.017586
0.036197
-0.013108
-0.052402
0.035992
-0.004325
-0.075052
0.070210
-0.068989
-0.066124
0.018446
0.006468
0.014215
0.103174
0.015126
0.026182
0.009430
-0.014039
0.028402
0.026283
0.008186
-0.006982
0.003875
0.030881
0.003273
-0.062544
-0.009171
-0.083570
0.034965
-0.059236
-0.047715
-0.028790
0.038351
-0.070930
0.018977
-0.001845
-0.088059
-0.054132
0.014375
0.035641
0.088093
0.013220
0.050646
-0.016070
0.058756
0.127446
-0.001573
0.067078
0.072194
0.060181
0.071187
0.142478
0.070580
0.134641
0.099858
0.137680
0.077722
0.150654
0.176525
0.148054
0.174596
0.098237
0.087211
0.180386
0.169786
0.114045
0.074577
0.092760
0.076594
0.114137
0.064997
0.035461
0.043600
0.026041
0.004593
0.002380
-0.063696
0.043902
0.016823
-0.024526
0.016276
-0.034154
0.023961
-0.045083
0.005983
-0.051027
0.046664
-0.047848
-0.017373
-0.057994
-0.039858
-0.101824
-0.041622
-0.015590
-0.009441
0.052676
0.209444
0.511075
0.807295
1.091346
1.258010
1.303154
1.172443
0.803037
0.413046
0.180380
-0.146722
-0.280696
-0.326405
-0.235598
-0.143167
-0.112168
-0.027790
-0.083095
-0.008319
0.029535
0.051784
0.014332
0.027561
-0.000704
-0.065905
0.015152
0.035914
0.006854
0.008614
0.048082
0.085538
-0.027664
0.066514
0.130351
0.031349
0.123524
0.133224
0.129219
0.189949
0.132542
0.157997
0.187583
0.255924
0.275399
0.289224
0.331399
0.277412
0.343414
0.494269
0.426662
0.326260
0.474004
0.380854
0.415593
0.462136
0.415784
0.416788
0.482135
0.456218
0.421214
0.334662
0.398836
0.406659
0.433083
0.365248
0.357886
0.283042
0.361553
0.303109
0.260160
0.262236
0.224661
0.206905
0.158133
0.166576
0.182303
0.175084
0.106060
0.151216
0.088097
0.019621
0.055244
0.044402
0.086095
0.074638
-0.026835
-0.083615
-0.083079
-0.025133
0.049024
-0.044141
-0.118672
-0.039409
-0.032272
-0.091015
-0.067408
-0.069721
-0.195750
-0.063428
-0.089491
-0.079352
-0.090908
-0.125413
-0.052509
-0.089641
-0.114017
-0.068582
-0.101276
-0.128372
-0.092528
-0.090954
-0.074708
-0.123769
-0.088400
-0.151533
-0.073884
-0.178206
-0.095416
-0.085772
-0.144699
-0.202266
-0.042966
-0.170507
-0.151808
-0.159858
-0.034531
-0.095278
-0.055189
-0.113810
-0.145942
-0.072157
-0.088745
-0.113506
-0.135340
-0.074801
-0.094033
-0.075055
-0.102831
-0.106170
-0.156825
-0.163056
-0.110854
-0.054090
-0.093054
-0.153467
0.021057
-0.007629
-0.091196
-0.122317
-0.055047
-0.019697
-0.091625
-0.033618
-0.136649
-0.086497
0.019417
-0.047064
-0.013258
-0.020816
0.017042
0.079574
0.130728
-0.074866
-0.030628
0.035358
0.099546
0.034753
0.050294
0.059133
-0.005154
0.040299
0.021307
0.075740
0.033970
0.053593
0.040797
0.095413
0.042436
0.079713
0.110077
0.063658
-0.059030
-0.049336
-0.038563
-0.054526
-0.066044
-0.023036
-0.085705
-0.099567
-0.041243
-0.098742
-0.123040
-0.044481
-0.121792
-0.144468
-0.065951
-0.099936
-0.103620
-0.085476
-0.019053
-0.080818
-0.189141
-0.069200
-0.113406
-0.010541
0.072787
0.320579
0.491894
0.910248
1.118933
1.288514
1.178178
1.045944
0.636722
0.242488
-0.024868
-0.243517
-0.269980
-0.315725
-0.262997
-0.121337
-0.074038
-0.030485
-0.040015
-0.077090
-0.054800
-0.082264
-0.046273
-0.052151
-0.003832
-0.069194
0.011337
0.017385
-0.006449
0.023438
-0.014499
0.081496
0.067976
0.105056
0.045448
0.121068
0.148766
0.102361
0.149695
0.133053
0.177034
0.232011
0.180131
0.216434
0.377295
0.313773
0.374916
0.266101
0.350024
0.280487
0.425495
0.371807
0.497492
0.385850
0.345543
0.461671
0.465461
0.491273
0.461432
0.521928
0.484166
0.395386
0.375567
0.452390
0.398674
0.388622
0.411326
0.325281
0.285875
0.354398
0.224338
0.229759
0.167912
0.290467
0.180102
0.201184
0.225739
0.100140
0.093702
0.079949
0.154970
0.049256
0.058415
0.059957
0.000167
0.042738
0.074354
0.053159
0.053676
0.058939
0.008363
-0.031399
-0.012307
0.056218
-0.003585
-0.107147
-0.038443
-0.037204
-0.109279
-0.047101
-0.001895
0.002837
-0.032619
-0.050501
-0.021880
-0.002333
-0.075925
-0.076994
-0.068803
-0.019876
-0.029087
0.003793
-0.064419
-0.000051
0.011852
-0.072627
-0.005149
-0.090978
-0.038804
-0.065666
-0.056882
0.002998
-0.090235
-0.062678
-0.017510
0.019233
-0.072738
-0.035570
0.019990
-0.000360
-0.029071
-0.041739
-0.070039
-0.018576
-0.064738
-0.014341
-0.025542
-0.005289
-0.009470
-0.040888
0.000051
0.016716
-0.036637
0.029543
0.008896
0.059437
0.053281
-0.057367
0.049860
-0.005605
-0.022563
0.041071
0.013644
0.052904
-0.016975
-0.001309
0.101096
0.069583
0.080139
0.157089
0.070960
0.132260
0.067731
0.140898
0.144269
0.174466
0.131216
0.209620
0.107096
0.134862
0.169119
0.215511
0.205084
0.194471
0.205673
0.196231
0.077016
0.132132
0.132761
0.243541
0.105188
0.097478
0.085672
0.140025
0.059791
0.063285
0.033232
0.022187
0.011405
0.040574
0.037633
0.115226
-0.015854
-0.047366
-0.041213
0.021281
0.085525
0.063129
0.079333
-0.066095
0.075809
-0.075735
0.018302
-0.006679
-0.002382
0.090214
0.257288
0.529542
0.867731
1.227809
1.369033
1.312919
1.314606
0.836632
0.545408
0.184301
-0.037097
-0.155287
-0.167655
-0.131239
-0.115897
-0.107058
-0.038958
0.075770
0.099940
0.022074
0.143877
0.172316
0.108309
0.065228
0.116049
0.153398
0.098640
0.152988
0.130313
0.170940
0.179350
0.137875
0.232014
0.195685
0.263037
0.254646
0.243287
0.339220
0.302948
0.326462
0.357960
0.394459
0.333092
0.388106
0.449097
0.436349
0.438957
0.450335
0.492550
0.579772
0.528794
0.532091
0.538991
0.516670
0.608379
0.571983
0.572698
0.560911
0.545549
0.576519
0.519881
0.536572
0.559937
0.486643
0.522840
0.496751
0.477292
0.473498
0.432982
0.399124
0.414289
0.321744
0.347931
0.302889
0.256357
0.310667
0.281016
0.249711
0.201362
0.110197
0.298531
0.158976
0.186003
0.211095
0.106084
0.167218
0.111779
0.126886
0.112268
0.100506
0.095131
0.138158
0.113477
0.102360
0.182736
0.117175
0.091212
0.097096
0.179339
0.019765
0.097171
0.066134
0.118941
0.075257
0.031889
0.061375
0.022694
0.077703
-0.025906
0.083120
0.020301
0.129116
0.152342
0.001152
-0.027121
0.046918
0.091683
0.155104
0.083993
0.025815
0.071608
0.045734
0.042851
0.050035
0.068413
0.087544
0.088412
0.069762
0.109461
0.060195
0.121051
0.105237
0.053983
0.055612
0.039312
0.116967
0.096763
0.054243
0.046292
0.135490
0.086908
0.066142
-0.010446
0.061768
0.095276
0.077095
0.029156
0.051298
0.042328
0.110563
0.035811
0.117038
0.087347
0.086422
0.114782
0.101682
0.113187
0.176537
0.166443
0.123384
0.164037
0.216225
