-0.087086
-0.059212
-0.007048
0.009056
-0.070215
-0.036753
-0.005250
0.034357
-0.010999
-0.039248
0.011034
0.031397
-0.033526
0.071862
0.012179
0.029970
-0.033805
0.039860
-0.105855
0.057591
0.070102
0.037520
0.007348
0.114608
0.068201
0.078119
0.111450
0.134202
0.082003
0.108802
0.011057
0.125220
0.098151
0.088718
0.090780
0.066324
0.127370
0.170547
0.224705
0.126811
0.173165
0.229312
0.207429
0.248326
0.192369
0.255044
0.274479
0.099019
0.315644
0.156571
0.144545
0.175987
0.155530
0.149381
0.121014
0.079587
0.166613
0.091468
0.170266
0.076969
0.072940
-0.026753
0.028315
0.076133
0.072123
-0.023785
0.088641
0.036613
0.059406
0.047871
0.076318
0.079249
0.060761
0.088618
0.012856
0.099722
0.058593
0.043258
0.034574
0.050956
0.077870
0.020723
0.020590
0.098597
0.127227
0.317755
0.586852
0.946139
1.179190
1.444505
1.475607
1.338397
0.935830
0.638012
0.284701
0.009038
-0.165583
-0.247221
-0.197738
-0.126012
-0.102280
-0.067159
0.203505
0.035165
0.063467
0.064875
0.031197
-0.011436
0.136402
0.105229
0.072118
0.156208
-0.044285
0.131591
0.128785
0.147327
0.132983
0.105269
0.123870
0.196422
0.124009
0.259057
0.160712
0.238141
0.223700
0.321644
0.331279
0.287028
0.313282
0.411296
0.444378
0.444555
0.451389
0.396255
0.383157
0.525321
0.516703
0.550476
0.567756
0.564047
0.554400
0.560204
0.565982
0.590769
0.583326
0.646982
0.499116
0.610671
0.579260
0.569248
0.573347
0.503837
0.533415
0.513778
0.457022
0.473436
0.476455
0.522105
0.419219
0.420122
0.414739
0.422247
0.398205
0.281790
0.340582
0.293659
0.328863
0.196511
0.298495
0.220772
0.220356
0.253339
0.215761
0.188538
0.143220
0.175051
0.144681
0.121057
0.148082
0.209522
0.117503
0.059991
0.159480
0.164981
0.129241
0.083078
0.125951
0.153622
0.162265
0.104194
0.126955
0.064798
0.089441
0.021743
0.106910
0.056005
0.024314
0.035625
0.074572
0.137256
0.089058
0.115074
0.089510
0.097652
0.110210
0.068756
0.064181
0.119521
0.062204
0.162272
0.108650
0.022758
0.034992
0.063678
0.132438
0.032722
0.057446
0.097826
0.141443
0.029235
0.078500
0.037618
0.109108
0.169229
0.021028
0.064739
0.083279
0.079652
0.080579
0.061357
0.111712
0.131225
0.149195
0.134258
0.095230
0.039235
0.049751
0.129417
0.085994
0.068483
0.097349
0.093141
0.062284
0.093760
0.116582
0.106535
0.104679
0.113844
0.045046
0.117970
0.077042
0.156199
0.183904
0.100262
0.097492
0.156970
0.196743
0.105346
0.162159
0.183129
0.130418
0.202514
0.229151
0.247723
0.170676
0.136818
0.242812
0.209303
0.260876
0.247441
0.262126
0.357165
0.182613
0.189240
0.189379
0.166489
0.245434
0.204215
0.207470
0.174477
0.191556
0.207288
0.042813
0.173549
0.102289
0.118014
0.075659
0.064040
0.058802
0.121983
0.042463
0.027294
0.048183
0.081599
0.050352
0.048443
0.037575
0.026675
0.154360
0.064852
0.086073
0.002647
0.108587
0.045835
0.040687
0.035600
0.015990
0.104852
0.160166
0.384422
0.509520
0.964298
1.197225
1.452627
1.465632
1.201247
1.010746
0.644837
0.280436
-0.076807
-0.154033
-0.244465
-0.219919
-0.113597
-0.052142
-0.032147
0.043093
0.078762
0.021306
0.000707
0.019151
0.054932
0.047245
0.025586
0.068426
0.007451
0.079868
0.102790
0.127676
0.026985
0.123787
0.142836
0.106916
0.155697
0.269734
0.210762
0.177382
0.222602
0.217232
0.294609
0.272598
0.327268
0.257852
0.325313
0.393043
0.392945
0.444218
0.422362
0.476082
0.490164
0.455834
0.329817
0.487378
0.497957
0.541321
0.518067
0.461821
0.517150
0.471560
0.496462
0.512259
0.507416
0.458269
0.458513
0.589071
0.497013
0.534673
0.422808
0.537612
0.464765
0.476285
0.387086
0.380669
0.323726
0.298042
0.206694
0.296871
0.227970
0.275149
0.209242
0.305368
0.195009
0.152272
0.153741
0.190564
0.172359
0.084014
0.115504
0.084198
0.084404
0.008675
0.094477
0.057845
0.013784
0.052764
0.058976
0.027512
0.011701
-0.027547
-0.016170
-0.046452
0.011809
0.017653
0.069734
-0.023391
0.023058
-0.039913
0.016746
-0.025315
-0.039587
0.016632
-0.051363
0.009631
0.010843
-0.027742
-0.079684
0.004551
0.012290
-0.051205
-0.020050
0.010224
-0.009135
-0.000934
-0.024320
-0.044511
0.031366
0.015504
-0.065397
0.062175
0.064410
-0.045477
-0.007670
0.009532
-0.024632
0.039440
-0.035258
-0.056638
0.004369
-0.085982
0.001371
0.008884
0.008733
-0.018300
-0.001751
0.000293
-0.065194
-0.086305
0.015590
-0.032542
-0.067501
0.028316
-0.035741
0.055305
0.018770
0.038037
-0.031445
-0.002719
-0.054136
-0.068093
0.042116
-0.020371
0.003104
0.020685
-0.032824
0.031963
0.024469
0.076105
0.040017
0.020118
0.009397
0.056429
0.017794
0.078949
0.085351
0.128325
0.075160
0.093101
0.119476
0.183836
0.130400
0.108273
0.179136
0.120328
0.140469
0.105650
0.152742
0.101037
0.118524
0.074750
0.083612
0.072688
0.142660
0.077895
0.099601
-0.034099
0.001140
0.053433
0.101659
0.044387
0.004965
0.099209
0.026750
0.010819
0.009037
-0.058277
0.085001
-0.005866
-0.115150
-0.083302
0.018221
-0.032884
0.018638
-0.060941
-0.121064
-0.014740
-0.041825
-0.046088
-0.024566
-0.074240
-0.119067
-0.048073
-0.042943
0.095158
0.329372
0.581360
0.922343
1.264935
1.303707
1.340213
1.180187
0.869693
0.505249
0.126325
-0.158457
-0.411228
-0.306751
-0.264713
-0.233046
-0.161641
-0.020472
-0.165259
-0.125639
-0.016417
-0.017902
-0.044985
-0.107699
-0.034853
0.007699
-0.037362
0.085449
-0.048932
0.015051
-0.003268
0.079914
0.006230
0.047350
0.058621
0.102714
0.102332
0.091900
0.114112
0.131915
0.224561
0.154229
0.129009
0.248830
0.246581
0.193906
0.248519
0.345648
0.300155
0.287402
0.321183
0.399646
0.419715
0.378101
0.400092
0.485114
0.374607
0.448918
0.437337
0.456515
0.411722
0.406573
0.462705
0.441578
0.474201
0.451061
0.414860
0.557084
0.408248
0.352606
0.433327
0.425780
0.370656
0.327351
0.338333
0.267383
0.333379
0.258678
0.223698
0.179489
0.164131
0.243904
0.117173
0.153310
0.044169
0.152765
0.042900
0.082360
0.049415
0.009349
0.083816
0.036401
0.024736
-0.017439
0.076379
0.048593
-0.032271
0.003247
0.020751
-0.016690
0.008528
-0.007485
0.006359
-0.074952
0.070286
0.005195
-0.048225
-0.057299
-0.041203
0.011863
0.032100
-0.048937
-0.049508
0.030263
-0.015967
-0.019206
-0.001949
0.021991
-0.018982
-0.070405
0.010191
-0.069741
-0.009777
-0.059268
0.055069
-0.003464
-0.009528
0.047069
0.004067
0.023426
-0.095995
-0.045618
-0.072346
-0.057474
-0.078138
-0.005552
-0.000502
-0.015831
0.018772
-0.030714
0.060075
0.025320
-0.025155
-0.083806
-0.120783
-0.054397
-0.086303
0.010172
0.001685
0.020446
-0.009333
-0.066222
-0.034467
-0.007898
0.016697
-0.078033
0.117047
-0.069205
-0.018573
-0.051456
0.006398
0.029153
-0.041013
-0.064338
0.005382
0.016088
0.050192
0.070822
0.054357
0.098192
0.092491
0.088511
0.086491
0.073894
0.057020
0.168013
0.077609
0.153429
0.109404
0.070901
0.205143
0.153622
0.151971
0.164560
0.181755
0.150736
0.139807
0.230200
0.187176
0.144505
0.123936
0.169294
0.118969
0.166672
0.061286
0.122183
0.082585
0.098504
0.120455
0.073653
0.028318
0.114043
0.113529
0.014770
0.003180
0.024403
0.096370
0.047241
0.104171
0.001170
0.066078
0.054456
0.070558
-0.047980
0.002250
0.009916
-0.055775
0.044484
0.041800
-0.002400
0.023367
0.041851
-0.002633
0.091343
0.210414
0.350745
0.599436
0.952790
1.257072
1.416075
1.374434
1.119035
0.861200
0.576610
0.096223
-0.088976
-0.223463
-0.287254
-0.199419
-0.102798
-0.057708
-0.106626
0.022133
0.050104
0.080278
0.114430
0.045097
0.000991
-0.023642
0.066475
0.017918
0.077970
0.068118
0.024480
0.106081
0.114957
0.137189
0.178670
0.110741
0.088554
0.153501
0.271213
0.138344
0.159416
0.195744
0.214504
0.302952
0.335797
0.382426
0.407603
0.288783
0.388483
0.382649
0.410875
0.453586
0.439085
0.530777
0.508361
0.505213
0.518179
0.502482
0.568674
0.551836
0.538719
0.577123
0.598553
0.514675
0.616971
0.551563
0.551829
0.523674
0.548878
0.558696
0.535565
0.546984
0.499039
0.437684
0.415298
0.394367
0.391320
0.498980
0.345087
0.330750
0.350281
0.295706
0.248533
0.241533
0.295946
0.264422
0.168731
0.198768
0.208391
0.222846
0.168900
0.242959
0.127308
0.131429
0.099287
0.065938
0.073763
0.167164
0.129283
0.043361
0.058862
0.063611
0.202660
0.086158
0.089923
0.048670
0.086032
-0.004559
0.106881
0.105473
0.090643
0.099558
0.104621
0.117294
0.009676
0.054896
0.087592
-0.018852
0.067197
0.063425
0.083585
0.135252
0.088404
0.079218
0.135472
0.094642
0.101213
0.116170
0.085797
0.036560
0.017499
0.063766
0.092598
0.109082
0.078871
0.119867
0.100338
0.112238
0.111063
0.082598
0.052157
0.050523
0.136638
0.146513
0.098818
0.046776
0.095016
0.092169
0.064409
0.100245
0.148873
0.063269
0.092787
0.079197
0.141076
0.116797
0.049134
0.083063
0.053960
0.024956
0.037113
0.114549
0.125125
0.054894
0.059284
0.117499
0.208451
0.146193
0.158969
0.201404
0.031305
0.147371
0.173746
0.159391
0.211857
0.192501
0.216018
0.208604
0.198217
0.208017
0.218218
0.121922
0.296141
0.313080
0.237841
0.330736
0.304528
0.246070
0.286282
0.173247
0.278688
0.335481
0.231775
0.237375
0.110027
0.197353
0.226675
0.227081
0.151523
0.263449
0.242712
0.094890
0.126702
0.121752
0.157488
0.129922
0.112589
0.092617
0.157280
0.115762
0.090795
0.141217
0.111838
0.109111
0.106947
0.102124
0.103441
0.056389
0.105687
0.059015
0.080309
0.063606
0.038498
0.068799
0.150674
0.184638
0.518454
0.735040
1.027820
1.351156
1.500000
1.397685
1.169882
0.865719
0.454186
0.089158
-0.119473
-0.200689
-0.163407
-0.169174
-0.086368
-0.001457
0.066639
0.091631
0.086680
0.065480
0.165968
0.071625
0.006924
0.098677
0.087161
0.141230
0.110978
0.108690
0.108311
0.103357
0.112258
0.279195
0.144085
0.126773
0.273299
0.252172
0.205107
0.255638
0.255853
0.258207
0.253719
0.298053
0.338246
0.371868
0.383796
0.399570
0.408435
0.470068
0.418203
0.468452
0.437716
0.498284
0.586893
0.585150
0.480674
0.527799
0.537119
0.594481
0.658465
0.526815
0.503374
0.538923
0.624467
0.483714
0.544438
0.476132
0.582972
0.506670
0.483099
0.474980
0.453847
0.438510
0.351426
0.339538
0.386690
0.418571
0.348305
0.369603
0.349787
0.323091
0.275906
0.237835
0.180379
0.275124
0.159262
0.189955
0.149130
0.191787
0.172868
0.125378
0.095965
0.062214
0.097651
0.139231
0.090921
0.017704
0.080116
0.141206
0.097686
0.082791
0.004978
0.076026
0.075544
0.061331
0.030849
0.134668
0.147567
0.012460
0.071973
0.116836
0.092966
0.086826
0.060205
0.018291
0.070762
0.005161
0.003949
0.068082
0.084037
0.039801
-0.018186
0.045229
0.009449
0.056872
0.014687
0.092434
-0.000517
0.052994
0.008736
0.026706
0.054823
0.040850
0.020085
0.099134
0.058792
0.023210
-0.056042
0.017567
-0.033639
0.066225
-0.015607
0.054606
0.027311
0.015574
-0.027229
0.002472
0.054450
-0.019194
0.009443
0.047029
0.033577
-0.023749
0.062056
0.019875
-0.006077
0.013410
0.010814
0.054044
0.072114
0.102211
0.032632
-0.059687
-0.049012
-0.005074
-0.020611
-0.034577
0.069451
0.039883
-0.023191
0.082863
0.142892
0.105821
-0.002830
0.147305
0.095573
0.123858
0.150400
0.091617
0.147514
0.213102
0.169312
0.191853
0.154335
0.234133
0.196497
0.157154
0.212356
0.108750
0.144142
0.152306
0.163329
0.075756
0.072566
0.110066
0.057167
0.082241
0.062523
0.050550
0.073445
0.047928
-0.025782
-0.016471
0.070004
-0.013708
0.016551
-0.088769
0.004611
-0.052022
-0.027100
-0.014173
-0.001957
-0.016399
-0.039429
-0.020993
0.019180
-0.030184
-0.071491
0.063531
-0.145670
-0.058413
-0.040273
-0.032712
0.016279
0.120883
0.369471
0.720527
0.976316
1.213151
1.322536
1.213908
1.031168
0.709289
0.329173
0.007587
-0.217881
-0.306774
-0.307816
-0.222936
-0.121374
-0.032576
-0.090233
-0.143437
-0.059510
0.000679
-0.071548
-0.002635
0.002865
0.043826
0.010516
-0.026011
0.097653
0.007509
-0.021833
0.048194
-0.011169
0.068600
0.006104
0.089382
0.126608
0.048319
0.073891
0.135304
0.153781
0.192822
0.158161
0.125388
0.228173
0.167189
0.213694
0.327583
0.340738
0.248816
0.282977
0.229050
0.308345
0.311399
0.332265
0.394130
0.414842
0.425281
0.456324
0.459626
0.421230
0.441918
0.382994
0.478089
0.456871
0.463250
0.398509
0.424846
0.434692
0.339425
0.381492
0.338794
0.395685
0.413559
0.314055
0.221844
0.213906
0.285844
0.235738
0.173474
0.271172
0.165197
0.124911
0.042287
0.094237
0.054570
0.068574
0.055187
0.039166
-0.045944
-0.049933
0.055721
-0.042446
-0.070295
-0.049203
-0.063273
-0.041892
-0.063844
-0.029557
-0.014414
-0.092942
-0.084891
-0.102111
-0.030340
-0.076704
-0.032813
-0.112968
0.005358
-0.081070
-0.119553
-0.043285
-0.071683
-0.117086
-0.049423
-0.012206
-0.012176
-0.073222
-0.072315
-0.052035
-0.068716
-0.126137
-0.109403
0.024358
-0.076057
-0.126158
-0.072463
-0.133261
-0.102235
-0.023576
-0.016053
-0.113712
-0.064788
-0.131907
-0.145209
-0.139959
-0.053829
-0.067299
-0.159055
-0.076963
-0.089905
-0.108022
-0.064179
-0.024980
-0.061873
-0.104878
-0.086456
-0.062244
-0.072432
-0.063983
-0.159807
-0.019858
-0.065392
-0.081056
-0.140217
-0.028857
-0.021447
-0.065591
-0.039454
-0.095573
-0.054773
-0.087295
-0.074453
-0.042653
-0.022273
0.061166
-0.046398
-0.040078
-0.012253
0.001731
-0.100832
0.022281
0.025108
0.043102
-0.052245
-0.070215
0.025723
0.026711
0.010423
-0.000606
0.058384
0.120186
0.017811
0.083156
0.022813
0.125694
0.042697
0.099432
0.173182
0.102626
0.033507
0.087689
0.095802
0.089456
0.076735
0.091654
0.103789
0.021839
0.010291
0.028560
-0.005314
-0.001631
0.031056
0.011234
-0.074590
0.012739
-0.064720
0.003422
-0.046047
-0.060887
-0.051561
-0.086307
-0.033881
-0.070985
-0.063256
-0.070915
-0.047076
-0.040801
-0.096208
-0.078219
-0.030127
-0.136438
-0.118978
-0.117663
-0.053825
-0.027124
0.159409
0.366551
0.700937
1.071225
1.236871
1.396937
1.219091
0.974760
0.664698
0.250579
-0.020739
-0.228613
-0.330759
-0.288272
-0.248632
-0.141768
-0.080773
-0.108510
-0.041739
-0.046201
-0.080593
-0.028498
0.000659
0.032845
-0.035804
0.069602
-0.055787
0.059433
-0.076762
0.100838
0.017967
0.049333
0.045746
0.013419
0.072034
0.009955
0.098799
0.126805
0.123769
0.177159
0.095222
0.139622
0.205367
0.209535
0.192833
0.223851
0.360763
0.261660
0.322795
0.235139
0.317232
0.331236
0.304241
0.409858
0.395926
0.480539
0.386274
0.414817
0.506914
0.395172
0.505113
0.467333
0.560917
0.449659
0.468469
0.434263
0.486359
0.427148
0.401868
0.380619
0.392740
0.361502
0.351933
0.300478
0.319532
0.292856
0.251409
0.339948
0.111154
0.162371
0.149717
0.137002
0.225107
0.158939
0.141243
0.099350
0.141875
0.076210
0.016392
0.048847
0.019480
0.002083
0.064271
-0.021078
0.052506
0.010858
-0.012838
0.031015
-0.047467
0.037797
0.025732
0.090990
-0.067270
-0.024800
-0.058854
-0.001694
-0.037689
0.040390
0.016418
-0.013284
-0.017326
0.017920
-0.024358
0.033710
-0.068321
-0.031888
0.024540
-0.073680
-0.039914
0.027823
-0.021122
-0.017781
0.017043
-0.006353
0.017278
-0.039098
-0.024749
-0.133653
0.049618
-0.000115
-0.016253
-0.006603
0.038376
0.029806
-0.001645
0.041126
0.061917
0.045464
-0.001021
0.041202
0.073921
0.103263
-0.027268
-0.011749
-0.012663
-0.074453
-0.067612
-0.021160
0.072601
-0.038209
0.012497
0.028975
-0.030373
-0.048871
0.059998
-0.013084
0.031853
0.056084
-0.054381
-0.013445
0.036509
0.018497
0.030680
0.074801
0.108563
0.076644
-0.024805
0.093488
0.130300
0.023836
0.099183
0.086788
0.157307
0.135839
0.090816
0.120904
0.157267
0.097799
0.228956
0.231987
0.194046
0.207489
0.227474
0.176128
0.222122
0.189171
0.178176
0.175870
0.249400
0.172928
0.210580
0.244074
0.244785
0.157148
0.186118
0.141892
0.213299
0.111979
0.127385
0.088716
0.108272
0.042432
0.014654
0.033025
0.064499
0.014460
0.070995
0.032816
-0.058454
-0.029771
0.081075
0.142616
0.075055
-0.002075
0.047772
0.023524
0.047688
0.090617
0.088664
0.040873
0.069936
-0.021025
0.078811
0.084073
0.166826
0.488375
0.866158
1.033483
1.330939
1.499568
1.359472
0.990261
0.739596
0.375363
0.051446
-0.157995
-0.235584
-0.182085
-0.170676
-0.028397
0.020477
0.094095
-0.024479
0.051607
0.177342
0.058332
0.005296
0.024432
0.087217
0.113664
0.008953
0.094838
0.084722
0.090272
0.066026
0.126028
0.282865
0.189577
0.185544
0.120379
0.196423
0.179356
0.276660
0.191468
0.307488
0.203608
0.222084
0.317485
0.311247
0.317985
0.363536
0.363336
0.389929
0.422431
0.490004
0.472990
0.497199
0.444907
0.452084
0.584772
0.540395
0.585548
0.517794
0.550552
0.514437
0.553802
0.596015
0.516195
0.570803
0.612449
0.587711
0.423817
0.475267
0.404636
0.342013
0.401450
0.455376
0.346832
0.390435
0.334443
0.352036
0.336582
0.326260
0.254869
0.285797
0.227530
0.247186
0.226514
0.102791
0.148444
0.181164
0.163261
0.204634
0.093499
0.061979
0.128544
0.164664
0.058778
0.055043
0.105286
0.084477
0.086945
0.000545
0.031780
0.062339
0.022752
0.048462
0.105692
-0.050500
0.087367
-0.026846
0.048089
0.049502
0.066836
0.038076
0.026642
0.125531
0.058590
0.064108
-0.000306
0.038919
0.026902
0.098807
-0.016152
0.048149
0.059902
0.045912
0.069799
0.004397
-0.063877
-0.105070
0.032740
0.092725
-0.050878
0.071726
0.004046
0.023447
-0.011038
0.017646
0.034909
0.043034
0.116954
0.031630
-0.014648
0.038698
-0.019322
0.042046
0.020017
0.098161
0.081632
0.024644
-0.013631
0.007646
0.009732
-0.058260
0.087174
-0.012250
-0.005403
0.022591
0.039435
0.061385
-0.055106
0.027373
0.000760
0.031527
0.037319
0.034143
0.047717
0.010938
0.054232
0.119357
0.074630
0.029796
0.072374
0.108381
0.062229
0.104851
0.182959
0.139208
0.089012
0.126707
0.145415
0.210800
0.160007
0.176279
0.072605
0.105360
0.231515
0.144758
0.201181
0.144329
0.122305
0.171574
0.177288
0.164640
0.142792
0.049543
0.172867
0.125346
0.048681
0.058127
0.052215
0.005872
0.048284
0.100849
-0.025282
-0.061502
0.011806
0.016251
-0.087935
-0.019508
-0.010570
-0.014071
0.049735
0.019674
0.030330
0.015676
-0.041517
-0.021042
-0.016086
-0.070950
-0.027991
0.044307
0.037639
-0.047061
-0.176119
0.021530
0.044621
0.267275
0.499837
0.863975
1.131170
1.297777
1.382575
1.154003
0.918724
0.646364
0.204617
-0.062546
-0.189867
-0.348129
-0.283404
-0.254308
-0.141921
-0.051573
0.019656
-0.052024
-0.012796
-0.018231
-0.006401
-0.029482
-0.066848
0.036667
-0.073639
0.035906
-0.051808
-0.030207
0.064840
0.028597
0.151331
0.007551
0.036908
0.077338
0.088641
0.087979
0.115876
0.172329
0.177707
0.177157
0.103010
0.220573
0.228601
0.246903
0.242850
0.271913
0.252743
0.264171
0.306777
0.298195
0.443578
0.367762
0.400808
0.462567
0.418806
0.395413
0.494054
0.477183
0.410519
0.435710
0.431308
0.448176
0.497264
0.466254
0.398841
0.387875
0.367780
0.379829
0.447594
0.315809
0.317903
0.280877
0.270542
0.281252
0.348413
0.223332
0.225575
0.193554
0.191657
0.216574
0.093905
0.192544
0.036940
0.112564
0.113344
0.055951
0.017845
0.024040
0.006708
-0.010712
-0.012333
-0.085941
-0.005326
0.040917
-0.031946
0.030509
-0.020145
-0.106639
-0.031983
-0.095241
-0.080461
-0.087463
-0.078487
-0.038748
-0.000766
-0.100665
0.000605
-0.002486
-0.114478
-0.045090
-0.087385
-0.060216
-0.069636
-0.082336
-0.124664
-0.042871
-0.113457
-0.106486
-0.119913
0.001086
0.013660
-0.164999
-0.140768
-0.130050
-0.009871
-0.063481
-0.058892
0.012118
-0.112815
-0.121881
0.003209
-0.028506
-0.092066
-0.019228
-0.038861
-0.095764
-0.096268
-0.093531
-0.137233
-0.099541
-0.134637
-0.127865
-0.110671
-0.063943
-0.013465
-0.069972
-0.122933
-0.047396
-0.131330
-0.028416
-0.160195
-0.120014
-0.079182
-0.081604
-0.109998
-0.090408
0.009785
-0.115480
-0.131228
-0.063251
-0.077045
-0.071595
-0.009877
-0.034988
-0.131560
0.007106
-0.106971
-0.017877
-0.048313
0.037276
-0.032642
-0.059871
0.002224
-0.027847
-0.033932
0.078074
-0.007385
0.092821
0.048123
0.087757
0.135300
0.041547
0.075530
0.005388
0.133765
0.081060
0.097574
0.132045
0.081155
0.084881
0.032615
0.103956
0.097132
0.087704
0.020074
0.038942
0.032422
-0.067220
-0.095967
-0.092497
-0.053539
-0.058325
-0.093337
-0.040325
-0.013768
-0.047406
-0.095107
-0.101474
-0.179268
-0.066848
-0.086187
-0.172181
-0.123985
-0.165352
-0.016868
-0.132657
-0.087313
-0.084772
-0.105667
-0.170961
-0.089826
-0.142028
-0.009441
0.151421
0.422528
0.767718
1.085699
1.257412
1.315273
1.155656
0.896336
0.478667
0.138111
-0.174674
-0.362752
-0.416678
-0.402608
-0.285333
-0.217043
-0.162365
-0.023346
-0.091450
-0.130868
-0.055557
-0.089444
-0.088167
-0.109132
-0.062277
-0.056374
-0.068032
-0.071245
-0.065045
-0.044796
-0.029277
0.002789
-0.026552
-0.042157
0.039818
-0.013564
0.032557
0.124968
0.068921
0.108003
0.094008
0.166158
0.124824
0.167034
0.187961
0.134118
0.195896
0.243282
0.218980
0.404393
0.296273
0.302673
0.347228
0.426173
0.355615
0.397416
0.387792
0.405588
0.361696
0.335394
0.416670
0.461067
0.454176
0.431254
0.427769
0.388334
0.365053
0.371168
0.327005
0.354127
0.260284
0.353356
0.297494
0.296109
0.290533
0.296078
0.281246
0.179859
0.187333
0.213547
0.171771
0.115440
0.142995
0.029630
-0.044803
0.051145
0.077428
0.020640
0.038220
0.034874
-0.039423
-0.009235
0.017419
0.005645
-0.077457
-0.175332
-0.109841
0.002703
-0.052062
0.015997
0.000956
-0.088060
-0.042965
-0.041611
-0.000457
-0.119102
-0.047677
-0.035614
-0.014835
-0.086700
-0.101468
-0.052339
-0.010900
-0.031289
-0.071029
-0.132654
0.037469
-0.048973
-0.023412
0.009403
-0.071872
-0.153145
-0.092896
-0.061084
-0.094325
-0.044864
-0.048014
-0.051943
0.048083
-0.061865
-0.000627
-0.036596
0.027422
0.001802
0.046861
-0.045091
-0.055188
-0.028941
0.068014
-0.020252
-0.010142
-0.088413
-0.025596
-0.037735
-0.117817
-0.046673
-0.047536
-0.037550
-0.091145
0.066467
-0.075377
-0.019144
-0.018877
-0.016755
-0.005242
-0.082876
-0.018601
0.020457
-0.006139
0.012015
-0.061187
0.014581
0.056169
-0.059815
-0.078636
0.075351
0.050473
-0.025795
0.001783
-0.009490
0.205031
-0.014889
0.036052
0.120261
0.140910
0.126654
0.192192
0.094904
0.167820
0.161073
0.156462
0.184569
0.134773
0.184389
0.179393
0.141208
0.230497
0.213458
0.127966
0.092087
0.130036
0.242649
0.171787
0.062750
0.116748
0.092903
0.156226
0.021609
0.063785
-0.020536
0.090033
0.003455
0.119349
-0.041595
0.095887
0.029840
0.047986
-0.013385
-0.030693
0.001886
0.077383
0.041853
0.017541
0.033943
0.061629
0.032599
0.052218
-0.029467
0.009371
-0.005036
-0.037353
-0.016660
0.038306
0.107458
0.305479
0.588888
0.852210
1.272347
1.368914
1.382283
1.223549
0.902737
0.543895
0.200034
-0.079979
-0.238933
-0.171620
-0.205302
-0.142416
-0.061034
0.027255
0.058354
0.044514
0.068727
-0.062691
0.024001
0.126874
0.090595
0.060176
0.083306
0.146196
0.051637
0.096223
0.133093
0.086972
0.134064
0.161938
0.172804
0.079478
0.080989
0.174398
0.153548
0.163495
0.281625
0.252420
0.290535
0.282290
0.253086
0.328098
0.362576
0.415110
0.357264
0.465985
0.481288
0.472251
0.413927
0.490237
0.478546
0.524625
0.503424
0.511674
0.501325
0.469718
0.576127
0.579206
0.517165
0.568972
0.566847
0.518654
0.563109
0.534464
0.398222
0.506642
0.474866
0.481213
0.430336
0.514127
0.377982
0.407399
0.332555
0.363911
0.317221
0.265180
0.232584
0.226553
0.225234
0.226218
0.146462
0.138057
0.226761
0.178809
0.195496
0.137478
0.130218
0.104709
0.083355
0.110970
0.133645
0.109438
0.096790
0.185614
0.067188
0.128635
0.119057
0.072497
0.042107
0.045072
0.101186
0.186000
0.078459
0.170042
0.052934
-0.044093
0.092564
0.105840
0.087218
0.008321
-0.026625
0.044640
0.101240
0.033089
0.044596
0.077136
0.021699
0.181921
0.143617
0.044205
0.023429
0.075060
0.085387
0.011906
0.058735
-0.006597
0.157042
0.080939
0.111797
0.042762
0.071406
0.098884
0.043133
0.003835
0.101724
0.080342
0.112365
0.039366
0.022805
0.097242
0.101398
0.043877
0.016258
-0.038377
0.079967
0.111390
0.093190
0.079192
0.017067
-0.049885
0.019384
0.107334
-0.057635
0.150382
0.219892
0.118797
0.091670
0.047697
0.056241
0.161044
0.066920
-0.007553
0.113048
0.163103
0.088902
0.065099
0.161754
0.144581
0.137033
0.155647
0.147274
0.247785
0.226550
