0.382740
0.080916
0.345010
0.022762
-0.025676
0.302640
-0.110893
-0.311618
0.096671
0.604679
0.532823
0.039867
0.043663
0.794030
-0.390592
-0.238408
0.299357
-0.206939
0.093016
-0.743408
-0.396561
0.351471
-0.276194
0.448113
0.117403
-0.030544
0.978531
-0.196065
-0.336445
0.042330
0.057522
0.153801
0.347339
-0.572223
0.603915
-0.208436
0.031512
-0.097090
0.473684
0.145005
0.467572
0.264845
0.019489
-0.122370
0.814755
0.251812
-0.333192
-0.244994
-0.106227
-0.040098
-0.570876
0.648231
-0.048030
0.217303
0.512965
-0.205981
0.631520
-0.235376
-0.087544
-0.398597
-0.058741
-0.154159
0.418403
-0.501518
-0.666660
0.522627
-0.152352
0.210420
0.408264
0.149239
0.332849
1.190852
0.612048
0.409582
-0.516173
0.097005
-0.682680
-0.046991
-0.293690
0.115151
-0.204788
0.391520
-0.372357
0.172454
0.128586
0.001257
0.356744
-0.542313
-0.295326
0.338530
0.250424
0.377103
-0.462132
0.869990
0.607044
0.277946
-0.279816
0.413619
0.424207
0.788247
0.625205
-0.632635
0.196768
-0.082053
-0.159363
-0.337575
0.425384
0.376694
0.670419
0.824779
-0.670575
0.456677
0.500851
0.338932
0.702466
0.018473
0.724386
0.555855
0.406806
0.603006
0.341179
0.232453
0.739358
0.628850
0.425668
0.848145
0.377178
0.168966
0.635093
0.469700
-0.104650
0.411067
0.301316
-0.749822
0.232869
-0.209785
-0.407473
-0.216741
1.154704
0.118800
0.719098
-0.223088
0.332082
-0.186741
-0.334733
0.356534
0.135884
-0.260031
0.343304
0.336762
0.405834
-0.380646
0.142108
-0.142600
-0.086459
0.770523
-0.050018
0.016936
0.014693
-0.063995
0.020488
-0.039478
-0.249648
0.387869
0.344124
-0.286307
0.597527
-0.274288
-0.218963
0.070373
-0.055499
0.786549
-0.260641
0.309443
-0.351031
0.213576
0.314826
-0.213573
0.334695
0.076019
-0.494175
-0.840383
0.529045
0.313749
-0.418734
0.023062
0.179150
-0.397248
0.490586
-0.469099
0.241547
0.561907
0.373696
-0.291449
-0.032362
-0.240363
0.390060
0.236851
-0.150446
-0.049421
0.674721
0.067608
-0.108141
-0.330348
-0.002674
0.872061
-0.443059
-0.480838
-0.237646
-0.041233
0.417776
-0.450777
-0.116899
0.198121
0.053479
-0.239622
-0.622323
0.244911
-0.107972
-0.001920
-0.507150
0.214212
0.150768
0.262727
-0.143156
0.569273
0.393816
0.303253
0.285640
-0.524604
0.866881
0.258847
0.057786
0.352582
-0.510643
-0.190384
-0.152787
-0.557411
-0.002302
-0.098995
-0.764047
0.092632
-0.107181
-0.116892
0.110006
1.076178
0.227442
0.075326
0.627062
0.193221
0.803554
0.973029
0.436307
0.658269
0.288865
0.194262
-0.088370
0.008526
-0.278258
0.569662
0.570959
-0.116159
-0.083423
0.310658
0.044622
0.563914
-0.326711
0.028158
-0.434867
-0.219068
-0.080577
0.301259
-0.144841
0.411172
-0.428885
0.326382
0.022703
0.131230
0.466986
0.821305
0.541490
-0.190619
0.296011
0.865873
0.436441
-0.444126
0.237821
0.548671
0.478146
0.437049
0.289556
0.934723
-0.084477
0.696635
0.966774
0.091019
0.819254
-0.031866
0.881349
0.459117
-0.038533
0.613058
0.815450
0.053962
-0.004100
0.138070
0.081247
-0.181593
-0.473545
0.375850
0.139007
0.394949
0.797296
0.494143
-0.338868
-0.422084
0.693964
-0.085484
0.607019
-0.696172
0.181230
0.635367
-0.400651
0.483341
-0.153958
0.036369
-0.211959
0.086897
0.017538
-0.414915
0.205612
0.295140
-0.159291
0.276464
0.159916
-0.210389
-0.049755
0.073678
-0.059502
-0.488964
-0.398323
-0.187907
-0.152809
-0.308552
0.034403
0.172529
0.480792
0.027721
0.260913
-0.333412
0.683568
0.258688
-0.151219
-0.759630
-0.444180
-0.535079
0.559152
-0.167121
0.685119
0.387459
-0.389578
-0.129128
-0.356791
-0.562527
0.317742
0.001368
0.555940
0.335446
-0.044225
0.220012
-0.165992
-0.277936
-0.108315
-0.143027
0.760357
0.020893
-0.779586
-0.021830
0.183466
-0.421126
0.387925
0.172433
0.311555
-0.736371
-0.216923
0.779286
0.094003
0.428552
0.030214
0.071854
-0.127606
-0.025815
0.316032
0.117425
-0.512571
0.010628
0.178733
-0.372976
0.279048
0.312883
-0.659668
0.178391
-0.576237
0.294129
-0.190161
0.435662
-0.200967
-0.051610
-0.164459
0.471762
-0.167919
1.025893
-0.197069
-0.144890
-0.739121
-0.022795
-0.402817
-0.037639
-0.142780
0.131580
-0.155594
-0.095101
0.650370
0.600905
0.012112
0.709610
0.592275
0.860670
-0.053115
0.677024
0.401467
1.091815
0.390800
-0.212007
-0.363882
0.146366
-0.863425
0.291113
0.370664
0.049740
-0.118063
-0.209467
0.406981
0.128630
-0.608049
-0.509140
0.037267
-0.276080
-0.278598
0.225567
-0.212273
-0.008758
-0.120492
0.069550
0.135535
-0.068515
-0.300333
-0.076251
0.222750
-0.596792
0.241941
0.115351
0.591667
0.038123
0.401198
0.562460
0.328559
0.716888
0.378368
0.520891
0.232542
-0.430903
0.168502
0.367557
0.123117
-0.436098
0.061818
0.217828
0.037656
0.423951
0.333336
-0.334790
0.209073
0.443764
0.513593
0.174308
0.173188
0.052562
-0.229388
0.613357
-0.382601
-0.394523
-0.120176
0.008300
-0.179839
-0.076597
0.443176
0.223919
-0.151720
0.499271
-0.358292
-0.315985
-0.275215
0.618462
0.172561
0.665498
0.192430
-0.153526
0.120410
0.157199
-0.196278
0.205700
0.119904
0.592878
-0.183189
0.437084
-0.079293
0.045256
-0.167275
-0.737390
0.370766
0.206738
-0.692103
0.369722
-0.647230
0.226726
-0.202775
0.554317
0.072472
0.318525
-0.522345
0.048892
-0.402075
0.140091
0.488122
-0.769910
-0.611351
0.173453
-0.508395
0.083183
0.099961
-0.294467
-0.079290
0.363184
-0.110345
-0.220062
0.020768
-0.621240
-0.165191
-0.077615
0.557127
-0.542660
0.037875
-0.300874
-0.294380
0.140268
0.066316
0.267242
-0.029310
-0.899189
0.348472
0.376929
-0.270824
0.455984
-0.193876
-0.190800
-0.336749
0.601244
0.076751
0.678436
0.155191
0.723902
-0.228541
-0.034067
0.548441
1.110721
0.038716
-0.122833
0.124843
0.095620
-0.599527
0.244611
-0.385256
0.051644
-0.369286
-0.107454
-0.564588
0.161494
0.479611
0.114232
-0.741226
-0.135123
0.300501
0.706252
-0.113565
-0.245559
0.151348
-0.542875
-0.150668
-0.360601
0.256640
0.415939
0.451043
-0.487799
0.363924
0.759843
0.955402
0.503113
0.284110
0.515535
-0.060351
0.781576
0.415740
-0.175294
-0.112496
0.409158
-0.491948
0.108997
0.009858
0.140640
0.025327
-0.308528
-0.321077
-0.324998
-0.657744
0.363826
0.495551
0.091860
-0.361995
0.574585
-0.390224
0.188498
-0.385598
0.506014
-0.647218
0.153334
-0.044406
-0.031643
0.302378
0.780504
0.301241
0.028992
-0.174304
0.463011
0.783568
0.247978
-0.364414
0.444609
0.040673
0.414489
0.003552
-0.176833
-0.567787
1.015482
0.175583
0.536014
0.687279
-0.160128
0.438499
0.891201
-0.469063
0.626674
0.034942
0.320768
0.418321
0.712848
-0.774213
0.841080
0.530770
0.032587
0.002461
0.180209
-0.425929
0.304507
0.166399
0.286086
-0.492392
-0.155942
0.167806
0.975702
-0.201966
0.067869
-0.021498
0.027031
0.006403
-0.006794
-0.239102
-0.622557
-0.387319
-0.043295
0.121099
0.152101
0.201964
0.509207
-0.211050
0.033343
0.615500
0.442823
0.184053
-0.132801
-0.072368
-0.094163
-0.124329
0.578067
0.838511
-0.376132
0.134673
-0.887779
0.746929
-0.516525
-0.290796
-0.038496
0.653464
-0.387038
0.580475
0.102461
0.198420
-0.712487
-0.748668
0.552857
-0.093982
0.314801
0.217525
0.215761
-0.478879
0.232107
-0.642375
0.183644
-0.673556
0.555635
0.160218
0.132469
0.077205
-0.256357
0.242779
0.504792
0.004470
0.238904
0.187486
-0.233981
-0.339380
-0.281039
0.073770
-0.161199
0.157567
0.197388
0.241239
-0.538128
-0.481019
-0.065142
-0.044405
0.231511
1.031953
-0.063793
-0.455642
-0.270269
-0.351817
0.243030
-0.169999
0.228049
0.004616
-0.109824
0.403154
0.428893
0.480199
0.021302
0.282653
0.211818
-0.149102
0.171804
0.696164
0.293757
-0.319339
0.186757
-0.476818
0.783033
-0.062976
-0.319432
-0.000393
-0.566969
0.348371
0.282155
0.411603
0.727053
0.436516
0.959904
0.641267
0.972235
0.667106
-0.031438
1.165012
0.850833
-0.309064
-0.282315
-0.034859
0.025561
0.194405
-0.056503
-0.766450
0.482466
0.092192
0.322065
0.308694
0.656039
-0.184186
0.227037
0.824339
-0.106440
0.280898
0.008236
0.327669
-0.224700
-0.120700
0.845597
-0.283129
0.311419
-0.049232
0.000456
-0.523396
0.490759
-0.744359
0.027099
0.396313
0.177119
0.371956
0.042596
0.284662
-0.183668
0.248031
0.293325
0.227366
0.352121
0.774282
-0.396708
0.016781
0.419834
0.596760
-0.274112
-0.209225
0.560804
0.670621
-0.256001
0.130358
-0.627246
1.028837
0.314711
-0.402373
0.464852
0.001465
0.165832
0.284911
-0.205906
0.116504
0.351570
-0.035106
-0.300842
-0.168256
-0.429459
-0.142049
0.680694
0.396774
0.383791
-0.149302
0.514533
0.012375
-0.903908
0.059876
0.582922
-0.095493
0.370553
-0.659018
0.425184
0.005717
0.077344
-0.437506
0.179983
0.485505
-0.469920
-0.302248
0.397426
0.691287
-0.216177
-0.064032
0.310391
0.196397
0.050142
0.422787
0.217482
-0.123550
-0.371240
-0.345646
-0.235620
0.073682
0.656293
-0.098740
0.056134
0.059966
0.146770
0.316115
-0.436751
0.166318
0.011687
0.381016
0.126981
-0.116886
-0.041500
-0.089189
0.398988
-0.123108
-0.439913
0.163704
-0.850498
0.256331
0.072323
-0.139969
0.303598
0.715396
-0.302712
-0.039289
-0.235128
-0.103722
0.090493
-0.110831
0.482148
0.346138
-0.041250
0.920122
-0.137536
0.385251
0.409913
0.202502
0.068259
0.432051
0.312091
-0.076807
1.000739
-0.124998
0.199878
-0.135815
0.148337
0.503362
-0.419841
0.558714
0.383717
-0.447221
0.962141
-0.279757
-0.193655
-0.146093
-0.128704
-0.336394
-0.125485
-0.393345
0.229804
-0.263423
-0.684693
-0.051375
-0.441646
-0.254377
0.223961
0.355953
0.328960
0.664690
0.696875
0.670365
1.480010
0.507646
0.326292
0.301720
-0.476000
0.444082
0.266650
0.136658
-0.344289
-0.357778
0.813369
0.211788
0.295712
0.268173
-0.054669
-0.084175
-0.444966
-0.272609
-0.058422
-0.110134
0.090559
-0.571372
0.203851
0.621674
0.590941
0.251847
-0.290726
-0.003987
-0.281754
0.129222
0.193470
0.182166
0.031852
0.440781
0.753079
0.403318
0.826377
0.795584
1.007914
0.064705
-0.321468
0.218513
0.068557
0.610745
0.143707
0.888280
0.491307
0.781485
-0.172032
-0.125673
0.017028
-0.403008
0.656172
0.469591
0.466080
0.238672
0.505349
0.449058
0.405064
1.265603
0.295662
0.075950
0.327978
-0.240011
-0.478438
0.086645
0.057120
0.766145
0.281770
0.182864
0.347686
-0.113845
0.415628
-0.185751
0.563502
0.161319
-0.139275
0.360262
-0.027365
-0.025327
0.449119
0.133081
-0.268909
-0.239894
0.321590
0.207717
-0.233189
-0.336521
-0.411822
0.233333
-0.638724
-0.184059
-0.714322
-0.264575
-0.160551
0.253408
0.177658
0.477406
-0.366685
0.042061
0.189324
-0.054087
-0.015177
0.308055
-0.081916
0.022923
-0.303133
0.104701
0.276973
0.581456
0.390272
-0.240499
-0.341780
0.721876
-0.008204
0.120028
0.431385
0.295153
-0.634324
0.802372
0.236691
-0.476867
-0.497929
0.351918
-0.006270
-0.053302
0.279224
-0.060913
0.718193
-0.228824
0.374527
0.166665
0.480553
-0.447787
0.169715
-0.151163
0.375863
-0.273294
-0.342303
-0.181394
1.041614
-0.179965
-0.158396
0.017508
-0.713361
0.111302
-0.163918
-0.101134
0.286855
-0.022792
-0.034422
0.026696
-0.372397
-0.165761
0.119657
0.557557
0.066396
0.200792
1.044228
-0.190034
-0.043151
0.234467
-0.693122
0.052999
0.504535
-0.467208
-0.002865
0.912321
0.232961
-0.033160
0.462954
0.697816
0.089638
0.585261
0.438432
0.121292
-0.188878
1.382110
0.423903
0.565461
0.388663
-0.276104
0.514680
-0.504731
-0.273246
0.409361
-0.157104
-0.346906
0.343347
0.511590
-0.073151
0.415474
0.170372
0.550082
0.004112
0.454996
0.038797
0.186299
0.441107
0.107518
0.511539
0.578830
0.406260
-0.097484
0.482473
0.774505
0.437909
-0.459338
-0.216624
-0.006752
0.349484
-0.584501
-0.237948
-0.274877
0.512132
0.889160
0.694253
0.196252
0.454539
-0.596833
0.222312
0.592648
0.494316
0.587964
0.100261
0.052687
0.046052
0.057100
0.675336
0.462303
-0.576805
0.849143
0.101378
-0.089545
0.277494
0.889705
0.091652
0.584584
0.002086
0.081163
0.527121
0.130218
0.202784
-0.379129
0.321325
-0.191468
0.295463
-0.669860
-0.869419
0.529581
0.271569
0.626543
0.276844
0.314810
-0.016643
-0.714597
-0.064166
-0.174424
-0.598381
-0.524614
-0.222992
0.229111
0.865599
-0.088555
0.194054
-0.077090
-0.218227
-0.407002
-0.246706
-0.240910
-0.304740
-0.071442
-0.218210
-0.195036
-0.037838
0.313211
-0.174676
-0.809811
0.441410
0.169826
-0.026775
-0.125067
0.371799
0.157918
0.527414
-0.248053
-0.389005
-0.028752
0.107585
-0.057172
0.261060
0.207222
0.627513
0.240370
-0.070728
-0.128375
-0.031962
-0.576106
0.244839
0.367998
0.203142
0.043605
0.567630
0.180169
-0.611375
0.348179
-0.116015
-0.056832
-0.417381
0.623338
0.084988
-0.086726
0.462654
-0.510577
0.036831
-0.219801
0.170110
0.392468
0.328954
-0.356897
-0.040336
0.290556
-0.489271
0.230488
0.065909
0.087579
-0.405295
0.124908
0.216491
-0.341754
0.165112
-0.406075
0.044925
0.212388
-0.013116
-0.014297
0.601342
0.481336
-0.058746
0.203727
-0.054051
-0.203939
0.321613
-0.384933
-0.070203
0.175133
0.151268
-0.547544
0.193669
-0.013844
0.581110
0.986337
0.002581
0.516032
0.171511
0.683004
0.642793
1.110394
-0.232804
-0.002453
-0.121315
-0.138222
0.058006
0.359322
-0.297335
0.040210
-0.407375
-0.012202
0.473243
0.412885
-0.400791
-0.271922
0.008904
0.369786
0.160444
-0.320794
0.373803
0.221366
-0.052724
-0.172872
-0.305159
-0.155952
-0.527921
-0.366890
0.184306
0.649310
0.115429
0.125944
-0.073741
-0.043850
0.766530
0.529520
-0.349234
-0.278998
0.516519
0.229964
0.666038
0.326061
-0.087827
0.198236
0.673251
0.122218
0.308262
-0.864297
0.224141
-0.164407
0.253558
0.325977
0.146534
0.828968
0.599286
0.832889
0.849043
0.791493
0.082915
0.200053
-0.071732
0.657666
-0.167452
0.685660
0.291307
0.313878
0.322562
0.107443
0.152058
0.321642
0.060440
0.016902
0.070147
0.228350
-0.098102
-0.311815
0.099612
0.504008
-0.165075
-0.681295
-0.749106
-0.133384
0.204694
0.524759
-0.195464
-0.001834
-0.048130
-0.551595
0.265885
0.083122
-0.221172
-0.491221
0.692351
0.265563
0.306563
-0.313584
0.021685
0.371129
0.628155
-0.143887
0.070304
-0.359439
-0.276150
-0.061402
-0.268583
-0.045840
0.319725
-0.502368
0.526049
0.396226
-0.249251
0.708236
-0.176771
0.296389
0.184574
0.554298
-0.038916
-0.087166
-0.367805
0.044809
0.171875
-0.406503
0.267092
0.535009
0.327812
-0.451668
0.388967
-0.158153
-0.238787
0.447864
-0.173261
0.007687
-0.263965
0.188518
-0.064447
-0.536645
0.244429
0.599075
-0.300279
0.353024
0.413796
0.343837
-0.617801
0.087414
0.360579
-0.204085
-0.046937
0.319767
-0.077644
0.257409
0.439849
0.343422
0.822665
0.104922
0.101166
-0.157163
-0.541350
0.290589
-0.016263
0.493770
-0.740468
0.209341
0.646574
0.166070
0.007486
-0.792786
0.592040
-0.007225
-0.412734
-0.055546
-0.106948
-0.241550
0.769111
-0.369974
-0.149795
-0.702494
-0.026038
0.528695
0.423648
0.874389
0.812075
0.427718
0.588547
-0.304218
0.233066
0.234335
-0.629187
0.072057
-0.039556
0.587675
-0.175880
-0.174875
0.111871
-0.034102
-0.495638
-0.696802
0.601950
0.037349
-0.356911
-0.080650
0.049073
0.160184
0.230286
0.100021
-0.423200
0.068627
0.133792
1.032040
0.542225
0.778429
0.320891
0.133877
0.088338
-0.004720
0.756049
-0.042937
1.500000
0.054478
-0.154937
0.373277
0.189279
-0.043732
0.064986
0.567991
0.171530
0.349537
0.651184
0.193157
-0.051640
0.674349
0.220595
-0.095340
0.378620
0.229070
0.002638
-0.037377
0.159863
0.011077
0.132810
-0.195094
-0.237174
0.664914
0.026430
0.962241
-0.439111
-0.190069
0.566365
0.440991
0.042006
0.277958
-0.075534
-0.539232
0.620573
-0.251313
0.011814
0.585744
0.395722
0.196052
0.178708
0.076202
0.137714
-0.303127
0.142291
0.162992
-0.174175
0.189533
0.318826
0.099697
0.433354
0.018252
-0.065614
0.203583
-0.297807
0.013725
0.130436
0.051014
0.468837
0.120541
0.656573
-0.141024
0.013426
0.209397
-0.146935
-0.835226
-0.294817
0.203673
0.218036
-0.352870
0.147135
0.377699
-0.673548
0.153981
0.468508
-1.001797
-0.293263
-0.165930
-0.004442
0.066942
-0.289226
0.678561
-0.287906
0.392482
-0.343445
-0.208962
-0.291301
-0.090012
-0.154079
-0.193140
0.386476
-0.096715
0.271976
-0.185715
0.745843
0.398917
-0.369173
0.261607
-0.024976
0.847943
0.435570
0.004334
-0.448597
0.364109
0.675359
-0.199784
0.061352
0.470374
0.661663
-0.323444
-0.563845
-0.061314
0.091324
-0.278545
-0.074372
0.263581
-0.280233
-0.203596
-0.118036
0.337340
0.569397
0.307897
0.398725
0.390684
0.472424
-0.415675
0.465627
0.711862
0.171662
-0.266854
0.052997
-0.560658
-0.011539
-0.331049
-0.280728
0.237419
0.662007
0.735946
1.447804
0.369395
1.096777
0.662716
0.259630
0.344253
0.328513
0.545106
0.265154
-0.453091
-0.295458
-0.999894
0.751402
0.796667
0.331193
-0.041473
-0.193267
0.152145
0.109709
0.399667
-0.143122
0.244165
0.894597
0.263582
0.325399
-0.418709
-0.439689
0.275555
0.071047
0.472162
0.340546
0.057366
0.326836
-0.070252
0.435567
0.159787
0.109490
0.461863
0.466901
0.383672
0.663999
-0.121395
0.148155
-0.046277
0.170145
0.345074
0.946678
-0.438984
-0.136347
0.473399
0.215968
-0.476488
0.401835
0.331723
-0.606220
-0.002581
0.354741
0.562604
0.505518
0.649487
0.240356
0.447121
0.697992
-0.025569
0.468327
-0.061766
0.745945
0.259828
0.296721
0.684161
0.137583
0.276025
-0.194258
0.130567
-0.101602
-0.571030
-0.307046
-0.080873
0.485322
-0.192135
0.440559
-0.314772
-0.049330
0.227429
-0.264845
-0.104484
0.816276
0.124552
-0.435747
-0.781709
0.323709
-0.326214
0.249889
0.169592
0.562149
0.097765
-0.152407
-0.035234
-0.076302
-0.162750
-0.301610
0.524838
0.759590
-0.082350
-0.120614
0.183574
0.322422
0.767802
-0.238237
0.271774
0.682376
-0.311172
0.324168
0.697489
0.299602
-0.054408
0.386149
-0.423751
-0.128589
0.997037
0.239483
-0.238251
-0.681383
0.387288
-0.507628
0.730646
-0.198452
0.200248
0.215798
0.351166
0.193721
-0.149207
-0.017206
0.082128
-0.761881
0.174575
0.296354
0.358156
0.258958
0.415234
-0.267933
-0.255311
0.017139
-0.024286
-0.885755
0.124941
0.504743
0.320524
0.124898
0.227537
0.086758
0.537885
0.039790
-0.199701
-0.114325
0.260071
-0.074576
0.032168
0.240781
-0.224823
0.762288
0.197826
-0.159485
-0.542043
-0.166514
-0.012950
0.293881
0.167759
0.133000
-0.240886
0.413677
0.616311
0.123975
0.306145
-0.152562
0.017412
-0.348676
0.668637
0.577020
1.483390
0.632657
0.425070
0.324757
0.356355
0.254276
-0.282792
-0.128882
-0.206539
-0.304970
0.150099
0.079481
0.038149
0.154086
0.087967
-0.377951
0.547403
-0.642986
-0.094209
-0.078209
-0.068939
0.271105
-0.129990
0.761692
0.097095
-0.009670
-0.602082
0.093278
0.247919
0.580086
0.643397
-0.250731
0.139393
0.009642
0.785591
0.009301
0.651075
0.197011
0.353228
0.237189
-0.022653
0.311554
0.064039
0.129799
0.401527
0.393815
-0.275461
0.840495
0.106000
0.076147
0.176327
0.032939
-0.247533
0.034548
-0.294084
-0.237027
0.222082
-0.224998
0.225063
-0.212892
-0.411314
0.128502
0.304514
-0.545419
-0.133232
0.122473
-0.193637
0.283251
-0.029220
-0.317139
-0.058595
-0.917048
-0.513576
-0.084737
-0.064202
0.308377
-0.125227
0.076084
-0.102688
-0.027048
0.526399
0.050783
-0.089834
-0.575705
-0.494232
-0.509488
-0.373329
-0.255418
0.052051
1.346307
0.418195
-0.264150
0.241221
-0.049445
-0.330063
-0.551065
-0.520290
-0.324961
0.140859
-0.123063
0.107143
0.069351
-0.201845
0.342650
0.392967
-0.533698
0.002330
0.238426
-0.178102
-0.506447
-0.031303
0.399521
-0.313454
-0.288590
0.001021
0.238691
0.013031
0.010264
-0.725600
-0.636003
-0.259411
-0.081439
-0.125325
0.321104
-0.289866
0.239172
0.234204
0.401696
0.343360
-0.165246
0.061863
-0.072553
-0.243589
0.122837
0.087518
0.304569
0.158837
0.293128
0.081807
0.361577
0.435478
0.178185
-0.508896
0.138131
0.528143
-0.368022
-0.172734
-0.150193
-0.203550
0.023394
0.158695
0.520118
0.514195
0.046625
-0.746264
0.094944
0.817126
-0.740490
-0.059343
-0.189633
0.702732
0.327131
-0.153842
-0.240440
0.290551
0.060038
-0.234504
-0.126118
-0.074316
0.110058
0.074736
0.131557
-0.226463
-0.132136
0.099338
0.088885
0.055846
0.111716
1.342492
0.407050
0.735000
0.491077
0.215935
0.291044
0.466513
-0.844664
-0.694997
-0.440763
0.806636
0.619861
-0.092059
-0.042552
0.522110
0.191109
0.214211
-0.014148
0.220021
-0.090232
-0.533012
-0.260194
-0.095613
0.541721
0.524917
0.594919
-0.234429
0.072208
-0.217749
-0.779946
0.273365
0.089985
0.014050
0.612859
0.299087
0.644495
0.195010
0.368979
0.470316
-0.209680
-0.193355
0.022113
0.053112
0.799319
-0.291937
0.034899
0.123349
0.013277
0.452473
0.419652
0.565836
0.474531
0.652397
-0.591111
0.048036
-0.419576
0.182018
0.869955
-0.653703
-0.429295
0.304051
0.160079
-0.157983
-0.377725
-0.281003
0.497596
0.076966
-0.303998
0.538585
-0.480571
0.063819
0.024055
0.332277
-0.006778
-0.397186
-0.234947
-0.153417
0.241436
-0.054543
0.275141
0.502972
-0.075036
0.438268
0.062880
-0.025117
-0.108387
0.300777
-0.224703
0.336164
0.079921
0.229719
0.235039
-0.136808
0.023878
-0.006941
0.366109
-0.720742
0.207244
-0.204424
0.414871
0.283607
-0.349562
0.782935
0.175081
-0.136859
-0.269327
-0.385596
0.502346
-0.108543
0.077588
-0.131658
0.656264
0.115843
0.096783
-0.032872
-0.334864
0.388215
-0.232279
-0.023300
-0.210057
-0.014130
0.011934
-0.397771
-0.089720
0.332524
-0.198020
-0.083817
0.155003
-0.135718
-0.151071
0.128569
-0.634485
-0.660460
0.151115
-0.163445
0.123479
0.385892
0.566875
-0.180428
0.131834
0.113038
-0.126356
0.455925
-0.034092
0.207254
-0.020626
-0.229786
-0.254989
1.136158
0.123607
0.064638
-0.341921
0.130323
-0.094645
0.616856
0.139669
0.466380
0.066873
0.088422
-0.290653
-0.699216
-0.112873
-0.380427
-0.331690
-0.049229
-0.221422
0.136432
0.144109
-0.749547
-0.288668
-0.736573
-0.085820
-0.339790
-0.435648
0.708697
0.313522
-0.022622
0.587832
0.126902
1.165287
1.040795
0.350232
0.977811
0.493815
-0.499432
-0.424789
-0.234207
0.250554
0.402860
-0.289582
-0.730078
0.545163
-0.009977
0.587442
-0.331696
0.416095
-0.058803
0.091269
0.592056
-0.164513
-0.029302
0.273606
0.152318
-0.889453
0.311299
-0.149329
0.072189
0.094403
0.214396
0.107427
-0.138089
-0.486421
0.254370
0.172420
-0.390160
0.166519
0.303527
-0.066907
-0.405943
0.545419
-0.283792
0.580798
0.417104
0.147836
0.553410
-0.324678
0.295959
0.067626
0.419473
0.213032
1.179998
0.073156
-0.822786
0.391433
-0.040788
0.151636
0.246561
0.027666
0.186346
0.074109
-0.206254
-0.184498
0.154507
0.336505
0.830553
0.636268
-0.389469
0.140136
-0.077634
0.062125
-0.128355
-0.174580
0.012564
-0.645798
0.422351
-0.416687
-0.158885
0.226248
-0.040674
0.707331
0.467632
-0.149101
-0.520979
0.541409
0.385477
0.169518
0.171317
0.231095
-0.159647
-0.512619
0.143585
-0.453624
-0.093849
0.770709
0.015089
-0.103870
-0.921063
0.354463
0.255075
0.410802
0.309168
0.743569
0.034986
0.306155
0.498319
-0.193143
-0.099514
-0.339426
-0.129979
-0.304747
-0.359049
-0.100233
0.142154
0.097665
0.066306
-0.042948
-0.220040
-0.414639
-0.195003
-0.071780
-0.153911
-0.067174
-0.633611
-0.665290
-0.115109
-0.196571
-0.071692
0.014888
0.605809
-0.183779
0.021341
0.044215
0.163369
0.408374
0.484855
0.679069
0.690947
-0.400257
-0.116168
0.380651
0.456737
-0.364125
-0.183417
-0.305415
0.340693
-0.349136
-0.285806
-0.539973
0.499768
0.297139
-0.399422
0.667604
-0.043103
0.479490
-0.105828
0.085431
0.114525
0.432503
-1.047805
-0.292175
-0.248060
0.408139
0.308537
0.036565
0.229268
0.074679
0.127538
0.194328
-0.291969
-0.146665
0.004030
0.694775
-0.078431
0.070032
0.141595
0.904105
-0.013268
0.724726
0.792319
0.943699
0.541734
0.447585
0.842128
0.278063
-0.210327
0.150722
-0.010383
-0.319838
-0.389266
-0.168116
-0.254513
-0.086821
-0.069629
0.378753
-0.439356
0.381149
0.197276
0.067228
0.199371
0.189541
-0.019038
0.011509
0.166309
0.932726
-0.027637
-0.122784
0.270024
0.367724
-0.013978
0.725232
-0.501963
-0.227832
0.473782
-0.085858
0.619435
-0.184204
0.040288
0.585557
-0.179259
0.037880
0.022077
0.167075
0.386683
0.111411
0.057424
0.420612
0.755072
0.078700
-0.011331
-0.074316
0.283960
0.150375
0.604032
0.321332
0.782039
0.015306
0.299542
0.238316
-0.168024
0.425812
0.178700
0.205918
-0.081526
-0.471301
0.474251
0.085613
0.024151
0.129784
0.598823
0.680569
0.470439
1.079030
0.569626
0.185863
-0.477474
-0.369124
0.012071
-0.345690
0.232736
0.102519
0.105346
0.478891
-0.212933
0.149583
0.087134
0.150482
-0.313853
0.420255
-0.105114
-0.250091
-0.400264
0.729067
0.199196
0.279466
-0.343992
0.320841
0.174564
-0.175396
-0.350748
-0.355684
-0.036615
-0.496989
-0.173633
0.077491
0.182433
-0.597128
