-0.403208
0.212230
0.114441
0.089992
0.200721
0.197201
0.314837
-0.438438
0.339335
-0.443862
-0.265614
-0.180047
0.549104
-0.064224
-0.084710
0.206960
-0.016141
0.069717
-0.255190
0.004880
0.044040
0.082156
-0.337722
0.349173
-0.333145
0.245773
0.069302
0.162774
-0.033051
-0.213269
0.443714
0.027665
0.440877
0.219589
0.171606
-0.203186
0.658481
0.158024
0.166536
0.264199
0.025195
-0.008192
-0.238850
-0.199966
-0.094502
0.267448
0.244759
-0.174123
-0.347608
0.650202
-0.084454
0.134305
-0.086468
0.423149
0.048137
-0.589713
-0.001690
-0.275495
0.000048
-0.456685
-0.187822
0.472737
0.364431
0.277153
0.152226
-0.479459
0.139604
0.120814
0.131325
-0.069121
0.028007
0.236833
0.450482
0.534833
0.630493
0.449810
0.646408
0.640565
0.444694
0.287145
-0.108634
-0.157266
-0.337360
0.155721
0.287301
0.231523
0.940087
0.160408
-0.189828
0.307491
0.015564
0.079550
-0.650169
0.654460
0.153843
0.363853
0.082213
0.104929
0.249331
-0.001281
-0.185922
0.545087
0.077069
-0.345517
0.162454
-0.278536
-0.193355
-0.135104
0.631733
0.055991
0.470407
0.015985
0.184265
-0.336108
0.107792
0.123110
-0.192042
0.308502
0.823209
-0.032743
0.742202
0.377958
0.292601
-0.030381
0.265749
0.735535
0.341747
0.444610
0.222074
0.064962
-0.260553
-0.602875
-0.073797
0.287243
-0.223031
0.547019
0.463774
1.135924
-0.317903
-0.291701
0.036482
0.038852
-0.320698
-0.069755
-0.009208
0.960040
0.547824
0.496000
-0.080144
0.544771
0.089214
0.212478
-0.408437
0.329613
0.493356
0.496387
0.109870
-0.138676
-0.008024
-0.210522
-0.285332
-0.365769
-0.517779
0.259484
0.302064
-0.121870
0.043486
-0.033072
0.207361
-0.382217
-0.607479
-0.427250
0.128670
-0.242525
0.060836
0.310816
0.557548
0.279616
-0.043689
0.092930
0.434601
-0.030536
-0.092489
-0.373775
0.001465
0.363154
0.017320
0.349104
0.502528
-0.237342
0.256674
0.321002
0.559109
0.542078
0.405509
-0.307361
0.870256
0.305032
-0.562963
-0.101528
-0.207536
0.369274
-0.088666
0.030650
0.446960
-0.019471
0.028329
-0.040351
0.036439
-0.472977
0.013288
-0.033552
-0.094355
-0.244423
0.021576
0.184883
0.618981
0.125674
0.405583
0.332698
-0.084208
0.676788
0.083749
0.157856
0.188090
-0.176663
0.049743
0.051977
0.036384
-0.722782
0.036009
0.038761
0.414905
0.038857
-0.426324
0.208579
-0.130083
-0.068331
0.232731
0.007959
0.449056
-0.274684
-0.258498
-0.112060
-0.245066
-0.656214
-0.077063
-0.606226
0.091935
0.498112
-0.205448
0.323004
-0.286677
0.117402
0.371106
-0.409242
-0.111565
0.302501
0.264428
0.645668
0.743610
-0.025386
0.473639
0.627056
0.215900
0.301552
-0.081877
0.176458
0.026674
-0.279246
0.160530
-0.018549
-0.167815
-0.164144
0.362682
-0.180662
0.007854
0.015146
-0.076476
0.365693
0.286999
0.359432
0.179200
0.798306
0.613123
0.017551
0.189638
-0.419026
-0.350567
0.135771
-0.709112
-0.411347
-0.325616
0.130965
0.262667
0.098211
0.281682
-0.031781
0.357930
0.115459
0.293616
0.211341
0.141824
0.478742
0.201245
0.503908
0.519545
-0.191478
0.423409
0.195374
0.344622
0.532633
0.532230
-0.425564
0.439984
-0.084549
0.446311
-0.202779
0.014273
0.150679
0.297492
0.222295
0.036800
0.306009
0.103659
0.004890
-0.020338
0.231558
-0.100116
0.557772
0.306961
-0.103629
0.031813
-0.003299
0.247625
-0.649324
-0.283182
-0.167675
-0.736274
0.116488
-0.292017
0.013651
0.714455
0.114075
-0.255355
-0.142592
0.169562
-0.390202
0.274805
-0.082262
-0.074273
0.568410
-0.008325
0.404260
-0.077280
-0.185578
0.086456
0.155340
0.123749
0.309039
-0.328417
-0.093319
0.085511
0.418806
-0.040329
-0.048089
-0.026065
-0.042201
0.175515
-0.093909
0.044448
0.405996
0.201157
0.085827
0.098389
-0.548939
0.450156
0.147613
0.199067
-0.326236
0.203950
-0.145303
-0.070565
0.192828
0.023431
0.142079
0.277443
0.019339
0.363103
-0.026992
-0.117012
-0.119347
0.512737
0.012980
-0.166473
0.469855
-0.087277
-0.020866
0.816149
0.269932
0.255132
0.117226
0.612869
-0.244874
0.132972
0.154993
0.262249
0.171750
-0.073215
0.219930
0.414547
0.455260
0.227637
0.279717
0.336409
-0.115781
0.313858
-0.402470
0.328099
0.131715
0.435050
0.308027
0.038760
0.091934
-0.003460
-0.217877
-0.168222
-0.108625
0.597958
0.136333
-0.190231
-0.000185
-0.215305
0.085980
0.339308
0.138013
-0.288031
-0.423083
-0.075115
0.014980
0.325048
-0.021928
-0.115227
-0.520526
0.055847
-0.139158
-0.073981
0.471944
0.769214
0.664973
-0.192428
0.104415
0.232173
0.827948
-0.242899
0.327333
-0.252887
-0.684163
0.399342
-0.440002
-0.099319
-0.050351
0.005798
0.351318
0.183534
0.202922
-0.076855
-0.306782
0.006876
0.042348
-0.194322
-0.162540
-0.732445
-0.287932
0.006458
-0.026976
0.241049
0.256896
-0.020078
0.105260
0.110954
0.055028
-0.104730
-0.114154
0.081762
0.442410
0.028594
0.534740
0.768970
0.553876
0.201688
0.323354
-0.022171
0.141055
-0.069720
0.067416
0.079305
0.401780
-0.106226
0.016840
0.028538
-0.231583
-0.013646
0.460920
0.291484
0.351476
-0.429032
-0.238892
-0.276392
0.263059
-0.108050
-0.007832
-0.100770
-0.369705
-0.261631
-0.407742
-0.298992
0.066835
-0.170476
0.441503
-0.076084
-0.401497
-0.022990
0.254678
-0.587940
0.339848
0.031931
0.086062
-0.051492
-0.000492
0.010410
0.076938
-0.566131
-0.471814
0.337659
0.056853
0.081591
0.162954
0.223646
-0.417335
0.079553
-0.120193
0.955065
0.195926
-0.168254
0.058750
-0.120490
-0.041470
0.118776
-0.638224
-0.098506
0.233400
0.288848
0.083179
0.658349
0.291400
0.459883
0.192870
-0.195212
0.088089
0.251320
0.177151
-0.575546
0.104368
-0.470798
-0.185995
0.335194
-0.012605
-0.714016
-0.109259
0.035966
0.107896
-0.475947
0.326433
0.115266
-0.096170
0.335469
0.009228
0.117166
-0.251285
-0.026003
0.066808
0.119805
-0.064628
0.167545
-0.017275
0.034535
0.007259
-0.107289
0.394305
0.204548
0.268188
0.040682
0.342546
0.202223
0.620214
-0.466990
-0.252753
0.270179
-0.407594
-0.017194
-0.277407
-0.294275
-0.378616
0.281904
0.143445
-0.335504
0.188887
-0.135076
-0.209863
0.051544
-0.445822
-0.202966
0.331655
-0.199567
-0.494398
-0.082811
0.156897
-0.391944
0.270063
-0.057072
-0.511604
-0.013359
0.198851
0.109825
-0.280151
-0.496445
-0.191103
0.114240
-0.458869
0.152895
-0.324934
0.129908
0.599924
0.181968
0.252626
0.499507
0.148306
0.644496
-0.134406
0.204221
0.411774
-0.214323
0.335376
-0.154527
-0.379112
-0.216684
-0.054852
0.193855
0.340519
-0.008778
-0.634791
-0.472455
-0.008224
-0.082362
0.346134
-0.216678
0.150254
-0.439544
0.244894
-0.005144
0.434604
-0.118417
0.196460
-0.267608
-0.074585
0.242725
-0.258709
-0.144295
0.261448
-0.481287
-0.067852
-0.128232
0.879896
0.533281
0.333466
0.083094
0.083871
0.108702
-0.094628
0.000864
0.106799
0.793125
0.477096
0.091722
0.185438
0.369077
0.360497
-0.364231
0.308194
0.108389
-0.216635
0.262649
0.119904
0.272526
0.392688
-0.292256
0.139775
0.132704
0.138944
0.295415
-0.514414
-0.002450
0.571826
-0.548984
0.160220
-0.106174
-0.129831
-0.560419
0.565570
-0.128052
0.243006
-0.138525
-0.052065
-0.030347
-0.053637
-0.082710
-0.259852
0.527488
0.282704
0.023440
-0.046073
-0.272249
0.408493
-0.068609
-0.164355
-0.175571
-0.498693
-0.437277
-0.256265
-0.588306
0.261565
-0.277729
-0.081346
0.235046
-0.387195
-0.132095
-0.183573
-0.551327
0.062057
0.127092
0.477480
0.081006
-0.120464
-0.003907
0.153362
0.054239
-0.214812
-0.007250
-0.194122
-0.427387
-0.228870
-0.300729
-0.166164
0.004183
-0.751586
-0.087441
-0.078464
0.230986
0.127877
-0.709415
0.475949
0.591265
0.295693
0.605287
0.325684
0.280274
-0.027844
-0.363907
-0.278945
-0.682476
-0.283940
0.174174
0.189598
-0.173551
-0.041897
0.425015
-0.135930
-0.137393
0.264962
0.227345
0.072996
-0.119242
-0.075257
-0.150179
0.106141
0.270561
-0.386758
0.150458
0.203351
-0.736815
-0.186488
0.211913
0.013243
0.083276
0.696116
0.112197
-0.279533
0.070034
-0.512761
-0.230785
0.876407
0.499817
-0.453271
-0.488617
-0.194305
-0.034594
0.189871
0.434055
-0.292735
0.045586
0.473295
0.094281
-0.300260
0.346247
0.170384
0.042214
0.743748
-0.106694
0.080612
0.284499
0.526797
-0.020604
0.234861
0.484916
0.903727
0.454046
0.322757
-0.042367
0.053790
0.136928
-0.370707
-0.588867
0.299627
-0.129518
-0.043917
0.081931
-0.328102
0.243780
-0.075506
-0.431613
-0.074170
0.036181
-0.056862
0.239927
0.064661
-0.178284
0.436123
0.230254
0.028229
-0.333305
0.001716
-0.201218
0.088933
0.043565
0.120706
0.220614
0.453981
0.322529
0.277840
0.300335
-0.388906
0.001735
0.178938
0.029042
-0.042147
0.299735
-0.570146
0.643704
-0.009422
0.520032
0.309257
-0.156990
-0.145300
0.190523
0.063278
0.331457
0.245564
0.690672
0.003515
0.196892
0.034043
-0.258603
0.526000
0.135730
0.102093
0.188280
-0.101092
-0.437245
0.641646
0.514890
0.268022
0.167262
0.308101
0.050577
-0.004045
0.266129
0.040381
0.198761
0.059825
0.246380
0.185137
0.276795
0.102258
0.005285
0.008838
-0.095091
0.378915
-0.273327
0.102838
0.344253
0.347616
-0.214407
0.546803
-0.362768
-0.190745
-0.375607
-0.084597
-0.056505
0.131723
-0.055866
0.059307
0.405505
-0.126773
0.430139
-0.347397
0.159563
0.191816
-0.081065
0.035497
0.105108
-0.104543
0.325244
-0.006781
-0.049351
0.286779
0.110075
-0.017536
0.269818
0.250744
-0.415402
-0.036015
0.275307
-0.219161
-0.111342
-0.365072
-0.351872
-0.231972
-0.229776
0.351107
0.378973
-0.279808
0.036385
0.201913
0.256590
-0.122230
0.405585
-0.104707
-0.230929
-0.109126
-0.122177
-0.444569
-0.206837
-0.130581
0.304952
-0.125176
-0.045672
0.298462
0.256713
-0.146058
0.172327
-0.217641
0.098204
0.105379
0.223076
-0.029292
0.387269
0.339263
0.197899
-0.067050
0.197288
0.441549
0.249093
-0.273154
0.079123
-0.094514
0.412681
0.257778
-0.147236
-0.004247
-0.038783
0.169777
0.090033
0.181526
-0.120957
-0.232735
-0.210662
0.163352
0.092443
-0.907178
0.582761
0.129896
-0.154684
-0.276536
-0.053066
-0.115996
0.352413
0.540807
-0.015656
0.480003
0.639000
0.430536
0.637958
0.507810
-0.413053
0.411729
-0.387523
-0.008840
-0.216901
-0.408238
-0.097049
0.104223
0.165234
-0.129581
-0.830634
0.029062
-0.051798
-0.088046
-0.205619
0.156302
0.435712
0.109376
-0.183884
-0.490058
-0.025878
-0.135431
-0.250473
-0.111781
-0.138634
0.114523
-0.371926
0.064024
0.207369
0.111754
0.215072
0.351748
0.171981
0.316855
0.341963
0.157332
0.233807
0.482915
0.432189
0.321113
0.629875
0.474808
0.729461
0.264695
0.438594
0.686228
0.329833
-0.048427
0.413973
0.090005
-0.119395
-0.042914
0.632531
-0.288307
-0.019769
0.048088
-0.191002
0.029872
0.489547
0.046829
-0.238108
0.598822
0.744914
-0.183633
0.159835
0.050910
0.227183
-0.211005
0.145197
-0.127205
0.129980
-0.205217
-0.156975
-0.023660
0.154856
0.210782
0.240764
-0.147071
-0.044045
0.079148
0.260295
-0.154641
0.589985
-0.520093
-0.101177
-0.149577
-0.446186
0.190494
-0.089169
-0.007298
-0.295373
-0.181892
-0.081000
-0.294562
-0.236557
0.223727
-0.050017
-0.283899
-0.606161
-0.218954
0.000012
-0.184261
0.084121
0.262561
-0.192343
-0.046827
0.706955
0.340103
-0.185160
-0.074827
-0.107630
-0.097278
0.059902
-0.398779
0.281962
-0.154787
-0.049485
0.168027
-0.151040
-0.255704
-0.419062
0.285492
0.407310
0.148396
-0.376380
-0.160477
0.017224
0.059665
0.019157
-0.007406
-0.000965
-0.268994
-0.045135
0.540408
0.410420
-0.130250
0.121731
0.053664
0.052435
-0.142758
-0.373529
0.465507
-0.072415
0.099795
0.477643
-0.215768
0.310267
-0.104557
-0.044100
-0.103231
0.225363
0.229196
0.138147
-0.152779
0.490988
0.676964
0.467535
0.212286
-0.233142
0.277933
0.151494
0.419520
0.211788
-0.129596
0.739485
0.401793
-0.167826
-0.145880
-0.322603
0.417975
0.630463
0.180090
0.023673
-0.323542
-0.435309
0.075221
-0.367948
0.094267
0.449935
-0.114007
0.348629
0.427444
0.151210
0.146663
0.550498
0.926515
0.539758
0.998279
0.499913
0.265919
0.078564
-0.150909
0.636359
-0.132362
0.902184
0.000905
0.082652
0.340872
0.305591
0.053977
0.158252
0.192552
0.512774
0.071649
-0.486224
-0.140109
-0.321594
-0.510901
-0.196056
0.044761
-0.194653
-0.501648
0.269924
0.183247
0.586928
-0.000677
-0.142046
0.214062
0.696486
0.254690
0.185746
-0.186254
-0.148619
0.166470
0.153299
0.244092
0.028174
0.179362
0.492229
0.009123
0.238819
-0.206254
-0.378475
0.389387
0.556799
-0.023665
0.158376
0.079018
-0.114776
0.213082
0.169026
0.409108
0.564933
0.038405
0.289508
-0.486329
0.275680
-0.168958
0.439880
0.003702
0.110193
0.180276
0.313604
0.274920
0.149255
0.282298
-0.257290
0.003486
-0.392995
-0.221162
-0.589605
0.017490
0.150809
0.228898
-0.163730
-0.023502
-0.075435
-0.386315
-0.159383
-0.134142
-0.336558
-0.227601
0.253155
-0.119274
-0.301161
0.202100
-0.078236
-0.055541
-0.258508
0.075535
-0.152522
-0.152560
-0.237768
-0.026033
0.299215
-0.131421
0.092242
0.070989
0.032970
-0.016342
0.066396
0.337265
-0.189316
0.383791
-0.337326
0.228384
-0.182271
-0.279602
-0.293511
0.183003
0.156320
-0.075215
-0.107008
-0.361532
-0.256389
-0.205355
0.039001
0.091362
0.068249
-0.537282
-0.270948
-0.147322
0.038275
0.525053
-0.198877
-0.569168
-0.112056
-0.601676
0.557119
-0.451399
0.554626
0.041396
0.176595
0.590619
-0.457084
-0.078285
0.146385
-0.033267
-0.152118
-0.352638
0.159810
-0.168399
0.063084
0.399080
0.090790
0.316596
0.321435
0.018146
-0.242000
-0.014209
-0.348633
-0.504767
0.796014
-0.691475
0.082840
-0.505379
0.288858
-0.412971
-0.226693
-0.198753
0.455281
0.131759
-0.072786
-0.208594
-0.008172
0.340359
0.632757
-0.238954
0.022980
-0.114021
0.107757
-0.127068
0.281872
0.065746
0.180273
0.130683
0.028743
0.058121
0.361171
0.504646
0.267508
0.190753
0.112455
0.642432
0.407609
0.874860
0.594241
-0.400545
-0.003973
0.027071
0.370928
-0.160935
0.574153
-0.268400
0.128164
0.016536
0.356045
0.121658
-0.495319
-0.399302
-0.464812
0.061487
0.219659
0.165231
-0.260454
-0.170267
0.350739
0.342504
-0.200685
0.837064
0.712093
0.136036
-0.429865
0.162451
-0.237818
0.474222
0.249202
0.608788
0.005917
0.714582
-0.185756
0.626739
0.041823
0.411570
0.204520
0.646934
-0.119868
-0.291233
-0.023560
0.432868
0.026947
-0.248585
-0.026790
-0.017613
0.198479
-0.634671
0.081210
0.147085
0.151851
0.052550
-0.024557
-0.386515
-0.509905
0.434955
-0.266478
0.394543
-0.300603
0.396962
0.330098
-0.061789
0.124174
-0.754309
-0.391180
0.080480
0.169527
0.166879
0.018306
0.336785
0.145490
0.304426
-0.328028
-0.607430
0.043149
0.329159
-0.304358
0.053791
-0.008554
0.021437
-0.404549
-0.361485
-0.351315
-0.052511
-0.095684
-0.052903
-0.258627
0.005736
0.067369
0.445222
0.176893
0.398300
-0.309510
-0.212211
0.119198
-0.152256
-0.077250
-0.143621
-0.242989
-0.114327
-0.220387
-0.169921
-0.088155
-0.006168
-0.417049
0.151445
-0.694602
0.156790
-0.221869
-0.072923
0.164283
0.081977
-0.630732
0.425629
0.693963
-0.043846
-0.182185
0.203400
0.236626
-0.143419
0.202961
0.116075
-0.217778
-0.093202
-0.409263
-0.431159
0.508021
-0.242069
-0.011974
0.446480
-0.257801
-0.353064
0.124331
-0.124863
-0.452209
0.431034
0.137095
-0.637785
-0.206296
-0.175125
0.183393
-0.183164
0.170686
0.028822
-0.112504
0.388398
-0.434257
0.335450
0.203329
0.515041
0.119993
-0.042706
-0.082794
0.232225
-0.047897
-0.739630
-0.069382
0.006681
-0.033569
-0.045726
0.173005
-0.288747
-0.397590
-0.019523
0.042775
0.069233
-0.102924
-0.227630
-0.180107
0.132971
0.454054
-0.103438
-0.712891
0.388210
0.004887
0.031424
0.160975
0.561191
0.396521
0.022748
0.314377
0.329454
0.709645
0.768273
0.456911
0.529967
0.199133
-0.357401
-0.403008
0.175059
-0.195254
-0.196713
-0.384825
0.413992
-0.081436
0.002995
0.121225
-0.309277
0.606177
-0.143263
-0.182899
-0.630218
0.244493
-0.072505
-0.251032
-0.455647
0.498366
-0.212926
0.316261
0.171139
0.088117
0.054333
0.166321
0.767359
-0.139659
-0.059217
0.390896
0.407087
-0.238365
0.080615
0.493886
0.524067
-0.041456
0.610700
-0.375029
-0.102130
0.777530
-0.005743
-0.178377
-0.019306
0.283859
0.694009
0.056524
0.569596
-0.367051
0.320637
0.971976
0.292210
0.114496
0.170322
1.265250
0.163567
0.883077
0.891423
0.537168
0.309439
-0.007524
-0.220972
0.285429
0.137721
-0.073151
0.376506
0.022714
0.404784
0.375625
-0.014737
0.207848
-0.286334
0.352320
0.732642
0.320868
0.274405
-0.221972
0.163302
0.065389
-0.094470
-0.227222
-0.038124
-0.223446
-0.253110
-0.319033
-0.456314
0.062545
-0.374283
-0.374504
0.477991
0.086474
-0.223830
0.578662
-0.310372
0.336588
0.399986
-0.207508
0.078917
0.641934
-0.291043
0.063948
-0.001990
-0.598287
0.096645
-0.170775
0.457421
-0.381259
-0.419821
-0.207356
-0.438606
0.361076
-0.060039
0.363658
0.107273
-0.553312
-0.461610
0.140187
-0.020879
0.069509
0.036068
0.164371
-0.323701
-0.547479
0.333275
0.257429
-0.597961
0.210215
-0.018983
0.056489
-0.349821
-0.146403
-0.529352
-0.438321
0.212208
-0.429051
0.088313
-0.241728
0.130170
0.508916
0.275621
-0.045485
-0.593916
-0.459399
0.300154
0.506708
0.117014
0.349909
0.224778
0.190720
0.130191
0.336053
0.783628
0.461375
0.486934
0.107303
0.336622
-0.472947
-0.119626
-0.131702
0.016305
0.631908
-0.546097
-0.286398
-0.217383
-0.276023
-0.498403
-0.238244
0.405862
-0.219656
0.228918
-0.047210
-0.059558
-0.135309
-0.232184
-0.045776
0.240351
0.423154
0.276186
0.076331
0.244999
-0.198940
0.909087
0.485311
0.015885
0.579819
-0.291420
0.796146
0.510468
0.218463
0.091615
0.014603
0.072143
0.189065
0.546708
-0.455979
-0.811401
-0.185748
-0.260939
0.302121
-0.197975
-0.219352
0.071928
0.054134
-0.104510
0.203406
0.185907
-0.333924
0.089235
0.078206
-0.358427
-0.531952
0.289299
0.718473
-0.006232
0.591628
-0.227248
-0.235191
0.185855
0.187014
-0.307080
-0.004130
-0.087348
0.270873
-0.324247
0.415173
0.064451
0.660195
0.046460
0.308287
0.060510
0.098427
0.725495
0.568583
0.396304
0.522135
-0.105708
-0.132380
0.081089
0.010624
-0.109947
0.642701
0.448923
0.223165
0.389406
0.247038
0.403288
0.395648
-0.324517
-0.210284
-0.173082
0.165440
-0.256387
-0.313705
0.435769
1.112342
0.283644
0.401142
-0.459155
0.095513
-0.304265
-0.092749
0.017979
-0.047901
0.058288
-0.403223
0.025414
0.000451
-0.234132
0.176992
-0.416339
-0.084846
-0.046408
-0.144137
0.471011
0.366684
-0.318934
0.016151
0.432832
0.091611
0.174618
0.217129
0.603148
0.145917
0.003248
-0.194178
-0.312682
-0.499921
-0.170285
0.270799
-0.422487
-0.461224
-0.448850
-0.468646
0.008162
-0.126697
0.295761
-0.363126
0.305205
0.099275
-0.191694
0.196620
-0.633491
0.385484
-0.058893
0.326013
-0.046322
-0.281295
0.020277
0.053924
0.036917
-0.236484
-0.076751
0.121389
-0.015059
0.278723
0.079552
0.564655
0.405622
-0.106188
0.347655
0.283819
0.209746
0.395145
-0.056117
0.450795
0.248749
0.369646
0.063122
0.077686
0.010312
0.039830
0.472707
-0.064587
0.056684
-0.382349
0.896763
0.096719
-0.186684
0.401985
-0.170103
0.124592
0.082508
0.295761
0.260318
0.127004
0.098120
-0.565613
0.169590
-0.038171
0.314752
0.050657
0.210958
-0.039604
-0.010226
0.098123
-0.624301
0.085236
-0.447868
-0.460126
-0.367094
0.266508
-0.211139
0.079221
-0.169256
-0.437366
-0.045561
0.216378
0.180402
0.526811
0.539235
0.921753
0.190372
0.419987
1.500000
0.596962
0.255118
0.000865
-0.138706
0.370926
-0.025074
0.204449
-0.320609
-0.374950
-0.048958
0.181771
-0.280808
0.110942
0.055828
-0.214642
-0.259289
-0.213122
-0.197215
0.075084
0.347836
-0.255594
0.544232
-0.271918
0.431978
0.287360
-0.162313
0.439908
-0.146176
0.381357
0.112069
0.173820
0.282584
0.199936
0.244016
0.544614
0.292420
-0.044882
-0.788327
0.426078
-0.111820
0.133144
0.608882
0.106610
-0.046214
0.293538
-0.376419
-0.141246
-0.165784
-0.153212
0.252292
0.317015
-0.076527
0.846027
0.053109
-0.038586
0.423436
-0.067566
0.757854
0.333346
-0.344379
0.014324
0.110780
0.069927
0.133425
-0.268592
0.310196
0.481678
0.257448
-0.654062
0.059128
0.061860
-0.032500
0.021051
-0.129491
-0.134967
0.085499
0.254345
0.172509
-0.290433
0.058814
0.067740
-0.466211
-0.459881
-0.947823
-0.499386
0.217998
0.055868
0.371762
0.678399
0.283857
0.190598
-0.294054
-0.230029
-0.680823
0.030136
-0.340102
-0.446696
0.565028
-0.198650
0.195647
0.424537
-0.365007
-0.015969
-0.246112
-0.342055
-0.087192
-0.229993
-0.132146
0.359859
-0.090493
-0.802956
0.505112
0.296783
-0.341800
0.153702
-0.133412
-0.583010
-0.452305
-0.074750
0.483569
-0.154043
-0.109620
-0.523251
-0.226677
0.000632
-0.064527
0.039339
-0.011446
-0.281325
-0.273366
0.045156
0.417513
-0.233399
0.404720
0.201438
0.062623
0.074114
0.472265
-0.088773
0.087780
0.168756
-0.315511
-0.323098
-0.540520
0.191450
-0.185861
0.280538
0.246683
0.818539
0.254613
0.076442
-0.398120
0.093781
-0.134660
0.081073
-0.373015
0.027876
0.072635
0.403170
-0.241792
0.053404
-0.049805
0.130571
-0.116940
0.265394
-0.231038
0.559192
0.287872
0.059072
-0.103203
0.197754
0.057105
0.258064
0.036809
-0.201024
-0.258832
-0.365643
0.049903
0.082107
-0.040317
-0.096052
-0.091897
0.172368
0.080268
0.522733
-0.152044
0.809609
0.263679
0.108667
-0.173341
0.097276
0.113095
-0.178022
-0.440233
-0.725766
0.316294
0.191489
0.054738
0.826910
-0.487589
0.221883
-0.130049
-0.110499
-0.001510
-0.553259
-0.299152
0.220505
-0.782312
-0.182173
-0.204784
-0.332762
0.495107
0.469621
0.494384
0.257868
0.899155
-0.538596
-0.171420
0.102399
-0.061634
0.054729
0.294442
0.274259
-0.259898
-0.017786
0.078135
0.235309
0.337872
0.358867
-0.009465
0.121064
0.374997
0.668364
-0.187032
0.238247
-0.432084
0.185848
0.251087
0.263302
0.374101
0.008191
0.165734
0.414334
0.528311
0.303194
0.139092
0.266153
0.516375
-0.153769
0.250101
-0.296866
-0.116337
0.227114
-0.166901
0.235178
0.068236
0.020800
-0.079383
-0.044197
0.180625
-0.005614
-0.128105
-0.194154
-0.098069
0.339683
0.090114
0.312477
-0.270853
0.447797
-0.058407
0.272245
0.120923
0.033974
0.430153
0.254344
0.005344
-0.549919
0.244996
-0.315073
0.201453
0.056387
0.347400
-0.864083
-0.124598
-0.177358
-0.104372
0.080032
0.004147
-0.071460
-0.377992
0.238462
0.263141
0.053001
-0.194451
-0.558156
-0.167069
0.312233
-0.227240
-0.318526
0.235222
-0.064857
0.119004
0.001801
0.298781
-0.270501
0.314167
-0.344937
0.762696
-0.121003
0.264241
-0.463663
-0.737610
0.090535
0.031666
-0.185171
-0.060152
-0.071970
0.449907
-0.027899
0.006008
1.106675
-0.051621
-0.189045
0.168072
0.339422
-0.226689
-0.382975
0.691108
0.239094
-0.214719
0.725249
-0.156786
0.115584
-0.103435
0.373378
-0.142894
0.397987
0.602304
0.084082
0.386369
0.277743
0.533116
0.501025
-0.380778
-0.300878
0.412123
0.234884
0.344589
-0.009350
0.199371
0.599285
0.304072
-0.020974
0.169554
-0.048866
-0.554881
-0.751886
0.153037
-0.309359
-0.043093
-0.324671
0.559352
-0.255060
-0.133672
-0.191566
0.078713
0.345453
0.046579
-0.193738
-0.440139
0.699295
0.341180
0.598266
0.591158
0.899374
0.254460
0.341861
0.161116
-0.014243
0.301656
0.045679
-0.128998
0.318760
0.027993
-0.188332
-0.136084
-0.181594
0.062688
0.265654
-0.011157
-0.328169
-0.086793
-0.295126
0.271359
0.152207
-0.098183
0.485597
-0.104970
0.232692
-0.087728
-0.196797
-0.317377
-0.091729
0.054722
0.332514
-0.015687
-0.177525
-0.219874
0.150026
0.125672
0.202833
-0.546146
0.400597
0.359265
0.518793
0.312400
0.290213
-0.294300
0.030706
0.317723
0.386500
-0.008318
-0.170396
-0.079061
0.042372
0.574455
0.383702
-0.160419
0.367998
-0.180301
0.575152
0.587822
0.102210
0.550483
0.296788
0.113863
-0.167561
0.424854
0.083206
-0.007342
0.111447
0.398574
-0.299468
-0.262646
0.318956
0.022753
0.057863
0.174601
0.737679
0.440440
0.450225
-0.097488
-0.349413
0.288109
-0.037909
0.232905
0.664170
-0.149717
-0.076834
0.131737
0.082339
-0.044102
0.046437
-0.347695
0.043665
-0.250931
-0.135210
-0.156224
-0.213126
-0.131625
0.142570
-0.199467
0.427127
-0.373717
0.436609
-0.342463
0.352417
0.446417
-0.448890
-0.140018
-0.176177
0.190571
-0.039321
0.336674
0.107173
0.058020
0.034510
-0.000039
0.535678
0.166624
-0.264046
0.239684
0.261158
0.535215
0.318344
-0.187705
-0.177699
-0.403882
-0.063660
-0.017367
-0.333707
-0.099875
-0.140132
-0.099385
0.129909
-0.017802
0.044312
0.158095
0.081035
-0.137787
-0.023108
-0.273128
0.524414
0.154584
-0.474260
0.084927
-0.065907
-0.049712
0.025251
0.056958
-0.229259
-0.224952
0.354727
0.087686
0.096402
0.472758
-0.320216
0.453904
0.111763
-0.038055
0.890385
-0.540852
-0.094224
0.277524
0.374202
0.146388
0.148310
0.004425
-0.518694
0.051025
0.061797
0.083655
-0.544436
-0.106802
-0.346356
-0.542454
0.075352
0.744968
