0.010421
-0.000580
-0.027495
-0.023979
0.003279
0.003818
0.084882
0.027012
-0.015151
-0.036463
0.024872
0.075009
-0.006170
-0.028547
0.024045
0.021953
0.011583
0.080143
0.118694
0.096603
0.113290
0.019736
0.136346
0.142641
0.068752
0.146056
0.136943
0.138981
0.189977
0.202867
0.109045
0.211455
0.203180
0.227929
0.191516
0.146582
0.222329
0.252654
0.180472
0.234061
0.139334
0.166647
0.161301
0.116490
0.196112
0.149636
0.110143
0.178460
0.138277
0.079877
0.207843
0.084040
0.029276
0.013515
0.052400
0.079762
0.044236
0.072844
0.117002
0.014043
0.003908
0.039461
0.104008
-0.025945
-0.011860
-0.001001
0.053882
0.384274
0.544464
0.881933
1.259621
1.500000
1.348011
1.215433
0.895897
0.479982
0.151804
-0.017651
-0.112681
-0.069119
-0.047913
-0.039021
-0.006391
0.082285
0.083823
0.030057
0.208376
0.138649
0.086867
0.131278
0.162388
0.174757
0.223578
0.231703
0.322952
0.229107
0.373879
0.274151
0.314626
0.264010
0.428931
0.315580
0.387729
0.412820
0.515040
0.486182
0.512495
0.472063
0.527417
0.538934
0.544614
0.538855
0.636710
0.584865
0.591457
0.607253
0.509509
0.521397
0.615788
0.655881
0.527879
0.586273
0.511418
0.572117
0.506329
0.570178
0.458279
0.489819
0.414715
0.440093
0.421267
0.460589
0.421397
0.407589
0.243119
0.337685
0.321761
0.165379
0.254674
0.239508
0.331470
0.209702
0.146154
0.201619
0.248952
0.175217
0.182119
0.148681
0.106729
0.076690
0.163315
0.090845
0.086895
0.145110
0.014447
0.103595
0.115916
0.000376
0.078574
0.070267
0.085976
0.091814
0.060738
0.026802
0.064994
0.027366
0.139104
0.135328
0.128023
0.095208
0.085906
0.111451
0.090260
0.115972
0.058219
0.139892
0.207798
0.086658
0.026637
0.107429
0.114230
0.081845
0.066827
0.106154
0.083985
0.144690
0.092741
0.128373
0.147707
0.092293
0.122953
0.100289
0.130528
0.136910
0.130156
0.074057
0.105962
0.186760
0.099527
0.062899
0.158522
0.157314
0.184835
0.135009
0.216295
0.143881
0.270505
0.175445
0.224146
0.289054
0.225656
0.232951
0.269682
0.244992
0.241522
0.335708
0.259334
0.213777
0.220422
0.216929
0.315989
0.288436
0.209958
0.282963
0.182842
0.151273
0.212677
0.234884
0.180568
0.088077
0.121472
0.179859
0.070525
0.129895
0.073299
0.149974
0.096282
0.057714
0.118933
0.096594
0.070364
0.053374
0.026664
0.046866
0.091917
0.227437
0.430180
0.788346
1.090540
1.312096
1.480036
1.407964
1.016703
0.761308
0.436088
0.117321
-0.072949
-0.124174
-0.089806
0.005281
0.098460
0.037383
0.096918
0.189710
0.163430
0.160978
0.193807
0.158379
0.202453
0.210527
0.231687
0.199388
0.229700
0.244504
0.246659
0.302910
0.244732
0.354642
0.361892
0.413858
0.455515
0.360845
0.522875
0.456141
0.543356
0.479646
0.624609
0.556361
0.573208
0.547093
0.504254
0.555627
0.538704
0.539961
0.544355
0.610716
0.482901
0.638240
0.511387
0.558920
0.588967
0.541976
0.516410
0.559473
0.459475
0.474548
0.444119
0.479589
0.437835
0.387984
0.345915
0.337484
0.313887
0.316625
0.247127
0.315924
0.336603
0.217869
0.264773
0.175672
0.155434
0.166127
0.130787
0.120366
0.185554
0.198140
0.104616
0.088260
0.087897
0.114155
0.028642
0.126004
0.054673
0.084051
0.132945
0.037592
0.113955
0.037072
0.023428
0.087913
0.081645
0.033699
0.028537
0.102303
0.022879
0.158804
0.028478
0.020482
0.002001
0.050222
0.007498
0.011299
0.026865
0.095504
0.060772
0.082293
0.098124
0.051543
0.082525
0.120001
0.078178
0.097892
0.000785
-0.024612
0.088691
-0.041297
-0.019353
0.093038
0.045083
0.011202
0.094324
0.054905
0.088824
0.038246
0.056681
0.059428
0.056336
0.113616
0.100490
0.128991
0.111819
0.132096
0.131293
0.190637
0.121611
0.143906
0.271442
0.226268
0.152780
0.204240
0.203359
0.206745
0.218635
0.141385
0.194158
0.209176
0.173748
0.202351
0.129132
0.142748
0.133249
0.152906
0.055997
0.204321
0.123016
0.022722
0.125133
0.049129
0.095830
0.037113
0.063555
0.024152
0.039291
0.021039
0.029946
0.045928
0.031213
-0.078595
0.030028
-0.073828
-0.000591
-0.058464
0.001478
0.073890
0.331654
0.590748
0.825579
1.166764
1.318911
1.339781
1.198932
0.856289
0.489355
0.219072
-0.120351
-0.091914
-0.201560
-0.108125
-0.080582
-0.007215
0.034520
0.060580
-0.007907
0.077270
0.063585
0.070155
0.043847
0.107029
0.083402
0.100176
0.155717
0.136515
0.182170
0.236243
0.179349
0.202293
0.168859
0.248922
0.311586
0.289292
0.362286
0.407154
0.401464
0.390504
0.452895
0.361943
0.380172
0.442748
0.520610
0.469638
0.514637
0.442731
0.496850
0.493104
0.500458
0.468255
0.425490
0.441631
0.516652
0.432941
0.420921
0.425095
0.436427
0.449849
0.388186
0.307238
0.355783
0.283301
0.224959
0.370233
0.256212
0.251779
0.118766
0.174039
0.197410
0.202927
0.111071
0.110512
0.158230
0.052967
0.154780
-0.030635
0.037541
0.024289
0.009637
-0.035512
-0.056582
0.066622
0.071050
-0.002626
-0.026447
-0.033515
-0.008027
-0.023287
-0.013106
0.024426
-0.019749
0.033455
-0.029045
-0.066885
-0.031476
-0.022187
-0.022904
-0.008841
-0.032144
-0.059255
-0.020714
-0.049213
-0.074629
-0.057212
-0.011622
-0.053671
-0.022744
-0.013449
-0.070529
-0.026665
-0.083302
-0.014891
-0.040727
-0.075544
-0.109489
-0.026006
-0.074961
-0.023069
-0.127163
-0.070260
-0.050271
-0.053385
0.029610
-0.021916
-0.046666
-0.065385
0.020880
0.044765
0.097819
-0.020209
-0.018063
0.023944
0.006013
-0.060731
0.059030
0.042457
0.145411
0.119463
0.099258
0.052695
0.124494
0.135596
0.170467
0.094250
0.142829
0.137890
0.161242
0.092857
0.053185
0.118947
0.079640
0.131913
0.046785
0.082109
0.098821
0.034411
0.036814
0.073896
0.084048
0.060751
0.048862
-0.002288
-0.016866
0.023077
0.012556
-0.117409
-0.006740
-0.050427
-0.013137
0.025692
-0.074200
0.051537
-0.063344
-0.044235
-0.087422
-0.077143
0.110548
0.322781
0.609883
0.994817
1.280699
1.325181
1.345627
0.937034
0.625420
0.386849
0.010879
-0.169222
-0.174249
-0.185057
-0.091881
-0.054446
0.056077
0.060666
0.051783
-0.005731
0.069978
-0.007425
0.021823
0.056398
0.162669
0.123839
0.171403
0.106245
0.142556
0.201208
0.238130
0.274411
0.117688
0.244462
0.285033
0.263577
0.376078
0.178957
0.361833
0.433873
0.479638
0.405502
0.426090
0.399591
0.480167
0.478343
0.450554
0.376351
0.404901
0.518493
0.485444
0.487754
0.500834
0.545100
0.444508
0.432143
0.438326
0.436311
0.502700
0.428688
0.343343
0.391372
0.334138
0.272653
0.329877
0.307643
0.288571
0.228947
0.235734
0.281561
0.156646
0.189625
0.158314
0.133530
0.155555
0.065832
0.103804
0.060365
0.118326
-0.025313
0.077509
-0.056507
0.076701
-0.041540
-0.004928
-0.012457
0.026940
-0.003552
0.057556
0.098181
-0.014622
0.042987
0.009440
-0.037428
-0.075288
0.004575
-0.043007
-0.008473
-0.012347
0.056769
-0.075131
0.026982
0.019454
-0.044950
-0.089707
0.023887
0.095055
0.030315
0.053236
-0.048068
0.001889
0.020073
0.007523
0.054163
0.076261
0.016931
-0.031194
0.009912
0.047752
-0.026057
-0.036508
-0.003523
0.004732
0.005121
0.047128
0.066835
-0.023016
0.020614
-0.015565
-0.003244
0.051672
0.046388
0.028635
0.088644
0.121714
0.048630
0.083152
0.136964
0.122255
0.135226
0.183531
0.213168
0.158370
0.078312
0.154575
0.105105
0.219235
0.271598
0.314183
0.261017
0.221672
0.223440
0.217914
0.252850
0.220682
0.196189
0.204154
0.122142
0.083556
0.150536
0.160229
0.081391
0.111800
0.152498
0.016479
0.113196
0.043009
0.030861
0.026390
-0.126364
0.131578
0.019025
0.011433
0.132512
0.025256
0.088177
0.004548
0.048651
0.104520
0.318301
0.466259
0.826156
1.091508
1.394313
1.353605
1.218662
0.984088
0.662843
0.269410
-0.082201
-0.072013
-0.125086
-0.042485
-0.022115
0.067502
0.081734
0.148221
0.095970
0.194877
0.082356
0.194018
0.116966
0.206393
0.152543
0.163328
0.199392
0.229155
0.252688
0.288403
0.258208
0.178923
0.411408
0.281717
0.386277
0.389793
0.386072
0.415446
0.508984
0.560816
0.531595
0.476273
0.606694
0.590057
0.584906
0.558860
0.587467
0.632958
0.588418
0.653252
0.650120
0.572886
0.623433
0.651550
0.665784
0.577623
0.509649
0.560477
0.467089
0.484205
0.535135
0.514737
0.399911
0.443675
0.284475
0.333940
0.369524
0.216390
0.321140
0.315508
0.305411
0.197761
0.278680
0.269782
0.240202
0.165684
0.156831
0.234173
0.178424
0.160449
0.134493
0.185344
0.142749
0.120166
0.216677
0.173394
0.144268
0.027191
0.019198
0.059679
0.030673
0.134885
0.075268
0.068198
0.108319
0.052781
0.099260
0.061747
0.112794
0.171279
0.170547
0.065467
0.038587
0.137245
0.044221
0.054556
0.063375
0.124854
0.033587
0.098178
0.136951
0.133424
0.099764
0.061173
0.174785
0.037099
0.060136
0.110101
0.039180
0.121741
0.136381
0.136144
0.137047
0.077265
0.123321
0.090358
0.108457
0.083560
0.094962
0.191532
0.175891
0.123358
0.177673
0.174144
0.204922
0.147241
0.163490
0.151304
0.178338
0.258729
0.226084
0.279814
0.314104
0.299150
0.203408
0.268071
0.249320
0.305094
0.218422
0.270786
0.310353
0.210685
0.254535
0.247468
0.232355
0.264548
0.233079
0.227792
0.245944
0.196804
0.207908
0.139880
0.196131
0.225248
0.092573
0.190436
0.082981
0.138747
0.115583
0.107490
0.140011
0.123437
0.007736
0.176734
0.061559
0.086618
0.136867
0.141470
0.201107
0.427685
0.664519
1.027838
1.300232
1.417533
1.475351
1.160059
0.935119
0.439696
0.218211
-0.008998
-0.090144
-0.036601
-0.109729
0.117019
0.004481
0.116434
0.139199
0.169403
0.163651
0.149249
0.173162
0.236596
0.240551
0.245775
0.233695
0.275206
0.293802
0.318083
0.298514
0.367626
0.269687
0.360953
0.414022
0.412238
0.491795
0.378363
0.403997
0.434345
0.524787
0.494456
0.494501
0.559097
0.568909
0.648158
0.575952
0.557949
0.610193
0.619325
0.467704
0.608567
0.566557
0.562220
0.539118
0.539709
0.520589
0.502244
0.539344
0.477143
0.495898
0.523243
0.360821
0.472517
0.389941
0.335881
0.385940
0.319593
0.324578
0.250129
0.268605
0.311092
0.312782
0.260485
0.124566
0.183510
0.177888
0.186232
0.116693
0.199429
0.077106
0.077075
0.159388
0.186318
0.129015
0.127092
0.075519
0.032857
0.048417
0.118168
0.096143
0.085388
-0.006758
0.115520
0.098221
0.060442
0.009772
0.070971
0.113335
0.114061
0.009055
0.079194
0.094745
-0.004793
0.028056
0.049647
0.132128
0.008016
-0.062748
0.115993
0.005923
-0.025896
-0.020289
-0.039978
0.096949
0.103577
0.071238
0.064471
0.103718
0.020143
0.064134
0.035836
0.008675
-0.010212
-0.005187
-0.002513
0.024390
0.141833
0.033035
0.140178
0.050662
0.044518
0.162276
0.122517
0.105341
0.101003
0.214324
0.070083
0.149811
0.123470
0.156960
0.164526
0.170119
0.172149
0.216937
0.208791
0.283560
0.262304
0.249431
0.234892
0.150295
0.207201
0.116040
0.210672
0.198166
0.121693
0.199483
0.179141
0.216138
0.091726
0.121490
0.150207
0.040749
0.123450
0.026000
0.016623
0.046725
-0.047380
0.045994
0.044225
0.006892
0.084125
-0.076123
-0.048929
0.085535
-0.004711
-0.062737
-0.025335
0.097270
0.225399
0.531655
0.750282
1.044288
1.305840
1.436350
1.270251
0.909443
0.675274
0.239565
0.020381
-0.221171
-0.211275
-0.109342
-0.162013
-0.053696
0.030937
0.011772
0.030362
0.074440
0.080382
0.103854
0.124290
0.158822
0.101741
0.124422
0.237971
0.237858
0.193287
0.206203
0.188260
0.267252
0.164679
0.280238
0.297991
0.325365
0.320498
0.324072
0.335378
0.424003
0.381824
0.417217
0.431585
0.478713
0.414691
0.521235
0.463680
0.580267
0.500967
0.509950
0.586364
0.548472
0.458403
0.528116
0.544107
0.483764
0.448158
0.451907
0.420547
0.388114
0.366637
0.318722
0.324659
0.365566
0.259109
0.225497
0.256538
0.191094
0.152867
0.306379
0.153296
0.100565
0.187834
0.161309
0.115995
0.077516
0.051098
0.033068
0.055878
-0.021648
-0.008910
-0.030457
0.011691
-0.045203
-0.025000
-0.098394
0.062777
-0.036927
-0.029177
0.017775
-0.050985
-0.022979
-0.039396
-0.089447
-0.062802
-0.029170
-0.050959
-0.078735
-0.036308
-0.031187
-0.052181
-0.160381
-0.158688
-0.087734
0.000813
-0.154348
-0.066996
-0.003003
-0.028064
-0.032598
-0.109940
-0.058612
-0.069507
-0.016346
-0.144565
-0.050082
-0.025470
-0.020877
-0.100446
-0.060706
-0.059777
-0.063621
-0.041981
-0.066214
-0.108455
-0.090972
-0.015995
0.025134
-0.082478
-0.059403
-0.012789
-0.052369
0.004775
0.027280
0.058364
0.038634
-0.016952
0.023801
0.039181
0.075921
0.075530
0.142166
0.082014
0.115229
0.073400
0.105344
0.099679
0.058044
0.144909
0.077684
0.089288
0.151187
0.069305
0.053306
0.007528
0.094124
0.014394
0.075176
0.049635
0.058338
0.033419
0.061285
0.063165
-0.014290
-0.054811
-0.048312
-0.074459
-0.084933
-0.032255
-0.067733
-0.067980
-0.080817
-0.076501
-0.095063
-0.002182
0.035251
-0.100028
-0.063854
0.127083
0.149226
0.405041
0.798887
1.133378
1.188001
1.321973
1.080637
0.734371
0.412850
0.069917
-0.162838
-0.262629
-0.360769
-0.218815
-0.129173
-0.143403
-0.067538
-0.014387
-0.032109
-0.045379
0.035932
0.030855
0.092542
0.083488
0.093689
-0.009586
0.098444
0.145362
0.061232
0.151506
0.161186
0.244722
0.224995
0.199381
0.224174
0.247536
0.329959
0.327869
0.317550
0.308997
0.361879
0.463559
0.323566
0.341999
0.383127
0.485523
0.428061
0.455725
0.375919
0.413594
0.501698
0.472255
0.494030
0.411207
0.385458
0.370186
0.400534
0.330925
0.392956
0.351768
0.357766
0.327147
0.339947
0.252968
0.300205
0.188315
0.304886
0.164915
0.135504
0.087670
0.131459
0.159491
0.238667
0.082523
-0.004691
-0.016693
-0.016706
-0.024201
0.071809
0.047776
-0.020082
0.016887
-0.046341
-0.011575
-0.058781
-0.051389
0.037563
0.026768
-0.105570
-0.166226
-0.021869
-0.051287
-0.036273
-0.114424
-0.119227
0.011897
-0.146533
-0.070393
-0.020426
-0.014866
-0.001922
-0.068827
-0.075237
0.020792
-0.080646
-0.040804
-0.047704
-0.021132
-0.014747
-0.067646
-0.081114
-0.083883
-0.017940
-0.033613
-0.137985
-0.009355
-0.057155
-0.051722
-0.048948
-0.132215
-0.040535
-0.085606
0.051676
0.005827
-0.039666
-0.074761
-0.021040
-0.006925
-0.002021
-0.047370
0.065856
-0.073736
-0.003248
-0.061358
-0.036533
-0.001277
-0.038670
0.032753
0.052920
0.039922
0.018290
0.131152
0.185568
0.030185
0.151829
0.132667
0.182338
0.160170
0.151432
0.118660
0.104328
0.170555
0.132415
0.077354
0.014086
0.082630
0.166244
0.073187
0.047920
0.131981
0.030391
0.029822
-0.056338
0.030094
0.014745
0.008884
-0.003389
0.038568
-0.047279
0.032877
0.030075
-0.007127
-0.016099
-0.065894
-0.015169
0.038561
-0.037620
0.057357
0.063241
0.304267
0.649190
0.987778
1.282305
1.370286
1.274992
1.040939
0.582590
0.350655
0.090798
-0.245067
-0.231355
-0.111068
-0.118902
-0.033133
-0.042302
-0.087186
-0.053701
-0.081580
0.003905
0.081496
0.043000
0.103129
0.078104
0.151802
0.027012
0.084928
0.136025
0.136173
0.299457
0.315451
0.204252
0.247705
0.247813
0.245111
0.383832
0.416187
0.339440
0.406418
0.431616
0.411913
0.494088
0.457565
0.458562
0.508564
0.407448
0.538598
0.541821
0.581900
0.521005
0.500934
0.518007
0.519786
0.537317
0.512585
0.485834
0.419913
0.475966
0.462986
0.409699
0.420478
0.403746
0.378879
0.378681
0.353246
0.386489
0.272059
0.274587
0.257655
0.192383
0.258391
0.145185
0.145252
0.101403
0.184521
0.191037
0.066991
0.126315
0.111339
-0.014013
0.142992
0.021190
0.098610
0.092837
0.028533
0.005784
-0.032681
0.071071
0.053545
0.020451
0.068070
0.006862
0.030858
-0.000595
0.031045
0.050359
0.043004
0.050067
0.039315
0.017269
0.079055
-0.073013
0.034379
0.124872
0.071307
0.036185
0.062889
0.068462
-0.035994
0.028477
-0.089256
-0.000023
0.095773
-0.018253
-0.001633
-0.032706
0.035655
0.056734
-0.010320
0.069164
0.011138
0.071508
0.019712
0.089015
0.013826
0.007740
0.082504
0.022877
0.084685
0.040399
0.118436
0.190918
0.168637
0.155507
0.122952
0.093553
0.078939
0.208150
0.174405
0.203965
0.206825
0.147292
0.140201
0.216897
0.211948
0.177370
0.209291
0.235414
0.206691
0.238724
0.204783
0.217914
0.186136
0.205199
0.182595
0.120757
0.128708
0.199190
0.153475
0.118570
0.083342
0.111667
0.134622
0.164807
0.097686
0.111587
0.085133
0.051689
0.133516
0.086017
0.072347
0.042660
0.059978
0.122262
0.038671
0.101581
0.050675
0.211968
0.275301
0.557341
0.873347
1.159832
1.346018
1.320067
1.257654
0.999679
0.540871
0.164503
0.051459
-0.091156
-0.149636
-0.095703
-0.055999
0.131299
0.163017
0.098762
0.182819
0.122215
0.111763
0.067285
0.151911
0.200552
0.145449
0.264603
0.197293
0.179437
0.335288
0.251353
0.279967
0.332297
0.314647
0.357569
0.368407
0.401071
0.358415
0.446400
0.380627
0.502660
0.468207
0.433065
0.514190
0.599459
0.482151
0.570449
0.622716
0.663632
0.550678
0.559898
0.593258
0.569934
0.599797
0.507551
0.476216
0.540084
0.528970
0.477513
0.511310
0.465370
0.425639
0.481080
0.398269
0.399913
0.397454
0.329006
0.289557
0.315905
0.241798
0.276404
0.233845
0.209686
0.104425
0.211235
0.167795
0.111625
0.111136
0.179756
0.059561
0.056892
0.054717
0.106830
0.212361
0.095166
0.039424
0.101079
0.107455
0.051407
0.115651
0.025741
0.031229
0.094072
-0.026540
-0.027651
0.108790
0.033677
-0.047825
0.002201
0.044574
-0.015921
0.002685
0.048768
-0.012548
0.032224
0.004769
0.034266
0.041592
0.041245
0.079888
0.057688
0.097398
-0.084648
0.024526
0.031248
0.076982
-0.015113
-0.001873
0.033961
0.120991
0.047681
0.130237
0.018553
0.021216
0.066268
0.018954
0.088309
0.084765
0.116491
0.112470
0.059202
0.072610
0.017294
0.058402
0.074174
0.115260
0.120330
0.058730
0.130453
0.120352
0.158522
0.140844
0.176980
0.137930
0.254434
0.242088
0.144136
0.255280
0.236495
0.227049
0.215132
0.147689
0.253286
0.244879
0.209257
0.085352
0.149895
0.134961
0.064058
0.028469
0.055809
0.067547
0.125989
0.044415
0.021628
0.079354
0.048271
-0.024384
0.057179
-0.039783
0.023119
0.088931
0.071146
0.014167
0.058086
0.036892
0.061241
-0.038337
-0.029364
0.175132
0.314292
0.567834
1.031252
1.252615
1.318522
1.342361
1.031141
0.705887
0.301498
-0.002417
-0.199794
-0.265393
-0.141271
-0.065069
-0.045884
0.062760
0.019469
0.079041
-0.038798
0.086065
0.088227
0.146343
0.035771
0.124643
0.132625
0.124975
0.086625
0.140444
0.188256
0.107703
0.267240
0.175203
0.304113
0.253564
0.409326
0.310934
0.351366
0.319932
0.271327
0.388839
0.415102
0.394786
0.458815
0.529990
0.462373
0.461800
0.504392
0.465310
0.454723
0.447400
0.538769
0.587516
0.505268
0.470119
0.445271
0.501881
0.310300
0.390030
0.235370
0.323373
0.404402
0.349386
0.304535
0.295840
0.203912
0.248330
0.278746
0.200868
0.166723
0.232752
0.147886
0.122041
0.061409
0.111307
0.047230
0.045691
0.117619
0.008921
0.035562
-0.066448
0.044696
0.021535
-0.102242
0.064215
-0.025649
-0.012968
-0.028734
-0.081315
0.002806
-0.115159
0.008879
0.014740
-0.099039
0.030158
-0.034419
-0.061227
-0.032203
-0.090592
-0.085794
-0.082593
-0.131113
-0.067202
-0.137685
-0.110053
-0.054419
-0.054147
0.014299
-0.105409
-0.030614
-0.099728
-0.030289
-0.008638
-0.101468
-0.120971
0.015503
-0.087630
-0.125028
-0.117636
-0.022552
-0.039230
-0.088582
-0.101519
-0.013233
-0.075062
-0.142522
-0.048289
-0.114749
-0.046043
-0.074144
-0.021227
-0.075660
-0.021237
0.009288
-0.022177
0.004878
-0.033296
0.017293
0.023090
0.015096
0.040064
0.094600
0.095854
0.032617
0.001909
0.095550
0.054960
0.095537
0.061346
0.117784
0.169941
0.055187
0.022744
0.047983
0.094675
0.090763
0.030469
0.015394
0.032993
-0.004631
-0.007202
0.044329
-0.034774
-0.103882
-0.002194
-0.102761
0.016448
-0.115866
-0.000737
-0.061129
-0.045164
-0.054816
-0.045927
-0.046237
-0.076610
-0.110256
-0.116549
-0.098320
0.037040
0.200628
0.332661
0.632381
0.982979
1.232700
1.292547
1.212490
0.911222
0.598799
0.097080
-0.174141
-0.207184
-0.320630
-0.275975
-0.199623
-0.118712
-0.103317
-0.037423
0.013081
-0.064928
-0.096190
-0.046320
-0.082907
-0.030335
-0.085008
0.064500
0.051516
0.123077
0.155343
0.152783
0.242050
0.100516
0.179639
0.192748
0.257026
0.182375
0.236264
0.171949
0.292963
0.290086
0.380435
0.255673
0.277074
0.354190
0.307805
0.433248
0.462659
0.380619
0.461389
0.461893
0.430052
0.483516
0.441964
0.460279
0.385384
0.423823
0.333091
0.284536
0.329132
0.305056
0.256326
0.316859
0.231182
0.179575
0.261201
0.067289
0.236528
0.157679
0.254234
0.041638
0.077774
0.014266
0.008892
-0.000006
0.020892
0.066870
-0.020517
-0.009591
-0.053803
-0.124056
-0.017364
0.007244
-0.055899
0.003238
-0.046039
-0.010468
-0.065311
-0.067610
-0.104927
-0.055149
-0.112482
-0.016146
-0.099869
-0.024297
-0.069415
-0.101769
-0.120736
-0.115044
-0.109485
-0.039540
-0.066926
-0.124525
-0.015817
-0.116612
-0.069604
-0.055371
-0.079501
-0.066705
-0.144505
-0.103751
-0.016897
-0.115572
-0.104644
-0.136277
-0.100565
-0.162984
-0.097878
-0.070431
-0.115650
-0.133536
-0.095838
-0.080073
-0.024288
-0.105603
-0.051321
-0.093999
-0.010450
-0.069440
-0.068979
-0.025163
-0.035444
-0.046323
-0.121556
0.054302
-0.019029
-0.044203
0.037288
0.025610
0.061741
0.061397
0.053216
0.014418
0.038094
0.078284
0.044187
0.085796
0.072603
0.065375
0.073653
0.160029
0.051748
0.116617
0.081471
0.051517
0.149304
0.074231
0.094094
0.073763
-0.023160
0.076436
0.054705
-0.006958
0.000162
0.007445
-0.011009
0.005764
-0.043463
-0.019812
-0.038448
-0.047043
-0.029725
-0.100933
-0.106669
-0.050840
0.016379
-0.021398
-0.049351
0.057138
0.101862
0.230915
0.551325
0.898622
1.043888
1.302797
1.339456
1.023897
0.734294
0.306167
0.034198
-0.178165
-0.206381
-0.180638
-0.121976
-0.008367
-0.155829
-0.047013
-0.081952
0.038018
0.067794
0.043461
0.088389
0.009445
0.016153
0.082269
0.125153
0.143725
0.078210
0.137640
0.212414
0.116637
0.238603
0.240534
0.275531
0.251141
0.398992
0.342713
0.323561
0.425492
0.381377
0.370366
0.438783
0.418748
0.363923
0.491313
0.418986
0.489717
0.497681
0.521040
0.498145
0.448647
0.441314
0.467738
0.461878
0.450412
0.524449
0.472966
0.531295
0.452346
0.394957
0.321996
0.390860
0.371606
0.280597
0.316914
0.304950
0.271684
0.173392
0.213339
0.205727
0.138517
0.195885
0.142109
0.135421
0.098371
0.114463
0.087765
0.094865
0.067598
0.054950
0.085371
0.104911
0.070377
0.027234
0.026891
-0.055402
0.082944
0.031348
-0.044597
-0.012541
0.017790
-0.029039
0.022707
0.035083
-0.049679
0.009155
0.004342
-0.060402
0.002494
-0.086383
-0.032061
0.018401
-0.024438
0.017146
-0.022645
0.060136
-0.041196
-0.046485
0.020195
0.001592
-0.042660
-0.008461
0.003571
0.038407
-0.031573
0.078287
0.040455
0.022387
-0.003979
0.109372
-0.001331
-0.088487
0.015018
0.087005
0.131138
0.105568
0.029287
0.014041
0.061103
0.096453
0.140917
0.080929
0.143711
0.161213
0.015815
0.119488
0.171687
0.262364
0.124993
0.167695
0.152856
0.111990
0.242154
0.166987
0.156962
0.182063
0.222680
0.189538
0.212997
0.207509
0.191265
0.254941
0.274766
0.211746
0.160674
0.170008
0.158182
0.202223
0.102271
0.087816
0.064853
0.033334
0.088319
0.103615
0.080915
0.146111
0.040278
0.009691
0.082976
0.101282
0.048093
0.092219
0.017862
0.017647
0.033774
0.049737
0.035459
0.085390
0.283714
0.514251
0.723504
1.114655
1.283732
1.357116
1.276239
1.090905
0.606029
0.366020
0.041988
-0.102156
-0.039892
-0.086972
-0.057544
0.014769
0.004606
0.100098
0.045035
0.128379
0.230833
0.181802
0.257739
0.199878
0.186340
0.182335
0.290660
0.237356
0.226598
0.226321
0.289941
0.290942
0.269442
0.296580
0.285473
0.361686
0.400379
0.430411
0.340044
0.463369
0.583978
0.530866
0.513705
0.525330
0.564978
0.571306
0.550867
0.620206
0.612785
0.577223
0.519417
0.469039
0.601574
0.589570
0.590125
0.520931
0.575178
0.452182
0.638809
0.443267
0.446751
0.489825
0.423610
0.402686
0.407247
0.423919
0.343999
0.423904
0.391663
0.207069
0.304988
0.291223
0.294463
0.196949
0.169357
0.219163
0.221694
0.157709
0.115260
0.115504
0.205725
0.118668
0.138737
0.109966
0.155872
0.159375
0.091156
0.080874
0.020487
0.021469
0.045039
0.046344
0.130533
0.157785
0.174419
0.044427
0.120340
0.127502
-0.006885
0.049507
0.062369
0.061991
-0.008616
0.141685
0.125061
0.035660
0.045755
0.100567
0.072971
0.083883
0.089654
0.011461
