0.048382
0.036137
-0.044744
0.029829
-0.053658
0.016907
-0.076810
0.059325
0.048310
0.006300
0.023462
-0.059149
-0.059218
0.004718
-0.015320
0.065885
0.064116
0.037920
-0.041215
0.032906
0.032033
0.007891
-0.008417
-0.004730
-0.009590
-0.016024
0.042672
0.075686
0.105280
0.040210
0.024696
0.047197
0.099536
0.069680
0.119982
0.144984
0.169075
0.218501
0.189296
0.171855
0.231444
0.198023
0.134826
0.200450
0.221987
0.187097
0.198858
0.245305
0.177054
0.305275
0.196856
0.139603
0.195524
0.158871
0.222714
0.085918
0.174674
0.105023
0.085755
0.109431
0.073433
0.134812
0.186903
0.134431
0.108902
0.090572
-0.002222
0.044417
0.032448
0.079771
0.005332
-0.000874
0.019563
0.029470
-0.047816
0.062761
0.036262
-0.007451
0.071549
0.017616
0.030226
0.042697
-0.031334
0.059997
0.127209
0.289513
0.551098
0.924403
1.111052
1.345316
1.459836
1.278985
0.975558
0.718089
0.233837
-0.009430
-0.106034
-0.160436
-0.177948
-0.096522
-0.122502
-0.041040
0.023965
-0.009044
0.065742
0.046258
0.157256
0.131996
0.075551
0.035817
0.024223
0.160514
0.138000
0.100490
0.159704
0.116527
0.162148
0.122415
0.207100
0.212933
0.146126
0.233941
0.223709
0.236387
0.359888
0.303320
0.245705
0.287674
0.372980
0.386750
0.299271
0.350120
0.385790
0.460165
0.487634
0.464379
0.529907
0.443816
0.479089
0.563006
0.484165
0.564483
0.558935
0.503766
0.520278
0.569459
0.581081
0.536338
0.560472
0.577842
0.544447
0.482026
0.603821
0.532554
0.538704
0.538983
0.536034
0.451699
0.480230
0.393350
0.348440
0.495660
0.409469
0.330170
0.287021
0.344776
0.287495
0.196254
0.213605
0.169494
0.104709
0.212477
0.158333
0.098199
0.156164
0.079192
0.137854
0.151556
0.143418
0.093512
0.212126
0.132920
0.074667
0.055880
0.117018
0.146740
0.089986
0.018991
0.174858
0.055618
-0.008939
-0.011755
0.134525
0.147153
0.120084
0.134823
0.165387
0.161832
0.098744
0.031484
0.089222
0.052962
0.078616
0.085291
0.069474
0.088210
0.116231
0.048415
0.098396
0.032280
0.184933
0.060134
-0.024989
0.117785
0.155770
0.110692
0.032084
0.136259
0.033208
0.069804
0.041509
0.035290
-0.002987
0.054123
0.001706
0.100625
0.062576
0.094615
0.106679
0.107596
0.024477
0.017182
0.096224
0.031938
0.129193
0.050647
0.106545
0.103216
0.102441
0.088142
0.057766
0.032414
0.193331
0.056467
0.060199
0.106468
0.090023
0.096030
0.128109
0.038830
0.172817
0.131582
0.120713
0.081219
0.108188
0.226540
0.128078
0.245134
0.192524
0.152873
0.196282
0.264040
0.300974
0.183300
0.267175
0.240349
0.263758
0.242717
0.243155
0.239098
0.221264
0.231120
0.263265
0.237360
0.207566
0.178254
0.171626
0.171750
0.222595
0.163719
0.189711
0.061850
0.166447
0.150765
0.081665
0.091526
0.118518
0.146418
0.126377
0.069974
0.108650
0.050727
0.086637
0.092121
0.038220
0.102516
0.055228
0.022885
0.015353
0.031037
0.114598
0.049314
-0.065072
0.069769
0.033115
-0.041090
-0.055256
0.045099
0.087320
0.320186
0.589962
1.001524
1.329812
1.438448
1.401949
1.288835
0.911718
0.649569
0.283342
-0.029849
-0.176123
-0.098752
-0.191611
-0.078593
-0.033231
-0.016779
0.027640
-0.005943
0.055494
0.047419
0.092455
0.090063
0.014554
0.071256
0.092252
0.167659
-0.000328
0.173418
0.133526
0.169242
0.112235
0.133011
0.111494
0.089105
0.176748
0.220872
0.219246
0.148102
0.277249
0.290089
0.233801
0.371662
0.287636
0.392544
0.267667
0.273667
0.358812
0.399264
0.387982
0.440530
0.390351
0.463266
0.468274
0.471253
0.432043
0.532559
0.564656
0.493432
0.532755
0.503038
0.566109
0.516920
0.472105
0.584274
0.529555
0.520366
0.533860
0.465147
0.460893
0.377468
0.433795
0.417447
0.378094
0.359376
0.349806
0.331333
0.236631
0.273891
0.301200
0.209045
0.225936
0.166212
0.270375
0.225734
0.127458
0.176034
0.197838
0.091014
0.076684
0.094162
0.047473
0.104047
0.030556
0.151567
0.051557
0.030353
0.030351
0.021169
0.097579
-0.101127
0.000000
0.000000
0.000000
0.000000
0.000000
0.000000
0.000000
0.000000
0.000000
0.000000
0.000000
0.000000
0.000000
0.000000
0.000000
0.000000
0.000000
0.000000
0.000000
0.000000
0.000000
0.000000
0.000000
0.000000
0.000000
0.000000
0.000000
0.000000
0.000000
0.000000
0.000000
0.000000
0.000000
0.000000
0.000000
0.000000
0.000000
0.000000
0.000000
0.000000
0.000000
0.000000
0.000000
0.000000
0.000000
0.000000
0.000000
0.000000
0.000000
0.000000
0.000000
0.000000
0.000000
0.000000
0.000000
0.000000
0.000000
0.000000
0.000000
0.000000
0.000000
0.000000
0.000000
0.000000
0.000000
0.000000
-0.026600
-0.042693
-0.027179
-0.037949
0.004110
0.056251
0.037201
0.129415
0.046013
0.150139
0.033668
0.143973
0.182989
0.192484
0.150642
0.125852
0.082299
0.149881
0.084399
0.142308
0.062173
0.180379
0.069243
0.138901
0.096900
0.097283
0.050345
0.013375
0.029748
0.010419
0.091350
0.002783
0.016421
0.018363
-0.024810
-0.031736
0.109324
-0.075009
-0.042814
-0.052064
-0.072329
0.024259
-0.045842
-0.041139
-0.012637
-0.053453
-0.077159
-0.032998
-0.036254
-0.042195
-0.120287
-0.127602
-0.050361
-0.059721
-0.121847
-0.083754
0.055098
0.204156
0.512839
0.850920
1.156161
1.402170
1.295672
1.140545
0.811843
0.447816
0.156469
-0.119378
-0.207913
-0.334364
-0.288312
-0.206892
-0.141534
-0.064187
-0.115641
-0.017039
-0.008204
0.017582
0.004118
-0.022401
0.051670
0.029181
-0.002234
-0.009946
0.030525
-0.030076
-0.016019
0.065348
0.105491
0.022920
0.016091
0.048222
-0.048827
0.137775
0.047168
0.095011
0.102955
0.286288
0.065870
0.224023
0.239177
0.200863
0.285991
0.308523
0.240064
0.332204
0.360869
0.433173
0.372834
0.389154
0.441447
0.430141
0.448033
0.481348
0.463372
0.537438
0.482166
0.480545
0.474928
0.418294
0.411210
0.485686
0.415015
0.362930
0.392675
0.342319
0.352800
0.391780
0.334478
0.390095
0.313793
0.292680
0.240056
0.238077
0.295435
0.214547
0.196859
0.166299
0.172922
0.249148
0.172211
0.007673
0.068482
0.116867
0.098324
0.047853
0.008731
0.026930
0.065669
0.031521
0.041119
-0.009472
-0.029676
0.011708
0.038249
-0.088850
-0.062897
-0.010020
-0.001465
-0.022236
-0.023231
-0.063937
-0.077729
-0.083075
-0.040550
0.077322
-0.033800
0.023278
-0.057904
-0.003680
-0.057526
0.002777
-0.038859
-0.003457
-0.032298
-0.034845
-0.058104
0.005684
-0.035094
0.006696
-0.006846
0.017713
0.025299
-0.030778
-0.158524
0.037342
-0.081177
-0.047863
-0.026174
-0.013155
-0.060945
0.046270
-0.023618
-0.111606
0.073516
-0.017429
-0.052666
0.106653
-0.051084
-0.018083
-0.044158
-0.041308
-0.037991
-0.054543
-0.023762
0.009480
-0.058238
0.000560
0.053192
-0.047571
-0.024839
0.031250
-0.021999
0.006650
-0.031104
-0.017228
-0.044136
0.066455
-0.029206
0.005957
0.019492
0.020409
0.021494
0.095315
0.056230
0.048128
0.049129
0.163243
0.092459
0.103958
0.080151
0.111871
0.156731
0.053526
0.109037
0.162358
0.182147
0.186872
0.218321
0.197824
0.121503
0.202779
0.138324
0.291767
0.212161
0.084902
0.195222
0.158896
0.163557
0.118993
0.118503
0.004132
0.098400
0.130096
0.088899
0.055985
0.111550
0.076646
0.038266
0.056386
0.076730
0.025470
0.016443
-0.007548
0.051050
0.084879
0.125743
0.026086
0.036260
0.083944
-0.035277
-0.017561
0.020397
-0.028732
0.004838
-0.026882
0.062389
-0.002816
-0.004782
-0.001759
0.133000
0.415440
0.646362
1.010338
1.252848
1.386000
1.378779
1.174763
0.924372
0.518641
0.198946
-0.025192
-0.200731
-0.264153
-0.291371
-0.068489
-0.024318
-0.067828
0.075151
0.048302
0.055843
0.129668
0.008124
0.037567
0.090120
0.164212
-0.001689
-0.040245
0.078668
0.015149
0.142913
0.069626
0.113529
0.122156
0.145272
0.207961
0.129501
0.189121
0.260380
0.186992
0.282896
0.254927
0.252429
0.339900
0.365140
0.383990
0.426018
0.350243
0.370782
0.412750
0.436395
0.346988
0.499641
0.550685
0.538158
0.480545
0.523215
0.538609
0.604745
0.563494
0.519437
0.497202
0.556020
0.588015
0.571482
0.519385
0.565959
0.547012
0.473663
0.568038
0.478228
0.468985
0.431893
0.461234
0.438177
0.370917
0.430511
0.367541
0.322794
0.269971
0.352533
0.249715
0.352915
0.213913
0.259024
0.259204
0.180206
0.165980
0.128470
0.080784
0.138553
0.140410
0.160788
0.128946
0.098212
0.150614
0.087961
0.046319
0.135935
0.134655
0.119220
0.052327
0.099719
0.107957
0.086132
0.114237
0.105356
0.067454
0.033138
0.068915
0.168037
0.091858
0.043405
0.082956
0.085769
0.118146
0.083592
0.098061
0.089072
0.052842
0.167039
0.100713
0.128760
0.104148
0.104779
0.111067
0.083050
0.065226
0.101666
0.076111
0.117023
0.145252
0.076918
0.059424
0.105783
0.083258
0.090646
0.100170
0.095085
0.213571
0.043717
0.059575
0.077993
0.093632
0.051764
0.111361
0.088283
0.112390
0.018792
0.083580
0.074423
0.136053
0.051230
0.064406
0.120904
0.076469
0.049459
0.017895
0.114830
0.116549
0.152396
0.168683
0.113392
0.001062
0.102065
0.134096
0.151133
0.104111
0.086803
0.216731
0.196999
0.204704
0.161158
0.155004
0.154958
0.157521
0.230350
0.242188
0.224563
0.194777
0.214883
0.218542
0.264224
0.304692
0.345042
0.253407
0.349794
0.309467
0.238010
0.241971
0.223752
0.241236
0.159522
0.232961
0.208548
0.206513
0.198949
0.195373
0.158024
0.125326
0.106931
0.107749
0.141801
0.119951
0.052774
0.112917
0.064146
0.156960
0.105716
0.108667
0.097996
0.063635
0.086196
0.142742
0.101152
0.065138
0.041720
0.125522
0.031266
0.114181
0.110549
0.041453
0.003503
0.059716
0.166659
0.498698
0.787883
1.129522
1.406691
1.500000
1.454982
1.243624
0.841176
0.536557
0.188916
-0.058243
-0.199980
-0.122247
-0.053667
-0.020699
-0.021987
0.084012
0.032257
0.104549
0.037664
0.072484
0.127693
0.072326
-0.021964
0.127823
0.141523
0.047190
0.179656
0.140821
0.042352
0.131367
0.167625
0.188790
0.181776
0.234005
0.202108
0.186972
0.178089
0.285260
0.254458
0.258381
0.296064
0.359795
0.335383
0.353021
0.319014
0.344973
0.411156
0.380673
0.449444
0.539026
0.426622
0.554635
0.566939
0.544110
0.595677
0.620928
0.594110
0.587641
0.603436
0.492086
0.610535
0.607796
0.610359
0.603968
0.503192
0.578043
0.475177
0.532742
0.445773
0.480160
0.402301
0.454485
0.340610
0.383727
0.451596
0.345386
0.344765
0.299211
0.308465
0.278656
0.174563
0.231443
0.235139
0.123071
0.206237
0.191212
0.161198
0.083998
0.132038
0.182814
0.148921
0.117565
0.200750
0.091585
0.112172
0.018866
0.049600
0.060304
0.048087
0.024335
0.050729
0.067815
0.029523
0.059525
0.110028
0.027584
0.021822
0.039893
0.067457
0.065322
0.104031
0.011154
-0.013374
0.037264
0.002143
-0.009801
0.057463
0.050390
0.018073
0.013742
0.039775
-0.005851
0.083268
0.065522
-0.051091
-0.056987
0.006398
0.061255
0.005906
-0.037329
0.109675
0.026782
0.001077
0.085490
0.050034
0.006163
0.002623
0.108817
-0.011756
0.074457
0.015389
-0.008789
-0.001506
-0.065769
0.026007
0.005385
-0.039154
0.057602
-0.045585
0.018992
0.000077
0.063807
-0.021619
0.048161
0.021523
-0.066187
0.009067
0.100023
-0.027153
-0.050909
0.062322
0.007529
0.011475
0.080435
0.010862
-0.002046
0.074236
0.004323
0.081145
0.052245
0.073706
0.127571
0.163293
0.148707
0.056170
0.045733
0.101554
0.062762
0.201388
0.090462
0.240210
0.188507
0.188154
0.185075
0.140902
0.200409
0.138140
0.121271
0.099195
0.076835
0.147736
0.065157
0.067006
0.109955
0.036941
0.046489
0.127157
0.056065
0.063029
-0.007588
0.036036
-0.015901
0.036664
0.005006
0.023724
-0.069360
0.035398
-0.003717
-0.008930
-0.069348
-0.059887
-0.083133
-0.061444
-0.097112
-0.071690
-0.050916
-0.037630
-0.157849
-0.056158
-0.067431
-0.040766
-0.082677
0.163014
0.326958
0.646419
1.024944
1.235487
1.443395
1.277855
1.063542
0.618715
0.365788
-0.001999
-0.156538
-0.282697
-0.318018
-0.339291
-0.179676
-0.088545
-0.077376
-0.032921
-0.011792
-0.044777
-0.071184
-0.047995
-0.077412
-0.014363
-0.013602
-0.031099
0.026611
-0.004155
0.052623
0.028586
0.059792
0.097799
-0.027422
0.071866
-0.010264
0.102723
0.092155
0.120326
0.095107
0.098547
0.172394
0.175377
0.102521
0.184781
0.330458
0.297349
0.234679
0.267933
0.306359
0.317923
0.392372
0.367380
0.336196
0.378791
0.409876
0.395617
0.360027
0.500892
0.372677
0.505205
0.507678
0.511332
0.436571
0.385014
0.435703
0.510795
0.441499
0.433104
0.373444
0.424273
0.343690
0.279181
0.342664
0.271058
0.225271
0.184574
0.261192
0.125953
0.265816
0.105765
0.145649
0.116202
0.049973
0.058413
0.067612
0.023182
0.066642
0.042840
0.018025
-0.005269
-0.019519
-0.065742
-0.020020
-0.070932
-0.107470
0.008812
-0.000542
-0.092983
-0.050717
-0.016184
-0.065726
-0.088665
-0.041657
-0.106904
-0.100644
-0.007701
-0.121652
-0.062413
-0.053467
0.002144
-0.060024
-0.125170
-0.054889
-0.001551
-0.066575
-0.069944
-0.145849
-0.084930
-0.074745
0.012193
-0.080721
-0.095617
-0.068379
0.009387
-0.111266
-0.133040
-0.125959
-0.034382
-0.132518
-0.020952
-0.044784
-0.058707
-0.108295
-0.136407
-0.051169
-0.081243
-0.132710
-0.055822
-0.189652
-0.072950
-0.040449
-0.044122
-0.053608
-0.128423
-0.152084
-0.061026
-0.008249
-0.077550
-0.074143
-0.060901
-0.107831
-0.069481
-0.007999
-0.152921
-0.045156
-0.049437
-0.040607
0.003020
-0.011295
-0.085567
-0.089484
-0.055761
-0.115072
-0.056059
-0.085434
-0.047695
-0.005700
-0.036619
-0.061253
-0.025609
0.069195
-0.038033
-0.059331
0.029464
0.096296
0.050604
0.017474
0.068685
0.060678
0.050687
0.105610
0.100649
0.053395
0.127306
0.175629
0.016115
0.054221
0.098574
0.093219
0.042761
0.028024
0.090840
0.022798
0.025648
-0.017219
0.025133
-0.066378
-0.026623
-0.090595
0.004201
-0.008440
-0.083503
0.005120
-0.073498
-0.025502
-0.107319
-0.078973
0.036212
-0.007145
-0.120639
-0.042893
-0.070155
0.036985
-0.018283
-0.058547
-0.080791
-0.087369
-0.027306
-0.076718
-0.121778
-0.109629
-0.083290
0.007532
0.144426
0.441808
0.688184
1.067597
1.260373
1.323732
1.223874
0.977257
0.591454
0.239983
-0.013615
-0.246794
-0.254302
-0.304292
-0.268217
-0.236930
-0.139634
-0.090396
-0.099344
-0.071326
0.002944
-0.025578
0.016892
-0.025809
-0.021048
-0.044866
0.010022
-0.017415
0.021906
-0.044269
0.063466
0.101344
-0.025895
0.037311
0.060402
0.043348
0.108191
0.160524
0.114386
0.108236
0.154443
0.207663
0.196513
0.166452
0.264380
0.276187
0.159359
0.281607
0.316639
0.319031
0.475571
0.341097
0.371398
0.348591
0.489925
0.405311
0.427838
0.470455
0.521482
0.494535
0.463519
0.534723
0.523430
0.496290
0.415224
0.514318
0.513134
0.532827
0.425999
0.441443
0.434741
0.397474
0.350411
0.321412
0.321900
0.362122
0.275553
0.231984
0.279470
0.260876
0.132158
0.120762
0.120989
0.134748
0.117337
0.173733
0.074586
0.127832
0.117808
0.129535
0.042011
0.133850
0.085367
0.080798
0.051667
0.011187
0.017068
-0.039828
-0.037565
0.035415
-0.030609
-0.020539
-0.106170
-0.049305
0.012520
-0.076904
-0.014084
-0.010229
0.000949
-0.030127
-0.034131
0.026930
-0.006240
-0.011103
-0.027565
0.009195
-0.059310
0.039423
-0.006418
0.046878
-0.006948
-0.007873
0.040400
0.053405
-0.059505
0.052981
0.059549
-0.061037
-0.036458
0.060181
0.155034
-0.042182
0.080563
0.019748
0.084989
0.022974
0.108532
0.025327
-0.027880
-0.076003
0.009896
-0.007841
0.048553
0.040991
0.005600
0.116509
0.006548
-0.014066
0.022171
0.022141
0.076352
-0.037597
-0.007002
0.027044
0.079120
-0.051800
-0.011621
0.022541
0.084631
-0.031728
0.045666
0.060721
0.107852
0.055348
0.097766
0.011019
0.076218
0.049080
0.070016
0.129358
0.010390
0.191800
0.111171
0.131346
0.188137
0.096740
0.191171
0.157781
0.153086
0.186390
0.204859
0.166376
0.267780
0.195815
0.167469
0.213992
0.179716
0.235232
0.218488
0.239247
0.130008
0.168888
0.104512
0.161327
0.132951
0.173704
0.062507
0.100646
0.156594
0.054555
0.061615
0.093311
0.071892
0.023125
0.128070
0.007878
0.042176
0.079868
0.004159
0.044407
0.029792
-0.034569
0.074715
-0.030690
0.006765
0.033659
0.030372
0.019327
0.023015
0.074067
-0.060833
-0.109039
-0.002989
0.084922
0.256305
0.570093
0.782541
1.189884
1.462017
1.492784
1.166893
1.045479
0.620033
0.402160
-0.021765
-0.235037
-0.205128
-0.322900
-0.166702
-0.054523
-0.036381
0.029592
0.082528
0.003406
0.013999
0.013434
0.040393
0.034247
0.082165
0.212537
0.062552
0.072918
0.070810
0.060917
0.054069
0.171923
0.127447
0.191389
0.081274
0.175750
0.158081
0.096589
0.215423
0.123938
0.259822
0.367318
0.238693
0.269803
0.282213
0.304609
0.393458
0.356493
0.429269
0.429737
0.381480
0.495354
0.432546
0.497079
0.434002
0.518862
0.619454
0.583751
0.561702
0.629044
0.508070
0.600788
0.537639
0.482331
0.464270
0.483033
0.492122
0.509337
0.508568
0.514716
0.512876
0.455697
0.441604
0.352896
0.346901
0.408096
0.350262
0.387138
0.436284
0.363110
0.290781
0.274922
0.228180
0.278157
0.183575
0.231625
0.156928
0.119468
0.001606
0.055930
0.117421
0.057288
0.180125
0.064086
0.078669
0.041926
0.115596
0.010700
0.101216
0.093084
0.060199
0.123664
0.093147
0.069840
0.030840
-0.001139
0.091641
0.116554
0.089328
0.059617
0.089255
0.078646
-0.005281
0.020692
0.110781
0.019476
0.028674
0.062089
0.061482
0.047840
-0.079119
0.037734
-0.019542
-0.004951
0.042477
0.034990
0.043988
0.027371
0.032895
0.046955
0.026215
0.021968
-0.005660
0.062192
0.020562
0.041016
0.025043
0.069660
-0.059833
0.021035
-0.008537
-0.002193
0.006143
0.049421
0.039679
-0.043561
-0.043463
0.018438
-0.042099
-0.026774
0.044595
-0.009923
-0.037321
0.035140
-0.029448
0.007550
-0.011827
-0.020681
-0.047428
0.135612
-0.016454
0.038862
-0.022873
0.041034
0.063737
0.064112
0.041326
-0.009033
0.012675
0.093905
0.084959
0.087562
0.050887
0.158676
0.223723
0.138767
0.156405
0.166601
0.160699
0.140669
0.180539
0.202450
0.200735
0.125874
0.171314
0.135185
0.166747
0.145860
0.103761
0.170428
0.166907
0.091512
0.168772
0.076858
0.119812
0.063472
-0.005469
0.104665
0.066231
0.069005
0.023180
-0.009672
-0.023009
-0.021502
0.093728
0.003633
-0.015628
0.052873
0.018542
-0.000595
0.051783
0.072847
-0.003798
0.004465
-0.061219
-0.008109
-0.018620
0.044856
-0.038800
-0.075380
-0.096203
-0.063679
0.000589
0.071198
0.250970
0.468490
0.870615
1.069576
1.347194
1.358810
1.187512
0.941182
0.551831
0.222925
-0.086885
-0.196221
-0.396201
-0.304014
-0.233373
-0.114843
-0.046456
-0.065570
-0.041758
-0.069788
0.061788
0.000000
0.000000
0.000000
0.000000
0.000000
0.000000
0.000000
0.000000
0.000000
0.000000
0.000000
0.000000
0.000000
0.000000
0.000000
0.000000
0.000000
0.000000
0.000000
0.000000
0.000000
0.000000
0.000000
0.000000
0.000000
0.000000
0.000000
0.000000
0.000000
0.000000
0.000000
0.000000
0.000000
0.000000
0.000000
0.000000
0.000000
0.000000
0.000000
0.000000
0.000000
0.000000
0.000000
0.000000
0.000000
0.000000
0.000000
0.000000
0.000000
0.000000
0.000000
0.000000
0.000000
0.000000
0.000000
0.000000
0.000000
0.000000
0.000000
0.000000
0.000000
0.000000
0.000000
0.000000
0.000000
0.000000
0.000000
0.000000
0.003477
-0.014658
-0.007580
-0.050190
-0.038146
-0.019729
-0.154113
-0.075092
0.001702
0.021223
-0.125801
-0.071757
-0.097116
-0.106791
-0.023531
-0.009664
-0.141512
-0.046213
-0.146094
-0.062056
-0.077249
-0.102613
-0.088481
-0.058149
-0.041079
-0.087559
-0.123012
-0.185949
-0.173698
-0.053045
-0.064295
-0.063743
-0.165092
-0.071601
-0.142907
-0.049209
-0.082850
-0.108961
-0.178340
-0.063949
-0.095038
-0.003373
-0.100517
-0.090833
-0.039973
-0.080447
0.006245
-0.069427
-0.088466
-0.089535
-0.137557
-0.107049
-0.113045
-0.114524
-0.078089
-0.119031
-0.077438
-0.089361
-0.091344
-0.104234
-0.040378
-0.111639
-0.010655
-0.117217
-0.152488
-0.068765
-0.090085
-0.004523
-0.100024
-0.062431
-0.148448
-0.092932
-0.035922
-0.096441
-0.063186
-0.046096
-0.121034
-0.081887
-0.024644
0.000000
0.000000
0.000000
0.000000
0.000000
0.000000
0.000000
0.000000
0.000000
0.000000
0.000000
0.000000
0.000000
0.000000
0.000000
0.000000
0.000000
0.000000
0.000000
0.000000
0.000000
0.000000
0.000000
0.000000
0.000000
0.000000
0.000000
0.000000
0.000000
0.000000
0.000000
0.000000
0.000000
0.000000
0.000000
0.000000
0.000000
0.000000
-0.165770
-0.005780
-0.056180
-0.157049
-0.130962
-0.103871
-0.078434
-0.036237
-0.096814
-0.081003
-0.128634
-0.082433
-0.122156
-0.029602
-0.082675
-0.182458
-0.111506
0.001454
0.121437
0.445299
0.837667
1.086429
1.263298
1.349647
1.098002
0.873345
0.549274
0.119641
-0.167425
-0.318110
-0.355089
-0.351388
-0.313910
-0.268222
-0.027498
-0.163572
-0.102283
-0.020156
-0.068939
-0.004155
-0.095388
-0.114375
-0.042618
-0.095424
-0.086905
-0.079309
-0.121901
0.007235
0.027589
0.009372
0.021770
-0.082101
-0.004045
0.043161
0.130255
0.106056
0.062626
0.142000
0.119701
0.131227
0.173477
0.166992
0.187935
0.198980
0.290358
0.252027
0.267879
0.319633
0.307678
0.316379
0.306174
0.280942
0.349406
0.423020
0.396540
0.380063
0.441170
0.318665
0.379404
0.409874
0.413451
0.423033
0.475243
0.417222
0.339708
0.351151
0.374330
0.366836
0.399325
0.352010
0.296237
0.241264
0.271554
0.290115
0.185057
0.222382
0.190334
0.105960
0.172794
0.144892
0.069147
-0.004416
0.087615
0.032024
0.022196
0.006278
0.007405
-0.020768
-0.009835
0.011065
-0.057846
-0.026840
-0.004142
-0.032934
0.022010
-0.028413
-0.059767
-0.070358
-0.028182
-0.011611
-0.127294
-0.034265
-0.036314
-0.157794
0.029266
-0.035034
-0.057590
-0.010716
-0.053230
-0.075280
-0.005512
-0.038314
-0.075303
-0.067700
-0.139861
-0.089760
-0.037797
-0.028305
-0.066305
-0.063001
-0.031317
-0.013484
0.000386
0.020120
-0.095659
-0.011037
-0.064668
-0.047727
-0.094369
-0.034686
-0.106202
0.052107
-0.023437
-0.042406
-0.026414
-0.061819
0.008254
-0.109773
-0.021905
-0.037142
-0.037466
-0.036981
-0.061906
0.045988
-0.041231
0.049562
-0.052423
-0.037052
-0.026937
-0.033160
-0.001591
-0.007021
-0.065049
-0.057734
-0.060921
-0.018794
0.040166
-0.063024
0.027698
0.029967
-0.019842
-0.089944
0.050096
0.060542
0.054649
0.080996
0.047472
0.046162
0.026801
0.061540
0.093334
0.106275
0.026093
0.084558
0.093447
0.094737
0.134697
0.115069
0.128649
0.179898
0.125540
0.142120
0.227593
0.173267
0.139721
0.095623
0.136743
0.101857
0.189475
0.111375
0.129587
0.177922
0.172527
0.104545
0.045986
0.090241
0.079121
-0.000066
0.001020
0.042851
0.055776
0.062469
0.061127
-0.051993
0.101412
-0.038241
0.026736
-0.067077
-0.004487
-0.044738
0.011276
-0.000341
0.037425
0.036141
-0.002387
-0.013633
-0.022636
-0.077913
-0.066696
-0.048330
-0.010819
0.109524
0.265025
0.577231
0.899020
1.209299
1.430875
1.402332
1.138150
0.818992
0.701820
0.199736
-0.035030
-0.210606
-0.172435
-0.211812
-0.114402
0.037475
-0.008887
-0.016493
0.097332
0.030792
0.017531
0.119219
0.048275
0.062600
-0.021468
0.130612
0.060935
0.096537
0.080787
0.079668
0.115164
0.104620
0.138616
0.090861
0.150980
0.103522
0.188722
0.132335
0.266763
0.138740
0.240886
0.293299
0.291173
0.240327
0.337244
0.329218
0.369218
0.368969
0.435264
0.376632
0.521012
0.524192
0.476207
0.475059
0.484137
0.570181
0.528278
0.587369
0.481505
0.562231
0.590659
0.660490
0.584479
0.503620
0.572000
0.546260
0.544910
0.514250
0.472131
0.472984
0.460994
0.422699
0.410998
0.425028
0.367539
0.450486
0.345666
0.357863
0.349550
0.319019
0.358305
0.262047
0.201972
0.259182
0.245857
0.159474
0.207090
0.149987
0.140694
0.193847
0.137030
0.074733
0.071897
0.125345
0.086229
0.117354
0.061161
0.104868
0.085305
0.090876
0.000633
0.118313
0.080580
0.069914
0.114456
0.175124
0.054456
0.098201
0.082189
0.111126
0.107833
0.062303
0.092040
0.138538
0.089181
0.097251
0.058022
0.040588
0.031347
0.093366
0.046227
0.079218
0.071499
0.191316
0.060313
0.097685
0.050025
0.039817
0.026784
0.036022
0.084146
0.052475
0.081828
0.076805
0.096221
0.094579
0.033224
0.101002
0.044885
-0.023109
0.013437
0.126724
0.045889
0.073040
-0.011135
0.135670
0.097439
0.072890
0.091374
0.090686
0.070017
-0.014024
0.063183
0.114265
0.064867
0.021575
0.013057
0.099358
0.065878
0.050187
0.129333
0.093475
0.090055
0.192139
0.035319
0.087069
0.143990
0.152070
0.163452
0.125324
0.162197
0.064329
0.248225
0.155548
0.265598
0.236142
