-0.115195
0.011980
0.009774
-0.010710
-0.020070
0.024679
-0.072061
0.058852
-0.020360
0.004021
0.028220
0.010892
-0.018167
0.088895
-0.054197
0.102387
0.060492
-0.013406
-0.020865
0.079950
-0.017051
-0.031043
0.044524
0.100095
0.144043
0.104409
0.107793
0.037194
0.180358
0.150058
0.062682
0.099531
0.160955
0.216705
0.148332
0.135327
0.171716
0.184097
0.135479
0.127122
0.166102
0.148222
0.169219
0.247085
0.236713
0.191396
0.144634
0.152035
0.219708
0.071896
0.037190
0.109756
0.187060
0.060704
0.132012
0.075333
0.098402
0.049869
0.110982
0.152576
0.061596
0.091264
-0.022536
0.054754
0.071518
0.100371
0.128789
0.090129
0.025349
-0.000615
0.000427
0.025684
0.025071
0.072955
0.012968
0.032196
-0.035637
0.190247
0.340359
0.658197
1.021757
1.260588
1.425923
1.333811
1.136377
0.894583
0.450643
0.115401
-0.039139
-0.112187
-0.265960
-0.169060
-0.065576
-0.001865
0.050275
0.020889
0.071447
0.062324
0.086219
0.105475
0.166054
0.103417
0.010566
0.104700
0.111322
0.136901
0.153008
0.184454
0.119521
0.192071
0.262710
0.258949
0.206711
0.283420
0.327358
0.318068
0.372706
0.350933
0.356890
0.341461
0.453110
0.402900
0.372285
0.430738
0.454279
0.448828
0.522845
0.531793
0.486420
0.524294
0.504661
0.578770
0.511656
0.568934
0.630173
0.592855
0.567654
0.612286
0.584544
0.592811
0.524638
0.487655
0.563316
0.515691
0.490811
0.443411
0.355271
0.375479
0.353031
0.354905
0.396111
0.317090
0.370711
0.221701
0.244930
0.350802
0.261989
0.206271
0.286650
0.223057
0.269906
0.206719
0.178948
0.190146
0.156931
0.090981
0.130983
0.152042
0.197954
0.069376
0.069820
0.064841
0.102148
0.058124
0.043605
0.086170
0.036658
0.093086
0.064928
0.013599
0.096591
0.033920
0.166756
0.142829
0.083359
0.012858
0.050867
0.146439
0.146476
0.148386
0.121417
0.095289
0.079137
0.113700
0.088933
0.116791
0.100628
0.051416
0.103032
0.045363
0.092056
0.019358
0.046794
0.180676
0.109839
0.046276
0.050409
0.077434
0.065469
0.023327
0.080701
0.111903
0.096626
0.019683
0.194196
0.074197
0.064279
0.044251
0.115764
0.030719
0.164878
0.030484
0.143315
0.134861
0.152600
0.077039
0.182397
0.107964
0.186698
0.180471
0.117098
0.085677
0.122781
0.192591
0.165866
0.169312
0.156319
0.179380
0.186700
0.204068
0.250982
0.276392
0.246891
0.182022
0.247524
0.225435
0.208738
0.234340
0.249506
0.228813
0.204599
0.197468
0.207012
0.204794
0.272375
0.161501
0.256369
0.224582
0.219361
0.197229
0.113908
0.184141
0.177752
0.165168
0.081513
0.037128
0.121854
0.133845
0.094069
0.107680
0.162706
0.030844
0.043123
0.096974
0.082648
0.001805
0.096780
0.037401
0.126910
0.041039
0.016878
0.036683
0.120234
0.284191
0.523367
0.882011
1.207400
1.385766
1.358168
1.209955
0.990995
0.700503
0.280792
0.034922
-0.170257
-0.265497
-0.182133
-0.166070
-0.106429
-0.013008
0.051666
0.128754
0.079850
0.077139
0.156648
0.101185
0.141366
0.106026
0.061150
0.193244
0.146844
0.142721
0.159152
0.173179
0.224677
0.261009
0.160453
0.159746
0.288022
0.192774
0.369166
0.257470
0.280266
0.389480
0.382033
0.338223
0.435464
0.406090
0.406970
0.428658
0.435268
0.408508
0.474539
0.483617
0.517249
0.575694
0.515336
0.524058
0.611176
0.545094
0.652957
0.604958
0.540233
0.538865
0.504902
0.500281
0.481079
0.437743
0.441569
0.435918
0.390227
0.423700
0.370306
0.361533
0.347034
0.417001
0.319116
0.308674
0.329637
0.258165
0.167357
0.259593
0.136589
0.282456
0.141626
0.132229
0.132837
0.173217
0.096285
0.090418
0.060896
0.110710
0.095099
0.082626
0.007698
-0.015575
0.093747
0.032314
-0.007288
0.065368
0.034447
-0.015961
0.041871
0.078893
-0.052539
-0.046693
0.020593
0.010387
0.001484
0.016958
0.032030
-0.001708
0.059415
0.015393
0.008890
0.013067
-0.024474
-0.001143
0.033072
-0.040751
-0.006116
-0.004750
0.108552
0.050067
0.029695
-0.013511
0.073748
0.050259
0.041303
0.022428
0.024533
-0.054554
0.024717
0.000423
0.062853
-0.064776
0.001006
0.050239
-0.000231
0.051898
-0.024132
-0.018925
-0.030728
-0.041442
-0.024676
0.011144
-0.032677
0.073637
-0.002866
0.134020
-0.010676
0.012716
-0.005828
0.045287
-0.005055
0.016396
0.067648
-0.045998
0.129965
0.076685
0.106667
0.159741
0.039291
0.158864
0.103853
0.161430
0.081844
0.154397
0.162253
0.173360
0.095473
0.207617
0.202953
0.090922
0.201134
0.116259
0.146016
0.179481
0.148048
0.225897
0.171521
0.018596
0.055973
0.025994
-0.016892
0.120121
0.035624
0.047450
0.013117
-0.027066
-0.017668
-0.066140
0.000416
-0.038817
-0.004156
-0.002413
0.095644
-0.055401
-0.059971
-0.051350
-0.084897
-0.053441
-0.130420
-0.042412
-0.030846
-0.094882
-0.092088
-0.042493
0.153417
0.302572
0.656766
0.873673
1.261016
1.320619
1.286770
0.976341
0.786109
0.363400
0.071326
-0.154256
-0.201099
-0.310639
-0.199841
-0.125726
-0.086538
-0.063775
-0.043919
-0.006965
0.036425
0.066536
0.036174
0.038440
0.072689
0.079858
-0.002250
0.018999
-0.063738
0.000561
-0.000082
0.123114
0.052015
0.169639
0.145973
0.152932
0.149076
0.204153
0.176205
0.245617
0.214916
0.257533
0.293396
0.377664
0.306232
0.363436
0.351180
0.315103
0.385907
0.352374
0.299481
0.460089
0.382092
0.405094
0.427297
0.504770
0.481629
0.488453
0.417806
0.520122
0.440594
0.489389
0.422675
0.384503
0.380894
0.380024
0.345661
0.359043
0.330853
0.290702
0.224318
0.235106
0.259736
0.237741
0.205388
0.301457
0.159286
0.189028
0.140434
0.186412
0.072629
0.128964
0.012270
0.050132
0.013099
0.075377
-0.009265
0.065381
0.074572
0.051782
-0.069143
-0.013129
-0.011510
-0.030497
-0.012506
0.017019
-0.114921
-0.050257
-0.015750
-0.005047
-0.113518
0.007109
0.005926
-0.021599
-0.031824
-0.052155
-0.074529
-0.046569
0.002915
-0.076454
-0.151254
-0.030386
-0.071189
0.038604
-0.035459
-0.055463
0.024673
0.003072
-0.019221
-0.051700
-0.031481
-0.082041
0.003738
0.022973
-0.035060
-0.042116
-0.040052
-0.088678
-0.002650
-0.022786
-0.026387
-0.064747
0.012495
-0.029453
0.034730
-0.029667
0.023168
-0.058564
0.026116
0.039518
-0.106814
-0.016432
-0.098369
-0.047683
0.039458
-0.098754
-0.028629
0.031081
0.026444
-0.054477
0.059619
0.006948
-0.002842
0.025043
0.096096
0.021999
0.059076
0.102483
0.079484
0.011445
0.054775
0.147913
0.073950
0.112119
0.141469
0.090389
0.147698
0.076492
0.143214
0.098244
0.166765
0.241535
0.210849
0.118878
0.135443
0.170809
0.108429
0.126002
0.196382
0.177512
0.040563
0.155646
0.016586
-0.009509
0.052720
-0.009644
0.015319
-0.040005
-0.018311
0.012531
-0.084232
-0.020404
0.050469
-0.013561
-0.005398
-0.024394
0.031347
-0.015737
-0.003106
0.034847
-0.062653
-0.060617
-0.096650
0.008633
-0.040694
0.023198
0.246873
0.537997
0.762474
1.068205
1.257583
1.424056
1.209511
0.888401
0.530245
0.260648
-0.089644
-0.187209
-0.240735
-0.204004
-0.201039
-0.093509
-0.053184
0.039789
0.004477
-0.022021
0.054532
-0.040584
0.024053
0.048173
0.034877
0.029845
0.058180
0.153717
0.143203
0.106470
0.171123
0.145743
0.123139
0.183066
0.211932
0.218836
0.220749
0.240722
0.183996
0.309013
0.308100
0.320001
0.347055
0.340515
0.348983
0.383821
0.520866
0.415569
0.460786
0.465555
0.444900
0.467304
0.526751
0.457954
0.567062
0.625487
0.593633
0.578665
0.531882
0.492776
0.546810
0.444511
0.515271
0.402238
0.411072
0.364407
0.574744
0.395723
0.409693
0.393357
0.353793
0.331291
0.283745
0.283451
0.301837
0.251433
0.226017
0.132580
0.224657
0.236414
0.180533
0.140012
0.190633
0.154608
0.079564
0.089987
0.139945
0.082748
0.078754
0.075799
0.087387
0.022183
0.119695
0.073558
0.030088
0.059569
0.077250
0.038846
0.108623
0.067252
0.032532
0.067206
0.086604
0.082276
0.014038
0.090483
0.123721
0.054431
-0.032438
0.064576
0.083822
0.031536
0.041629
0.108443
0.141149
0.096010
0.041353
-0.019279
0.161148
0.156172
0.120131
0.091141
0.019408
0.065770
0.014681
0.007951
0.146173
0.046795
0.022626
-0.017072
0.034716
0.024541
0.121582
0.070693
0.065079
0.015464
0.082355
0.040223
0.048347
0.050739
0.127389
0.037061
0.143763
-0.020026
0.040322
0.055479
0.048741
0.092477
0.040085
0.106101
0.102756
0.145732
0.118540
0.170596
0.150535
0.232080
0.163744
0.077984
0.182523
0.142399
0.144361
0.289885
0.178192
0.208624
0.268664
0.191943
0.275711
0.354201
0.284323
0.248405
0.246612
0.264756
0.235582
0.192250
0.185448
0.232182
0.184594
0.183707
0.141039
0.149019
0.228558
0.150067
0.216444
0.090676
0.164318
0.111468
0.108996
0.074645
0.184489
0.060593
0.010748
0.107263
0.052161
0.164003
0.212767
0.033270
0.177408
0.111687
0.093436
0.095288
0.160398
0.105742
0.032326
0.169638
0.070472
0.188680
0.462931
0.700045
0.996369
1.332681
1.500000
1.473177
1.183323
0.885760
0.535891
0.152469
-0.017198
-0.171626
-0.124787
-0.109151
-0.033087
0.032100
0.062644
0.195982
0.094127
0.069346
0.089448
0.149169
0.160747
0.131054
0.129157
0.216886
0.115022
0.071587
0.155682
0.192782
0.223474
0.230366
0.258046
0.240375
0.315256
0.344390
0.320271
0.379701
0.215834
0.400801
0.373756
0.349455
0.439668
0.435406
0.523931
0.482956
0.475665
0.598844
0.542204
0.579698
0.520290
0.596049
0.479904
0.635626
0.582179
0.649727
0.629491
0.472319
0.633516
0.601501
0.547413
0.565594
0.621242
0.404052
0.478987
0.590695
0.506551
0.449867
0.528609
0.376543
0.388841
0.400653
0.414635
0.363929
0.298423
0.310262
0.220508
0.312365
0.269958
0.233177
0.298677
0.219172
0.193123
0.243192
0.206712
0.185377
0.218555
0.178868
0.087334
0.138743
0.136442
0.149995
0.128909
0.113824
0.095441
0.109846
0.160746
0.025570
0.099453
0.170800
0.137517
0.129336
0.064872
0.141814
0.101300
0.128515
0.090337
0.050092
0.114395
0.140153
0.054642
0.060858
0.068937
0.012147
0.033598
0.110024
0.076886
0.014380
0.020161
0.033637
0.062122
0.080623
0.086352
0.072636
0.113476
0.044029
0.050691
0.121294
0.058189
0.074117
0.088150
0.060936
0.145057
0.101553
0.118920
0.033869
0.037283
0.073095
0.107192
0.132650
0.070822
0.103959
0.094500
0.072028
0.110435
0.083044
0.108619
0.117563
0.078397
0.054885
0.059156
0.091797
0.133396
0.048130
0.197840
0.189272
0.100702
0.116361
0.142148
0.162216
0.214529
0.253248
0.138162
0.175962
0.231060
0.262588
0.167815
0.181503
0.186714
0.206537
0.217175
0.257346
0.173848
0.161637
0.169139
0.151187
0.196012
0.203467
0.146860
0.164018
0.169531
0.126441
0.199505
0.065443
0.032089
0.097352
0.088403
0.118747
0.036552
0.006656
0.145001
-0.038155
0.066573
0.035468
0.047064
0.084470
0.046913
0.029424
0.074224
0.035424
0.125133
0.040933
0.061975
0.016333
0.070818
0.263813
0.539223
0.805378
1.108526
1.335099
1.377183
1.225661
0.941349
0.530894
0.194945
-0.007285
-0.179517
-0.239290
-0.166800
-0.121636
-0.013403
-0.038774
-0.003288
0.008747
0.055256
0.085401
0.087127
0.058970
0.101300
0.033570
0.099564
0.025751
0.138019
0.141018
0.183156
0.070859
0.133211
0.199921
0.201798
0.127660
0.169929
0.155368
0.198050
0.256821
0.249803
0.253654
0.303551
0.371302
0.423666
0.349979
0.412953
0.426701
0.432367
0.391362
0.499291
0.467998
0.504893
0.448762
0.488810
0.470503
0.528372
0.437424
0.543544
0.507370
0.458131
0.439715
0.523235
0.404910
0.445686
0.460268
0.444608
0.428505
0.314514
0.356844
0.310765
0.368124
0.330805
0.279111
0.262194
0.202293
0.190985
0.134987
0.223382
0.106621
0.206502
0.098986
0.120429
0.025581
0.073286
0.026774
0.026348
0.021974
-0.030493
0.082834
0.002575
0.082208
-0.008243
0.000056
0.024454
-0.060823
0.002722
-0.069174
-0.047286
0.018325
-0.041609
-0.023619
-0.072294
0.032638
-0.004933
-0.018821
0.045855
0.049083
0.023209
-0.044675
0.000339
-0.041300
-0.035420
-0.078731
-0.059778
-0.104631
-0.072526
-0.003113
-0.014607
-0.062878
0.009159
-0.075912
-0.001359
-0.038669
-0.141721
-0.092907
-0.091194
-0.065156
-0.037573
0.009208
-0.048775
-0.051268
-0.045001
-0.096682
-0.069143
-0.079577
-0.010307
-0.046355
-0.094292
-0.155574
-0.118976
-0.072175
-0.086774
-0.088446
-0.052054
-0.025851
-0.015608
-0.039785
-0.021259
-0.044744
-0.027940
-0.054429
-0.042266
-0.016715
-0.012746
0.006844
-0.042721
-0.057262
0.117591
-0.019344
0.084370
0.030894
0.064532
0.079205
-0.007863
0.085677
0.047886
0.097805
0.105173
0.119399
0.021429
0.207998
0.152045
0.107673
0.113436
0.128219
0.070799
0.039690
0.059756
0.092721
0.056508
0.014056
-0.033186
0.006170
0.114389
0.012417
-0.039863
-0.077190
-0.103573
-0.053444
-0.090029
-0.105346
-0.048900
-0.111168
-0.075443
-0.088676
-0.052149
-0.038531
-0.161349
-0.070736
-0.122835
-0.081126
-0.069862
-0.111353
-0.021927
-0.046762
0.041846
0.319574
0.560328
0.856525
1.191359
1.263438
1.239149
0.937532
0.691163
0.253894
0.023090
-0.189807
-0.394707
-0.233075
-0.227723
-0.216639
-0.125796
-0.137423
-0.030646
-0.089884
-0.020609
-0.034180
0.073623
-0.065824
-0.045936
0.032512
0.009546
-0.037905
0.046498
-0.054786
0.095943
0.117782
-0.059607
0.053148
0.048797
0.148074
0.100725
0.145338
0.173645
0.239650
0.160436
0.210065
0.275025
0.288487
0.332101
0.272796
0.379622
0.327613
0.425007
0.339909
0.386255
0.519137
0.429107
0.387105
0.455883
0.417785
0.449230
0.438797
0.443071
0.434305
0.436301
0.425456
0.391452
0.457983
0.375208
0.304513
0.353337
0.281837
0.342988
0.241298
0.216484
0.243894
0.204509
0.133185
0.157075
0.223873
0.168343
0.092374
0.118379
0.067870
0.061318
0.082477
0.089580
0.084956
-0.036286
0.040530
0.009082
-0.056107
-0.057165
-0.101415
-0.048658
-0.001294
-0.115052
-0.030143
-0.051611
-0.034414
-0.042470
-0.087525
0.027852
-0.107472
-0.048479
-0.059276
-0.107521
-0.088292
-0.057405
-0.031659
-0.064052
-0.052233
-0.091075
-0.095360
-0.084211
-0.082386
-0.020095
-0.049134
-0.144275
-0.089261
-0.040762
-0.046829
-0.048904
-0.062165
-0.007859
-0.019679
-0.043763
-0.134701
0.068866
-0.047180
-0.046628
-0.083522
0.021771
-0.114300
-0.091695
-0.147615
-0.069832
-0.101183
-0.046341
-0.067145
0.004189
-0.121377
-0.059595
-0.073497
0.007562
0.019318
-0.022354
-0.052274
-0.075204
-0.039208
-0.015333
-0.077508
-0.007815
-0.029654
-0.061164
-0.077812
0.058398
0.015020
-0.020478
0.059562
-0.088496
0.119415
-0.007786
0.037272
0.094330
0.133023
0.099855
0.097559
0.113763
0.112862
0.128220
0.094357
0.122784
0.114302
0.116136
0.124495
0.146730
0.194437
0.175054
0.109487
0.155965
0.110866
0.183214
0.134925
0.023593
0.064992
0.054951
0.015907
0.015042
0.022009
0.021963
0.119016
0.017403
0.034044
0.008771
-0.056275
0.033559
0.060883
0.000257
-0.049935
-0.069357
-0.030362
-0.040309
0.027652
-0.011917
-0.120271
0.015790
-0.073608
0.012711
0.066293
0.156891
0.447813
0.818658
1.084964
1.390475
1.319470
1.219344
0.979651
0.485378
0.181646
0.026555
-0.187268
-0.281619
-0.176291
-0.130024
-0.132990
-0.021036
-0.078404
0.011719
0.052357
0.072130
0.017110
0.064653
0.025517
0.128037
0.096500
-0.044271
0.061482
0.060279
0.143606
0.101016
0.144795
0.194218
0.075456
0.164214
0.222154
0.233764
0.149889
0.258364
0.260392
0.316215
0.276163
0.343574
0.279429
0.366399
0.425782
0.428860
0.430525
0.368393
0.465892
0.453084
0.547046
0.446974
0.483499
0.502637
0.559774
0.506383
0.570061
0.475143
0.561661
0.426636
0.439394
0.469199
0.451951
0.356237
0.394182
0.365168
0.469721
0.355912
0.344185
0.344594
0.315860
0.319390
0.227402
0.178266
0.203022
0.213160
0.289082
0.218826
0.185792
0.106179
0.171963
0.088541
0.096719
0.123534
0.182738
0.109969
0.052008
0.059824
0.079689
0.086423
-0.000913
-0.006014
0.061288
0.070330
0.069682
0.082370
0.042071
0.013941
0.060218
-0.010081
0.092341
0.047041
0.021677
-0.015892
-0.048258
0.123512
0.014747
0.065634
0.005659
0.006427
0.055145
0.006607
0.083337
0.049777
0.064563
0.102119
-0.014765
-0.016577
0.003568
0.014413
0.131777
0.027269
0.032660
0.024886
0.059108
-0.002212
0.018671
0.060132
0.068813
0.001458
0.144364
0.024049
0.011951
0.071238
-0.026655
0.062872
0.057514
-0.044445
0.063215
0.010175
0.003152
0.098935
0.027572
0.046598
0.046685
0.023935
0.063891
0.069702
0.087341
0.091032
0.168829
0.120522
0.087666
0.077768
0.107954
0.136766
0.156557
0.222363
0.214726
0.144315
0.253629
0.098004
0.200232
0.261691
0.228908
0.202712
0.254820
0.158024
0.234075
0.181487
0.237190
0.261651
0.133265
0.133245
0.268329
0.152063
0.131039
0.097446
0.118765
0.082511
0.174141
0.138670
0.150335
0.158778
0.155332
0.095766
0.162345
0.061624
0.042725
0.023503
0.137769
0.062623
0.016858
-0.010048
-0.007905
0.022002
-0.016051
0.061401
0.007646
0.024066
-0.049118
-0.047704
0.063646
0.095706
0.258999
0.482452
0.673741
1.201256
1.300343
1.449429
1.264854
1.073214
0.769971
0.435781
0.013371
-0.129078
-0.193285
-0.268270
-0.161886
0.011990
0.041926
0.079132
0.091409
0.114270
0.049223
0.096698
0.073895
0.108593
0.073454
0.124447
0.047884
0.135339
0.173594
0.178717
0.155958
0.149641
0.190629
0.209741
0.277175
0.189439
0.162962
0.252737
0.205629
0.245732
0.344177
0.333098
0.347565
0.427708
0.361526
0.409697
0.410557
0.416607
0.480893
0.482879
0.396938
0.508397
0.609039
0.508351
0.512361
0.460914
0.455842
0.466546
0.498942
0.594865
0.589488
0.573705
0.500209
0.482777
0.511384
0.442788
0.470520
0.355150
0.441261
0.368340
0.357594
0.275434
0.289328
0.328004
0.451069
0.176464
0.211971
0.236992
0.273632
0.230168
0.077579
0.136040
0.139848
0.122274
0.042715
0.076953
0.048490
0.074066
0.039819
0.096620
0.065688
0.137550
0.111329
0.080146
0.064754
0.093868
0.044943
0.039433
-0.019502
0.055300
0.044736
0.042145
0.047784
0.025633
-0.013160
-0.039036
0.012035
-0.032505
0.022633
0.049561
0.018997
-0.012649
0.005976
0.032040
-0.026881
0.065277
-0.025639
0.020051
0.063302
-0.047848
0.024326
0.009238
-0.013508
0.007016
-0.001688
0.089234
-0.026567
-0.010242
-0.099001
-0.043429
-0.002799
0.013587
-0.038987
-0.044824
-0.039639
-0.029060
-0.038273
0.005243
-0.041073
-0.014532
0.014635
-0.023212
0.028002
-0.059294
-0.021513
0.005390
-0.016793
0.032058
0.075693
-0.028101
-0.005995
0.069917
-0.001259
0.044013
-0.013322
0.095803
0.075460
-0.001124
0.050584
0.076668
0.041148
0.089207
0.141502
0.121400
0.211375
0.081399
0.145897
0.115628
0.129968
0.191637
0.165460
0.172960
0.177450
0.130208
0.198211
0.084240
0.176867
0.140229
0.055085
0.060483
0.128563
0.034242
0.071258
0.000781
0.046747
0.065712
0.013202
0.041076
0.031340
0.005439
-0.081057
-0.032748
0.001107
0.038430
-0.043848
-0.052283
-0.075218
-0.035843
0.008896
-0.135576
-0.064479
0.028590
-0.011382
-0.077170
-0.051448
0.017352
0.205764
0.416129
0.801198
1.030375
1.277247
1.328948
1.084047
0.858956
0.518667
0.225370
-0.202822
-0.292854
-0.323155
-0.243934
-0.109945
-0.171445
-0.020960
-0.033826
-0.000277
-0.070056
0.022809
-0.026870
0.066601
0.026193
-0.020234
-0.013700
-0.049586
0.044126
0.021224
0.042385
0.082373
-0.001483
0.017904
0.098113
0.190748
0.187024
0.157567
0.127398
0.108331
0.193230
0.266144
0.216228
0.373977
0.170248
0.334913
0.315828
0.377996
0.357669
0.330866
0.430813
0.370850
0.380431
0.408412
0.467138
0.488994
0.488375
0.415293
0.410726
0.395538
0.368010
0.433985
0.324548
0.381256
0.334743
0.346904
0.275248
0.378221
0.253584
0.289791
0.242922
0.289157
0.203164
0.219368
0.162487
0.168234
0.085894
0.132679
0.091633
0.078765
0.044215
0.100460
0.066009
0.000830
-0.007146
-0.003185
0.011459
-0.003642
0.020436
-0.091196
-0.013601
-0.062244
-0.117002
-0.082059
-0.112306
-0.007027
0.020769
-0.074315
-0.115588
-0.036876
-0.072055
-0.127124
-0.045687
-0.073732
-0.121838
-0.155084
-0.076838
-0.058822
-0.163095
-0.051365
-0.124420
-0.116267
-0.135324
-0.104190
-0.137567
-0.084593
-0.012866
-0.187198
-0.076893
-0.145208
-0.085203
-0.081328
-0.103004
-0.021402
-0.158138
-0.161747
-0.090778
-0.138714
-0.104481
-0.046292
-0.157295
-0.070272
-0.163002
-0.074102
-0.123500
-0.012806
-0.151799
-0.128056
-0.163818
-0.122598
-0.168949
-0.108025
-0.080878
-0.101627
-0.109663
-0.095610
-0.024873
-0.084252
-0.103512
-0.091380
-0.072621
-0.144585
-0.043632
-0.043230
-0.035743
0.006261
-0.010390
-0.012260
0.066035
-0.038479
0.018405
-0.012256
-0.070309
-0.019016
0.089507
0.105506
0.135681
0.069270
-0.002344
0.099158
0.051337
0.069452
0.131918
-0.007558
0.008577
0.075144
0.048607
-0.013040
0.089669
-0.000628
0.022467
-0.039150
-0.005161
-0.051904
-0.116890
-0.114072
-0.062112
0.013584
-0.048159
-0.071662
-0.089473
-0.043624
-0.070919
-0.105543
-0.072780
-0.053014
-0.062807
-0.057067
-0.098022
-0.059530
-0.163437
-0.068616
-0.160880
-0.119096
-0.121870
-0.021486
0.053774
0.384117
0.614116
0.874914
1.199667
1.250085
1.136983
0.955663
0.561797
0.266702
0.018963
-0.302114
-0.380004
-0.311155
-0.188638
-0.207912
-0.101897
-0.105476
-0.107420
-0.063781
-0.053134
-0.033186
-0.037942
-0.072423
0.039296
0.007663
-0.016027
-0.067036
-0.028329
0.034813
0.031562
0.066936
0.088828
0.055287
0.188530
0.020391
0.094749
0.117813
0.206482
0.299673
0.228565
0.197475
0.221490
0.301258
0.293894
0.349835
0.403001
0.336716
0.402038
0.382127
0.407967
0.343724
0.424899
0.443935
0.394336
0.378412
0.383955
0.456194
0.406001
0.463691
0.413973
0.375449
0.422353
0.382913
0.411687
0.379934
0.389324
0.256090
0.383392
0.305171
0.340883
0.213978
0.246352
0.175675
0.245702
0.230289
0.226087
0.138716
0.126682
0.101692
0.132131
0.073059
-0.002674
0.033293
0.037162
0.023894
0.039778
-0.009755
0.073529
0.044509
0.011014
0.033354
0.067599
-0.004641
-0.095714
-0.046284
-0.010373
0.068871
0.029564
-0.024707
-0.040174
-0.062086
-0.007392
-0.100025
0.028259
-0.058389
-0.088261
0.033781
-0.078913
0.013607
0.027347
-0.044896
-0.043194
-0.044687
-0.032882
0.015630
-0.033363
-0.018068
0.034542
-0.054350
-0.061575
-0.075315
-0.054984
-0.088018
0.015273
-0.066166
-0.015386
-0.108636
-0.111474
0.027037
0.077495
-0.093281
-0.008008
-0.045219
0.002530
0.021513
-0.046850
0.040952
0.040765
-0.040479
-0.075274
-0.059789
0.011145
0.011161
-0.011824
0.063848
0.021916
0.063685
0.048584
-0.044865
0.006365
0.058050
-0.034401
0.017654
0.050099
0.085331
0.015496
0.031765
0.044621
0.141747
0.015744
0.059641
0.121289
0.144560
0.105697
0.205716
0.241652
0.146044
0.189995
0.178424
0.157769
0.183325
0.202967
0.169662
0.203634
0.212872
0.159999
0.179849
0.055392
0.090158
0.082712
0.127083
0.065360
0.079300
0.123410
0.068778
0.058946
0.133537
0.115388
0.006029
0.064509
0.082006
0.010312
0.064212
0.045662
0.046164
0.010608
0.004995
0.012077
-0.010586
0.032772
-0.083038
0.003628
0.035420
0.014701
0.096079
0.309669
0.587503
0.838578
1.229886
1.451952
1.468682
1.232782
0.782915
0.527461
0.280648
-0.066413
-0.149282
-0.253026
-0.184454
-0.005009
-0.070066
0.074202
0.088607
0.062898
0.030685
0.115650
0.067360
0.066331
0.155277
0.105331
0.082044
0.138635
0.111501
0.135817
0.167886
0.135956
0.166771
0.222231
0.111724
0.194825
0.252944
0.184734
0.213922
0.259316
0.262638
0.352530
0.450691
0.401150
0.326070
0.507651
0.371340
0.500680
0.460532
0.530577
0.563993
0.597978
0.540283
0.596074
0.515234
0.604679
0.598071
0.538553
0.580317
0.673184
0.533378
0.532423
0.567410
0.550503
0.450097
0.539663
0.482501
0.439392
0.428473
0.397072
0.419470
0.474753
0.417799
0.287858
0.390213
0.314210
0.292088
0.216635
0.269904
0.240107
0.171897
0.245325
0.247343
0.164742
0.171270
0.194107
0.122079
0.107090
0.181618
0.077543
0.090063
0.029969
0.090321
0.134841
0.101577
0.059582
0.067385
0.104609
0.133828
0.016330
0.021453
0.140995
0.081102
0.100511
0.071039
0.064120
0.087178
0.058385
0.103249
0.041058
0.005722
0.085753
0.002557
0.059449
0.090100
0.037488
0.176053
0.158754
0.164488
0.041686
0.108230
0.024309
0.089411
0.107809
0.039140
0.118764
0.019112
0.035182
0.134352
0.119929
0.031148
-0.082186
0.130295
0.101075
0.025759
0.075621
0.091390
0.012298
0.043965
0.037774
0.010467
0.143946
0.120837
0.163046
0.046521
0.119207
0.038287
0.035538
0.114269
0.053506
0.085832
0.106378
0.096542
0.041677
0.150125
0.103083
0.175832
0.109574
0.106227
0.195996
0.226614
0.140096
0.165194
