-0.033904
-0.004048
-0.042653
0.022002
-0.007105
0.014835
0.020541
0.025273
0.023010
-0.018798
-0.005874
0.016113
-0.018973
0.008228
0.007546
-0.040306
0.098003
0.021088
0.072565
-0.020601
0.103401
0.021258
0.027689
0.017216
0.014959
0.113257
0.106251
0.155506
0.077216
0.169322
0.139980
0.095563
0.082218
0.190592
0.135667
0.191802
0.155552
0.230987
0.173283
0.077008
0.276990
0.254487
0.274180
0.194371
0.179680
0.194155
0.159120
0.192165
0.196772
0.234375
0.186123
0.197135
0.152156
-0.017244
0.123425
0.080185
0.050868
0.108932
0.094571
0.047067
0.090080
0.031732
0.085504
0.158456
0.053917
0.063532
0.005955
0.006928
0.027350
-0.043252
0.071798
0.048506
0.014623
-0.044032
0.033937
0.095007
0.043405
0.199512
0.405959
0.642412
0.935242
1.269762
1.415512
1.348532
1.200221
0.899134
0.536861
0.155775
-0.034052
-0.218067
-0.208101
-0.213308
-0.031348
-0.025429
0.059130
0.098490
0.036501
0.092113
0.182726
0.013122
0.116411
0.083935
0.114865
0.120487
0.161131
0.101857
0.228877
0.130901
0.172457
0.224939
0.085456
0.223368
0.301732
0.206779
0.295194
0.236507
0.415229
0.401757
0.346160
0.382982
0.389956
0.473662
0.441465
0.469718
0.483161
0.532239
0.536142
0.557464
0.529736
0.528635
0.487104
0.613918
0.647302
0.541556
0.708131
0.624031
0.522709
0.499044
0.637113
0.560264
0.556282
0.632341
0.533222
0.452843
0.507011
0.442291
0.529764
0.447142
0.341280
0.406390
0.377214
0.352437
0.307434
0.351937
0.259281
0.166849
0.300709
0.218210
0.207085
0.196270
0.182300
0.196525
0.106452
0.185518
0.201222
0.234841
0.169723
0.124548
0.098599
0.151833
0.097516
0.031403
0.169993
0.116129
0.080895
0.085658
0.087222
0.108652
0.085876
0.101700
0.141438
0.156555
0.078859
-0.012438
0.085712
0.168154
0.018134
0.056603
0.066325
0.108566
0.064773
0.063027
0.107128
0.106802
0.100481
0.222658
0.146527
0.169478
0.197944
0.140629
0.135086
0.167120
0.094584
0.072059
0.039577
0.097715
0.103145
0.098380
0.093752
0.203217
0.061733
0.092947
0.039053
0.132391
0.157350
0.065320
0.019280
0.104522
0.051089
0.047148
0.074741
0.075138
0.142556
0.174813
0.121495
0.067514
0.184508
0.104890
0.113528
0.081464
0.134437
0.168527
0.134426
0.122677
0.098472
0.214662
0.203957
0.232817
0.275772
0.195230
0.167554
0.235583
0.267374
0.210072
0.313689
0.245899
0.231391
0.227936
0.157748
0.243923
0.262144
0.347822
0.275039
0.168350
0.286566
0.233757
0.135790
0.260884
0.246689
0.205902
0.165586
0.015318
0.072389
0.216523
0.118391
0.051196
0.050325
0.083216
0.049434
0.084117
0.115111
0.025929
0.094489
0.054419
0.082167
0.156769
0.068752
0.086725
0.008332
0.104545
0.136235
0.098006
0.102605
0.274440
0.546706
0.923602
1.269058
1.499117
1.417181
1.299908
1.049794
0.714684
0.369615
0.063267
-0.089405
-0.157079
-0.144822
-0.080179
-0.035054
0.041191
0.053661
0.086720
0.130180
0.107771
0.208118
0.168987
0.120345
0.098405
0.172252
0.094069
0.117814
0.209825
0.118570
0.179380
0.130329
0.223965
0.206864
0.227909
0.270563
0.281356
0.336052
0.396858
0.360123
0.277332
0.384051
0.391449
0.443504
0.451512
0.405319
0.514900
0.470565
0.491781
0.505350
0.621166
0.528301
0.582826
0.616215
0.545150
0.561740
0.632381
0.531376
0.578185
0.560498
0.512762
0.558999
0.477463
0.504462
0.527827
0.522262
0.403774
0.433304
0.392841
0.376325
0.398105
0.382191
0.303586
0.318048
0.328261
0.192966
0.271404
0.277390
0.166094
0.187004
0.159122
0.055359
0.152733
0.189894
0.054315
0.159216
0.156345
0.097095
0.075917
0.010558
-0.038830
0.099750
0.020461
0.073619
-0.060526
0.091263
0.059708
-0.005343
-0.061774
-0.032013
-0.011260
0.002868
-0.024800
0.102592
-0.021174
0.038494
-0.022832
0.028986
-0.025756
-0.015737
-0.022930
0.047086
-0.015768
0.002783
0.134840
0.129070
-0.068197
-0.045873
0.041460
0.068811
0.080480
-0.009494
-0.012176
-0.084787
-0.005979
-0.060336
0.016977
-0.028610
0.060738
0.039884
0.037147
0.014863
-0.053365
-0.018815
-0.008559
0.035703
-0.044733
0.018627
-0.050542
0.020663
-0.048853
0.069195
0.044235
0.050551
-0.045210
-0.054113
-0.004468
-0.079012
0.051654
0.006600
0.045863
-0.071451
0.099981
0.032907
0.024822
0.018359
0.092989
0.180006
0.044428
-0.004348
0.150505
0.042416
0.130125
0.125557
0.142805
0.051618
0.140940
0.154841
0.184776
0.150663
0.240486
0.106578
0.177082
0.150753
0.144945
0.054317
0.150235
0.090544
-0.002913
0.167565
0.091193
0.098876
0.086737
0.074193
0.066806
0.014298
0.022184
0.078460
0.034439
0.056399
-0.011378
-0.009414
-0.068436
-0.007919
-0.044405
-0.028495
-0.034329
-0.065365
-0.070849
-0.038488
-0.149354
-0.117716
-0.006603
-0.142510
0.005261
0.138677
0.287672
0.657175
0.936031
1.251884
1.362016
1.364916
1.097091
0.819450
0.441458
0.062715
-0.185681
-0.266805
-0.323576
-0.227030
-0.110467
-0.128418
-0.014033
-0.021549
-0.050480
0.026206
0.031747
0.043978
0.007723
0.044651
-0.062472
0.040686
0.050000
0.066860
0.022182
0.048403
0.053996
0.110744
0.170943
0.107308
0.211887
0.222008
0.184718
0.177810
0.234939
0.212392
0.281599
0.338639
0.269224
0.330277
0.386764
0.359023
0.359347
0.416975
0.436459
0.455195
0.420922
0.529137
0.442505
0.407973
0.468487
0.439628
0.460661
0.484903
0.437216
0.541084
0.510419
0.445756
0.417854
0.418108
0.430185
0.419371
0.359065
0.342602
0.324739
0.245407
0.288337
0.266769
0.329606
0.216065
0.248657
0.180123
0.132755
0.195769
0.122314
0.106280
0.079757
0.087289
0.015588
0.038823
0.070556
0.002085
0.033835
-0.038899
-0.003802
-0.005066
0.019224
-0.020158
-0.046807
0.027711
-0.014869
-0.065095
0.016844
-0.103567
-0.046763
-0.035310
-0.025722
-0.055422
0.051600
0.012053
-0.084822
-0.004278
-0.119766
-0.080400
-0.055089
-0.140564
-0.019193
-0.049334
-0.039057
-0.055639
-0.014400
-0.009850
-0.006178
-0.070914
-0.047231
-0.082215
-0.016242
-0.083312
-0.090144
-0.075744
-0.012704
-0.068340
-0.027598
-0.045857
-0.106938
0.050642
-0.076845
-0.036948
-0.023383
-0.070396
-0.024611
-0.049030
-0.072225
-0.090515
0.075072
-0.131991
0.026297
-0.085665
0.007558
0.029314
-0.020353
-0.000500
-0.024675
-0.006211
0.023278
-0.075019
-0.044743
0.024896
0.024923
0.094517
0.048316
0.055973
0.056222
0.101095
0.118393
0.046489
0.076569
0.085886
0.136611
0.165105
0.144124
0.044077
0.120150
0.127888
0.081491
0.220642
0.171218
0.091079
0.160141
0.205946
0.091537
0.137368
0.155919
0.133057
0.168075
0.107244
0.082237
0.073628
0.089130
-0.002692
0.031567
0.014747
-0.012885
-0.041591
-0.001589
0.010501
0.027303
0.025844
0.063982
-0.006631
-0.048988
0.007248
-0.097732
-0.052281
-0.037631
0.035247
0.018426
-0.087618
-0.025792
0.025811
0.171977
0.226426
0.563868
0.810828
1.123315
1.356714
1.396529
1.235698
0.922374
0.479698
0.202396
0.030291
-0.164786
-0.273404
-0.183802
-0.056126
-0.015850
-0.042980
0.127542
0.014985
0.001872
0.023536
0.015497
0.121575
0.114383
0.074839
0.110637
0.148886
0.118391
0.143292
-0.004596
0.130941
0.185947
0.192832
0.195569
0.221851
0.353700
0.207342
0.226635
0.249340
0.198548
0.261788
0.402147
0.389959
0.423298
0.381409
0.394117
0.455668
0.431290
0.417333
0.478389
0.580546
0.516791
0.514363
0.547035
0.542597
0.521999
0.505744
0.434347
0.590888
0.567071
0.566065
0.438918
0.530923
0.518628
0.549504
0.512580
0.433672
0.474601
0.402210
0.424130
0.257030
0.410685
0.330968
0.329024
0.319250
0.315579
0.254016
0.357993
0.168808
0.196621
0.148111
0.161246
0.108338
0.114077
0.125636
0.145214
0.137187
0.160876
0.149438
0.021382
0.014458
0.197510
0.059299
0.024255
0.045378
0.151426
0.026275
0.023382
0.057875
0.039559
0.004529
0.076843
0.075779
0.026658
0.040182
0.109456
0.098845
-0.000734
-0.018537
0.112989
0.052348
-0.008014
0.094243
0.035187
0.030889
0.038779
0.000580
0.057428
0.117956
0.008266
0.036044
0.043095
0.035063
0.062881
0.042608
0.095258
0.162440
0.026746
0.036455
0.085025
0.036722
0.062410
-0.033170
0.033686
0.133740
0.114820
0.139876
0.160116
0.109154
0.171748
0.073908
0.072932
0.083083
0.171507
0.127839
0.163244
0.146740
0.071327
0.099264
0.158264
0.128008
0.154058
0.157726
0.109242
0.153272
0.117788
0.204178
0.149256
0.225995
0.208755
0.177216
0.136770
0.252157
0.262426
0.235780
0.232537
0.232932
0.250405
0.212820
0.271046
0.245755
0.217828
0.307676
0.232791
0.250821
0.269965
0.185428
0.258024
0.177199
0.143285
0.128469
0.201588
0.150717
0.147235
0.209382
0.139725
0.192892
0.191902
0.096970
0.077518
0.068735
0.111458
0.099827
0.125213
0.132905
0.076855
0.144702
0.135211
0.122647
0.131174
-0.002430
0.041225
0.155650
0.112170
0.167597
0.243854
0.427078
0.720987
1.058109
1.375219
1.469605
1.424259
1.240092
0.918156
0.515993
0.155479
-0.117341
-0.191541
-0.165095
-0.142535
0.036438
0.102997
0.080182
0.087339
0.164952
0.160453
0.029116
0.182651
0.161559
0.117407
0.177764
0.181196
0.138112
0.172997
0.153039
0.302279
0.252486
0.225004
0.201731
0.319634
0.189241
0.436007
0.290543
0.358559
0.430643
0.488205
0.365293
0.364818
0.487211
0.416453
0.461194
0.571084
0.537916
0.556527
0.539196
0.566865
0.664899
0.541472
0.642594
0.558907
0.606535
0.608066
0.562647
0.676194
0.600510
0.607672
0.638219
0.598388
0.566962
0.598305
0.440581
0.566151
0.480218
0.501754
0.465592
0.453700
0.423283
0.389881
0.426925
0.311980
0.373975
0.387994
0.253829
0.225788
0.211105
0.288626
0.196855
0.193970
0.234112
0.159788
0.217466
0.119001
0.190002
0.177778
0.118848
0.184523
0.057400
0.075373
0.102911
0.153167
0.095530
0.154094
0.128235
0.138372
0.121174
0.117117
0.132195
0.096941
0.106287
0.024148
0.085971
0.094397
0.159420
0.092023
0.174489
0.075186
0.125228
0.102908
0.105470
0.071390
0.144138
0.130381
0.073749
0.067286
0.050419
0.042668
0.072360
0.069772
0.149530
0.119066
0.070226
0.080449
0.034093
0.075569
0.048082
-0.011784
0.114016
0.067217
0.087709
0.001147
0.059548
0.066027
0.080779
0.047385
0.019897
-0.014464
0.151000
0.090074
0.083077
0.061013
0.115995
0.079511
0.178951
0.127922
0.050350
0.043919
0.081463
0.140156
0.099166
0.171858
0.127525
0.206931
0.087928
0.166200
0.041704
0.120638
0.149956
0.239096
0.177901
0.257143
0.218358
0.231745
0.239030
0.198710
0.212557
0.237264
0.292721
0.226965
0.196406
0.087880
0.210043
0.204352
0.212608
0.181551
0.098785
0.163364
0.123190
0.152193
0.109042
0.136740
0.182788
0.030119
0.117422
0.043130
0.055466
0.007550
0.118938
0.076652
0.112044
0.029818
-0.019570
0.035720
0.049701
0.002307
0.086461
0.056317
0.085052
0.008198
0.029385
0.058196
0.111538
0.275365
0.560293
0.877541
1.160162
1.414962
1.468164
1.224968
1.079535
0.649246
0.167543
0.023673
-0.173008
-0.207231
-0.196948
-0.193157
-0.083858
-0.046212
0.104253
0.040118
0.090464
0.079642
0.078526
0.112551
0.056642
0.080424
0.135165
-0.014972
0.109197
0.143620
-0.029343
0.118053
0.071175
0.073419
0.080883
0.247652
0.158429
0.154755
0.335746
0.202752
0.296337
0.233981
0.310276
0.308564
0.450457
0.456994
0.419654
0.447663
0.437745
0.476280
0.545883
0.471298
0.515594
0.460081
0.537943
0.504691
0.499544
0.454164
0.524486
0.596815
0.420729
0.512428
0.461647
0.511171
0.449390
0.414554
0.469670
0.388181
0.376937
0.416782
0.398334
0.275430
0.278816
0.262649
0.330249
0.301399
0.148541
0.174692
0.107553
0.116967
0.126068
0.157145
0.163512
0.052678
0.109105
0.117366
0.027825
0.041386
0.035266
-0.028511
-0.046143
0.016783
0.086448
-0.061233
0.056830
-0.083855
-0.060781
0.066630
-0.033735
-0.016926
-0.027679
-0.028539
-0.050069
-0.045038
-0.086947
0.013812
-0.066263
-0.039673
0.039700
-0.008273
0.000682
-0.072893
-0.062651
-0.020902
-0.010541
-0.055694
-0.125745
-0.105566
-0.085576
-0.136902
-0.027562
-0.025716
-0.060473
-0.122009
0.038000
-0.015608
-0.049328
-0.046084
-0.056265
0.019081
-0.169050
-0.036891
-0.092255
-0.053698
0.007581
-0.066741
-0.082601
-0.049167
-0.024966
0.038635
-0.010477
-0.077683
-0.080794
-0.117885
-0.066333
-0.066675
-0.086505
-0.048640
-0.043903
-0.096803
-0.026990
-0.009302
-0.042500
-0.016197
-0.065203
0.010089
-0.022082
-0.016423
0.026499
0.042369
0.018394
0.049527
0.048375
0.071945
0.103946
0.113980
0.106786
0.143763
0.196637
0.072235
0.070801
0.064488
0.143612
0.126307
0.024967
0.067191
0.022264
0.019222
0.120142
0.115605
0.098462
0.014721
-0.029615
0.039301
-0.080060
-0.056452
0.039432
-0.089836
-0.056250
-0.054545
-0.026902
-0.010257
0.006265
-0.099743
-0.006689
-0.078962
-0.059336
-0.047823
-0.083884
-0.116564
-0.031670
-0.159956
-0.129118
-0.055517
-0.125449
-0.083738
0.000197
0.315972
0.583147
1.004111
1.211836
1.334876
1.251675
1.080899
0.680158
0.293471
-0.027746
-0.255059
-0.257826
-0.305735
-0.377269
-0.131383
-0.038558
-0.095849
-0.106620
-0.122389
-0.013822
-0.103868
0.021756
-0.015676
-0.009022
-0.108886
-0.041237
0.001611
0.033167
0.018990
0.070874
0.016158
0.142726
0.108810
0.077014
0.037060
0.131523
0.155240
0.169000
0.218110
0.305654
0.200168
0.209894
0.288325
0.389645
0.379176
0.411319
0.451567
0.425932
0.433864
0.405942
0.378636
0.432024
0.468860
0.488636
0.444834
0.426959
0.410101
0.380502
0.472880
0.400464
0.369425
0.370334
0.329948
0.373489
0.309583
0.264009
0.367823
0.290667
0.294305
0.272566
0.308782
0.249910
0.211496
0.203364
0.191088
0.135592
0.168548
0.143558
0.155059
0.040961
0.116779
0.095999
0.016033
-0.032162
0.000857
0.001400
0.041415
-0.136070
0.034922
-0.044167
-0.072741
-0.061462
0.005671
-0.018256
0.029162
-0.041025
-0.062460
0.039433
-0.093723
-0.086732
-0.073557
-0.074551
-0.154467
-0.073042
-0.114842
0.009928
0.030853
-0.095924
-0.012403
-0.101375
0.037128
-0.094281
-0.059149
-0.024800
-0.101847
-0.153188
-0.007499
-0.039047
-0.075981
-0.041693
-0.033137
-0.057968
-0.157006
0.054450
-0.021614
-0.073256
0.005852
-0.020183
0.000044
-0.073351
-0.095454
-0.078718
-0.103530
-0.013649
-0.090546
-0.032790
-0.079643
-0.004420
-0.040960
-0.051212
-0.012858
-0.044538
-0.067939
-0.040443
0.002269
-0.029856
0.033322
-0.043244
-0.057050
0.047071
-0.037769
0.079095
-0.033501
0.058618
-0.012782
0.051700
0.083744
0.056618
0.139898
0.089145
0.080242
0.195245
0.149488
0.068290
0.148557
0.192919
0.045939
0.136123
0.197725
0.147215
0.130277
0.131075
0.081384
0.155732
0.166732
0.077543
0.086178
0.106151
0.131193
0.065135
0.003515
0.029000
0.054425
0.032148
0.057316
0.033637
0.057819
-0.009304
0.055199
0.001077
-0.036777
-0.048292
-0.047370
-0.128580
0.040362
-0.039787
0.053314
0.015044
-0.084871
-0.112630
-0.167194
-0.110958
-0.088359
-0.045187
0.086202
0.298291
0.535091
0.912800
1.138923
1.330189
1.351544
1.188617
0.996996
0.549289
0.173078
-0.107484
-0.191196
-0.263593
-0.170192
-0.117902
-0.096938
-0.044690
-0.082666
-0.005506
-0.005183
-0.029717
0.048122
0.031678
0.013288
0.094454
0.066352
0.006227
0.077638
0.139918
0.131523
0.157545
0.103616
0.156057
0.167378
0.238208
0.143262
0.216040
0.255275
0.260995
0.283575
0.359150
0.327774
0.367184
0.361920
0.332147
0.408311
0.452404
0.432417
0.532668
0.465764
0.508047
0.512878
0.535734
0.468244
0.508941
0.523114
0.584608
0.519149
0.486828
0.433950
0.521517
0.493446
0.491796
0.525094
0.414445
0.495483
0.444992
0.356957
0.354278
0.342182
0.295609
0.346538
0.280770
0.290167
0.184789
0.228523
0.299830
0.237081
0.205102
0.191070
0.129964
0.156691
0.202203
0.088156
0.107490
0.111004
0.140444
0.147134
0.077787
0.030397
0.112119
0.004076
0.096797
0.100726
0.104555
0.040729
0.072401
0.023451
0.021141
-0.008440
0.025739
0.058121
0.079203
0.011490
0.023103
0.015482
0.039764
0.072977
0.065769
-0.001504
-0.024115
0.016777
-0.003905
0.000428
0.053069
0.074202
0.029079
-0.023135
0.057563
-0.063458
0.036310
0.044953
0.062366
0.021071
-0.062855
0.061878
0.028258
0.011843
0.128134
0.032836
0.025570
0.036992
0.040411
0.039594
0.059111
0.003388
0.034246
0.109427
0.000423
0.154874
-0.012202
0.108661
0.108442
0.064803
0.066134
0.053630
0.096203
0.099432
0.024574
0.031329
0.008103
0.096152
0.093427
0.109263
0.079614
0.134361
0.095667
0.073521
0.119906
0.098917
0.077933
0.259285
0.179715
0.185459
0.125360
0.246635
0.268518
0.178165
0.242908
0.247845
0.207463
0.252354
0.176841
0.252785
0.207756
0.168229
0.219782
0.138028
0.190558
0.177374
0.163796
0.075659
0.074306
0.079467
0.108603
0.088844
0.071342
0.177214
0.066224
0.090771
0.078571
0.090829
0.085325
0.097555
0.086515
0.080290
0.041867
-0.099545
0.023225
-0.025767
0.100425
-0.005551
-0.007714
0.021340
0.064065
0.207646
0.437568
0.769016
1.123245
1.325104
1.500000
1.390040
1.182574
0.889274
0.379637
0.096934
-0.219052
-0.108642
-0.259349
-0.127914
-0.069600
-0.026953
-0.024747
0.061420
0.025651
0.092741
0.140702
0.042544
0.013590
0.183422
0.082773
0.080466
0.129834
0.125846
0.123487
0.194060
0.055811
0.309233
0.166853
0.180926
0.201981
0.257536
0.313280
0.231340
0.335686
0.394654
0.381646
0.418808
0.396516
0.352152
0.371833
0.441554
0.491655
0.499625
0.520165
0.489803
0.564977
0.569254
0.516353
0.624582
0.521894
0.523429
0.556180
0.572177
0.611933
0.557268
0.556564
0.515789
0.514331
0.506096
0.461856
0.476432
0.449013
0.404989
0.385748
0.388037
0.294991
0.337376
0.323128
0.266462
0.242168
0.236235
0.246062
0.164451
0.291636
0.148053
0.161850
0.194469
0.195776
0.172718
-0.012165
0.122004
0.054378
0.049461
0.059567
0.042023
0.067375
-0.020056
0.050146
-0.049315
-0.011772
-0.039904
0.030583
0.033498
0.050757
-0.002987
0.004745
-0.036189
-0.086392
0.104530
0.027526
-0.037183
0.082969
-0.059652
0.003859
-0.044849
-0.036156
0.080011
0.081126
-0.025212
0.058430
0.014793
-0.055026
-0.058896
0.026552
-0.021257
0.045651
0.013255
-0.016759
-0.000298
0.049516
0.032576
0.085800
-0.041575
-0.036832
-0.095555
-0.047390
0.079087
-0.046017
0.016381
-0.001923
-0.030510
0.027034
0.017260
-0.045170
-0.000519
0.001430
-0.038225
0.000868
-0.007725
-0.038895
-0.044631
0.038586
0.025115
-0.034947
0.079257
0.015711
0.011589
0.006658
0.030413
0.025286
-0.069926
0.098857
0.094226
0.091006
0.088639
0.134248
0.032536
0.148496
0.141562
0.123271
0.114660
0.249606
0.115447
0.205668
0.126706
0.129710
0.113673
0.177013
0.103503
0.086775
0.052516
0.110584
0.182467
0.116152
0.053722
0.062061
0.028150
0.017598
0.029488
-0.006622
-0.016798
-0.032703
-0.041780
0.097888
0.000845
-0.004479
-0.147660
-0.014372
-0.139086
-0.028171
-0.031055
-0.058190
-0.081203
-0.064025
-0.113234
-0.033570
-0.082434
-0.015866
-0.081109
0.072388
0.274226
0.552393
0.808396
1.076350
1.286560
1.341693
1.207635
0.956259
0.531819
0.099821
-0.150095
-0.278573
-0.374086
-0.230346
-0.164068
-0.215660
-0.070727
0.053732
0.020609
0.017168
0.032686
-0.003167
-0.033967
-0.069094
-0.001445
-0.056773
0.013207
0.069351
0.084462
0.008287
0.050569
0.133381
0.125813
0.038412
0.017778
0.161697
0.158272
0.135289
0.105871
0.199132
0.255190
0.183641
0.329792
0.337308
0.271236
0.305161
0.397958
0.305516
0.371035
0.331854
0.348218
0.459797
0.351918
0.439256
0.421921
0.473258
0.422987
0.365490
0.421572
0.449371
0.439483
0.356935
0.411555
0.445490
0.379508
0.397518
0.311824
0.287410
0.264605
0.207434
0.306136
0.197630
0.136468
0.168305
0.114036
0.012819
0.137840
0.124404
0.115987
-0.007763
0.068078
0.023422
-0.006488
0.009160
-0.069282
0.031140
-0.083592
-0.013076
0.020095
-0.004636
-0.059270
-0.047107
-0.116078
-0.152850
0.003821
-0.051367
-0.147706
-0.040867
-0.140185
-0.084110
-0.059726
-0.121032
-0.026227
-0.107407
-0.085107
-0.054295
-0.150044
-0.055193
-0.125782
-0.048953
0.055690
-0.102970
-0.066715
-0.083035
-0.112910
-0.056372
-0.100230
-0.096630
-0.170226
-0.138748
-0.105849
-0.116654
-0.008113
-0.067873
-0.139759
-0.130546
-0.090000
-0.121412
-0.019960
-0.029560
-0.133818
-0.054215
-0.112286
-0.123966
-0.125341
0.017484
-0.063688
-0.182903
-0.151238
-0.167335
-0.103742
-0.020995
-0.106293
-0.178467
-0.117797
-0.073987
-0.003586
-0.137104
-0.081096
-0.128636
-0.157741
-0.017421
-0.079514
0.041841
-0.066353
-0.057945
0.031248
-0.021484
-0.009941
-0.020459
0.037129
0.029041
-0.077422
0.041522
0.050549
0.112762
0.120782
0.175638
0.042075
0.077720
0.084504
0.082622
0.056603
0.116801
0.012428
0.065557
-0.009760
-0.029184
0.040046
-0.026307
0.017091
0.021830
0.042838
0.034811
0.027430
-0.068516
-0.085463
-0.081264
-0.144475
-0.085002
-0.162779
-0.162493
-0.117459
-0.177802
-0.156618
-0.083722
-0.077730
-0.119874
-0.096328
-0.174126
-0.088932
-0.114786
-0.162932
-0.124453
-0.122516
0.136575
0.341438
0.710258
0.937262
1.238936
1.329971
1.260988
0.992108
0.694593
0.191421
-0.069317
-0.270669
-0.346143
-0.247844
-0.261300
-0.123356
-0.188628
-0.181086
-0.035208
-0.030223
-0.019022
-0.027443
-0.020724
0.004908
-0.058889
-0.023224
0.043075
-0.011856
0.009658
-0.033026
-0.045174
0.007774
0.028539
0.064930
0.071760
0.066100
0.193867
0.131460
0.153771
0.227258
0.165120
0.168785
0.266788
0.232082
0.406225
0.311589
0.306385
0.330239
0.367442
0.311591
0.432969
0.446099
0.431580
0.488719
0.339304
0.478691
0.486531
0.461747
0.444892
0.323251
0.392677
0.420280
0.438935
0.352352
0.431557
0.260484
0.274558
0.406181
0.300131
0.345883
0.291889
0.249058
0.198087
0.167438
0.164477
0.194185
0.255033
0.151493
0.113110
0.067125
0.077121
0.061129
0.092932
0.107219
0.048277
0.060269
0.063796
-0.063928
-0.036566
0.043300
-0.054137
-0.058729
-0.006251
-0.010478
-0.070871
-0.045162
-0.083546
-0.049020
-0.003187
0.028628
-0.014838
-0.036729
-0.084110
-0.082490
0.029616
0.014108
-0.049182
0.000894
-0.030544
0.038046
-0.019443
0.021282
-0.082202
-0.068244
-0.094531
-0.039699
-0.036105
-0.015994
-0.044435
-0.023789
-0.179183
-0.009864
-0.111655
-0.028628
0.029047
-0.066957
0.069718
-0.092985
0.014128
-0.097900
-0.064767
-0.002194
-0.052503
-0.042810
-0.018559
-0.077091
-0.036686
-0.018622
-0.114694
-0.025572
0.061437
0.030336
-0.045802
-0.061842
0.006879
-0.050562
-0.003632
0.095442
0.022043
-0.000329
-0.040802
0.048843
-0.045407
-0.040612
0.084253
0.035003
-0.008508
0.072072
0.171141
0.115872
0.175220
0.145066
0.172886
0.125002
0.149889
0.144540
0.238148
0.176052
0.149478
0.170601
0.204234
0.195832
0.229524
0.212000
0.181862
0.143519
0.193910
0.085422
0.109415
0.142376
0.093411
0.082674
0.063032
0.106893
0.081603
0.016345
0.018244
0.002720
0.055898
-0.059142
0.083956
-0.000076
0.052480
0.051265
0.077202
-0.036698
0.084263
0.059610
0.010900
0.042908
0.117659
-0.030126
0.046135
-0.024164
-0.024940
0.069400
0.287550
0.556783
0.901779
1.250722
1.393199
1.441574
1.190492
0.887639
0.550657
0.252796
-0.065473
-0.267192
-0.216787
-0.166387
-0.115785
-0.040039
0.103269
0.049978
-0.015143
0.015110
0.031033
0.105009
0.092840
0.105490
0.001602
0.118448
0.049136
0.180414
0.069829
0.098747
0.137473
0.164712
0.211972
0.164294
0.219252
0.280817
0.251267
0.210850
0.314429
0.355718
0.351589
0.396529
0.363700
0.378561
0.433155
0.414241
0.461617
0.500421
0.432065
0.530023
0.515194
0.618375
0.563656
0.518167
0.540428
0.604556
0.570192
0.663521
0.562927
0.541268
0.638606
0.562667
0.585449
0.510920
0.524772
0.491248
0.539368
0.409864
0.432303
0.395630
0.383774
0.409986
0.450028
0.318978
0.295579
0.274685
0.313848
0.239011
0.243942
0.237003
0.302940
0.208029
0.189267
0.209774
0.169614
0.114068
0.087133
0.209329
0.203116
0.087272
0.027567
0.153422
0.160533
0.160450
-0.006765
0.156865
0.155277
0.073504
0.041869
0.088728
0.157126
0.083523
0.088325
-0.022391
0.183333
0.105202
0.178861
0.132768
0.083688
0.098124
0.048622
0.115542
0.049536
0.030998
0.041869
-0.031387
0.124416
0.152570
0.036554
0.040976
0.125604
0.082667
0.066617
-0.000948
0.061615
0.064167
0.049883
0.131129
0.067284
0.118213
0.095449
0.040960
0.123254
0.106606
0.070711
0.085892
0.094418
0.065932
0.170941
0.068817
0.131515
0.075872
0.004702
0.041239
0.177841
0.065225
0.045094
0.070401
0.110901
0.092056
0.071206
0.075692
0.035646
0.056779
0.116147
0.147933
0.109530
0.068453
0.243972
0.138301
0.164185
0.217606
