-0.001967
-0.047037
0.005168
-0.034629
0.109379
0.063896
-0.069534
-0.058846
-0.052126
0.021199
0.017046
-0.021240
-0.002591
0.049271
0.075702
0.062349
0.036378
-0.023625
0.011381
0.011769
0.109374
0.086276
-0.007335
0.135969
0.121825
0.102536
0.135016
0.040839
0.183655
0.099307
0.141379
0.201862
0.215655
0.108697
0.200627
0.203446
0.231705
0.144158
0.273955
0.221654
0.250781
0.182416
0.104152
0.165002
0.202437
0.203886
0.168836
0.078234
0.041280
0.158216
0.075671
0.073157
0.073251
0.078581
-0.013642
0.102112
0.020064
0.071717
0.112383
0.097138
0.066282
0.076788
0.015419
0.085396
0.056774
0.073073
-0.012877
0.048005
0.117833
0.175921
0.425826
0.681285
1.035044
1.332514
1.482180
1.433127
1.122153
0.710051
0.495596
0.135185
-0.157909
-0.258880
-0.125969
-0.160962
0.013125
0.033430
0.079819
0.093495
0.113065
0.106912
0.158997
0.124496
0.200620
0.185904
0.237901
0.179828
0.158270
0.227232
0.272303
0.315843
0.319831
0.370754
0.263728
0.427528
0.392578
0.335674
0.399491
0.429749
0.433742
0.540432
0.392049
0.478778
0.519996
0.604933
0.714696
0.531802
0.541926
0.647579
0.574397
0.551957
0.606324
0.652000
0.580966
0.601027
0.547196
0.553279
0.594470
0.649031
0.629930
0.500988
0.467658
0.566025
0.425681
0.416024
0.481969
0.422148
0.307192
0.352379
0.370521
0.300855
0.310148
0.320558
0.278315
0.195989
0.232853
0.228100
0.218372
0.138215
0.169656
0.161864
0.203894
0.053961
0.140530
0.189952
0.171770
0.030673
0.176215
0.086941
0.058752
0.081238
0.096483
0.069657
0.049946
0.065549
0.123461
0.075781
0.189528
0.030771
0.178788
0.115689
0.134694
0.170639
0.124326
0.179835
0.140672
0.027744
0.048606
0.180357
0.147548
0.102285
0.121791
0.092202
0.090236
0.104660
0.079609
0.095305
0.099224
0.056608
0.123476
0.021838
0.145024
0.100081
0.165109
0.079329
0.108488
0.159028
0.048920
0.082382
0.067278
0.095283
0.164944
0.063064
0.099079
0.157724
0.118081
0.095876
0.195201
0.202864
0.035080
0.179649
0.216328
0.291344
0.174674
0.211522
0.183760
0.160417
0.248447
0.278806
0.169294
0.236445
0.216845
0.316432
0.278175
0.216663
0.239504
0.275501
0.224611
0.299425
0.223479
0.286417
0.210914
0.273124
0.200020
0.231200
0.243827
0.202435
0.129186
0.147573
0.056641
0.189337
0.207923
0.072171
0.104345
0.178827
0.113738
0.061194
0.147787
0.085754
0.105637
0.098367
0.078614
0.075261
0.068311
0.057614
0.253932
0.410462
0.638800
1.027754
1.301587
1.500000
1.424308
1.243294
0.839319
0.466735
0.117045
0.002682
-0.161035
-0.071726
-0.033447
-0.008850
0.117715
0.163833
0.137035
0.115481
0.108194
0.177749
0.136426
0.237817
0.219230
0.176101
0.189974
0.231268
0.176298
0.209708
0.302780
0.316273
0.283547
0.380964
0.365188
0.344103
0.375311
0.418878
0.371082
0.480452
0.463696
0.451715
0.518761
0.498055
0.504346
0.542040
0.565694
0.678451
0.586943
0.659733
0.665105
0.676641
0.561611
0.542849
0.663460
0.624039
0.571034
0.485203
0.514931
0.474133
0.466083
0.429628
0.510598
0.450273
0.429016
0.325484
0.405476
0.410346
0.393280
0.269965
0.254779
0.263375
0.234145
0.232788
0.246021
0.189334
0.145908
0.164995
0.166468
0.146879
0.206569
0.184060
0.073362
0.151012
0.035179
0.061000
0.086009
0.058226
-0.008381
0.068609
0.037691
0.125885
0.179161
-0.054036
0.045295
0.074422
0.065853
0.073024
0.079380
0.033847
0.072374
-0.005693
0.076524
0.119303
0.080780
-0.048944
0.036623
-0.009334
0.058256
0.073854
0.069047
0.042003
0.113995
-0.038465
-0.008785
0.021402
0.076146
-0.021190
0.054566
-0.007839
0.038603
0.078487
0.048980
-0.040561
0.041856
0.101251
-0.015023
-0.078190
-0.017407
0.070451
0.074914
-0.008725
0.127784
0.025311
-0.019559
0.043182
0.033559
0.069739
0.067284
0.085159
0.138367
0.139409
0.153105
0.146799
0.102942
0.184013
0.142750
0.123198
0.203830
0.161502
0.195223
0.272686
0.118632
0.246275
0.170463
0.184100
0.209314
0.193670
0.135427
0.186267
0.222890
0.104000
0.147560
0.164912
0.075942
0.084718
0.072107
0.049595
0.079316
0.090452
0.102984
-0.003353
0.027000
-0.019774
0.025392
-0.019148
0.014002
-0.024968
-0.027809
0.008704
-0.020103
0.017536
-0.002771
-0.027784
0.075468
0.087429
0.352589
0.622717
0.852389
1.120286
1.428880
1.351082
1.159246
0.841529
0.424086
0.110291
-0.120206
-0.182791
-0.240038
-0.070343
-0.027704
-0.077219
0.014497
0.011351
0.083338
-0.025171
0.028858
0.055607
0.048612
0.039838
0.013450
0.129542
0.067945
0.084659
0.061342
0.168643
0.202345
0.225259
0.168927
0.270126
0.324768
0.231225
0.328613
0.326238
0.344955
0.379270
0.424013
0.350543
0.418437
0.447936
0.500242
0.441279
0.475865
0.445798
0.482979
0.554409
0.476130
0.498447
0.455919
0.429275
0.441793
0.482001
0.541839
0.493285
0.475403
0.475933
0.476651
0.341336
0.430413
0.315791
0.327569
0.242930
0.328031
0.228662
0.256540
0.228309
0.181556
0.157710
0.199987
0.096383
0.114658
0.097811
0.159076
-0.032956
0.045738
-0.026278
0.073235
0.020651
-0.069123
-0.050987
0.014110
-0.025252
-0.017860
-0.015078
0.010958
-0.044514
-0.043874
0.012588
-0.034933
0.054216
-0.010485
-0.019374
0.080086
0.078546
-0.022065
-0.081666
-0.050389
-0.105978
0.019764
-0.062052
-0.051695
-0.019304
-0.062395
-0.061860
-0.137440
0.082886
-0.022582
-0.118527
0.004635
-0.105897
-0.106694
-0.064661
-0.076184
-0.020984
-0.074775
-0.012494
-0.123557
-0.077684
-0.016568
-0.037038
-0.052906
-0.101242
-0.007237
-0.094605
-0.035932
-0.090028
-0.028914
-0.061412
-0.029950
0.034900
0.009196
-0.053409
0.078387
-0.060881
-0.023058
0.020228
0.015588
0.101051
0.035265
-0.034917
0.032153
0.098939
0.130571
0.151597
0.090741
0.075805
0.088866
0.112560
0.190739
0.101013
0.116629
0.096408
0.142543
0.134251
0.098680
0.161090
0.078086
0.084060
0.037498
0.053734
0.028609
-0.043881
0.039042
0.064144
0.041989
0.087272
-0.022042
0.005456
-0.058647
-0.063518
-0.033003
-0.060993
-0.081151
0.060652
-0.021490
-0.088428
-0.032582
-0.061805
-0.050928
-0.075080
0.008910
0.154300
0.463143
0.720854
1.132152
1.409863
1.366325
1.239476
0.971357
0.574868
0.153908
-0.062742
-0.124058
-0.206844
-0.170717
-0.186480
-0.027458
0.000110
0.009209
0.026949
0.033565
0.022452
0.102684
0.069774
0.019017
0.081238
0.051621
0.147124
0.095720
0.128456
0.112040
0.179943
0.105902
0.216461
0.183068
0.205109
0.319232
0.280990
0.363760
0.288512
0.325572
0.412580
0.378594
0.375641
0.408989
0.455239
0.532592
0.391111
0.483737
0.494960
0.527108
0.472334
0.511326
0.527223
0.505307
0.446609
0.485276
0.438760
0.459771
0.493248
0.432598
0.435400
0.342602
0.399781
0.351895
0.387284
0.292898
0.277868
0.363498
0.273289
0.282315
0.190738
0.230842
0.181735
0.153007
0.213656
0.172517
0.138858
0.115827
0.074568
0.085234
0.040327
0.025817
0.122649
0.129642
0.091315
0.088271
0.031887
0.030218
0.076339
-0.072651
0.086497
0.014940
-0.045756
0.058532
-0.100211
-0.005782
0.047262
-0.061100
0.006799
-0.074407
0.030018
-0.047157
0.067319
0.002382
0.017328
0.011647
0.019789
-0.004830
0.004984
0.011410
0.093966
0.005006
0.071667
0.014167
-0.016769
0.014856
0.110149
0.011053
-0.011304
-0.002386
-0.004269
-0.015508
-0.051720
0.001660
-0.002035
-0.023923
0.019096
-0.009538
0.040916
-0.017460
0.091826
0.000901
-0.019204
0.021765
-0.008960
0.116479
0.109572
0.069791
0.123127
0.072436
0.041748
0.067774
0.217470
0.063601
0.109735
0.186641
0.185763
0.166492
0.069920
0.246237
0.151399
0.199441
0.213154
0.281899
0.161354
0.210978
0.149109
0.198752
0.176320
0.174214
0.213925
0.205719
0.181575
0.123960
0.060147
0.117200
0.161113
0.116755
0.118009
0.091887
0.133996
0.173268
0.105192
0.072806
0.046363
0.110806
0.079718
0.023396
0.083630
0.090862
0.037660
-0.032412
0.064733
0.076985
0.104366
0.257196
0.549509
0.774029
1.094733
1.398185
1.472301
1.304258
1.110652
0.656806
0.384332
0.091737
-0.147666
-0.166722
-0.063988
-0.060800
0.000379
0.145073
0.057245
0.149361
0.207254
0.041298
0.178902
0.204209
0.181011
0.223157
0.211740
0.222503
0.316939
0.267244
0.325229
0.332435
0.263648
0.304296
0.369593
0.297224
0.362571
0.304450
0.444987
0.363175
0.532737
0.547483
0.553101
0.495141
0.570974
0.541428
0.542686
0.584052
0.577083
0.606420
0.586817
0.723289
0.576672
0.617678
0.659687
0.635523
0.603952
0.577403
0.629298
0.571829
0.605844
0.446719
0.505578
0.372551
0.483442
0.444414
0.401173
0.466316
0.417660
0.384356
0.404981
0.323982
0.388248
0.335993
0.201910
0.240280
0.259562
0.170833
0.219400
0.148799
0.136786
0.229682
0.149672
0.095688
0.165760
0.017811
0.208036
0.177221
0.123102
0.219702
0.085194
0.155434
0.069438
0.041596
0.081192
0.045948
0.133592
0.112591
0.181188
0.068623
0.048919
0.041713
0.128717
0.052130
0.095646
0.009073
0.075683
0.108690
0.145078
0.111847
0.087518
-0.033395
0.136777
0.106995
0.109666
0.079894
0.162230
0.120800
0.093351
0.028893
0.089474
0.027701
0.091110
0.123095
0.123164
0.103330
0.068508
0.055508
0.125978
0.107574
0.099154
0.151503
0.119637
0.093369
0.116638
0.179204
0.006510
0.102723
0.129488
0.201806
0.151515
0.115144
0.255674
0.266704
0.138425
0.273693
0.244993
0.335457
0.266421
0.210711
0.362550
0.272473
0.271458
0.315425
0.267767
0.242559
0.255786
0.268103
0.297859
0.268931
0.238266
0.261869
0.309551
0.229548
0.201344
0.247821
0.145819
0.113924
0.162825
0.146748
0.169289
0.124516
0.156016
0.091011
0.023178
0.083270
0.083510
0.142155
0.087808
-0.001537
0.191877
0.096468
0.138778
0.058879
-0.015609
0.190379
0.340784
0.450397
0.733990
1.147798
1.363305
1.452024
1.435137
1.171314
0.686904
0.448028
0.071275
-0.074437
-0.126932
-0.096276
-0.099928
0.039208
0.048309
0.007357
0.113369
0.115403
0.137811
0.214841
0.191432
0.187752
0.215514
0.121249
0.232866
0.171523
0.215938
0.339539
0.272068
0.333247
0.348857
0.406238
0.302795
0.317041
0.369555
0.357411
0.406534
0.488834
0.453463
0.482562
0.472219
0.571033
0.623773
0.496347
0.639260
0.570809
0.569099
0.587793
0.638491
0.607049
0.532576
0.613129
0.603890
0.555861
0.539379
0.546884
0.536449
0.617503
0.539797
0.492804
0.485075
0.472295
0.458869
0.424904
0.318502
0.307742
0.362821
0.397404
0.296216
0.289420
0.253577
0.234414
0.289758
0.156102
0.138121
0.165927
0.132334
0.224132
0.181593
0.068276
0.138272
0.126944
0.105037
0.123088
0.148567
0.092010
0.074005
0.157668
0.044792
0.104978
0.000334
-0.024413
0.020263
0.180411
0.015602
0.021274
0.068953
0.065719
0.019947
0.008949
0.025288
0.096333
0.032609
0.127694
-0.016280
0.040891
0.020297
0.027446
0.062930
0.123753
-0.042873
0.161291
0.021536
0.017026
-0.017918
0.024316
0.062116
-0.006596
-0.022257
0.006802
0.033223
-0.038715
0.018814
0.058546
0.027568
-0.021756
-0.023272
0.021900
0.007361
0.017430
-0.017289
0.039109
-0.048473
-0.056583
-0.028198
0.094276
0.075584
0.096638
0.010971
0.122822
0.040077
0.103730
0.208299
0.198978
0.142172
0.182636
0.119601
0.211821
0.203716
0.170188
0.206979
0.143885
0.218330
0.174912
0.175083
0.156194
0.153617
0.267690
0.109597
0.080850
0.174666
0.106852
0.123185
0.040874
0.050905
-0.014070
-0.105856
0.033310
0.004720
0.056392
0.007878
-0.020775
-0.004973
0.081696
-0.057417
-0.061550
0.026555
0.004832
-0.021947
-0.028568
0.010832
-0.041516
0.032499
0.134678
0.341167
0.635551
1.022701
1.264486
1.416234
1.295256
1.118097
0.717659
0.357113
0.063718
-0.151757
-0.256530
-0.177180
-0.098855
-0.169122
-0.069687
0.005936
-0.000544
0.012308
0.045596
0.005972
0.022490
-0.026097
0.042775
0.064577
0.074110
0.021436
0.195481
0.202536
0.201620
0.130947
0.178358
0.243065
0.237470
0.343611
0.303839
0.358207
0.318067
0.273332
0.321903
0.360778
0.455101
0.415087
0.378737
0.454940
0.469219
0.496403
0.420134
0.512098
0.506199
0.512321
0.532837
0.449031
0.463300
0.506083
0.474873
0.385066
0.402398
0.364834
0.413986
0.314088
0.323713
0.323265
0.268970
0.271689
0.281806
0.314521
0.164777
0.172724
0.132953
0.147271
0.114110
0.238698
0.056085
0.132312
0.085872
0.061709
0.058000
0.053815
0.000029
0.065727
-0.030394
0.013422
-0.013610
-0.012240
-0.038925
0.008262
-0.018336
-0.102246
0.025396
-0.036433
-0.096098
-0.078315
-0.002417
-0.052018
0.000946
-0.141835
0.050527
-0.053688
-0.047868
-0.056865
-0.115646
-0.105263
-0.107639
-0.049724
0.013506
-0.086421
-0.034149
-0.063126
-0.074899
-0.024857
-0.008295
-0.065125
-0.052479
-0.106937
-0.076062
-0.079166
-0.053634
0.025750
-0.114104
-0.180104
-0.081474
-0.036110
-0.119613
-0.107341
-0.090803
-0.011455
-0.068527
-0.086368
-0.068481
-0.122212
-0.066935
-0.029945
-0.153033
-0.108239
-0.026156
-0.100603
0.052691
-0.007269
-0.056269
0.036239
0.034604
0.045376
0.093676
0.047471
0.054974
0.081904
0.075936
0.096923
0.070081
0.101490
0.161253
0.023093
0.153558
0.091122
0.109725
0.071056
0.054402
0.121231
0.037801
0.025773
0.014187
-0.004475
0.081890
-0.062476
0.030635
-0.066954
0.083436
-0.004701
0.010636
-0.012872
-0.031518
-0.054851
-0.021973
-0.055439
-0.113062
-0.084321
-0.085461
-0.153584
-0.010007
-0.090373
-0.052543
-0.198208
-0.073161
0.054251
0.187357
0.479111
0.824627
1.052612
1.270586
1.363059
1.198064
0.786248
0.354253
0.006442
-0.197520
-0.290742
-0.229247
-0.135835
-0.185364
-0.130175
-0.044589
-0.063743
0.010524
-0.070768
-0.035744
-0.035506
0.039272
0.005257
-0.004733
0.038243
0.137070
-0.001004
0.052742
0.071134
0.126672
0.133124
0.219667
0.184147
0.142804
0.312299
0.306463
0.293556
0.326801
0.361463
0.365984
0.320046
0.354214
0.325500
0.474779
0.442926
0.399578
0.338596
0.417989
0.511586
0.503645
0.469904
0.454401
0.493395
0.492157
0.429140
0.522300
0.372034
0.459306
0.411276
0.429187
0.314802
0.357097
0.346297
0.360803
0.264282
0.306533
0.281686
0.189968
0.189600
0.231214
0.088563
0.163917
0.087676
0.069903
0.046701
0.140978
0.018090
0.015236
-0.000809
0.109540
0.019076
0.115566
0.025976
0.009529
-0.003780
0.001572
-0.005723
0.014183
0.009557
-0.071982
-0.034056
-0.059487
-0.128240
-0.045041
-0.057339
-0.114300
-0.023241
-0.090417
-0.007262
0.032594
0.002902
-0.101296
0.013681
-0.092484
-0.011295
-0.030593
0.032211
-0.030110
-0.072024
-0.119963
0.045591
0.060648
-0.109987
-0.034346
0.011760
0.070731
0.050047
-0.096947
-0.004922
-0.052083
0.054339
-0.010128
0.049141
-0.033674
-0.082209
0.038327
0.048433
0.031504
-0.067659
0.016036
0.000634
0.017971
-0.019023
-0.006602
0.031691
-0.017201
0.142367
0.014087
0.036538
0.039775
0.042325
0.127203
0.053207
0.080151
0.089176
0.141267
0.245270
0.130359
0.161827
0.182633
0.153492
0.203807
0.087171
0.116643
0.103066
0.142071
0.139837
0.154947
0.159188
0.155762
0.122594
0.134237
0.062193
0.078854
0.132151
0.128064
0.040518
0.101171
-0.024801
0.026352
-0.002039
0.012756
0.093188
-0.020378
-0.025114
0.011756
0.020540
0.004933
-0.063068
-0.092712
0.085258
0.066278
0.086024
0.151687
0.313053
0.485809
0.881345
1.191476
1.426455
1.404821
1.247017
0.917367
0.444160
0.174752
-0.058858
-0.080506
-0.210390
-0.078901
-0.089198
0.009153
0.075839
-0.002317
0.124572
0.098700
0.102971
0.111890
0.089324
0.218315
0.055354
0.178164
0.169897
0.203904
0.186064
0.255968
0.259785
0.249853
0.288690
0.308543
0.282990
0.326380
0.381403
0.367429
0.363146
0.423336
0.426496
0.493813
0.467687
0.508809
0.416511
0.519741
0.484992
0.605175
0.579488
0.594142
0.620710
0.544957
0.550097
0.496814
0.543802
0.598209
0.583901
0.533399
0.587313
0.384811
0.423014
0.420222
0.489430
0.366784
0.310317
0.445769
0.337964
0.276419
0.364453
0.283393
0.311179
0.261144
0.171181
0.210433
0.244382
0.209691
0.207165
0.192482
0.127869
0.139887
0.153346
0.163239
0.056422
-0.004142
0.103246
0.122640
0.009165
0.090240
0.094819
0.071245
0.080512
0.086710
0.055473
0.062818
0.174862
0.069887
0.056185
0.019282
0.003638
0.017000
0.022796
0.019372
0.056536
0.063045
0.072857
0.019835
0.033580
0.026320
-0.046009
0.012008
0.047986
-0.004462
-0.016601
-0.078679
0.014895
0.159709
0.139112
0.087689
0.052993
0.028573
-0.032786
0.048659
0.083251
0.086593
0.060391
0.056171
0.021486
-0.052746
0.073207
0.039582
0.106566
0.068659
0.076267
0.166710
0.058019
0.132874
0.123235
0.056750
0.274901
0.120493
0.174503
0.178925
0.158170
0.091383
0.283042
0.194410
0.144142
0.207393
0.252633
0.222264
0.251954
0.266507
0.179822
0.190962
0.221860
0.255481
0.306668
0.274074
0.216221
0.116179
0.224524
0.172620
0.168380
0.161140
0.104607
0.125554
0.054260
0.225211
0.080290
0.125304
0.091144
0.031054
0.144556
0.109036
0.129843
0.000409
0.136147
0.077575
0.030128
0.090246
0.084280
-0.027505
0.033516
-0.032481
0.153277
0.308762
0.507289
0.756179
1.127361
1.405306
1.401887
1.308201
1.016110
0.672443
0.254882
-0.034725
-0.137470
-0.139454
-0.072707
-0.058463
0.033838
0.042811
0.099613
0.073206
0.053236
0.141039
0.145308
0.035647
0.146879
0.161431
0.087721
0.163149
0.193263
0.179761
0.295943
0.160095
0.250620
0.251640
0.323709
0.354326
0.384658
0.361532
0.358165
0.393828
0.455239
0.440875
0.411859
0.583630
0.513445
0.482160
0.522870
0.551996
0.493261
0.531634
0.533107
0.618621
0.578201
0.622295
0.492317
0.544723
0.517576
0.559133
0.546854
0.489059
0.440733
0.485769
0.489724
0.413644
0.434329
0.411311
0.362512
0.244126
0.358636
0.321588
0.327364
0.246804
0.206749
0.283786
0.181371
0.268796
0.193162
0.142031
0.132541
0.109189
0.198113
0.074341
0.088816
0.142474
0.005836
0.131093
0.038720
0.053647
-0.049745
-0.023491
0.047609
-0.010057
0.058142
-0.027826
0.067622
-0.051242
0.030780
0.010077
0.005279
0.010266
-0.018407
-0.023331
-0.025108
-0.070657
0.018192
0.113707
0.062430
0.018672
-0.025484
-0.010041
0.068890
0.049951
-0.001901
0.008308
-0.083600
0.020780
0.067077
-0.009143
0.016963
-0.029486
-0.085561
0.038670
0.029683
-0.062391
-0.009803
-0.007874
0.015298
0.047537
0.042643
0.009223
0.080433
-0.067793
-0.031205
-0.031513
0.016460
-0.005159
-0.011114
0.043545
0.080118
0.046137
0.061068
0.082512
0.015677
0.139252
0.052405
0.035626
0.133634
0.102580
0.129825
0.189956
0.189385
0.251571
0.210412
0.240948
0.135488
0.143531
0.252182
0.132364
0.143255
0.144228
0.190562
0.033684
0.153414
0.061341
0.111818
0.062033
0.100368
0.098077
0.067663
0.105665
-0.008728
0.062802
-0.001605
0.096465
0.050329
0.041001
-0.085675
0.018069
0.047235
0.022994
-0.004224
-0.087717
-0.054399
-0.042545
0.025800
-0.044646
0.102627
0.359348
0.649334
0.926950
1.308981
1.404415
1.207134
0.991187
0.580297
0.195943
-0.081072
-0.217730
-0.224968
-0.209634
-0.140966
-0.199421
-0.053032
0.019719
-0.028839
0.117445
-0.011858
0.017026
-0.049332
0.044228
0.026135
0.044188
0.186913
0.119045
0.120854
0.120237
0.141012
0.112438
0.152894
0.114185
0.166093
0.205773
0.237937
0.240608
0.249370
0.289822
0.362205
0.402093
0.363656
0.317345
0.432626
0.405431
0.392395
0.499731
0.419571
0.485157
0.399016
0.398284
0.513176
0.496041
0.366253
0.459604
0.451562
0.458164
0.342659
0.454127
0.410096
0.351842
0.357431
0.280001
0.225944
0.340440
0.299475
0.188207
0.227873
0.207730
0.177002
0.080782
0.137205
0.122183
0.038618
0.104880
0.123615
-0.024804
0.030533
-0.024934
-0.043578
0.039152
-0.023996
0.035718
-0.066932
0.039697
-0.016863
-0.108881
-0.110610
-0.122804
-0.033828
-0.162010
-0.138437
-0.085507
-0.057184
-0.091610
-0.051445
-0.069478
-0.058646
-0.074718
-0.125916
-0.086830
-0.099413
-0.092686
-0.047225
-0.028531
-0.183868
-0.059627
-0.159066
-0.085013
-0.119624
-0.092858
-0.024511
-0.195552
-0.087792
-0.135370
-0.062010
-0.137590
-0.197673
-0.072625
-0.073656
-0.122753
-0.115414
-0.073147
-0.178259
-0.107013
-0.150611
-0.085258
-0.008775
-0.068201
-0.030419
-0.051212
-0.172048
-0.106093
-0.066729
-0.038149
-0.112284
-0.086191
-0.041690
-0.054358
-0.060178
0.054503
0.007389
-0.010326
-0.027570
0.143373
-0.016474
-0.019868
0.035987
0.041770
0.021478
0.076339
0.070738
0.080929
0.138900
0.017688
0.127244
0.029356
0.120443
0.065453
0.029095
-0.006164
0.120401
0.026680
-0.005678
0.014931
-0.025347
-0.053667
-0.037487
-0.102524
0.008031
-0.052155
-0.056488
-0.038228
-0.136981
-0.136407
-0.047645
-0.117871
-0.065246
-0.103093
-0.075615
-0.073207
-0.113848
-0.063982
-0.073572
0.065552
0.259936
0.501341
0.858506
1.231913
1.227040
1.248848
1.034098
0.673487
0.237479
-0.069564
-0.286038
-0.326833
-0.239666
-0.203633
-0.146850
-0.137614
-0.098012
-0.025746
-0.049051
-0.052698
-0.009360
0.028924
-0.050781
0.057114
-0.014177
0.019736
0.080020
0.109144
0.068232
0.132568
0.135746
0.245381
0.111685
0.204373
0.207867
0.249748
0.268243
0.152749
0.312730
0.330548
0.332374
0.288313
0.343144
0.428474
0.324913
0.416437
0.385154
0.444827
0.506655
0.492910
0.519138
0.470654
0.388042
0.516508
0.387846
0.414544
0.404165
0.410111
0.401696
0.360766
0.329105
0.289357
0.245570
0.279703
0.365380
0.237201
0.244365
0.126648
0.265354
0.144438
0.209196
0.226545
0.122057
0.130558
0.098104
0.078824
0.037380
0.021755
0.057822
0.098401
0.021893
0.045636
-0.028429
0.051511
-0.012523
-0.006120
-0.028132
-0.023586
0.002890
-0.028984
-0.072584
-0.031231
-0.088850
-0.031663
-0.023496
0.015066
-0.042809
-0.097352
-0.039551
0.028139
-0.052507
-0.090090
-0.015444
-0.006393
-0.078130
-0.102516
-0.049331
-0.035231
0.014101
-0.101864
-0.080137
0.000167
-0.019712
-0.034087
-0.065550
-0.048225
-0.109086
-0.012949
-0.107439
-0.099909
-0.034804
-0.012155
-0.074865
-0.047519
-0.052368
-0.016642
-0.076136
-0.054593
-0.074188
-0.044256
-0.098765
-0.065373
0.091251
0.063859
0.002931
0.041625
0.036947
0.041675
-0.005636
0.066003
0.049760
0.086335
0.102851
0.150847
0.108138
0.114019
0.184295
0.076190
0.177601
0.205252
0.050218
0.146509
0.119256
0.249085
0.060992
0.176194
0.090834
0.239485
0.064750
0.115257
0.165212
0.143160
0.075134
0.040571
0.074637
0.046639
0.012622
0.037551
-0.044220
0.052878
0.012023
0.020123
-0.067090
0.001475
0.041486
0.032886
-0.021389
-0.012457
0.029349
-0.013805
0.106367
0.047524
0.079726
-0.044063
0.118771
0.291055
0.700415
0.950788
1.196278
1.359821
1.341797
1.204397
0.850410
0.459831
0.068552
-0.161618
-0.240673
-0.096468
-0.157370
-0.201656
0.032467
-0.008463
0.097684
0.046489
-0.004309
0.084350
0.160666
0.065196
0.127456
0.164178
0.150977
0.069270
0.096477
0.291241
0.156089
0.267668
0.189984
0.241364
0.255238
0.347584
0.303368
0.383216
0.327854
0.367192
0.339193
0.425304
0.508203
0.465081
0.473936
0.486475
0.440097
0.636098
0.594618
0.516000
0.541152
0.651024
0.598599
0.571388
0.621660
0.567445
0.532556
0.524793
0.587049
0.486997
0.444664
0.456189
0.415125
0.382885
0.460301
0.434216
0.342864
0.337814
0.264749
0.251037
0.215586
0.323125
0.248762
0.229591
0.184064
0.210775
0.202760
0.231216
0.079514
0.231695
0.044473
0.090175
0.101496
0.131586
0.081708
0.069353
0.062499
0.070875
0.088047
0.080630
0.129222
0.013144
0.116840
0.118651
0.076279
0.035682
0.118895
0.067334
0.058940
0.120816
0.043033
0.003447
0.047708
0.090406
0.117141
0.040302
-0.000527
0.049700
0.057977
-0.006237
0.049178
0.009874
0.107304
0.174072
0.079038
0.072075
0.094155
0.079617
0.020497
0.103165
0.060942
0.027670
0.036541
0.040079
-0.010515
0.106847
0.121182
0.109441
0.011215
0.117545
0.079743
0.107143
0.106797
0.130969
0.216297
0.045386
0.128482
0.111439
0.107042
0.145007
0.137407
0.152223
0.029286
0.098804
0.194562
0.181990
0.186090
0.259512
0.319801
0.211373
0.182724
0.215003
0.199800
0.240031
0.195433
0.155264
0.211110
0.265535
0.236919
0.292115
0.269127
0.180904
0.133924
0.248753
0.195728
0.141500
0.195875
0.225887
0.099732
0.187408
0.216595
0.157644
0.106632
0.066387
0.066413
0.095128
0.187177
0.103670
0.068964
0.014831
0.053917
0.104264
0.113269
0.115377
0.039283
0.196818
0.355292
0.648207
0.927798
1.303088
1.460726
1.468053
1.281135
0.920522
0.533812
0.277788
0.083751
-0.077915
-0.115761
-0.064543
-0.059251
0.046641
0.078185
0.048708
0.153925
0.119584
0.113880
0.185226
0.190986
