-0.039900
-0.056243
0.028590
0.032508
-0.068803
0.086242
-0.064818
0.019452
0.013403
0.031444
0.090825
0.111263
-0.022230
-0.066174
0.071931
0.070361
0.022511
0.069463
-0.069867
0.045482
-0.013182
0.069733
0.057132
0.074241
0.077139
0.109030
0.107056
0.040706
0.162037
0.098497
0.102244
0.032080
0.198654
0.169301
0.175431
0.236495
0.217133
0.323254
0.267412
0.191822
0.277332
0.275696
0.127760
0.259350
0.216031
0.191873
0.165946
0.238912
0.114353
0.126959
0.182448
0.207738
0.095349
0.087959
0.099200
0.006874
0.105966
0.080468
0.109232
0.106150
0.010772
-0.009694
-0.019433
-0.001192
0.159781
0.022013
0.084637
0.034027
0.051040
0.083176
0.085029
0.115485
0.030977
0.038708
0.011282
-0.027097
0.178782
0.415395
0.645415
1.116139
1.411383
1.461333
1.453707
1.108017
0.752504
0.473908
0.138443
-0.097489
-0.152426
-0.249485
-0.135294
-0.000186
-0.000217
0.107688
0.072913
-0.008652
0.145142
0.145831
0.114516
0.126151
0.091896
0.129393
0.130000
0.207593
0.161190
0.164233
0.159085
0.291186
0.156544
0.214630
0.234590
0.236068
0.293093
0.267512
0.345030
0.356382
0.365876
0.393885
0.366707
0.477686
0.372249
0.460615
0.566385
0.469435
0.494083
0.500514
0.708620
0.528964
0.623002
0.615970
0.642645
0.639097
0.628048
0.576963
0.651021
0.569026
0.629969
0.549584
0.473313
0.596321
0.605158
0.518335
0.551114
0.514802
0.443110
0.499170
0.421437
0.399781
0.318317
0.304349
0.349366
0.295338
0.272694
0.372343
0.266683
0.276292
0.244989
0.250653
0.197004
0.187737
0.213211
0.109707
0.230193
0.112239
0.140693
0.139693
0.156386
0.080810
0.120243
0.070260
0.006693
0.145944
0.097410
0.050394
0.152503
0.049117
0.091455
0.154470
0.078591
0.039652
0.078123
0.146566
0.111878
0.010587
0.093781
0.119071
0.030129
0.025533
-0.017317
0.155956
0.025981
0.089883
0.137663
0.155726
0.067683
0.194230
0.057554
0.016875
0.073008
0.127397
0.074776
0.025936
0.117507
0.122585
0.144929
0.092314
0.082012
0.194998
0.091431
-0.031828
0.014298
0.114576
0.057626
0.101892
0.092805
0.068336
0.153378
0.007186
0.076102
0.059770
0.074959
0.099353
0.091034
0.085720
0.140297
0.105659
0.120474
0.060598
0.166603
0.175229
0.087978
0.244032
0.304201
0.186720
0.228032
0.155252
0.201766
0.292137
0.165181
0.330658
0.245101
0.326609
0.284724
0.313244
0.275836
0.224040
0.272821
0.282383
0.264796
0.261081
0.195563
0.230344
0.292729
0.146262
0.262714
0.239683
0.135966
0.152444
0.188215
0.032992
0.160748
0.119000
0.101929
0.126849
0.160527
0.078840
0.006691
0.128078
0.084876
0.061073
0.054685
0.110079
0.050772
0.062736
0.111118
0.082864
0.058546
0.055863
0.106517
0.273727
0.550315
0.981563
1.142331
1.403232
1.495082
1.403287
1.155772
0.703921
0.404850
0.138546
-0.159801
-0.179411
-0.244193
0.016245
0.005532
0.051889
0.038436
0.081648
0.153585
0.047283
0.066442
0.083739
0.141665
0.128920
0.105161
0.048548
0.117531
0.170553
0.167212
0.206110
0.151610
0.168692
0.212136
0.250887
0.264498
0.277539
0.383935
0.357515
0.300992
0.371489
0.322935
0.434601
0.433609
0.427010
0.458860
0.491817
0.488074
0.562736
0.610912
0.459782
0.544360
0.564001
0.609637
0.621813
0.566755
0.510215
0.548645
0.595560
0.549170
0.578033
0.526697
0.498746
0.494411
0.502338
0.511773
0.476796
0.469096
0.305607
0.395130
0.347294
0.302100
0.359195
0.354429
0.287156
0.263062
0.149854
0.252972
0.137112
0.115003
0.179330
0.096040
0.173340
0.102475
0.071282
0.083141
0.100412
0.035634
0.006734
0.122006
0.071505
0.091761
0.038138
0.040358
-0.022542
0.070992
0.081232
0.026182
0.056255
-0.010020
-0.036118
-0.024726
0.006855
-0.037919
-0.003239
0.003002
0.044674
-0.015109
-0.067903
0.018103
-0.003114
0.008625
0.031881
-0.043784
0.051637
-0.044854
0.035839
-0.007364
0.024455
-0.013570
-0.013575
0.070254
-0.002822
0.085959
-0.033366
0.002861
-0.031367
-0.062893
0.066414
0.035512
0.092914
-0.045106
0.060949
0.010256
-0.083854
0.023380
0.021690
-0.071934
0.004895
-0.053674
0.021547
0.007142
0.044654
0.032911
0.034784
0.032499
-0.027910
0.030061
0.053115
-0.009046
0.009503
0.090379
0.026950
0.013629
0.145952
0.089374
0.018960
0.096036
0.140220
0.167306
0.200895
0.191654
0.137183
0.169402
0.087986
0.208310
0.142599
0.134289
0.141005
0.187273
0.145253
0.105655
0.123422
0.171591
0.119726
0.073061
0.047037
0.116643
0.146851
0.119662
0.093094
0.023173
-0.046719
0.072038
0.025598
0.048107
0.042893
-0.005344
-0.001364
-0.032268
0.012563
-0.026765
-0.035113
-0.066626
-0.078379
-0.036079
0.030176
-0.044170
-0.038024
-0.040710
-0.037251
0.010273
0.084632
0.164529
0.516796
0.867856
1.277626
1.408476
1.484296
1.237548
0.913684
0.521053
0.246639
-0.132454
-0.251829
-0.277247
-0.236547
-0.155938
-0.018548
-0.026545
-0.052916
-0.018883
-0.005025
-0.022097
-0.020767
-0.048172
0.136401
-0.018820
0.014288
0.001679
0.088850
0.116653
0.051282
0.083474
0.083456
0.127998
0.134688
0.164099
0.149069
0.203074
0.192967
0.335222
0.231219
0.337329
0.367440
0.327674
0.414582
0.438573
0.360299
0.390238
0.348573
0.407136
0.426670
0.438684
0.445882
0.506192
0.514367
0.466207
0.504066
0.466692
0.493873
0.583659
0.373121
0.440854
0.330369
0.458513
0.427154
0.426053
0.361846
0.335515
0.287902
0.265638
0.448158
0.362925
0.398683
0.230889
0.172273
0.150868
0.210875
0.257094
0.110978
0.161594
0.090306
0.188475
0.026051
-0.013045
0.050124
0.009293
0.051269
0.014923
-0.027744
0.003007
0.065614
-0.003606
0.037233
-0.044626
0.022195
-0.089241
0.044024
-0.043581
0.020570
-0.069968
-0.096542
-0.067710
-0.041734
-0.029247
0.005300
-0.077449
0.030131
-0.021716
-0.089847
-0.054855
-0.016314
-0.041157
-0.018551
-0.070516
-0.038254
-0.034197
-0.010008
-0.077018
0.005339
-0.010369
-0.074558
0.003858
-0.087816
-0.014191
0.012889
-0.066858
-0.066561
-0.071464
-0.028199
-0.032764
-0.015623
-0.031373
-0.082153
-0.102097
-0.104611
-0.066281
-0.130854
-0.067587
-0.097153
-0.101890
0.002164
0.050714
-0.103590
-0.061412
-0.089183
-0.029294
0.065063
0.083232
0.051128
0.013831
0.001246
0.016030
-0.059731
0.021519
0.111096
0.061767
0.012762
0.049237
0.062422
0.068403
0.107408
0.063447
0.009953
0.203068
0.166218
0.210229
0.146854
0.166283
0.145359
0.120147
0.153985
0.106318
0.156707
0.059830
0.072519
0.092296
0.104004
0.120154
0.008558
0.072734
0.070206
0.059713
0.127472
-0.022754
-0.000185
0.073123
-0.054300
0.019892
-0.094419
-0.046203
-0.017308
-0.028902
0.020518
-0.058067
-0.018480
-0.032847
-0.115159
-0.054404
0.015072
-0.026302
-0.040009
-0.006668
0.028130
0.220198
0.343570
0.577981
1.024575
1.300729
1.465449
1.323896
1.252039
0.898691
0.371262
0.118550
-0.221971
-0.240391
-0.206508
-0.208893
-0.028011
-0.007387
0.047832
0.042683
0.074539
0.016004
0.029194
0.074979
0.018203
0.087098
0.031397
0.137535
0.082207
0.149073
0.111970
0.127597
0.200184
0.150213
0.121919
0.192679
0.225443
0.228972
0.243079
0.283481
0.330941
0.296765
0.394784
0.343724
0.300804
0.526964
0.503403
0.486059
0.512562
0.535816
0.582851
0.452080
0.524747
0.513147
0.523882
0.613162
0.585907
0.517386
0.529381
0.549911
0.536998
0.469517
0.535624
0.482275
0.441259
0.493125
0.405812
0.487042
0.334926
0.431030
0.327808
0.411503
0.370117
0.321148
0.336834
0.265776
0.284142
0.206031
0.141563
0.207886
0.188700
0.132687
0.152620
0.130650
0.099345
0.188569
0.135940
0.080262
0.164345
-0.011406
0.154818
0.110420
0.067827
0.077847
0.044579
0.029687
0.175754
0.117314
0.041973
-0.000501
0.050893
-0.013351
0.047539
0.021258
-0.020098
0.002732
0.061006
0.076655
0.032434
0.127072
0.069475
0.131480
0.099917
0.124363
0.112617
0.072684
0.083917
0.014883
0.057612
0.020890
0.084492
-0.011118
0.040042
-0.025107
-0.009313
0.073655
0.003941
0.083281
0.120852
0.038143
0.069043
0.082745
0.017178
0.006450
0.110134
0.060217
0.007788
0.100094
0.120105
-0.031807
0.045291
0.173606
0.008861
0.046489
0.111578
0.062843
0.097817
0.111649
0.144963
0.133635
0.046812
0.070287
0.199273
0.073700
0.182140
0.152751
0.240456
0.188466
0.156539
0.114648
0.187891
0.284812
0.212435
0.311481
0.229733
0.342596
0.229771
0.292565
0.305525
0.329471
0.338885
0.229360
0.255204
0.235686
0.228766
0.186178
0.194242
0.267761
0.230218
0.102491
0.115318
0.149459
0.095615
0.111105
0.137900
0.114940
-0.002248
0.137473
0.131096
0.096465
0.151681
0.101492
0.124818
0.117618
0.129802
0.064408
0.141799
0.073784
0.087159
0.177096
0.116263
0.080344
0.097070
0.265672
0.271005
0.568676
0.789424
1.172221
1.398491
1.499156
1.478388
1.180908
0.800050
0.415157
0.082545
-0.158679
-0.169850
-0.150437
-0.057314
0.088899
0.140171
0.078928
0.126944
0.100179
0.078877
0.147919
0.245773
0.136333
0.188309
0.134046
0.072975
0.192376
0.186049
0.239343
0.287273
0.295158
0.352020
0.165186
0.302452
0.284128
0.266556
0.336590
0.366898
0.477395
0.376146
0.381255
0.473236
0.440012
0.493520
0.556930
0.540658
0.570161
0.479373
0.518036
0.534380
0.633780
0.651817
0.721050
0.673558
0.652916
0.683682
0.599397
0.628816
0.619338
0.633740
0.554261
0.481904
0.533303
0.481850
0.547910
0.459149
0.529808
0.437543
0.479516
0.382156
0.496220
0.417187
0.396317
0.365976
0.374632
0.391879
0.295519
0.137996
0.211952
0.188119
0.228742
0.167652
0.210739
0.161510
0.197098
0.155432
0.156204
0.135826
0.183801
0.210756
0.130213
0.200004
0.153173
0.076608
0.159772
0.098442
0.129469
0.050424
0.104439
0.057828
0.047607
0.064187
0.053828
0.148947
0.073879
0.114420
0.074894
0.135960
0.061973
0.090557
0.042272
0.004343
0.107724
0.112816
0.082498
0.047086
0.101750
0.006677
0.087026
0.142011
0.033561
0.027165
0.107178
0.035935
0.112911
0.061230
0.063529
0.041685
0.071509
0.077989
0.007533
0.110510
0.089806
0.101020
0.013082
0.141037
0.116103
0.151238
0.143442
0.046296
0.017270
0.025147
0.056098
0.055773
0.228704
0.072906
0.104588
0.117266
0.135027
0.057271
0.128392
0.113478
0.133370
0.213243
0.142145
0.210347
0.130129
0.157554
0.230014
0.224617
0.162205
0.162805
0.243978
0.264413
0.321382
0.195554
0.221410
0.334366
0.256623
0.222372
0.226740
0.146829
0.270145
0.134593
0.195257
0.226415
0.226101
0.142780
0.160488
0.057243
0.088787
0.172414
0.069543
0.086221
0.094302
0.020559
0.048451
0.110401
0.061851
0.084248
0.028683
-0.015942
0.117325
0.114283
-0.028227
-0.077743
-0.061959
0.027688
0.026788
0.070662
0.017927
0.084926
0.299175
0.559804
0.907068
1.144252
1.370282
1.500000
1.330306
1.099841
0.590539
0.233764
-0.035030
-0.167850
-0.215635
-0.118079
-0.127559
-0.070851
-0.012216
0.065565
0.027998
0.076513
0.011958
0.030036
0.080492
0.088516
0.104179
0.101931
0.083937
0.122932
0.170195
0.100653
0.175989
0.138646
0.181903
0.156340
0.149099
0.314895
0.264002
0.312904
0.323671
0.337624
0.278464
0.353560
0.329350
0.430020
0.477210
0.535946
0.433775
0.504073
0.551154
0.551710
0.468800
0.563686
0.512037
0.604709
0.583628
0.552189
0.574262
0.525194
0.439532
0.500485
0.562197
0.545947
0.513622
0.561326
0.424692
0.390558
0.448569
0.495054
0.326415
0.312738
0.364182
0.299231
0.355989
0.244979
0.199168
0.265708
0.148782
0.263073
0.060712
0.162150
0.196583
0.045414
0.090223
0.092499
0.130422
0.054868
0.104689
-0.052306
0.045510
0.136131
0.011657
0.023427
0.031254
-0.058842
0.004539
-0.094892
-0.048538
0.009447
-0.050160
-0.004040
-0.061068
-0.052224
-0.018617
-0.027977
0.005404
-0.018379
0.025920
0.002344
-0.101213
-0.030548
-0.063134
0.004902
-0.079622
-0.039854
0.032032
-0.014513
-0.074479
0.025460
-0.043902
-0.091033
-0.015258
-0.020005
-0.003024
-0.053144
-0.152757
-0.121027
-0.026703
-0.070921
-0.115439
0.006859
-0.048285
-0.038386
-0.080493
-0.060349
-0.045432
0.031162
-0.079259
-0.031949
-0.031719
0.001533
-0.034044
0.002780
-0.053677
0.096042
-0.051618
-0.039867
0.040761
0.044735
-0.045488
-0.039067
0.011387
-0.006608
-0.009948
0.107718
-0.016550
0.077772
-0.065091
0.033170
0.124280
0.150657
0.078789
0.064871
0.019646
0.049065
0.114809
0.128181
0.070117
0.061632
0.067086
0.073320
0.038705
0.113411
0.095495
0.143536
0.106701
0.047332
0.044545
-0.038425
-0.052761
0.020732
-0.020358
0.051694
-0.006833
-0.024406
-0.082117
-0.053321
-0.105278
-0.072450
-0.085411
-0.047035
-0.055846
-0.020552
-0.135486
-0.065140
-0.158552
0.019956
-0.071497
-0.080722
-0.026198
-0.072524
-0.091802
-0.149281
0.050237
0.235799
0.500204
0.970908
1.152925
1.315681
1.315727
1.080315
0.786792
0.456130
-0.020094
-0.239193
-0.341653
-0.267772
-0.279831
-0.210683
-0.113839
-0.097614
-0.124051
-0.001763
-0.100656
-0.070260
-0.100677
-0.117571
0.000967
0.035181
0.031819
-0.019223
-0.023601
0.052411
0.042352
0.027205
0.009013
0.066705
0.135491
0.119961
0.217787
0.219836
0.178067
0.268152
0.213217
0.246458
0.271213
0.313066
0.322031
0.311501
0.393648
0.446032
0.398455
0.405323
0.488344
0.431486
0.375729
0.469576
0.485186
0.538824
0.389538
0.403858
0.464273
0.457991
0.465222
0.499228
0.443924
0.454917
0.352733
0.299503
0.422587
0.411299
0.345406
0.218874
0.266183
0.210838
0.273977
0.131915
0.139181
0.171541
0.135128
0.103472
0.077149
0.132118
0.165251
0.033086
0.086173
-0.037807
0.009003
0.060582
-0.044654
-0.038289
-0.043671
-0.012321
0.013693
-0.166265
-0.035979
-0.094067
-0.154258
-0.089450
-0.115244
-0.039549
-0.026042
-0.078130
-0.081343
-0.122748
-0.085399
-0.042806
-0.067443
-0.129404
-0.077207
-0.064989
-0.033264
-0.067355
-0.052422
-0.065814
-0.090791
-0.020745
-0.067063
-0.043537
-0.023472
0.001897
-0.015459
-0.071385
-0.104497
-0.036299
-0.086638
-0.021149
-0.022737
-0.149356
-0.077785
-0.110520
-0.067245
-0.060611
-0.070942
-0.083144
-0.062080
-0.126698
-0.085432
-0.099058
-0.160354
-0.090415
-0.058618
-0.100196
-0.069922
-0.043386
-0.065444
0.010710
-0.021208
-0.023262
0.003134
0.012316
0.020461
-0.080000
-0.037847
0.066353
0.005388
0.001933
-0.009173
-0.000642
0.055388
0.000872
0.104679
0.038685
0.055446
0.067088
0.119385
0.168032
0.107161
0.187080
0.122650
0.179148
0.114568
0.186177
0.219448
0.161877
0.061751
0.112029
0.113273
0.152585
0.093210
0.087370
0.024936
0.012732
0.056150
0.092811
-0.001707
-0.004252
-0.049287
-0.009381
-0.038385
0.095302
-0.022459
0.084614
0.010042
-0.052880
-0.103426
-0.025149
-0.057892
-0.019712
0.005256
-0.084262
-0.037653
-0.099352
-0.079108
-0.103627
0.053443
0.139256
0.362941
0.687489
0.971588
1.281923
1.420300
1.331635
1.077298
0.661679
0.296533
-0.011204
-0.191918
-0.273328
-0.308351
-0.197679
-0.089133
-0.064774
-0.000882
-0.034779
-0.045579
0.052814
0.048574
-0.004262
0.108206
0.039700
-0.003813
0.053259
0.034515
0.140757
0.090505
0.096635
0.110109
0.139168
0.193587
0.151212
0.209484
0.231354
0.175222
0.203220
0.367389
0.276370
0.291165
0.328576
0.449853
0.349164
0.395517
0.424365
0.354564
0.467586
0.511384
0.427820
0.000000
0.000000
0.000000
0.000000
0.000000
0.000000
0.000000
0.000000
0.000000
0.000000
0.000000
0.000000
0.000000
0.000000
0.000000
0.000000
0.000000
0.000000
0.000000
0.000000
0.000000
0.000000
0.000000
0.000000
0.000000
0.000000
0.000000
0.000000
0.000000
0.000000
0.000000
0.000000
0.000000
0.000000
0.000000
0.000000
0.000000
0.000000
0.000000
0.000000
0.000000
0.000000
0.000000
0.000000
0.000000
0.000000
0.000000
0.000000
0.000000
0.000000
0.000000
0.000000
0.000000
0.000000
0.000000
0.000000
0.000000
0.000000
0.000000
0.000000
0.000000
0.000000
0.000000
0.000000
0.000000
0.000000
0.000000
0.000000
0.000000
0.000000
0.000000
0.000000
0.044723
0.009217
-0.046370
0.018642
0.076761
0.117540
0.007825
0.079490
-0.078111
0.011152
0.015992
0.042722
0.042310
0.031699
0.023522
0.122961
0.080180
0.032784
0.055199
0.073307
0.047888
0.061020
0.052712
0.035281
0.041595
0.125899
0.123389
0.102044
0.050621
0.142475
0.154445
0.149547
0.088354
0.109125
0.125744
0.137965
0.269918
0.172669
0.168943
0.202254
0.231285
0.218395
0.193700
0.315106
0.217797
0.273538
0.241524
0.188011
0.209576
0.190951
0.141399
0.273419
0.206691
0.202720
0.195180
0.174523
0.139487
0.103431
0.064308
0.116810
0.156619
0.075406
0.043170
0.106101
0.126903
0.004838
0.119967
0.130554
0.087349
0.008804
0.045507
0.079862
0.064810
0.102829
0.055672
-0.002007
-0.022903
-0.023353
0.045134
0.152782
0.310143
0.559481
0.854576
1.204203
1.464375
1.416827
1.324377
1.114911
0.615579
0.319819
-0.082569
-0.154508
-0.278848
-0.070645
-0.143121
-0.052672
0.078962
0.013914
0.010945
0.080604
0.040118
0.053151
0.060244
0.165137
0.108729
0.158363
0.185538
0.195354
0.153837
0.231081
0.224967
0.163419
0.196770
0.192857
0.233287
0.279218
0.242949
0.267697
0.261811
0.376568
0.441658
0.322883
0.434915
0.385275
0.471669
0.466916
0.521872
0.544460
0.493202
0.545259
0.478588
0.525827
0.659222
0.659247
0.600920
0.553227
0.540914
0.681501
0.522917
0.555710
0.491185
0.403663
0.548670
0.517171
0.503761
0.465340
0.393275
0.370071
0.402381
0.410901
0.313557
0.425609
0.247317
0.288991
0.297463
0.286439
0.256859
0.339957
0.123321
0.202912
0.195902
0.218314
0.059064
0.117218
0.065532
0.091127
0.118801
0.075723
0.137680
0.085246
0.062996
0.019716
0.070577
0.058543
0.026826
0.079920
0.042450
0.020477
0.069731
0.058462
0.067188
0.018246
-0.046584
0.097081
0.058932
0.075662
0.027253
0.002501
-0.081266
0.010123
0.081998
-0.047110
0.026442
0.074312
-0.059696
0.040747
-0.024108
-0.001132
-0.005499
0.013879
0.005086
0.001862
-0.024190
-0.045878
0.064534
0.059746
-0.003954
0.001984
-0.042878
0.065835
0.098816
-0.033524
0.014266
0.062996
0.005532
-0.020698
0.110652
-0.093646
0.017426
0.083180
0.047386
0.047017
-0.033648
0.041190
-0.014232
-0.014718
0.001208
0.090836
-0.013745
0.095056
0.054127
0.149796
0.039113
0.084392
0.004805
0.062626
-0.017832
0.112557
0.172780
0.139465
0.110539
0.230441
0.060454
0.118309
0.116032
0.134769
0.101851
0.148387
0.076522
0.115071
0.202457
0.156158
0.106577
0.091034
0.101744
0.121063
0.217084
0.001546
0.075068
0.090838
0.093235
0.058577
-0.088288
0.055250
0.013035
0.007960
0.077203
0.052356
0.043074
-0.064667
0.046667
-0.001441
-0.000117
-0.074728
-0.053482
0.044563
-0.018446
-0.065102
-0.048444
-0.037890
-0.023445
-0.041572
0.150800
0.291148
0.532250
0.912360
1.170607
1.391779
1.439465
1.127395
0.808262
0.506305
0.106830
-0.117494
-0.290214
-0.293115
-0.213543
-0.298176
-0.079370
-0.014526
-0.065861
-0.015031
0.081840
-0.020869
-0.034233
-0.094001
0.024870
0.046934
0.049171
0.012581
0.129583
-0.061491
0.125813
0.036325
0.102766
0.084580
0.142029
0.150822
0.205138
0.154243
0.181417
0.220000
0.294326
0.254663
0.293309
0.225622
0.339389
0.299160
0.314831
0.373913
0.349996
0.355641
0.359201
0.407803
0.414493
0.490389
0.444401
0.504552
0.489221
0.468635
0.387715
0.516469
0.423957
0.416424
0.476621
0.398360
0.427542
0.389691
0.415253
0.306407
0.356347
0.348877
0.332003
0.258386
0.295069
0.273209
0.183001
0.227457
0.168904
0.059569
0.113987
0.088660
0.151104
0.051024
0.114954
0.026829
0.031881
-0.053176
-0.062073
0.009220
-0.067684
-0.028002
-0.049017
-0.009784
-0.005770
-0.072575
-0.079788
-0.084819
-0.062968
-0.050595
-0.072171
-0.122657
-0.041442
-0.055596
-0.062771
-0.059801
-0.074275
-0.063419
-0.081969
-0.036957
-0.104805
-0.116258
0.023004
-0.029714
-0.141655
-0.082428
-0.025777
-0.118482
0.030541
-0.098079
-0.086416
-0.058272
-0.042540
-0.103358
0.021530
-0.109970
-0.080951
-0.183591
-0.021263
0.000000
0.000000
0.000000
0.000000
0.000000
0.000000
0.000000
0.000000
0.000000
0.000000
0.000000
0.000000
0.000000
0.000000
0.000000
0.000000
0.000000
0.000000
0.000000
0.000000
0.000000
0.000000
0.000000
0.000000
0.000000
0.000000
0.000000
0.000000
0.000000
0.000000
0.000000
0.000000
0.000000
0.000000
0.000000
0.000000
0.000000
0.000000
0.000000
0.000000
0.000000
0.000000
0.000000
0.000000
0.000000
0.000000
0.000000
0.000000
0.000000
0.000000
0.000000
0.000000
0.000000
0.000000
0.000000
0.000000
0.000000
0.000000
0.000000
0.000000
0.000000
0.000000
0.000000
0.000000
0.000000
0.000000
-0.147652
-0.126989
-0.156847
-0.097092
-0.195827
-0.074792
-0.148585
-0.193245
-0.187990
-0.116853
0.131854
0.232313
0.640246
0.906558
1.250722
1.331110
1.330803
1.080474
0.655581
0.336429
-0.019221
-0.205436
-0.319648
-0.284989
-0.231768
-0.145268
-0.131952
-0.050898
-0.127614
0.005223
-0.084449
-0.066568
-0.103600
-0.051372
-0.029492
-0.058342
0.000005
-0.033851
0.040332
0.060268
-0.039575
0.118017
0.033207
0.077013
0.158407
0.138036
0.127947
0.258950
0.146132
0.191899
0.240905
0.299045
0.226562
0.257442
0.333124
0.350981
0.348633
0.364995
0.434645
0.484802
0.419469
0.346571
0.469345
0.438245
0.441982
0.480606
0.521993
0.484884
0.534803
0.466379
0.303455
0.387236
0.326034
0.380775
0.382440
0.327061
0.261342
0.227844
0.361186
0.286215
0.339112
0.303313
0.202472
0.231321
0.178833
0.138058
0.160659
0.115267
0.068117
0.107406
0.056292
0.010335
0.037618
0.088402
0.081792
0.030025
-0.037487
-0.000483
0.067302
-0.032665
-0.038642
0.021992
-0.035942
-0.054163
-0.037713
-0.045831
-0.060871
-0.056962
-0.001574
-0.027938
0.063521
-0.086803
-0.127287
-0.042158
-0.074226
-0.094255
-0.027946
0.016646
-0.083364
-0.046610
-0.073830
-0.054942
-0.069629
-0.050106
-0.031276
-0.046349
-0.080618
0.000000
0.000000
0.000000
0.000000
0.000000
0.000000
0.000000
0.000000
0.000000
0.000000
0.000000
0.000000
0.000000
0.000000
0.000000
0.000000
0.000000
0.000000
0.000000
0.000000
0.000000
0.000000
0.000000
0.000000
0.000000
0.000000
0.000000
0.000000
0.000000
0.000000
0.000000
0.000000
0.000000
0.000000
0.000000
0.000000
0.000000
0.000000
0.000000
0.000000
0.000000
0.000000
0.000000
0.000000
0.000000
0.000000
0.000000
0.000000
0.000000
0.000000
0.000000
0.000000
0.000000
0.000000
0.000000
0.000000
0.000000
0.000000
0.000000
0.000000
0.000000
0.000000
0.000000
0.000000
0.000000
0.000000
0.000000
0.000000
0.000000
0.000000
0.000000
0.000000
0.000000
-0.086207
0.002767
0.046908
0.070351
-0.035337
0.029214
0.028132
-0.046564
-0.055090
-0.021895
-0.017740
-0.073914
0.038809
0.232035
0.482610
0.774226
1.080906
1.401718
1.417456
1.307759
1.041757
0.565414
0.243075
0.049971
-0.160822
-0.239945
-0.174686
-0.146334
-0.058920
-0.039174
-0.020719
0.006705
0.052570
0.014754
-0.014847
0.082393
0.033633
0.086506
0.074774
0.108372
0.149455
0.027666
0.144478
0.127479
0.199939
0.233603
0.208527
0.211579
0.300558
0.276378
0.285882
0.286682
0.285282
0.350253
0.405698
0.409253
0.448884
0.449646
0.447056
0.460202
0.412250
0.589730
0.566493
0.497479
0.540696
0.516132
0.493241
0.531351
0.556723
0.524884
0.513912
0.623437
0.642063
0.602027
0.576991
0.514790
0.494080
0.422460
0.436297
0.461271
0.475719
0.426846
0.469570
0.392393
0.398031
0.332671
0.215670
0.281601
0.196987
0.253738
0.190482
0.249351
0.269090
0.185923
0.155237
0.188794
0.204203
0.132911
0.194223
0.180973
0.186247
0.163361
0.124147
0.077945
0.050665
0.105705
0.166034
0.065807
0.097950
0.095729
0.076656
0.049556
0.081704
0.091862
0.085579
0.086526
0.108158
0.020513
0.065526
0.058460
0.033724
0.097956
0.082607
0.042228
0.040873
0.068293
-0.021192
0.110538
0.062675
0.023120
0.086191
0.056047
0.087840
0.098448
0.032448
0.099041
0.016953
-0.017570
0.082878
0.072656
0.072047
0.073440
0.162787
0.054484
0.118287
0.078915
0.097026
0.129242
0.049136
0.018677
0.135562
0.155389
0.082525
0.101130
0.041901
0.136638
0.165404
0.092122
0.104872
0.073473
0.115271
0.031270
0.042827
0.098854
0.102187
0.099449
0.139372
0.099266
0.282454
0.120845
0.364432
0.270755
0.187987
0.335499
0.223974
0.250736
0.287214
0.202377
0.258407
0.346468
0.301272
0.292038
0.305182
0.279675
0.325527
0.273423
0.258408
0.114885
0.135958
0.191090
0.132322
0.146171
0.178207
0.174167
0.116522
0.150494
0.114541
0.158853
0.088247
0.140033
0.200356
0.033388
0.019525
0.072126
0.061156
0.089558
0.095964
