-0.071229
-0.063663
-0.116867
-0.048482
-0.051495
-0.033617
0.097364
0.033296
0.039344
0.023493
0.032329
0.009108
0.035289
0.016018
0.019044
0.059146
0.045857
0.056171
0.008802
0.025812
-0.028705
0.075839
0.054643
0.031566
0.011090
0.047869
0.033120
0.060458
0.067426
0.063477
0.129141
0.112290
0.119607
0.126150
0.196686
0.169371
0.132937
0.183909
0.187323
0.169325
0.142124
0.111906
0.177790
0.168274
0.169459
0.188768
0.198793
0.177583
0.150398
0.184383
0.092096
0.044732
0.084414
0.079593
0.133014
0.143968
0.100195
0.046633
0.072119
0.147139
0.001163
0.068883
0.060144
0.107864
0.123175
0.072469
0.044659
0.018874
0.078923
0.036101
0.091212
0.050893
-0.000472
0.098672
0.090266
0.015683
0.017034
0.047350
0.037902
0.128010
0.209761
0.466250
0.808788
0.973198
1.150293
1.185788
1.047955
0.830748
0.518586
0.196573
0.048940
-0.100082
-0.125962
-0.123754
-0.059020
0.001677
0.074717
0.107889
0.061442
0.062646
0.139545
0.098632
0.031528
0.165110
0.136515
0.122279
0.134220
0.133248
0.118967
0.101630
0.141427
0.169736
0.170160
0.167607
0.144341
0.178989
0.208958
0.254702
0.281140
0.281365
0.343140
0.294241
0.306171
0.366643
0.357443
0.454881
0.443354
0.462349
0.339834
0.439897
0.447335
0.456464
0.493817
0.421152
0.542535
0.464346
0.516359
0.447689
0.565496
0.523672
0.502347
0.496899
0.541184
0.485038
0.468967
0.546024
0.397311
0.459344
0.403351
0.428762
0.357104
0.395841
0.312948
0.394388
0.320703
0.352979
0.304409
0.222068
0.224504
0.330737
0.230934
0.219481
0.288377
0.158061
0.206957
0.154891
0.163220
0.149083
0.144966
0.119415
0.118242
0.116839
0.157281
0.178988
0.166427
0.109462
0.068349
0.083683
0.084534
0.104108
0.059605
0.046629
0.112991
0.146264
0.114939
0.135108
0.166779
0.046841
0.150611
0.069229
0.143456
0.086807
0.063654
0.068509
0.071825
0.145001
0.118110
0.144717
0.143350
0.137793
0.142854
0.135317
0.110085
0.063811
0.090554
0.125524
0.080026
0.101974
0.141058
0.065001
0.057063
0.129883
0.044339
0.069316
0.062975
0.121883
0.147160
0.089748
0.136785
0.092038
0.085582
0.105846
0.153945
0.094001
0.094019
0.080122
0.155337
0.141281
0.083773
0.120520
0.068920
0.182155
0.141282
0.143770
0.152108
0.100646
0.120709
0.154699
0.145418
0.170041
0.219169
0.163012
0.187613
0.181654
0.231444
0.259677
0.221499
0.213068
0.143202
0.257392
0.285401
0.219690
0.258249
0.205109
0.265960
0.299318
0.248702
0.152160
0.246013
0.278222
0.256986
0.243419
0.185437
0.208655
0.190946
0.173632
0.175552
0.171338
0.204204
0.161232
0.085842
0.157723
0.085700
0.175157
0.104164
0.121142
0.088795
0.158987
0.143826
0.240697
0.085962
0.144759
0.114820
0.156983
0.173971
0.088100
0.158304
0.060705
0.083807
0.095332
0.177705
0.300487
0.458660
0.701962
1.014044
1.220706
1.216557
1.197075
0.923688
0.686013
0.339342
0.147792
-0.015314
-0.179889
-0.090250
-0.029952
0.056450
0.069401
0.019349
0.038377
0.098846
0.102406
0.141055
0.176251
0.110553
0.107539
0.125283
0.195140
0.120282
0.182546
0.113294
0.148094
0.186574
0.214063
0.181635
0.238668
0.195214
0.169064
0.285997
0.235413
0.238106
0.319400
0.371254
0.335093
0.342764
0.430654
0.376998
0.481599
0.434214
0.445804
0.431647
0.557836
0.454708
0.515699
0.477375
0.543772
0.475082
0.499866
0.472539
0.507033
0.476096
0.524154
0.489915
0.511313
0.524619
0.459064
0.468214
0.484948
0.375288
0.391031
0.304541
0.398233
0.368050
0.418026
0.307299
0.321572
0.365627
0.235791
0.282406
0.248999
0.174667
0.210677
0.171140
0.192640
0.196329
0.162573
0.160033
0.203354
0.226799
0.131927
0.126685
0.078878
0.157852
0.112263
0.132301
0.111890
0.084617
0.068557
0.110033
0.135203
0.129776
0.075105
0.024895
0.070751
0.086009
0.109638
0.133808
0.049310
0.091908
0.057147
0.104285
0.097930
0.093997
0.094937
0.076168
0.101422
0.131106
0.083444
0.135908
0.112132
0.068303
0.120722
0.114204
0.129717
0.076208
0.085584
0.155411
0.048764
0.073493
0.093247
0.008626
0.098948
0.109746
0.083908
0.030391
0.101263
0.038324
0.093215
0.084911
0.076763
0.110502
0.044987
0.068395
-0.030465
0.136629
0.054582
0.122101
0.028225
0.058824
0.046727
0.039831
0.060847
0.131132
0.114485
0.062148
0.053406
0.077829
0.078335
0.066843
0.078396
0.082598
0.139734
0.142615
0.087846
0.164239
0.119192
0.145267
0.189746
0.203758
0.201258
0.186343
0.219302
0.168008
0.190218
0.238830
0.247096
0.204153
0.172535
0.222083
0.171670
0.107405
0.177791
0.173645
0.119795
0.132324
0.179727
0.186091
0.130527
0.164246
0.096083
0.166294
0.149168
0.074966
0.088359
0.073520
0.094457
0.098099
0.046623
0.045246
0.068090
0.061242
0.056989
0.076280
0.079138
0.109428
0.088088
-0.031787
0.023667
0.014648
0.064842
0.080869
0.075092
0.213554
0.313718
0.563961
0.890272
1.128300
1.172669
1.130390
0.913874
0.743654
0.392006
0.078294
-0.019520
-0.117373
-0.157853
-0.107834
-0.069537
0.027310
0.017035
0.090685
0.071280
0.062440
0.048309
0.065417
0.101068
0.085732
0.063330
0.079248
0.078151
0.097180
0.132627
0.187952
0.120318
0.136732
0.151870
0.158233
0.122396
0.221256
0.200586
0.286343
0.280342
0.272344
0.271199
0.340049
0.262554
0.289216
0.407706
0.377460
0.413370
0.412722
0.403905
0.414164
0.410690
0.467151
0.424488
0.542530
0.452008
0.498021
0.468314
0.473332
0.489693
0.479437
0.489363
0.439453
0.467408
0.454621
0.429631
0.457984
0.395147
0.413317
0.385360
0.383900
0.360794
0.353913
0.327848
0.361892
0.268984
0.331112
0.254794
0.254256
0.184110
0.242894
0.203375
0.185264
0.193217
0.194390
0.163308
0.137862
0.103229
0.126834
0.061672
0.106648
0.097044
0.111962
0.073676
0.126453
0.010427
0.054157
0.090502
0.044200
0.103871
0.063288
0.082872
0.160223
0.073606
0.094173
0.081582
0.045663
0.125188
0.066688
0.082284
0.125004
0.064813
0.090822
0.124940
0.136011
0.055294
0.054384
0.149992
0.097688
0.144345
0.024685
0.097283
0.072483
0.127373
0.132847
0.025597
0.103954
0.151907
0.119354
0.080818
0.096084
0.007806
0.082410
0.105543
0.081478
0.014267
0.097872
0.087081
0.084512
0.052021
0.109025
0.122865
0.116440
0.055491
0.070659
0.043219
0.128339
0.103212
0.134673
0.058236
0.176641
0.111260
0.138295
0.127982
0.119443
0.130804
0.130633
0.167517
0.169987
0.081840
0.140261
0.153000
0.228060
0.196401
0.231789
0.229646
0.223283
0.229811
0.221543
0.275154
0.211335
0.193417
0.224493
0.229043
0.222881
0.129179
0.261946
0.241037
0.245862
0.250931
0.207279
0.208720
0.242747
0.263316
0.175729
0.178534
0.164106
0.171092
0.153635
0.069756
0.140500
0.147191
0.144641
0.199282
0.126603
0.151340
0.101675
0.106747
0.118112
0.149455
0.149580
0.134392
0.098387
0.189544
0.056853
0.124843
0.079791
0.161174
0.120576
0.129996
0.189258
0.199658
0.370854
0.654865
0.860419
1.102084
1.286499
1.209929
1.168190
0.850645
0.543510
0.290834
0.041123
-0.025086
-0.067527
-0.122292
0.034298
0.115687
0.086549
0.129937
0.172359
0.208358
0.163190
0.205261
0.180797
0.180038
0.135608
0.130255
0.174181
0.198483
0.242381
0.190348
0.182575
0.207502
0.284103
0.273767
0.279383
0.332417
0.240441
0.323475
0.383575
0.391325
0.361180
0.392917
0.449528
0.460511
0.400505
0.414702
0.471298
0.550934
0.520304
0.521293
0.498391
0.594429
0.556958
0.503117
0.533731
0.570254
0.620906
0.586663
0.518451
0.566821
0.574115
0.510823
0.607493
0.547373
0.550290
0.557494
0.471192
0.530588
0.507185
0.514215
0.475405
0.406359
0.355891
0.365940
0.406199
0.342754
0.390577
0.371846
0.318776
0.270639
0.310113
0.360112
0.267243
0.267514
0.291884
0.234959
0.237643
0.272772
0.279364
0.207459
0.245919
0.208881
0.262670
0.179713
0.238710
0.230224
0.162905
0.241381
0.166731
0.223979
0.213095
0.211544
0.257646
0.190510
0.217056
0.143953
0.213401
0.179108
0.216096
0.177816
0.216524
0.200642
0.169543
0.227523
0.203746
0.193304
0.247207
0.195559
0.194855
0.138113
0.235377
0.171749
0.158497
0.246937
0.225041
0.203597
0.140079
0.283992
0.140290
0.229795
0.233630
0.204036
0.212494
0.227038
0.205824
0.193903
0.213202
0.217261
0.180084
0.157868
0.140805
0.242001
0.228380
0.201811
0.278294
0.157197
0.236922
0.188642
0.196672
0.215289
0.224935
0.186252
0.203014
0.216323
0.252055
0.186628
0.254793
0.269397
0.318513
0.223684
0.282030
0.277729
0.308579
0.322273
0.283093
0.338127
0.351506
0.366237
0.400892
0.277671
0.408871
0.368925
0.442146
0.343122
0.396350
0.366838
0.339963
0.347131
0.324048
0.374783
0.354802
0.376825
0.319624
0.290210
0.264768
0.326777
0.339923
0.334312
0.300516
0.264537
0.209945
0.242713
0.293655
0.250400
0.272428
0.277893
0.264414
0.251616
0.260048
0.223096
0.282877
0.224271
0.178958
0.251372
0.258723
0.243726
0.229128
0.187867
0.207751
0.283177
0.258249
0.429567
0.697226
0.893234
1.169206
1.352742
1.323488
1.279113
1.010365
0.711712
0.465714
0.266672
0.136203
0.111480
0.050088
0.092004
0.120784
0.245002
0.207093
0.184467
0.257555
0.304451
0.245505
0.254482
0.291783
0.281165
0.274444
0.314047
0.238036
0.356954
0.311848
0.290503
0.290938
0.311392
0.395944
0.354138
0.299722
0.403826
0.475392
0.439031
0.421182
0.390929
0.509351
0.482707
0.532454
0.583930
0.512175
0.547260
0.523018
0.572478
0.634082
0.669967
0.624647
0.640669
0.604218
0.672049
0.673366
0.680349
0.630236
0.663469
0.667738
0.683547
0.681453
0.595493
0.599982
0.611040
0.600761
0.534421
0.552603
0.550043
0.529396
0.543353
0.490653
0.444926
0.487739
0.462326
0.392173
0.400332
0.444511
0.351215
0.407340
0.368700
0.392504
0.325251
0.322600
0.333907
0.312544
0.342483
0.283178
0.275569
0.250781
0.272135
0.309688
0.229699
0.259969
0.245273
0.208037
0.207576
0.293714
0.222204
0.247301
0.228968
0.271705
0.230072
0.200629
0.243652
0.254145
0.182392
0.227023
0.206053
0.194714
0.226877
0.241863
0.174068
0.177970
0.216096
0.221432
0.260079
0.254305
0.231749
0.183733
0.179940
0.211463
0.208846
0.296051
0.265383
0.281099
0.216304
0.188392
0.202639
0.234289
0.250637
0.202555
0.256559
0.198657
0.149344
0.161392
0.195827
0.215834
0.258886
0.235341
0.220982
0.252569
0.237831
0.282777
0.216084
0.266294
0.210937
0.163107
0.216639
0.246954
0.222608
0.252198
0.245580
0.264203
0.298263
0.243002
0.267866
0.280682
0.294157
0.248127
0.220112
0.248146
0.228747
0.294092
0.256981
0.315319
0.279270
0.353112
0.344361
0.252798
0.365132
0.372229
0.374639
0.352481
0.336942
0.347258
0.385396
0.308569
0.422305
0.378774
0.288809
0.317673
0.305887
0.282638
0.282048
0.332181
0.243141
0.232528
0.332606
0.250262
0.220371
0.186527
0.211333
0.205453
0.234161
0.295041
0.227359
0.219076
0.182336
0.311193
0.179481
0.290108
0.247386
0.193397
0.183345
0.170415
0.197187
0.237412
0.120963
0.223467
0.208501
0.239299
0.507591
0.798118
1.052856
1.324154
1.304179
1.286813
1.035618
0.757305
0.389034
0.165992
0.021958
-0.041913
-0.057828
0.088165
0.059085
0.115377
0.146248
0.155425
0.201094
0.176996
0.189065
0.210547
0.232490
0.176121
0.210364
0.187543
0.203171
0.242516
0.266756
0.262429
0.246131
0.249338
0.288518
0.315182
0.280733
0.305087
0.398388
0.407769
0.326563
0.394206
0.371729
0.440864
0.409298
0.467942
0.444362
0.526459
0.481450
0.495563
0.540674
0.601660
0.598871
0.553903
0.607761
0.579583
0.668425
0.578997
0.567062
0.607856
0.533574
0.590493
0.596251
0.533568
0.522287
0.538886
0.562861
0.552928
0.474849
0.496284
0.525574
0.427495
0.398325
0.397758
0.401454
0.383601
0.306751
0.397472
0.377649
0.293492
0.314968
0.221164
0.297141
0.281642
0.257421
0.268676
0.190599
0.293185
0.257509
0.253187
0.173392
0.173841
0.252634
0.137034
0.174231
0.155287
0.138112
0.123631
0.176325
0.192459
0.214165
0.186802
0.143519
0.111122
0.194245
0.090898
0.096634
0.188710
0.112035
0.095787
0.124567
0.167729
0.135815
0.210549
0.085268
0.096696
0.115653
0.173530
0.175408
0.143285
0.067349
0.164217
0.164113
0.126458
0.085829
0.185179
0.126204
0.160748
0.090161
0.171229
0.165153
0.137861
0.114835
0.152998
0.131193
0.126152
0.133010
0.186968
0.098142
0.100079
0.156972
0.182538
0.124317
0.102239
0.217012
0.157046
0.155667
0.141377
0.111399
0.175450
0.169460
0.157676
0.153385
0.090909
0.186598
0.150160
0.137680
0.114365
0.251758
0.195957
0.205907
0.197669
0.164355
0.202212
0.160113
0.224884
0.288387
0.260056
0.328794
0.203361
0.341118
0.227686
0.281320
0.299163
0.296020
0.260685
0.334575
0.277136
0.288378
0.267546
0.282271
0.270079
0.208491
0.278685
0.221496
0.245847
0.184723
0.193220
0.211314
0.125463
0.140098
0.174637
0.234195
0.193901
0.083369
0.136623
0.101043
0.184185
0.185645
0.159738
0.137541
0.083437
0.168239
0.180180
0.114107
0.195602
0.106116
0.137978
0.100222
0.127817
0.067809
0.145403
0.268263
0.420939
0.708728
0.965248
1.205176
1.305074
1.224686
1.085017
0.781463
0.436069
0.214817
0.006135
-0.056506
-0.035883
-0.008068
0.014942
0.079831
0.110922
0.104999
0.118949
0.119907
0.180828
0.205788
0.151390
0.199961
0.206992
0.269126
0.224682
0.186360
0.190522
0.200694
0.271159
0.176412
0.175672
0.253266
0.262913
0.289010
0.311506
0.289400
0.304694
0.341949
0.363679
0.379736
0.384664
0.406827
0.510554
0.490685
0.485758
0.482618
0.460992
0.518455
0.560448
0.591594
0.627276
0.563636
0.560727
0.547908
0.513427
0.568484
0.533632
0.611945
0.521668
0.531093
0.552502
0.556421
0.547249
0.586873
0.461457
0.444729
0.491022
0.450990
0.459996
0.415946
0.412073
0.426564
0.415787
0.419027
0.368892
0.314955
0.376076
0.327175
0.283546
0.267557
0.290138
0.260275
0.258013
0.240646
0.195616
0.264145
0.246645
0.293629
0.196202
0.232564
0.169991
0.209099
0.216950
0.145960
0.161677
0.126092
0.162428
0.175025
0.199088
0.219478
0.218613
0.123828
0.207623
0.121209
0.251414
0.155454
0.108038
0.170583
0.176771
0.161541
0.236555
0.082481
0.190943
0.191485
0.185282
0.152993
0.092714
0.151901
0.135749
0.163114
0.162783
0.218007
0.194167
0.187315
0.127032
0.133269
0.249459
0.197197
0.195852
0.207841
0.186932
0.233048
0.154969
0.109888
0.176657
0.144627
0.245374
0.161631
0.139179
0.171631
0.220840
0.174744
0.134338
0.103092
0.168323
0.202657
0.168702
0.156040
0.180059
0.175954
0.170296
0.197388
0.233978
0.220449
0.277141
0.267714
0.209362
0.211327
0.278245
0.316099
0.311895
0.290326
0.322314
0.297705
0.270346
0.265235
0.272826
0.339178
0.363107
0.361064
0.341187
0.304287
0.341241
0.349077
0.340351
0.310221
0.355657
0.375012
0.334146
0.218908
0.335715
0.257390
0.352682
0.304105
0.239303
0.246024
0.245434
0.273572
0.169832
0.270576
0.204513
0.206711
0.181267
0.219294
0.293348
0.232651
0.259402
0.255236
0.172485
0.193832
0.233493
0.249835
0.156865
0.176466
0.239721
0.207327
0.187013
0.184634
0.350030
0.454967
0.724388
0.990792
1.146214
1.278604
1.319207
1.255734
0.965699
0.702022
0.360889
0.155685
0.054532
0.048057
0.065533
0.168926
0.184531
0.182875
0.230097
0.253907
0.221979
0.215630
0.233104
0.220512
0.265920
0.286738
0.288131
0.286504
0.224049
0.262818
0.363671
0.246833
0.336588
0.347092
0.349960
0.315950
0.416827
0.384162
0.452230
0.428000
0.432586
0.482521
0.492915
0.476539
0.495767
0.475660
0.579858
0.580427
0.621279
0.589723
0.625501
0.605568
0.681019
0.686343
0.626392
0.674024
0.686155
0.604984
0.643362
0.712261
0.619339
0.688876
0.670146
0.599273
0.669526
0.590368
0.577079
0.613016
0.585644
0.543101
0.579879
0.550276
0.485176
0.542020
0.492524
0.497820
0.476581
0.372395
0.388830
0.386567
0.433652
0.378252
0.384287
0.320614
0.373055
0.423064
0.349709
0.294356
0.345196
0.264055
0.312885
0.302565
0.360969
0.338729
0.324336
0.230363
0.299598
0.306909
0.281895
0.204792
0.260657
0.308413
0.262742
0.264228
0.233854
0.289040
0.259805
0.266887
0.282198
0.298333
0.306215
0.233782
0.309750
0.264854
0.293304
0.234406
0.293232
0.213333
0.296592
0.361268
0.282602
0.306258
0.271924
0.300992
0.327671
0.280750
0.259063
0.201843
0.357645
0.227690
0.300932
0.274205
0.300017
0.241702
0.242121
0.275481
0.224128
0.255547
0.245644
0.291942
0.296784
0.272467
0.260264
0.250316
0.265961
0.178342
0.303053
0.175323
0.272584
0.264851
0.323616
0.247218
0.241825
0.283433
0.265611
0.293527
0.297607
0.323598
0.337603
0.309021
0.273036
0.320615
0.358785
0.316772
0.341539
0.348859
0.370073
0.378288
0.383367
0.391894
0.434079
0.456819
0.443460
0.424948
0.381697
0.389774
0.399821
0.432616
0.435612
0.324922
0.369665
0.381945
0.394965
0.277768
0.454082
0.415867
0.356283
0.332704
0.287029
0.253319
0.330807
0.303332
0.290540
0.274657
0.280854
0.299704
0.277515
0.345811
0.310289
0.281972
0.284103
0.320580
0.244828
0.225302
0.240662
0.280500
0.324024
0.237323
0.244719
0.233630
0.258278
0.302147
0.439341
0.688154
0.946894
1.174099
1.381273
1.378330
1.335450
1.087392
0.740326
0.403219
0.203079
0.106363
0.063480
0.072073
0.200766
0.211779
0.232002
0.241285
0.243159
0.295783
0.207398
0.229287
0.356625
0.281840
0.323610
0.298929
0.277540
0.359704
0.265116
0.300549
0.294907
0.331449
0.322196
0.334115
0.367731
0.441949
0.386886
0.428669
0.411727
0.486367
0.411756
0.562457
0.448961
0.520732
0.500659
0.568598
0.564084
0.566226
0.622557
0.627879
0.636826
0.643379
0.652801
0.583708
0.615038
0.620772
0.743064
0.710436
0.694881
0.677573
0.635870
0.681157
0.637867
0.568658
0.624116
0.592554
0.636462
0.563267
0.654501
0.514215
0.519790
0.563213
0.455287
0.447981
0.470867
0.475508
0.443780
0.339622
0.390264
0.432686
0.373537
0.346715
0.344333
0.325630
0.351189
0.319284
0.344536
0.336472
0.240605
0.294762
0.307892
0.218925
0.267404
0.255101
0.258470
0.283281
0.264394
0.208843
0.227324
0.228790
0.229258
0.221214
0.272337
0.190043
0.229959
0.273883
0.224983
0.225439
0.290582
0.247152
0.227819
0.194379
0.208142
0.257220
0.281100
0.262771
0.267300
0.221326
0.224309
0.253713
0.195539
0.151611
0.187597
0.290232
0.170396
0.242870
0.242464
0.214412
0.189104
0.224411
0.232678
0.201150
0.208568
0.179332
0.219234
0.157320
0.211209
0.238559
0.218147
0.179411
0.225079
0.202843
0.226229
0.243561
0.241687
0.189015
0.207441
0.210813
0.202134
0.214005
0.257839
0.182067
0.200596
0.191263
0.288016
0.261804
0.227157
0.293618
0.237583
0.223591
0.219891
0.289631
0.262552
0.265303
0.279315
0.285221
0.269174
0.312832
0.346738
0.319035
0.382392
0.339152
0.397194
0.319058
0.311604
0.346377
0.370521
0.291153
0.326212
0.278580
0.371841
0.288561
0.250381
0.222982
0.293633
0.272378
0.286994
0.261706
0.220427
0.216234
0.210218
0.265420
0.167426
0.228885
0.241169
0.154466
0.199807
0.211995
0.193488
0.206785
0.232468
0.206503
0.251277
0.145293
0.194980
0.160830
0.205708
0.173107
0.081312
0.136618
0.139452
0.298803
0.541790
0.746948
1.103288
1.196705
1.328124
1.208613
1.075071
0.725145
0.470268
0.226678
0.014620
-0.047463
0.095717
0.003437
0.090738
0.128464
0.125536
0.163673
0.224340
0.170309
0.227993
0.155465
0.185783
0.205225
0.260554
0.240802
0.169328
0.250772
0.288003
0.290081
0.265514
0.316530
0.338141
0.254905
0.336461
0.268906
0.332444
0.358071
0.323606
0.353761
0.394799
0.358000
0.437708
0.431332
0.463046
0.498159
0.495811
0.479000
0.541735
0.520126
0.540893
0.511055
0.549364
0.574068
0.570919
0.556251
0.635549
0.529021
0.600306
0.626126
0.532385
0.561094
0.534650
0.477954
0.598461
0.504849
0.515590
0.451947
0.460670
0.500971
0.472744
0.434554
0.446880
0.405921
0.400800
0.333606
0.404007
0.300611
0.313922
0.347938
0.301009
0.296426
0.256039
0.234784
0.230659
0.320485
0.171989
0.201446
0.199806
0.255831
0.195709
0.215466
0.173998
0.241712
0.188738
0.145980
0.157121
0.198399
0.178279
0.187687
0.209752
0.218023
0.181396
0.146528
0.122902
0.178520
0.212457
0.128107
0.135753
0.187473
0.200202
0.264767
0.193135
0.179163
0.155444
0.144301
0.129027
0.128102
0.139342
0.207553
0.162610
0.101478
0.186552
0.195599
0.212030
0.114560
0.142920
0.191447
0.136702
0.150963
0.225618
0.180416
0.229244
0.212121
0.144010
0.212545
0.151692
0.139559
0.166904
0.178948
0.181738
0.084761
0.181944
0.180645
0.177153
0.166369
0.174956
0.179743
0.126944
0.184117
0.228653
0.209031
0.155001
0.190349
0.210814
0.181049
0.179174
0.238476
0.188684
0.195042
0.325925
0.293607
0.219296
0.305645
0.294071
0.238939
0.321375
0.250056
0.291469
0.280605
0.319590
0.416002
0.371818
0.300998
0.345120
0.312913
0.314666
0.296813
0.279080
0.334810
0.252434
0.173999
0.280217
0.271622
0.274855
0.300515
0.248112
0.240028
0.220773
0.221598
0.265946
0.199004
0.186166
0.215343
0.163534
0.219134
0.152644
0.204907
0.198796
0.241391
0.168061
0.167931
0.197054
0.183017
0.210583
0.132477
0.190166
0.163131
0.225897
0.199446
0.305643
0.507268
0.729374
0.964576
1.285765
1.305097
1.248375
1.112749
0.869628
0.564870
0.271163
0.070764
0.011316
0.012862
0.029756
0.109554
0.114394
0.157741
0.198556
0.205252
0.343928
0.178163
0.208736
0.185430
0.228561
0.238458
0.258827
0.268314
0.290915
0.241195
0.274741
0.322411
0.281461
0.303159
0.333982
0.355905
0.300425
0.339032
0.373108
0.403577
0.371820
0.475333
0.375963
0.509245
0.454642
0.456175
0.464761
0.534059
0.570024
0.568856
0.605842
0.631204
0.587794
0.557319
0.588056
0.608412
0.669649
0.705205
0.641078
0.683377
0.585286
0.641017
0.647559
0.583652
0.627037
0.616538
0.584911
0.573254
0.547524
0.512080
0.565599
0.454534
0.501173
0.474960
0.463158
0.485170
0.431494
0.370524
0.347991
0.449385
0.355640
0.356952
0.313342
0.300361
0.375246
0.365479
0.359846
0.339743
0.255674
0.252438
0.302121
0.236704
0.224926
0.228852
0.294525
0.223690
0.271006
0.280461
0.289823
0.273476
0.211909
0.333085
0.165516
0.285291
0.230606
0.276513
0.241201
0.193523
0.248128
0.218477
0.217858
0.257457
0.268945
0.218058
0.234744
0.227675
0.272001
0.219098
0.207252
0.216274
0.306575
0.222461
0.247001
0.300113
0.183731
0.220495
0.273033
0.280246
0.224001
0.245441
0.264098
0.289921
0.285757
0.298091
0.232167
0.267254
0.185174
0.199815
0.231091
0.256324
0.225636
0.304739
0.284020
0.243845
0.213644
0.266999
0.239384
0.280376
0.287308
0.258813
0.330357
0.216783
0.281140
0.173997
0.220189
0.281113
0.264393
0.370993
0.293532
0.279861
0.258715
0.328742
0.395922
0.352380
0.393251
0.391985
0.360457
0.358479
0.331315
0.419106
0.380979
0.404714
0.367502
0.412558
0.414201
0.389479
0.399186
0.400764
0.472207
0.421946
0.362585
0.344416
0.345484
0.360425
0.382836
0.329090
0.349486
0.316962
0.302430
0.243190
0.284076
0.308663
0.306706
0.335894
0.308114
0.333947
0.254244
0.317545
0.259746
0.279531
0.270798
0.291211
0.201521
0.257293
0.276365
0.261291
0.226558
0.220057
0.276318
0.288898
0.295453
0.360717
0.547342
0.724029
1.039389
1.262676
1.375571
1.500000
1.233422
1.061064
0.705885
0.456721
0.222386
0.098166
0.061579
0.138439
0.192908
0.171620
0.248693
0.307620
0.304052
0.320342
0.253450
0.317844
0.271318
0.307690
0.323781
0.342389
0.374779
0.328768
0.368478
0.369964
0.274531
0.384998
0.369824
0.443191
0.410073
0.420064
0.382023
0.421637
0.498742
0.476373
0.531014
0.558444
0.526816
0.565477
0.586316
0.556044
0.637873
0.606311
0.642078
0.622527
0.674260
0.662665
0.700026
0.631892
0.763205
0.706072
0.725729
0.690171
0.765464
0.729128
0.749512
0.690618
0.687492
0.702617
0.620439
0.645737
0.597632
0.629410
0.598058
0.567653
0.641443
0.548531
0.523762
0.598649
0.468408
0.518662
0.543290
0.458837
0.410720
0.481815
0.421517
0.438070
0.418969
0.390948
0.387267
0.332046
0.424106
0.346439
0.390974
0.339358
0.266601
0.361803
0.375437
0.331506
0.321564
0.346141
