-0.038235
0.011474
0.007537
0.029911
0.011104
0.029910
0.003154
-0.012716
-0.026277
-0.075599
-0.001492
0.027601
0.013564
0.026114
0.014477
0.058960
0.014576
-0.019720
0.003104
0.083785
0.004955
0.074978
-0.027309
-0.003356
0.021230
0.039728
0.105074
0.049044
0.070590
0.098423
0.000180
0.018044
0.102642
0.150392
0.127162
0.127434
0.125389
0.121002
0.180894
0.237671
0.201640
0.196779
0.158220
0.124341
0.140811
0.122182
0.177236
0.153612
0.162456
0.226492
0.105434
0.159344
0.184456
0.101418
0.141470
0.078181
0.082404
0.060294
0.121312
0.020185
0.098642
0.076886
0.020222
0.043255
0.049862
0.031250
0.030715
0.028473
0.058136
0.097777
0.060664
0.058464
0.034590
0.020688
0.052801
0.055574
0.045232
0.058399
0.177826
0.055054
0.289393
0.510262
0.830160
1.044081
1.213378
1.189766
1.149963
0.826199
0.521594
0.259161
-0.041991
-0.170787
-0.214662
-0.126055
-0.015189
0.075879
0.006522
-0.001779
0.000422
0.072984
0.123617
0.121693
0.062241
0.119694
0.113517
0.102961
0.187212
0.198039
0.048462
0.176491
0.107286
0.155237
0.191686
0.196935
0.265503
0.228082
0.295701
0.256503
0.257891
0.307867
0.347162
0.307713
0.288933
0.324774
0.459331
0.366836
0.376919
0.392537
0.442518
0.454227
0.423615
0.515034
0.465488
0.449890
0.524586
0.482876
0.491049
0.578471
0.556328
0.581256
0.530523
0.557020
0.560455
0.482496
0.520247
0.487574
0.478826
0.392394
0.471185
0.427853
0.395939
0.355948
0.309562
0.382139
0.303014
0.265069
0.254015
0.286289
0.271675
0.193228
0.258775
0.228340
0.214748
0.191928
0.263898
0.213519
0.155747
0.138951
0.129389
0.121655
0.151330
0.199073
0.132538
0.114734
0.068147
0.136395
0.099965
0.077700
0.125310
0.080028
0.086647
0.098589
0.191131
0.127921
0.113711
0.125421
0.070795
0.071320
0.112406
0.099964
0.062777
0.087566
0.165808
0.149953
0.126157
0.089479
0.152849
0.130633
0.112622
0.145281
0.046421
0.083649
0.149905
0.095022
0.188490
0.096309
0.092198
0.149084
0.123238
0.124421
0.066826
0.146536
0.138387
0.082181
0.158358
0.089718
0.178722
0.160688
0.113347
0.146105
0.118010
0.108061
0.142681
0.186279
0.135332
0.115436
0.159645
0.077358
0.110856
0.153758
0.157159
0.106964
0.174285
0.174475
0.182725
0.153526
0.201423
0.129678
0.163185
0.152232
0.193652
0.217570
0.201432
0.178111
0.237122
0.181223
0.202091
0.227620
0.240407
0.276105
0.213343
0.240256
0.269452
0.239428
0.190521
0.246587
0.328939
0.300055
0.181026
0.230865
0.278856
0.259670
0.155916
0.255437
0.170721
0.249772
0.187331
0.197083
0.159100
0.178333
0.196098
0.088033
0.187128
0.119386
0.133923
0.061011
0.126323
0.062071
0.140855
0.129504
0.129109
0.091274
0.133703
0.159388
0.118124
0.092504
0.156152
0.183274
0.081103
0.063547
0.249142
0.290703
0.436918
0.690391
1.016077
1.234008
1.243695
1.204046
0.945321
0.709212
0.329048
0.108565
-0.072462
-0.110696
-0.068222
-0.021816
-0.032487
0.099731
0.128851
0.099549
0.129614
0.122567
0.095678
0.151754
0.128875
0.122510
0.157262
0.218000
0.211496
0.137457
0.146281
0.213132
0.224459
0.245804
0.287674
0.285710
0.279164
0.210112
0.296380
0.247271
0.322465
0.313629
0.396379
0.391674
0.368334
0.433770
0.395546
0.404429
0.435555
0.491392
0.506971
0.514933
0.521825
0.499475
0.493848
0.538019
0.528766
0.524990
0.559757
0.524331
0.447030
0.577266
0.477408
0.523843
0.488655
0.405820
0.460253
0.445680
0.470082
0.412291
0.427745
0.405115
0.386068
0.307784
0.357019
0.317352
0.318894
0.359278
0.250807
0.294006
0.246108
0.228253
0.286116
0.248026
0.185058
0.228742
0.111113
0.160166
0.190189
0.102787
0.160744
0.085922
0.127279
0.116267
0.054784
0.112412
0.068370
0.105768
0.144040
0.080551
0.104910
0.068370
-0.006694
0.067048
0.089283
0.055140
0.141356
0.069639
0.020066
0.059513
0.028597
0.075037
0.109504
0.119367
0.133759
0.066027
0.084190
0.027698
0.121874
0.071614
0.143025
0.115580
0.083870
0.026294
0.078563
0.143032
0.079387
0.140352
0.056403
0.083774
0.080354
0.124897
0.160628
0.066176
0.043887
0.043629
0.057808
0.115480
0.044829
0.133131
0.063422
0.105488
0.091907
0.047450
0.127537
0.024707
0.051087
0.046786
0.082505
0.085883
0.101428
0.111727
-0.019834
0.053729
0.045464
0.091809
0.000829
0.110789
0.052040
0.090435
0.181872
0.152361
0.159411
0.214180
0.119431
0.089093
0.128508
0.176072
0.127853
0.174487
0.170933
0.202694
0.220727
0.174143
0.181005
0.112162
0.237248
0.275923
0.184294
0.223233
0.208277
0.132798
0.175708
0.095773
0.129785
0.151809
0.161924
0.159656
0.103396
0.101060
0.125318
0.107192
0.006878
0.135827
0.070710
0.125441
0.102556
0.045298
0.054354
0.010205
0.048692
0.052438
0.046763
0.162527
0.067307
0.001915
0.109322
0.061919
0.055155
-0.002543
0.019539
0.049172
0.128450
0.384519
0.634563
0.898630
1.169881
1.273866
1.175400
1.011085
0.756850
0.383256
0.082916
-0.118269
-0.229362
-0.163169
-0.087038
-0.080345
-0.033676
-0.014697
0.078799
0.120228
0.136531
0.105756
-0.022528
0.065760
0.118594
0.055583
0.109642
0.098497
0.065143
0.076334
0.128656
0.150958
0.125800
0.175146
0.181746
0.144068
0.205722
0.236340
0.195853
0.261353
0.253308
0.243049
0.326238
0.383649
0.348178
0.369261
0.358777
0.384419
0.363098
0.433440
0.474219
0.428487
0.458752
0.405793
0.474951
0.444532
0.507104
0.477446
0.506125
0.524791
0.512984
0.508801
0.546829
0.442579
0.464230
0.489951
0.461585
0.465564
0.448005
0.361590
0.408208
0.394290
0.300344
0.315039
0.234843
0.277710
0.239197
0.339861
0.204444
0.218276
0.224603
0.189717
0.149208
0.164720
0.124297
0.121900
0.155747
0.083469
0.147382
0.158075
0.138840
0.121617
0.106088
0.076641
0.084701
0.084941
0.097921
0.103625
0.073937
0.113741
0.076118
0.057592
0.153065
0.085851
0.070834
0.042974
0.118946
0.098754
0.112598
0.132826
0.027379
0.080553
0.077426
0.098258
0.035835
0.071924
0.075638
0.126124
0.058841
0.063933
0.111906
0.047287
0.092399
0.111753
0.125011
0.157540
0.110584
0.013445
0.057132
0.077772
0.051048
0.058632
0.079499
0.074904
0.042401
0.080293
0.061694
0.085513
0.147273
0.077606
0.051638
0.072489
0.114890
0.133658
0.040227
0.122505
0.063708
0.123899
0.082716
0.138656
0.125362
0.044037
0.131133
0.112272
0.055376
0.127502
0.077917
0.161193
0.084416
0.171249
0.192704
0.140028
0.201152
0.217254
0.199782
0.274859
0.180763
0.244215
0.179506
0.240488
0.266351
0.224142
0.225485
0.221010
0.274848
0.277119
0.233783
0.263930
0.256343
0.264105
0.268689
0.188432
0.184870
0.158951
0.240962
0.178936
0.212986
0.201516
0.192035
0.154923
0.128475
0.237340
0.207216
0.170718
0.099422
0.125829
0.136032
0.051334
0.117982
0.126901
0.104454
0.154293
0.187816
0.141801
0.127740
0.129962
0.171358
0.097173
0.150130
0.158370
0.144660
0.259993
0.356705
0.615797
0.877537
1.145578
1.318830
1.361791
1.126903
0.873291
0.608888
0.331454
0.007094
-0.087454
-0.075956
-0.063382
0.015858
0.103880
0.119609
0.130558
0.155018
0.181112
0.125369
0.167366
0.136164
0.204560
0.181306
0.155378
0.189294
0.250560
0.215605
0.224582
0.212935
0.297562
0.287094
0.338906
0.215551
0.289006
0.320867
0.348970
0.445152
0.433137
0.401329
0.410851
0.484462
0.407702
0.396289
0.493115
0.527304
0.520696
0.544975
0.544852
0.513757
0.614606
0.570173
0.615690
0.670136
0.583536
0.637741
0.582430
0.626422
0.551278
0.642480
0.547293
0.609530
0.546992
0.518086
0.563506
0.510383
0.545876
0.473642
0.500408
0.451906
0.370303
0.414258
0.472760
0.429036
0.366709
0.376703
0.335898
0.362048
0.359906
0.347670
0.278695
0.303543
0.343700
0.306109
0.181558
0.236715
0.308487
0.150523
0.212129
0.201178
0.167666
0.189662
0.198572
0.216640
0.218879
0.175298
0.170994
0.227580
0.173620
0.229400
0.210036
0.184774
0.232677
0.244310
0.225441
0.154969
0.223190
0.156716
0.194086
0.245316
0.231531
0.172676
0.204154
0.163967
0.276590
0.220114
0.170994
0.259841
0.237019
0.163000
0.215556
0.239414
0.203217
0.219451
0.214549
0.253757
0.165481
0.219414
0.263286
0.270956
0.163117
0.175275
0.223264
0.104566
0.203263
0.232051
0.246435
0.181491
0.146618
0.210236
0.279863
0.208151
0.227925
0.217154
0.227827
0.208500
0.226196
0.220822
0.226588
0.219171
0.213553
0.260201
0.274926
0.250683
0.245004
0.189592
0.281731
0.258671
0.250162
0.256648
0.348770
0.337870
0.244774
0.355347
0.294547
0.376678
0.377289
0.328485
0.414170
0.405865
0.368828
0.389847
0.373954
0.307012
0.391290
0.350829
0.348030
0.501452
0.422361
0.323130
0.384314
0.335185
0.336224
0.420219
0.298539
0.293066
0.352068
0.235834
0.297639
0.286399
0.243005
0.247772
0.280723
0.291232
0.212386
0.256528
0.228083
0.218311
0.218862
0.271412
0.267825
0.216822
0.197456
0.215686
0.261335
0.233494
0.275687
0.214935
0.265298
0.309021
0.408078
0.687758
0.937264
1.205535
1.376915
1.405932
1.277846
1.008384
0.712039
0.390448
0.162174
0.071013
-0.001339
-0.006095
0.101436
0.206905
0.222400
0.257739
0.306362
0.190068
0.274829
0.288195
0.258754
0.226799
0.296770
0.280292
0.277603
0.278593
0.254107
0.275363
0.345891
0.325473
0.358675
0.310246
0.364506
0.478202
0.385713
0.414537
0.417152
0.441119
0.442605
0.425727
0.540966
0.499737
0.501599
0.551844
0.573976
0.626136
0.635062
0.621917
0.656910
0.608760
0.677873
0.653185
0.682323
0.661885
0.756408
0.628055
0.640463
0.642030
0.613716
0.718263
0.651363
0.671668
0.594663
0.638198
0.581596
0.587561
0.576553
0.588925
0.524136
0.480819
0.477252
0.471739
0.483349
0.505810
0.487245
0.485115
0.416698
0.402309
0.344105
0.347157
0.418162
0.333404
0.338539
0.306114
0.300357
0.296654
0.279961
0.300171
0.321699
0.247318
0.295395
0.271795
0.262685
0.296427
0.181473
0.292937
0.243292
0.239669
0.241589
0.267759
0.231595
0.249580
0.250066
0.319922
0.257046
0.169429
0.199972
0.294823
0.213558
0.220245
0.276069
0.212335
0.257457
0.217106
0.149826
0.164904
0.228868
0.223396
0.175437
0.229615
0.221252
0.228182
0.250902
0.240173
0.141549
0.223779
0.276512
0.269376
0.208475
0.170482
0.206451
0.225487
0.238486
0.202414
0.259921
0.266529
0.257667
0.209354
0.187918
0.195199
0.246325
0.259708
0.231393
0.216881
0.141110
0.189087
0.229059
0.191199
0.234223
0.150726
0.253432
0.252794
0.264917
0.315134
0.292863
0.238993
0.243942
0.270403
0.227392
0.282776
0.261146
0.333189
0.280299
0.320951
0.385054
0.349454
0.274285
0.395200
0.341377
0.375487
0.399556
0.459904
0.416719
0.319030
0.351478
0.393488
0.377960
0.356830
0.302522
0.364411
0.347281
0.253137
0.280807
0.277357
0.219825
0.277383
0.239391
0.220947
0.251267
0.241629
0.225608
0.200862
0.163871
0.213539
0.203186
0.220912
0.154786
0.211839
0.187842
0.187103
0.196494
0.214186
0.208332
0.205880
0.205607
0.163188
0.169098
0.190542
0.225008
0.406340
0.622334
0.845187
1.133120
1.364265
1.370326
1.321175
1.087071
0.812073
0.405934
0.228008
0.013462
-0.028322
0.021665
0.047054
0.146303
0.227606
0.260049
0.162187
0.213284
0.234568
0.162672
0.215230
0.160682
0.196942
0.218314
0.299025
0.292933
0.243205
0.282091
0.302408
0.225101
0.259478
0.217879
0.265323
0.291302
0.350977
0.440241
0.415103
0.318767
0.392241
0.404697
0.481564
0.435327
0.443836
0.516170
0.494150
0.501249
0.525622
0.581952
0.553033
0.567843
0.573710
0.650189
0.577799
0.624127
0.610896
0.547536
0.590289
0.633053
0.690644
0.703038
0.614878
0.532320
0.516043
0.556583
0.581063
0.534525
0.591433
0.506501
0.500071
0.467927
0.442707
0.411053
0.389607
0.317574
0.371584
0.379955
0.300747
0.360760
0.327160
0.316193
0.277063
0.255141
0.178089
0.255060
0.194890
0.259573
0.200830
0.212905
0.217723
0.162718
0.214114
0.210616
0.162762
0.197825
0.191028
0.143801
0.111863
0.158918
0.209298
0.132112
0.234509
0.135786
0.119480
0.229671
0.132491
0.123251
0.114096
0.117327
0.161153
0.152713
0.134349
0.137896
0.152471
0.183175
0.160295
0.134268
0.111969
0.071095
0.056906
0.135472
0.153788
0.171874
0.125604
0.158317
0.140365
0.208816
0.154086
0.150755
0.194152
0.119368
0.126776
0.112875
0.097285
0.130443
0.142727
0.215214
0.088286
0.130155
0.142877
0.158848
0.162170
0.193141
0.108563
0.177255
0.078445
0.211442
0.122415
0.155775
0.228039
0.115535
0.209809
0.142609
0.189862
0.129354
0.174087
0.162701
0.210548
0.110458
0.209647
0.185646
0.228883
0.164708
0.225272
0.260418
0.195731
0.227085
0.294002
0.275328
0.297539
0.256725
0.241180
0.287003
0.279396
0.330218
0.269188
0.349722
0.310046
0.292984
0.225911
0.269667
0.219222
0.283915
0.215523
0.227748
0.213250
0.218805
0.228001
0.222643
0.208374
0.156186
0.161193
0.093836
0.151119
0.129893
0.205906
0.104920
0.095486
0.124182
0.177824
0.121382
0.149252
0.096383
0.145224
0.145354
0.136475
0.171002
0.116745
0.156741
0.150112
0.232091
0.495084
0.709568
0.990989
1.222671
1.315986
1.225603
1.150019
0.806010
0.497857
0.283770
0.037456
-0.078487
-0.093407
-0.062435
0.032014
0.019472
0.172845
0.126032
0.115552
0.233271
0.153711
0.185800
0.247717
0.193234
0.124778
0.221510
0.147229
0.252172
0.255235
0.203713
0.169696
0.239950
0.259498
0.237566
0.248537
0.275104
0.373637
0.341793
0.351107
0.417621
0.426802
0.402265
0.461250
0.441795
0.462070
0.541780
0.545340
0.491470
0.491571
0.537337
0.607828
0.529369
0.554720
0.555144
0.585558
0.563232
0.538786
0.602394
0.591674
0.652920
0.582454
0.574774
0.650279
0.502208
0.599853
0.528837
0.471124
0.422204
0.462950
0.491466
0.454691
0.433004
0.429232
0.405938
0.400665
0.342114
0.362424
0.304069
0.272411
0.329391
0.246672
0.261575
0.278818
0.301795
0.268558
0.232285
0.163698
0.260094
0.254344
0.224064
0.098270
0.216063
0.146814
0.188352
0.171574
0.218349
0.181739
0.174720
0.254107
0.237100
0.178478
0.247351
0.167607
0.126185
0.220214
0.197367
0.208793
0.126693
0.283616
0.215196
0.172725
0.217648
0.174003
0.155700
0.200743
0.209619
0.171355
0.223108
0.179020
0.208473
0.217964
0.162330
0.158203
0.142577
0.232823
0.202214
0.177440
0.154572
0.195514
0.197405
0.160902
0.203636
0.224872
0.173701
0.205257
0.219664
0.229803
0.174996
0.180986
0.224936
0.234402
0.174640
0.234938
0.216924
0.187627
0.158673
0.226403
0.168630
0.203338
0.233465
0.183241
0.276809
0.267445
0.213476
0.208501
0.261747
0.224213
0.238129
0.322721
0.291128
0.292312
0.320714
0.291200
0.336372
0.320608
0.356433
0.334380
0.392213
0.369194
0.355460
0.316721
0.308256
0.368666
0.360314
0.379905
0.324202
0.339433
0.341165
0.384526
0.380216
0.342234
0.361514
0.304879
0.319532
0.280652
0.255334
0.320260
0.268885
0.261104
0.261061
0.260428
0.194978
0.260161
0.281794
0.217700
0.204813
0.269565
0.326491
0.280709
0.274621
0.220576
0.267669
0.212248
0.215352
0.213637
0.209458
0.181767
0.247322
0.230387
0.187227
0.353058
0.432656
0.673296
1.016788
1.258292
1.500000
1.417408
1.286131
0.981084
0.699234
0.437542
0.128679
0.050397
0.034869
0.093329
0.165260
0.133179
0.255300
0.210938
0.324391
0.292986
0.288441
0.128920
0.237223
0.254744
0.216253
0.325537
0.262496
0.265720
0.238685
0.311364
0.346453
0.319317
0.363385
0.420530
0.364787
0.387577
0.387956
0.389249
0.427798
0.432181
0.446220
0.482207
0.511079
0.506154
0.526029
0.564240
0.604758
0.626570
0.616330
0.676737
0.678656
0.645879
0.604323
0.691942
0.726424
0.621131
0.641289
0.680144
0.648654
0.683419
0.697023
0.726416
0.683429
0.641174
0.627367
0.612300
0.651877
0.532573
0.603143
0.555802
0.608830
0.562445
0.474410
0.489749
0.511296
0.466656
0.457837
0.447802
0.420269
0.367172
0.354304
0.354877
0.341144
0.408128
0.315048
0.431302
0.362574
0.285846
0.351869
0.351176
0.386752
0.261653
0.268714
0.230262
0.284753
0.320488
0.315556
0.229241
0.308830
0.274221
0.318222
0.290089
0.282840
0.273980
0.221249
0.232846
0.324050
0.276150
0.310716
0.263777
0.278765
0.265415
0.274067
0.238344
0.315927
0.305831
0.282786
0.262092
0.284222
0.262730
0.333262
0.354663
0.274180
0.255658
0.278572
0.284238
0.222650
0.280696
0.236456
0.276761
0.277642
0.270658
0.233727
0.267772
0.268112
0.284991
0.255427
0.329775
0.209849
0.248196
0.300480
0.276365
0.240769
0.227213
0.252920
0.301369
0.291405
0.286551
0.203807
0.264460
0.306969
0.337422
0.264478
0.191885
0.371446
0.255738
0.220661
0.338816
0.364917
0.395162
0.363912
0.374746
0.346702
0.368221
0.290510
0.369340
0.330639
0.400176
0.407479
0.467383
0.350083
0.489456
0.447189
0.371270
0.411911
0.421169
0.383480
0.381009
0.387323
0.480106
0.421515
0.408124
0.392988
0.330285
0.409702
0.321451
0.363243
0.344398
0.342283
0.312862
0.300758
0.277595
0.320627
0.246449
0.307381
0.206061
0.246225
0.261277
0.285885
0.238777
0.287413
0.300085
0.248468
0.313307
0.370632
0.265068
0.252669
0.221215
0.250322
0.267120
0.352311
0.540761
0.687799
0.972668
1.206798
1.358110
1.437680
1.365138
1.069521
0.749833
0.445207
0.246016
0.085768
0.061262
0.085141
0.153407
0.178448
0.238299
0.283607
0.184673
0.287965
0.293945
0.287046
0.303361
0.319534
0.353767
0.269221
0.354865
0.281287
0.357606
0.376063
0.379118
0.394262
0.362378
0.357822
0.329138
0.455391
0.411510
0.454509
0.528464
0.452941
0.451415
0.536252
0.556198
0.502867
0.496888
0.614747
0.607548
0.542498
0.629449
0.633300
0.622817
0.582357
0.689307
0.633558
0.748505
0.682971
0.680159
0.788447
0.677654
0.676231
0.734231
0.644445
0.621873
0.636144
0.613971
0.643635
0.712225
0.620930
0.614047
0.588564
0.627147
0.504474
0.579777
0.465493
0.486637
0.534467
0.508241
0.467128
0.381369
0.340171
0.438406
0.449481
0.376381
0.299175
0.336539
0.334333
0.233363
0.268450
0.349261
0.292802
0.282765
0.294663
0.298671
0.230858
0.236256
0.223686
0.247234
0.245779
0.218665
0.233277
0.316218
0.194950
0.159787
0.278910
0.239626
0.228702
0.219393
0.209287
0.199833
0.192203
0.222246
0.298669
0.249981
0.261153
0.234473
0.287229
0.227309
0.198823
0.209237
0.187680
0.255720
0.240014
0.196402
0.202384
0.257523
0.201230
0.172699
0.276623
0.235510
0.163588
0.219228
0.244355
0.228299
0.254342
0.206729
0.193665
0.241348
0.149311
0.214324
0.213403
0.193665
0.167495
0.240238
0.119369
0.133170
0.287925
0.232761
0.183796
0.210490
0.257914
0.241394
0.213466
0.302429
0.263738
0.243848
0.240027
0.355904
0.274318
0.320787
0.261225
0.272025
0.263894
0.291261
0.329133
0.329264
0.262254
0.302609
0.318154
0.345053
0.346310
0.347992
0.329329
0.358799
0.356759
0.411620
0.293624
0.402793
0.331064
0.385540
0.345628
0.354120
0.378908
0.286126
0.286189
0.268587
0.206418
0.282139
0.197946
0.255511
0.258104
0.215420
0.281400
0.211605
0.259177
0.221330
0.216761
0.183144
0.170355
0.244216
0.219401
0.252080
0.227886
0.143635
0.241441
0.132873
0.212741
0.131845
0.198663
0.126056
0.126603
0.192780
0.346364
0.490993
0.767530
1.074145
1.298097
1.382712
1.339937
1.047076
0.800172
0.455770
0.247418
-0.009894
0.074286
-0.005008
0.053419
0.085237
0.126444
0.220287
0.150695
0.168207
0.216155
0.187215
0.262997
0.131514
0.173897
0.177172
0.183875
0.231379
0.260912
0.333512
0.239593
0.235670
0.270170
0.275857
0.284082
0.312948
0.338425
0.344787
0.373042
0.438356
0.380257
0.391875
0.434808
0.429865
0.401574
0.348571
0.470751
0.546737
0.576462
0.505021
0.598953
0.574299
0.578157
0.507359
0.579255
0.625697
0.564786
0.544076
0.603818
0.599242
0.618090
0.638701
0.597966
0.589029
0.647034
0.539541
0.509929
0.467573
0.536742
0.466953
0.483768
0.410687
0.423729
0.411234
0.443728
0.334328
0.376899
0.311223
0.376750
0.394208
0.261852
0.332365
0.297928
0.248869
0.195435
0.209904
0.205946
0.235131
0.189751
0.122469
0.231768
0.206797
0.162672
0.195726
0.260076
0.160751
0.181246
0.201109
0.197181
0.108972
0.215626
0.143659
0.155955
0.100270
0.082164
0.101020
0.123714
0.197629
0.088414
0.172997
0.217629
0.150402
0.096919
0.182338
0.149908
0.190260
0.126175
0.152444
0.177123
0.213728
0.160434
0.194185
0.171712
0.200852
0.175356
0.170648
0.223503
0.170337
0.149949
0.168027
0.240795
0.154736
0.209659
0.130297
0.071451
0.184371
0.166980
0.165215
0.118846
0.169859
0.200292
0.152268
0.205132
0.151568
0.194642
0.120914
0.131323
0.174698
0.203478
0.201056
0.240729
0.177921
0.229335
0.222780
0.176959
0.212696
0.200403
0.253768
0.205426
0.152622
0.236451
0.258621
0.238593
0.217530
0.256208
0.286370
0.282327
0.232507
0.299941
0.238694
0.336282
0.340800
0.298167
0.346007
0.321015
0.368370
0.335874
0.316698
0.336091
0.331898
0.330872
0.289824
0.260834
0.311075
0.311958
0.284495
0.268578
0.320136
0.229914
0.245735
0.224778
0.213993
0.270624
0.171355
0.204950
0.195812
0.197437
0.169838
0.250718
0.148457
0.124539
0.272556
0.170275
0.180884
0.178843
0.251743
0.216016
0.198479
0.203486
0.216670
0.123498
0.339576
0.513893
0.702435
1.022769
1.255081
1.372400
1.376734
1.143797
0.844628
0.493396
0.272956
0.043908
-0.107136
0.009286
0.005638
0.111531
0.163564
0.215729
0.284442
0.151727
0.277763
0.124663
0.297791
0.251323
0.259515
0.284071
0.223711
0.224140
0.223556
0.267155
0.291828
0.259885
0.320024
0.261138
0.335886
0.398349
0.327716
0.301959
0.358400
0.406871
0.411434
0.454794
0.490550
0.485905
0.520837
0.442602
0.572925
0.531130
0.545954
0.618506
0.671938
0.547265
0.590021
0.625127
0.693583
0.626800
0.703660
0.655706
0.628292
0.626021
0.658943
0.704412
0.674486
0.631158
0.616387
0.640223
0.570546
0.586881
0.606861
0.550651
0.585818
0.622148
0.547458
0.481200
0.499554
0.450963
0.529943
0.468122
0.429358
0.326499
0.335860
0.358284
0.433968
0.345762
0.290819
0.340088
0.333093
0.344753
0.264012
0.273905
0.261410
0.270058
0.350779
0.230558
0.190197
0.291305
0.305309
0.207406
0.215639
0.162868
0.216694
0.279455
0.293793
0.276851
0.266045
0.346175
0.248511
0.202298
0.268584
0.286922
0.282588
0.205878
0.275422
0.264910
0.303044
0.277728
0.261279
0.218839
0.212308
0.245576
0.239265
0.292359
0.244124
0.182006
0.292890
0.244964
0.215466
0.241369
0.268952
0.271093
0.195101
0.293499
0.311375
0.303089
0.283689
0.323678
0.248393
0.249247
0.263479
0.269495
0.196985
0.266933
0.333192
0.263029
0.219273
0.231858
0.211220
0.228698
0.297808
0.298217
0.307069
0.232908
0.279110
0.274051
0.313420
0.321328
0.286147
0.293926
0.346362
0.354320
0.321746
0.293326
0.317574
0.346536
0.431268
0.396069
0.441158
0.385425
0.415069
0.421333
0.427488
0.506264
0.385226
0.429784
0.467178
0.491528
0.423863
0.390896
0.424123
0.442248
0.321837
0.407933
0.388731
0.457436
0.403752
0.346282
0.363468
0.348602
0.334954
0.348388
0.349837
0.266919
0.332451
0.296942
0.301268
0.299031
0.290706
0.227635
0.303378
0.343046
0.347636
0.252472
0.295290
0.267838
0.281430
0.320130
0.324917
0.289825
0.287477
0.274373
0.376336
0.381233
0.525871
0.807833
1.078814
1.320730
1.476107
1.399634
1.361967
1.094522
0.757457
0.466682
0.241997
0.107222
0.070128
0.127903
0.197281
0.273145
0.266581
0.297455
0.320860
0.313568
0.317088
0.268972
0.348029
0.350863
0.313414
0.350210
0.308177
0.360569
0.332822
0.359118
0.354251
0.410167
0.422966
0.444042
0.470419
0.478723
0.491549
0.441120
0.429568
0.498640
0.528952
0.605162
0.556659
0.521341
0.621721
0.623131
0.600343
0.607337
0.599897
0.672892
0.620461
0.671138
0.652977
0.704094
0.744306
0.678358
0.736568
0.782631
0.739395
0.690943
0.730237
0.728088
0.721831
0.706201
0.775016
0.729956
0.710947
0.749145
0.696325
0.608724
0.537908
0.576653
0.511834
0.506699
0.546560
0.485629
0.501681
0.466993
0.394254
0.481857
0.363373
0.408630
0.444307
0.440971
0.450615
0.425198
0.343597
0.351458
0.314853
0.369341
0.378944
0.273214
0.339607
0.351550
0.331610
0.309021
