0.044150
-0.004592
0.009653
-0.033035
0.013766
-0.026834
-0.004824
0.012396
-0.021180
-0.001954
-0.042084
0.031497
-0.005990
0.039500
0.060676
0.076974
0.026204
0.003803
-0.006338
0.072118
0.082406
-0.028567
0.042261
-0.029099
0.058218
0.094172
0.105371
0.088601
0.045931
0.120231
0.093429
0.123466
0.194602
0.107232
0.162834
0.185599
0.089162
0.135782
0.110264
0.160214
0.238410
0.240839
0.188903
0.198331
0.158953
0.186683
0.161833
0.184143
0.128576
0.264103
0.177639
0.104310
0.068956
0.126518
0.077263
0.075957
0.095661
0.147026
0.060385
0.072624
0.072736
0.084935
-0.013016
0.073520
0.031379
0.041160
0.058707
0.067923
0.141243
0.135649
0.109414
0.106682
-0.021045
0.091479
0.081479
0.055736
0.042648
0.036937
0.158723
0.377022
0.549868
0.938207
1.202789
1.423587
1.309423
1.157683
0.917434
0.483690
0.243114
-0.028147
-0.096588
-0.099436
-0.101976
-0.007755
-0.002126
0.069805
0.079486
0.069136
0.047615
0.137157
0.090684
0.101679
0.147942
0.046716
0.155295
0.203861
0.100532
0.179263
0.186567
0.108890
0.134653
0.162770
0.210331
0.236950
0.226133
0.262907
0.362245
0.394152
0.226161
0.314064
0.395683
0.430699
0.412794
0.380998
0.399166
0.417588
0.533556
0.474144
0.538009
0.477750
0.578086
0.530931
0.577808
0.544516
0.595875
0.634090
0.535969
0.568427
0.523077
0.636410
0.553417
0.555307
0.473742
0.498427
0.519160
0.543178
0.349053
0.442052
0.460001
0.360400
0.338608
0.408278
0.345831
0.286755
0.308050
0.229323
0.320098
0.260976
0.240846
0.192345
0.183121
0.233801
0.171918
0.227774
0.227844
0.187783
0.103837
0.208621
0.139439
0.076264
0.125984
0.094305
0.147946
0.128521
0.135407
0.159166
0.089350
0.133793
0.154932
0.066709
0.030159
0.086615
0.094455
0.087974
0.125944
0.105694
0.146122
0.075759
0.072201
0.075929
0.109895
0.066731
0.151604
0.031694
0.026826
0.073896
0.039362
0.057738
0.050202
0.033767
0.040395
0.096764
0.118210
0.009565
0.030741
0.088012
0.121633
0.046839
0.063432
0.070995
0.130201
0.054997
0.051993
0.099522
0.025672
0.079084
0.091299
0.073602
0.142244
0.043280
0.055014
0.074844
0.144615
0.098736
0.078338
0.060084
0.061317
0.173388
0.136935
0.057062
0.065964
0.104708
0.125535
0.156679
0.214916
0.073668
0.166262
0.142819
0.172783
0.141871
0.120910
0.206909
0.120489
0.208490
0.237454
0.260264
0.250427
0.220413
0.215417
0.193872
0.295773
0.151559
0.322370
0.258403
0.220507
0.138648
0.191113
0.224675
0.193218
0.133862
0.156192
0.227449
0.126767
0.140359
0.186425
0.185130
0.094745
0.124253
0.085967
0.154253
0.096084
0.108430
0.104649
0.113006
0.039222
0.017489
0.030712
0.026078
0.007308
-0.003679
0.100967
0.096593
0.106287
0.138977
-0.001601
0.037201
0.133047
0.306791
0.526216
0.801957
1.152485
1.430084
1.436046
1.305569
0.950278
0.585323
0.325768
0.030404
-0.078903
-0.160250
-0.179561
-0.122318
0.010620
0.049745
0.117113
0.154151
0.055040
0.153819
0.080888
0.212425
0.106441
0.109091
0.099288
0.110822
0.167180
0.129002
0.208515
0.162118
0.167289
0.184877
0.226421
0.280529
0.288329
0.238099
0.260411
0.266604
0.215188
0.350314
0.396244
0.257607
0.369725
0.350303
0.344199
0.413539
0.415048
0.392118
0.451786
0.563827
0.536327
0.515500
0.582353
0.597912
0.503383
0.540968
0.548233
0.509609
0.436053
0.592428
0.482804
0.528040
0.423949
0.431788
0.431403
0.432148
0.460181
0.436820
0.431090
0.416735
0.337594
0.355860
0.309784
0.231026
0.256445
0.250239
0.269666
0.247858
0.173823
0.163922
0.205758
0.113449
0.101210
0.117774
0.160087
0.072438
0.122817
0.104215
0.033400
-0.012747
0.052026
0.061952
-0.011874
0.079493
0.078848
0.091184
0.017566
0.051126
-0.027788
0.037898
0.050520
0.064524
-0.020535
0.063666
0.007645
0.010234
0.018545
-0.009769
0.010343
-0.013553
-0.013807
-0.021923
0.033402
0.020537
-0.072504
-0.067810
-0.010439
0.067636
-0.030187
0.022393
0.023421
0.047614
-0.043060
0.012685
-0.044835
-0.020189
0.007014
0.022836
-0.020813
-0.087442
-0.035423
0.005697
0.046697
0.027960
0.062764
-0.007322
-0.057302
-0.048366
0.081885
0.033833
0.014071
-0.000834
-0.007636
0.034247
-0.002913
0.051723
-0.027294
0.009559
0.056164
0.009898
0.058154
0.035543
0.056220
0.059359
0.031162
0.147627
0.069373
0.082667
0.010041
0.093896
0.016127
0.188948
0.075610
0.071783
0.106241
0.098414
0.200342
0.150399
0.165154
0.187757
0.147021
0.130935
0.201165
0.121246
0.104785
0.092195
0.046037
0.106615
0.069372
0.141392
0.046154
0.021869
0.154551
0.101784
0.042632
0.013901
-0.045319
-0.000751
0.030443
-0.021438
-0.065759
-0.103962
0.013182
0.063823
-0.112053
-0.038538
-0.025926
-0.077781
-0.027280
-0.069721
-0.056699
0.002179
-0.021600
0.018964
-0.097410
-0.066008
0.091759
0.244306
0.324017
0.584178
0.982537
1.211010
1.291920
1.236775
0.958860
0.669371
0.177571
0.071795
-0.175579
-0.211018
-0.297056
-0.172694
-0.215624
-0.057309
0.023757
-0.060866
-0.045998
-0.002795
-0.014329
-0.059934
0.015465
0.060172
0.049093
0.085042
0.031756
0.006206
0.013490
0.122474
0.080320
0.154160
0.096141
0.046801
0.188140
0.191971
0.188762
0.128854
0.120036
0.181549
0.187417
0.263474
0.287639
0.334410
0.319022
0.372684
0.301705
0.373241
0.395887
0.425847
0.383833
0.458693
0.393025
0.366133
0.537538
0.430317
0.465753
0.431695
0.471353
0.426194
0.419294
0.394693
0.396674
0.364221
0.362576
0.393972
0.336432
0.344774
0.226354
0.305581
0.330279
0.245091
0.191696
0.221806
0.251093
0.127725
0.134416
0.184100
0.126511
0.083804
0.053239
0.106092
0.097024
0.041524
0.039152
0.125126
0.062999
0.019481
-0.003209
-0.003003
-0.051102
-0.052274
0.018313
-0.107584
-0.042604
-0.031696
-0.030959
0.007918
0.010661
0.000436
-0.033059
-0.029144
-0.084785
-0.044458
-0.054250
-0.012754
-0.088726
-0.071782
-0.095893
0.003020
-0.026779
-0.045810
-0.061727
-0.039667
-0.035333
0.024351
-0.141295
-0.062807
-0.052487
-0.004285
-0.036080
-0.053371
0.001969
-0.005339
-0.018780
-0.033881
-0.079794
0.081342
-0.083967
-0.088288
0.010340
-0.061634
-0.089119
0.007712
-0.031292
0.008768
-0.060450
-0.114902
-0.000715
-0.015881
-0.025515
-0.082807
-0.048216
-0.011589
-0.003995
0.050563
0.052617
-0.074539
-0.002960
-0.051913
0.019477
-0.018541
-0.021616
0.038607
0.054913
0.027140
0.055358
0.066294
0.065412
0.047277
0.130168
0.148372
0.158546
0.096765
0.068635
0.187991
0.165073
0.167818
0.254406
0.177861
0.192822
0.084292
0.137915
0.214603
0.113502
0.076511
0.153567
0.123600
0.117775
0.013844
0.228190
0.077600
0.041757
0.017655
0.064673
0.063022
-0.004329
0.135677
0.048328
0.069853
0.060797
-0.054408
0.035061
0.016249
0.001560
0.043658
0.036910
-0.079520
-0.052799
-0.049187
-0.011759
-0.110398
0.004381
0.028342
-0.025637
-0.012179
-0.031262
0.069836
0.320566
0.457784
0.878562
1.200382
1.342988
1.317684
1.069140
0.854661
0.416495
0.134387
-0.059595
-0.176254
-0.267934
-0.173127
-0.065206
-0.087259
-0.003591
0.043030
0.051419
0.112632
0.077459
0.066835
0.187441
0.000756
-0.035906
0.045232
0.034689
0.030356
0.083033
0.100821
0.154359
0.129441
0.106256
0.204272
0.231157
0.233871
0.173963
0.243335
0.197149
0.332248
0.335609
0.268151
0.291207
0.318520
0.314559
0.354386
0.375803
0.490204
0.466469
0.467506
0.487239
0.542095
0.494437
0.533437
0.538429
0.521459
0.473981
0.582668
0.512604
0.511930
0.522947
0.454741
0.453352
0.531697
0.454009
0.523777
0.402192
0.535190
0.394368
0.303516
0.416106
0.365601
0.273970
0.297786
0.331715
0.273042
0.239751
0.291648
0.276221
0.208430
0.121868
0.136968
0.109701
0.077047
0.162661
0.082496
0.150545
0.109250
0.097929
0.048532
0.058290
0.052835
0.033216
0.080910
0.039407
0.102681
0.121280
0.049986
0.026997
0.032752
0.085699
0.015423
0.165909
0.039864
0.034582
0.016621
-0.001152
0.066380
0.073480
0.028960
0.112666
0.058771
0.053334
0.008387
0.041449
0.106777
0.161805
0.083210
0.002367
0.046647
0.063488
0.127111
-0.017403
0.023139
0.056092
0.068867
0.037067
0.032455
0.085620
0.029732
0.100603
0.084248
0.075825
0.035781
0.001647
0.154271
0.075058
0.026112
0.094844
0.075243
0.087706
0.045961
0.096241
0.167687
0.181261
0.102130
0.155448
0.066490
0.110869
0.090098
0.136921
0.099835
0.092893
0.119992
0.058989
0.107281
0.078895
0.161420
0.120093
0.194420
0.159239
0.193103
0.169670
0.162910
0.247930
0.222349
0.235293
0.215731
0.172329
0.295489
0.277465
0.261065
0.224339
0.279611
0.231691
0.286131
0.255349
0.265146
0.233563
0.149397
0.117342
0.148837
0.178740
0.103566
0.064817
0.093847
0.079693
0.117826
0.024012
0.174362
0.140862
0.223655
0.187185
0.086796
0.103351
0.084825
0.117471
0.099910
0.100532
0.026074
0.118265
0.111774
0.056646
0.098131
0.034315
0.111528
0.088394
0.177582
0.265626
0.653515
0.868443
1.191353
1.394159
1.451389
1.246930
1.000669
0.722182
0.365518
0.052477
-0.053031
-0.105311
-0.152577
-0.006452
0.052848
0.060283
0.116690
0.133999
0.057334
0.037071
0.049562
0.164216
0.066835
0.127494
0.129749
0.126316
0.164646
0.143000
0.155972
0.167420
0.168450
0.223497
0.218825
0.283975
0.272676
0.307829
0.320063
0.334826
0.343176
0.222520
0.420813
0.395221
0.372145
0.431433
0.543691
0.476401
0.515597
0.459976
0.474655
0.548059
0.523930
0.479015
0.576346
0.624126
0.654710
0.627743
0.536946
0.537619
0.562942
0.623261
0.587645
0.571527
0.508430
0.495539
0.523292
0.599347
0.523941
0.396849
0.491371
0.462560
0.341618
0.327602
0.417909
0.359939
0.285124
0.284939
0.314467
0.244615
0.259894
0.213182
0.238086
0.300098
0.165632
0.184995
0.102004
0.095566
0.131373
0.175607
0.113949
0.126122
0.225212
0.137812
0.122639
0.071275
0.111481
0.029697
0.023593
0.157364
0.033120
0.144590
-0.002147
0.128237
0.087034
0.034750
0.028982
0.062297
0.059931
0.114749
0.046711
0.075765
0.107440
0.062529
0.052486
0.140199
0.039979
0.076713
0.041768
0.042500
0.120171
0.052029
0.034450
0.015981
0.013734
0.029615
0.047480
-0.000854
0.090201
0.082918
0.031234
0.073469
0.039419
0.062206
0.036809
0.055124
0.085018
0.086460
-0.025093
0.120328
0.049378
0.119599
0.034117
0.070536
0.069598
0.086366
0.088233
0.050204
0.022521
0.089688
0.083863
0.141849
0.164444
0.012365
0.105332
0.134664
0.217307
0.112271
0.127866
0.134310
0.073131
0.053609
0.124056
0.116497
0.172547
0.135799
0.193863
0.210410
0.172969
0.163218
0.204706
0.168564
0.176545
0.165849
0.244288
0.189951
0.218761
0.280568
0.226638
0.092214
0.198313
0.102215
0.106509
0.164232
0.087635
0.069934
0.088205
0.112502
0.033618
0.074109
0.007880
0.043595
0.064395
0.050034
0.052619
0.016384
-0.021358
0.060550
0.032580
-0.017879
0.007151
0.062213
0.012542
0.046290
-0.059624
-0.004213
0.032881
0.034260
-0.017675
0.189731
0.362795
0.721659
0.976389
1.299859
1.394555
1.310971
0.965141
0.760230
0.366624
0.128297
-0.109139
-0.226074
-0.209789
-0.146816
-0.104915
0.041350
-0.004937
-0.020521
0.056911
-0.013897
0.036452
0.070355
0.012569
0.009988
0.135371
0.058378
0.005643
0.076072
0.162109
0.135517
0.085940
0.165375
0.158848
0.177495
0.175883
0.172000
0.186838
0.178470
0.388754
0.291657
0.279288
0.287542
0.276056
0.364142
0.281828
0.290237
0.365691
0.448268
0.378605
0.450784
0.396912
0.511790
0.429027
0.525803
0.541251
0.519937
0.489555
0.435945
0.417387
0.458296
0.492473
0.406817
0.409181
0.458411
0.441107
0.466533
0.387568
0.335795
0.366595
0.297466
0.321365
0.276475
0.277308
0.206135
0.148281
0.209908
0.178532
0.192001
0.141289
0.130693
0.136711
0.101776
0.009558
0.103507
0.081396
0.075455
0.018848
-0.014083
0.014643
0.104123
-0.008555
0.018185
-0.062548
0.039160
-0.002203
-0.096489
-0.054074
-0.059947
-0.036331
-0.059509
-0.044719
-0.073466
-0.021084
0.014717
-0.060855
-0.041631
-0.074498
-0.076841
-0.071497
0.004069
-0.046366
-0.063255
-0.033193
-0.073528
-0.024875
-0.046269
-0.101703
-0.085267
-0.021068
-0.109052
-0.035913
-0.022030
-0.078072
-0.128529
-0.020394
-0.077095
0.009203
-0.090091
-0.020007
-0.089130
-0.066920
-0.010249
0.001699
-0.050686
-0.119604
-0.031092
-0.042730
-0.121481
-0.071355
-0.082715
-0.061930
-0.062199
-0.012019
-0.034353
0.008246
-0.124372
-0.104243
-0.045282
-0.021299
-0.070626
-0.084792
-0.041699
-0.072807
0.026564
-0.052148
-0.029416
-0.006146
0.071963
0.013171
-0.006512
0.065385
0.026004
-0.000621
0.020427
0.053713
0.159722
0.130502
0.029814
0.095540
0.082911
0.026269
0.102949
0.096382
0.083695
0.053242
0.075129
0.088922
0.017538
0.038608
0.022770
-0.004325
0.008836
0.022026
0.004046
0.008582
-0.012810
-0.100395
0.024612
-0.028582
-0.115454
-0.054963
-0.062898
-0.106241
-0.109625
-0.031927
-0.091672
-0.038655
-0.057883
-0.039317
-0.106529
-0.079897
-0.079743
-0.107983
-0.074218
-0.102512
-0.123551
-0.089071
-0.017477
0.265487
0.476632
0.748711
1.063378
1.241395
1.339019
1.067047
0.692747
0.309797
0.117522
-0.143657
-0.251334
-0.331522
-0.320629
-0.228753
-0.039266
-0.038838
-0.080395
-0.088875
-0.060816
-0.045324
-0.078019
-0.015487
-0.091171
-0.018894
0.035571
0.047325
0.030679
0.045616
-0.018287
0.134840
0.049112
0.073646
0.080213
0.086770
0.171320
0.073614
0.117818
0.233631
0.209101
0.203103
0.093971
0.201593
0.249063
0.281579
0.271983
0.305585
0.386213
0.292198
0.342926
0.396542
0.341951
0.369028
0.441187
0.419236
0.458790
0.386258
0.459838
0.491711
0.342938
0.471492
0.370178
0.437693
0.390025
0.447072
0.402203
0.380165
0.367256
0.318295
0.327962
0.290487
0.191648
0.181228
0.234999
0.215760
0.104725
0.072969
0.207266
0.019441
0.073656
0.107942
0.076760
-0.018962
-0.010866
0.033721
-0.005448
0.007497
0.015661
-0.027702
0.055495
-0.031942
0.042066
-0.124690
-0.069750
-0.080330
-0.028098
-0.056536
-0.058203
-0.068546
-0.042158
-0.038843
-0.028300
0.039599
-0.114688
-0.046574
-0.029320
-0.057707
-0.105830
-0.091145
-0.005904
-0.061669
-0.056407
0.012448
-0.070350
-0.007666
0.012529
-0.085529
-0.062566
-0.138177
-0.086847
-0.066833
-0.104745
-0.039967
-0.029077
0.000434
-0.077195
-0.061586
-0.073840
-0.031604
-0.114826
-0.039665
-0.039713
-0.023205
-0.028995
-0.067937
-0.031252
0.039418
-0.105561
-0.093410
0.039713
-0.022515
-0.064294
-0.086899
0.017134
-0.046686
-0.015695
-0.058940
-0.020146
-0.005566
0.039472
-0.093537
0.038215
-0.019434
-0.017667
0.001962
0.023027
-0.004025
0.042475
0.017136
-0.013048
0.033453
0.072957
0.069118
0.106108
0.092387
0.119427
0.137377
0.137560
0.199552
0.091744
0.143992
0.104840
0.090024
0.130357
0.244768
0.111314
0.126040
0.122531
0.125761
0.028766
0.115858
0.138566
0.050704
0.088746
0.101589
0.099172
0.031879
0.013963
0.007367
0.026810
-0.040732
0.006168
-0.012710
-0.017644
-0.009835
0.032265
0.027241
0.003520
-0.005083
0.016207
0.029098
-0.053876
0.012976
0.049212
-0.075469
-0.034385
0.019963
0.035998
0.119414
0.490208
0.848695
1.036836
1.302818
1.358200
1.272019
0.885859
0.602368
0.218917
-0.064042
-0.206899
-0.321188
-0.174985
-0.191466
-0.104677
-0.046273
-0.030739
0.044043
0.031834
-0.010874
0.032257
0.063109
0.024296
0.095746
0.091182
0.059209
0.196164
0.016715
0.181158
0.070076
0.094471
0.174946
0.095881
0.204102
0.159925
0.233116
0.206918
0.187309
0.330481
0.273891
0.338584
0.354288
0.349121
0.351589
0.365389
0.419391
0.476475
0.424723
0.419031
0.500921
0.471051
0.429152
0.499888
0.531446
0.538529
0.485839
0.537958
0.556371
0.533564
0.449706
0.433826
0.583160
0.464203
0.514997
0.492551
0.482005
0.503594
0.440565
0.371943
0.293726
0.359984
0.354338
0.266231
0.316308
0.268698
0.256495
0.222009
0.241392
0.179618
0.156273
0.169666
0.216139
0.129752
0.236483
0.094424
0.083135
0.092503
0.118271
0.088509
0.138570
0.143004
0.067131
0.027014
0.050565
0.043483
0.010707
0.119474
0.076676
0.033690
0.044234
-0.017783
0.052289
0.112829
0.062222
0.014734
0.056934
-0.024045
0.043719
0.103092
-0.014462
0.047122
0.019573
0.037985
0.067760
0.023459
0.062864
0.045247
0.117335
0.078129
0.050381
0.064675
0.053792
0.067348
0.059524
0.002203
0.080724
0.062012
0.027846
0.023436
0.047964
0.081224
-0.029386
0.023479
0.102109
0.074047
-0.011766
0.176793
0.025774
0.084947
-0.048784
0.097054
0.043235
-0.038317
0.020600
0.059551
0.017963
-0.027955
0.077821
-0.006756
0.086537
0.031532
0.119354
0.112593
0.117594
0.056081
0.067352
0.077486
0.085875
0.174835
0.091264
0.060751
0.108931
0.215829
0.157260
0.207421
0.159076
0.172339
0.213875
0.237060
0.230787
0.227233
0.162734
0.227425
0.244221
0.218359
0.203802
0.234435
0.105277
0.154502
0.117446
0.139419
0.147944
0.100701
0.084994
0.179739
0.105057
0.158646
0.091323
0.059188
0.073199
0.057189
0.000635
0.080082
0.086455
0.056630
-0.028629
0.112468
-0.002936
0.020678
0.024981
0.042416
0.058440
0.031779
0.030457
0.061633
0.089368
0.023228
0.254873
0.358103
0.742385
1.047971
1.273078
1.378416
1.340567
1.051175
0.826330
0.279723
0.053049
-0.141595
-0.289981
-0.263294
-0.131431
-0.025028
0.015866
0.017997
-0.039726
0.062160
0.175510
0.002067
0.036841
0.095998
0.085771
0.135729
0.120491
0.126951
0.061311
0.088103
0.119613
0.068037
0.201614
0.103628
0.186873
0.147381
0.266397
0.216840
0.224262
0.294947
0.245116
0.287345
0.319172
0.360685
0.357193
0.306052
0.416804
0.448352
0.498654
0.503487
0.525991
0.456212
0.442985
0.474604
0.423598
0.577157
0.516061
0.510343
0.600186
0.462633
0.561006
0.502496
0.488927
0.505031
0.487480
0.496408
0.455788
0.420287
0.473173
0.337654
0.364420
0.327908
0.295627
0.263836
0.287852
0.259421
0.173101
0.290939
0.237784
0.149186
0.176756
0.110619
0.130500
0.134899
0.034099
0.171333
0.013142
0.079087
0.101944
0.006665
0.044966
0.036141
-0.061881
0.063056
0.017105
0.075244
0.044816
0.018102
0.099545
0.047889
0.118021
0.087943
0.067321
0.044769
-0.012010
-0.009694
0.013498
-0.038084
0.034216
-0.016531
-0.038237
-0.003696
-0.048523
-0.064328
-0.032689
0.054170
-0.049799
-0.007654
-0.103498
0.010397
0.017416
0.053081
0.045876
0.035725
-0.017186
-0.028521
0.014502
-0.062963
-0.079360
0.065704
-0.029528
-0.025439
-0.002697
0.081801
-0.045824
0.021762
-0.011587
0.053441
-0.000879
-0.086071
-0.046985
-0.028412
0.052116
0.013399
-0.003089
-0.030360
-0.049528
-0.106380
-0.020623
-0.055683
-0.020200
0.013622
0.011066
0.022269
0.075040
0.013638
0.037395
0.006531
0.061649
0.100883
0.003788
0.051842
0.093046
0.057010
0.037412
0.177368
0.085746
0.126524
0.222172
0.170731
0.203055
0.167211
0.092482
0.126795
0.137966
0.134491
0.034346
0.095460
0.071015
0.088327
0.134983
0.055086
0.019880
0.041064
0.094011
0.022207
0.022073
0.040629
-0.007058
-0.065966
-0.045518
-0.059348
-0.013529
-0.023719
-0.059246
-0.022810
-0.057290
0.009547
0.000400
-0.119326
-0.083858
-0.062445
-0.114241
-0.017478
-0.035936
-0.147499
-0.047671
-0.044460
-0.079302
0.196955
0.397140
0.797822
1.087896
1.237815
1.242025
1.142045
0.684252
0.373194
0.096249
-0.185556
-0.318686
-0.348055
-0.238639
-0.120497
-0.100451
-0.041770
-0.024925
-0.073685
-0.062119
0.011635
0.065202
-0.017329
-0.060256
-0.040494
-0.024196
0.010023
-0.006088
0.047648
-0.016843
-0.015155
0.041566
0.040108
0.021572
0.077301
0.099139
0.118591
0.184576
0.115407
0.120203
0.223967
0.248288
0.241945
0.227601
0.229385
0.279547
0.227860
0.275506
0.360377
0.365204
0.377965
0.455900
0.416381
0.418965
0.402136
0.425614
0.418461
0.400227
0.422573
0.351707
0.438163
0.425783
0.401094
0.305125
0.268010
0.283659
0.310972
0.208140
0.296015
0.234783
0.250646
0.275778
0.189231
0.122360
0.139317
0.127840
0.072546
0.073248
0.101329
0.117822
0.009750
0.007722
0.002356
0.017117
0.101363
0.010227
0.013514
-0.018909
-0.089118
0.048675
-0.046206
-0.062121
-0.020229
-0.088738
-0.094728
-0.042210
0.003153
-0.019413
-0.053056
-0.103700
-0.184992
-0.087793
-0.051013
-0.112102
-0.071086
-0.115602
-0.103666
-0.138717
-0.080005
-0.102497
-0.071213
-0.080820
-0.126122
-0.225411
-0.098206
-0.044339
-0.070994
-0.126252
-0.049542
-0.050485
-0.102716
-0.063763
-0.041256
-0.097242
-0.021494
-0.065789
-0.040054
-0.125053
-0.076817
-0.086007
-0.148473
-0.112297
-0.136608
-0.051459
-0.128102
-0.119021
-0.133194
-0.124174
-0.109005
-0.017864
-0.040564
-0.053303
-0.145028
-0.076052
-0.117701
-0.109099
-0.117577
-0.097151
-0.095331
-0.125986
-0.154936
-0.137679
-0.063417
-0.088349
-0.068124
-0.029479
-0.001908
-0.069910
0.051956
-0.036283
-0.020205
-0.026703
0.026319
0.040778
0.014574
0.047329
0.081011
0.024502
0.013746
0.074101
0.031310
0.061493
0.062298
0.154115
0.124228
0.009610
0.040723
0.084408
-0.014611
0.080815
0.040314
0.045343
0.062566
0.014140
0.024025
-0.047592
-0.050266
-0.011962
-0.055524
-0.039227
0.021287
-0.075813
-0.099866
-0.117364
-0.157344
-0.097881
-0.019994
-0.092923
-0.024058
-0.085839
-0.059166
-0.082906
-0.054051
-0.139027
-0.086729
-0.174968
-0.110787
-0.046330
0.196045
0.345524
0.713444
0.928325
1.232311
1.273530
1.158489
0.869309
0.661697
0.161349
-0.202211
-0.351897
-0.360509
-0.242505
-0.236791
-0.107016
-0.122113
-0.064388
-0.142781
-0.068335
-0.027532
0.000345
-0.103812
-0.047878
-0.014640
-0.058943
-0.007013
-0.100703
0.045318
0.066086
0.072174
0.063521
0.115156
0.072485
0.101286
0.083452
0.102960
0.126589
0.163012
0.262069
0.292517
0.284778
0.293018
0.274589
0.262976
0.310022
0.355939
0.314083
0.354746
0.341397
0.414414
0.400984
0.440768
0.516488
0.388490
0.435662
0.464671
0.439188
0.431334
0.389074
0.426301
0.401369
0.476763
0.439477
0.372518
0.385652
0.357671
0.414223
0.275894
0.395587
0.302362
0.293091
0.241468
0.216072
0.236097
0.264500
0.219384
0.106400
0.210365
0.162381
0.078803
0.099647
0.085402
0.021996
0.094402
0.085302
0.031120
-0.022193
-0.002502
-0.055567
0.003622
0.035037
0.006604
0.015322
0.027837
0.082998
0.020632
-0.036441
0.049159
-0.030302
0.008763
-0.045341
-0.013835
-0.009418
-0.039847
0.018336
0.014197
-0.023904
-0.080719
-0.067967
0.090970
-0.048208
-0.043399
0.034205
-0.060759
0.000792
0.013306
0.003931
0.019676
0.042434
-0.077472
-0.040187
0.009037
0.056051
0.053608
0.007648
-0.035570
0.009326
0.012157
0.063851
0.046004
0.036756
0.106320
-0.077225
0.071186
-0.019763
-0.075119
0.004334
0.035879
-0.045400
0.013654
0.096144
0.006943
0.003346
0.033379
-0.022593
-0.055591
0.070837
-0.005868
0.055950
-0.033677
-0.000850
0.069575
0.027849
0.108967
0.062077
0.034277
0.126723
0.064281
0.051581
0.126254
0.135185
0.066409
0.154307
0.187562
0.224324
0.170670
0.040944
0.157582
0.049193
0.178301
0.202108
0.184152
0.207883
0.147679
0.212884
0.168294
0.064857
0.193569
0.203981
0.110338
0.092266
0.176704
0.067296
0.141599
0.046817
0.052749
0.044442
0.109278
0.106887
0.041521
0.097234
0.052540
-0.008333
0.081717
-0.034301
0.000052
0.052337
0.001180
0.066174
0.079487
0.021913
0.076697
-0.040145
-0.029165
-0.012679
-0.029483
0.097945
0.221447
0.407381
0.762127
1.049233
1.267956
1.500000
1.368216
1.075380
0.758944
0.368832
0.030978
-0.221243
-0.207797
-0.128182
-0.072151
-0.084843
0.003793
0.037503
0.049552
0.052009
0.143016
0.015375
0.079925
0.031432
0.106924
0.128559
0.180614
0.131616
0.146725
0.166660
0.140940
0.170327
0.215227
0.184090
0.201315
0.287663
0.263871
0.244730
0.298463
0.218281
0.379465
0.303831
0.280988
0.429259
0.420545
0.467914
0.433253
0.484651
0.380953
0.586259
0.475490
0.581417
0.457896
0.478649
0.504508
0.527281
0.554917
0.585173
0.575818
0.532888
0.582914
0.512159
0.505741
0.527062
0.554683
0.544034
0.450365
0.505897
0.392891
0.401968
0.405886
0.422679
0.375244
0.365321
0.249554
0.373607
0.234061
0.339555
0.295569
0.303465
0.285450
0.276454
0.209515
0.124350
0.139068
0.116890
0.097908
0.106798
0.126348
0.122409
0.160005
0.130346
0.113233
0.067526
0.079998
0.098107
0.052788
0.084199
0.140815
0.151191
0.018297
0.133745
0.086320
0.068641
-0.007040
0.099660
0.044876
0.085636
0.033594
0.048451
0.044922
0.060221
0.058406
0.035491
0.024342
0.084508
0.029093
0.040015
0.164735
0.049412
0.133097
0.073347
0.039523
0.030551
0.105584
0.111478
0.051910
0.100935
0.131879
0.072385
