-0.006660
0.044417
0.014852
0.075803
0.012119
-0.004366
-0.034131
-0.064368
0.001872
-0.062832
0.032414
0.017456
0.045102
0.029149
-0.004205
-0.038826
-0.005081
0.055416
-0.004443
-0.036707
-0.033783
0.065558
0.108744
0.036503
0.015570
-0.035996
-0.025319
0.114050
0.079986
0.159221
0.134850
0.122908
0.140556
0.166826
0.179816
0.209685
0.099992
0.219844
0.252767
0.118630
0.203406
0.165873
0.208047
0.222567
0.280276
0.270423
0.187899
0.216111
0.243199
0.120817
0.161302
0.069163
0.137861
0.195113
0.229029
0.209981
0.084846
0.142533
0.010672
0.131932
0.149200
0.063592
0.000390
0.118355
0.058022
-0.011471
0.043667
0.078697
0.088854
0.118789
0.074406
0.055723
0.065656
0.035238
0.080167
-0.014105
0.081108
-0.061432
0.149073
0.489570
0.691248
1.047434
1.319052
1.452940
1.465014
1.253545
1.001403
0.547881
0.261299
-0.055970
-0.177282
-0.114055
-0.194510
-0.080927
0.021530
0.002655
0.010454
0.040347
0.013827
0.061610
0.083830
0.052272
0.146290
0.116209
0.120705
0.135315
0.191063
0.093487
0.223580
0.167358
0.148946
0.192407
0.206504
0.261220
0.344101
0.325839
0.316557
0.315499
0.358997
0.362621
0.373126
0.475486
0.458239
0.370830
0.476676
0.486466
0.471034
0.579591
0.525538
0.517476
0.590680
0.662590
0.592072
0.624587
0.648681
0.687416
0.580102
0.615122
0.599061
0.588395
0.610326
0.463737
0.589379
0.499083
0.486059
0.538996
0.528057
0.528800
0.431351
0.330348
0.463481
0.348053
0.357448
0.372412
0.256273
0.384184
0.307335
0.308629
0.238560
0.323208
0.258280
0.161781
0.132922
0.166923
0.205956
0.125802
0.193192
0.074941
0.087287
0.103424
0.166278
0.104385
0.155928
0.198878
0.135473
0.216278
0.059689
0.117344
0.079363
0.162699
0.089193
0.022057
0.082335
0.161225
0.067267
0.113352
0.133425
0.097712
0.142352
0.079948
0.076693
0.178322
0.029026
0.134246
0.102562
0.094510
0.090972
0.081783
0.173542
0.078104
0.050128
0.135269
0.074500
0.114629
-0.012544
0.051881
-0.000462
0.157740
0.059990
0.132160
-0.010470
0.083141
0.109521
0.124897
0.020902
0.102425
0.092337
0.103188
0.084915
-0.021787
0.014031
0.150075
0.048378
0.087414
0.069463
0.093208
0.040122
0.042003
0.058674
0.212459
0.023020
0.136695
0.012515
0.252562
0.157204
0.110175
0.192985
0.118256
0.103909
0.218499
0.177356
0.201644
0.239076
0.210157
0.110670
0.246805
0.291572
0.262441
0.238490
0.291727
0.285736
0.240082
0.212720
0.354744
0.377811
0.216158
0.263496
0.188759
0.255455
0.213262
0.210084
0.186799
0.214224
0.207179
0.164764
0.000305
0.160590
0.126068
0.058699
0.172570
0.162236
0.054112
0.093634
0.022587
0.031954
0.009164
0.003350
0.147001
0.074877
0.047268
0.018461
0.033619
0.047235
0.061800
0.032160
0.007622
0.119126
0.300466
0.563001
0.856232
1.236727
1.421217
1.479628
1.331969
1.067147
0.647272
0.366154
0.054654
-0.141800
-0.168509
-0.176593
-0.128693
-0.017633
0.053128
0.108218
0.143171
0.135921
0.151912
0.075705
0.139744
0.117469
0.097543
0.135120
0.097550
0.150076
0.212063
0.195319
0.165494
0.254345
0.236622
0.227078
0.250617
0.280649
0.198285
0.262086
0.371624
0.259963
0.376908
0.329716
0.399840
0.387000
0.514081
0.517358
0.423184
0.447594
0.495225
0.568954
0.594922
0.522601
0.559228
0.634648
0.543819
0.596684
0.587526
0.588342
0.521316
0.677502
0.609310
0.503995
0.607248
0.523344
0.463804
0.545263
0.502087
0.506704
0.443029
0.397140
0.436800
0.311594
0.339774
0.395544
0.325893
0.310285
0.273952
0.298815
0.285352
0.235863
0.162381
0.135151
0.179970
0.071696
0.154371
0.028290
0.158836
0.062988
0.123902
0.087553
0.030560
0.058421
0.048915
0.001723
-0.009320
0.097815
0.088316
0.008765
0.090976
0.100781
0.009404
0.045936
0.002133
0.026577
0.012465
-0.045460
-0.058160
0.081738
-0.012961
0.070434
0.046730
-0.002839
0.030239
-0.007955
0.027963
-0.044517
0.039414
0.005449
0.069117
-0.010139
0.106177
0.010700
-0.030335
-0.007688
0.031632
0.044337
0.011125
0.041799
0.035498
-0.052844
0.026219
0.006045
0.002256
-0.072772
-0.051315
-0.019950
-0.019513
-0.072580
0.033747
0.012645
-0.101565
-0.014991
0.046067
0.005686
0.000239
0.100564
0.101111
0.073003
-0.014650
-0.015615
-0.033910
0.031524
0.040629
-0.051770
0.009639
0.058312
0.088919
0.060394
0.038801
0.069868
0.054159
0.156061
0.080429
0.152456
0.084287
0.110560
0.192725
0.131468
0.137935
0.235539
0.157613
0.231268
0.106861
0.187543
0.149438
0.151628
0.115032
0.168444
0.221783
0.162602
0.064221
0.145501
0.116774
0.075326
0.041278
0.083809
0.056421
-0.009250
0.005042
-0.029562
-0.001091
0.037597
-0.082606
-0.037401
0.008950
-0.053370
0.022209
-0.017250
-0.123835
-0.073291
0.016354
-0.016046
-0.027318
-0.040927
-0.084760
-0.063495
-0.062436
0.078600
0.165692
0.306537
0.706568
1.025829
1.319122
1.415720
1.383471
1.080844
0.757561
0.282432
0.053713
-0.236398
-0.220706
-0.316804
-0.138964
-0.187562
-0.029424
-0.102554
-0.047279
-0.071882
-0.044420
-0.005532
0.001397
0.025272
0.086031
0.019133
0.039091
-0.064383
0.140049
-0.009564
-0.000102
0.120060
0.116679
0.146825
0.201286
0.248709
0.149465
0.180527
0.175240
0.241859
0.200453
0.229665
0.344904
0.250653
0.285748
0.316732
0.428603
0.380166
0.402660
0.420723
0.353621
0.504974
0.504156
0.455474
0.474493
0.425364
0.556480
0.505440
0.428958
0.458389
0.440192
0.426860
0.378646
0.520995
0.376342
0.388772
0.403175
0.386891
0.382742
0.319661
0.347906
0.255793
0.271199
0.187696
0.252266
0.307109
0.211007
0.222867
0.154859
0.122646
0.088295
0.080903
0.140675
0.086478
0.085297
0.045599
0.069916
0.051455
0.057709
0.018995
-0.024769
0.034656
-0.042785
0.002040
0.050167
-0.022365
0.037839
-0.127713
-0.041561
-0.102519
0.015286
-0.041544
-0.057017
-0.062750
-0.035722
-0.049998
0.000851
-0.059336
0.034052
-0.011227
-0.131965
-0.030553
0.013463
-0.043078
-0.032763
-0.054108
-0.012883
0.013064
-0.050255
0.005577
-0.046194
-0.045684
0.011692
-0.066771
-0.008361
-0.039001
0.047735
-0.163595
-0.123107
-0.154720
-0.008206
-0.041530
-0.034257
-0.092591
-0.017477
-0.001987
-0.103746
-0.026043
-0.021453
0.046654
-0.075263
-0.042625
0.072877
-0.120220
-0.041296
-0.006583
-0.089824
-0.009885
-0.008719
-0.070246
-0.019840
-0.044269
-0.019385
0.029722
0.072040
-0.022925
0.141449
0.026790
0.000524
0.082463
-0.110305
0.126038
0.085971
0.100945
0.063419
0.199222
0.075810
0.098107
0.134221
0.114302
0.176981
0.062406
0.219516
0.246933
0.088350
0.122261
0.190327
0.171749
0.152530
0.142923
0.148225
0.140595
0.046087
0.105776
0.022643
0.046686
0.062784
0.057538
0.099029
0.037232
0.068123
-0.004057
-0.011294
-0.059114
-0.013686
0.043307
0.072041
-0.059966
-0.007072
-0.010280
-0.058118
0.000891
0.001658
0.029561
-0.073413
-0.014078
-0.082222
-0.054053
0.198273
0.342953
0.672541
0.941165
1.148370
1.368093
1.406690
1.217669
0.823591
0.511891
0.127789
-0.128540
-0.243260
-0.302190
-0.252445
-0.059260
-0.035000
-0.031510
0.023470
0.094823
0.037916
-0.020083
0.043888
0.021290
0.053439
0.059234
-0.040182
0.070660
0.061379
0.069944
0.130627
0.084069
0.215354
0.122280
0.141666
0.128942
0.232180
0.193007
0.221622
0.309509
0.316219
0.271269
0.309264
0.419634
0.366019
0.458812
0.434441
0.390274
0.509243
0.511653
0.485620
0.460061
0.595807
0.486652
0.514625
0.516819
0.586093
0.540005
0.491273
0.488949
0.467166
0.595764
0.513900
0.517712
0.446321
0.457782
0.543218
0.429511
0.461041
0.405318
0.404090
0.379477
0.364672
0.406448
0.426616
0.326347
0.186747
0.297964
0.195520
0.310035
0.158705
0.183529
0.133738
0.149474
0.123354
0.184782
0.056459
0.072966
0.185698
0.158162
0.048518
0.030354
0.038438
0.096332
0.089245
0.028284
0.070646
-0.005369
0.107123
0.096686
0.092917
0.036509
0.065941
0.050780
0.054075
0.171120
0.100294
0.024506
0.042457
0.101805
0.075108
0.052193
0.056454
0.057540
0.105318
0.054065
0.105960
0.070775
-0.017878
0.047529
-0.018969
0.001786
-0.010588
0.060531
0.109801
0.046313
-0.004385
0.044450
0.031915
0.113793
0.037342
0.052398
0.011532
0.116595
0.049105
0.012700
-0.000820
0.100086
0.028848
0.126364
0.138056
0.033730
0.041466
0.044168
0.033562
0.036181
0.049186
0.169905
0.029348
0.085707
0.103836
0.090445
0.143249
0.184779
0.070594
0.142094
0.100692
0.142410
0.123655
0.150941
0.198809
0.241627
0.149021
0.128227
0.251660
0.236984
0.217857
0.292280
0.230170
0.236201
0.336258
0.319171
0.244786
0.283479
0.339941
0.284925
0.185808
0.195315
0.161470
0.202300
0.184690
0.221457
0.228693
0.180227
0.200896
0.167770
0.196938
0.057223
0.135081
0.168628
0.121778
0.123539
0.214590
0.061320
0.025326
0.061600
0.118187
0.140186
0.044629
0.169144
0.111547
0.127757
0.149899
0.088013
0.067547
0.083872
0.049069
0.013761
0.111199
0.296765
0.562963
0.955455
1.307628
1.447806
1.500000
1.393373
1.032600
0.717931
0.364913
0.035512
-0.071128
-0.046013
-0.208596
0.007327
0.034112
0.075822
-0.008039
0.102728
0.133838
0.224722
0.018609
0.142024
0.132891
0.031911
0.107954
0.093360
0.176961
0.240923
0.254030
0.286102
0.260660
0.244730
0.203924
0.297026
0.242193
0.301585
0.392220
0.325980
0.330379
0.419394
0.344439
0.430832
0.516693
0.485750
0.497132
0.474594
0.518600
0.594619
0.538987
0.616247
0.606107
0.606792
0.610718
0.683737
0.735939
0.642451
0.610270
0.639434
0.608690
0.634704
0.647018
0.594128
0.660459
0.581666
0.576660
0.540649
0.562851
0.572892
0.506805
0.490441
0.400561
0.466479
0.395497
0.371379
0.313865
0.320092
0.297739
0.281010
0.184940
0.151318
0.228867
0.221219
0.249490
0.138833
0.207410
0.092688
0.186900
0.233278
0.128819
0.068263
0.185030
0.142107
0.099045
0.003371
0.152412
0.158988
0.026842
0.170012
0.074995
0.127696
0.103145
0.004510
0.093218
0.056192
-0.012896
0.103722
0.050501
0.089994
0.074027
0.025925
0.136020
0.110267
0.135862
0.057532
0.193545
0.030675
0.038288
0.059157
0.093796
0.041679
0.115685
0.038349
0.122345
0.073526
0.058464
0.068047
0.081563
0.023687
0.082379
0.048705
0.053376
0.105027
0.100453
0.028252
0.138108
0.013019
0.019447
0.095872
0.088941
0.074117
0.101939
0.087689
0.047954
0.015001
0.017042
0.056152
0.018997
0.121130
0.131950
0.109563
0.120122
0.129837
0.169326
0.053592
0.072670
0.215185
0.089039
0.190732
0.097539
0.090124
0.142292
0.200937
0.119087
0.126916
0.156417
0.202557
0.201425
0.156757
0.228379
0.282714
0.262467
0.261292
0.221598
0.167259
0.178058
0.144889
0.096697
0.134439
0.210858
0.145606
0.185299
0.154805
0.098945
0.156976
0.076929
0.116010
0.124327
0.059603
0.057292
-0.034680
0.016762
-0.005724
0.059637
-0.004114
0.010504
0.014346
0.031272
-0.065004
0.094031
0.045532
0.043980
0.031365
0.026753
0.061323
0.014154
0.069046
0.057562
0.242703
0.451267
0.762523
1.180990
1.334479
1.496065
1.311444
1.156730
0.805301
0.376202
0.040930
-0.233453
-0.259565
-0.287323
-0.118348
-0.130729
-0.017393
0.048949
0.073043
-0.029925
-0.061400
0.020650
0.000007
0.078173
0.115484
-0.001388
0.078510
0.038643
0.101039
-0.053104
0.095293
0.158051
0.171344
0.180844
0.190208
0.174007
0.245169
0.261406
0.152328
0.299038
0.331425
0.337401
0.303302
0.377460
0.290740
0.357555
0.357565
0.359873
0.433692
0.424165
0.454391
0.393368
0.477373
0.437121
0.561702
0.492821
0.528510
0.530091
0.553470
0.399019
0.588300
0.436459
0.457378
0.571684
0.457888
0.437550
0.409383
0.389233
0.412499
0.407839
0.293380
0.369203
0.286992
0.275742
0.258422
0.207927
0.229903
0.180288
0.207013
0.119446
0.148411
0.115478
0.061828
0.064568
0.040005
0.046006
-0.012165
-0.051102
0.022655
-0.022324
0.028293
0.002261
-0.000563
0.024386
-0.044446
-0.017087
0.002108
-0.070923
0.037523
0.050640
-0.030447
-0.102097
-0.090846
-0.121515
0.008933
0.051022
-0.118783
-0.161461
-0.063305
-0.071986
-0.023214
-0.125536
-0.005354
-0.151601
-0.008105
-0.009298
-0.037440
0.015175
-0.011504
0.002576
-0.039345
-0.048801
-0.036093
-0.135596
-0.020963
-0.006507
-0.002458
0.030390
-0.039263
-0.085217
-0.112761
-0.046254
-0.113255
-0.096478
0.003185
-0.147739
-0.097950
-0.022267
-0.124982
-0.075532
-0.079455
-0.032692
-0.064935
-0.098770
-0.017855
-0.094547
-0.089780
-0.087417
-0.003601
-0.077599
-0.130070
-0.060727
-0.028151
-0.004854
-0.027564
-0.011029
-0.127797
0.000576
-0.022297
-0.046215
-0.052890
0.107236
-0.011731
0.047826
0.037658
0.050615
0.017098
0.076660
0.069178
0.085513
0.046030
0.085945
0.106103
0.086096
0.135011
0.076192
0.121855
0.062014
0.108695
0.098595
0.078665
0.053381
0.098066
-0.003242
0.046656
-0.052830
0.025255
-0.036543
-0.000256
-0.017889
-0.087813
-0.159158
-0.061308
-0.077606
-0.143237
-0.065817
-0.121569
-0.111647
0.027981
-0.042830
-0.123570
-0.137100
-0.009771
-0.108970
-0.099313
-0.136617
-0.134105
-0.045329
0.042943
0.160161
0.467991
0.808293
1.280426
1.347523
1.265515
1.085884
0.900937
0.516811
0.132503
-0.264236
-0.337624
-0.328833
-0.315470
-0.252331
-0.156956
-0.088083
-0.066978
-0.116711
-0.065678
-0.108414
-0.061203
-0.080325
-0.068849
-0.058285
0.008320
0.006986
0.004240
0.007179
0.036268
0.020302
0.074295
0.137303
0.040416
0.053516
0.118113
0.089500
0.047832
0.181413
0.198903
0.177554
0.295212
0.251946
0.280881
0.321328
0.369779
0.388877
0.410568
0.440968
0.440326
0.459219
0.343597
0.515304
0.467252
0.483059
0.403467
0.493323
0.495701
0.427314
0.494202
0.433599
0.449471
0.425350
0.424132
0.428477
0.309985
0.284582
0.382883
0.305694
0.360574
0.321084
0.238942
0.187510
0.223326
0.130582
0.221188
0.179311
0.156543
0.125571
0.175347
0.084500
0.024273
0.003663
0.080226
0.009871
0.044612
-0.055096
-0.024949
-0.074873
-0.050723
-0.000256
-0.049647
0.010918
-0.067989
0.088360
-0.060820
-0.100307
-0.079181
-0.039731
-0.068354
-0.000987
-0.100936
-0.001006
0.012018
-0.128477
-0.024991
-0.067780
-0.012821
-0.022831
-0.194033
-0.028253
-0.065547
-0.024787
-0.100333
-0.169406
-0.062095
-0.042100
-0.008178
-0.012149
-0.082233
-0.047865
-0.014427
-0.132271
-0.123007
-0.010540
-0.032618
-0.039317
0.007378
0.013251
-0.029703
-0.071857
-0.064453
-0.078439
-0.036514
-0.080892
-0.085704
-0.042837
-0.063055
-0.115168
-0.066175
-0.005225
-0.057007
-0.053371
0.010854
0.084775
-0.019458
-0.001172
-0.072995
0.012597
-0.023697
-0.016181
-0.110030
0.019885
-0.013514
0.015061
0.020445
-0.014279
0.008731
0.074165
0.028599
0.015220
0.112851
0.091182
0.178996
0.153990
0.087183
0.078936
0.111602
0.145138
0.137884
0.130101
0.147227
0.172222
0.083893
0.112313
0.132286
0.162290
0.102189
0.045243
0.118796
0.085683
0.117922
0.069151
0.029089
0.067459
0.012458
0.059304
0.043113
0.016444
0.017244
0.055735
0.009528
0.030873
0.016654
-0.023199
-0.042042
-0.046700
0.003177
-0.007162
0.013474
0.010782
0.122322
-0.022045
-0.038983
0.033831
0.047522
0.023867
0.065820
0.161510
0.468196
0.889172
1.165249
1.305552
1.460691
1.275112
0.920262
0.584295
0.268614
-0.050478
-0.186327
-0.324153
-0.262149
-0.184744
-0.116433
-0.026194
0.029005
0.082948
-0.069996
0.041823
0.045382
-0.025303
0.132607
0.091291
0.110295
-0.021547
0.029080
0.173222
0.051418
0.106414
0.164911
0.099061
0.158643
0.200758
0.218099
0.186144
0.193819
0.264781
0.379096
0.324588
0.307242
0.415047
0.316545
0.384384
0.371569
0.414679
0.404369
0.492355
0.505458
0.532903
0.572757
0.545705
0.513580
0.596126
0.604541
0.651947
0.518582
0.587030
0.565519
0.570606
0.400886
0.496018
0.504671
0.450957
0.424742
0.505839
0.423762
0.464700
0.467481
0.322769
0.325846
0.444458
0.356150
0.299702
0.200102
0.227376
0.258047
0.234150
0.215399
0.196905
0.133003
0.179401
0.172643
0.139394
0.131373
0.118647
0.147731
0.194722
0.070139
0.059639
0.027169
0.078543
0.017715
0.094994
0.062398
0.066945
-0.025239
0.051529
0.113893
0.132485
0.059292
0.079550
0.111603
0.015390
0.147924
0.011839
0.045378
-0.006367
0.016882
0.062343
0.066404
0.025679
-0.032714
0.051837
0.131146
0.047982
0.037439
0.037762
0.007537
0.015426
-0.003454
0.070399
0.096346
0.112850
0.075402
0.078475
0.027170
0.053534
0.005853
0.067935
-0.007946
0.061724
0.045104
0.073642
-0.001435
0.059915
0.044064
0.083582
0.060208
-0.027316
-0.002318
0.053249
0.103155
0.027858
0.101339
0.058244
0.036047
0.044829
0.033960
0.043676
0.077245
0.120550
0.188011
0.082276
0.163182
0.120616
0.110515
0.165406
0.110083
0.145623
0.060799
0.180103
0.147034
0.227416
0.294290
0.209065
0.234766
0.280867
0.205245
0.215716
0.218285
0.275986
0.241533
0.218918
0.200762
0.164678
0.224713
0.152093
0.104014
0.302437
0.165145
0.167939
0.187061
0.122861
0.083003
0.119053
0.116633
0.081671
0.093384
0.119656
0.060412
0.137700
0.034169
0.068591
0.028422
0.070558
0.072401
0.081260
0.010398
0.037223
0.090106
0.025221
0.059897
0.088745
-0.002987
-0.037719
0.107608
0.254688
0.424473
0.797572
1.159642
1.350638
1.430823
1.473782
1.151575
0.860453
0.490153
0.105253
-0.120823
-0.153501
-0.095358
-0.223691
-0.072680
-0.013510
0.025204
0.099549
0.026995
0.045783
0.098117
0.062123
0.021669
0.141405
0.083496
0.126889
0.112747
0.225104
0.116858
0.184232
0.156933
0.243888
0.169567
0.142339
0.074510
0.213434
0.228916
0.263753
0.309801
0.353498
0.370160
0.350270
0.309628
0.371845
0.361880
0.417361
0.422108
0.425821
0.480586
0.499231
0.532876
0.542343
0.498409
0.516972
0.553423
0.535177
0.501207
0.539982
0.598561
0.555461
0.475516
0.497877
0.514990
0.528733
0.511986
0.439208
0.488316
0.485191
0.466462
0.420307
0.388805
0.294285
0.300035
0.298062
0.290277
0.254070
0.274676
0.244540
0.152027
0.224360
0.187163
0.138088
0.153932
0.159181
0.174859
0.085789
0.110653
0.115362
0.026197
0.058337
0.039744
0.049043
0.045520
0.035722
-0.047789
0.011343
0.151143
0.058019
0.019280
0.055387
-0.108964
0.048655
0.044645
0.053803
-0.079427
-0.059673
-0.017379
-0.079850
0.051014
0.045816
-0.005927
-0.029625
0.023197
0.041356
-0.037690
0.070890
-0.085396
-0.056775
-0.000190
-0.056067
0.012594
-0.018497
-0.024309
0.002117
0.081649
0.019220
0.062717
-0.043600
-0.048229
0.106822
0.098841
-0.017668
-0.027598
0.016506
-0.086862
0.023917
-0.014513
-0.086235
0.025798
0.002984
0.002936
-0.048940
-0.001849
-0.014385
-0.071233
0.009645
-0.006940
-0.105894
-0.029219
-0.008286
-0.039789
0.016327
0.075567
-0.005871
0.086978
-0.029230
0.120926
0.055703
0.043745
0.068680
0.146700
0.044175
0.167218
0.124682
0.148844
0.083796
0.157552
0.163973
0.108699
0.152829
0.177245
0.108209
0.138659
0.132733
0.079836
0.071464
0.025751
0.104179
0.103174
0.086598
0.009158
0.033200
0.135238
0.015261
0.034694
0.035243
0.058087
0.021983
-0.070628
0.142208
-0.032009
-0.022003
0.024992
-0.067882
-0.025477
-0.133385
-0.050042
-0.024334
-0.106866
-0.046037
-0.044618
-0.043528
-0.158963
-0.113822
-0.064662
-0.133532
-0.051309
0.049981
0.274970
0.441416
0.885436
1.120356
1.426679
1.280823
1.161089
0.853127
0.458612
0.092265
-0.144710
-0.237788
-0.342540
-0.243995
-0.165699
-0.097315
-0.094926
-0.092596
-0.082113
-0.060151
-0.090623
-0.020653
-0.065201
-0.074214
-0.062418
-0.006731
0.005448
-0.001985
-0.048235
0.033881
0.043875
0.072757
0.044672
0.074846
0.068823
0.175938
0.113394
0.080994
0.166945
0.173015
0.145709
0.215832
0.269161
0.266315
0.286168
0.332558
0.243485
0.350149
0.240640
0.390187
0.377058
0.342325
0.381248
0.371495
0.469273
0.423297
0.482182
0.419078
0.386349
0.407860
0.403049
0.408484
0.340229
0.344870
0.403840
0.390603
0.346066
0.290370
0.281768
0.314463
0.291067
0.187190
0.214586
0.163406
0.172964
0.183049
0.136911
0.081785
0.130538
0.063466
0.080947
0.017429
0.044620
0.030002
-0.021494
0.068558
-0.105477
-0.029063
-0.081535
-0.079921
0.005755
-0.042977
0.039092
-0.069744
-0.232930
0.004571
-0.118625
-0.119418
-0.096374
-0.071249
-0.118498
-0.158153
-0.118012
-0.074354
-0.093577
-0.043916
-0.084207
-0.100788
-0.165885
-0.082912
-0.153167
-0.095096
-0.075781
-0.028914
-0.050917
-0.159793
0.001592
-0.188734
-0.217959
-0.071917
-0.139373
-0.121335
-0.138275
-0.130870
-0.094301
-0.142117
-0.110131
-0.115365
-0.112212
-0.132377
-0.081898
-0.090929
-0.149380
-0.103346
-0.073199
-0.141510
-0.011071
-0.107521
-0.010172
-0.082662
-0.145758
-0.106019
-0.092931
-0.082500
-0.140327
-0.111307
-0.084677
-0.069169
-0.053912
-0.036635
-0.125174
-0.015139
-0.059103
-0.085268
-0.068081
-0.122805
-0.056629
0.066966
0.042702
0.019709
0.065362
-0.046758
-0.025717
0.060424
-0.011511
0.024221
0.144329
0.013441
0.073324
0.111180
0.065019
0.101605
0.093304
0.216077
0.084291
0.148307
0.115478
-0.006228
0.021345
-0.029996
-0.023763
0.027798
-0.068987
0.020440
-0.036166
-0.057357
-0.010266
-0.001794
-0.025200
-0.088184
-0.068121
-0.130931
-0.039663
-0.076857
-0.035424
-0.162897
0.008502
-0.108878
-0.086156
-0.068043
-0.099522
-0.015874
-0.101948
-0.191019
-0.042813
-0.109831
-0.058197
-0.013734
0.131996
0.469359
0.666766
1.092752
1.349835
1.371493
1.242782
0.871383
0.547399
0.217661
-0.043018
-0.236263
-0.372137
-0.336401
-0.209338
-0.152310
-0.134363
-0.120151
-0.126906
-0.063372
-0.064646
-0.039561
-0.057006
-0.080007
0.040343
-0.000432
-0.008875
-0.004370
0.025914
-0.034552
0.053555
0.146606
0.048584
0.120822
0.167733
0.111284
0.108564
0.096750
0.164920
0.155708
0.300503
0.237444
0.220124
0.276250
0.221470
0.213411
0.328138
0.335970
0.427085
0.454224
0.385953
0.411669
0.382482
0.475747
0.569301
0.415506
0.460532
0.432440
0.553605
0.469521
0.444262
0.499228
0.414849
0.450678
0.347012
0.303755
0.422246
0.380770
0.429090
0.248316
0.334361
0.331663
0.288545
0.369359
0.264967
0.214959
0.171548
0.144433
0.121818
0.128086
0.137280
0.058465
0.102348
0.129042
0.037752
0.075409
0.084264
0.071571
0.014930
0.052209
0.073980
0.001972
-0.041058
-0.002938
0.010421
0.050187
-0.017786
0.020691
-0.027222
-0.027830
0.018733
-0.021577
-0.090336
-0.044132
-0.017656
-0.040304
-0.060760
0.004942
0.054953
-0.056882
0.015085
-0.072658
-0.053046
-0.010168
-0.028308
-0.022019
-0.045717
-0.055197
-0.007668
-0.014366
-0.002459
-0.039477
-0.147507
-0.069991
0.080527
-0.035308
-0.024875
-0.014740
-0.005487
-0.019796
-0.017119
-0.057123
-0.009074
0.025957
-0.075929
-0.021139
-0.031259
0.058608
0.006631
0.064868
0.023105
0.070779
0.082311
-0.009909
-0.058782
0.013622
0.121927
0.002675
-0.065455
0.057313
0.013290
0.024455
0.050544
-0.016698
-0.010951
0.100739
0.062780
0.065815
0.131789
0.159145
0.125246
0.035852
0.113373
0.160853
0.178623
0.133335
0.197653
0.134793
0.178417
0.169034
0.242408
0.205791
0.234375
0.268725
0.220589
0.149001
0.105218
0.217518
0.152022
0.176345
0.115016
0.090609
0.144946
0.052531
0.163259
0.066788
-0.016028
0.125591
0.128350
0.045343
0.101123
0.045301
0.076218
-0.039512
0.036410
0.083735
0.068718
0.082724
0.043073
0.035311
0.034274
0.038889
0.086322
0.104899
-0.007039
0.035699
-0.037165
0.047938
0.265916
0.376245
0.721899
1.139015
1.306324
1.498896
1.460387
1.147929
0.873837
0.457948
0.159828
-0.183750
-0.180795
-0.239649
-0.146189
-0.007363
0.011990
0.041662
0.135482
0.031863
0.015196
0.052754
0.081971
0.021414
0.194568
0.141133
0.103940
0.147828
0.106890
0.237271
0.119927
0.162601
0.153235
0.229230
0.188568
0.269301
0.241648
0.264239
0.358974
0.267953
0.378540
0.288212
0.292415
0.337408
0.319854
0.514290
0.465481
0.422192
0.425463
0.506004
0.570760
0.590707
0.518562
0.524847
0.580757
0.563030
0.599217
0.582812
0.620059
0.619489
0.651638
0.668819
0.605165
0.578757
0.555178
0.567699
0.458889
0.488117
0.397761
0.399719
0.491592
0.434097
0.322204
0.435588
0.369775
0.356808
0.263624
0.241663
0.232614
0.329029
0.253958
0.128278
0.190853
0.201139
0.142128
0.154322
0.155209
0.181718
0.157202
0.126274
0.093945
0.131758
0.100467
0.102342
0.077673
0.128634
-0.017411
0.059618
0.124174
0.103416
0.085496
0.091668
-0.031414
0.102176
0.141401
0.121996
0.026810
0.033083
0.097614
0.049308
0.061782
0.100475
0.087914
0.046192
0.078655
-0.005036
0.015668
0.054232
0.102584
0.037845
0.038759
0.077147
-0.008254
0.077109
0.094475
0.070880
0.025076
0.030261
0.037718
0.057297
