0.064375
0.006702
-0.005785
0.034655
-0.022610
-0.008500
-0.071644
-0.007630
-0.024483
0.014527
0.031484
0.023527
0.067912
-0.044782
0.031788
0.054396
-0.056651
-0.012067
-0.042009
-0.006021
0.013105
0.018106
0.029317
0.002587
0.063497
0.000736
0.013874
0.043483
-0.020489
0.075645
0.011715
0.050267
0.032921
0.063501
-0.002945
0.046781
0.096810
0.032437
0.125092
0.129926
0.063678
0.115188
0.120423
0.184372
0.230297
0.134726
0.196946
0.114837
0.229485
0.152176
0.206182
0.223948
0.236233
0.283491
0.200477
0.191921
0.165964
0.204330
0.212449
0.119202
0.220025
0.150577
0.076774
0.092457
0.127235
0.136517
0.074683
0.039589
0.140677
0.047101
0.124456
0.056241
0.051448
0.025328
0.070739
0.103062
0.040868
0.043645
0.016257
-0.046122
0.013879
0.003630
0.055845
0.005319
0.081501
0.092814
0.086101
0.061441
0.023917
0.089537
0.052637
0.051243
0.075561
0.048116
0.080232
0.041755
0.069907
-0.059430
-0.043676
-0.017890
0.155085
0.395278
0.701531
1.019610
1.252490
1.500000
1.357537
1.189186
0.875906
0.646100
0.323775
0.057096
-0.173333
-0.220735
-0.201375
-0.137799
-0.071160
-0.042811
0.022734
-0.004073
0.008096
0.076696
0.081266
-0.036838
0.075669
0.085819
0.028242
0.053893
0.123209
0.016485
0.038927
0.040180
0.040704
0.081986
0.055672
-0.001406
0.060597
0.136729
0.048239
0.153394
0.040355
0.139934
0.121231
0.150855
0.151350
0.137906
0.170338
0.249301
0.270047
0.246576
0.215184
0.263436
0.186616
0.310051
0.302605
0.340562
0.353639
0.373438
0.431907
0.485337
0.485630
0.507507
0.465060
0.527824
0.404227
0.570422
0.583550
0.485218
0.600652
0.608138
0.590635
0.595989
0.607157
0.567992
0.525955
0.517981
0.551110
0.629903
0.528016
0.463526
0.437099
0.421274
0.477405
0.366441
0.399723
0.379660
0.362276
0.362735
0.355580
0.369062
0.233666
0.307714
0.333379
0.137983
0.216025
0.255554
0.167289
0.177832
0.245808
0.151730
0.167600
0.067635
0.155399
0.134807
0.170034
0.154043
0.108425
0.199246
0.065462
0.064980
0.027354
0.053892
0.157024
0.078191
0.088085
0.077365
0.132797
0.149132
0.122624
0.052849
0.075227
0.046385
0.057488
0.112324
0.098413
0.075380
0.071890
0.128093
0.103684
0.124042
0.048626
0.087231
0.093193
0.151651
0.114393
0.061109
0.110809
0.129340
0.071092
0.037716
0.107444
0.105603
0.078236
0.024300
0.070154
0.103798
0.080629
0.101653
0.082336
0.077393
0.085208
0.125592
0.144569
0.035213
0.091798
0.009734
0.087568
0.157764
0.076543
0.133144
0.047705
0.103644
0.100399
0.103255
0.116121
0.042616
0.144641
0.120839
0.003246
0.074016
0.038011
0.060644
0.042889
0.061669
0.048065
0.069775
0.039389
0.131332
0.079217
0.042418
0.119421
0.052774
0.090173
0.072471
0.099833
0.100987
0.126420
0.053458
0.081264
-0.020590
0.063509
0.024846
0.020951
0.083964
0.072335
0.076347
0.106930
0.119499
0.114633
0.056859
0.098944
0.195141
0.116366
0.099445
0.083620
0.165616
0.130443
0.219034
0.129047
0.200836
0.280418
0.162235
0.212176
0.220077
0.217864
0.236942
0.154840
0.149462
0.232439
0.237041
0.246155
0.177815
0.190872
0.131606
0.201600
0.200730
0.168461
0.135605
0.035602
0.152111
0.168783
0.112218
0.025696
0.042552
0.047431
0.027252
0.118804
0.035398
0.071960
0.045531
0.095575
0.065235
0.053200
0.024180
0.074764
0.071212
0.024395
0.012345
0.114805
0.084972
0.010878
0.029840
0.034126
0.098421
-0.029558
0.003545
0.038712
0.005047
0.040142
-0.041605
-0.010855
-0.032236
0.016690
0.139717
0.311549
0.650036
0.891409
1.206925
1.373120
1.420817
1.285252
1.021577
0.614108
0.264916
0.034186
-0.240774
-0.341961
-0.283461
-0.321461
-0.143301
-0.182981
-0.033208
-0.059066
0.019673
0.029775
0.003832
0.051794
0.045668
0.093630
0.069794
0.097936
0.036831
0.035205
0.046322
0.043691
0.085251
0.073046
-0.026688
0.069686
0.023969
0.056624
0.060364
0.035923
0.047728
0.094371
0.022572
0.133489
0.128736
0.117480
0.109259
0.199613
0.100216
0.149560
0.153745
0.231762
0.247508
0.216930
0.249772
0.276780
0.286392
0.251802
0.371825
0.425958
0.400971
0.387006
0.357201
0.434330
0.420911
0.474504
0.517111
0.515621
0.506131
0.388444
0.465479
0.442631
0.447656
0.424465
0.468088
0.474513
0.480392
0.487686
0.422358
0.444886
0.391102
0.301652
0.368109
0.393750
0.355765
0.333933
0.272588
0.263135
0.341998
0.242794
0.223262
0.195757
0.206160
0.142479
0.193003
0.167505
0.077595
0.054336
0.033441
-0.006108
0.026012
0.073706
-0.059010
0.022569
0.058853
-0.002181
-0.004091
-0.000135
0.022834
0.062268
0.025324
-0.028862
0.037526
-0.018423
-0.002708
0.056761
-0.003711
0.058457
-0.055425
-0.034425
-0.100383
-0.063754
-0.004819
-0.051473
-0.002836
-0.009265
-0.022402
0.004838
0.007849
-0.011278
0.011010
-0.030030
-0.016985
0.017214
-0.034853
-0.010898
0.025032
-0.044507
-0.036272
-0.028198
0.037737
0.005857
0.023291
-0.077364
-0.045477
0.036190
0.030893
-0.053265
0.013548
-0.079327
-0.073924
-0.042630
-0.006747
0.057722
0.012227
-0.054296
-0.007181
-0.011586
-0.062749
-0.062755
-0.019999
0.063833
-0.065817
-0.127725
-0.063088
-0.073082
-0.056460
-0.000828
0.008414
-0.021354
-0.046352
-0.030007
-0.020671
-0.044404
-0.068383
-0.038321
-0.096537
-0.052894
-0.077687
0.036450
0.034079
-0.130661
-0.075639
-0.099435
0.051654
-0.008450
-0.057527
-0.040699
-0.088551
-0.002017
-0.066513
0.022562
-0.056054
0.003372
-0.000188
-0.077219
-0.021201
0.007321
0.015980
-0.029145
0.107571
0.032598
0.078956
0.013467
0.021727
-0.012008
-0.027591
0.168531
0.149771
0.077967
0.124093
0.276763
0.130279
0.146006
0.166579
0.133801
0.050511
0.207805
0.094916
0.134648
0.096865
0.074707
0.145071
0.067042
0.022127
0.033868
0.026933
0.074402
0.039119
0.109953
0.037339
0.071551
0.038014
0.077016
0.049080
-0.063623
-0.022968
0.024144
-0.030641
-0.009814
-0.040983
-0.095427
-0.041877
0.022356
-0.052140
-0.046147
-0.053850
-0.051315
-0.050300
-0.036480
-0.081594
-0.017854
-0.071304
-0.057073
0.003425
-0.063665
-0.110762
-0.091603
-0.011201
-0.082790
-0.071089
-0.142100
-0.024332
-0.001739
0.130411
0.505549
0.853397
1.097905
1.253527
1.301098
1.198850
0.957025
0.631887
0.274388
0.026544
-0.132021
-0.302652
-0.413558
-0.318977
-0.191160
-0.124519
-0.038749
-0.065759
-0.101464
-0.047248
-0.073141
-0.061259
-0.043121
-0.045413
-0.056367
-0.011367
0.029204
-0.065824
-0.056829
0.050164
0.071105
0.047682
-0.012840
0.025219
-0.073731
0.005979
0.028878
-0.001239
0.109753
0.045844
0.112969
0.130298
0.087314
0.094617
0.137196
0.139246
0.046471
0.094023
0.139848
0.268920
0.178317
0.208753
0.221511
0.259560
0.270574
0.280641
0.357440
0.277228
0.344363
0.386376
0.387104
0.418694
0.483543
0.380456
0.491466
0.498562
0.427172
0.441325
0.487751
0.497926
0.499135
0.472712
0.418478
0.523165
0.426309
0.534708
0.445347
0.517235
0.374832
0.478710
0.437914
0.362544
0.383719
0.362123
0.307033
0.330507
0.199166
0.227748
0.178619
0.233689
0.220824
0.209567
0.222537
0.076330
0.099294
0.141478
0.122765
-0.018094
0.090756
0.073313
0.096306
0.149450
0.094682
0.038463
0.056922
0.010627
-0.015158
-0.011029
0.084946
0.055836
0.026323
0.006497
-0.001217
0.008217
0.030370
0.013301
0.041622
-0.067192
0.028914
0.016513
-0.030612
0.004012
0.080023
-0.000215
0.022483
-0.011278
0.022320
0.076740
0.086855
-0.017163
0.022764
0.006349
0.038443
-0.071129
-0.050164
0.101609
0.095671
0.028650
0.080880
0.020447
0.029563
0.030404
0.068701
0.068172
-0.015246
0.037186
0.116606
0.011083
0.080649
-0.009763
0.038843
0.034458
0.104264
0.015551
0.053454
0.064374
0.057321
0.079391
0.083876
0.017409
0.000721
0.009816
0.016779
0.047908
0.074500
-0.009333
0.118869
0.036095
0.006238
-0.044785
0.072813
-0.017126
0.046543
0.036258
0.075032
0.079473
0.108594
0.052789
0.070852
0.083302
0.105857
0.056500
0.048373
0.006495
0.074128
0.140182
0.052746
0.057638
0.174396
0.041577
0.110358
0.061403
0.026492
0.129565
0.096697
0.020809
0.114558
0.125204
0.167054
0.112941
0.081678
0.170503
0.184275
0.261214
0.268391
0.155844
0.168786
0.171043
0.241756
0.181926
0.195737
0.203072
0.185700
0.165356
0.242451
0.180993
0.246662
0.271303
0.267925
0.189400
0.194904
0.224977
0.157168
0.250483
0.161823
0.184738
0.177296
0.146816
0.197555
0.156496
0.185467
0.096205
0.028838
0.088747
0.055512
0.087902
0.147830
0.053519
0.096259
0.090420
0.052352
0.027679
0.036735
0.119016
0.093834
0.096376
0.109331
0.113185
0.095195
0.035527
0.152400
0.079928
0.007944
0.076859
0.082196
0.071731
0.015007
0.081364
0.080850
-0.003300
-0.035057
0.133494
0.219537
0.560300
0.897956
1.128697
1.424940
1.492385
1.453960
1.125213
0.796841
0.518136
0.178048
-0.050415
-0.144842
-0.208529
-0.159218
-0.127699
0.009197
-0.017625
0.065250
0.118170
0.128247
0.013064
0.151815
0.073102
0.122119
0.113710
0.203462
0.193456
0.113907
0.067744
0.131653
0.127876
0.081343
0.107137
0.166659
0.100140
0.139987
0.105933
0.154430
0.069772
0.132109
0.127575
0.194840
0.240793
0.135280
0.248308
0.196390
0.223188
0.206758
0.287934
0.296786
0.203240
0.306412
0.403431
0.381626
0.294061
0.450014
0.399061
0.484396
0.478413
0.442010
0.488255
0.528371
0.480819
0.480094
0.541816
0.598058
0.577335
0.567751
0.554091
0.536228
0.601286
0.580299
0.607452
0.502117
0.625685
0.524824
0.569175
0.502256
0.452732
0.486950
0.436941
0.442825
0.450844
0.491459
0.359266
0.389449
0.298801
0.391645
0.286051
0.281933
0.281770
0.292988
0.235247
0.229511
0.184535
0.205636
0.158144
0.187215
0.190434
0.100277
0.151671
0.113106
0.112013
0.059010
0.061995
0.079244
0.028799
0.063495
0.090694
0.097270
0.100958
0.124906
0.044778
0.097388
0.093754
0.134133
0.113449
0.029002
0.074957
0.123912
0.065717
0.086889
0.148821
-0.007309
0.152304
0.084493
0.077658
0.072291
0.038776
-0.014747
0.106721
0.109000
0.030105
0.023496
0.018636
0.074081
0.066597
0.048574
-0.024692
0.048506
0.046451
0.072422
0.094550
0.051843
0.057468
0.177713
0.021149
0.027361
0.109630
0.137651
0.111310
0.107710
-0.021667
0.072078
0.124366
0.048451
0.025599
0.018006
-0.013635
0.129808
0.105175
0.121117
0.042971
0.071532
0.063579
0.109041
0.126320
0.052553
0.002263
0.076790
0.023839
0.147111
0.083731
0.101624
0.027508
-0.006123
0.097925
-0.026594
0.048617
0.122939
0.061338
0.052936
0.100306
0.018528
-0.022992
0.030931
0.005264
0.011366
0.018286
0.035576
0.069446
-0.027046
-0.027067
0.067603
0.038977
-0.001196
0.108356
0.109838
0.024866
0.005530
0.036785
0.139301
0.079114
0.155118
0.106005
0.147519
0.226930
0.180472
0.160992
0.154549
0.182862
0.154373
0.216701
0.291787
0.209043
0.219410
0.241951
0.143266
0.206096
0.203245
0.188282
0.171072
0.141704
0.101196
0.169716
0.110561
0.137365
0.149665
0.135897
0.019576
0.111529
0.134151
0.050893
0.046858
0.037925
0.087549
-0.001586
0.054636
0.071079
0.027333
0.065287
-0.026962
-0.015591
-0.077417
0.003131
0.018517
0.007653
-0.026316
0.058748
0.024790
0.036948
-0.009119
0.071648
-0.050405
-0.020067
-0.031484
-0.000786
-0.098881
-0.164781
-0.120345
-0.072055
0.085651
0.089721
0.463894
0.772925
1.124161
1.284027
1.374504
1.304547
1.055836
0.716679
0.439647
0.172581
-0.164718
-0.259508
-0.272938
-0.323559
-0.224765
-0.175929
-0.025894
-0.054072
-0.009870
-0.022764
-0.008992
0.021812
-0.019454
0.001059
-0.001998
-0.050769
-0.001188
-0.078288
-0.020819
0.051019
-0.054421
0.049505
0.027034
0.032832
-0.021870
-0.058593
0.019166
0.028545
-0.033579
-0.006815
0.024784
0.089245
0.093290
0.058938
0.105851
0.135624
0.063227
0.169472
0.144346
0.157644
0.114296
0.207878
0.218941
0.194468
0.231023
0.227849
0.185745
0.313185
0.347422
0.416521
0.371065
0.501632
0.414293
0.397059
0.427853
0.432566
0.359464
0.513077
0.486906
0.396473
0.437642
0.507018
0.453164
0.487896
0.405392
0.445361
0.440430
0.421983
0.328712
0.385855
0.343650
0.247480
0.322263
0.316213
0.312985
0.209990
0.262738
0.103621
0.227230
0.166204
0.080299
0.152454
0.134131
0.039177
0.142313
-0.034539
-0.001218
0.041738
0.026942
0.060906
-0.001257
-0.023440
0.048496
-0.092694
-0.035498
-0.067666
-0.031403
0.016909
-0.059479
0.004187
-0.062682
-0.032200
-0.044010
-0.073840
-0.058939
-0.120565
-0.058428
-0.013344
-0.064174
-0.047652
-0.003376
-0.045119
-0.009500
-0.080209
-0.088057
0.002928
-0.135880
-0.179824
-0.102171
-0.134287
-0.077022
-0.081759
-0.016676
0.005363
-0.015391
-0.134999
-0.069041
-0.087053
0.049556
-0.070215
-0.029741
-0.050964
-0.051805
-0.038298
-0.028829
0.000109
-0.109063
-0.078390
-0.056923
-0.102916
-0.076747
-0.088288
-0.041535
-0.108088
-0.122957
-0.116914
-0.077263
-0.118708
-0.060299
-0.067144
-0.004033
-0.066488
-0.061641
-0.097401
-0.115853
-0.086951
-0.106038
-0.035798
-0.034422
-0.073654
-0.141522
-0.082662
-0.105442
-0.055127
-0.022370
-0.101639
-0.086117
-0.128598
-0.046101
-0.117602
-0.062529
-0.064996
-0.051824
-0.064836
0.019368
-0.047089
-0.158625
-0.120054
-0.022939
-0.017724
-0.090887
-0.055179
-0.098398
-0.071038
-0.079446
-0.006922
-0.095883
-0.070144
-0.027082
0.028943
-0.005067
-0.008845
0.035957
-0.059362
0.034757
0.034593
0.000881
-0.028830
0.070268
0.094427
0.142925
0.102936
0.208439
0.098787
0.065902
0.167163
0.075497
0.042469
0.079021
0.071756
0.022364
0.111455
0.075761
0.060387
0.009783
0.038733
0.009290
-0.007879
0.032622
-0.041633
0.005632
-0.100116
-0.017965
-0.013266
-0.097614
-0.010313
-0.044434
0.007165
-0.091416
-0.070729
-0.096355
-0.050238
-0.090345
-0.064038
-0.051371
-0.107710
0.014399
-0.097309
-0.004120
-0.068641
-0.103393
-0.100636
-0.059477
-0.019352
-0.118205
-0.097872
-0.103320
-0.091801
-0.191098
-0.130144
-0.073412
-0.056366
0.016346
0.418488
0.597525
0.931427
1.170899
1.289734
1.250059
1.010165
0.712996
0.438004
0.175953
-0.121261
-0.412037
-0.465142
-0.281966
-0.309093
-0.310570
-0.136594
-0.075189
-0.083835
-0.171394
-0.057567
-0.054177
-0.095629
-0.154277
0.022802
-0.060983
-0.047669
-0.036432
0.012212
-0.024711
-0.027503
-0.002769
-0.009983
-0.053992
-0.012031
-0.026376
-0.076837
-0.033354
-0.034271
0.023718
0.096533
-0.077266
0.073827
0.034200
0.063892
0.078452
0.097670
0.177430
0.250108
0.173934
0.122649
0.165534
0.205623
0.191425
0.358185
0.244161
0.250459
0.268841
0.309014
0.276703
0.368632
0.380797
0.307499
0.385920
0.429389
0.385031
0.446558
0.474256
0.452254
0.458079
0.411299
0.445872
0.400979
0.461307
0.394456
0.448238
0.451823
0.356280
0.437465
0.414673
0.328144
0.337870
0.401985
0.338687
0.278514
0.284560
0.156720
0.260846
0.232649
0.187165
0.218504
0.132445
0.127219
0.180261
0.086359
0.111263
0.134916
0.124145
0.117676
0.080146
0.050272
0.036603
0.080925
-0.034327
0.045424
-0.089626
-0.014014
0.045090
0.051766
-0.031669
-0.018356
-0.007281
0.069841
0.021698
0.027221
-0.016775
-0.014732
0.037834
0.020566
-0.053954
-0.033522
0.066355
-0.035092
-0.058790
-0.028312
-0.038709
-0.051757
0.038897
-0.088653
0.051410
0.025446
-0.021621
-0.038221
0.011645
-0.003889
0.006244
-0.079849
-0.010708
-0.012531
0.039746
0.009571
0.007132
-0.063714
0.001920
-0.043611
0.017988
0.027894
0.031380
0.003712
-0.032465
0.068690
-0.003033
0.009467
-0.024063
0.083382
-0.084681
-0.018920
-0.017815
0.005384
0.052653
-0.057467
-0.018173
-0.023658
0.021880
0.026618
-0.017999
0.013114
0.022442
-0.062258
-0.004190
0.070542
0.070998
0.000553
0.039766
0.094837
-0.068356
0.034539
0.043926
0.035198
0.050400
-0.008438
0.066033
0.071801
0.069791
0.095278
0.019073
0.031863
0.008741
0.007139
0.061274
-0.018237
0.056165
0.063240
0.012721
0.048689
0.033920
0.078524
0.113492
0.183091
0.109678
0.054322
0.150706
0.054725
0.096607
0.078841
0.160240
0.157339
0.112877
0.118296
0.164293
0.169766
0.217541
0.219073
0.167990
0.268834
0.234972
0.190437
0.186365
0.225290
0.191007
0.159308
0.149618
0.258795
0.093244
0.123234
0.128797
0.188096
0.096874
0.052182
0.080258
0.126337
0.054753
0.046868
0.078475
0.090862
0.103666
-0.030717
0.077817
0.126044
0.011261
0.076158
0.082517
0.060643
-0.014537
0.064171
0.022968
0.115332
0.076245
0.099706
0.018675
0.089091
0.084692
0.059914
-0.008213
0.145459
0.030202
0.015458
0.041106
0.003799
0.002122
-0.048262
-0.018427
0.108785
0.405581
0.757211
0.999235
1.299730
1.337714
1.423618
1.165848
0.854001
0.548097
0.246771
0.032092
-0.213349
-0.298829
-0.232621
-0.144542
-0.184928
-0.092160
-0.006793
0.086784
0.090730
-0.001287
0.141358
0.100821
-0.019135
0.051792
0.001784
0.113741
0.087099
-0.019824
0.078794
0.081820
0.077462
0.078706
0.151126
0.109252
0.113491
0.047960
0.099940
0.060986
0.107061
0.082112
0.081831
0.158841
0.187199
0.215528
0.159228
0.257074
0.143773
0.252136
0.258122
0.210345
0.266584
0.284270
0.327423
0.308886
0.367401
0.341520
0.349862
0.434975
0.431007
0.414087
0.441620
0.459868
0.477033
0.505857
0.562382
0.529109
0.502909
0.523175
0.536207
0.553984
0.490168
0.529821
0.516149
0.521995
0.568500
0.506361
0.520665
0.423445
0.462547
0.429298
0.410733
0.371529
0.334201
0.400487
0.346250
0.339529
0.305537
0.289326
0.335098
0.253994
0.210417
0.196969
0.173215
0.106285
0.215015
0.182896
0.137746
0.135637
0.102606
0.121900
0.109268
-0.059884
0.024413
0.036861
0.076994
0.077589
0.015469
0.028002
-0.027008
0.039359
-0.039630
0.130944
-0.017921
0.056407
0.048070
0.022383
-0.058752
0.057974
0.044249
0.036663
-0.027521
0.101885
0.019843
0.038618
-0.011092
0.003394
0.020783
0.058551
0.061392
0.023937
0.001634
-0.035538
-0.035150
-0.038596
-0.057336
-0.023001
-0.044658
0.013484
0.082801
-0.003989
0.022523
0.005324
0.042821
-0.021487
-0.009815
0.066340
0.033385
0.049367
0.006168
-0.038267
0.023019
-0.058657
0.023578
-0.005239
0.066128
-0.040353
-0.017282
0.066853
0.059261
-0.011887
-0.008285
-0.014555
0.008978
0.081151
-0.025840
-0.000710
0.018680
-0.035601
-0.071002
-0.038813
0.091824
-0.003362
-0.075396
0.000243
-0.008080
-0.004354
-0.003200
0.029427
-0.009994
-0.043982
0.004811
-0.002446
-0.078005
-0.038587
0.010360
-0.032782
-0.011103
0.018070
-0.045232
0.065792
-0.040246
0.009721
-0.032457
0.034889
0.077718
0.012728
0.075484
0.032318
-0.008237
-0.022535
0.008789
0.106439
0.028318
0.020435
0.035957
0.087027
0.018761
0.155649
0.186662
0.000394
0.171323
0.111308
0.143475
0.143835
0.172837
0.169664
0.132132
0.121775
0.156162
0.166389
0.000736
0.069494
0.076734
0.019682
0.132425
-0.015142
0.014245
0.093041
-0.000794
0.036183
-0.039209
0.043336
0.037053
0.011199
-0.067026
-0.025073
-0.050470
-0.034577
-0.009882
-0.064316
-0.029829
0.014185
-0.052255
-0.078571
-0.054676
-0.100405
0.011231
-0.056443
-0.073039
-0.036942
-0.038799
0.004192
-0.109153
-0.067831
-0.091128
-0.025111
-0.042639
-0.125727
-0.058632
-0.086536
-0.104851
-0.001561
0.283220
0.580707
0.913699
1.212269
1.251646
1.280807
1.139768
0.828638
0.462343
0.227732
0.002633
-0.189022
-0.381449
-0.407902
-0.337320
-0.262787
-0.138961
-0.195235
-0.087718
-0.154114
-0.074235
-0.052161
-0.108618
-0.075023
0.007849
-0.071407
-0.043938
-0.040865
-0.100880
-0.105556
-0.088238
-0.031204
-0.059406
-0.067585
-0.008014
-0.082177
0.000006
-0.060937
0.042117
-0.043643
-0.066446
-0.011312
0.024099
-0.004061
0.001946
0.052306
0.061966
-0.027884
0.209137
0.075615
0.109005
0.096989
0.204116
0.217208
0.168567
0.236588
0.276556
0.270055
0.268350
0.296381
0.332659
0.386376
0.334602
0.359096
0.376643
0.339682
0.438964
0.369984
0.399253
0.421734
0.442906
0.400715
0.380911
0.397271
0.407669
0.378978
0.345900
0.309644
0.376879
0.305762
0.324809
0.355763
0.279292
0.260310
0.297294
0.186933
0.180277
0.187042
0.177562
0.145020
0.103277
0.157978
0.105362
0.072299
0.063440
0.045795
0.052234
0.001885
-0.068438
0.053960
-0.016812
-0.032859
-0.062933
-0.072596
-0.111756
-0.026275
-0.059448
-0.074842
-0.012908
-0.118358
-0.049081
-0.136793
-0.135027
-0.073337
-0.102468
-0.085741
-0.051935
-0.123384
-0.021554
-0.067826
-0.136862
-0.124714
-0.098935
-0.079666
-0.054824
-0.104130
-0.064687
-0.012540
-0.129091
-0.118925
-0.085749
-0.053687
-0.035556
-0.033022
-0.096786
-0.156629
-0.107091
-0.073826
-0.075001
-0.126714
-0.020921
-0.088201
-0.025607
-0.079986
-0.033234
-0.107564
-0.071820
-0.100723
-0.179258
-0.114047
-0.048413
-0.056535
-0.123394
-0.129351
-0.055158
-0.075941
-0.115890
-0.083095
-0.106630
-0.126893
-0.231888
-0.072826
-0.054190
-0.079872
-0.095275
-0.202882
-0.063711
-0.125641
-0.058459
-0.155309
-0.104961
-0.076266
-0.083801
-0.096332
-0.137612
-0.075123
-0.155612
-0.008470
-0.096011
-0.104764
-0.153456
-0.196111
-0.096399
-0.070028
-0.029039
-0.089003
-0.139757
-0.124127
-0.079448
-0.003279
-0.075892
-0.144635
-0.078908
-0.122944
-0.152949
-0.083056
-0.134596
-0.003175
0.004151
-0.083597
-0.143775
0.030078
0.033972
0.024471
-0.005214
0.003090
0.068921
-0.004576
0.044421
0.020662
0.079141
0.008732
-0.012772
0.106145
0.085082
0.172289
0.204533
0.035815
0.053914
0.025966
0.070422
0.151382
0.060014
-0.011851
0.054408
-0.040976
-0.017150
-0.015776
-0.035504
-0.043791
0.001774
0.063832
-0.056996
-0.008880
-0.100314
-0.135563
-0.097051
-0.072242
-0.110614
-0.094921
-0.109146
-0.102061
0.041007
-0.116032
-0.076456
-0.142962
-0.031810
-0.060345
-0.076603
-0.077984
-0.038454
-0.047842
-0.025984
-0.030970
-0.056247
-0.036163
-0.113631
-0.050144
-0.070674
-0.169476
-0.103046
-0.180125
-0.023685
0.214214
0.483026
0.813146
1.180164
1.269946
1.305663
1.180773
0.875680
0.572966
0.306560
0.033971
-0.149112
-0.350587
-0.392286
-0.296788
-0.269721
-0.113251
-0.141312
-0.088344
-0.036767
-0.076839
0.010802
0.001014
-0.030570
-0.000728
-0.094468
-0.138215
-0.004610
-0.038518
-0.014308
-0.063713
-0.021879
-0.017117
-0.039908
-0.040191
0.009856
0.003787
-0.016444
0.019906
-0.013760
0.067185
0.014303
0.078113
0.143893
0.100964
0.061515
0.129642
0.190982
0.106159
0.187080
0.196324
0.188856
0.160811
0.143910
0.256041
0.227314
0.282478
0.304749
0.307587
0.383243
0.341553
0.398231
0.375085
0.460607
0.436272
0.472188
0.426202
0.443508
0.545953
0.501984
0.365029
0.463836
0.435262
0.379762
0.536030
0.479088
0.453743
0.396644
0.415956
0.481573
0.468226
0.434221
0.356942
0.357876
0.296373
0.207999
0.221232
0.292112
0.249774
0.308902
0.137816
0.139226
0.214303
0.101091
0.105801
0.179264
0.118948
0.105364
0.090875
0.006151
0.077510
0.057698
0.034024
-0.034304
0.086134
0.036716
-0.023480
0.029398
0.050178
-0.002901
0.083011
0.069384
0.031292
-0.018583
0.054756
0.025397
-0.030929
-0.013027
0.082951
0.046111
0.061476
0.080892
0.091826
0.059403
0.005983
0.025749
-0.014040
0.035404
0.013281
0.031375
0.018049
0.076785
0.051042
-0.051106
0.036652
0.080926
0.001689
0.107555
0.068069
-0.014771
0.033636
0.076428
0.018139
0.036735
0.044051
-0.003547
-0.014105
0.024570
0.057559
0.023665
0.049494
0.076584
0.017670
0.092562
0.040778
0.123634
0.069804
0.032163
-0.008587
0.168809
-0.003543
0.038882
0.057949
0.034042
0.061437
0.004787
-0.016784
0.067993
0.028992
0.006576
0.004933
0.017616
0.086510
0.110980
0.062940
0.110766
0.034826
-0.019717
-0.007753
0.057065
0.099141
0.119085
0.046669
0.092442
0.071387
0.059812
0.144119
0.049288
0.097662
0.061271
0.033040
0.034661
0.127465
0.045573
0.055771
0.074197
0.035471
0.166848
0.113680
0.096580
0.049801
0.217824
0.142595
0.102280
0.102713
0.173712
0.197763
0.197967
0.177283
0.146448
0.202249
0.149307
0.269587
0.192616
0.243296
0.191797
0.278119
0.215319
0.204416
0.197666
0.181497
0.246302
0.188127
0.133523
0.176548
0.149725
0.151538
0.143008
0.180483
0.093398
0.110972
0.108331
0.124205
0.113037
0.145341
0.084991
0.092344
0.113671
0.120768
0.065390
0.031795
0.076766
0.140153
0.099007
0.069066
0.099717
0.059380
0.111320
0.140942
0.093828
0.065771
0.032660
0.032445
0.027035
0.065611
-0.038134
0.083752
0.068426
0.037843
-0.011542
-0.011955
0.056454
0.174304
0.263428
0.509039
0.829486
1.250280
1.376132
1.452652
1.331102
1.107412
0.826287
0.421013
0.099126
-0.144006
-0.164603
-0.274794
-0.220315
-0.173992
-0.144223
0.045156
0.071034
0.032716
0.082385
0.089845
0.055996
0.051561
0.036945
0.142836
0.095261
0.108149
0.079583
0.075121
0.100790
