-0.001037
-0.077747
-0.026670
-0.011514
-0.054844
-0.028637
-0.016778
0.041483
-0.000653
0.005469
0.074179
0.029658
0.055550
0.039550
-0.016144
0.093928
0.055804
0.029138
0.152310
0.037357
0.066401
0.125773
0.138359
0.206240
0.056977
0.125239
0.099069
0.173446
0.119230
0.194561
0.133919
0.091030
0.100242
0.101954
0.228145
0.204562
0.145971
0.165390
0.183800
0.243435
0.296824
0.256326
0.156505
0.126379
0.185306
0.188546
0.078617
0.131840
0.145229
0.128547
0.187509
0.107933
0.072911
0.047779
0.076259
0.101885
0.101274
0.103371
0.092115
0.088514
0.071848
0.063233
-0.047042
0.058520
0.024762
0.019213
0.010431
-0.011586
0.092858
-0.018125
0.028902
-0.024551
0.047587
0.022275
0.247865
0.426743
0.844627
1.136759
1.379631
1.474599
1.322916
1.185632
0.748448
0.382519
0.043374
-0.111069
-0.190791
-0.167786
-0.187225
0.073466
0.097871
0.068191
0.039746
0.079860
0.092113
0.105842
0.096542
0.035199
0.120108
0.145419
0.201166
0.076471
0.257978
0.239566
0.215203
0.224958
0.310397
0.199693
0.304751
0.312459
0.294323
0.326083
0.308371
0.349050
0.365324
0.385454
0.448358
0.552264
0.506889
0.547464
0.577619
0.503278
0.587187
0.508102
0.642800
0.443783
0.555057
0.606899
0.602287
0.493981
0.555247
0.522948
0.626221
0.567518
0.487783
0.627924
0.492655
0.519535
0.468721
0.474800
0.494732
0.414860
0.417745
0.421910
0.421845
0.311061
0.366914
0.273063
0.239866
0.323358
0.329397
0.280320
0.182189
0.250434
0.152844
0.268865
0.199809
0.125741
0.160088
0.084593
0.181093
0.147753
0.092488
0.208701
0.174624
0.060719
0.074873
0.066727
0.057356
0.121905
0.052971
0.078419
0.070632
0.101091
0.095645
0.066967
0.120280
0.054491
0.016471
0.176727
0.059737
-0.033853
0.062738
0.107483
0.085803
0.127519
0.024415
0.072900
0.079068
0.110292
0.132680
0.025225
0.035030
0.026451
0.110568
0.121002
0.092228
0.100946
0.076011
0.076711
0.094009
0.078809
0.163246
0.135022
0.106872
0.101740
0.084211
0.160944
0.120107
0.118319
0.144118
0.095857
0.116826
0.112803
0.043726
0.137714
0.094157
0.096498
0.084480
0.159304
0.148303
0.077301
0.112916
0.130172
0.117952
0.232346
0.151606
0.138598
0.262518
0.282101
0.234281
0.251572
0.288846
0.250967
0.212781
0.228704
0.241689
0.295412
0.313609
0.203590
0.213322
0.314111
0.202144
0.272413
0.153720
0.200766
0.126856
0.174807
0.111460
0.219428
0.160643
0.127531
0.071278
0.183735
0.099096
0.171703
0.051503
0.089098
0.094061
0.168169
0.078596
0.073030
0.092419
0.041772
0.078568
0.139956
0.068900
0.064077
0.065227
0.050603
0.082075
0.227290
0.387909
0.647850
0.997209
1.332056
1.379498
1.430143
1.203359
0.829887
0.542938
0.174043
-0.087097
-0.058480
-0.233735
-0.131912
0.002442
0.011836
0.154418
0.062175
0.124630
0.120197
0.150007
0.093319
0.146251
0.070804
0.227474
0.176136
0.205371
0.217231
0.105911
0.154985
0.257982
0.290495
0.199757
0.283722
0.280786
0.349777
0.340980
0.254943
0.416857
0.340781
0.369953
0.363855
0.420092
0.454573
0.488021
0.481003
0.535499
0.482207
0.580091
0.525861
0.549766
0.590366
0.536296
0.656152
0.557360
0.576581
0.636090
0.562542
0.546083
0.556103
0.565920
0.563685
0.487883
0.429190
0.453609
0.454192
0.356795
0.411395
0.375702
0.352961
0.417765
0.298598
0.297085
0.237322
0.259777
0.267735
0.232317
0.312740
0.161221
0.134133
0.172857
0.145047
0.164618
0.161676
0.103024
0.082561
0.174126
0.061672
0.070617
0.107827
-0.037185
0.132685
0.073634
-0.006923
0.012262
0.049051
-0.044375
0.064670
0.062066
-0.015301
0.018401
0.036556
0.035755
0.068610
0.026404
0.020766
0.005560
0.003546
-0.041208
-0.013579
0.019620
-0.040085
0.037290
0.002631
0.117098
0.047348
0.048659
0.087154
0.014666
-0.033152
0.069895
0.036227
0.043583
0.045158
0.003917
0.002368
0.034573
-0.023246
0.082612
0.013579
-0.029604
-0.050927
-0.021498
0.088484
-0.007566
-0.030239
0.035597
0.019917
-0.019044
0.075104
0.018173
0.097257
-0.095083
0.048857
0.029456
0.137355
0.008667
0.025899
0.129539
0.054647
0.078631
0.116579
0.103105
0.107640
0.056457
0.165300
0.134957
0.080468
0.159918
0.192709
0.185325
0.260807
0.201829
0.159083
0.166625
0.143472
0.159092
0.123415
0.176032
0.131218
0.091670
0.097577
0.129347
0.136113
0.051984
0.048856
0.097171
0.064703
0.051564
0.077724
-0.026020
0.101182
-0.013915
0.036433
-0.045824
0.000898
0.018777
-0.013884
0.001932
-0.023137
-0.020023
0.054783
-0.063870
-0.116802
-0.106511
0.070942
0.009367
0.207879
0.468625
0.746395
1.102145
1.375557
1.351544
1.164294
0.902447
0.473006
0.222235
-0.151604
-0.248346
-0.247283
-0.250381
-0.135402
0.004175
-0.055437
0.017628
-0.033560
-0.076358
0.035686
0.090959
0.011083
-0.027942
0.055050
0.036603
0.095688
0.122231
0.131098
0.158564
0.170006
0.148361
0.149548
0.154401
0.184414
0.186661
0.228624
0.262058
0.239781
0.241773
0.289727
0.172934
0.375400
0.439926
0.354401
0.332515
0.394556
0.345203
0.479217
0.440077
0.386118
0.479161
0.494139
0.456869
0.601237
0.494315
0.472553
0.482906
0.527580
0.420613
0.439495
0.460609
0.416996
0.467262
0.281956
0.360905
0.295183
0.270721
0.294429
0.259853
0.249599
0.264209
0.191656
0.237909
0.204115
0.130814
0.149233
0.151999
0.060526
0.045418
0.034545
0.081405
0.055955
0.085693
0.000871
0.049735
-0.058967
-0.019037
0.045927
-0.047630
-0.075037
0.033750
0.019524
-0.045005
0.036202
-0.073295
-0.000816
-0.023619
-0.027112
0.014905
-0.083941
-0.010637
0.006259
-0.072084
-0.065010
0.010727
-0.027100
-0.049161
-0.045268
-0.022450
-0.059605
-0.063389
-0.115057
-0.064572
-0.103284
-0.024195
-0.100536
0.026538
0.023744
-0.002777
0.044384
-0.058790
0.054115
-0.132139
-0.097311
-0.090119
-0.037289
-0.037347
-0.032642
-0.092191
0.052361
0.105878
-0.052956
0.009739
-0.006198
-0.044555
-0.053520
-0.034575
-0.070443
-0.026162
-0.131780
0.012807
-0.052489
0.051981
-0.031808
-0.059819
0.034089
0.077169
0.021030
-0.001157
0.022247
0.092773
0.103164
0.050806
0.019717
0.130785
0.084346
0.155458
0.057891
0.115988
0.129722
0.189220
0.193994
0.165504
0.068070
0.172743
0.132667
0.057848
0.092403
0.097952
0.105534
0.093169
0.039272
0.130458
-0.027852
0.087327
0.027942
-0.012665
0.042057
-0.018646
-0.028151
0.025217
0.032338
0.006479
-0.007489
-0.006990
-0.037256
-0.066372
-0.016974
-0.010152
-0.025913
-0.025337
-0.053223
-0.127584
0.016055
-0.002360
0.008990
0.167072
0.446774
0.678131
1.018155
1.229499
1.332981
1.370294
1.102763
0.734039
0.348215
0.071231
-0.203725
-0.279557
-0.179575
-0.180511
-0.155645
0.020764
-0.040170
0.019305
0.080670
-0.044208
0.091707
0.022433
0.094421
0.045267
0.098028
0.080595
0.084807
0.125071
0.108009
0.084025
0.165283
0.182947
0.162681
0.183676
0.163299
0.233676
0.255451
0.321553
0.284867
0.355736
0.308940
0.382466
0.412487
0.481623
0.433133
0.413787
0.504533
0.484285
0.503786
0.559771
0.515583
0.630815
0.454860
0.521845
0.480551
0.598363
0.542822
0.524612
0.575093
0.475970
0.382697
0.416291
0.419984
0.419468
0.365587
0.405117
0.408381
0.364700
0.419297
0.391215
0.297106
0.301326
0.292208
0.208033
0.212290
0.148719
0.209465
0.191212
0.155294
0.137748
0.120888
0.046660
0.119373
0.109810
0.150256
0.167680
0.087501
0.092986
0.111814
-0.008993
0.100191
-0.033106
0.047057
0.032817
0.065151
0.173237
-0.007585
0.058328
0.075174
-0.007982
0.032138
0.041335
-0.059596
0.097787
0.065248
0.020469
-0.015608
0.013168
-0.014857
-0.021444
0.042091
-0.016939
-0.021671
-0.002101
0.045600
-0.037274
-0.001729
-0.008303
0.030788
0.028812
0.031976
0.045993
0.054032
0.095526
0.067730
0.002992
0.055122
-0.005266
0.037479
0.050389
0.078030
0.056560
0.003070
0.002592
-0.016254
0.068735
0.033427
0.138303
0.048523
0.051756
0.054973
0.052089
0.020355
0.109526
0.057513
0.149658
0.177487
0.053423
0.068363
0.132321
0.152302
0.084679
0.151649
0.130461
0.232768
0.183832
0.265875
0.171697
0.176499
0.241113
0.224844
0.245990
0.265885
0.307947
0.265053
0.244640
0.211808
0.264400
0.238759
0.162212
0.201796
0.215999
0.181176
0.176641
0.126551
0.150687
0.167836
0.153561
0.125234
0.085286
0.033199
0.071849
0.156026
0.093946
0.081485
0.055693
0.099242
0.063763
0.003712
0.091559
0.060649
0.082526
0.080913
0.010479
0.107718
0.149611
0.196656
0.392329
0.679513
1.006243
1.291328
1.444969
1.483662
1.256957
0.877957
0.541875
0.153818
-0.074730
-0.115645
-0.220000
0.013295
-0.018962
0.044946
0.077848
-0.033179
0.123023
0.177304
0.114945
0.132029
0.170667
0.226546
0.183295
0.180505
0.123068
0.209689
0.250936
0.174493
0.248872
0.190079
0.247787
0.325718
0.314998
0.301055
0.391918
0.356785
0.386465
0.436584
0.442773
0.424974
0.486720
0.457186
0.586000
0.511429
0.588233
0.547989
0.588751
0.616678
0.590383
0.592287
0.586858
0.625184
0.638248
0.614644
0.617635
0.645504
0.581087
0.538984
0.521233
0.495366
0.531128
0.525435
0.536725
0.542593
0.501991
0.409063
0.382505
0.370812
0.365671
0.387337
0.342035
0.316315
0.224702
0.278435
0.234151
0.257271
0.261091
0.128602
0.208308
0.144884
0.228955
0.099307
0.124999
0.239490
0.179189
0.207070
0.208853
0.033232
0.092086
0.160745
0.067511
0.169991
0.008885
0.132577
0.052960
0.092982
0.088017
0.103727
0.091835
0.141866
0.131938
0.050926
0.061131
0.047748
0.083072
0.082670
0.160932
0.142717
0.105316
0.092520
0.086615
0.036112
0.093867
0.021552
0.167698
0.035919
0.008609
0.164845
0.084891
0.035996
0.092036
-0.035756
0.053947
0.067222
0.091896
0.089902
0.127896
0.089737
0.091828
0.102619
0.071254
0.102426
0.112050
0.047602
0.141458
0.062682
-0.014859
0.005305
0.101749
0.182761
0.169506
0.179846
0.163771
0.117798
0.146634
0.102024
0.248114
0.138869
0.086329
0.130198
0.227856
0.200010
0.153370
0.175463
0.294125
0.311473
0.311119
0.245456
0.316108
0.208148
0.225277
0.228921
0.245592
0.279884
0.230999
0.241159
0.210524
0.192124
0.244442
0.219840
0.149022
0.160878
0.105358
0.212766
0.070157
0.156156
0.171688
0.108865
0.184346
0.101821
0.222136
0.094805
0.047769
0.097849
0.089908
0.037951
0.105444
0.085448
0.095885
0.091866
0.048170
0.005043
0.027769
0.061863
0.033270
0.310549
0.498815
0.854339
1.144425
1.384531
1.443458
1.378915
1.134331
0.680401
0.322572
0.081454
-0.114805
-0.278336
-0.146422
-0.085810
-0.060964
-0.001871
0.032130
0.082705
0.011754
0.124072
0.122385
0.091037
0.164162
0.105504
0.049944
0.177336
0.166934
0.205090
0.224334
0.180658
0.152123
0.235470
0.280270
0.264697
0.202019
0.273539
0.318559
0.272915
0.273206
0.371747
0.438393
0.355251
0.414511
0.440833
0.493737
0.550719
0.422778
0.556264
0.574772
0.526359
0.579284
0.517781
0.594371
0.483082
0.529698
0.500685
0.536967
0.534208
0.548032
0.481911
0.454046
0.390538
0.442246
0.403968
0.481272
0.405977
0.356907
0.415645
0.346990
0.310651
0.284501
0.270751
0.165629
0.279025
0.193585
0.188906
0.202812
0.161860
0.135442
0.152908
0.068038
0.139139
0.133099
0.049765
0.061623
0.076774
0.061657
0.046292
0.088887
0.077669
0.020605
0.063892
0.022413
0.034344
0.029427
0.002135
0.048529
-0.017843
-0.008117
0.068426
-0.029514
-0.020584
-0.064007
0.023735
-0.011071
-0.049503
-0.030582
0.001871
0.036864
0.032296
-0.091130
0.083959
-0.017903
0.004826
-0.010933
-0.062121
-0.004876
-0.041794
-0.120649
0.038182
0.001544
-0.099307
-0.023278
-0.016399
0.023141
-0.027490
0.089195
-0.017960
0.012128
-0.035284
-0.034056
-0.036645
0.000578
-0.043395
-0.054349
-0.058342
-0.049314
-0.029673
-0.014247
-0.034158
-0.022733
0.011135
-0.120403
0.079454
0.038147
0.022897
0.033566
-0.020871
-0.012169
0.054193
-0.005588
0.092307
0.098081
0.089146
0.126564
0.067301
0.103792
0.144392
0.103410
0.100201
0.161843
0.193443
0.100543
0.027331
0.054125
0.055330
0.077591
0.057845
0.094503
0.047417
0.053217
0.086651
0.026308
-0.049613
0.068718
0.028695
0.100983
-0.006137
0.013085
-0.012073
-0.006531
0.026043
-0.076165
-0.034170
-0.113209
-0.049496
-0.089132
-0.046274
-0.018197
-0.093609
-0.078873
0.007189
-0.059353
-0.064771
-0.066240
-0.096318
0.133056
0.322922
0.620387
0.875083
1.246848
1.369658
1.264913
0.985136
0.715676
0.407390
0.021124
-0.190070
-0.274842
-0.289274
-0.263298
-0.095687
-0.060985
-0.053648
-0.068345
-0.165143
-0.002901
0.003472
0.013294
-0.074307
-0.020569
-0.030198
0.017422
-0.026952
-0.012867
0.025048
0.076018
0.077221
0.060518
0.153969
0.109400
0.113538
0.205170
0.146115
0.216843
0.163578
0.228950
0.222918
0.218136
0.333203
0.329322
0.350905
0.396868
0.342812
0.383890
0.353348
0.389545
0.453361
0.412492
0.400110
0.486254
0.545393
0.452869
0.459314
0.436186
0.452961
0.385712
0.436763
0.379971
0.348154
0.331088
0.362448
0.411479
0.305957
0.293219
0.300539
0.228562
0.148978
0.190451
0.182184
0.181833
0.155899
0.131383
0.121717
0.094316
0.098034
0.031487
0.109666
-0.000286
-0.033959
-0.007202
0.029031
-0.003542
0.001029
-0.015078
-0.048637
-0.091823
-0.033807
-0.046734
-0.087734
0.017696
-0.100407
-0.064844
-0.075070
-0.070498
-0.096067
-0.135942
-0.106054
-0.009701
-0.163144
0.087451
-0.133884
-0.116110
-0.049388
-0.037131
0.013623
-0.043482
-0.052266
-0.128248
-0.115404
-0.037966
-0.122135
0.005503
-0.115558
-0.096556
-0.028416
-0.030253
-0.073294
-0.062840
-0.023240
-0.037767
-0.123658
-0.090704
-0.015450
0.003492
-0.062161
-0.056775
-0.125640
-0.056163
-0.043093
-0.124131
-0.103117
-0.085545
-0.000372
-0.034331
-0.073739
-0.078602
-0.000026
-0.071705
0.008113
-0.028330
0.021854
-0.031727
-0.071776
0.019554
-0.016204
-0.038380
0.003678
0.000239
0.084548
0.125562
0.031835
0.044809
0.070447
0.021617
0.150804
0.188716
0.157615
0.141557
0.119126
0.172234
0.145279
0.031694
0.129708
0.089735
0.102910
0.134906
-0.040220
0.037130
0.018343
0.044511
0.078624
0.058063
0.010257
-0.018079
-0.013148
-0.078276
0.057144
-0.023769
0.009679
0.024335
-0.038429
-0.039539
-0.025328
-0.099050
-0.043917
-0.017677
-0.061166
-0.057953
-0.056408
-0.018401
-0.095675
-0.079967
0.003317
0.182950
0.464285
0.771254
1.077403
1.343307
1.305622
1.127603
0.856743
0.506680
0.049961
-0.134926
-0.312555
-0.212320
-0.247666
-0.135898
-0.044823
0.017675
-0.082631
0.028802
-0.041970
0.024732
-0.017461
0.016435
0.025298
0.041105
-0.007667
0.030070
0.070293
0.111075
0.164756
0.109843
0.186496
0.195267
0.175435
0.158768
0.185402
0.224557
0.246133
0.195624
0.301344
0.304055
0.345640
0.320113
0.382824
0.402321
0.482076
0.456851
0.427538
0.469290
0.375017
0.407832
0.407749
0.514893
0.565093
0.435996
0.491204
0.480254
0.511613
0.458388
0.515279
0.417072
0.436536
0.385883
0.470993
0.339413
0.349820
0.310614
0.271866
0.344845
0.318688
0.279709
0.318552
0.233002
0.214430
0.282650
0.168766
0.223432
0.145862
0.147021
0.168983
0.046863
0.163346
0.124352
0.131367
0.043975
0.015698
0.122737
0.012888
-0.011914
0.025181
0.065277
0.067893
-0.020834
-0.022888
0.040983
-0.010316
0.021107
-0.030081
0.083499
-0.022459
-0.055790
-0.056448
0.051523
-0.032461
0.015801
-0.069009
-0.037810
0.078870
-0.043435
-0.057080
0.014072
0.056516
0.002724
0.008090
0.045801
-0.045448
-0.018206
-0.079741
0.085534
0.012135
-0.030389
-0.066559
0.016785
-0.040715
0.107516
0.040403
0.086634
0.054934
0.000649
0.048077
0.089160
0.006792
0.015103
0.026955
-0.024268
0.107204
0.007979
0.016477
-0.041821
0.019857
-0.016567
0.074569
-0.008052
0.117000
0.149030
-0.051595
0.110243
0.094409
0.071140
0.137739
0.097866
0.095068
0.165017
0.131786
0.217262
0.196992
0.210605
0.202224
0.201575
0.169645
0.185162
0.242058
0.234692
0.229228
0.266565
0.264615
0.201929
0.230011
0.208372
0.111180
0.155846
0.108693
0.173007
0.128685
0.170493
0.102251
0.115413
0.087690
0.143113
0.076793
0.018356
0.126108
0.046969
0.047460
0.081011
0.131366
0.060517
0.084403
0.017699
-0.031621
-0.040948
0.083233
0.086414
0.089579
0.024252
0.051601
0.054873
0.199289
0.423941
0.769261
1.093262
1.401868
1.474330
1.392525
1.126325
0.741310
0.381723
0.046557
-0.086432
-0.109802
-0.126746
-0.097670
0.051865
-0.028256
0.077717
0.025371
0.116695
0.103578
0.158371
0.146297
0.140191
0.092127
0.140473
0.108504
0.180258
0.054198
0.145271
0.187191
0.233748
0.298092
0.179867
0.260125
0.287595
0.282756
0.316005
0.296605
0.410061
0.356793
0.376373
0.395124
0.414020
0.459760
0.510957
0.487325
0.540741
0.552703
0.555466
0.511311
0.538382
0.519347
0.620876
0.570832
0.525241
0.551905
0.542240
0.571484
0.530651
0.481598
0.571231
0.509425
0.509449
0.497650
0.408539
0.492142
0.399618
0.443455
0.386328
0.279417
0.300507
0.376595
0.243636
0.311556
0.240045
0.181555
0.243616
0.206851
0.206903
0.245603
0.129573
0.140335
0.112866
0.150789
0.117335
0.075572
0.099084
0.004098
-0.025845
0.070005
0.055468
0.040093
0.094295
0.051138
-0.044764
0.058773
0.092189
0.007807
0.038684
0.071430
0.036420
0.057835
0.036532
0.020924
-0.004810
-0.052625
0.090100
0.001802
-0.020394
0.028936
0.095598
0.062242
0.089561
0.031366
0.094751
-0.017847
-0.021904
0.019559
0.018767
0.048352
0.047572
0.052566
-0.006421
0.029653
0.076790
0.032877
0.005078
-0.000884
0.057433
0.024323
0.059631
0.040019
0.002878
0.065986
0.016236
0.039274
0.029429
0.114691
0.028102
-0.010940
0.071367
-0.028855
0.137825
0.056929
0.009432
0.069457
0.073997
0.080429
0.065974
0.135149
0.101940
0.195176
0.080361
0.115939
0.118662
0.082692
0.107642
0.193060
0.094833
0.235703
0.158885
0.173251
0.210218
0.212629
0.191810
0.210030
0.161644
0.194396
0.218725
0.167852
0.202588
0.196140
0.107369
0.192014
0.097152
0.011198
0.066574
0.092020
0.041603
0.038250
-0.008488
0.094498
0.024913
0.069640
0.056048
0.072930
0.059279
-0.024114
-0.012526
-0.002968
0.061440
0.050489
0.004860
-0.020244
-0.057385
0.020079
0.156253
0.307458
0.557938
0.966400
1.131326
1.403908
1.411660
1.082550
0.800431
0.363505
0.048078
-0.154040
-0.182553
-0.195223
-0.140979
-0.099682
0.010936
-0.008356
0.031360
-0.000571
0.052036
-0.000374
0.035680
0.077441
0.026420
0.071601
0.034013
0.086577
0.024423
0.094058
0.070327
0.171635
0.147528
0.190841
0.148980
0.160669
0.278542
0.216935
0.276936
0.280526
0.286034
0.271490
0.410193
0.385907
0.395653
0.435431
0.391874
0.439259
0.368377
0.433305
0.415183
0.504704
0.537538
0.479532
0.466287
0.511836
0.447716
0.483690
0.428481
0.458614
0.347947
0.415188
0.353879
0.429383
0.338649
0.378323
0.454772
0.445876
0.290713
0.326262
0.285093
0.275993
0.199502
0.200600
0.076396
0.103036
0.095808
0.064986
0.131139
0.066049
0.131379
0.057789
0.069285
0.091325
0.037284
0.075584
-0.019592
-0.002020
0.093094
-0.071044
-0.018155
0.016157
0.002126
0.016622
-0.074893
-0.087815
-0.072239
-0.032589
-0.047448
-0.079403
-0.030202
0.048492
-0.068640
-0.037759
-0.008652
-0.057760
-0.113217
-0.050783
-0.075366
-0.068110
-0.086025
-0.107179
-0.041909
-0.049527
-0.089725
0.088163
-0.068872
-0.108049
-0.044611
-0.044911
-0.038087
0.006279
-0.074629
-0.041575
-0.070050
-0.043572
-0.073762
-0.102189
-0.095496
-0.044575
-0.068481
-0.077519
-0.084968
-0.018816
-0.078845
-0.071255
-0.050830
-0.166666
-0.073182
-0.080865
-0.085363
-0.117033
-0.115035
0.001431
-0.100605
-0.024001
-0.129077
-0.030838
-0.089530
0.035031
-0.075978
-0.027063
0.031986
-0.082470
-0.020328
0.093862
0.041549
0.001134
0.065329
0.051911
0.129001
0.060137
0.044945
-0.007618
0.059825
0.106972
0.088733
0.044385
0.034464
0.012994
0.047110
0.139060
0.047297
0.092965
0.013133
-0.060670
0.019478
-0.025019
-0.044578
-0.098447
-0.007520
-0.127863
-0.126599
-0.012555
0.011518
-0.093442
-0.014687
-0.152698
-0.106928
-0.144598
-0.146489
-0.155139
-0.136819
-0.039488
-0.135933
-0.064445
-0.115222
0.024783
0.070571
0.369823
0.649207
0.994885
1.231486
1.265525
1.188785
0.887488
0.444758
0.027020
-0.147875
-0.219102
-0.348750
-0.257271
-0.241713
-0.175233
-0.081817
-0.062750
-0.108156
-0.036789
-0.068566
0.009393
0.026612
0.016482
-0.032375
-0.008509
-0.018231
0.045949
-0.027763
-0.022283
0.026732
0.050180
0.085128
0.086330
0.123615
0.148343
0.155543
0.198804
0.182998
0.263437
0.331276
0.235534
0.326556
0.303375
0.349342
0.301810
0.450665
0.327005
0.404107
0.431284
0.382477
0.399684
0.426845
0.408714
0.453601
0.383633
0.488198
0.432643
0.406928
0.376095
0.447160
0.341997
0.428033
0.377168
0.292478
0.260056
0.338854
0.302225
0.280804
0.259689
0.263390
0.110267
0.140822
0.093322
0.068491
0.034600
0.076316
0.140461
0.081795
0.037149
0.078403
-0.003790
-0.020803
0.013174
-0.016317
0.022680
-0.089725
-0.025321
-0.003049
-0.094162
0.034367
-0.032270
-0.060183
-0.037835
0.006240
-0.070988
-0.087316
-0.097381
-0.071905
0.022801
-0.056694
-0.097597
-0.046145
-0.112914
-0.086703
-0.118269
-0.073871
-0.064100
-0.071774
-0.177242
-0.109656
-0.059759
-0.151514
-0.147189
-0.085228
-0.103189
-0.111463
-0.071089
-0.060140
-0.029856
-0.041890
-0.089645
-0.050987
-0.131959
-0.129525
-0.081788
-0.189380
-0.122790
-0.013026
-0.075154
-0.111138
-0.094302
-0.110428
-0.070676
-0.118713
-0.037195
-0.076538
-0.052328
-0.070265
-0.095046
-0.077005
-0.052035
-0.111996
0.043587
0.009720
-0.113658
-0.067212
-0.016256
0.020717
0.000494
0.019961
-0.008526
0.091122
-0.012232
0.096616
0.132451
0.114679
0.127346
0.121479
0.117635
0.095925
0.088908
0.088920
0.107838
0.088812
0.129141
0.159208
0.127015
0.004949
0.043180
-0.028054
0.060484
0.089901
0.092545
0.045987
-0.009761
0.044832
-0.057923
-0.003534
-0.021628
-0.029371
0.055682
-0.060519
-0.043560
0.051900
-0.013991
0.004723
-0.073358
-0.116589
-0.068363
-0.121504
-0.051495
-0.016311
-0.105692
-0.050241
0.001698
-0.010532
0.171541
0.329413
0.713933
0.976192
1.306206
1.403907
1.305264
1.101771
0.745630
0.372217
0.005072
-0.183219
-0.342332
-0.223170
-0.187455
-0.085976
-0.072585
-0.091365
0.028633
0.057439
0.054333
0.024022
-0.018918
0.037471
0.082938
-0.023461
0.125838
0.029773
0.050101
0.078976
0.106115
0.137688
0.201924
0.176834
0.209719
0.199248
0.189793
0.200281
0.219602
0.249057
0.312444
0.368375
0.437675
0.324120
0.390197
0.476559
0.446208
0.456281
0.443797
0.491312
0.536183
0.448201
0.507323
0.528017
0.509803
0.479880
0.494944
0.437438
0.469795
0.522167
0.514484
0.481627
0.431652
0.504468
0.442229
0.410811
0.393956
0.417577
0.365506
0.307183
0.322939
0.297465
0.289780
0.203406
0.284029
0.138465
0.149594
0.158969
0.194066
0.203141
0.185035
0.083922
0.219220
0.061132
0.014854
0.038535
0.145658
0.102669
0.125410
0.043507
-0.007362
0.083229
0.048575
0.071460
0.082379
0.044050
0.092013
0.077494
0.074159
0.075708
-0.004760
0.003102
-0.008349
-0.015187
0.066893
0.032744
0.060458
0.065564
0.028011
0.013277
0.002508
0.018873
0.084935
0.054244
0.000190
0.113342
0.035146
-0.027190
0.066490
0.019417
0.057175
0.035842
-0.029796
0.085021
0.004547
0.063630
0.085599
0.073844
0.047120
0.016291
0.097349
0.057127
-0.021234
0.069089
0.043449
0.044205
0.024358
0.068663
0.048887
0.080178
0.012888
0.104012
0.006916
0.045709
-0.014955
0.091816
0.067596
0.054553
0.184839
0.096531
0.135546
0.124042
0.158360
0.139362
0.131348
0.242726
0.159213
0.223430
0.279823
0.158899
0.230347
0.250994
0.255715
0.256324
0.267667
0.272725
0.180651
0.263544
0.193955
0.277365
0.215676
0.193737
0.178237
0.204772
0.180550
0.194769
0.184059
0.125030
0.112257
0.058205
0.118038
0.094322
0.073333
0.177901
0.081743
-0.009968
0.017199
0.082390
0.033489
0.104804
0.181637
0.092618
-0.013711
-0.019029
0.054096
-0.001496
0.071589
0.124226
0.371511
0.662519
1.050340
1.271182
1.474214
1.500000
1.223616
0.889077
0.514181
0.156746
-0.025914
-0.145400
-0.129316
-0.065982
-0.110092
0.025971
0.081101
0.150400
0.093899
0.112414
0.106029
0.049894
0.144803
0.175059
0.221292
0.155929
0.199937
0.196308
0.194016
0.213653
0.241530
0.161353
0.292836
0.307252
0.294155
0.314658
0.368414
0.368562
0.323031
0.415850
0.407034
0.368718
0.463868
0.483591
0.424349
0.524417
0.561932
0.511939
0.424334
0.532693
0.608666
0.583713
0.586626
0.583013
0.662565
0.547675
0.551020
