0.034397
-0.053893
-0.017051
0.050101
-0.045381
0.030940
0.011914
0.064786
-0.045018
-0.061946
0.029723
-0.036925
0.101629
-0.001886
-0.073710
-0.031681
0.042683
0.045538
0.052986
0.049823
0.013900
0.058326
0.111896
-0.017734
-0.021563
0.072323
0.029292
-0.008899
-0.011397
0.072960
0.035832
0.030990
0.020813
0.051899
0.080535
0.173347
0.153082
0.098383
0.170233
0.155866
0.122626
0.085045
0.159206
0.109079
0.153839
0.190122
0.156099
0.179865
0.208867
0.162043
0.163149
0.218177
0.251780
0.218761
0.241714
0.280847
0.160820
0.188320
0.211491
0.153178
0.185789
0.163122
0.159452
0.065624
0.034525
0.035271
0.091600
0.084718
0.121588
0.039375
0.101401
0.057370
0.087082
0.073631
0.083840
0.013906
0.017159
0.066140
0.001840
0.032801
0.022655
0.083585
0.082096
0.038710
0.056416
0.097614
0.061278
0.057379
0.085088
0.055765
-0.038687
0.017158
0.038762
0.022345
-0.012594
0.022758
0.127736
0.289486
0.542854
0.930878
1.133377
1.332368
1.461855
1.333304
1.121070
0.652069
0.404730
0.179680
-0.110110
-0.266509
-0.288773
-0.231422
-0.141054
-0.018539
0.045050
0.081931
0.077167
0.009054
0.064111
0.045911
0.067931
0.093507
0.036450
0.019692
0.072308
-0.001365
0.055297
0.096279
0.001295
0.091508
0.126612
0.107863
0.124386
0.139459
0.153862
0.146111
0.136462
0.188818
0.152055
0.203640
0.160663
0.220632
0.194913
0.264369
0.262783
0.281363
0.368291
0.280128
0.348164
0.334062
0.369351
0.412681
0.417691
0.392597
0.443043
0.456928
0.577301
0.432394
0.511052
0.539113
0.598667
0.521857
0.516792
0.554458
0.527426
0.574073
0.582885
0.597782
0.551659
0.480354
0.595978
0.613426
0.485658
0.569078
0.518450
0.531979
0.560215
0.405043
0.379929
0.442907
0.378933
0.392715
0.366157
0.366542
0.317858
0.308421
0.294862
0.233807
0.168005
0.225456
0.215501
0.196298
0.283863
0.184835
0.239169
0.151038
0.083157
0.092491
0.106285
0.070323
0.094169
0.106742
0.024059
0.160850
0.110954
0.067329
0.104170
0.136653
0.095601
0.072447
0.109081
0.141437
0.010754
-0.014478
0.086923
0.046394
0.038786
0.097325
0.135154
0.089884
0.131536
0.128721
0.086482
-0.037124
0.067708
0.060529
0.123056
0.002796
0.083282
0.084586
0.137538
0.126373
0.142513
0.037248
0.177531
0.070314
0.144231
0.177442
0.106480
0.038918
0.151204
0.067326
0.021201
0.048679
0.103054
0.027452
0.101970
0.031785
0.065366
0.035865
0.115924
0.158975
0.094783
0.036750
0.059968
0.029652
0.003065
0.073973
0.064966
0.091200
0.089353
0.059688
0.035256
0.131709
0.087448
0.081199
0.093968
0.040339
0.093952
0.046241
0.063709
0.014803
0.098146
0.057765
0.113727
-0.001176
0.131773
0.075926
0.121258
0.063057
0.061236
0.020056
0.112609
0.069072
0.101954
0.134311
0.044393
0.063443
0.112763
0.214110
0.108037
0.175624
0.101255
0.037358
0.188697
0.162206
0.143381
0.111268
0.215052
0.272728
0.229003
0.238791
0.222608
0.150897
0.229765
0.255791
0.191632
0.269793
0.225729
0.185162
0.217347
0.180049
0.168509
0.185808
0.192571
0.141792
0.129509
0.066279
0.111274
0.125648
0.084332
0.131133
0.074095
0.112125
0.043048
0.039888
0.057225
0.045940
0.084742
-0.013963
0.028589
0.053053
0.012645
0.027852
0.030349
0.036813
0.062120
0.033155
0.088760
0.150523
-0.012899
0.013076
0.066196
0.026566
0.059191
-0.026475
-0.007963
-0.072193
0.008803
0.007807
0.075058
0.123519
0.441399
0.766488
1.061013
1.319767
1.500000
1.306383
1.122197
0.746329
0.514718
0.120800
-0.094227
-0.218847
-0.238996
-0.228548
-0.158509
-0.080581
-0.045446
0.032879
0.043673
0.066400
0.018038
0.029254
0.035840
0.052186
0.043452
0.084576
0.034871
0.069550
0.044208
0.052440
0.051888
0.013804
0.079557
0.057667
-0.021291
0.132259
0.126384
0.007993
0.079065
0.082847
0.152577
0.203616
0.143505
0.138120
0.124531
0.174525
0.171152
0.197978
0.282254
0.206396
0.240044
0.256495
0.327902
0.338963
0.378317
0.368636
0.323492
0.409301
0.411800
0.497860
0.465049
0.513798
0.479548
0.389902
0.550000
0.458169
0.444670
0.501383
0.584176
0.502986
0.478549
0.440980
0.406784
0.491853
0.441603
0.413602
0.409713
0.313757
0.386017
0.431444
0.290296
0.349748
0.297383
0.286388
0.250450
0.287049
0.215822
0.127689
0.179587
0.182031
0.181473
0.028129
0.107825
0.120251
0.129051
0.122025
0.020315
0.011549
0.028066
0.059935
-0.015013
0.025059
0.040375
-0.028306
0.021424
0.000081
-0.010705
-0.038124
-0.007041
-0.027231
-0.067274
-0.031955
0.022570
0.030799
-0.018792
-0.016635
-0.031392
-0.006756
0.048348
0.054556
-0.006850
-0.013425
-0.000858
-0.024457
-0.035102
0.050265
-0.002619
0.037497
0.032346
-0.026525
-0.007996
-0.062898
-0.010470
-0.056901
0.001289
-0.073189
0.021425
-0.044939
0.010349
-0.003609
-0.087553
-0.084623
-0.020322
-0.065260
-0.091204
0.035648
-0.036093
-0.091174
-0.020417
-0.048601
-0.044775
0.026752
-0.007192
-0.047227
0.025236
-0.030689
-0.086026
-0.159700
-0.056007
0.017879
0.025011
-0.099408
-0.020741
-0.000867
-0.003335
-0.069496
0.015948
0.013803
-0.053628
-0.113362
-0.015916
-0.061204
0.096394
-0.011425
-0.041354
-0.046381
-0.077347
-0.109201
0.039845
-0.048957
-0.053505
0.013034
-0.043889
-0.043575
-0.108412
-0.051371
0.048202
-0.037237
-0.071710
0.031255
-0.024087
0.017944
-0.067906
0.070709
0.030382
-0.011221
0.060431
0.076453
0.077748
0.058422
0.092789
0.056978
0.054591
0.138464
0.043200
0.153331
0.206588
0.169395
0.154306
0.104741
0.129951
0.099674
0.046699
0.088075
0.142334
0.133891
0.104560
0.125503
-0.051781
0.036794
0.019357
-0.008580
-0.014434
-0.007291
-0.086533
0.029171
0.044889
-0.006276
0.021469
-0.062797
-0.011756
-0.097209
-0.097693
-0.012856
-0.077873
-0.072935
-0.045400
0.020277
0.024815
-0.057041
-0.076569
-0.045419
0.006732
-0.094054
-0.043973
-0.108957
-0.012125
-0.095878
-0.091021
-0.126771
-0.111468
-0.064053
-0.097999
0.084056
0.390025
0.615533
0.955766
1.154016
1.366561
1.307565
1.086005
0.897070
0.534105
0.121271
-0.143172
-0.286049
-0.337995
-0.274427
-0.270202
-0.188405
-0.122742
-0.080632
-0.051974
-0.068435
-0.009292
-0.080011
-0.025985
0.041014
0.056766
-0.057238
0.008534
0.014020
-0.065543
-0.004648
0.040802
0.060971
0.023845
0.013178
-0.096831
0.041015
-0.000264
0.023679
0.046555
0.020292
0.012989
0.085637
0.068272
0.069833
0.159894
0.087922
0.137557
0.110046
0.164882
0.262032
0.229468
0.290015
0.339526
0.269491
0.387152
0.219578
0.313648
0.379196
0.438804
0.376456
0.383710
0.473693
0.457661
0.431655
0.431188
0.348816
0.493801
0.460948
0.464551
0.535206
0.422558
0.489255
0.427941
0.442489
0.428706
0.457448
0.406921
0.338627
0.369497
0.397659
0.356125
0.431314
0.316798
0.248810
0.205674
0.212382
0.224938
0.151285
0.189137
0.149819
0.137357
0.198501
0.120901
0.208031
0.144600
0.104691
0.016796
0.154968
0.076810
0.033047
0.062398
-0.000292
0.060512
-0.005299
0.056472
0.000887
0.010912
0.063119
-0.011488
-0.076086
-0.021497
-0.034890
0.071757
0.014538
-0.034043
0.005832
-0.059044
0.028880
-0.024216
0.010803
-0.058761
-0.027600
0.002746
0.030410
-0.039848
0.010449
-0.002782
-0.002541
0.030540
-0.093345
0.067349
-0.006584
0.076838
0.042634
0.017408
-0.034473
0.064239
-0.003964
0.030280
0.065032
0.088843
0.007181
0.079206
-0.021894
-0.071889
0.078050
0.004540
-0.009063
0.058188
0.019245
-0.000170
0.019162
-0.019472
0.095052
-0.055356
-0.000062
-0.010190
-0.005985
0.012083
0.057247
-0.017624
0.134741
0.097339
-0.023135
0.035438
-0.024460
0.043208
0.046529
0.009471
0.032563
-0.043987
0.066041
-0.014266
0.063827
0.011474
0.045062
0.100450
0.064654
0.062277
0.057950
0.031788
0.060667
0.042677
0.105823
0.144552
0.078747
0.069427
-0.001006
0.012523
0.078176
0.084939
0.109357
0.121353
0.103332
0.125061
0.123897
0.089120
0.155890
0.117725
0.161678
0.230162
0.165722
0.217757
0.185210
0.143681
0.269165
0.263060
0.200692
0.188174
0.261623
0.239333
0.248408
0.198310
0.215567
0.112564
0.190715
0.234779
0.084967
0.185941
0.101413
0.213958
0.066349
0.203254
0.069087
0.079855
0.153130
0.117204
0.081589
0.033696
0.062521
0.073026
0.103189
0.087344
0.009342
0.160667
0.093895
0.103187
0.058489
0.031145
0.111887
0.050495
0.113967
0.027016
0.034321
0.051687
0.116981
0.051592
-0.029667
0.086611
0.065051
0.120084
-0.012795
0.043249
0.156547
0.351839
0.634198
1.033133
1.246035
1.399934
1.448389
1.285190
0.931141
0.691961
0.375252
0.003967
-0.052794
-0.124881
-0.226871
-0.139413
-0.087388
-0.009488
0.080645
-0.006453
0.036629
0.074985
0.132335
0.099299
0.116384
0.138197
0.052637
0.115071
0.083955
0.109324
0.145747
0.117735
0.056822
0.153272
0.126112
0.104856
0.126295
0.068237
0.087134
0.233354
0.153044
0.175953
0.212650
0.213149
0.243698
0.227823
0.237142
0.320229
0.293665
0.276922
0.280094
0.320226
0.456401
0.448347
0.400035
0.421136
0.424141
0.361441
0.435416
0.514194
0.478055
0.483138
0.531435
0.561135
0.571583
0.609144
0.526077
0.598485
0.599151
0.561975
0.572021
0.639190
0.563157
0.597382
0.553708
0.532311
0.519706
0.523631
0.461106
0.563798
0.411811
0.417234
0.496059
0.363552
0.361673
0.363609
0.423784
0.324947
0.345912
0.285551
0.311128
0.324523
0.217955
0.246353
0.205258
0.263730
0.210925
0.069366
0.242921
0.092224
0.184659
0.136305
0.134845
0.194456
0.081106
0.115759
0.172531
0.195929
0.106988
0.062162
0.080991
0.113715
0.170752
0.093232
0.062686
0.080070
0.006399
0.024510
0.142384
0.081061
0.113802
0.073229
0.101010
0.098773
0.096087
0.123673
0.095920
0.036714
0.068674
0.048370
0.052044
0.028293
0.082102
0.060872
0.106669
0.060134
0.136451
0.032651
0.077484
0.053174
0.094209
0.094653
0.092713
0.049508
0.073595
0.044185
0.081456
0.086881
0.070238
0.064384
0.029254
0.011775
0.098062
0.029845
0.099173
0.025851
0.024872
0.066466
0.072069
0.052075
0.162794
0.092686
0.025638
0.045966
0.132873
0.099573
0.017679
0.081402
0.052415
-0.008685
0.012762
0.056971
0.091841
0.108676
0.101001
0.058604
0.166890
0.099262
0.071450
0.078194
0.096848
-0.028073
0.049368
0.114086
0.061393
0.079492
0.045653
0.103412
0.061460
0.051824
0.104484
0.006430
0.108755
0.141424
0.192143
0.116859
0.157591
0.087791
0.116784
0.156484
0.201700
0.209644
0.236736
0.179247
0.217494
0.221988
0.184174
0.329170
0.172679
0.233370
0.195976
0.212300
0.175174
0.236977
0.220213
0.203176
0.124371
0.174596
0.174697
0.136010
0.177607
0.154905
0.096821
0.124646
0.096188
0.028585
0.046777
0.071683
0.058479
0.106187
0.089712
0.016287
0.039703
0.122945
0.070954
0.040371
0.026763
0.015154
0.025836
-0.014225
0.094205
0.072953
0.095669
0.059713
0.054614
0.034593
0.051688
0.061021
0.029831
-0.017764
0.008843
-0.049818
-0.063234
-0.032954
0.006932
0.232498
0.530685
0.816411
1.186358
1.357432
1.404697
1.366695
0.962000
0.761969
0.373924
0.156026
-0.065333
-0.262327
-0.333816
-0.214573
-0.181761
-0.160775
-0.063540
-0.039588
0.056653
-0.018577
0.034258
-0.001625
0.019653
0.006910
-0.002023
-0.031506
0.024301
0.086516
0.100049
0.054672
-0.016065
-0.008836
-0.014922
0.054681
0.033731
-0.013346
0.037474
0.100762
0.169826
0.095790
0.099018
0.069466
0.101256
0.137424
0.120052
0.104327
0.204862
0.165899
0.256411
0.199216
0.291598
0.220172
0.320318
0.264343
0.433256
0.326005
0.334448
0.397716
0.426265
0.400243
0.349829
0.391779
0.415052
0.536630
0.471671
0.418165
0.501316
0.460093
0.522862
0.488526
0.464377
0.474767
0.387098
0.399652
0.419321
0.365344
0.368314
0.363365
0.443492
0.317883
0.288657
0.255380
0.257858
0.257345
0.255198
0.191591
0.241085
0.167683
0.205686
0.119539
0.105023
0.126911
0.113492
0.066108
0.053086
0.075425
0.000652
0.060409
0.005514
0.029721
0.027942
-0.016887
0.000936
0.042033
-0.011986
0.040922
-0.024266
-0.052990
0.029360
-0.045973
-0.065311
-0.052739
-0.012982
-0.065350
-0.081213
0.055660
-0.030397
-0.019655
-0.050372
-0.110037
-0.073281
-0.043337
-0.140359
-0.088880
-0.046854
0.014675
-0.031877
-0.031125
0.002850
-0.059180
-0.029140
-0.039399
-0.093446
-0.096271
-0.103272
-0.022455
-0.044305
-0.049188
-0.039998
-0.064712
-0.061645
-0.035255
-0.065533
-0.078608
-0.025986
-0.056741
-0.087682
-0.093099
-0.036931
-0.015055
-0.019322
-0.034607
0.002510
-0.113425
-0.084229
-0.111312
-0.034489
-0.025676
-0.079749
-0.084054
-0.135040
-0.025586
-0.049792
-0.016220
0.040891
-0.047634
0.029107
-0.072739
-0.041977
-0.064521
-0.119133
-0.085901
-0.064698
-0.084379
-0.054404
0.004803
0.059039
-0.081593
-0.046845
-0.098360
-0.089910
-0.129272
0.035176
-0.038737
-0.013799
0.044984
-0.028392
-0.152434
-0.042822
-0.080377
-0.003014
-0.131288
0.061228
0.011200
-0.026079
0.045589
-0.009069
0.087095
-0.039524
-0.000898
0.054302
0.080320
0.077149
0.129114
0.171013
0.131525
0.059095
0.092126
0.112446
0.086253
0.122478
0.114067
0.049565
0.014090
-0.062426
0.113881
0.064985
0.096022
-0.052035
-0.030029
0.064255
-0.068891
0.020537
-0.038095
-0.027737
0.002129
-0.045774
-0.053454
-0.044951
-0.048043
-0.037268
-0.055378
-0.065162
-0.110481
-0.004959
-0.105080
-0.066734
-0.058253
0.020942
-0.116462
-0.136043
-0.095185
-0.107333
-0.073842
-0.073307
-0.072605
-0.094711
-0.066633
-0.065063
-0.124120
-0.052029
-0.144868
-0.075395
0.041127
0.402211
0.727500
1.016429
1.235847
1.289216
1.224057
1.050542
0.698698
0.286931
0.120930
-0.208392
-0.341220
-0.356838
-0.392469
-0.320223
-0.264289
-0.085706
-0.106987
-0.102177
-0.129957
-0.007887
-0.019632
-0.073318
-0.115207
-0.104161
-0.108533
-0.099162
-0.029010
-0.088331
-0.073878
-0.006686
-0.032989
0.007325
-0.058514
-0.037169
-0.052797
-0.002221
0.040916
0.006862
-0.028791
0.037782
0.070028
-0.034745
-0.044501
0.087520
0.104525
0.057119
0.101365
0.165584
0.166783
0.164968
0.217307
0.205352
0.319669
0.261974
0.297431
0.323685
0.326834
0.352580
0.372129
0.340752
0.405706
0.373258
0.368495
0.424457
0.478353
0.519642
0.535405
0.465831
0.492942
0.427828
0.343871
0.454873
0.460793
0.352782
0.341987
0.351182
0.412305
0.339105
0.289277
0.361981
0.295634
0.218490
0.279091
0.207814
0.254025
0.149566
0.137718
0.229748
0.106682
0.170701
0.114620
0.051086
0.057908
0.102305
0.058391
0.001463
0.046619
0.098383
0.004974
0.013009
-0.062549
0.046492
0.022899
-0.018855
0.083814
0.013553
-0.046746
0.010379
-0.083113
-0.057731
-0.013226
-0.013210
0.005541
0.068141
-0.073660
0.009767
-0.029925
-0.031217
0.006197
-0.010178
-0.055392
-0.003056
-0.011309
-0.077781
-0.028464
-0.108022
-0.056368
-0.076351
-0.115868
-0.022564
-0.062376
-0.055568
-0.006257
0.047249
-0.033742
-0.032457
0.026630
0.036140
-0.132064
-0.068257
-0.119003
-0.084112
0.027477
-0.099325
-0.071774
-0.044076
-0.028127
0.013987
-0.039651
-0.059675
-0.001588
-0.024849
-0.018376
-0.001322
0.068741
-0.049635
0.061629
-0.003351
-0.034946
-0.001611
0.042291
0.024825
0.005564
-0.036544
0.013810
-0.000829
-0.089944
-0.002769
0.020230
-0.037086
0.008819
0.056944
0.096987
0.021257
0.016908
-0.080936
-0.003030
0.037687
-0.033810
0.021391
-0.044691
-0.040182
0.082215
0.047485
0.039754
0.044392
0.087885
-0.024720
-0.008483
0.031438
0.129578
0.100159
0.032463
0.054403
0.041709
0.152408
0.112085
0.192042
0.095470
0.223461
0.123972
0.141142
0.169835
0.121255
0.110918
0.261062
0.133657
0.167831
0.254601
0.196519
0.152659
0.169811
0.155544
0.076340
0.066951
0.132159
0.114958
0.113014
0.136169
0.110399
0.086450
0.101280
0.093658
0.028305
-0.062077
-0.017523
0.075634
0.099361
-0.046762
0.102348
0.065119
0.006955
0.119883
0.089421
0.066534
0.100930
-0.053616
-0.032006
-0.044501
-0.009509
0.015343
0.031135
0.121046
-0.031606
0.007255
0.024833
-0.004876
0.004523
0.016948
-0.047023
-0.056061
0.011908
0.053298
0.339363
0.729745
0.981686
1.336779
1.406808
1.306538
1.179538
0.807843
0.601574
0.149115
-0.043558
-0.228661
-0.252360
-0.259678
-0.160552
-0.060315
-0.134269
-0.052627
0.053564
0.076351
0.014057
0.058097
0.027617
0.013821
0.071708
0.060894
0.032423
0.096886
0.038512
0.096911
0.024526
0.012211
0.091183
0.137374
0.078044
0.035183
0.104117
0.115639
0.134008
0.042856
0.111463
0.113171
0.106390
0.146701
0.221082
0.183137
0.176138
0.138091
0.257162
0.247227
0.248428
0.327517
0.324633
0.438048
0.369075
0.437692
0.373352
0.428256
0.360014
0.488727
0.525111
0.555487
0.451972
0.562372
0.512654
0.523915
0.573495
0.534545
0.507451
0.607552
0.520763
0.524052
0.467071
0.489247
0.460167
0.516286
0.461966
0.406964
0.501441
0.378660
0.425012
0.372436
0.363029
0.302231
0.300496
0.331887
0.269013
0.322556
0.200614
0.160219
0.212248
0.127578
0.220816
0.179419
0.193529
0.100992
0.079553
0.090915
0.026031
0.090298
0.123629
0.130033
0.158372
0.081789
0.142689
0.103825
0.033734
0.060911
0.072282
0.011935
0.051536
0.045787
0.049047
0.028162
0.069287
0.067507
0.071677
0.056457
0.015476
0.036396
-0.030703
0.027705
0.070735
0.076469
0.010532
0.042222
0.017335
-0.051636
0.101179
-0.033055
-0.015755
0.017448
0.027714
0.093989
0.004357
0.065015
0.089163
-0.007615
0.041124
0.057883
-0.024071
-0.009278
0.102557
0.025113
0.105332
0.048076
0.049605
0.057773
0.035162
0.099403
0.025501
0.075515
0.076863
-0.001088
0.047410
0.035885
0.039355
0.047297
0.010916
0.048360
-0.043065
-0.013683
0.077135
0.030373
0.019656
0.010041
0.045312
0.014170
0.019173
0.000363
0.001879
-0.033282
0.053191
-0.013028
0.011309
-0.009888
0.029735
0.041994
-0.006609
0.032205
0.012249
-0.036966
-0.042043
0.007616
-0.016631
0.050591
-0.012445
0.076759
0.005927
0.057887
0.070105
0.136408
0.094444
0.059314
0.125263
0.093982
0.072168
0.124286
0.139091
0.160739
0.139508
0.123058
0.107555
0.157666
0.142694
0.189551
0.167436
0.187934
0.235429
0.130481
0.162344
0.218091
0.130396
0.112836
0.085952
0.151912
0.111980
0.147743
0.136323
0.026410
0.053375
0.116760
0.013187
0.032641
-0.007398
-0.010741
0.011961
-0.001135
0.007386
-0.001824
-0.091166
0.020920
0.033412
0.028438
0.062438
0.005743
-0.033437
-0.011643
-0.092555
0.017733
0.013855
-0.060513
0.065245
0.022052
-0.146553
0.049630
0.002546
-0.056167
-0.029217
-0.029859
-0.009610
-0.046085
-0.036197
0.063381
0.317189
0.517002
0.848737
1.227933
1.334288
1.334463
1.237597
0.954603
0.596237
0.144039
-0.019586
-0.327104
-0.291853
-0.375960
-0.262592
-0.192092
-0.178377
-0.094671
-0.024409
-0.013344
-0.007166
-0.047724
-0.036644
0.000852
-0.059353
0.009362
0.057355
0.004076
0.001781
-0.088976
-0.043639
0.040805
-0.012644
-0.062987
-0.054657
-0.012044
0.007607
0.022795
0.037433
0.085706
0.002760
0.137648
0.087153
0.120988
0.067157
0.077736
0.206327
0.165350
0.170977
0.122602
0.190821
0.177648
0.249611
0.298834
0.291397
0.314043
0.315009
0.391255
0.355737
0.395345
0.370277
0.411673
0.393859
0.357648
0.423181
0.443516
0.374811
0.458775
0.397254
0.422739
0.421434
0.391322
0.466815
0.357074
0.371692
0.400026
0.419897
0.346369
0.388622
0.257836
0.229507
0.271694
0.259122
0.194913
0.289803
0.192264
0.231915
0.219415
0.179890
0.243241
0.101721
0.024719
0.048629
0.041799
0.010107
0.011027
0.031689
-0.006880
0.042289
-0.026750
-0.071607
-0.046000
-0.089919
-0.048908
-0.009372
-0.031449
-0.042751
-0.048511
-0.129430
-0.103157
-0.043535
-0.078476
-0.073717
-0.094526
-0.097305
-0.156975
-0.062281
-0.111853
-0.099943
-0.104353
-0.053972
-0.043924
-0.110106
-0.081472
-0.082932
-0.082084
-0.048057
-0.079275
-0.093090
-0.111007
-0.094777
-0.095925
-0.092230
-0.093881
-0.109495
-0.087678
-0.027766
-0.114930
-0.089816
-0.061697
-0.120406
-0.115288
-0.139295
-0.064086
-0.041604
-0.039912
-0.121312
-0.087928
-0.142559
-0.110927
-0.181107
-0.095244
-0.096754
-0.090797
-0.153166
-0.114325
-0.059752
-0.038028
-0.152268
-0.098758
-0.125925
-0.055305
-0.130187
-0.147058
-0.028071
-0.072915
-0.170880
-0.087347
-0.022508
-0.119776
-0.128279
-0.101946
-0.042750
-0.089806
-0.112587
-0.124448
-0.044232
-0.048009
0.016899
-0.059086
-0.055182
-0.115910
-0.098420
-0.041566
-0.029057
-0.072921
-0.004244
-0.049348
-0.124332
-0.068190
-0.081608
-0.131031
-0.018896
0.027469
-0.036907
-0.064538
-0.109016
0.014777
-0.013529
0.023262
0.076399
0.113109
0.072241
0.120032
0.108953
0.126442
0.113472
0.055436
0.091606
-0.061784
0.149440
0.017029
0.039990
0.081754
0.056056
0.073596
0.017879
0.065804
0.031368
-0.018891
-0.045497
-0.043450
-0.025383
-0.059363
-0.037404
-0.107861
-0.135896
0.044235
-0.081877
-0.113817
-0.099331
-0.064458
-0.084605
-0.058540
-0.005050
-0.109993
-0.165077
-0.148824
-0.088342
-0.101003
-0.131809
-0.170869
-0.021113
-0.089146
-0.099334
-0.103659
-0.109640
-0.113587
-0.150741
-0.144130
-0.176055
-0.272575
-0.108046
-0.080283
0.194459
0.414338
0.802705
1.055195
1.262046
1.329108
1.195010
0.911951
0.524916
0.263719
0.045940
-0.183977
-0.370754
-0.413070
-0.290610
-0.257228
-0.162598
-0.191591
-0.084279
-0.061878
-0.052054
-0.133428
-0.133466
-0.158690
-0.048356
-0.081050
-0.057985
-0.068752
-0.002044
-0.079672
-0.009942
-0.013237
-0.078621
-0.050549
0.036881
0.022400
0.001513
0.026057
0.054436
-0.024748
0.119821
0.072633
0.005654
0.021973
0.055024
0.044947
0.089486
0.133669
0.211080
0.083049
0.232142
0.200106
0.146063
0.171749
0.250893
0.211166
0.427417
0.280070
0.339432
0.328950
0.353956
0.362162
0.407519
0.441995
0.474045
0.380944
0.360300
0.453492
0.434771
0.441529
0.436976
0.418387
0.450165
0.443317
0.407818
0.411643
0.341387
0.388010
0.284837
0.281063
0.336387
0.198094
0.277704
0.239642
0.188618
0.228388
0.190631
0.200326
0.175714
0.156886
0.053967
0.108062
0.098371
0.058608
0.074670
-0.001463
0.021971
0.044130
0.064585
-0.037202
0.051112
0.027759
0.001748
-0.050593
0.013739
0.009725
0.012581
-0.044548
-0.048330
-0.026437
-0.018933
0.005908
-0.038327
-0.052234
-0.035199
-0.073542
0.051338
-0.013355
-0.056713
0.071108
0.029330
0.012969
-0.001863
0.018671
-0.019343
0.019964
-0.031499
-0.064819
0.065995
-0.053338
-0.048440
-0.042500
0.054705
-0.042008
-0.013006
-0.036860
-0.020921
-0.024512
0.032723
-0.030014
-0.076122
-0.006793
-0.029258
0.010091
-0.012311
0.013349
0.005359
-0.032935
-0.017888
0.002565
0.038133
-0.020382
-0.025494
0.037101
-0.058266
0.047728
0.087829
0.000322
-0.050857
-0.008716
0.000512
-0.043640
0.001363
0.007273
-0.019898
0.037246
0.009585
0.029423
-0.034421
0.012584
-0.003801
0.005272
-0.059763
0.021822
-0.036964
0.050582
0.031404
0.028411
-0.003473
0.010152
-0.002469
0.037951
0.047238
0.050880
0.031614
-0.012630
-0.021490
0.072923
-0.000382
0.062685
0.114393
0.033817
0.033706
0.045332
0.123048
0.091963
0.122037
0.120020
0.199263
0.156738
0.193440
0.173012
0.155627
0.177826
0.092209
0.150043
0.160725
0.183830
0.236133
0.127854
0.208254
0.220983
0.140873
0.224478
0.198665
0.164293
0.162596
0.216678
0.188014
0.171904
0.124407
0.064031
0.141300
0.074097
0.143898
-0.017319
0.066751
0.077566
0.039102
0.019158
0.105415
0.034788
-0.064226
0.025304
0.073427
0.001728
0.084907
0.115692
0.062721
0.033202
0.024986
0.040891
0.040327
0.079480
0.036049
0.061253
0.033900
0.043341
0.046544
0.004684
0.042853
0.029309
-0.019902
0.052474
0.292381
0.518672
0.815287
1.193831
1.459032
1.460937
1.297986
1.122547
0.756883
0.437486
0.182601
-0.072053
-0.231238
-0.228135
-0.131984
-0.148352
-0.102279
-0.000731
0.030618
0.000589
0.139315
0.083160
0.000750
0.084276
0.061877
0.130704
0.042595
0.016797
0.058088
0.136104
0.098659
0.147782
0.048353
0.065259
0.113870
0.190422
0.119651
0.118645
0.119336
0.161203
0.148635
0.188060
0.184920
0.198294
0.101844
0.190584
0.220638
0.248574
0.320410
0.278206
0.307937
0.307676
0.325017
0.345076
0.463954
0.366577
0.426302
0.429147
0.378774
0.470952
0.495267
0.496464
0.480234
0.542510
0.566431
0.528089
0.657651
0.594248
0.622854
0.536127
0.605012
0.582694
0.551152
0.573357
0.527289
0.480130
0.432788
0.483247
0.452535
0.452903
0.454192
0.468706
0.387543
0.390944
0.348230
0.313282
0.372770
0.284089
0.233296
0.297202
0.220978
0.242221
0.260111
0.278826
0.192332
0.169148
0.145998
0.160559
0.101935
0.094282
0.126416
0.089169
0.112953
0.068170
0.151293
0.118544
0.128244
0.172035
0.082425
0.069330
0.034280
0.099784
0.121427
0.163031
0.076397
