-0.064877
-0.045775
0.062007
0.049455
0.005113
-0.017279
-0.006517
-0.011828
0.051402
0.049962
-0.030372
-0.019503
-0.016756
-0.021888
0.038901
0.018269
0.050754
-0.050683
0.027078
0.035020
0.048253
0.011061
0.114845
-0.009590
0.037937
0.068185
0.114584
0.148516
0.090088
0.067664
0.132919
0.170392
0.108283
0.164684
0.222779
0.207543
0.179993
0.122420
0.232562
0.108530
0.171599
0.136978
0.188132
0.239568
0.273933
0.246866
0.111539
0.201377
0.210813
0.215070
0.158855
0.184506
0.143477
0.081193
0.117166
0.169590
0.111553
0.092197
-0.006621
0.018847
0.058058
0.115363
0.069629
0.053150
0.043232
0.017706
0.053747
0.099046
0.061385
0.050895
0.114282
0.016490
0.009301
0.020363
0.044886
0.090581
0.248024
0.402430
0.761096
1.048910
1.342081
1.500000
1.357130
1.230077
0.846759
0.435215
0.067607
-0.053701
-0.151977
-0.196117
-0.128034
0.020023
0.055361
0.077273
0.075814
0.122820
0.070981
0.024193
0.163609
0.157850
0.187013
0.177915
0.119348
0.110793
0.142644
0.210617
0.220621
0.259379
0.199161
0.196664
0.262604
0.186037
0.220029
0.305804
0.404553
0.348637
0.386910
0.433864
0.402357
0.475706
0.428449
0.543614
0.502329
0.532106
0.541734
0.523892
0.524897
0.569392
0.634061
0.616513
0.655089
0.663955
0.531513
0.535068
0.625334
0.635288
0.624018
0.603740
0.536220
0.524422
0.541481
0.576108
0.511994
0.494584
0.497661
0.407507
0.320746
0.360803
0.386859
0.418739
0.400845
0.221631
0.201932
0.234741
0.246779
0.182617
0.196817
0.118164
0.155805
0.199316
0.176992
0.069905
0.194231
0.146807
0.084402
0.127181
0.166443
0.146425
0.048765
0.103654
0.133985
0.119528
0.139023
0.116179
0.051366
0.125414
-0.004154
0.127554
0.056723
0.075778
0.109359
-0.020577
0.095781
0.065879
0.101933
0.089717
0.089818
0.083296
-0.014896
0.061620
0.059456
0.111730
0.142911
0.052245
0.030286
0.124381
0.131185
0.062815
0.086120
0.157841
0.035544
0.011784
0.089735
0.103708
0.065203
0.079784
0.083905
0.056326
0.078664
0.063966
0.108561
0.156470
-0.000634
0.086069
0.125113
0.135048
0.139418
0.025304
0.150729
0.138047
0.077468
0.194892
0.107123
0.062309
0.310113
0.200655
0.197175
0.182906
0.059968
0.109198
0.116755
0.113871
0.202360
0.192679
0.211983
0.234481
0.217565
0.223579
0.224706
0.236987
0.239289
0.161619
0.296700
0.223413
0.259919
0.240503
0.238728
0.241716
0.299358
0.277987
0.222992
0.214655
0.213098
0.150777
0.203230
0.198588
0.182028
0.139615
0.174948
0.070782
0.164141
0.125980
0.035318
0.189499
0.113974
0.040198
0.067793
0.154536
0.117681
0.112406
0.051181
0.084647
-0.029367
0.156501
0.139378
0.054596
0.069736
0.104354
0.203963
0.262820
0.523504
0.852522
1.318196
1.447142
1.495797
1.403729
1.065765
0.714623
0.317771
0.029382
-0.196165
-0.160300
-0.081633
-0.060385
0.023661
0.037082
0.135619
-0.001532
0.160900
0.063143
0.123396
0.083232
0.128484
0.108541
0.111404
0.136788
0.141164
0.143939
0.190578
0.189058
0.146483
0.141512
0.203401
0.221253
0.234085
0.317791
0.352274
0.397601
0.394940
0.428693
0.329727
0.418358
0.402159
0.433064
0.462504
0.514214
0.501044
0.590959
0.566483
0.550859
0.571963
0.530399
0.617241
0.620299
0.583010
0.591435
0.589795
0.543728
0.490359
0.551399
0.552715
0.602949
0.422585
0.530802
0.455742
0.478635
0.448065
0.390853
0.410043
0.369508
0.329942
0.334555
0.272865
0.315707
0.222172
0.220955
0.207389
0.174849
0.235580
0.149138
0.146974
0.066387
0.130045
0.109906
0.207303
0.132967
0.047170
0.103772
0.117378
0.141676
0.076582
0.002314
0.117111
0.065596
0.126239
0.058745
0.088392
0.063001
0.072917
0.112168
0.021547
0.060940
0.071079
0.025572
0.056758
0.063369
0.059361
-0.078228
0.015125
-0.007567
0.158459
0.083019
0.059961
-0.043615
-0.037120
0.009602
0.035498
0.015723
0.085426
-0.067978
-0.012967
0.088445
0.049636
0.021219
0.060386
0.036493
0.040134
-0.016492
-0.016648
0.071920
0.065215
0.045157
0.041649
-0.018414
-0.040632
-0.071546
0.040638
-0.060219
0.004393
-0.045904
0.024461
0.001409
-0.018322
0.025546
0.057654
0.014460
-0.050131
0.086167
0.053523
0.056024
0.016404
0.016129
-0.044469
0.013504
0.057099
0.107730
0.037699
0.093105
0.110868
0.152686
0.223494
0.153315
0.252389
0.202807
0.169699
0.146271
0.203612
0.149289
0.184530
0.137568
0.074264
0.122893
0.170491
0.072871
0.189311
0.094192
0.023671
0.066084
0.006741
-0.039391
0.003647
-0.014207
0.052884
0.078070
0.010870
0.075550
-0.039543
-0.089533
0.009449
-0.032054
-0.085472
0.018444
-0.024505
-0.045671
0.011724
-0.062148
-0.061276
-0.096073
-0.069258
-0.025799
0.077538
0.096332
0.236253
0.582438
0.840512
1.148151
1.415165
1.383901
1.205244
0.899791
0.478726
0.097531
-0.120188
-0.314499
-0.348055
-0.244625
-0.199835
-0.027350
-0.030412
-0.039640
-0.048780
-0.053087
0.053288
0.033121
0.074899
-0.012832
0.137063
0.041016
0.092862
0.114599
0.087537
0.064012
0.061856
0.202371
0.174374
0.103731
0.177303
0.176659
0.108569
0.182611
0.162482
0.264791
0.248041
0.220941
0.303569
0.382222
0.351072
0.381121
0.373351
0.402618
0.515550
0.440628
0.491889
0.479204
0.509481
0.506307
0.397376
0.492991
0.441275
0.514609
0.431549
0.408090
0.371478
0.458792
0.399725
0.441123
0.353703
0.382099
0.432224
0.361426
0.363518
0.207382
0.234473
0.151346
0.271090
0.272529
0.227543
0.219345
0.190115
0.119997
0.109763
-0.041295
0.128368
0.056862
-0.010577
0.110975
0.036785
0.060919
-0.013406
0.079357
-0.037255
-0.088808
-0.065861
-0.033418
-0.013770
-0.008022
-0.022432
-0.117655
-0.034516
-0.027764
-0.076288
-0.004025
-0.020298
-0.057435
0.009182
-0.035750
0.023811
-0.036920
-0.039110
-0.050519
-0.073174
-0.081551
-0.014858
-0.069198
-0.023679
-0.131503
-0.116923
-0.040034
0.006804
-0.104927
-0.057363
0.011547
-0.072826
0.038399
-0.042455
-0.029650
0.064820
-0.013330
-0.039481
-0.125176
0.048929
-0.024368
-0.088981
-0.088479
-0.080612
-0.017450
-0.109483
0.002104
-0.075939
-0.019638
-0.033783
0.007846
-0.037306
-0.028720
-0.096981
-0.016156
-0.115313
0.022760
0.004250
-0.050472
0.076726
-0.004390
-0.127536
0.038415
-0.114508
0.038726
0.135579
0.014929
0.173866
0.057678
0.070255
0.119721
0.120495
0.111661
0.107124
0.109103
0.256348
0.091178
0.164968
0.160844
0.221449
0.173691
0.146390
0.152226
0.209543
0.182677
0.120272
0.142559
0.081904
0.051177
0.063789
0.049652
0.138792
0.108289
0.021699
0.057730
-0.008155
0.014182
0.082565
-0.029550
0.016465
0.017175
0.021670
0.028270
-0.004676
-0.065657
-0.026572
-0.124788
-0.006920
-0.079290
0.007607
-0.085951
-0.070262
-0.022818
0.102647
0.300567
0.670164
1.051107
1.231754
1.425919
1.330106
1.233207
0.866082
0.360276
0.130871
-0.076335
-0.243339
-0.238432
-0.167490
-0.099129
-0.075186
-0.049349
-0.004063
-0.000354
-0.018253
0.058489
0.067728
-0.016422
0.049950
0.089162
0.095288
0.160332
0.014210
0.196170
0.155488
0.137400
0.104062
0.148285
0.192298
0.207242
0.174487
0.297681
0.244101
0.348338
0.338294
0.338004
0.365082
0.364698
0.359959
0.392882
0.360373
0.481230
0.497825
0.541044
0.508487
0.491502
0.575695
0.600595
0.613028
0.464570
0.555073
0.541909
0.595416
0.572411
0.627116
0.563468
0.524415
0.429238
0.464617
0.479190
0.465097
0.388237
0.410141
0.386561
0.359560
0.340430
0.423118
0.281189
0.352507
0.273566
0.241216
0.243280
0.221425
0.109347
0.169016
0.145151
0.198966
0.124494
0.108455
0.084498
0.060017
0.072327
-0.020707
0.090830
0.090231
0.113761
0.084441
0.031630
0.134296
-0.004418
0.101850
0.130966
-0.001547
0.054819
0.045884
0.026249
0.033631
0.080953
0.039438
0.081325
0.041847
0.076652
0.014107
0.065420
0.007508
0.158368
0.067737
0.169881
-0.026854
0.068569
0.018175
0.015096
0.079613
0.007531
0.034165
0.032956
-0.022616
0.087076
0.068464
0.053578
0.075905
-0.009990
0.094783
0.040272
0.054408
0.068532
0.056353
-0.002798
0.024675
0.119373
0.078851
0.034956
0.091191
0.059885
-0.009434
0.125736
0.089209
0.102312
0.061146
0.069761
0.018717
0.055250
0.123774
0.005289
0.148984
0.064379
0.204266
0.156641
0.185808
0.220365
0.121859
0.159115
0.162551
0.176322
0.279620
0.307835
0.194096
0.254069
0.269717
0.274336
0.163242
0.225548
0.288047
0.231903
0.279265
0.270573
0.145001
0.217519
0.252640
0.206544
0.190498
0.158878
0.238610
0.162587
0.163046
0.158921
0.193209
0.243921
0.072750
0.100327
0.127085
0.089021
0.058238
0.079821
0.064496
0.088823
0.076552
0.064731
0.017960
0.112515
0.088874
0.101681
0.057673
0.108263
0.154913
0.147206
0.165327
0.331557
0.463392
0.777239
1.176638
1.427783
1.488287
1.462607
1.142404
0.835284
0.456922
0.081007
-0.083661
-0.156857
-0.161843
-0.069155
-0.021752
0.078517
0.062498
0.085514
0.197495
0.069292
0.139303
0.075371
0.092454
0.157231
0.175636
0.174743
0.239992
0.279414
0.200648
0.230300
0.179911
0.268393
0.252462
0.229241
0.303463
0.316545
0.314247
0.334679
0.412113
0.440619
0.440558
0.425266
0.457188
0.464156
0.502326
0.552408
0.570760
0.478859
0.542327
0.585771
0.570568
0.598759
0.551555
0.587185
0.613516
0.603541
0.619675
0.557956
0.555588
0.592554
0.588666
0.590358
0.573278
0.585145
0.501836
0.510063
0.451180
0.424180
0.383481
0.332022
0.390609
0.425104
0.387303
0.344649
0.301495
0.277992
0.190547
0.250547
0.204681
0.241867
0.281960
0.265915
0.223664
0.137092
0.115685
0.189041
0.090753
0.136402
0.089261
0.103508
0.134852
0.021145
0.082843
0.127411
0.063308
0.106192
0.064095
0.024849
0.122017
0.027859
0.056469
0.033551
0.062733
0.164806
0.142574
0.156618
-0.000963
0.033196
0.103993
0.124392
0.101710
0.125135
-0.021291
0.048559
0.059177
0.111878
0.042422
0.026938
0.035892
0.073847
0.121091
0.100447
0.076145
0.163247
0.054733
0.055092
0.071389
0.022805
0.081346
0.065904
0.095867
0.081381
0.046735
0.114460
0.017617
0.037961
0.035790
0.112762
0.038162
0.053819
0.062087
0.082987
0.134067
0.094624
0.023626
0.096798
0.080869
0.118355
0.039964
0.198401
0.203556
0.134165
0.107611
0.147578
0.183471
0.178364
0.184617
0.267797
0.180927
0.163999
0.214408
0.325213
0.308623
0.199829
0.261317
0.260976
0.304607
0.202041
0.275276
0.209557
0.247746
0.173143
0.165311
0.171121
0.256473
0.179416
0.217902
0.075730
0.185220
0.155454
0.086516
0.116174
0.091200
0.123948
0.153963
0.089483
0.103478
0.113077
0.011014
0.075132
0.068339
0.055259
0.003561
0.026884
0.053148
0.072310
0.094064
0.014974
0.031374
-0.044011
0.067126
0.145912
0.395710
0.588820
0.907025
1.233258
1.449220
1.444807
1.290046
0.945547
0.679903
0.237383
0.007603
-0.176623
-0.190693
-0.153950
0.005403
-0.121940
-0.003411
-0.011186
0.122130
-0.014260
-0.006064
0.060252
0.044631
0.056039
0.121059
0.125755
0.062630
0.023888
0.150294
0.206583
0.063692
0.126411
0.167809
0.204158
0.197648
0.295909
0.279041
0.248483
0.268991
0.362838
0.291482
0.293405
0.345170
0.297862
0.474656
0.482009
0.369164
0.514479
0.488044
0.402170
0.481840
0.529181
0.489704
0.505269
0.472559
0.540483
0.528040
0.479953
0.501605
0.519395
0.514893
0.460005
0.517422
0.405419
0.492747
0.367610
0.348106
0.358228
0.345811
0.309547
0.301589
0.318573
0.188891
0.251281
0.230713
0.336418
0.204629
0.113865
0.209005
0.131775
0.119041
0.010713
0.119326
0.168283
0.050873
0.025228
0.020995
0.066237
0.027891
-0.006184
-0.043884
0.003831
-0.049950
-0.040529
-0.062061
-0.047171
-0.033096
-0.088839
-0.079577
0.032607
0.015220
-0.034261
-0.037460
0.055883
-0.015057
-0.016236
-0.001100
-0.024756
0.013706
0.039610
0.020732
-0.048585
-0.103856
-0.046762
-0.080711
-0.039736
-0.046206
-0.093945
0.001996
-0.026751
-0.101963
-0.085623
-0.058200
-0.012648
-0.039518
-0.133370
-0.022084
-0.034774
-0.165951
-0.053818
-0.001254
-0.018272
-0.030892
-0.087380
0.009310
0.031648
-0.101078
-0.043649
-0.020460
-0.079728
-0.036362
-0.053103
-0.043078
-0.048932
0.026042
-0.089262
-0.058601
-0.074907
-0.028068
-0.057503
-0.005749
0.088214
-0.090839
-0.019400
-0.026498
0.019216
0.066352
0.060100
0.110887
0.085637
0.106716
0.040969
0.089116
0.090782
0.087913
0.079644
0.191498
0.093017
0.123056
0.228293
0.079538
0.103129
0.101448
0.068086
0.052959
0.037586
0.080176
-0.022130
0.018911
-0.000251
-0.044631
-0.052406
-0.016949
0.002694
-0.044359
-0.019738
-0.139271
-0.027861
-0.123740
-0.017963
0.012930
0.029709
-0.183476
0.069866
-0.042743
-0.026535
-0.111759
-0.093210
-0.046994
-0.104831
-0.067816
-0.065992
0.073397
0.194980
0.588009
0.909036
1.165133
1.385441
1.247538
1.140756
0.776885
0.325262
0.061218
-0.226732
-0.390289
-0.363090
-0.261004
-0.153341
-0.085966
-0.074559
-0.091920
-0.132644
-0.002687
-0.142553
0.030637
0.087409
0.001520
-0.083174
0.012749
0.067192
0.016359
0.055147
-0.001318
-0.017317
0.041935
0.149423
0.127190
0.191549
0.144268
0.208197
0.212725
0.284219
0.246303
0.234318
0.246002
0.241959
0.283003
0.286386
0.343131
0.458126
0.446437
0.438002
0.384168
0.438328
0.426571
0.407664
0.455371
0.469741
0.506566
0.359938
0.422674
0.386647
0.422769
0.430175
0.406404
0.407260
0.350981
0.368470
0.246451
0.320291
0.305991
0.228934
0.300581
0.265070
0.157353
0.146264
0.209012
0.179340
0.072191
0.125249
0.059756
0.064682
0.034050
0.085501
0.011162
0.049530
-0.021714
0.088576
-0.090248
0.048757
-0.020953
-0.045374
-0.056680
-0.115768
-0.011675
-0.040493
-0.041537
-0.078506
-0.079544
-0.071799
-0.047303
-0.143136
-0.030328
-0.091155
-0.069463
-0.017660
-0.038438
-0.036691
-0.133848
-0.133589
-0.083891
-0.072516
-0.067862
-0.083533
-0.074870
-0.059028
-0.122342
-0.180124
-0.062258
-0.120706
-0.041745
-0.021092
-0.115214
-0.093013
-0.083138
-0.104694
-0.127166
-0.070314
-0.029941
-0.075276
-0.094259
-0.078905
-0.108048
-0.071214
-0.061042
-0.045769
-0.126341
-0.090344
-0.024776
0.062323
-0.067832
-0.061783
-0.091245
-0.128029
-0.050394
-0.082809
-0.029239
-0.084970
0.036157
-0.028925
0.005147
-0.015362
0.002697
-0.031243
-0.047987
-0.064391
-0.000032
-0.049674
0.042251
0.015510
0.027840
0.068436
0.063564
0.108455
0.078374
0.107973
0.095287
0.108298
0.030345
0.135323
0.181250
0.067895
0.138938
0.151594
0.114910
0.149262
-0.014663
0.168326
0.062600
0.087267
0.056468
0.097487
-0.020356
-0.062041
0.041228
0.020590
-0.000103
0.070443
-0.041309
-0.034408
-0.000620
-0.021620
-0.061760
-0.036071
-0.002400
0.039600
-0.050193
-0.068366
-0.009798
0.020119
-0.035522
-0.042901
-0.115515
-0.019156
0.013355
0.128063
0.355501
0.725650
1.100031
1.234516
1.453586
1.344987
1.142023
0.647316
0.283368
0.084457
-0.141218
-0.315973
-0.249510
-0.211548
-0.133907
-0.091497
-0.067785
-0.032089
0.028850
0.073777
-0.046320
0.028427
0.025050
0.066585
-0.016464
0.047499
0.035497
0.087150
0.085320
0.025047
0.109737
0.120041
0.196645
0.179105
0.064334
0.195835
0.286543
0.246211
0.239328
0.273117
0.340154
0.300371
0.422021
0.412589
0.430399
0.437507
0.462824
0.451738
0.491420
0.416553
0.460238
0.536278
0.508350
0.495584
0.554065
0.557122
0.458599
0.615160
0.549253
0.489759
0.481109
0.428246
0.467453
0.418559
0.429095
0.387916
0.430829
0.296687
0.334490
0.370826
0.347207
0.257365
0.272506
0.276004
0.284202
0.258789
0.181900
0.189331
0.237438
0.115771
0.087774
0.139672
0.093534
0.143047
0.099521
0.088730
0.058681
0.100599
0.102254
0.020492
0.009430
-0.093153
0.043866
0.087512
0.035985
0.039726
0.004876
0.071470
-0.007666
-0.065407
0.074974
0.044731
-0.069796
0.036436
-0.033395
0.009556
0.011578
0.022540
-0.007598
0.026558
-0.036229
0.129731
-0.019495
0.014711
-0.008713
0.083368
0.007102
0.082104
0.095185
0.076946
0.067122
0.052591
0.007316
0.016482
0.109193
0.072152
0.075127
0.024101
0.039352
0.066274
-0.013330
0.051163
0.033641
-0.012612
0.055638
0.029266
0.071260
-0.032916
0.136202
0.022254
0.104172
0.110575
0.014381
0.140607
0.063862
0.031874
0.038631
0.009511
0.079481
0.118520
0.130793
0.069812
0.168637
0.114092
0.085379
0.146284
0.150493
0.223914
0.150775
0.156832
0.243370
0.192478
0.208355
0.233149
0.186117
0.301770
0.240370
0.211227
0.232177
0.200203
0.117855
0.267330
0.249623
0.291184
0.127130
0.223448
0.143133
0.099721
0.091707
0.193990
0.093737
0.022904
0.105164
0.162093
0.110093
0.080343
0.034008
0.053865
0.011306
0.105908
0.003789
0.060495
0.055626
0.090005
0.032376
0.020214
-0.005391
0.061784
0.148651
0.095428
0.067075
0.130042
0.361802
0.545780
0.921954
1.252531
1.402469
1.484783
1.320287
1.070052
0.732129
0.275735
-0.023068
-0.212228
-0.234291
-0.183814
-0.134824
-0.007559
-0.002817
0.033859
0.064719
0.012417
0.025582
0.156780
0.160219
0.099188
0.062153
0.077286
0.076009
0.082299
0.158473
0.161995
0.202571
0.200886
0.245968
0.187181
0.223131
0.179362
0.301077
0.260384
0.288175
0.377493
0.323722
0.409070
0.373929
0.456633
0.388583
0.427713
0.456681
0.398066
0.518496
0.544102
0.524249
0.424089
0.658790
0.602081
0.626215
0.539288
0.513959
0.583432
0.456104
0.555788
0.609504
0.639408
0.562421
0.414851
0.531779
0.514715
0.384256
0.390643
0.447416
0.330004
0.390706
0.355651
0.293990
0.243321
0.293202
0.231961
0.263576
0.242121
0.181913
0.263631
0.225909
0.133871
0.170473
0.119463
0.129794
0.128066
0.058954
0.040760
0.047917
0.043064
-0.000757
0.046265
0.038770
0.122434
0.074624
-0.009489
0.031377
-0.039013
0.080643
0.020086
0.007941
0.026795
0.062552
-0.035999
-0.017223
0.089122
0.015576
0.022434
0.012962
0.079509
0.047940
0.026848
-0.045067
-0.010218
0.005452
0.183565
0.007637
0.018858
0.103213
0.044325
0.008664
0.049947
0.064400
0.031372
0.074241
-0.060852
0.013315
-0.020598
-0.067771
0.035134
0.054528
0.018875
0.005210
-0.028462
0.060462
0.068512
0.026650
0.046434
-0.049918
-0.021104
-0.004889
0.051700
-0.112146
0.054653
0.015089
0.013707
0.044698
0.036310
-0.018918
0.100583
0.056907
-0.003681
0.002219
0.134352
0.182966
0.106222
0.067692
0.072318
0.157604
0.148487
0.119246
0.109051
0.131244
0.156962
0.106505
0.187628
0.191380
0.172052
0.150741
0.194883
0.114998
0.098235
0.073993
0.169493
0.107588
0.135048
0.102903
0.118652
0.050038
0.078188
0.049289
0.079206
0.028166
0.039791
0.066557
0.057178
-0.011377
-0.025536
-0.005291
0.036355
-0.125202
-0.030791
-0.094782
-0.023657
-0.020213
-0.043085
-0.029618
-0.056394
-0.014636
-0.030345
-0.052008
-0.042766
0.083594
0.252879
0.562180
0.902705
1.169509
1.350625
1.384078
1.196307
0.905208
0.460148
0.150154
-0.103150
-0.333889
-0.272613
-0.226192
-0.207171
-0.104265
-0.021800
-0.059233
-0.080125
-0.025637
-0.040781
0.081870
-0.060968
-0.001053
-0.036271
0.063556
0.019086
-0.032559
0.014243
0.068154
-0.020154
0.155470
0.193874
0.191395
0.116578
0.132870
0.099415
0.197906
0.144548
0.175666
0.232342
0.323610
0.359067
0.239966
0.333797
0.299672
0.385250
0.355917
0.449746
0.420835
0.453952
0.469620
0.427085
0.455268
0.428710
0.422304
0.457195
0.480935
0.513468
0.359836
0.433899
0.419992
0.460955
0.425450
0.353107
0.449562
0.266373
0.339110
0.202766
0.196054
0.232184
0.212043
0.235688
0.225155
0.128039
0.131319
0.073742
0.128515
0.103130
0.142716
-0.043599
0.017938
0.020076
-0.034640
0.011878
0.030300
0.004219
0.013365
-0.022528
-0.050197
0.019562
-0.083046
-0.023516
-0.090048
-0.040550
-0.041605
-0.020738
-0.181229
-0.075139
-0.110497
-0.160272
-0.121528
-0.108994
-0.095132
-0.035439
-0.087175
-0.100765
-0.111818
-0.081822
-0.067550
-0.140487
-0.044335
-0.107541
-0.079685
-0.047464
-0.115197
-0.143763
-0.082814
-0.099778
-0.153271
-0.116619
-0.072479
-0.069960
-0.131035
-0.101230
-0.057642
-0.110329
-0.095050
-0.166245
-0.098223
-0.141963
-0.155270
-0.157532
-0.077060
-0.097871
-0.112669
-0.078805
-0.108638
-0.142485
-0.136801
-0.129957
0.038335
-0.036083
-0.085221
-0.104709
-0.169614
-0.077129
-0.074590
-0.001759
-0.019506
-0.068210
-0.081681
-0.034345
0.021300
0.007396
0.062224
-0.040037
0.024873
0.001615
0.095913
0.033688
0.109458
0.101316
0.012177
0.095947
0.016345
-0.065857
0.046308
0.046450
0.068761
0.032085
0.048585
0.097178
0.044210
0.016503
0.053611
-0.065994
0.065140
0.024226
-0.052168
0.018269
-0.072890
-0.039663
0.025060
-0.085118
-0.026413
-0.048066
-0.104247
-0.116970
-0.100201
-0.097341
0.001514
-0.146547
-0.038806
-0.123497
-0.140078
-0.041722
-0.039826
-0.071957
-0.137203
-0.158674
-0.089578
-0.023147
0.301412
0.556600
0.934065
1.237180
1.316157
1.311770
1.047809
0.668790
0.302163
-0.077381
-0.257468
-0.273976
-0.303854
-0.218942
-0.170726
-0.143691
-0.131906
-0.039969
-0.113860
-0.006620
-0.039820
-0.012848
0.042663
-0.051089
0.016790
0.043588
-0.071263
0.042396
0.082606
0.065962
0.033946
0.052511
0.045299
0.039926
0.088339
0.083322
0.147988
0.095081
0.188587
0.211734
0.238177
0.217244
0.332254
0.213414
0.311526
0.343388
0.341749
0.370575
0.408980
0.429039
0.463269
0.468516
0.398537
0.445563
0.488928
0.515010
0.428380
0.503826
0.449719
0.460092
0.459297
0.400626
0.479927
0.450907
0.366020
0.323365
0.315997
0.331876
0.304323
0.243520
0.143275
0.258919
0.261784
0.142705
0.148954
0.195252
0.144559
0.052179
0.085809
0.012684
0.020230
0.048027
0.054842
-0.021713
-0.025809
0.034391
0.021230
-0.053442
0.048246
0.039043
-0.019672
-0.013023
-0.060290
-0.101957
-0.135703
-0.038543
-0.008570
-0.062750
-0.084106
-0.105700
-0.029175
0.009743
-0.058716
-0.073431
0.019151
-0.134134
-0.020027
0.016397
-0.027132
-0.097617
-0.123080
-0.061590
-0.050163
-0.049433
-0.105426
-0.069191
-0.011879
-0.105023
-0.098073
-0.058396
-0.114203
-0.010853
-0.074709
-0.090674
-0.067243
-0.062192
-0.125569
-0.044760
-0.046858
0.024143
-0.045627
-0.061371
-0.086627
-0.036306
-0.048528
0.017609
-0.023682
-0.027691
-0.062324
-0.001522
-0.023407
-0.080674
-0.026066
-0.055954
-0.077884
-0.065762
-0.015963
-0.039655
-0.033784
-0.068276
-0.042067
0.021989
0.081944
0.060397
0.024788
0.055580
0.045031
0.149431
0.117904
0.124964
0.161481
0.202233
0.210532
0.147692
0.225387
0.145288
0.164028
0.217313
0.102502
0.158457
0.178470
0.111859
0.123474
0.156251
0.050689
0.100586
0.127027
0.136130
0.100473
0.110503
0.067166
0.049785
0.020556
0.030960
0.051916
0.064824
-0.011369
0.046635
-0.022133
0.015464
-0.084326
0.037939
0.024361
-0.004439
0.017217
-0.028656
0.029818
-0.053895
-0.089416
0.005424
0.033933
0.064698
0.204169
0.424041
0.801463
1.161483
1.375684
1.475481
1.317406
1.072718
0.644489
0.358306
0.071490
-0.110854
-0.217751
-0.105106
-0.151014
-0.078753
-0.019314
0.084731
-0.018919
0.104113
0.046206
0.091310
0.056412
0.067666
0.073743
-0.001430
0.158598
0.118638
0.090111
0.127930
0.156047
0.165328
0.188947
0.277896
0.270163
0.274856
0.328641
0.290557
0.230528
0.261500
0.327844
0.374884
0.373607
0.329586
0.370559
0.443645
0.496727
0.432453
0.530901
0.527364
0.502121
0.559908
0.507425
0.566886
0.539830
0.551444
0.654241
0.568174
0.573023
0.569891
0.574681
0.511252
0.509255
0.584711
0.549472
0.479831
0.468729
0.427193
0.447569
0.406784
0.421474
0.418541
0.405199
0.301090
0.282475
0.332434
0.191943
0.244094
0.194815
0.200537
0.219381
0.188202
0.107388
0.117286
0.120962
0.150610
0.142858
0.141082
0.093769
0.101367
-0.001952
0.057602
0.101353
0.084388
0.081337
-0.001669
-0.001534
0.050756
0.085782
0.005299
0.059890
0.101458
0.013537
0.087345
0.038508
0.078102
0.039164
0.077782
0.075838
0.029790
0.029033
0.022611
0.004790
0.057545
0.067387
0.018804
0.072249
0.065205
0.075027
0.099395
0.149703
0.087021
0.128240
0.081241
-0.038138
0.074269
0.131117
0.067287
0.060389
0.053147
0.077193
0.093931
0.071523
0.107755
0.123177
0.054777
0.081651
0.073119
0.081618
-0.066440
0.080687
0.009779
0.097504
0.055720
0.092386
0.103445
0.016182
0.116699
0.149267
0.178553
0.138647
0.166482
0.105956
0.118609
0.131218
0.160358
0.194567
0.227793
0.196278
0.201744
0.238230
0.180541
0.248978
0.355774
0.194268
0.243166
0.224409
0.294654
0.209920
0.288656
0.290877
0.251975
0.271302
0.170667
0.261354
0.291974
0.169588
0.158934
0.175498
0.151435
0.109021
0.073304
0.085251
0.084860
0.093644
0.105920
0.089564
0.115222
0.155457
0.044197
0.087934
0.060101
0.070188
0.056408
