-0.118598
-0.080258
0.000403
0.037883
0.056658
-0.007129
0.029738
0.002290
0.012396
0.064543
0.041432
0.010299
0.029475
-0.027885
0.035800
-0.007024
0.063502
0.039347
0.035224
0.057223
0.082081
0.056056
-0.026339
0.065966
0.086335
0.041001
0.094769
0.092399
0.053768
0.115131
0.164444
0.106511
0.153916
0.103510
0.180388
0.168726
0.143890
0.118850
0.166064
0.168675
0.189008
0.170439
0.186766
0.203603
0.197341
0.208191
0.121665
0.171164
0.167537
0.179172
0.190219
0.059362
0.115469
0.133623
0.137111
0.099219
0.073639
0.133794
0.104739
0.074204
0.103749
0.048082
0.126392
0.036737
0.068200
0.057328
0.034794
-0.029236
0.061935
0.112284
0.063475
0.025545
-0.000011
0.087269
0.093068
0.060382
0.152337
0.369278
0.615183
0.878892
1.169763
1.267226
1.162183
1.064081
0.738093
0.349742
0.099692
-0.042230
-0.073410
-0.137611
-0.084399
0.042017
-0.007523
0.052873
0.111285
0.137763
0.106071
0.123135
0.105169
0.140432
0.099486
0.132725
0.145028
0.109636
0.166988
0.173769
0.195303
0.150571
0.193358
0.151021
0.221585
0.270851
0.303232
0.326481
0.306285
0.370079
0.350315
0.343182
0.362845
0.361035
0.470864
0.450317
0.415764
0.478808
0.456406
0.451380
0.532092
0.530616
0.516794
0.535275
0.549114
0.492325
0.488022
0.531914
0.562410
0.501507
0.464424
0.494463
0.500483
0.493649
0.499238
0.471705
0.473927
0.506479
0.416820
0.396707
0.364086
0.351010
0.336657
0.342204
0.305478
0.319280
0.236775
0.218818
0.233536
0.206798
0.144227
0.232168
0.109439
0.239154
0.179236
0.121678
0.146950
0.177668
0.172855
0.128153
0.131376
0.124904
0.102516
0.182316
0.045777
0.171876
0.108953
0.220749
0.198053
0.129415
0.110880
0.070471
0.111738
0.095472
0.143080
0.106890
0.044864
0.089687
0.084757
0.141047
0.106582
0.057173
0.064652
0.097237
0.048123
0.127711
0.113028
0.129779
0.092206
0.164923
0.116515
0.120551
0.165027
0.152428
0.112339
0.163865
0.129172
0.123041
0.116310
0.121943
0.171460
0.086122
0.096937
0.101008
0.137808
0.128252
0.168307
0.114765
0.085337
0.080195
0.080582
0.106301
0.034022
0.054148
0.174717
0.119445
0.159146
0.075488
0.089631
0.127782
0.102176
0.054745
0.114937
0.191159
0.095002
0.133853
0.247746
0.184533
0.249712
0.233267
0.201822
0.269454
0.211088
0.267264
0.241665
0.283085
0.243591
0.237949
0.177678
0.256041
0.243975
0.231405
0.200841
0.155186
0.243358
0.181834
0.257965
0.220767
0.237293
0.180064
0.136129
0.199300
0.161688
0.172700
0.165244
0.161581
0.188880
0.099298
0.118180
0.125702
0.211667
0.117695
0.137372
0.107431
0.164902
0.202087
0.146151
0.107624
0.176694
0.149415
0.067750
0.099398
0.227859
0.285089
0.533856
0.770887
1.095091
1.203299
1.306805
1.246540
1.015749
0.615215
0.347202
0.135391
-0.141733
-0.157074
-0.122475
-0.018650
0.035876
0.096650
0.139023
0.126476
0.140122
0.212366
0.184079
0.150772
0.103234
0.166277
0.237010
0.163642
0.211190
0.203700
0.314553
0.185494
0.246428
0.210178
0.248937
0.219223
0.264693
0.348771
0.280805
0.361597
0.368134
0.354205
0.378909
0.381053
0.484320
0.420112
0.534504
0.481553
0.475024
0.536807
0.541164
0.538967
0.595727
0.593490
0.504259
0.508527
0.557958
0.562754
0.542723
0.528864
0.556282
0.527135
0.483955
0.504581
0.520184
0.522739
0.527479
0.396452
0.427821
0.454433
0.463615
0.330030
0.316964
0.399621
0.293702
0.291030
0.319988
0.300478
0.264062
0.171873
0.203572
0.229414
0.203263
0.134869
0.246865
0.113065
0.173880
0.226246
0.139133
0.090918
0.107101
0.101338
0.157026
0.142748
0.128795
0.050213
0.072197
0.035137
0.131366
0.129157
0.100061
0.140166
0.119240
0.187733
0.104269
0.058980
0.060044
0.088577
0.074339
0.146282
0.126462
0.054042
0.116068
0.119825
0.071839
0.024214
0.122089
0.102435
0.172896
0.089151
0.154234
0.067691
0.115214
0.125450
0.089568
0.071105
0.165035
0.055216
0.088983
0.153978
0.141805
0.102178
0.070076
0.117718
-0.001478
0.113338
0.029576
0.119356
0.051643
0.079136
0.083450
0.022824
0.097989
0.055821
0.156727
0.109656
0.038509
0.076674
0.147866
0.149532
0.072913
0.048481
0.111118
0.194869
0.132286
0.115726
0.113489
0.161859
0.121681
0.151771
0.196348
0.108442
0.276181
0.246916
0.257327
0.219896
0.268690
0.226723
0.210689
0.241919
0.197617
0.275657
0.197412
0.139307
0.197698
0.181606
0.203990
0.188185
0.216865
0.171913
0.195818
0.097528
0.135315
0.124636
0.060591
0.110925
0.094448
0.031181
0.130894
0.133579
0.035022
0.147698
0.105825
0.022695
0.068095
0.079025
0.064151
0.111903
0.024696
0.032186
0.047094
0.127267
0.074172
0.131868
0.294926
0.518495
0.770443
1.069944
1.284503
1.241067
1.120274
0.855071
0.528782
0.121966
0.004679
-0.088688
-0.130169
-0.069561
-0.100688
-0.022398
0.071223
0.092714
0.088231
0.068935
0.081063
0.107917
0.117269
0.079448
0.067867
0.125985
0.128868
0.113860
0.114931
0.182570
0.134094
0.156729
0.253033
0.269248
0.265215
0.173803
0.304621
0.312553
0.274390
0.254688
0.307856
0.439606
0.373979
0.414031
0.407964
0.383024
0.459070
0.444378
0.449654
0.464138
0.460618
0.583399
0.503570
0.552072
0.486036
0.455435
0.517569
0.484633
0.548402
0.489364
0.498446
0.527427
0.475187
0.426268
0.382460
0.421712
0.457736
0.322993
0.323260
0.342837
0.386412
0.338173
0.373348
0.362008
0.289147
0.264195
0.155156
0.241120
0.212841
0.224476
0.194364
0.109551
0.207534
0.151694
0.099447
0.157004
0.121097
0.109965
0.151382
0.099358
0.094432
0.088551
0.105129
0.114558
0.083274
0.048468
0.086145
0.085517
0.066629
0.088643
0.041827
0.107579
0.034703
0.018947
0.065598
0.072039
0.070079
0.069229
0.103934
0.085565
0.075142
0.109274
0.066037
0.107842
0.120706
0.092088
0.077126
0.130474
0.106445
0.063049
0.150124
0.014408
0.009592
0.162048
0.040090
0.034261
0.045315
0.103008
0.095143
0.113358
0.108341
0.024266
0.037015
0.128828
0.102996
0.078319
0.096189
0.078962
0.084786
0.093386
0.085322
0.152656
0.140144
0.082743
0.040292
0.133133
0.182572
0.115441
0.098480
0.133532
0.114339
0.075102
0.159758
0.139143
0.164487
0.190183
0.149161
0.189457
0.211340
0.159364
0.159499
0.229469
0.267281
0.272730
0.290206
0.263004
0.265679
0.224068
0.240351
0.260031
0.319428
0.238702
0.218229
0.167129
0.160101
0.224495
0.161051
0.204244
0.155976
0.230032
0.138107
0.118660
0.131060
0.144959
0.179440
0.148902
0.145458
0.018915
0.128492
0.151588
0.144241
0.085212
0.161479
0.192083
0.111552
0.104014
0.174148
0.133309
0.105865
0.096604
0.079923
0.127911
0.228047
0.405140
0.630617
0.912043
1.183972
1.258249
1.336572
1.095649
0.812373
0.554444
0.202558
0.046753
-0.051616
-0.190680
-0.010254
-0.021749
0.059572
0.129403
0.136458
0.139822
0.212103
0.173042
0.177011
0.177626
0.177716
0.234666
0.162901
0.192796
0.280126
0.282237
0.234843
0.284783
0.289671
0.222510
0.270873
0.320462
0.308561
0.344268
0.457962
0.357703
0.409013
0.439711
0.443536
0.424712
0.491093
0.481476
0.510968
0.483211
0.485800
0.584717
0.556166
0.523907
0.601649
0.565092
0.646526
0.651327
0.694295
0.552215
0.677005
0.479259
0.574318
0.584540
0.588119
0.563080
0.527870
0.567657
0.501027
0.479822
0.509387
0.458890
0.443683
0.436605
0.406884
0.347639
0.382454
0.367096
0.419580
0.387322
0.266971
0.345864
0.317602
0.245173
0.284027
0.324623
0.257068
0.214155
0.242259
0.256738
0.225533
0.194834
0.202725
0.220834
0.204062
0.202290
0.243616
0.223356
0.217811
0.192146
0.180881
0.215308
0.159243
0.114326
0.178748
0.171910
0.173311
0.168286
0.250676
0.130736
0.192467
0.153919
0.159768
0.145633
0.202562
0.216570
0.221399
0.219607
0.149249
0.214705
0.171790
0.194069
0.184422
0.191148
0.222937
0.245470
0.178152
0.232995
0.178137
0.242335
0.134128
0.201695
0.267272
0.184786
0.243226
0.223442
0.203351
0.233016
0.190299
0.232658
0.205236
0.189464
0.204205
0.194450
0.290790
0.313333
0.272866
0.241836
0.217300
0.191310
0.275892
0.192389
0.255258
0.244589
0.267205
0.233471
0.252808
0.337514
0.325954
0.331138
0.326577
0.330910
0.339001
0.399395
0.341674
0.323530
0.349008
0.360583
0.383281
0.309293
0.435736
0.332173
0.361333
0.359179
0.413300
0.325739
0.322827
0.305965
0.316119
0.264752
0.326624
0.257380
0.283962
0.286931
0.290983
0.283819
0.272535
0.309059
0.276047
0.271669
0.285120
0.232107
0.249886
0.265246
0.223036
0.207496
0.253183
0.236013
0.240795
0.208808
0.203787
0.185425
0.265446
0.210709
0.251169
0.310340
0.603660
0.929957
1.139617
1.367748
1.426574
1.386151
1.164096
0.837606
0.549489
0.260380
0.097017
-0.002028
0.063266
0.125023
0.064491
0.235589
0.218272
0.252085
0.280696
0.225203
0.311723
0.286266
0.300890
0.279856
0.337019
0.336990
0.310136
0.420234
0.378243
0.320853
0.412582
0.354235
0.366203
0.406975
0.416654
0.424757
0.502274
0.472441
0.463258
0.538099
0.557878
0.625039
0.541359
0.567267
0.595957
0.591593
0.590455
0.679200
0.584705
0.665824
0.699419
0.695964
0.655418
0.699613
0.694066
0.742609
0.666573
0.732556
0.668802
0.663453
0.608405
0.707529
0.611108
0.646891
0.616454
0.579699
0.621227
0.570959
0.518776
0.540303
0.527237
0.499668
0.536599
0.446946
0.385870
0.443779
0.436461
0.367228
0.349105
0.399337
0.339286
0.391835
0.342030
0.324697
0.321548
0.303978
0.272611
0.305272
0.190569
0.332058
0.306576
0.252280
0.224062
0.311496
0.287149
0.296862
0.258932
0.313680
0.233201
0.208055
0.237595
0.252374
0.212802
0.244240
0.267339
0.239182
0.236719
0.190679
0.237079
0.265233
0.290990
0.279931
0.317185
0.321664
0.230039
0.261614
0.238493
0.242824
0.232038
0.244077
0.276527
0.271651
0.209502
0.261371
0.231960
0.172812
0.333412
0.235477
0.191008
0.233261
0.192000
0.216724
0.285175
0.256629
0.274913
0.277553
0.273560
0.279562
0.242986
0.185042
0.227563
0.257090
0.301354
0.233712
0.249690
0.229547
0.287576
0.318983
0.277740
0.337865
0.245934
0.291114
0.268928
0.293302
0.282736
0.294796
0.286034
0.372687
0.327714
0.315467
0.316695
0.339306
0.343808
0.362297
0.402424
0.391246
0.441791
0.339977
0.382660
0.451824
0.386582
0.382861
0.407747
0.306634
0.338301
0.369021
0.376517
0.381095
0.324710
0.259065
0.238447
0.312358
0.278653
0.334225
0.257665
0.211836
0.252555
0.307884
0.159061
0.207380
0.216710
0.216063
0.223183
0.242397
0.243249
0.221582
0.250067
0.254492
0.248148
0.158625
0.244886
0.340404
0.475048
0.629022
0.997131
1.206096
1.380010
1.452335
1.319285
1.032390
0.663610
0.377373
0.168002
0.033515
0.034155
0.043606
0.153739
0.172451
0.104634
0.217076
0.192972
0.257119
0.215901
0.248901
0.290550
0.225814
0.227870
0.217338
0.261917
0.261243
0.273269
0.291012
0.256878
0.313260
0.280785
0.410208
0.319277
0.314905
0.467359
0.463313
0.449653
0.447149
0.459685
0.461940
0.514089
0.521528
0.515136
0.544815
0.630372
0.503360
0.537161
0.566229
0.555780
0.605217
0.616460
0.614643
0.605115
0.662913
0.622744
0.602115
0.623029
0.661427
0.639812
0.618486
0.567312
0.683331
0.603613
0.488635
0.539036
0.547983
0.540237
0.479365
0.424377
0.411737
0.371970
0.400932
0.412329
0.319230
0.331656
0.335057
0.317589
0.315638
0.313278
0.298288
0.284636
0.234244
0.301582
0.219193
0.232595
0.276406
0.206313
0.241911
0.239794
0.183290
0.175621
0.223674
0.227451
0.206494
0.157683
0.194582
0.164862
0.180587
0.123158
0.257100
0.181396
0.216426
0.228461
0.189639
0.208112
0.186229
0.122866
0.171278
0.114200
0.197092
0.149785
0.179988
0.118128
0.167625
0.204358
0.172204
0.107662
0.237575
0.155130
0.191870
0.181105
0.213520
0.151724
0.203415
0.186454
0.146660
0.146564
0.241536
0.137230
0.213506
0.134841
0.164541
0.199998
0.104997
0.207684
0.195084
0.199103
0.124720
0.232606
0.209545
0.222331
0.154047
0.209307
0.140368
0.142321
0.129308
0.187144
0.142534
0.214229
0.280624
0.199372
0.217540
0.190675
0.204328
0.206981
0.291065
0.269760
0.291387
0.244989
0.305978
0.308668
0.276021
0.276092
0.296151
0.253618
0.254819
0.369519
0.324630
0.303283
0.291451
0.251392
0.207238
0.295595
0.273246
0.255011
0.284177
0.191542
0.241656
0.199743
0.180136
0.198522
0.161939
0.174134
0.219899
0.160528
0.087301
0.190498
0.185378
0.156303
0.126450
0.240398
0.141471
0.146111
0.152632
0.197742
0.176868
0.176853
0.134259
0.113595
0.174819
0.198870
0.431571
0.614700
0.952727
1.190739
1.406897
1.314830
1.081114
0.858086
0.542594
0.224753
-0.014401
-0.053707
-0.059528
-0.003043
0.007522
0.138522
0.177664
0.098797
0.097737
0.154705
0.156225
0.197296
0.141520
0.228618
0.228027
0.238583
0.219246
0.219277
0.257106
0.273798
0.249045
0.332684
0.255629
0.319043
0.342866
0.334407
0.383177
0.393746
0.405852
0.474102
0.407062
0.405855
0.436811
0.475473
0.462896
0.541121
0.563649
0.504246
0.598331
0.528747
0.527521
0.591926
0.565773
0.536414
0.570916
0.576087
0.604050
0.613815
0.573704
0.660485
0.560542
0.677119
0.576755
0.571054
0.584045
0.501106
0.395363
0.500996
0.426741
0.475674
0.478570
0.408182
0.364885
0.394485
0.351341
0.316349
0.394184
0.261816
0.333391
0.275814
0.244362
0.247103
0.215447
0.229864
0.252883
0.233961
0.104106
0.227147
0.195251
0.186129
0.158466
0.188929
0.239967
0.241705
0.163884
0.178689
0.138592
0.141326
0.143534
0.117082
0.168349
0.189632
0.238141
0.118506
0.200481
0.125466
0.129611
0.189966
0.132880
0.202268
0.166212
0.142816
0.119664
0.060098
0.159234
0.261222
0.084893
0.156610
0.166827
0.157202
0.165188
0.184044
0.191759
0.185808
0.170545
0.127133
0.167619
0.173803
0.257992
0.092139
0.186325
0.171946
0.166331
0.186302
0.177304
0.167163
0.200007
0.142897
0.182754
0.197876
0.207010
0.217248
0.223390
0.225544
0.232604
0.171972
0.170057
0.180827
0.186290
0.268115
0.202687
0.338042
0.234883
0.280352
0.185456
0.300423
0.318101
0.263029
0.300616
0.303663
0.353881
0.280453
0.289490
0.357334
0.331836
0.315513
0.292907
0.372225
0.371456
0.406633
0.390697
0.337639
0.355027
0.337864
0.312354
0.319160
0.344984
0.318962
0.271734
0.253419
0.321394
0.267750
0.245521
0.259159
0.227901
0.244867
0.204546
0.207650
0.171544
0.156682
0.239989
0.233374
0.228614
0.283356
0.171299
0.250686
0.187088
0.172404
0.183331
0.178647
0.118051
0.137673
0.399856
0.528861
0.756914
1.098105
1.348721
1.436024
1.311008
1.115966
0.779247
0.500128
0.265838
0.079749
-0.032314
0.008343
0.118091
0.159703
0.176833
0.201747
0.257596
0.265381
0.315081
0.307210
0.271657
0.281731
0.307382
0.286703
0.295441
0.288613
0.309933
0.253219
0.358328
0.217270
0.307907
0.325335
0.364562
0.377181
0.445314
0.460896
0.384980
0.495695
0.506606
0.493947
0.551130
0.458660
0.546653
0.625604
0.554001
0.650994
0.599314
0.628498
0.649853
0.654323
0.631362
0.669444
0.618385
0.767710
0.615726
0.639902
0.723523
0.685931
0.676317
0.679627
0.590719
0.645538
0.567029
0.589798
0.522961
0.580281
0.488641
0.632522
0.518933
0.447396
0.453057
0.496443
0.469405
0.415631
0.369371
0.426629
0.435076
0.408809
0.436895
0.359543
0.269277
0.326884
0.326800
0.294485
0.328276
0.302565
0.223719
0.276844
0.271505
0.315418
0.307378
0.266613
0.292669
0.229961
0.308138
0.325391
0.203376
0.259734
0.276255
0.240243
0.304726
0.208985
0.341372
0.369828
0.253016
0.301831
0.162302
0.258738
0.284862
0.196810
0.180414
0.321348
0.300895
0.304828
0.186970
0.269847
0.226538
0.239509
0.213208
0.221627
0.192278
0.286932
0.251643
0.249747
0.316315
0.244483
0.283060
0.262185
0.246566
0.251630
0.260090
0.273208
0.242051
0.276947
0.318237
0.305231
0.238988
0.198971
0.297031
0.276716
0.332857
0.187637
0.294280
0.344661
0.256354
0.330089
0.338172
0.264981
0.376437
0.279537
0.347124
0.337714
0.380153
0.404034
0.336970
0.342367
0.377699
0.372171
0.420691
0.432655
0.374074
0.486304
0.423340
0.404162
0.377650
0.390737
0.434926
0.466308
0.378429
0.471509
0.426274
0.336758
0.345708
0.422590
0.412625
0.378112
0.394212
0.402750
0.341976
0.323236
0.275832
0.272400
0.319457
0.288080
0.271701
0.247411
0.312387
0.306204
0.277562
0.282182
0.287738
0.272777
0.324622
0.309609
0.343577
0.235406
0.295727
0.302610
0.201876
0.288508
0.401118
0.451802
0.707855
1.032294
1.243442
1.476105
1.465948
1.386996
1.122462
0.835003
0.571221
0.292305
0.141353
0.053236
0.134814
0.145648
0.189801
0.252201
0.326863
0.310007
0.288062
0.353136
0.342120
0.300999
0.411781
0.340841
0.316884
0.309244
0.426806
0.341461
0.451308
0.449463
0.334162
0.502730
0.458817
0.447499
0.482547
0.554868
0.473981
0.571586
0.512486
0.533247
0.565877
0.595639
0.617868
0.586919
0.611516
0.681675
0.665360
0.626123
0.704875
0.707652
0.768564
0.690117
0.690549
0.722527
0.748125
0.702599
0.747110
0.714157
0.702253
0.655267
0.699039
0.668191
0.690262
0.680056
0.638157
0.555734
0.609184
0.607114
0.565168
0.559544
0.550597
0.508874
0.526678
0.455311
0.491659
0.513772
0.443391
0.421813
0.484425
0.381884
0.436277
0.370143
0.362600
0.286928
0.342808
0.331710
0.318754
0.397309
0.256084
0.324439
0.289174
0.227300
0.252863
0.336621
0.291720
0.266781
0.249552
0.268937
0.360752
0.241670
0.261803
0.267425
0.222134
0.281949
0.314392
0.245872
0.270012
0.301872
0.275029
0.321849
0.305240
0.244872
0.300888
0.272607
0.280658
0.274002
0.230153
0.293762
0.256252
0.235192
0.259093
0.268995
0.278871
0.327258
0.278949
0.272199
0.241873
0.279863
0.265056
0.270341
0.217964
0.204532
0.256423
0.205808
0.269274
0.288732
0.236584
0.213384
0.250401
0.313180
0.246832
0.227171
0.291426
0.295557
0.277090
0.244500
0.263411
0.334780
0.259279
0.308482
0.311329
0.276280
0.318310
0.331152
0.291375
0.325130
0.302899
0.277153
0.373579
0.433606
0.388907
0.372048
0.358201
0.390722
0.486621
0.389809
0.427596
0.348436
0.417429
0.352046
0.332303
0.376241
0.385064
0.382946
0.236961
0.329741
0.312778
0.291504
0.296433
0.289759
0.294150
0.294453
0.272543
0.318037
0.290814
0.220672
0.253574
0.198917
0.258206
0.280433
0.277447
0.259079
0.244031
0.263684
0.256031
0.188595
0.222302
0.112063
0.242633
0.180793
0.262130
0.361486
0.477695
0.648765
0.961612
1.218071
1.475716
1.385752
1.204054
0.925442
0.691767
0.388959
0.089166
0.055611
0.048524
0.052106
0.173092
0.158728
0.171764
0.169249
0.219348
0.251631
0.254888
0.239827
0.225759
0.257055
0.266381
0.265793
0.244438
0.263521
0.294366
0.329487
0.300509
0.378082
0.364580
0.327685
0.358859
0.440750
0.393833
0.431007
0.466906
0.501309
0.525221
0.443726
0.494035
0.532640
0.581299
0.516027
0.526565
0.537384
0.556025
0.567764
0.658151
0.617308
0.674279
0.655514
0.563654
0.647853
0.631811
0.687270
0.708589
0.543591
0.618107
0.559142
0.544929
0.546592
0.593536
0.600825
0.529459
0.508926
0.576030
0.445297
0.481874
0.364861
0.436472
0.424809
0.311744
0.436810
0.403175
0.348893
0.345674
0.232803
0.253481
0.293133
0.293213
0.264855
0.281510
0.260389
0.210779
0.264840
0.213719
0.243129
0.151177
0.218539
0.253670
0.281840
0.178491
0.215152
0.184471
0.150782
0.192900
0.199300
0.150182
0.178507
0.201457
0.153376
0.113200
0.242998
0.199072
0.146584
0.130308
0.153331
0.130924
0.149055
0.198989
0.167765
0.212659
0.179155
0.182092
0.232395
0.179006
0.226225
0.223820
0.218596
0.150248
0.202708
0.240821
0.241235
0.150418
0.183628
0.241365
0.139824
0.228383
0.139141
0.266229
0.173460
0.179687
0.193898
0.159312
0.250531
0.197059
0.110155
0.208984
0.173319
0.222583
0.181009
0.207464
0.256594
0.130639
0.225021
0.193401
0.127087
0.271697
0.167812
0.229613
0.265898
0.278202
0.231026
0.262386
0.240938
0.242182
0.316392
0.285892
0.284818
0.299967
0.263825
0.314993
0.305075
0.432277
0.255685
0.339130
0.322067
0.315252
0.372590
0.333667
0.276021
0.329496
0.284683
0.273124
0.286842
0.331626
0.225213
0.250436
0.223561
0.230694
0.229388
0.203782
0.130922
0.209303
0.182080
0.190789
0.155926
0.193536
0.216847
0.142638
0.164876
0.233104
0.197808
0.192769
0.219148
0.114241
0.143548
0.141251
0.234877
0.297188
0.563730
0.679961
0.998561
1.244439
1.385313
1.280529
1.142527
0.892052
0.488332
0.230544
0.061508
-0.036150
-0.042637
0.074020
0.068018
0.170111
0.195619
0.184179
0.138425
0.198039
0.265195
0.166973
0.262321
0.228755
0.212039
0.210555
0.172787
0.274052
0.273764
0.245313
0.277701
0.346043
0.323945
0.277461
0.348924
0.361130
0.359671
0.374622
0.464439
0.385949
0.527984
0.434171
0.514399
0.474293
0.533448
0.535452
0.567918
0.600047
0.573517
0.666851
0.682713
0.587516
0.656156
0.656501
0.626294
0.660976
0.615070
0.609408
0.550618
0.659532
0.613415
0.601004
0.529619
0.590911
0.580854
0.506949
0.474625
0.518881
0.484751
0.413182
0.470346
0.435496
0.458273
0.347617
0.338899
0.440710
0.351512
0.256283
0.286110
0.261824
0.290836
0.205553
0.283883
0.230920
0.244108
0.231131
0.257782
0.230596
0.314786
0.227086
0.238860
0.197078
0.225705
0.224393
0.137451
0.220353
0.222062
0.195271
0.194262
0.235873
0.216198
0.255525
0.216159
0.293702
0.223501
0.174943
0.262876
0.240762
0.180256
0.164074
0.198578
0.146965
0.164521
0.298936
0.127145
0.240836
0.221432
0.237351
0.268447
0.156225
0.212332
0.173178
0.232904
0.209768
0.131511
0.254963
0.244953
0.218146
0.206802
0.224910
0.235299
0.221026
0.131089
0.201995
0.227346
0.202894
0.199037
0.274938
0.200025
0.239091
0.226107
0.263614
0.327989
0.143317
0.197261
0.237430
0.256154
0.311139
0.217628
0.343277
0.276455
0.346216
0.231581
0.320325
0.335350
0.277117
0.357641
0.300611
0.344562
0.371239
0.412841
0.334455
0.349289
0.393396
0.405663
0.389868
0.351224
0.490094
0.382182
0.373786
0.410049
0.439875
0.382568
0.318575
0.302147
0.393452
0.325701
0.387456
0.328396
0.268757
0.311646
0.237695
0.328965
0.286336
0.235316
0.233286
0.227012
0.275520
0.226284
0.260117
0.280341
0.263206
0.338789
0.291125
0.346145
0.248994
0.246829
0.267758
0.196799
0.220338
0.200722
0.281752
0.492404
0.731129
0.896973
1.182373
1.419620
1.500000
1.343596
1.178477
0.875409
0.467059
0.323453
0.073471
0.101733
0.070811
0.124887
0.122763
0.204238
0.288107
0.297162
0.264844
0.279189
0.288732
0.253657
0.319438
0.231205
0.320175
0.295221
0.306620
0.428863
0.433913
0.363616
0.360662
0.369323
0.413822
0.375196
0.432639
0.454004
0.425933
0.479672
0.510988
0.469206
0.479236
0.504309
0.657273
0.676891
0.608364
0.668221
0.675617
0.663638
0.721623
0.702332
0.640471
0.662012
0.686013
0.810452
0.718355
0.698058
0.729383
0.742460
0.705107
0.707144
0.703502
0.633040
0.653341
0.636568
0.674868
0.597983
0.562476
0.571901
0.561755
0.469586
0.566610
0.530877
0.562453
0.523478
0.425359
0.535778
0.467423
0.395810
0.459984
0.402673
0.386597
0.342570
0.360377
0.393563
0.319366
0.312785
0.324007
0.343892
0.357653
0.344214
0.338584
0.326044
0.342817
0.380364
0.318919
0.324940
0.312461
0.295506
0.331297
0.302560
0.257869
0.279761
0.290691
0.295763
0.290878
0.312201
0.295002
0.403169
0.317569
0.311921
0.258825
0.263908
0.293934
0.275175
0.253233
0.286482
0.299074
0.296168
0.251445
0.355552
0.289365
0.270239
0.328616
0.307869
0.304004
0.271619
0.252098
0.378169
0.304389
0.303615
0.355098
0.356539
0.282468
0.308229
0.249066
0.293251
0.318611
0.367770
0.313106
0.258306
0.268200
0.278627
0.327667
0.249749
0.336313
0.366556
0.303464
0.321135
0.376388
0.283052
0.357964
0.372958
0.351513
0.409233
0.334211
0.396690
0.352413
0.466996
0.357030
0.511372
0.430564
0.451841
0.419544
0.447518
0.517563
0.495329
0.494564
0.432647
0.464616
0.440522
0.440420
0.483632
0.414254
0.448686
0.427091
0.402893
0.405360
0.396488
0.349131
0.377541
0.383168
0.366371
0.345173
0.345105
0.269519
0.295173
0.326353
0.358004
0.347606
0.397279
0.265968
0.298789
0.326751
