-0.006113
0.060843
0.059309
-0.053082
0.052676
-0.013582
-0.078571
-0.030045
-0.042790
0.030949
-0.030624
0.084687
0.076300
-0.040405
-0.013107
0.041374
0.040455
-0.016298
0.023041
-0.034784
-0.014746
-0.066208
-0.018461
0.035224
0.096400
-0.000620
0.064851
0.030214
-0.006156
0.037621
0.005747
0.061068
0.062894
0.079738
0.053886
0.014056
0.057374
0.119066
0.092363
0.099406
0.033039
0.189308
0.164074
0.231804
0.203235
0.150230
0.182343
0.264081
0.149426
0.225828
0.167142
0.161755
0.202405
0.167621
0.103783
0.202921
0.145433
0.147749
0.219431
0.141939
0.189954
0.216300
0.091575
0.120211
0.126619
0.136682
0.044108
0.051949
0.076618
0.079973
0.080683
0.075029
0.070574
0.060602
0.143981
0.021975
0.002129
0.085966
-0.020189
0.028534
0.031891
0.042159
0.053112
0.007568
0.037627
0.072236
0.094125
-0.010516
0.078809
0.095821
0.096242
0.087609
0.056133
-0.003072
-0.012667
-0.009227
0.108452
0.267635
0.514588
0.923761
1.101103
1.292461
1.360158
1.264632
1.080888
0.753796
0.378125
0.087057
-0.046288
-0.208311
-0.252887
-0.196845
-0.134220
-0.079934
-0.062723
-0.005414
0.046636
0.111440
0.070587
0.104760
0.041409
0.121219
0.134683
0.053276
0.108873
0.126819
0.088715
0.041089
0.063149
0.092659
0.025871
0.106029
0.140817
0.053595
0.142386
0.135992
0.165125
0.183529
0.163758
0.203268
0.152400
0.182938
0.205429
0.183315
0.268878
0.386104
0.214065
0.296220
0.345131
0.369964
0.376872
0.374613
0.375189
0.439687
0.414200
0.493436
0.484583
0.516890
0.475524
0.448020
0.567073
0.529833
0.537505
0.509885
0.513208
0.609017
0.554550
0.582826
0.571611
0.596176
0.621035
0.567023
0.464520
0.535121
0.483692
0.468491
0.428060
0.425548
0.387031
0.445482
0.392026
0.302574
0.370506
0.257227
0.351079
0.244657
0.297600
0.312009
0.209576
0.237975
0.145253
0.179536
0.125395
0.179100
0.179412
0.108541
0.112888
0.097585
0.085915
0.130332
0.131567
0.044090
0.121250
0.133039
0.098037
0.122965
0.172163
0.045421
0.092807
0.146962
0.061572
0.124549
0.066604
0.120834
0.019341
0.096974
0.080825
0.148948
0.165819
0.124827
0.006759
0.038761
0.107383
0.101529
0.093749
0.107608
0.087488
0.119139
0.031471
0.112097
0.067255
0.021814
0.103221
0.057179
0.104676
0.111252
0.047063
0.116477
0.063287
0.123647
0.126229
0.060519
-0.014936
0.111660
0.161784
0.117750
0.044179
-0.000752
0.071309
0.058971
0.096531
0.072579
0.059069
0.070207
0.028003
0.070316
0.041505
0.162384
0.098500
-0.005098
0.052542
0.065721
0.111612
0.015696
0.049183
0.065066
0.031297
0.088155
0.004394
0.114959
0.083188
0.034053
0.022077
0.106171
0.066500
0.008108
0.070821
-0.029645
0.085949
0.019208
0.016081
0.013828
0.017905
0.031222
0.110819
0.110229
0.143559
0.161837
0.126968
0.019396
0.159300
0.084318
0.107552
0.162775
0.132777
0.105918
0.148898
0.259613
0.325116
0.241212
0.196852
0.214670
0.236246
0.318546
0.219775
0.250679
0.219967
0.237971
0.224107
0.259282
0.226009
0.181613
0.144050
0.215998
0.107151
0.163691
0.145076
0.143182
0.129034
0.097267
0.061324
0.050366
0.037951
0.101359
0.056132
0.037588
0.059528
0.086409
0.055050
0.056899
0.019979
0.002987
0.089567
0.103073
0.031021
0.011146
0.011308
0.070087
0.084597
0.095834
0.005305
0.072955
0.071697
0.038326
0.116910
0.061615
0.031447
-0.050968
0.008811
-0.001890
0.079614
0.217712
0.400813
0.802013
1.088430
1.303003
1.339830
1.271051
1.123912
0.692476
0.486380
0.128777
-0.064949
-0.232347
-0.236546
-0.226346
-0.228337
-0.081553
-0.087198
0.006223
0.082777
0.031326
0.038985
0.040940
0.038227
0.046891
-0.086376
-0.012222
0.031077
-0.007178
0.046414
0.013351
0.047593
0.080610
0.040464
0.030936
0.077026
0.048906
0.078899
0.187881
0.174696
0.108488
0.066637
0.091421
0.082014
0.159882
0.084089
0.158506
0.251022
0.255101
0.230164
0.148931
0.213313
0.248660
0.376942
0.269708
0.340844
0.369672
0.296214
0.409250
0.480618
0.406374
0.439972
0.454796
0.479261
0.479840
0.442295
0.420202
0.436154
0.493718
0.476106
0.458688
0.568460
0.525177
0.424661
0.420757
0.533382
0.449312
0.352002
0.425940
0.403093
0.364004
0.366402
0.325369
0.262999
0.245153
0.269925
0.249867
0.211745
0.208919
0.132265
0.157364
0.116831
0.106746
0.107032
0.129509
0.052222
0.095697
0.106348
-0.010066
-0.009906
0.056545
-0.026995
0.106233
-0.028619
-0.027057
-0.021546
0.040057
0.006182
0.008574
-0.041479
-0.086127
-0.018062
0.020997
-0.016780
-0.040920
-0.009102
-0.008431
-0.077269
-0.055940
-0.062704
0.010869
-0.030548
-0.099296
-0.115207
-0.100667
0.003333
-0.006750
0.017148
-0.046010
-0.016308
-0.113690
-0.060372
0.014332
-0.126723
-0.105130
0.079677
-0.029772
-0.042974
0.003258
-0.039554
0.052045
-0.108849
-0.034573
0.030145
-0.018938
-0.065869
-0.031328
-0.021586
0.026737
0.011694
-0.068509
0.029319
-0.021875
0.022128
-0.052681
-0.016202
0.011121
-0.058805
0.030671
-0.071619
0.000884
-0.066547
-0.087541
0.064597
-0.097078
-0.051840
-0.074483
-0.015942
-0.013908
-0.012255
-0.124157
-0.056914
-0.026779
-0.066095
-0.045125
-0.043558
-0.102796
-0.155626
0.002423
-0.071174
-0.001436
-0.061682
-0.080591
0.040713
-0.000776
0.062263
-0.043973
0.067385
-0.017959
-0.022838
0.012296
-0.070349
0.008213
-0.017396
0.106308
0.122329
0.033058
0.041637
0.043507
0.044297
0.094846
0.061068
0.098627
0.151982
0.061654
0.084974
0.123137
0.182842
0.092239
0.099929
0.132132
0.144654
0.157318
0.165892
0.121313
0.141679
0.056491
0.127525
0.171028
-0.040805
0.041838
0.009683
-0.011711
0.063226
-0.030343
-0.069234
0.020828
0.046328
0.040803
0.006586
-0.004144
-0.091884
0.048971
-0.012017
0.019047
-0.043797
-0.042610
-0.057109
-0.057052
-0.024055
-0.057316
-0.035156
-0.037255
-0.048567
-0.051115
-0.016123
-0.042487
-0.076034
-0.047727
-0.028843
-0.096854
-0.098642
-0.052369
-0.033929
0.102838
0.286771
0.548568
0.974288
1.201850
1.339286
1.313575
1.176076
0.821436
0.514326
0.167977
-0.070238
-0.256438
-0.397537
-0.323931
-0.318392
-0.207855
-0.129297
-0.019344
-0.069401
0.016578
-0.018088
0.024324
-0.041396
-0.072559
0.017648
0.003813
-0.065195
-0.082036
0.044530
-0.032024
0.016045
0.001744
-0.053334
-0.005252
-0.006480
0.059354
-0.042804
0.027668
0.069627
-0.008383
0.095663
0.092962
0.083473
0.165887
0.132945
0.105786
0.149324
0.226305
0.113283
0.259112
0.222170
0.211878
0.231280
0.332226
0.249082
0.318133
0.240412
0.331051
0.427536
0.341718
0.448515
0.414205
0.514034
0.462399
0.466226
0.388701
0.449978
0.486807
0.389670
0.494110
0.470113
0.406680
0.501562
0.458110
0.368736
0.354411
0.408372
0.354469
0.382899
0.414908
0.321671
0.329603
0.268358
0.310071
0.296022
0.233157
0.247537
0.211049
0.193568
0.187604
0.176577
0.085929
0.181796
0.146286
0.176578
0.114413
0.130420
0.127427
0.028101
0.044429
-0.048644
0.044257
-0.019132
0.001866
-0.025718
0.042280
0.016682
-0.043574
0.059378
-0.039196
0.027664
-0.000282
-0.002312
-0.024707
-0.035411
0.037935
0.022272
-0.009979
0.020544
0.009513
0.042455
0.029093
-0.018849
0.040985
0.042484
0.011788
0.036688
-0.029203
0.088994
0.013047
0.014887
-0.014600
-0.014255
0.014738
0.021922
-0.018074
0.042850
0.064229
0.028398
0.099618
-0.023179
0.055624
0.010163
0.063354
0.039103
0.028012
0.084986
0.043379
-0.010591
0.069569
0.051183
0.039363
-0.006899
0.014080
0.055425
0.013829
0.003184
0.056228
0.051806
0.032763
0.088823
0.023868
0.002765
0.071176
0.009650
0.041206
0.033663
0.058651
0.009860
0.054812
0.077447
0.054302
0.048956
0.009232
0.003176
0.075858
0.049965
-0.014178
0.096549
0.091832
-0.052794
0.028407
0.051430
0.032512
0.061802
0.048140
0.097582
0.156916
0.066958
0.016546
0.114560
0.073034
0.175864
0.131805
0.182314
0.111754
0.116519
0.179751
0.101334
0.169736
0.149648
0.220800
0.273028
0.259476
0.234167
0.249711
0.235767
0.224078
0.250252
0.210765
0.261372
0.225377
0.272931
0.187530
0.185040
0.170738
0.184817
0.151501
0.114231
0.164829
0.129543
0.105336
0.071285
0.085375
0.134626
0.152835
0.183981
0.170912
0.023712
0.062127
0.108606
0.130485
0.011187
0.067269
0.114917
0.008809
0.102695
0.146765
0.096469
0.104024
0.035658
0.107841
0.091236
0.055546
0.062705
0.080508
0.130136
0.072560
0.120350
0.048501
-0.012958
-0.056094
0.029545
0.154781
0.389827
0.572080
0.925336
1.275488
1.500000
1.345874
1.223448
0.921713
0.623442
0.424243
0.020420
-0.100730
-0.207104
-0.196428
-0.215601
-0.126332
-0.083779
0.080602
0.076238
0.074898
0.067688
0.077923
0.020625
0.054312
0.052979
0.136099
0.067125
0.071932
0.099649
0.028642
0.132628
0.102591
0.136877
0.083247
0.085312
0.155348
0.154689
0.114741
0.091470
0.141930
0.270965
0.238855
0.201291
0.166426
0.185325
0.272633
0.258837
0.233490
0.297646
0.231886
0.374848
0.404260
0.322939
0.325204
0.363742
0.463517
0.412886
0.494048
0.470333
0.424552
0.484213
0.521855
0.523475
0.611316
0.510096
0.569065
0.537449
0.587328
0.661597
0.479200
0.555702
0.619386
0.525754
0.523032
0.546382
0.555800
0.463360
0.474277
0.457108
0.515285
0.424639
0.449331
0.396479
0.339219
0.344661
0.419196
0.276316
0.289275
0.240472
0.325406
0.282472
0.201571
0.213636
0.238392
0.178224
0.121995
0.233883
0.140071
0.126076
0.167982
0.147569
0.124133
0.104094
0.136353
0.064023
0.148252
0.037519
0.146412
0.058886
0.095205
0.168147
0.026046
0.122816
0.021778
0.136844
0.032510
0.064105
0.092465
0.107627
0.072382
0.032258
0.044099
0.028619
0.130678
0.064084
0.073257
0.122521
0.066925
0.113487
0.071722
0.194386
0.122275
0.118621
0.049227
0.103590
0.046044
0.057031
0.031504
0.041146
0.075464
0.111404
0.061995
0.069246
0.063313
0.069131
0.020803
0.040006
0.085501
0.093233
-0.010389
0.076669
0.089730
0.080447
0.085468
0.164186
-0.021054
0.035625
0.045415
0.026703
0.052434
0.080331
0.109866
0.006270
0.024868
0.113646
0.174941
-0.015094
0.132140
0.066655
0.081261
0.070690
0.127698
0.162943
-0.000853
0.073030
0.022576
0.063388
0.023848
0.047776
0.132952
0.108406
0.037173
0.027434
0.107603
0.157127
0.082660
0.014918
0.157823
0.061634
0.093361
0.073278
0.024306
0.055027
0.087514
0.074539
0.146943
0.146741
0.226009
0.180990
0.204961
0.165157
0.146734
0.175499
0.202342
0.217607
0.208966
0.173433
0.254009
0.231387
0.253372
0.209204
0.248983
0.286292
0.210302
0.179761
0.143887
0.227767
0.156487
0.157146
0.179270
0.121280
0.092139
0.070466
0.088411
0.113393
0.053681
0.134005
0.068578
0.029868
0.015174
-0.058372
0.070902
0.063527
0.080727
0.054818
0.106493
0.067315
0.043815
0.053243
0.037100
0.033560
-0.040721
0.006047
0.068170
0.042737
0.003794
0.037092
0.027485
0.004426
-0.052688
-0.083741
-0.038672
-0.059835
0.051115
0.238589
0.549515
0.851190
1.190014
1.350067
1.368501
1.272098
1.024529
0.686818
0.385121
0.141508
-0.072558
-0.317848
-0.259281
-0.191759
-0.179508
-0.105063
-0.015416
0.004374
-0.096501
0.033013
0.067752
-0.040475
0.024224
0.054093
-0.005253
0.055625
-0.006921
0.032823
0.004523
0.026303
0.021331
0.026315
0.042350
0.062279
0.026507
0.059310
-0.004521
0.050398
0.142122
0.043907
0.106852
0.134116
0.155719
0.130181
0.119383
0.202845
0.176221
0.217518
0.292315
0.241079
0.256720
0.244812
0.277910
0.337916
0.304565
0.332211
0.436645
0.431660
0.379587
0.381819
0.444245
0.474748
0.383734
0.379703
0.458351
0.454384
0.393723
0.470402
0.476184
0.474749
0.566132
0.359775
0.473440
0.307202
0.400610
0.396211
0.353431
0.354394
0.324003
0.318631
0.363274
0.321493
0.276966
0.220536
0.274139
0.230045
0.204716
0.150936
0.135675
0.099016
0.106188
0.027197
0.040362
0.065648
0.087950
0.103008
0.025415
0.044317
-0.001900
-0.004218
0.012849
-0.019797
-0.027494
-0.028797
-0.032712
0.004347
-0.006445
-0.005270
-0.045367
-0.013928
-0.027565
0.053443
0.034240
-0.119306
0.011238
-0.028784
-0.078320
-0.067813
-0.044965
0.006689
-0.017742
-0.121164
0.017709
-0.020951
-0.051744
0.006222
-0.108322
0.007208
-0.021627
-0.093697
-0.055250
-0.068729
-0.079262
-0.022557
-0.079830
-0.043044
-0.087750
-0.024883
-0.068327
-0.020537
-0.066621
-0.121367
-0.036544
-0.013850
-0.064524
-0.081445
-0.104507
-0.030137
-0.010536
-0.056520
0.001765
-0.006963
-0.111871
-0.038509
-0.113365
-0.024208
-0.042866
-0.064816
-0.093753
-0.030261
-0.078968
-0.077571
-0.091757
-0.135389
-0.021089
0.059299
-0.094906
-0.074261
-0.091863
0.005294
-0.084996
0.005138
-0.092979
-0.134100
-0.041786
-0.008000
-0.021422
-0.038835
-0.133216
-0.050036
-0.029396
-0.076540
-0.120323
-0.077547
-0.022276
-0.086228
-0.027991
0.080211
-0.104286
-0.086511
-0.069339
-0.014619
0.047638
-0.019907
-0.047383
-0.013724
-0.045950
0.069560
0.035874
0.094544
0.096012
0.054170
0.073779
0.078192
0.080744
0.043730
0.020011
0.136900
0.036140
0.086665
0.115344
0.042111
0.023684
0.098081
0.061363
0.051429
-0.007477
0.023520
0.020094
0.001806
-0.016489
0.016053
0.020033
-0.070926
-0.057097
-0.017465
0.021771
-0.033330
-0.037137
-0.084080
-0.054196
-0.151759
-0.020118
0.007975
-0.072328
-0.094539
-0.088780
-0.100097
-0.076995
-0.024857
-0.043163
-0.113171
-0.046316
-0.130156
-0.097041
-0.082305
-0.092434
-0.085139
-0.121127
-0.157862
-0.159659
-0.202163
-0.006927
0.070079
0.335072
0.592325
1.004842
1.200398
1.285425
1.151458
0.907639
0.726604
0.347398
0.025598
-0.198512
-0.397766
-0.342404
-0.339634
-0.304655
-0.261238
-0.241122
-0.096592
-0.108603
-0.075672
-0.147668
-0.036240
-0.165925
-0.045671
-0.058515
-0.043414
-0.144189
-0.109135
-0.043161
-0.064343
-0.109450
-0.092181
-0.022400
-0.022397
0.077360
-0.081028
-0.000479
-0.055705
0.056087
-0.052284
0.079310
0.086271
0.031660
0.039904
0.044887
0.147831
0.182365
0.152121
0.235469
0.133948
0.221700
0.214138
0.248797
0.316349
0.295906
0.217743
0.313436
0.310215
0.286952
0.342648
0.380000
0.343440
0.373412
0.335436
0.389391
0.390853
0.408527
0.483215
0.343931
0.441034
0.471156
0.417601
0.415166
0.438428
0.407936
0.310642
0.409882
0.371910
0.285519
0.348394
0.263490
0.282322
0.283265
0.234434
0.216632
0.153102
0.131532
0.149549
0.092226
0.121676
0.169407
0.049466
0.074730
0.107028
0.110500
0.029967
0.019827
0.043245
0.002401
0.012747
-0.077870
-0.074265
-0.013777
0.009134
-0.047628
-0.037461
-0.035545
-0.032030
-0.009014
0.037145
-0.023592
0.000124
-0.034976
-0.033409
0.013098
0.017556
-0.034255
-0.054598
-0.014675
-0.045379
-0.067794
-0.062111
-0.038153
-0.045233
-0.044127
0.025153
-0.020990
-0.028557
0.017375
-0.024484
-0.014665
-0.113752
-0.070666
-0.008383
0.023527
-0.072772
-0.036148
0.024172
-0.054260
0.002080
-0.026651
0.013322
0.010715
-0.002325
-0.053350
-0.025970
-0.038640
0.020812
-0.019411
0.003407
0.034464
-0.008206
-0.131287
-0.068858
-0.090167
-0.029765
-0.007449
0.009776
-0.045036
0.071772
-0.026485
0.043661
-0.017196
-0.057983
-0.079637
0.002856
-0.001396
-0.010909
0.027137
-0.035641
-0.042065
0.015720
-0.041921
-0.033193
0.036922
-0.018704
-0.006246
0.030069
0.061471
-0.052251
0.007554
0.073452
0.059146
0.026767
0.014479
-0.048028
0.042180
0.011037
0.037709
0.017284
-0.013029
0.092136
0.079852
0.076234
-0.012025
0.044488
0.080271
0.053256
0.128458
0.067603
0.170569
0.093092
0.215128
0.190666
0.154668
0.157227
0.188258
0.222095
0.259941
0.190576
0.197961
0.237485
0.233026
0.200148
0.125673
0.088214
0.139548
0.153295
0.067381
0.148174
0.127731
-0.016105
0.094194
0.044714
0.163066
0.121352
0.081523
0.097873
0.036541
0.020343
0.071470
0.074513
0.033334
0.052552
0.047156
0.042584
0.050004
-0.017571
0.126694
0.013726
0.015424
0.037906
-0.024763
0.011476
-0.004129
-0.001365
0.012724
0.058439
0.045183
-0.000836
0.024492
-0.053555
-0.015242
0.062868
0.297562
0.698161
1.058782
1.245810
1.389631
1.257312
1.129425
0.793443
0.494599
0.292952
-0.026742
-0.168983
-0.344106
-0.263395
-0.224592
-0.197737
-0.046563
-0.006737
0.049875
0.073359
0.018546
0.009153
0.020117
0.095177
0.042979
0.054835
0.058398
0.050285
0.003343
0.038009
0.011290
0.065439
0.004167
-0.005035
0.112999
0.054972
0.178190
0.113307
0.118549
0.058216
0.120302
0.148013
0.185169
0.144014
0.164791
0.186693
0.229659
0.305458
0.200861
0.251633
0.249376
0.340962
0.340424
0.341191
0.384352
0.411435
0.338098
0.392771
0.442029
0.455812
0.437858
0.509911
0.459992
0.419307
0.500811
0.524359
0.550366
0.557938
0.546687
0.556088
0.635063
0.576229
0.537129
0.494658
0.481780
0.435382
0.459915
0.407707
0.479559
0.329826
0.339885
0.329162
0.259792
0.228874
0.259705
0.338915
0.285018
0.287711
0.151084
0.168701
0.182060
0.213923
0.128265
0.148470
0.028999
0.168270
0.111039
0.090679
0.175363
0.138327
0.105669
0.069181
0.071849
0.062663
0.050622
0.030193
0.031392
0.070848
0.058912
0.100330
-0.022667
0.025241
0.013444
-0.016015
-0.008741
0.013651
0.050794
-0.016872
0.092007
-0.013372
0.055141
0.036367
0.094271
0.002552
0.004379
0.058982
0.058133
0.062615
0.084643
0.038950
-0.027857
-0.041623
0.016098
0.062556
0.097438
0.051140
0.013591
0.031740
0.026998
0.008412
0.032630
0.036723
-0.030601
0.043652
0.043735
0.058381
0.026930
-0.029146
0.095431
0.052152
-0.015052
0.079719
-0.048102
0.025804
0.003751
0.001723
0.033824
0.037776
0.119491
-0.003648
-0.049908
0.008998
0.020456
-0.001706
0.024193
0.098169
0.035029
-0.055699
0.027354
0.046770
-0.010150
-0.049706
0.036387
0.051240
0.038933
0.028099
0.049853
-0.030700
0.056365
0.029490
0.096045
0.027231
-0.017417
0.062583
0.064924
0.014185
0.016783
-0.008729
0.107257
0.073243
0.092364
0.107171
0.082081
0.100262
0.069087
0.103787
0.121553
0.080804
0.186472
0.128532
0.155515
0.113570
0.128008
0.172298
0.183947
0.146265
0.166697
0.153761
0.245908
0.180155
0.118883
0.086324
0.165230
0.129912
0.102006
0.161477
0.149242
0.095240
0.177137
0.135010
0.107060
0.165331
0.033998
0.051034
0.087067
0.089233
0.062774
0.057640
0.130948
-0.011007
0.024142
-0.007486
0.015430
-0.015157
0.010962
-0.042060
-0.000628
-0.058563
0.013156
0.056824
0.052382
-0.050112
-0.027888
-0.032711
0.064328
-0.009908
0.082087
0.042097
-0.066906
-0.045525
-0.091668
-0.148551
-0.040084
0.110687
0.291479
0.611418
0.842548
1.122802
1.340932
1.301198
1.137232
0.882428
0.624561
0.171230
0.016141
-0.191382
-0.326384
-0.357535
-0.284122
-0.241686
-0.041886
-0.055325
-0.057577
0.006559
-0.021827
-0.048460
-0.053945
-0.006371
-0.095928
-0.098255
-0.049858
-0.112031
-0.041085
-0.034882
-0.043907
-0.024470
-0.070705
-0.029896
0.000455
0.045518
0.015186
0.042667
0.056266
0.034372
0.084920
-0.024808
0.158705
0.069237
0.013127
0.095647
0.146936
0.156582
0.221309
0.177797
0.167105
0.288600
0.205553
0.269839
0.243720
0.316106
0.240765
0.347761
0.379816
0.362614
0.362568
0.415740
0.429265
0.416734
0.469801
0.418434
0.376592
0.352507
0.455959
0.407851
0.465496
0.418857
0.487502
0.409514
0.411050
0.395135
0.387949
0.382843
0.332708
0.336546
0.284461
0.283038
0.270757
0.194809
0.158999
0.243759
0.195242
0.219567
0.171133
0.094366
0.119612
0.031283
0.075165
0.094276
0.002639
-0.037324
0.026030
0.003305
0.032789
-0.073476
-0.016949
-0.011721
-0.070349
-0.102774
-0.120027
0.066398
-0.091714
-0.048646
-0.055703
-0.107279
-0.058587
-0.037604
-0.031632
-0.080773
-0.065247
-0.003341
-0.079078
-0.118412
-0.080176
-0.056159
-0.062732
-0.169375
-0.102032
-0.084609
-0.075334
0.003279
-0.169396
-0.028273
-0.072917
-0.101189
-0.098386
-0.069631
-0.115682
-0.097617
-0.057458
-0.026963
-0.080460
-0.048055
-0.026519
-0.141562
-0.118254
-0.054904
-0.162303
-0.036585
-0.055180
-0.132676
-0.027431
-0.122484
-0.042620
-0.049200
-0.130404
-0.142715
-0.116882
-0.125885
-0.030502
-0.074655
-0.021425
-0.082583
-0.099588
-0.033762
0.012274
-0.067584
-0.066036
-0.148721
-0.066452
-0.034557
-0.108450
-0.127897
-0.111734
-0.101967
-0.095433
-0.120561
-0.088563
-0.113437
-0.103299
-0.091441
-0.059439
-0.065801
-0.115574
-0.053309
-0.080825
-0.087528
-0.115291
-0.078827
-0.103107
-0.085704
-0.079827
-0.028865
-0.121531
0.005165
-0.040253
-0.042838
-0.062785
-0.057913
-0.083343
0.007325
0.013009
-0.060688
-0.062110
-0.012679
-0.016201
0.022528
0.084035
0.106312
0.063953
0.047107
0.010491
0.063563
0.191628
0.085741
0.039256
-0.021559
0.082743
0.112561
0.084604
0.074063
0.023489
0.096965
-0.052364
0.033019
-0.025440
-0.015298
-0.086114
-0.032670
-0.094493
-0.046852
-0.090122
-0.036042
-0.023366
-0.040064
-0.002778
-0.109695
-0.098322
-0.019091
-0.118932
-0.057561
-0.070863
-0.107237
-0.101678
-0.150210
-0.072001
-0.077248
-0.076705
-0.153553
-0.058243
-0.079788
-0.049120
-0.058597
-0.135147
-0.142180
-0.129128
-0.114143
-0.153084
-0.070209
0.180062
0.298239
0.775565
1.005021
1.192810
1.275746
1.130037
0.823767
0.520421
0.267110
-0.007104
-0.291233
-0.420034
-0.371052
-0.347476
-0.379101
-0.228146
-0.174393
-0.062216
-0.110546
-0.139729
-0.088530
-0.066482
0.002175
-0.030931
-0.085786
-0.125021
-0.009402
-0.025799
-0.027205
-0.045840
-0.000523
-0.042493
-0.017612
0.005073
-0.010984
-0.038809
0.062576
-0.018573
-0.045333
0.013907
0.007899
0.088624
0.043751
0.067223
0.019649
0.053342
0.121851
0.161593
0.187941
0.104656
0.183858
0.203120
0.224248
0.191576
0.287645
0.275647
0.229306
0.402764
0.375749
0.402013
0.430223
0.428077
0.346276
0.345257
0.495684
0.458447
0.452235
0.360953
0.420003
0.393416
0.463796
0.434991
0.404466
0.411820
0.367813
0.367274
0.419160
0.328320
0.385689
0.298938
0.295296
0.274713
0.234450
0.336880
0.289056
0.223817
0.137226
0.182615
0.105759
0.172805
0.077081
0.115116
0.058791
0.044174
0.029144
0.086292
-0.017339
0.053402
0.070951
-0.055180
0.034529
0.016427
0.001053
-0.009722
-0.013181
0.013939
-0.049926
-0.036399
-0.034357
0.008020
0.021059
-0.038244
0.041508
-0.003251
0.022757
-0.104508
-0.042101
-0.036671
-0.065016
-0.056656
0.041800
0.025082
-0.059719
-0.031724
-0.047249
-0.064693
-0.148969
-0.049757
-0.060380
-0.033478
0.016114
-0.031481
-0.009301
0.018127
0.031805
-0.027478
-0.065971
0.008171
0.040383
-0.079979
0.003216
-0.000727
0.030828
0.047756
0.006900
-0.007870
-0.004542
-0.042134
0.031367
0.010026
0.056891
-0.022241
0.005834
-0.042106
0.027522
0.021824
0.001184
0.101054
-0.104019
-0.028066
-0.027824
-0.023607
0.020382
-0.012031
0.029404
-0.021254
0.020087
0.077812
-0.006725
-0.016346
0.025124
0.041515
-0.038196
0.073194
0.073758
-0.024890
0.046321
0.029165
0.010039
0.085317
-0.016527
-0.040281
-0.030236
0.025350
0.007562
0.046028
0.033486
0.075013
0.093962
-0.000454
0.028900
0.035509
0.074457
0.092387
0.067697
0.091719
0.107788
0.150850
0.194376
0.159847
0.186696
0.201173
0.182420
0.155960
0.139010
0.185116
0.139903
0.286745
0.119835
0.208732
0.205099
0.166603
0.097085
0.170353
0.201185
0.127738
0.064172
0.070661
0.155439
0.108779
0.119461
0.087421
0.106454
0.040065
0.025576
0.142855
0.068048
0.032154
-0.015377
0.046322
0.023220
0.028997
0.108337
0.032909
0.061811
0.069514
0.083924
-0.015102
0.040034
-0.025449
0.129827
0.095238
0.077587
0.080325
0.033377
0.026971
0.052461
0.073929
-0.133587
-0.003599
-0.044218
-0.040595
0.068319
0.189492
0.461997
0.785453
1.061677
1.254665
1.422779
1.333944
1.092535
0.746830
0.495630
0.136462
-0.072307
-0.173825
-0.248090
-0.242000
-0.181043
-0.032713
-0.031932
0.037304
0.082677
0.090568
0.120836
0.128834
0.058215
0.062375
0.054745
0.030454
0.090107
0.046428
0.111175
0.044127
0.052409
0.106999
0.038337
0.070819
0.100285
0.062718
0.133364
0.074466
0.144023
0.159198
0.119176
0.157624
0.095967
0.141400
0.208469
0.203320
0.225375
0.222537
0.307782
0.343993
0.225312
0.338635
0.294134
0.367869
0.374949
0.416888
0.384469
0.488369
0.478335
0.504443
0.473240
0.433003
0.524767
0.566973
0.578404
0.491576
0.548129
0.574467
0.548309
0.583014
0.574741
0.533568
0.514453
0.525418
0.589358
0.421273
0.499926
0.432750
0.452466
0.460553
0.407798
0.440120
0.371519
0.310931
0.339932
0.288714
0.301025
0.295895
0.246243
0.246751
0.217314
0.226312
0.289882
0.217694
0.187240
0.190352
0.107045
0.128952
0.136628
0.105557
0.037314
0.196657
0.145650
0.006724
0.117232
0.051166
0.088182
0.063095
0.073483
0.097539
0.033696
0.139923
0.113770
0.028729
