0.025368
0.031862
0.023691
0.013956
-0.005359
-0.020795
0.048614
0.030161
0.011761
-0.022184
-0.057930
0.034375
0.024052
-0.028311
-0.026221
0.037530
-0.009554
0.026272
0.014342
-0.019293
0.008534
-0.023925
0.002187
0.030009
0.007616
-0.052956
-0.008972
0.080043
0.036636
0.046179
-0.028707
0.080914
-0.023276
0.062764
0.080799
0.056303
0.063584
0.047525
0.107413
0.079399
0.063934
0.084772
0.138847
0.080655
0.154029
0.125055
0.157495
0.143385
0.134759
0.151276
0.173618
0.205843
0.176619
0.193628
0.185417
0.174946
0.218094
0.214756
0.207044
0.137513
0.157747
0.146609
0.127472
0.107474
0.103796
0.134545
0.179122
0.199706
0.107947
0.144439
0.133785
0.095994
0.043390
0.070068
0.107498
0.018760
0.054028
0.108198
0.056029
0.053544
0.090218
-0.025045
0.108415
0.018879
-0.002657
0.020375
0.053809
0.102186
0.125619
0.091271
0.099437
0.084879
0.026085
0.093541
0.056380
0.100245
0.058195
0.064253
0.027914
0.054496
0.005731
-0.004928
-0.034342
0.086307
0.156279
0.410338
0.634058
0.916582
1.181237
1.284518
1.228729
1.056492
0.727064
0.466047
0.224859
0.025885
-0.140876
-0.153008
-0.213204
-0.160200
-0.046230
-0.075045
0.146325
0.146681
0.078411
0.054103
0.054390
0.087095
0.045668
0.044729
0.073540
0.033883
0.075758
0.105340
0.049440
0.151110
0.085587
0.137008
0.089329
0.160014
0.133728
0.126417
0.102926
0.131431
0.064528
0.043471
0.096742
0.137787
0.159690
0.108669
0.154809
0.250117
0.241276
0.218978
0.253569
0.215532
0.255048
0.326934
0.287298
0.239141
0.341347
0.351742
0.370076
0.355794
0.381336
0.471690
0.425470
0.412528
0.421947
0.463456
0.485087
0.470716
0.536709
0.542229
0.480431
0.520101
0.523376
0.531165
0.508277
0.502484
0.516205
0.489601
0.553804
0.490671
0.536307
0.450172
0.441631
0.515654
0.402189
0.456413
0.404667
0.379247
0.360310
0.349906
0.297831
0.299502
0.254519
0.262994
0.265989
0.200310
0.232610
0.239323
0.177210
0.282218
0.162061
0.194594
0.121644
0.196940
0.171555
0.188239
0.153574
0.154238
0.155466
0.175643
0.159199
0.168658
0.180023
0.169398
0.134288
0.126688
0.063960
0.149880
0.165480
0.107911
0.134137
0.104463
0.149462
0.142309
0.103797
0.130758
0.081667
0.081666
0.118024
0.101820
0.127800
0.135655
0.120535
0.046300
0.089846
0.136925
0.065442
0.159236
0.073583
0.175947
0.125873
0.148172
0.189668
0.169689
0.112212
0.120079
0.088152
0.141724
0.037848
0.129938
0.156967
0.167174
0.058000
0.139452
0.062111
0.169249
0.111544
0.097273
0.131439
0.074948
0.082088
0.129009
0.065216
0.107351
0.179898
0.101941
0.139041
0.219016
0.119415
0.174767
0.115259
0.069575
0.065497
0.133772
0.093213
0.013150
0.096009
0.118574
0.134422
0.102386
0.111666
0.113843
0.112540
0.116049
0.121549
0.104228
0.129441
0.103676
0.095576
0.107582
0.091238
0.081153
0.132949
0.139546
0.110363
0.169880
0.126193
0.082387
0.150222
0.096477
0.072968
0.123440
0.059755
0.183023
0.190276
0.136056
0.136132
0.140981
0.202639
0.167607
0.172068
0.173031
0.184586
0.239406
0.172995
0.261360
0.216463
0.212365
0.220262
0.264239
0.274086
0.249316
0.284204
0.276779
0.261152
0.271393
0.185295
0.150439
0.250047
0.202551
0.224995
0.260076
0.271077
0.217150
0.231176
0.201869
0.183808
0.202456
0.136301
0.158265
0.172262
0.127821
0.070955
0.165116
0.142038
0.058373
0.113289
0.104150
0.087324
0.090347
0.107723
0.061152
0.128495
0.092585
0.100979
0.186911
0.125801
0.111284
0.091595
0.091447
0.012352
0.106281
0.129983
0.063826
0.072181
0.081244
0.041587
0.075068
0.066830
0.028886
0.006985
0.011387
0.140110
0.250166
0.520758
0.746838
1.098459
1.174796
1.276351
1.170839
1.065790
0.841944
0.410569
0.228144
0.019279
-0.141832
-0.264558
-0.198936
-0.153677
-0.037077
0.003688
0.050369
-0.017525
0.011001
0.133474
0.111323
0.104459
0.053146
0.101399
0.065965
0.062130
0.113907
0.095326
0.149357
0.100456
0.099044
0.124950
0.170009
0.041572
0.136993
0.139514
0.122752
0.192593
0.165945
0.119340
0.196621
0.129187
0.159530
0.115289
0.117352
0.170827
0.195506
0.234595
0.184316
0.224971
0.263923
0.219101
0.257587
0.354933
0.349458
0.328312
0.331164
0.308779
0.356845
0.397880
0.408833
0.438994
0.375270
0.517934
0.386262
0.575481
0.506136
0.550600
0.543439
0.484066
0.494399
0.501711
0.530259
0.479576
0.493764
0.437612
0.518007
0.475957
0.422824
0.460151
0.450426
0.447934
0.375763
0.395293
0.407831
0.386770
0.324695
0.318636
0.259743
0.256584
0.255683
0.195047
0.177565
0.144156
0.212284
0.159159
0.082683
0.177712
0.120379
0.115874
0.071820
0.189293
0.092946
0.094342
0.095214
0.148216
0.033524
0.092571
0.059069
0.109445
0.071733
0.080216
0.082994
0.046853
0.059583
0.070145
0.081520
0.064365
0.055577
0.065957
0.004955
0.026939
0.049591
0.064114
0.071180
0.106672
0.035891
0.156416
-0.025778
0.049078
0.050332
0.079799
0.020657
0.057937
0.059121
-0.021991
0.068045
0.082144
0.083326
0.108612
0.075107
0.034755
0.070068
0.086887
0.037946
0.059753
0.034028
0.046356
0.068370
0.035857
0.145473
0.009381
0.031737
0.062919
0.056604
0.105757
0.052294
0.052992
0.115261
0.101939
0.151847
0.069551
0.069407
0.084801
0.046343
0.089178
0.106349
0.042999
0.096318
0.029196
0.131283
0.068737
0.043170
-0.006826
0.106237
0.085793
0.001987
0.008335
0.071843
0.099857
0.090673
0.112027
0.061905
0.042977
0.115413
0.096347
0.035823
0.057647
0.102212
0.083774
0.035113
0.071201
0.028739
0.062552
0.114534
0.162995
0.042882
0.048258
0.023202
0.084777
0.045322
0.062021
0.151195
0.178714
0.084261
0.103722
0.046401
0.057371
0.182672
0.179488
0.160558
0.183382
0.164697
0.166996
0.199138
0.242590
0.171998
0.183563
0.206070
0.224652
0.190408
0.243904
0.261422
0.235491
0.171949
0.251695
0.222459
0.210930
0.147996
0.203616
0.207132
0.141319
0.103439
0.127571
0.181569
0.140298
0.193251
0.145610
0.075043
0.163499
0.028014
0.105664
0.041084
0.136858
0.116753
0.087957
0.083188
0.126593
0.091535
0.106800
0.099090
0.041189
0.101276
0.089505
0.034568
0.090000
0.081548
0.028972
0.143565
0.072794
0.080735
0.104336
0.104430
0.065286
0.070848
0.037006
0.080356
-0.028111
0.034204
-0.011810
0.100563
0.320293
0.498499
0.854516
1.133937
1.326668
1.316976
1.255203
0.970897
0.666842
0.452559
0.130761
0.046483
-0.149900
-0.179895
-0.158513
-0.091032
-0.029559
0.064099
0.010424
0.107960
0.110295
0.078565
0.157695
0.105344
0.142001
0.132516
0.163889
0.132964
0.060525
0.080297
0.185579
0.059028
0.066575
0.130425
0.130995
0.184740
0.117482
0.193417
0.148486
0.147254
0.158832
0.195257
0.163900
0.152036
0.135980
0.187962
0.221348
0.234035
0.144590
0.227063
0.229186
0.203355
0.277864
0.331244
0.248830
0.323691
0.355649
0.401767
0.371957
0.465851
0.459600
0.451321
0.406496
0.496784
0.445142
0.511191
0.488271
0.525473
0.577487
0.523490
0.557586
0.534421
0.475769
0.458763
0.512026
0.535339
0.569277
0.513691
0.602889
0.569855
0.547320
0.572495
0.469276
0.438621
0.480002
0.439238
0.397416
0.392809
0.414955
0.424619
0.391729
0.360778
0.346345
0.289032
0.294166
0.370874
0.303325
0.172891
0.270452
0.264318
0.216490
0.136649
0.215999
0.241096
0.213438
0.210683
0.230092
0.160374
0.252285
0.192143
0.167532
0.191556
0.139654
0.192112
0.181773
0.156869
0.151268
0.165599
0.104302
0.165710
0.172944
0.133167
0.138330
0.212838
0.159575
0.157553
0.147102
0.234091
0.119567
0.104335
0.166739
0.183256
0.170574
0.173215
0.175114
0.192087
0.118896
0.153142
0.144954
0.141023
0.150772
0.044546
0.169446
0.139359
0.175110
0.146943
0.211170
0.200496
0.190588
0.156615
0.143635
0.182327
0.185477
0.172407
0.256758
0.204570
0.184363
0.212227
0.189522
0.185151
0.148213
0.144606
0.228254
0.202450
0.195096
0.202609
0.170396
0.205467
0.233235
0.258611
0.188802
0.203748
0.221709
0.199811
0.192491
0.170798
0.199116
0.279526
0.200576
0.161839
0.180348
0.230421
0.200130
0.192227
0.266150
0.245831
0.267073
0.233291
0.208784
0.176737
0.226298
0.221503
0.225933
0.219353
0.208776
0.200637
0.141151
0.323680
0.167943
0.225148
0.169048
0.188195
0.209897
0.236061
0.208218
0.218200
0.252974
0.239170
0.254375
0.232533
0.329795
0.323110
0.274743
0.298858
0.339002
0.339481
0.322853
0.434249
0.436484
0.349704
0.414656
0.356862
0.396016
0.380836
0.441267
0.369090
0.433965
0.361795
0.406443
0.292134
0.345303
0.335023
0.386582
0.322575
0.241577
0.322693
0.270509
0.283023
0.256996
0.251710
0.282864
0.266681
0.235673
0.145874
0.266153
0.252891
0.268884
0.158840
0.227129
0.249213
0.264704
0.246214
0.218616
0.208227
0.170872
0.255347
0.212252
0.287813
0.196807
0.251402
0.205191
0.193005
0.250079
0.227536
0.253689
0.275349
0.205724
0.163730
0.250006
0.177200
0.144237
0.197644
0.269921
0.537674
0.798973
1.018570
1.296671
1.403410
1.429975
1.263522
0.968648
0.752926
0.527157
0.229366
0.097615
-0.131866
-0.040605
-0.036466
0.094716
0.166156
0.187845
0.235313
0.201266
0.256068
0.300945
0.246238
0.268563
0.298793
0.252696
0.243312
0.259238
0.247305
0.313812
0.264879
0.256696
0.216573
0.195800
0.206340
0.236032
0.296120
0.314528
0.274326
0.287166
0.269368
0.307706
0.288869
0.241537
0.294327
0.301304
0.326860
0.367890
0.378609
0.392962
0.348281
0.393054
0.386513
0.417918
0.431670
0.520316
0.483447
0.494957
0.505168
0.554432
0.521606
0.535744
0.541240
0.666549
0.587944
0.598934
0.650121
0.641089
0.634694
0.651669
0.629442
0.720471
0.684425
0.675770
0.632897
0.658590
0.666299
0.679699
0.619736
0.600127
0.624658
0.550271
0.616301
0.552667
0.536919
0.558981
0.514101
0.489673
0.530879
0.515630
0.463998
0.495991
0.446594
0.388843
0.412764
0.361831
0.302759
0.284244
0.331040
0.339490
0.303736
0.298640
0.331553
0.244635
0.345517
0.209636
0.292510
0.232664
0.252053
0.290448
0.264981
0.264410
0.267735
0.255353
0.249095
0.270078
0.188122
0.238128
0.253558
0.209145
0.241106
0.256935
0.236766
0.190171
0.209506
0.250850
0.204109
0.249166
0.279955
0.217045
0.201300
0.240056
0.240150
0.171128
0.208338
0.220231
0.244022
0.221939
0.246368
0.195807
0.297120
0.205188
0.225717
0.265435
0.243327
0.141294
0.250622
0.217235
0.225626
0.180357
0.252290
0.224078
0.217808
0.219340
0.230241
0.243354
0.208752
0.237441
0.158842
0.282037
0.210082
0.127305
0.230282
0.214332
0.190301
0.202267
0.203198
0.200867
0.175437
0.181151
0.178735
0.266989
0.295511
0.164197
0.210337
0.235618
0.234374
0.199596
0.257460
0.230639
0.209173
0.182318
0.210267
0.238457
0.253805
0.134722
0.189018
0.185080
0.174760
0.230431
0.252107
0.220987
0.220944
0.181406
0.151014
0.260525
0.243448
0.244361
0.166790
0.208758
0.215396
0.249343
0.161102
0.174547
0.304965
0.295084
0.233329
0.265990
0.281769
0.236017
0.262563
0.282440
0.305126
0.295992
0.307774
0.314730
0.328859
0.352839
0.238298
0.281268
0.360272
0.430417
0.312360
0.347843
0.366586
0.344153
0.260540
0.271195
0.300438
0.386092
0.244014
0.248886
0.286543
0.229180
0.285529
0.299300
0.205131
0.275477
0.216760
0.284127
0.144641
0.212462
0.203449
0.185969
0.179243
0.209085
0.186821
0.230672
0.172342
0.230280
0.192853
0.173942
0.199719
0.171633
0.144555
0.153541
0.163074
0.134829
0.185543
0.176056
0.260200
0.189024
0.131311
0.137486
0.154412
0.139570
0.179167
0.133052
0.099243
0.125349
0.096479
0.179587
0.304066
0.545478
0.801559
1.118692
1.313717
1.428515
1.347985
1.166294
0.915593
0.584214
0.320938
0.091198
-0.016735
-0.045221
-0.157750
-0.073546
0.015623
0.076877
0.068080
0.124754
0.202264
0.232502
0.175179
0.176780
0.202159
0.210290
0.196956
0.192530
0.213465
0.222993
0.138003
0.139105
0.178786
0.056266
0.160873
0.148320
0.179195
0.229332
0.187763
0.187049
0.226084
0.201982
0.198627
0.210073
0.218249
0.195939
0.275965
0.197244
0.244334
0.240255
0.273512
0.265925
0.312220
0.271481
0.341926
0.414154
0.303002
0.424532
0.439929
0.427880
0.457053
0.436873
0.534933
0.475830
0.511581
0.516196
0.585125
0.550972
0.600130
0.518571
0.571101
0.586648
0.571495
0.531617
0.637976
0.531779
0.528881
0.639278
0.544222
0.568955
0.560537
0.524271
0.517091
0.475419
0.509260
0.444195
0.417734
0.423229
0.511468
0.366249
0.386290
0.311287
0.343487
0.341403
0.289922
0.289653
0.247799
0.320735
0.258880
0.238555
0.294716
0.239327
0.152756
0.219750
0.121747
0.208653
0.160686
0.218221
0.194783
0.196983
0.097536
0.205228
0.091824
0.149608
0.174405
0.050096
0.211324
0.178990
0.120304
0.213969
0.123826
0.133940
0.131161
0.124555
0.145829
0.137952
0.147625
0.094162
0.123486
0.183765
0.135803
0.117631
0.151826
0.147026
0.114623
0.210333
0.162697
0.080593
0.138011
0.130627
0.256690
0.100532
0.181193
0.132482
0.153348
0.082530
0.146310
0.186955
0.094214
0.168752
0.089939
0.102402
0.131957
0.159880
0.137386
0.170303
0.133258
0.165738
0.163686
0.164565
0.093999
0.133898
0.112588
0.221324
0.120747
0.141168
0.098148
0.166973
0.121661
0.107988
0.159054
0.173526
0.078528
0.105661
0.202960
0.235539
0.111286
0.182804
0.107857
0.095205
0.188371
0.140734
0.061396
0.125858
0.119655
0.220182
0.157779
0.168195
0.076266
0.184380
0.173948
0.137957
0.138899
0.151559
0.202597
0.166514
0.153869
0.125550
0.182443
0.111490
0.155763
0.126752
0.215172
0.168615
0.165220
0.230804
0.211351
0.215647
0.155886
0.252494
0.256181
0.161504
0.310822
0.330941
0.238555
0.213457
0.279183
0.233216
0.301859
0.298575
0.287190
0.285876
0.320858
0.265622
0.350298
0.285165
0.296297
0.388628
0.229455
0.263208
0.339393
0.318335
0.323128
0.262961
0.263515
0.282666
0.194484
0.266240
0.165029
0.210375
0.214148
0.188569
0.194799
0.187271
0.178324
0.182527
0.150691
0.202511
0.140143
0.116247
0.172594
0.201897
0.199328
0.223678
0.240594
0.154898
0.165671
0.233476
0.213957
0.176271
0.182251
0.180482
0.124911
0.157970
0.179162
0.240456
0.188550
0.131422
0.190425
0.122281
0.032673
0.108978
0.183587
0.312899
0.612813
0.869798
1.110074
1.336284
1.442049
1.283136
1.124411
0.853477
0.530281
0.260631
0.103741
-0.015171
-0.091669
-0.025513
0.040397
0.017788
0.104328
0.151948
0.182145
0.070075
0.142517
0.223664
0.258016
0.205280
0.202295
0.175406
0.239541
0.205402
0.238926
0.133258
0.181113
0.155135
0.215918
0.177356
0.160374
0.210108
0.178736
0.186343
0.237407
0.285993
0.167300
0.264830
0.316872
0.265452
0.243515
0.304435
0.265477
0.397896
0.263265
0.362536
0.386646
0.424332
0.412371
0.418299
0.437389
0.537024
0.482676
0.457385
0.433885
0.508181
0.523707
0.475039
0.605401
0.575353
0.558051
0.621931
0.618390
0.592817
0.660292
0.597558
0.682889
0.634483
0.664673
0.687280
0.669784
0.610717
0.654587
0.612874
0.553156
0.600917
0.573421
0.623836
0.599658
0.578384
0.526825
0.524319
0.491858
0.470037
0.477308
0.481800
0.413233
0.361228
0.440518
0.407741
0.373302
0.408143
0.309836
0.398673
0.334604
0.333610
0.345674
0.308254
0.267360
0.234318
0.256443
0.269834
0.306349
0.268214
0.290333
0.257964
0.266994
0.287340
0.332576
0.206227
0.313047
0.208096
0.277378
0.294240
0.224206
0.267898
0.210443
0.191705
0.237439
0.270252
0.286841
0.266176
0.269020
0.217594
0.287357
0.219940
0.254155
0.228229
0.260537
0.240920
0.284117
0.218375
0.290640
0.221061
0.258039
0.265158
0.261514
0.244271
0.338587
0.245085
0.304986
0.276555
0.187051
0.280219
0.184230
0.201847
0.237305
0.223712
0.266682
0.247679
0.227055
0.251918
0.239992
0.251403
0.239128
0.226273
0.247893
0.246377
0.249162
0.272622
0.219071
0.241091
0.259497
0.311016
0.230795
0.202215
0.280230
0.343323
0.233988
0.239178
0.329731
0.274667
0.277350
0.289307
0.215666
0.272597
0.249493
0.243700
0.255735
0.300945
0.293189
0.193882
0.220863
0.164981
0.241761
0.226364
0.263240
0.239596
0.280978
0.285429
0.313558
0.350026
0.324644
0.255612
0.256127
0.247283
0.300173
0.294757
0.323675
0.327571
0.353552
0.321140
0.202724
0.303449
0.215539
0.314251
0.364203
0.335590
0.364777
0.415190
0.376028
0.418515
0.360200
0.333808
0.441669
0.417431
0.432070
0.431057
0.325011
0.440204
0.411781
0.473041
0.493749
0.451580
0.422866
0.408863
0.405950
0.441374
0.332607
0.332705
0.380607
0.347614
0.334664
0.365271
0.296679
0.318812
0.275284
0.262132
0.265617
0.329876
0.243350
0.232486
0.304607
0.257884
0.302360
0.282010
0.260718
0.256827
0.283859
0.305718
0.355785
0.322036
0.261984
0.222330
0.263114
0.235694
0.269937
0.266997
0.271019
0.262990
0.266600
0.264771
0.239665
0.194569
0.184094
0.190982
0.166120
0.337405
0.469348
0.753261
1.054570
1.321726
1.488296
1.424151
1.404797
1.081683
0.829076
0.609144
0.282281
0.077148
0.028919
-0.010257
0.068392
0.088884
0.147746
0.228674
0.201250
0.273501
0.251162
0.267573
0.262549
0.316883
0.272587
0.343649
0.294331
0.276186
0.235938
0.272509
0.217830
0.328281
0.273425
0.279801
0.238479
0.257034
0.271105
0.280640
0.293977
0.314525
0.306862
0.382734
0.256224
0.360795
0.338592
0.247028
0.374432
0.324058
0.339936
0.360698
0.359076
0.407292
0.380127
0.388466
0.471831
0.437867
0.463243
0.456569
0.506782
0.561406
0.559540
0.543071
0.568791
0.634654
0.626880
0.567928
0.574968
0.647144
0.737384
0.668866
0.666147
0.626386
0.663592
0.667495
0.724891
0.577061
0.679762
0.633315
0.637426
0.630678
0.613143
0.615434
0.573964
0.636355
0.590687
0.598938
0.504929
0.528222
0.507556
0.565504
0.499383
0.391597
0.442721
0.429025
0.361150
0.389696
0.310291
0.314609
0.320393
0.324210
0.409681
0.338896
0.326907
0.362739
0.338604
0.219462
0.236584
0.340932
0.235331
0.264855
0.247663
0.265641
0.200888
0.176874
0.191909
0.274109
0.265363
0.278681
0.238716
0.252242
0.272752
0.213979
0.248496
0.273362
0.239112
0.224628
0.242104
0.288713
0.195905
0.247288
0.279147
0.208046
0.262319
0.227115
0.269383
0.239334
0.272656
0.279797
0.267951
0.248090
0.305871
0.235113
0.216432
0.182257
0.213246
0.210341
0.207405
0.216437
0.191611
0.222704
0.282139
0.234569
0.245547
0.236028
0.196780
0.215776
0.237634
0.206475
0.210325
0.289679
0.235781
0.189581
0.220749
0.231454
0.168536
0.094749
0.174328
0.180081
0.269325
0.171864
0.252322
0.187550
0.204422
0.210918
0.216554
0.239997
0.232578
0.257046
0.255029
0.199866
0.206247
0.205120
0.218868
0.211791
0.261028
0.148056
0.155831
0.176495
0.234780
0.276808
0.147875
0.281835
0.195512
0.161804
0.260049
0.190354
0.130366
0.235346
0.151604
0.178157
0.202525
0.216198
0.217304
0.188157
0.210859
0.279827
0.244660
0.219408
0.220349
0.284315
0.242048
0.239898
0.317394
0.280194
0.251476
0.379882
0.281964
0.315458
0.292267
0.275063
0.306271
0.273502
0.295444
0.319045
0.382639
0.309566
0.321984
0.260938
0.273401
0.314526
0.245522
0.231703
0.171536
0.239719
0.262093
0.250173
0.256241
0.254599
0.230206
0.178082
0.241639
0.156825
0.283825
0.257437
0.150540
0.209628
0.190292
0.123598
0.160199
0.166602
0.177644
0.246893
0.184156
0.217599
0.139576
0.213522
0.127633
0.201528
0.141283
0.163700
0.150568
0.191813
0.199681
0.145269
0.196996
0.197859
0.145380
0.134480
0.093914
0.096213
0.121196
0.177158
0.318652
0.382384
0.756457
0.984049
1.288366
1.426708
1.364284
1.152891
0.922326
0.643036
0.373092
0.127810
0.065768
-0.032183
-0.147641
-0.075965
-0.000498
0.095484
0.103298
0.232774
0.126210
0.177048
0.161802
0.116310
0.090792
0.130170
0.174337
0.147762
0.195165
0.165510
0.115536
0.217150
0.121919
0.224576
0.208946
0.212192
0.194882
0.206732
0.234134
0.253554
0.223032
0.153390
0.227044
0.247381
0.232552
0.235600
0.195512
0.242165
0.256329
0.309330
0.224123
0.356316
0.366250
0.320232
0.287186
0.327403
0.427634
0.421011
0.396544
0.416019
0.395365
0.442657
0.550887
0.497962
0.494478
0.511198
0.529575
0.585213
0.541589
0.573576
0.588062
0.628264
0.589918
0.570156
0.547379
0.590513
0.649559
0.621464
0.551903
0.578515
0.505963
0.523077
0.574739
0.567119
0.485803
0.516886
0.484219
0.453945
0.424231
0.403567
0.433087
0.374299
0.359224
0.304110
0.424115
0.322003
0.280825
0.274156
0.258349
0.298624
0.276468
0.269322
0.232524
0.269160
0.231252
0.231698
0.136972
0.158204
0.234915
0.167539
0.143068
0.200773
0.216005
0.172144
0.192242
0.156358
0.161168
0.190560
0.167659
0.172007
0.156565
0.184732
0.159024
0.216496
0.151724
0.149136
0.163736
0.121607
0.137795
0.194424
0.198277
0.157704
0.221530
0.157050
0.276407
0.200263
0.225775
0.212823
0.218773
0.165376
0.221482
0.148344
0.174909
0.187532
0.210406
0.244423
0.166876
0.150262
0.136617
0.199384
0.193246
0.190089
0.171631
0.125775
0.230783
0.139078
0.200764
0.193254
0.185953
0.124707
0.198886
0.180450
0.267325
0.212276
0.205668
0.184103
0.166825
0.195399
0.130052
0.196923
0.164369
0.201781
0.176369
0.118469
0.169480
0.215854
0.146045
0.167120
0.155260
0.208535
0.148354
0.193984
0.139654
0.194152
0.193002
0.226003
0.224201
0.193636
0.117792
0.162836
0.186121
0.194924
0.185781
0.197421
0.191234
0.158454
0.174774
0.192127
0.243602
0.132028
0.193570
0.199233
0.166346
0.212334
0.272072
0.260793
0.292386
0.257868
0.210050
0.227308
0.262109
0.335248
0.296214
0.291994
0.374225
0.297273
0.335480
0.307221
0.336027
0.337189
0.288873
0.344198
0.366678
0.352128
0.365536
0.394214
0.303874
0.376432
0.336163
0.357391
0.281927
0.323239
0.313268
0.348572
0.269887
0.217815
0.265441
0.285110
0.236379
0.266907
0.213695
0.211963
0.300747
0.252926
0.295773
0.288377
0.213519
0.276746
0.230633
0.193131
0.246324
0.210835
0.285092
0.283407
0.152448
0.262030
0.225413
0.204975
0.234002
0.218435
0.190900
0.257803
0.220553
0.245124
0.193999
0.246762
0.210169
0.230862
0.145751
0.150461
0.146573
0.231298
0.248786
0.389910
0.634999
0.912008
1.221304
1.354982
1.500000
1.365675
1.141959
0.913307
0.675569
0.447624
0.219472
0.063904
-0.071619
-0.012888
-0.000559
0.103769
0.157872
0.175344
0.196645
0.236339
0.229895
0.262290
0.279253
0.285593
0.305546
0.266670
0.232904
0.229576
0.203180
0.279172
0.249647
0.203926
0.277874
0.293204
0.305094
0.253007
0.306854
0.292989
0.301183
0.307957
0.222476
0.365249
0.321760
0.327959
0.347797
0.415545
0.321370
0.355241
0.405747
0.403191
0.403311
0.439365
0.455407
0.413819
0.461847
0.473649
0.492605
0.485073
0.582442
0.515231
0.569328
0.684593
0.598792
0.666311
0.634419
0.636563
0.628233
0.720238
0.697305
0.683491
0.683920
0.708127
0.643500
0.699503
0.714092
0.702428
0.720782
0.672238
0.641601
0.657331
0.631078
0.642243
0.610548
0.593656
0.627555
0.550905
0.588535
0.555917
0.522383
0.444987
0.442434
0.457804
0.435198
0.383638
0.461333
0.476448
0.395195
0.351293
0.434456
0.350878
0.333958
0.386665
0.317045
0.345223
0.365484
0.317171
0.329005
0.234911
0.266855
0.289501
0.309818
0.302774
0.225662
0.226822
0.292278
0.386040
0.262751
0.293533
0.262006
0.238255
0.252425
0.318616
0.339512
0.279762
0.275281
0.311203
0.276130
0.309250
0.310136
0.302312
0.267024
0.339760
0.265402
0.331275
0.287604
0.176688
0.266081
0.294731
0.273641
0.265118
0.264283
0.296648
0.244752
0.273570
0.238688
0.300802
0.286940
0.276895
0.243256
0.262254
0.297054
0.323479
0.365517
0.272621
0.262090
0.279998
0.364163
0.297218
0.343310
0.320755
0.310091
0.270062
0.287735
0.309117
0.245004
0.285636
0.318305
0.328183
0.375413
0.311889
0.288601
0.306444
0.326543
0.260992
0.331666
0.240167
0.297594
0.265211
0.324378
0.271858
0.307745
0.327520
0.287649
0.330196
0.255483
0.266583
0.294313
0.306130
0.294118
0.257387
0.258429
0.292766
0.349430
0.330071
0.341418
0.259290
0.331019
0.376111
0.254816
0.257193
0.307761
0.315770
0.355082
0.363399
0.334759
0.308655
0.309653
0.337831
0.348683
0.348148
0.374375
0.373905
0.407335
