0.035768
0.053653
0.057216
0.010006
-0.015208
0.011623
-0.035088
-0.033859
0.022699
-0.023416
-0.002507
0.072408
-0.000249
-0.013885
0.006820
0.031126
0.015549
0.086589
-0.016678
-0.012018
0.014855
0.024206
0.089617
-0.042011
-0.020061
0.033235
0.078212
0.066839
0.067547
0.058087
0.044554
0.003166
0.072178
0.045741
0.101881
0.090828
0.106978
0.148952
0.197734
0.086749
0.166853
0.099828
0.121964
0.106771
0.227486
0.198793
0.137331
0.250993
0.228017
0.193406
0.247230
0.252523
0.190863
0.170272
0.177589
0.131437
0.180901
0.102277
0.190940
0.202155
0.087469
0.156566
0.066652
0.178472
0.003807
0.141519
0.093262
0.161647
0.112699
0.179107
0.032414
0.053017
0.122545
0.071763
0.119009
0.039815
0.075088
0.056324
0.086408
0.045744
0.046715
0.050980
0.036654
0.087764
0.029788
0.108716
0.053600
0.158780
0.054103
0.023634
0.010873
0.029185
-0.050684
-0.093033
0.057303
0.164226
0.500288
0.734146
1.193253
1.302738
1.500000
1.420245
1.195421
0.913371
0.585743
0.239571
-0.066931
-0.156968
-0.257105
-0.254844
-0.248727
-0.032972
-0.061356
0.080191
0.157775
0.129594
0.059364
0.081882
0.130665
0.116265
0.060273
0.065452
0.108038
0.077965
0.053018
0.139434
0.042742
0.141698
0.118093
0.211183
0.089402
0.162365
0.106040
0.280454
0.113846
0.212440
0.172919
0.150553
0.302863
0.239726
0.238837
0.313943
0.275070
0.360071
0.369864
0.363461
0.322654
0.291349
0.403470
0.383937
0.394259
0.426333
0.477517
0.450247
0.529744
0.478389
0.571297
0.635486
0.629341
0.526574
0.488751
0.594282
0.553158
0.547679
0.597180
0.658472
0.551872
0.535290
0.607787
0.579351
0.574301
0.528472
0.519122
0.509047
0.484076
0.488182
0.390367
0.451189
0.396250
0.309676
0.291112
0.292266
0.321368
0.316535
0.312588
0.280929
0.262123
0.212054
0.203080
0.120315
0.221265
0.231101
0.163457
0.171075
0.142348
0.133221
0.215899
0.133412
0.152458
0.063454
0.164904
0.165599
0.144537
0.058784
0.078631
0.049719
0.179479
0.066702
0.065676
0.078729
0.113703
0.125941
0.016086
0.076631
0.125337
0.079034
0.100803
0.081114
0.091862
0.043058
0.138953
0.065255
0.126315
0.134506
0.066716
0.136940
0.085698
0.108535
0.108632
0.137817
0.019259
-0.010552
0.082582
0.083997
0.128499
0.161526
0.060077
0.104670
0.096749
0.078444
0.070065
0.088214
0.099270
0.153646
0.112018
0.055883
0.129008
0.061896
0.062713
0.105569
0.165803
0.098392
0.195030
0.071917
0.159180
0.102896
0.049385
0.095726
0.042768
0.137868
0.043046
0.030484
0.132622
0.084904
0.067769
0.069655
-0.041655
0.043838
0.088820
0.077806
0.102784
0.133366
0.026510
0.137772
0.153118
0.144386
0.018302
0.040308
0.144263
0.070957
0.004184
0.093606
0.119989
0.077611
0.108312
0.209596
0.213233
0.168642
0.114734
0.163922
0.182419
0.102149
0.155710
0.211387
0.217500
0.267773
0.252185
0.177297
0.182393
0.301385
0.247068
0.170343
0.141593
0.256576
0.236758
0.257929
0.266907
0.218006
0.179103
0.163293
0.234957
0.142765
0.153635
0.091917
0.163897
0.064852
0.101740
0.054935
0.097555
0.071011
0.092170
0.017585
0.027167
0.058232
0.031491
0.056575
0.077594
-0.004173
0.181636
0.072009
0.072393
0.004122
0.029080
0.031638
0.097558
0.052499
0.025255
0.045002
0.044019
0.005148
-0.005316
-0.003652
0.015145
-0.024396
-0.005531
0.196963
0.426088
0.821557
1.095992
1.322131
1.456818
1.357722
1.215458
0.784720
0.533661
0.190597
-0.070576
-0.230555
-0.415532
-0.291968
-0.200517
-0.084856
-0.097960
-0.075241
0.014227
0.042654
0.020907
0.128877
0.072954
0.036898
0.028454
-0.046059
-0.004837
0.064324
0.121170
0.017952
0.011432
-0.017587
0.060614
0.076565
0.046435
0.080987
0.068226
0.054796
0.085090
0.079221
0.130945
0.191669
0.144474
0.202518
0.233291
0.193139
0.247517
0.259699
0.235061
0.259907
0.317214
0.287018
0.317429
0.362779
0.328894
0.508699
0.458971
0.404122
0.470255
0.510114
0.471828
0.592968
0.445776
0.505382
0.460299
0.531872
0.496310
0.604747
0.487568
0.523187
0.524832
0.502567
0.490876
0.526446
0.437554
0.461203
0.385987
0.378024
0.497352
0.380682
0.285846
0.299601
0.276500
0.273856
0.271079
0.254231
0.175683
0.217315
0.137563
0.132082
0.093543
0.076522
0.160891
0.068912
0.109121
-0.000365
0.120979
0.058654
0.027313
-0.002210
0.043271
-0.017456
0.002932
0.018015
-0.041653
-0.004733
0.035271
0.080636
-0.036837
-0.034516
-0.096315
-0.011911
-0.001371
-0.002213
-0.036926
-0.048039
-0.123707
-0.037763
-0.073604
-0.001774
-0.074953
-0.004999
0.006152
-0.002988
-0.024893
0.023465
0.007806
-0.090735
-0.093415
-0.045771
-0.033340
-0.085422
-0.100237
-0.039312
-0.004145
-0.028060
-0.018484
-0.019728
-0.046725
0.076852
-0.047950
-0.054529
0.009816
-0.056000
-0.056457
-0.048915
-0.079564
0.001413
-0.044671
0.013466
-0.109291
-0.017917
-0.024690
0.022601
0.077223
-0.076032
-0.022364
-0.065679
0.012826
-0.054328
-0.042631
-0.029429
-0.004936
-0.059724
-0.101571
-0.032874
-0.046557
0.064020
0.001744
-0.058128
-0.067592
-0.069309
0.007743
-0.034606
-0.050042
-0.038560
-0.004426
-0.101950
-0.033145
0.010480
-0.059721
-0.032274
0.013136
0.073506
-0.003000
0.042666
0.003392
-0.017230
0.037627
-0.054112
-0.029435
0.053376
0.011927
0.124934
0.052303
0.033125
0.053593
0.116422
0.147175
0.076485
0.177104
0.176614
0.117820
0.127374
0.173829
0.113244
0.089378
0.116633
0.157368
0.084140
0.093026
0.083021
0.176871
0.082371
0.139137
0.024507
0.031066
0.084589
0.054974
0.053767
0.127053
0.080468
-0.026611
-0.051849
-0.026130
-0.058257
-0.087364
-0.003851
-0.017441
-0.027813
-0.059350
-0.037001
-0.048570
-0.037002
0.073025
-0.007213
-0.039314
-0.125168
-0.072014
-0.063731
-0.031982
-0.081776
-0.092685
-0.006925
-0.038156
-0.112578
-0.134874
-0.124271
-0.025230
0.066525
0.303979
0.757101
1.011433
1.340674
1.451775
1.322537
1.085210
0.738488
0.461482
0.017954
-0.156839
-0.373604
-0.359281
-0.310620
-0.323006
-0.218126
-0.205793
-0.142936
-0.007576
-0.137150
-0.081935
-0.078657
-0.100347
-0.015521
-0.057205
-0.059666
0.032162
-0.039867
0.002274
-0.000617
-0.042490
-0.048354
-0.070820
0.015471
-0.000577
-0.014022
0.094252
0.091151
0.089315
-0.003358
0.086813
0.124635
0.102422
0.172990
0.076063
0.142831
0.150846
0.164895
0.109204
0.230760
0.209582
0.309051
0.246357
0.312302
0.319499
0.329564
0.250188
0.352553
0.380101
0.344033
0.574720
0.509907
0.480155
0.409298
0.485008
0.490114
0.474211
0.437909
0.407951
0.515544
0.438104
0.474874
0.470920
0.455976
0.410283
0.406980
0.403329
0.348823
0.389512
0.369609
0.252194
0.324283
0.312352
0.304765
0.299675
0.146962
0.225218
0.233124
0.074940
0.229300
0.205729
0.214578
0.097620
0.177672
0.167195
0.054860
0.151650
0.010366
0.041153
-0.020936
0.068674
0.037372
0.080432
0.069869
0.048647
-0.043496
-0.043412
-0.051395
0.000580
0.065696
0.023774
-0.021832
0.008770
0.037740
0.015510
0.036959
-0.004153
0.031858
0.004566
-0.031911
0.036193
-0.013726
0.005431
0.021506
-0.012898
-0.032157
-0.008796
0.037557
0.045366
0.005397
-0.020220
0.017946
-0.041998
-0.031905
-0.014070
-0.043833
0.039792
-0.014847
-0.020468
-0.036813
-0.039842
0.004957
0.039787
0.000814
-0.019076
-0.039769
0.067992
-0.011293
-0.012238
-0.046635
0.034691
0.035946
0.010520
0.026679
0.064617
-0.009811
0.010605
0.038969
0.020582
0.134437
0.034646
-0.027493
0.003201
-0.042439
0.019900
0.052711
-0.020552
0.043228
0.072659
0.020545
0.058526
0.025067
-0.014969
0.093053
0.063375
-0.057880
0.040520
0.014940
0.067563
0.080446
0.044572
0.019868
0.075860
-0.013486
0.043396
0.088115
0.055957
0.126747
0.095481
0.075953
0.003696
0.184756
0.205225
0.166588
0.158870
0.203011
0.300643
0.273276
0.192021
0.279289
0.245277
0.298986
0.268949
0.237823
0.219547
0.225058
0.132522
0.190838
0.207609
0.203536
0.204771
0.190440
0.166379
0.229786
0.156629
0.203287
0.092195
0.137114
0.143599
0.109089
0.090178
0.178574
0.078863
0.139818
-0.008908
0.083227
0.046263
0.035645
0.062181
0.046588
0.065599
0.057155
0.042692
0.073233
0.054714
0.116326
0.085297
0.065435
0.055035
0.028883
0.108887
0.084102
0.067363
0.040722
0.005253
0.041698
0.053565
-0.055621
0.064381
0.275006
0.421719
0.834000
1.100067
1.385694
1.451337
1.366592
1.201024
0.941673
0.493093
0.251396
-0.073964
-0.241257
-0.161717
-0.212721
-0.234777
-0.027619
-0.004553
0.003026
0.138652
0.123014
0.138969
0.127145
0.089097
0.090723
-0.005944
0.076929
0.127156
0.108613
0.092436
0.135628
0.058027
0.195741
0.111286
0.176950
0.090526
0.094670
0.113444
0.132630
0.190409
0.152018
0.286729
0.200603
0.231358
0.274974
0.169468
0.263385
0.303730
0.316968
0.371448
0.417496
0.419762
0.435211
0.389906
0.469331
0.473877
0.463844
0.504605
0.410834
0.536007
0.553202
0.550619
0.576109
0.565938
0.591704
0.609867
0.558247
0.569351
0.610555
0.609425
0.585256
0.584116
0.593614
0.554143
0.613765
0.580901
0.571459
0.552409
0.544432
0.463220
0.400109
0.478826
0.404844
0.361673
0.350412
0.349951
0.331222
0.295738
0.213376
0.259873
0.251872
0.267747
0.154773
0.251241
0.161888
0.169323
0.134518
0.266816
0.171732
0.187094
0.167983
0.078060
0.181497
0.040408
0.170749
0.130664
0.079707
0.131539
0.042296
0.099794
0.119265
0.007656
0.108988
0.079953
0.102245
0.048347
0.113275
0.085021
0.073124
0.087172
0.019828
0.193207
0.099324
0.093833
0.126583
0.096446
0.196944
0.052182
0.092885
0.033754
0.129516
0.015841
0.099235
0.037902
0.156983
0.150290
0.150110
0.128789
0.068091
0.052682
0.121581
0.128181
0.074063
0.126336
0.118473
0.044902
0.115191
0.017384
0.142366
0.086795
0.145720
0.145291
0.037114
0.110073
0.154899
0.079909
0.134063
0.111730
0.120416
0.116150
0.031535
0.039423
0.047108
0.025900
0.070819
0.047329
0.171429
0.096259
0.041624
0.139352
0.052765
0.062970
0.138461
0.037739
0.096320
0.092196
0.108959
0.023834
0.071046
0.107491
0.150248
0.076558
0.050947
0.101354
0.075962
0.088848
0.102006
0.150643
0.125861
0.099407
0.099851
0.147424
0.156776
0.123575
0.173349
0.218580
0.240253
0.183510
0.203041
0.203687
0.234088
0.184281
0.194313
0.261298
0.276094
0.308732
0.221274
0.284213
0.265116
0.149755
0.251688
0.203708
0.207353
0.210182
0.096350
0.188899
0.246543
0.090631
0.068181
0.142235
0.092690
0.133735
0.024190
0.108825
0.012750
0.134906
-0.012094
0.087822
0.108191
0.058611
0.046586
0.133875
0.060660
0.072039
0.092649
0.059627
-0.038904
0.101018
0.051770
0.009884
0.000848
0.020749
0.077961
0.039248
-0.041849
-0.034146
0.016323
-0.078615
-0.090641
-0.017548
0.129635
0.473448
0.784957
1.075715
1.372796
1.416004
1.409610
1.160855
0.898550
0.472492
0.176023
-0.061837
-0.304359
-0.276576
-0.251273
-0.283592
-0.042855
-0.092828
-0.008057
-0.005704
-0.006419
-0.039986
0.037194
-0.008643
0.025570
0.129995
0.051506
-0.018987
-0.010681
-0.036997
0.019150
0.063350
0.046499
-0.048622
0.052912
0.113599
0.102859
0.026070
0.128744
0.151593
0.076099
0.160439
0.151039
0.170552
0.122936
0.164476
0.248578
0.190359
0.181693
0.242681
0.275396
0.303436
0.345118
0.417642
0.368958
0.398958
0.359284
0.299153
0.360621
0.395353
0.415276
0.503764
0.523530
0.458572
0.515589
0.493403
0.441097
0.398274
0.501426
0.472063
0.499763
0.502196
0.449077
0.451452
0.428225
0.427021
0.464353
0.468510
0.407044
0.314431
0.285635
0.410858
0.374272
0.288154
0.226780
0.295824
0.283161
0.179389
0.176385
0.120787
0.175514
0.139914
0.074172
0.120636
0.135777
0.111500
0.078846
0.064280
0.016840
-0.018311
0.025127
-0.004457
0.031238
0.070377
0.031883
0.065475
0.032011
0.025585
-0.027901
-0.084350
-0.011918
-0.028253
0.036919
-0.095705
-0.052253
-0.005066
-0.055592
-0.085181
-0.007192
-0.035201
-0.090936
-0.075315
-0.015498
-0.066520
-0.011904
-0.052827
-0.122063
-0.154075
-0.094382
-0.024865
-0.080137
-0.067039
-0.102283
0.001822
-0.052773
-0.045223
-0.048794
-0.090847
-0.107796
-0.119035
-0.111753
-0.046815
-0.054727
-0.073977
-0.066076
0.009734
-0.045588
-0.081931
-0.046277
-0.042792
-0.141845
-0.085704
-0.028443
-0.087336
-0.065466
-0.085169
-0.047834
-0.053779
-0.039367
-0.099863
-0.061782
-0.051588
-0.004918
-0.080962
-0.062660
0.010822
0.077929
-0.061813
-0.009508
-0.069520
-0.025034
-0.023031
-0.050855
-0.090772
-0.066836
-0.066536
-0.081071
-0.028050
-0.131261
-0.051801
-0.024087
0.024849
-0.089357
-0.107192
-0.079717
-0.017337
-0.026515
-0.073164
0.035429
0.001878
0.019241
-0.011799
0.019038
-0.001784
0.038147
0.037114
0.048722
0.050210
-0.000142
0.036708
0.053750
0.092495
0.093806
0.171057
0.097618
0.112300
0.064725
0.052953
0.096665
0.081830
0.079810
0.119598
0.032288
0.043072
0.022982
0.025188
0.062906
0.046274
-0.039788
-0.010578
-0.033896
-0.005476
-0.036184
0.020294
-0.090626
0.010665
-0.064594
0.013852
-0.118433
-0.109324
-0.103489
-0.089300
-0.079961
-0.012853
-0.113786
-0.077300
-0.041458
-0.070131
-0.068943
-0.079869
-0.113371
-0.146926
-0.057565
-0.133843
-0.051008
-0.084233
-0.054383
-0.135046
-0.202878
-0.063875
0.013283
0.349885
0.596324
0.961709
1.234462
1.333369
1.288091
1.142128
0.712586
0.427057
0.019315
-0.160582
-0.308704
-0.383153
-0.366230
-0.310969
-0.269157
-0.181848
-0.183315
-0.097679
-0.074488
-0.102763
-0.087914
-0.021324
-0.063168
-0.124689
-0.055646
0.016478
-0.105457
-0.113308
-0.033433
-0.040614
-0.092091
-0.053356
-0.099870
-0.013664
-0.063501
0.017230
-0.004531
-0.040175
0.062499
0.025335
0.024380
0.082185
0.067046
0.109448
0.116383
0.130713
0.154884
0.133666
0.199923
0.189157
0.198892
0.255662
0.342698
0.274856
0.302990
0.351073
0.367068
0.362379
0.425046
0.434176
0.411890
0.424081
0.394402
0.450625
0.499535
0.417200
0.422648
0.449416
0.366114
0.427034
0.484904
0.491009
0.458342
0.264651
0.402577
0.356966
0.324100
0.311909
0.308284
0.310030
0.327131
0.227598
0.221208
0.260080
0.166219
0.086824
0.181470
0.210097
0.083160
0.060846
0.092775
0.078158
0.039977
-0.013490
-0.003576
0.002323
0.006942
0.039782
0.029731
0.016990
-0.081016
-0.065246
0.016844
-0.018189
-0.097704
-0.046149
-0.080352
-0.020899
-0.105090
-0.010701
0.008296
-0.042758
-0.074672
-0.019370
-0.039418
-0.087456
-0.100280
-0.110924
-0.055240
-0.005060
-0.089056
-0.142963
-0.051056
-0.118828
-0.044417
-0.041110
0.012965
-0.054980
0.048932
0.025122
0.041057
-0.022102
0.006009
-0.084733
0.032250
-0.045461
-0.119450
-0.043483
-0.033693
-0.134930
-0.058898
-0.093104
-0.030133
-0.053637
-0.077275
0.080515
-0.055824
-0.004203
-0.043668
0.089709
-0.048828
-0.025564
-0.000857
-0.022634
-0.015737
0.010170
-0.009268
-0.059630
-0.046261
0.032271
-0.044887
-0.029958
-0.011331
-0.032836
-0.014091
0.011046
-0.041620
-0.109168
-0.063866
-0.054881
0.001270
0.064935
-0.023597
-0.060892
-0.094586
0.044677
-0.001692
0.005500
-0.019159
-0.012753
0.051064
0.017987
-0.048828
0.069377
0.033447
-0.063048
0.064179
0.017661
0.043900
0.119551
0.034687
0.034329
0.082742
0.041714
0.103705
0.170735
0.109190
0.128456
0.169528
0.228294
0.202755
0.231860
0.151974
0.212033
0.213374
0.181455
0.212099
0.218464
0.223712
0.185154
0.151093
0.181519
0.083015
0.150016
0.070200
0.063239
0.039884
0.126473
0.103007
0.054213
0.053578
0.102203
0.066573
0.048684
0.035138
0.063257
0.042517
-0.013220
0.058918
0.066470
-0.022271
0.042159
0.096582
0.060665
0.030297
-0.012161
-0.014317
0.048173
0.042730
0.019681
0.045272
-0.083503
0.073429
-0.016301
0.008878
-0.020174
-0.052721
0.013502
0.246453
0.457440
0.794080
1.071071
1.370631
1.447589
1.389398
1.137060
0.747977
0.454527
0.200365
-0.088456
-0.242579
-0.321160
-0.269069
-0.269861
-0.140474
-0.132763
-0.042412
0.016694
0.003146
0.030506
0.075280
0.024649
0.075394
0.007625
0.070774
-0.016314
-0.020202
0.081585
0.055614
0.119430
0.057572
0.080146
0.045630
0.148785
0.185458
0.098134
0.120213
0.037354
0.084758
0.165010
0.119466
0.082851
0.256161
0.142339
0.160162
0.171359
0.223217
0.256815
0.382292
0.269000
0.300609
0.386218
0.366710
0.442566
0.367075
0.452088
0.437891
0.469724
0.421055
0.555442
0.510634
0.563220
0.532823
0.582743
0.490624
0.564693
0.577436
0.590044
0.506228
0.563254
0.571685
0.483545
0.444752
0.468456
0.500503
0.417310
0.500054
0.360976
0.457289
0.397528
0.382897
0.360797
0.365430
0.376470
0.287129
0.280100
0.218458
0.221025
0.195244
0.161760
0.150591
0.154291
0.133867
0.070815
0.180437
0.155869
0.077059
0.094705
0.053725
0.102026
0.071923
0.116536
0.071859
0.066991
0.140783
-0.001957
0.028434
0.058757
0.055111
0.027980
0.076407
0.046465
0.025049
0.064271
0.053018
-0.018410
0.100926
0.132533
0.130269
0.071693
0.126197
0.021730
0.030670
-0.019485
0.057921
0.072938
0.077859
0.016962
0.043097
0.071821
0.110133
0.038990
-0.032847
0.048890
-0.020950
0.009304
0.031583
0.082097
0.041321
0.057612
0.020209
0.014360
0.033463
-0.030799
0.038282
-0.006918
0.110243
-0.005519
0.012389
-0.067853
0.122279
0.085827
0.061626
0.054840
-0.052442
0.034726
-0.042681
-0.012578
-0.010049
0.030736
0.042568
0.076494
0.037554
0.010698
0.113499
-0.003532
0.075544
0.025134
0.002627
0.055570
0.084363
0.045816
0.112955
0.084818
-0.007002
0.018433
0.021145
0.023504
0.006745
0.039245
0.035405
0.052935
0.066461
0.160096
0.048974
-0.000155
0.045587
0.053631
0.149749
0.063894
0.135147
0.102892
0.147454
0.147794
0.181570
0.163860
0.136525
0.153475
0.182062
0.287081
0.239491
0.188294
0.232718
0.192803
0.186432
0.157446
0.250990
0.260759
0.157544
0.153677
0.136886
0.156534
0.133349
0.128258
0.067813
0.129533
0.146442
0.023667
0.063164
0.033779
0.086912
0.060698
0.034081
0.050338
-0.016920
-0.028273
0.016086
0.097923
0.024243
-0.038803
-0.028012
-0.010502
-0.002540
0.039859
0.035238
-0.022963
0.012505
-0.013604
0.020282
0.013645
-0.005812
-0.067752
0.047653
-0.003891
-0.044827
-0.098206
0.003222
0.014935
0.153494
0.392432
0.715972
0.990758
1.326173
1.423459
1.409566
1.091185
0.828657
0.367930
0.133078
-0.072756
-0.385249
-0.302657
-0.338254
-0.287710
-0.133282
-0.028795
-0.056178
0.009261
-0.053610
0.070453
-0.056326
0.058510
-0.058032
0.074832
-0.058295
-0.025538
-0.086324
0.066454
0.061576
-0.009296
0.033454
0.017527
0.047558
0.082294
0.079301
0.021911
0.104504
0.040892
0.186560
0.059020
0.175674
0.127768
0.179489
0.063964
0.120577
0.207373
0.165045
0.213642
0.225641
0.216432
0.273544
0.317653
0.337172
0.382795
0.287460
0.417738
0.407464
0.440743
0.449895
0.284035
0.451745
0.415076
0.408844
0.513694
0.479317
0.441806
0.466979
0.458226
0.452789
0.452210
0.403413
0.440343
0.354204
0.386391
0.452765
0.378563
0.367872
0.356101
0.235433
0.279902
0.241227
0.220782
0.224166
0.206007
0.216060
0.224839
0.110684
0.183323
0.082511
0.084162
0.054572
0.103239
0.103845
0.104377
-0.029191
0.029040
0.015570
0.029057
-0.011869
0.057202
0.015511
0.061208
-0.026354
0.029862
-0.005014
-0.022217
0.033992
-0.126770
-0.041124
-0.114050
-0.052218
-0.127924
-0.114701
-0.023855
-0.074300
-0.112561
-0.129648
-0.161013
-0.011531
0.004471
-0.102300
-0.072448
-0.039648
-0.074532
-0.099543
-0.075454
0.015991
-0.155204
-0.148532
-0.058576
-0.080940
-0.105075
-0.088299
-0.095998
-0.064869
0.011622
-0.034673
-0.015681
-0.083111
-0.104495
-0.119361
-0.085357
-0.114797
-0.092120
-0.120567
-0.037610
-0.099483
-0.073334
-0.088743
-0.023645
-0.033280
-0.124536
-0.005464
-0.093967
-0.076923
-0.066085
-0.118803
-0.094667
-0.092259
-0.097601
-0.181330
-0.068342
-0.119110
-0.097759
0.014466
-0.174541
-0.110765
-0.024573
-0.088364
-0.060916
-0.079967
-0.088274
-0.178973
-0.049925
-0.085670
-0.023229
-0.071961
-0.036792
-0.122525
-0.161331
-0.129667
-0.002586
-0.030191
-0.052524
-0.046857
-0.014948
-0.138855
-0.122054
0.017020
-0.117131
-0.020975
-0.062250
0.038916
-0.038102
-0.057381
0.072964
0.031783
-0.041858
0.061131
-0.014015
0.134805
0.097704
0.106098
0.054705
0.091379
0.124124
0.150433
-0.000026
0.092739
0.000672
0.048508
0.018305
0.065082
0.049422
0.012273
-0.092252
-0.031607
-0.038033
-0.049622
-0.090662
-0.157099
0.004228
-0.085355
-0.074269
-0.101860
-0.106996
-0.048763
-0.076938
-0.108644
-0.000631
-0.066829
-0.124892
-0.042039
-0.107920
-0.151312
-0.113332
-0.137851
-0.069131
-0.076501
-0.178429
-0.071763
-0.106844
-0.056738
-0.144507
-0.164181
-0.136295
-0.221160
-0.127731
0.110207
0.282751
0.606623
1.001011
1.233926
1.333593
1.233926
1.107725
0.664798
0.365149
-0.013149
-0.271104
-0.366755
-0.405577
-0.357098
-0.366693
-0.225476
-0.192840
-0.115852
-0.078396
-0.032578
-0.069405
-0.149167
-0.069878
-0.019119
-0.088675
-0.077251
-0.118172
-0.067525
-0.104448
-0.094188
-0.114013
-0.078506
-0.140490
-0.035574
0.028707
-0.034406
-0.015840
-0.046460
0.067670
-0.015120
0.021636
0.061609
-0.065302
0.088096
0.054428
0.144132
0.117435
0.084939
0.204600
0.219347
0.128642
0.193580
0.190039
0.219085
0.287913
0.232082
0.322301
0.348051
0.287565
0.390657
0.375431
0.359393
0.440172
0.306985
0.426741
0.537942
0.420773
0.364177
0.417950
0.435856
0.372865
0.392433
0.355317
0.468983
0.430878
0.348458
0.260596
0.313875
0.342205
0.422819
0.300258
0.302957
0.230572
0.213670
0.119374
0.135033
0.185677
0.091606
0.091377
0.075953
0.134242
-0.055524
0.054102
0.020681
0.060462
0.054299
-0.039078
-0.010082
-0.070542
-0.076280
-0.017811
-0.069484
0.039409
-0.044735
-0.034621
-0.080939
-0.127949
-0.096726
-0.111257
-0.065794
0.022781
-0.092808
-0.032834
0.007823
-0.140122
-0.090163
-0.051990
-0.078074
-0.053257
-0.059535
-0.050073
-0.040941
0.012879
-0.072217
-0.072641
-0.012705
-0.076400
-0.069467
-0.009328
-0.049032
0.006131
-0.019081
0.001559
-0.064104
-0.037914
-0.083754
0.006349
-0.079982
-0.084752
-0.014720
-0.091902
-0.116007
0.037859
0.015179
-0.015367
0.069927
-0.021691
-0.016390
-0.004211
0.003480
-0.086655
-0.051459
0.000601
-0.034119
-0.004225
-0.106943
-0.027345
-0.077286
0.001008
-0.041399
-0.053529
0.057434
-0.083597
-0.046281
-0.025338
-0.038252
-0.040424
-0.043476
-0.004581
-0.069377
-0.101702
-0.056400
-0.066851
-0.084908
-0.054694
-0.009285
-0.000469
-0.002300
0.002229
0.029457
-0.006338
-0.026427
0.041207
0.044511
0.095125
0.024674
0.075381
0.102326
0.096972
0.049339
0.005000
0.012396
0.044696
0.119718
0.090722
0.049154
0.087593
0.170213
0.147309
0.185520
0.157246
0.222083
0.292530
0.204677
0.189301
0.252482
0.214979
0.143086
0.162968
0.118444
0.178192
0.160117
0.103780
0.182304
0.088740
0.121055
0.169689
0.080469
0.065556
0.058914
0.034878
0.014779
0.069251
0.115861
0.077923
0.042732
0.063175
0.009579
0.093719
-0.035889
0.032143
-0.015589
0.049951
0.049283
0.053796
-0.046709
0.008650
0.029774
0.046753
0.006686
-0.013477
0.094039
0.120407
0.031203
0.000193
-0.003363
-0.109123
-0.016989
0.060646
0.157550
0.466983
0.763749
1.038607
1.367923
1.470030
1.418702
1.232729
0.846625
0.515107
0.191090
-0.029416
-0.148588
-0.350617
-0.286030
-0.140254
-0.089326
0.002363
-0.028418
-0.027164
0.084019
0.063611
0.091077
0.035351
0.012327
-0.002696
0.010106
0.088940
0.035068
0.098905
0.093253
0.017237
0.092903
0.156831
0.135490
0.128501
0.146948
0.115359
0.150319
0.147246
0.133702
0.155108
0.221110
0.176804
0.240055
0.210512
0.182686
0.225755
0.261258
0.284014
0.331988
0.347311
0.386336
0.391259
0.323294
0.354627
0.455345
0.481354
0.477255
0.512041
0.455982
0.522351
0.535317
0.531332
0.555655
0.668256
0.655221
0.536197
0.549520
0.495170
0.491277
0.619643
0.552433
0.507118
0.585608
0.448165
0.488828
0.489355
0.516717
0.454809
0.383705
0.337313
0.410104
0.342802
0.281859
0.361935
0.274454
0.281753
0.332856
0.277687
0.209282
0.300140
0.198002
0.207459
0.136220
0.221564
0.186516
0.163308
0.160965
0.071200
0.059590
0.090540
0.076402
0.128456
-0.027599
0.139673
0.145465
0.113959
0.045856
0.052894
0.084339
0.000777
0.108106
0.107237
0.092769
0.031897
0.040662
0.084709
0.033773
0.098100
0.106300
0.107723
0.112584
0.170790
0.091264
0.114803
0.160327
0.070180
0.042386
0.052890
0.013747
0.053776
0.103249
-0.015638
0.009654
0.060263
0.108681
0.002495
0.108401
0.035148
0.024649
0.083409
0.138081
0.073591
-0.027050
0.179254
0.088631
-0.021062
0.021170
0.102224
-0.004322
0.032675
0.101716
0.018148
0.035548
