0.013848
0.044957
0.068019
-0.055295
-0.060336
-0.004515
0.055357
0.023707
0.008927
0.026006
-0.011713
0.013132
0.015109
0.042663
0.029219
-0.001428
0.061244
0.008220
-0.067846
0.025086
0.017785
0.049830
0.062889
0.053634
0.143059
0.075968
0.069253
0.131746
0.080160
0.175527
0.066235
0.164323
0.176253
0.165490
0.173227
0.190620
0.127630
0.154947
0.165488
0.153267
0.159689
0.251758
0.189562
0.158828
0.154117
0.176272
0.189458
0.059676
0.118854
0.169963
0.159161
0.036872
0.081364
0.141798
0.084975
-0.014562
0.041138
0.091995
0.088673
0.028641
0.095587
0.030575
0.050235
0.131711
0.032813
0.042094
0.072813
0.056358
0.092636
0.046930
-0.062204
0.127733
0.279401
0.380017
0.724119
1.009595
1.277318
1.342684
1.281026
1.009537
0.661055
0.338618
0.026491
-0.115466
-0.166583
-0.181254
-0.082722
0.078749
0.025697
0.100513
0.026425
0.046961
0.126925
0.148057
0.176189
0.095278
0.113814
0.118980
0.149185
0.178610
0.165872
0.203407
0.254417
0.197434
0.241094
0.260752
0.223042
0.307061
0.302966
0.292588
0.355601
0.390186
0.377037
0.354154
0.480064
0.464232
0.432989
0.438293
0.483469
0.538647
0.478835
0.514629
0.497452
0.527991
0.541800
0.621111
0.580577
0.583060
0.491455
0.532188
0.614862
0.596614
0.422570
0.428614
0.483644
0.485845
0.434793
0.488361
0.410545
0.476729
0.359501
0.373871
0.306720
0.323900
0.262694
0.289037
0.233834
0.240256
0.325036
0.178981
0.167853
0.206374
0.224550
0.126297
0.185807
0.181177
0.078818
0.147425
0.108533
0.100803
0.152995
0.177288
0.061148
0.016746
0.036145
0.126475
0.094718
0.119794
0.055179
0.106086
0.139168
0.060947
0.047613
0.082292
0.039519
0.014685
0.142145
0.037116
0.145727
0.062788
0.054209
0.067196
-0.027690
0.030986
0.096776
0.085665
0.118423
0.109375
0.060906
0.089734
0.062470
0.128785
0.080063
0.060087
0.156931
0.005172
0.122377
0.087562
0.053777
0.105115
0.057404
0.149312
0.036938
0.093862
0.123717
0.055498
0.105183
0.124145
0.008439
0.133730
0.191259
0.130521
0.156646
0.214781
0.128443
0.120493
0.067724
0.150488
0.149512
0.150944
0.123172
0.118473
0.221824
0.154810
0.217353
0.199686
0.270406
0.261829
0.268397
0.247445
0.116962
0.213058
0.295245
0.333185
0.239451
0.218344
0.208506
0.171438
0.142566
0.203078
0.198826
0.117238
0.177175
0.144429
0.143729
0.166900
0.153659
0.099627
0.104675
0.148076
0.068484
0.196428
0.118233
0.052904
0.078027
0.084601
0.104358
0.139322
0.067538
0.042162
0.173252
0.100253
-0.001795
0.131756
0.195600
0.425931
0.652165
0.929024
1.262623
1.369638
1.270763
1.146002
0.851467
0.382433
0.181876
-0.042407
-0.166841
-0.164549
0.004286
-0.028103
0.069864
0.101945
-0.014603
0.011983
0.119986
0.110101
0.060515
0.110309
0.117774
0.101939
0.222724
0.096260
0.214388
0.246772
0.148969
0.231787
0.183009
0.244100
0.249737
0.356915
0.365963
0.370764
0.401824
0.317431
0.337622
0.405370
0.442079
0.392929
0.474415
0.468025
0.386966
0.580612
0.458832
0.538041
0.467653
0.552652
0.558253
0.584571
0.488144
0.530015
0.579654
0.641352
0.501772
0.489693
0.478857
0.506727
0.456999
0.488793
0.444258
0.437850
0.437918
0.374460
0.336847
0.279855
0.359336
0.258005
0.266270
0.296964
0.245306
0.258714
0.112551
0.135387
0.223512
0.106087
0.130650
0.079025
0.101310
0.063933
0.122783
0.140877
0.126955
0.074081
0.052974
0.019188
0.014420
0.043046
0.033423
0.014351
0.114362
-0.007299
0.091508
0.106487
0.017160
0.003383
0.053124
0.051077
0.049650
-0.031804
0.089311
-0.013890
0.100599
0.064597
0.116698
0.021636
0.007580
0.028004
0.105653
0.076259
0.068573
0.060473
0.084104
-0.033888
-0.078276
-0.032192
-0.000124
-0.032001
-0.026927
0.055277
0.032406
-0.068462
0.037186
0.065230
0.034811
0.063937
0.001935
-0.035277
0.001798
0.038135
0.043901
0.100386
0.064641
-0.028834
-0.000705
-0.013303
0.012317
0.073755
0.067256
-0.022584
0.133595
0.174245
0.023439
0.075080
0.081837
0.118112
0.083303
0.157438
0.162843
0.218585
0.111269
0.222775
0.081674
0.163601
0.146357
0.203090
0.158719
0.165211
0.055994
0.162204
0.138783
0.108437
0.043636
0.081527
0.119738
0.063895
0.124020
0.074670
0.089245
0.083379
0.042013
-0.023754
-0.027617
-0.004247
0.035954
0.049337
-0.054522
-0.003426
0.019729
-0.091957
0.007104
-0.033000
0.025449
0.011135
-0.012129
-0.039679
-0.014462
-0.033610
0.141570
0.185419
0.490672
0.782596
1.062524
1.222318
1.207121
1.043058
0.873902
0.506333
0.162885
-0.050819
-0.197674
-0.175144
-0.108471
-0.077076
-0.088808
-0.062071
0.039323
0.015184
0.028885
0.053922
0.024099
0.093654
0.046443
0.014328
0.048445
0.096988
0.058243
0.048887
0.162764
0.119629
0.183614
0.088671
0.135208
0.258735
0.190703
0.257057
0.273522
0.261253
0.319082
0.350299
0.297169
0.344683
0.340629
0.382129
0.359110
0.427945
0.398111
0.345240
0.443099
0.461040
0.467423
0.428739
0.533941
0.455185
0.478243
0.396644
0.416749
0.445342
0.463380
0.329959
0.376422
0.380588
0.331681
0.263383
0.274817
0.289166
0.193441
0.257954
0.236659
0.178751
0.193990
0.210181
0.103497
0.197397
0.043857
0.127824
0.144827
0.094147
0.073058
-0.009400
0.067313
0.038601
-0.032563
-0.029177
-0.002168
0.003767
0.018592
-0.013202
0.040088
-0.025951
0.032801
-0.059774
0.004496
-0.062137
-0.051675
0.043548
-0.007821
-0.044165
0.060617
-0.089524
-0.003530
-0.015612
-0.088794
-0.043064
0.019691
-0.012586
-0.132484
-0.042167
-0.059081
0.000091
0.040073
-0.040170
-0.084648
-0.045230
0.025065
-0.041467
-0.036384
-0.065952
-0.099010
-0.000665
-0.028390
-0.013904
-0.008658
0.021595
-0.053825
-0.003914
-0.136479
-0.079399
-0.018718
-0.086946
-0.069255
-0.037979
0.014761
0.025393
-0.040561
-0.014203
-0.041713
0.019199
-0.031903
-0.005902
0.025054
0.030178
0.016167
-0.071882
0.052164
0.033592
0.067134
0.045652
0.152984
0.085897
0.084049
0.102186
0.125138
0.151728
0.127980
0.149557
0.060094
0.124167
0.112753
0.113639
0.055442
0.229936
0.145491
0.156769
0.134726
0.127214
0.030060
0.114785
0.042486
0.024167
-0.007388
0.122352
-0.018337
-0.027577
0.066956
-0.028531
0.034360
-0.027877
-0.019931
-0.045503
-0.046923
0.028144
-0.011545
-0.011961
-0.045348
-0.116350
0.045618
-0.041542
-0.028454
-0.028439
0.014657
0.204162
0.408409
0.727928
0.925708
1.271761
1.261061
1.112815
0.870635
0.601179
0.190394
0.031583
-0.211624
-0.236199
-0.179103
-0.123997
-0.083202
-0.031910
-0.054487
0.062767
-0.034303
-0.010885
0.078341
0.005044
0.096843
0.110354
0.062900
0.093570
0.125492
0.134130
0.114415
0.115861
0.165012
0.220454
0.122824
0.206027
0.163294
0.283890
0.277567
0.352231
0.369330
0.369089
0.336710
0.380796
0.303374
0.343700
0.486482
0.408605
0.396399
0.522162
0.393128
0.431324
0.551379
0.524925
0.492033
0.468442
0.538908
0.540477
0.520948
0.485881
0.495038
0.441275
0.468059
0.419427
0.391471
0.334824
0.325372
0.315835
0.320433
0.284388
0.339823
0.288540
0.288521
0.190877
0.138552
0.204100
0.109857
0.184419
0.124571
0.114035
0.150099
0.148081
0.066591
0.028275
0.112806
0.066309
0.118424
0.095639
-0.037982
-0.032898
0.062345
0.030094
0.044671
-0.016173
0.046756
-0.035000
0.031418
-0.018502
0.055286
-0.026251
-0.001584
0.013969
0.047883
-0.022576
-0.000089
-0.020809
0.015300
0.072163
0.003293
0.036206
0.058176
-0.025998
-0.007687
0.039934
0.022253
-0.008215
0.087355
0.038968
0.147920
-0.013895
0.019460
0.026520
0.065183
0.101894
-0.073758
0.011939
-0.031039
-0.007115
-0.038851
0.104480
0.030999
0.021490
-0.018778
0.070778
0.068082
0.043709
0.050267
0.042012
0.045740
0.018415
0.075101
0.076510
0.046410
-0.046217
-0.002906
0.195746
0.093068
0.163805
0.174821
0.162755
0.147414
0.138539
0.179721
0.186676
0.142836
0.201612
0.233527
0.197077
0.172888
0.214934
0.231437
0.225290
0.269488
0.250791
0.202531
0.152635
0.172074
0.182923
0.177788
0.106352
0.182799
0.133563
0.125789
0.200611
0.161750
0.123244
0.080605
-0.037682
0.069412
0.053788
0.098328
0.170010
0.062139
0.056784
0.094068
0.147217
0.084131
0.094837
0.097477
0.044766
0.073771
-0.004136
0.140044
0.291608
0.381389
0.674225
0.955144
1.253219
1.380162
1.323382
1.111788
0.783530
0.437028
0.127222
-0.075294
-0.167164
-0.088236
-0.099255
0.002132
0.024957
0.028461
0.073735
0.054030
0.153588
0.127257
0.096996
0.089667
0.141812
0.141990
0.185445
0.212472
0.153144
0.205135
0.195305
0.263627
0.261764
0.292452
0.292597
0.349077
0.387301
0.295024
0.409513
0.399243
0.457383
0.419566
0.402375
0.465098
0.417427
0.523770
0.568447
0.497369
0.542206
0.594672
0.585190
0.616869
0.574036
0.596653
0.581975
0.568716
0.571869
0.561485
0.500550
0.548836
0.546403
0.531543
0.516316
0.448603
0.487658
0.435412
0.471607
0.374929
0.397348
0.393511
0.377007
0.282879
0.299791
0.295888
0.209772
0.236108
0.253240
0.141441
0.235981
0.174200
0.230055
0.154911
0.148569
0.227919
0.085874
0.165209
0.071136
0.153531
0.156193
0.066827
0.104821
0.139258
0.024196
0.056693
0.107571
0.094342
0.142893
0.021616
0.109684
0.111473
0.111466
0.023387
0.068113
0.048015
0.102630
0.039638
0.066678
0.090241
0.060193
0.059952
0.089533
0.074983
0.078038
0.089315
0.085860
0.083640
0.082502
0.100470
0.080533
0.131325
0.082920
0.117065
0.018518
0.085934
0.104872
0.092921
0.125416
0.020336
0.090036
0.113514
0.113785
0.065975
0.100112
0.100944
0.124064
0.047548
0.139314
0.056150
0.162119
0.107965
0.080647
0.108992
0.050515
0.234294
0.111354
0.089023
0.164615
0.145807
0.211089
0.193289
0.214660
0.210403
0.232492
0.194290
0.251368
0.250241
0.248966
0.208564
0.159055
0.270054
0.197153
0.235988
0.206375
0.265132
0.205932
0.223411
0.179962
0.229933
0.209040
0.205087
0.149074
0.212335
0.137611
0.085647
0.173276
0.062055
0.127317
0.149082
0.087132
0.103007
0.096996
0.082252
0.012863
0.053035
0.073662
0.106460
0.062420
-0.027974
0.106641
0.085577
0.067765
0.120760
0.178281
0.294427
0.555213
0.856407
1.183983
1.340942
1.500000
1.221778
0.903356
0.522279
0.181722
-0.095371
-0.158350
-0.170797
-0.134537
-0.047498
0.056033
0.098269
0.054588
0.019586
0.094626
0.154970
0.073487
0.064389
0.076447
0.131396
0.160341
0.125269
0.176468
0.155509
0.212599
0.238866
0.216989
0.246452
0.171152
0.304125
0.315865
0.257585
0.354536
0.337238
0.359370
0.470382
0.380442
0.499941
0.461740
0.483575
0.514004
0.506659
0.554305
0.409193
0.581396
0.558354
0.474404
0.499381
0.548210
0.511804
0.477411
0.616359
0.462785
0.514378
0.543116
0.491260
0.447177
0.459882
0.515472
0.411184
0.289267
0.342822
0.311936
0.356539
0.246617
0.147939
0.250198
0.207304
0.177486
0.219029
0.159469
0.135865
0.184513
0.117601
0.082776
0.193632
0.111282
0.084549
0.167044
0.092175
0.001348
0.017175
0.026823
0.012910
0.036888
0.023003
0.074498
0.083226
0.049262
-0.012309
0.081008
-0.027136
0.110555
0.021563
-0.040223
-0.001986
0.038664
0.026135
-0.010933
-0.020539
0.031107
0.066280
0.011989
0.006657
-0.116056
-0.023338
0.066053
-0.036453
-0.028415
0.021697
-0.060812
0.027874
0.009961
0.011280
-0.001999
-0.040240
-0.048957
-0.035251
0.020772
0.027480
-0.038478
-0.008118
-0.047767
0.076729
0.016852
-0.047170
-0.007619
-0.018691
0.047709
0.009867
0.041891
0.027939
-0.025910
-0.017153
-0.052163
0.010255
0.073344
-0.007045
0.078515
-0.050524
0.049116
0.016988
0.027793
0.060229
0.122472
0.155500
0.095310
0.150646
0.083494
0.118828
0.195635
0.146066
0.162513
0.111137
0.095556
0.171138
0.125597
0.138286
0.120807
0.099373
0.038717
0.115345
0.070334
0.059109
0.113309
0.089543
0.024445
0.041021
0.021255
0.015654
-0.023074
-0.083790
0.033401
-0.062043
-0.068071
-0.033222
0.037616
-0.099634
-0.074194
0.056982
-0.075680
-0.088134
0.000000
0.000000
0.000000
0.000000
0.000000
0.000000
0.000000
0.000000
0.000000
0.000000
0.000000
0.000000
0.000000
0.000000
0.000000
0.000000
0.000000
0.000000
0.000000
0.000000
0.000000
0.000000
0.000000
0.000000
0.000000
0.000000
0.000000
0.000000
0.000000
0.000000
0.000000
0.000000
0.000000
0.000000
0.000000
0.000000
0.000000
0.000000
0.000000
0.000000
0.000000
0.000000
0.000000
0.250546
0.252045
0.205068
0.298378
0.384743
0.287844
0.327340
0.342193
0.432173
0.370859
0.389423
0.460370
0.431757
0.452847
0.453336
0.482454
0.475760
0.475669
0.369677
0.442944
0.349536
0.299337
0.386802
0.373921
0.336786
0.315660
0.401021
0.339248
0.269922
0.245832
0.217983
0.203629
0.137018
0.146769
0.169652
0.127508
0.132664
0.105533
0.077590
0.145066
0.076812
0.039583
0.020935
0.046272
0.002204
0.017768
0.000296
-0.104864
-0.038691
-0.096748
-0.030678
-0.044918
-0.108670
0.069610
-0.042423
-0.050794
-0.010819
-0.103080
-0.124076
-0.058328
-0.096942
-0.001198
-0.024816
-0.083509
-0.012268
-0.121467
-0.137433
-0.041387
0.009134
-0.056822
-0.016794
-0.051142
-0.133468
-0.083225
-0.041958
0.014462
-0.065258
-0.048473
-0.089958
-0.072313
-0.117841
-0.102580
-0.048326
0.015231
-0.157131
-0.086996
-0.098525
-0.064413
-0.068493
-0.107646
-0.084902
-0.158379
-0.162508
-0.117926
-0.046902
-0.092231
-0.087997
0.005970
-0.029555
-0.110707
0.035346
-0.044471
-0.027691
-0.098633
-0.041860
0.019323
0.015760
-0.025487
0.003609
0.013698
0.028548
0.004691
0.079449
0.026724
0.054779
0.055761
0.086492
0.107240
0.062652
0.034467
0.068740
0.001416
0.051756
0.080356
0.107736
0.101176
0.000129
0.089268
0.007726
0.030681
-0.039891
-0.002907
0.009170
0.032611
0.053069
0.084463
-0.004399
0.004359
-0.048739
-0.040248
-0.098856
-0.054268
-0.010218
-0.055342
-0.043855
-0.068480
-0.001722
-0.065001
-0.027079
-0.127039
-0.070966
-0.077714
-0.096486
-0.025841
0.105029
0.246075
0.557145
0.908330
1.227460
1.192902
1.237523
0.961746
0.709469
0.299033
0.052511
-0.191416
-0.240660
-0.244207
-0.147386
-0.095806
-0.135324
-0.090687
-0.015258
-0.078969
-0.054237
0.030493
-0.067677
-0.011314
0.035949
0.055701
0.064674
0.094956
0.139493
0.159666
0.103278
0.145169
0.157552
0.165085
0.099918
0.178798
0.161796
0.226434
0.285386
0.293617
0.302197
0.301423
0.228435
0.360149
0.310496
0.379264
0.460671
0.415174
0.423154
0.323300
0.389921
0.397367
0.438994
0.458662
0.491778
0.528330
0.421255
0.418339
0.419760
0.355884
0.442141
0.427522
0.439443
0.405251
0.380748
0.371238
0.381140
0.267465
0.326529
0.242582
0.254511
0.178358
0.134738
0.194929
0.131532
0.166119
0.095084
0.144346
0.150612
0.117085
0.070509
-0.004670
0.018060
-0.014118
0.076566
0.037001
0.019793
-0.042405
-0.076900
-0.008982
0.034930
-0.017392
-0.056828
-0.062377
0.014184
0.048743
0.031395
-0.013291
-0.003219
-0.000903
0.057161
-0.004023
0.016980
0.019677
-0.011633
-0.037752
-0.011280
-0.040940
0.041066
0.085099
-0.036243
-0.012399
0.008164
0.048798
0.012184
-0.005301
0.003676
0.041148
-0.016210
0.009161
-0.031195
0.029729
0.055099
-0.012576
-0.020522
0.056289
0.013732
-0.013116
0.004663
-0.009608
-0.023421
0.028657
0.038174
0.033106
-0.076212
0.034824
-0.011620
0.085483
-0.017778
0.081362
0.089134
0.097728
0.065791
0.053889
0.004927
0.099804
0.043015
0.099139
0.067981
0.169538
0.162020
0.200719
0.130698
0.176857
0.133942
0.263298
0.232915
0.229518
0.177906
0.193991
0.201740
0.139985
0.179680
0.144286
0.204269
0.196905
0.142300
0.226871
0.103303
0.084361
0.088448
0.132931
0.122546
0.134068
0.105329
0.014440
0.087053
0.005811
0.059298
0.093160
0.074697
0.085406
0.012735
-0.032740
-0.015287
-0.009840
0.017588
0.008858
-0.010802
0.046960
0.081759
0.060004
0.090509
0.208542
0.526683
0.897455
1.164837
1.293238
1.296770
1.099415
0.882786
0.443632
0.198770
-0.056239
-0.158960
-0.151264
-0.083210
-0.056487
0.039433
0.010201
0.144936
0.111309
0.031773
0.104242
0.102812
0.108793
0.047715
0.065446
0.183125
0.177941
0.068081
0.230409
0.161951
0.146992
0.104398
0.213348
0.300013
0.272926
0.293926
0.304199
0.338721
0.407519
0.314495
0.403539
0.419761
0.465588
0.404026
0.389472
0.478298
0.403920
0.473270
0.535601
0.494813
0.578230
0.538088
0.516987
0.480414
0.537852
0.444368
0.398650
0.539053
0.493583
0.523712
0.457623
0.530276
0.408834
0.425617
0.441070
0.375838
0.410263
0.280442
0.362902
0.300859
0.284488
0.276303
0.288451
0.321452
0.239246
0.175130
0.195709
0.235327
0.143520
0.145610
0.130842
0.184551
0.095617
0.160520
0.120805
0.138144
0.069823
0.048782
0.045112
0.043051
0.087512
0.016724
0.067905
0.124379
0.158655
0.031859
0.053973
0.039976
0.015372
0.061084
0.076773
0.123047
0.011374
-0.003848
0.039280
0.096607
0.075294
0.101666
0.092683
-0.035910
0.084687
0.068686
0.021220
0.028391
0.072730
0.031095
0.056701
-0.065075
0.007740
0.027184
0.040379
0.028155
0.056462
0.055646
0.046282
0.028996
0.014717
0.058364
0.072638
-0.052208
0.033302
0.038257
0.056816
0.021825
-0.018618
0.062768
0.078473
-0.006539
0.142180
0.074554
0.016167
0.101603
0.057522
0.146655
0.078520
0.118615
0.131502
0.125399
0.247416
0.098142
0.187801
0.172664
0.124119
0.161949
0.164739
0.220186
0.245170
0.167968
0.170963
0.201495
0.209614
0.190038
0.206685
0.238990
0.159881
0.161169
0.191601
0.113923
0.198952
0.142421
0.066542
0.073840
0.164240
0.064906
0.112173
0.146096
-0.007637
0.066130
-0.033777
0.087003
0.093328
0.074692
0.037307
0.039655
0.041949
0.092084
-0.010329
0.081245
0.036926
0.012183
0.007431
0.058564
0.180615
0.383927
0.737822
1.050185
1.277900
1.260020
1.232536
0.902517
0.000000
0.000000
0.000000
0.000000
0.000000
0.000000
0.000000
0.000000
0.000000
0.000000
0.000000
0.000000
0.000000
0.000000
0.000000
0.000000
0.000000
0.000000
0.000000
0.000000
0.000000
0.000000
0.000000
0.000000
0.000000
0.000000
0.000000
0.000000
0.000000
0.000000
0.000000
0.000000
0.000000
0.000000
0.000000
0.000000
0.000000
0.000000
0.000000
0.000000
0.000000
0.000000
0.000000
0.000000
0.000000
0.000000
0.000000
0.000000
0.000000
0.000000
0.000000
0.000000
0.000000
0.000000
0.000000
0.395519
0.343610
0.358355
0.368987
0.272218
0.284019
0.248776
0.240967
0.138341
0.176166
0.178231
0.148242
0.186928
0.062859
0.165791
0.093386
0.163641
0.003066
0.100282
0.038656
0.082034
0.063189
0.024281
0.031720
0.081648
-0.011539
-0.004046
-0.008676
-0.001692
-0.063736
-0.095266
-0.013505
-0.039969
0.027963
0.002182
-0.023235
-0.051230
-0.071369
-0.064823
0.016976
-0.044893
-0.020814
-0.026794
-0.061905
-0.092467
-0.101988
-0.009724
-0.023783
-0.028211
-0.053639
-0.094539
-0.023152
-0.028803
0.010184
-0.022594
-0.022193
-0.078944
-0.047086
-0.097221
-0.146272
-0.021696
-0.058859
-0.007662
-0.118369
-0.091309
-0.113588
0.025210
-0.032045
-0.144861
-0.014609
-0.030367
-0.038034
-0.087933
0.019311
-0.046309
-0.002246
0.016059
-0.003797
-0.028191
-0.011746
-0.029643
0.041835
0.025047
-0.006500
0.019354
0.012092
0.059890
0.114764
0.085786
0.004804
0.065752
0.116710
0.067387
0.022053
0.122498
0.161928
0.050555
0.190593
0.166354
0.061626
0.049165
0.069677
0.054490
0.128719
0.000000
0.000000
0.000000
0.000000
0.000000
0.000000
0.000000
0.000000
0.000000
0.000000
0.000000
0.000000
0.000000
0.000000
0.000000
0.000000
0.000000
0.000000
0.000000
0.000000
0.000000
0.000000
0.000000
0.000000
0.000000
0.000000
0.000000
0.000000
0.000000
0.000000
0.000000
1.147464
0.945096
0.631704
0.271311
0.007243
-0.229734
-0.279073
-0.316119
-0.238787
-0.166289
-0.034616
-0.077952
0.000523
-0.055353
-0.007899
-0.024718
-0.057126
0.043599
-0.049308
-0.048949
0.003228
-0.039430
0.012342
0.069626
0.083930
0.115912
0.082749
0.127193
0.152163
0.148884
0.179918
0.201402
0.231464
0.234844
0.219154
0.295016
0.265959
0.260553
0.268121
0.392454
0.320876
0.375028
0.388828
0.304987
0.303649
0.445649
0.449945
0.423538
0.379931
0.413181
0.403653
0.434543
0.324801
0.420410
0.378086
0.400750
0.340539
0.366909
0.331478
0.267888
0.256591
0.155593
0.229906
0.156641
0.240241
0.259073
0.180228
0.145424
0.086311
0.057202
0.023859
0.061853
0.121134
0.022824
-0.059972
0.026016
0.028581
-0.031072
-0.007667
0.027115
-0.089214
-0.109030
-0.089593
-0.027452
0.018930
-0.090694
-0.108756
-0.130521
-0.031741
-0.107608
-0.046204
-0.059410
-0.132141
-0.122892
-0.130460
-0.120706
-0.119420
-0.089637
-0.040178
-0.118725
-0.100957
-0.156302
-0.094949
-0.102344
-0.074147
-0.095171
-0.098421
-0.075206
-0.079133
-0.113882
-0.096902
-0.124679
-0.093684
-0.131924
-0.099798
0.019042
-0.105521
-0.098812
-0.141964
-0.058497
-0.079642
-0.055219
-0.078661
-0.073123
-0.083786
-0.175918
-0.119185
-0.088788
-0.047702
-0.048604
-0.088915
-0.055936
-0.098407
-0.054304
0.034440
-0.033899
-0.044200
-0.092088
-0.010443
-0.057175
0.033923
0.036086
-0.009512
-0.003425
-0.057878
0.010137
0.116215
0.054148
0.022080
0.098732
0.021006
0.131784
0.098858
0.125119
0.083557
0.098022
0.041684
0.124727
0.011612
0.164788
-0.025356
0.057856
0.019213
0.017679
0.022027
-0.002941
0.041015
-0.029997
0.025648
0.013977
-0.043862
-0.068620
-0.057912
-0.031036
-0.099585
-0.060550
-0.021718
-0.126602
-0.119654
-0.053641
-0.112444
-0.089556
-0.033586
-0.181651
-0.012824
-0.015148
0.114547
0.257228
0.439057
0.844552
1.142332
1.221422
1.165695
1.049713
0.731317
0.389541
0.020407
-0.161938
-0.271964
-0.216782
-0.229895
-0.201202
-0.122456
-0.082767
0.066444
0.034674
-0.045994
0.015569
0.020193
0.031652
-0.043996
0.083881
0.069954
-0.022991
0.087951
0.087986
0.092569
0.102110
0.173962
0.165460
0.107540
0.178893
0.239111
0.229847
0.296284
0.314539
0.295172
0.317975
0.343258
0.388090
0.405362
0.349421
0.427381
0.444414
0.470619
0.401098
0.509009
0.498236
0.570047
0.499915
0.497913
0.436164
0.453238
0.394959
0.452726
0.385896
0.409608
0.467850
0.376233
0.381090
0.315247
0.359495
0.317587
0.287205
0.305123
0.200795
0.237998
0.207645
0.147346
0.125040
0.092134
0.126690
0.151630
0.034382
0.142532
0.077782
0.098681
0.132437
0.102298
0.067613
0.041501
-0.022782
-0.037591
0.122957
0.065351
-0.004689
-0.000728
0.031567
0.010689
-0.036157
-0.052570
0.002577
0.055781
0.011396
0.039964
-0.052458
0.044829
0.009011
-0.050441
-0.024375
-0.012446
-0.015696
-0.012304
0.074075
-0.008134
0.045474
0.004770
-0.036234
-0.070291
0.022275
0.094560
-0.041569
-0.020724
-0.043528
-0.015500
0.018259
0.028546
0.014589
0.024309
-0.066812
-0.025908
-0.030070
-0.022805
0.072518
0.040122
-0.030471
-0.035364
0.019259
0.018059
0.027372
-0.006404
0.005658
0.013810
0.013405
0.044574
-0.008886
0.100563
0.083979
0.062012
0.077503
0.076833
0.192887
0.170051
0.084284
0.099837
0.178719
0.177229
0.143119
0.109471
0.189677
0.150368
0.227651
0.191566
0.216078
0.226196
0.163828
0.211868
0.154247
0.171645
0.217341
0.163125
0.238064
0.161234
0.172426
0.171352
0.096797
0.123849
0.134674
0.202040
0.081303
0.047543
0.162001
0.082357
0.071371
0.020574
-0.045516
0.022548
0.050657
0.012784
0.112267
0.064417
0.143424
0.125692
0.020821
-0.038647
0.006721
0.043006
0.086174
0.138781
0.185788
0.495677
0.817187
1.106925
1.267414
1.352974
1.268305
0.933275
0.562117
0.237513
-0.032235
-0.144761
-0.178016
-0.097891
-0.055944
0.032301
0.066950
0.094719
0.103381
0.023624
0.132270
0.111438
0.054733
0.116498
0.145496
0.101630
0.162902
0.180663
0.150095
0.198802
0.125852
0.273159
0.244051
0.247028
0.157322
0.257418
0.334481
0.352326
0.375680
0.406428
0.382289
0.418746
0.472378
0.427724
0.447364
0.502734
0.528079
0.498493
0.579607
0.556672
0.572363
0.616616
0.612776
0.527246
0.575002
0.557709
0.528496
0.486127
0.456713
0.561855
0.587785
0.494306
0.387188
0.428271
0.418555
0.425039
0.401009
0.406735
0.354393
0.422407
0.306901
0.257665
0.278523
0.283595
0.262743
0.220504
0.237995
0.173219
0.178291
0.134633
0.137439
0.138656
0.192082
0.128069
0.209427
0.043743
0.097329
0.097716
0.004700
0.112518
0.038417
0.084221
0.205084
0.042344
0.116979
0.060270
0.039415
0.048042
0.080334
0.059422
-0.024217
0.023983
-0.006942
0.088631
0.131207
0.095563
0.036571
-0.001308
-0.005784
0.075501
0.085100
0.138254
0.061999
0.055562
0.050522
0.038640
0.067667
0.044440
0.049971
0.081763
