0.016885
-0.094220
-0.028879
0.046195
0.083513
0.017259
0.124398
0.000560
0.038739
0.025414
0.065542
0.000299
0.063786
0.010267
0.026194
0.087509
0.083325
0.040098
0.034578
0.074408
-0.025239
0.047104
0.115359
0.079499
-0.018748
0.108338
0.113078
0.104225
0.108267
0.149754
0.177145
0.159684
0.151694
0.247800
0.204343
0.201117
0.223090
0.168621
0.238406
0.176276
0.233425
0.176750
0.197818
0.164213
0.132311
0.160940
0.088445
0.127832
0.121492
0.084568
0.126288
0.105153
0.062526
0.135917
0.098639
0.066372
0.072523
0.053720
0.059614
0.146750
0.062406
0.125472
-0.000048
0.083938
-0.026400
0.049399
0.011233
0.045506
0.061237
0.223462
0.495524
0.758158
1.049567
1.339315
1.469311
1.382840
1.212170
0.806680
0.429489
0.092957
-0.111887
-0.184061
-0.094347
-0.081350
-0.011889
0.052160
0.125383
0.170184
0.113977
0.097172
0.105348
0.132509
0.176189
0.103309
0.180183
0.187503
0.231910
0.275459
0.221573
0.184653
0.267870
0.265836
0.303129
0.359055
0.391396
0.481974
0.448420
0.388641
0.484685
0.468190
0.490303
0.493366
0.536537
0.471799
0.562726
0.543618
0.586729
0.586747
0.660425
0.604688
0.600707
0.528819
0.511824
0.619207
0.551718
0.529586
0.552097
0.497708
0.491418
0.423508
0.507523
0.483749
0.489600
0.483560
0.453953
0.379263
0.456074
0.407826
0.321084
0.324514
0.302242
0.286119
0.217569
0.265398
0.295316
0.228409
0.247758
0.174493
0.167265
0.181132
0.238416
0.085147
0.130381
0.175274
0.122113
0.139967
0.202721
0.142136
0.052683
0.136152
0.117851
0.114229
0.136244
0.050372
0.043117
0.094471
0.100361
0.154627
0.110298
0.145506
0.104362
0.089930
0.138617
0.121522
0.093309
0.023245
0.063652
0.071524
0.087013
0.123336
0.046821
0.104769
0.058816
0.087000
0.096572
0.040370
0.052035
0.138544
0.064948
0.035370
0.118771
0.121517
0.227411
0.056711
0.158414
0.080293
0.064805
0.149373
0.035303
0.112660
0.007511
0.097698
0.100440
0.124532
0.245499
0.197561
0.174821
0.126785
0.180772
0.216718
0.244854
0.198224
0.207742
0.140566
0.235561
0.239783
0.232303
0.296359
0.239987
0.260041
0.265674
0.218959
0.250834
0.326810
0.323643
0.289085
0.248458
0.213452
0.224710
0.205435
0.131258
0.292964
0.194156
0.213356
0.194637
0.153757
0.239544
0.162165
0.228549
0.146057
0.114977
0.112959
0.150227
0.154474
0.144016
0.025251
0.119411
0.081738
0.096676
0.134643
0.088010
0.205730
0.108108
0.064231
0.267621
0.453359
0.710816
1.008221
1.411196
1.487525
1.424104
1.259860
0.829113
0.449702
0.136539
0.007426
-0.175462
-0.102794
-0.072255
0.048392
0.088591
0.099324
0.123847
0.100538
0.069480
0.143551
0.070568
0.196580
0.179981
0.146952
0.211019
0.272335
0.205209
0.207545
0.307098
0.298823
0.284743
0.273711
0.337848
0.387902
0.365897
0.372344
0.463765
0.428178
0.547067
0.476350
0.550112
0.496459
0.493654
0.476727
0.508916
0.524412
0.577026
0.577884
0.612271
0.624025
0.554915
0.540241
0.633641
0.628934
0.613961
0.441472
0.536097
0.614732
0.551579
0.441454
0.503973
0.471845
0.442322
0.395313
0.473598
0.409238
0.260932
0.331878
0.305550
0.313456
0.265855
0.173927
0.229490
0.170827
0.212269
0.172733
0.187738
0.196861
0.153595
0.154986
0.110666
0.138882
0.109035
0.119484
0.117618
0.025006
0.102232
0.045437
0.123019
0.071202
0.041042
0.064738
0.103873
0.072834
0.083700
0.038662
0.021547
0.004553
0.074445
0.075920
0.077864
-0.021342
0.073621
0.148863
-0.043970
0.045124
0.038742
0.019059
-0.011055
-0.005027
0.114354
-0.002673
0.030553
0.031335
0.039621
0.071160
0.066073
-0.048199
0.040294
0.018857
0.068666
0.091342
0.057423
-0.020396
0.063344
0.053402
-0.061369
0.080779
0.113325
0.037995
0.050915
-0.078756
-0.029176
0.124426
0.086854
0.114259
0.063297
0.018714
0.097734
0.078348
0.081418
0.138793
0.095824
0.127370
0.139629
0.237596
0.175862
0.191339
0.182386
0.199475
0.243725
0.173966
0.144751
0.178442
0.278339
0.226607
0.205399
0.148252
0.176151
0.116459
0.063325
0.037808
0.092826
0.003505
0.113088
0.102028
0.108322
-0.025327
0.070490
0.062550
0.031001
0.042127
-0.044230
0.021490
-0.030270
-0.039280
0.069179
-0.028993
0.011195
-0.061818
-0.016668
-0.049181
-0.063759
0.101579
0.383702
0.536931
0.908460
1.131173
1.353985
1.366850
1.076519
0.820485
0.509723
0.093513
-0.082728
-0.212760
-0.267953
-0.250100
-0.052149
0.041594
-0.015185
0.023368
0.066023
0.098298
0.063116
0.132677
0.037896
0.042272
-0.021977
0.067786
0.155619
0.120201
0.142828
0.180117
0.181119
0.108729
0.211293
0.248450
0.244286
0.251767
0.293910
0.273434
0.314932
0.316563
0.288544
0.348754
0.376628
0.420694
0.420489
0.389659
0.443683
0.498277
0.408087
0.512755
0.439217
0.494588
0.489317
0.440437
0.588132
0.486873
0.473921
0.425785
0.471808
0.378303
0.402889
0.378376
0.282139
0.401981
0.331811
0.279790
0.267440
0.238060
0.225908
0.169725
0.202159
0.212709
0.155627
0.084008
0.160543
0.137412
0.060402
0.059926
0.110381
-0.006016
0.047896
0.035060
0.033055
0.081065
-0.017509
0.007638
0.000206
0.022631
-0.102526
-0.023269
-0.001338
-0.103078
0.068684
-0.034206
-0.116613
-0.087546
-0.067188
-0.001214
-0.010015
-0.086669
-0.013783
-0.021673
0.002615
-0.102930
-0.012525
-0.064505
-0.029565
0.064792
-0.031654
0.004128
-0.065011
0.045868
-0.077848
-0.117242
-0.081142
-0.074405
-0.039542
-0.073932
-0.021453
-0.079422
-0.000907
-0.068785
0.023807
0.005584
-0.010830
-0.102655
-0.080307
-0.125485
0.039367
-0.090024
-0.056782
-0.047561
0.074208
0.079897
-0.037665
-0.124730
-0.008692
-0.002923
0.022566
-0.010038
-0.009416
0.098964
0.010779
0.021565
0.110209
0.118538
0.142284
0.100425
0.127639
0.077475
0.034010
0.146677
0.114342
0.189091
0.111576
0.104991
0.055567
0.159725
0.150708
0.153873
0.097778
0.108519
-0.041634
0.034315
0.114680
0.045247
0.070070
0.024654
0.056363
0.002266
0.028017
0.036690
-0.023601
0.001209
0.036471
0.012949
-0.108922
-0.035702
0.008113
-0.003001
0.007966
-0.037292
0.034076
-0.013552
-0.032013
0.240032
0.433761
0.699680
1.093040
1.412384
1.404992
1.214298
0.876080
0.420477
0.188567
-0.176459
-0.326070
-0.263256
-0.214009
-0.092918
-0.093930
-0.035699
-0.018378
0.050236
0.029435
-0.045922
-0.000396
0.066118
-0.024990
0.010262
0.196756
0.031448
0.210531
0.193164
0.107121
0.200050
0.182140
0.182534
0.290551
0.337449
0.268408
0.285490
0.373153
0.348394
0.379349
0.432223
0.377763
0.352393
0.473157
0.495722
0.504907
0.443269
0.494656
0.476187
0.337188
0.551789
0.545533
0.440380
0.496412
0.555160
0.479374
0.497083
0.467341
0.492324
0.467364
0.466078
0.431282
0.395892
0.346351
0.348943
0.290153
0.298269
0.352602
0.263406
0.141127
0.286854
0.198326
0.210527
0.193595
0.178770
0.280818
0.146774
0.122253
0.186672
0.094140
0.106328
0.116143
0.210232
0.015324
0.059177
-0.006187
0.098753
0.112906
0.047587
0.048592
-0.018571
0.032989
0.067872
0.053354
-0.017424
-0.032019
-0.084893
0.126718
0.044454
0.064909
0.059362
-0.066898
0.022952
0.010757
0.038758
0.109677
0.015866
0.018393
-0.003037
-0.010644
0.097760
0.021232
-0.001617
0.045567
0.029789
0.018166
0.026323
-0.025101
0.036496
0.130134
-0.120376
0.039080
0.031335
-0.006316
-0.000177
-0.045246
-0.045517
0.012593
0.053489
0.081109
-0.037925
0.090995
0.097605
0.058107
-0.022296
0.032697
0.090030
0.126071
0.064655
0.057118
0.030934
0.128526
0.162699
0.157596
0.151058
0.118801
0.235230
0.184307
0.158902
0.185810
0.169125
0.184129
0.220610
0.279502
0.209319
0.285747
0.211143
0.172537
0.125689
0.219114
0.145171
0.251752
0.272148
0.218634
0.095978
0.169212
0.073618
0.082549
0.145149
0.130005
0.158032
0.069110
0.091915
0.051533
0.035328
0.150833
-0.007455
0.104299
0.090978
0.083994
-0.003947
0.077724
0.084408
0.049038
0.070496
0.279785
0.437831
0.757871
1.113165
1.389994
1.475253
1.353926
1.059784
0.683620
0.328254
0.031615
-0.099175
-0.108703
-0.105031
-0.040270
-0.011990
0.107649
0.044471
0.143993
0.182810
0.097549
0.077923
0.165871
0.108821
0.147182
0.193596
0.220978
0.268970
0.262097
0.186335
0.200626
0.305986
0.315787
0.370929
0.361973
0.389933
0.362421
0.410161
0.447228
0.466450
0.521096
0.492910
0.495147
0.542289
0.519829
0.600165
0.534989
0.573672
0.584542
0.584253
0.524960
0.541893
0.606885
0.646675
0.587024
0.553109
0.526415
0.598115
0.612666
0.561567
0.572923
0.547622
0.479234
0.495970
0.464053
0.490635
0.323981
0.370013
0.367478
0.377453
0.344969
0.328158
0.343087
0.284142
0.189956
0.321226
0.185122
0.269153
0.158277
0.149710
0.135712
0.172313
0.147196
0.247737
0.109128
0.113767
0.122023
0.149776
0.058420
0.126519
0.110862
0.101980
0.102122
0.149934
0.150787
0.179030
0.068599
0.165899
0.112833
0.116933
0.065551
0.081149
0.078555
0.032571
0.168856
0.099613
0.123215
-0.012775
0.082365
0.143993
0.148106
0.140956
0.101617
0.086914
0.020120
0.131453
0.028642
0.105193
0.130562
0.093798
0.087681
0.041856
0.090424
0.109227
-0.019830
0.126364
0.139767
0.097338
0.114733
0.097906
-0.003753
0.059050
0.148892
0.127230
0.206122
0.120793
0.157949
0.193099
0.135432
0.244386
0.238648
0.243271
0.242420
0.181931
0.203725
0.180308
0.313674
0.301315
0.262092
0.241049
0.279870
0.314042
0.271603
0.253998
0.220717
0.184321
0.253799
0.300534
0.288042
0.301757
0.198562
0.143639
0.244437
0.244058
0.139197
0.094071
0.195023
0.193990
0.178812
0.156276
0.108733
0.160254
0.137871
0.198762
-0.001077
0.086498
0.189572
0.098388
0.029129
0.095051
0.037461
0.131648
0.116766
0.139889
0.144616
0.325149
0.465167
0.796537
1.029330
1.374759
1.500000
1.467103
1.096990
0.809030
0.412631
0.049715
-0.063239
-0.126237
-0.117262
-0.002391
0.016007
0.109629
0.132012
0.169763
0.116351
0.171218
0.164628
0.137124
0.129399
0.272978
0.192195
0.133324
0.285916
0.228167
0.302895
0.230385
0.254659
0.311359
0.400621
0.361598
0.455951
0.408560
0.452021
0.435797
0.402684
0.474094
0.547383
0.537022
0.590877
0.463235
0.513592
0.633396
0.564811
0.615288
0.621389
0.526224
0.577143
0.590566
0.576968
0.594083
0.566102
0.525581
0.532262
0.542877
0.545621
0.516830
0.501821
0.389954
0.548659
0.397750
0.390633
0.422950
0.324224
0.479139
0.359406
0.313719
0.364384
0.241810
0.285350
0.140867
0.213793
0.269925
0.189737
0.077544
0.120591
0.155518
0.213843
0.033822
0.110154
0.024333
0.098501
0.042094
0.082810
0.037144
0.060966
0.133935
0.134737
0.089457
0.050518
0.023007
0.117500
-0.034194
-0.002361
0.038004
0.058567
0.004799
-0.003079
0.055024
-0.033358
0.038142
0.035046
-0.060033
0.062078
-0.056917
0.024804
0.008926
0.038331
0.042125
0.050027
-0.019219
-0.022754
0.045632
0.006013
-0.002573
0.061462
0.103591
-0.033816
-0.006756
0.072925
0.074449
-0.040053
0.078962
0.041697
-0.063466
0.031638
-0.021455
0.048731
0.100392
0.103726
0.017083
0.045770
0.040010
0.032042
0.077310
0.117474
0.135164
0.034619
0.126837
0.132493
0.179182
0.110969
0.163580
0.150874
0.229085
0.091065
0.224034
0.189801
0.259970
0.131862
0.082240
0.152003
0.136467
0.191106
0.203519
0.106698
0.052790
0.194919
0.129617
0.070590
0.179693
0.094529
0.042418
0.102423
-0.029360
0.020690
-0.002323
0.066534
-0.050459
-0.000618
0.072288
-0.060984
-0.077909
0.125692
0.004692
0.032507
-0.020768
0.005807
0.015691
0.010673
-0.039910
0.164773
0.286916
0.588060
0.978082
1.219224
1.298265
1.252803
1.007660
0.767077
0.369270
0.101931
-0.135044
-0.231718
-0.205344
-0.191920
-0.151526
-0.029186
-0.036178
-0.091738
-0.040646
0.028918
0.024485
0.035588
0.079038
0.079499
0.012080
0.074523
-0.011202
0.126495
0.179963
0.179251
0.188556
0.220464
0.151179
0.234616
0.128631
0.233764
0.332122
0.254388
0.361398
0.357744
0.298135
0.419349
0.390814
0.401457
0.428971
0.443130
0.391040
0.546221
0.355767
0.474551
0.466223
0.495589
0.502228
0.434123
0.442516
0.376813
0.464561
0.295011
0.434238
0.385591
0.351933
0.412548
0.415777
0.128767
0.313159
0.345809
0.273825
0.233477
0.186435
0.186598
0.154560
0.142740
0.128497
0.114502
0.096410
0.048470
0.117230
-0.022148
0.057094
0.047909
0.056413
-0.045835
0.027175
-0.041124
0.018549
-0.084329
-0.126125
-0.051136
-0.015880
0.029324
-0.063056
-0.032543
-0.046433
0.003089
-0.044382
-0.068133
-0.044053
-0.035987
-0.069806
-0.038399
-0.007068
-0.067667
-0.128066
-0.087833
-0.039061
-0.070694
-0.059568
-0.215474
-0.065451
-0.026748
-0.043212
-0.028914
-0.077154
-0.073792
-0.115811
-0.070119
-0.050237
-0.083615
-0.125179
-0.056400
-0.085360
-0.048614
-0.164024
-0.032203
-0.068586
-0.068529
-0.069371
-0.081368
-0.028490
0.002843
-0.121089
-0.048908
-0.061451
-0.047251
0.027336
-0.062373
-0.084600
-0.042850
-0.010921
0.046985
0.022832
0.051523
-0.039905
0.098627
-0.026243
-0.001197
0.103811
0.068950
0.153001
0.121375
0.093957
0.140443
0.093689
0.065462
0.087350
0.148177
0.038722
0.122781
0.049777
0.078272
0.124033
0.046321
0.013727
0.037970
0.023427
-0.042664
-0.029659
-0.016850
-0.044020
-0.018194
-0.020535
-0.061055
0.009722
-0.120202
-0.087676
-0.138347
-0.093331
-0.167439
-0.101580
-0.120582
-0.096097
-0.094309
-0.105521
0.027362
0.104069
0.235041
0.548663
0.831844
1.097902
1.353677
1.367634
0.968043
0.730939
0.360131
0.061817
-0.134581
-0.275029
-0.211790
-0.278192
-0.151425
-0.089835
-0.021184
-0.116705
0.027953
-0.080115
-0.020952
-0.042614
0.071798
0.078580
0.020926
0.042643
0.108456
0.145172
0.045938
0.114997
0.139751
0.193209
0.147561
0.220770
0.250005
0.236132
0.284991
0.262940
0.326451
0.369230
0.343339
0.410024
0.379635
0.399622
0.357654
0.368677
0.374355
0.538442
0.358321
0.438555
0.409366
0.429521
0.475860
0.438821
0.412918
0.404639
0.455401
0.360605
0.409405
0.369743
0.369229
0.315755
0.456103
0.357962
0.283151
0.229746
0.327974
0.250145
0.199816
0.178567
0.126278
0.162371
0.166041
0.160953
0.113671
0.098535
0.100386
0.038501
-0.009218
0.022191
0.044772
-0.064737
-0.054952
-0.008371
-0.049828
0.074030
-0.008752
-0.016359
-0.047673
0.022049
-0.082162
0.003605
-0.060518
0.036210
-0.100979
0.063476
-0.017323
0.029050
0.028313
-0.010708
-0.019215
-0.032270
-0.034840
-0.030903
-0.069040
-0.056340
-0.046642
0.038480
-0.128778
-0.071176
-0.054248
-0.034572
-0.028148
-0.003323
-0.080057
-0.081603
-0.016460
-0.050312
-0.088920
-0.063185
-0.066502
-0.105906
0.034684
-0.026853
0.005284
-0.104614
-0.093529
-0.016732
-0.097284
-0.039059
-0.043740
0.031707
-0.050216
-0.006302
0.047642
-0.068731
-0.024671
0.049558
0.076984
0.040240
0.044430
0.048356
0.074771
0.173465
0.139389
0.119725
0.157002
0.177690
0.125338
0.093070
0.071052
0.131494
0.236726
0.191857
0.136749
0.140826
0.147899
0.150505
0.183725
0.119347
0.111658
0.048374
0.094470
0.143884
0.131143
0.164067
0.049525
0.134384
0.056818
0.045884
-0.050623
-0.009733
0.100240
0.038632
-0.008469
0.024368
0.031828
-0.048262
0.041174
0.007301
-0.091151
-0.047972
-0.052883
-0.005993
0.102300
0.304573
0.559943
0.786234
1.110831
1.284479
1.477795
1.306276
0.913538
0.502879
0.173009
0.048351
-0.191589
-0.216197
-0.136309
-0.048199
0.056896
0.041688
0.015604
0.002396
0.153350
0.041112
0.082644
0.117311
0.061665
0.162592
0.155093
0.080552
0.112092
0.232640
0.148156
0.304658
0.186698
0.236740
0.331050
0.302395
0.317203
0.341493
0.454012
0.345971
0.480790
0.464199
0.517111
0.544202
0.481605
0.528144
0.506602
0.514644
0.529249
0.547879
0.516445
0.583634
0.520899
0.569547
0.569635
0.631265
0.608725
0.610681
0.465500
0.568544
0.419290
0.546812
0.565679
0.398679
0.431492
0.386919
0.352357
0.270666
0.376505
0.280102
0.323153
0.257086
0.277512
0.146694
0.193702
0.136246
0.217498
0.183846
0.099963
0.181416
0.178356
0.039282
0.164492
0.117871
0.105289
0.071986
0.080140
0.017953
0.105432
0.016390
0.067329
0.063405
0.146810
0.055945
0.076271
0.016418
0.138164
-0.039125
-0.000816
-0.032272
0.057405
0.027493
0.131007
0.004812
-0.015450
0.022513
0.060855
0.073207
-0.009166
0.074735
-0.072809
0.038106
0.069749
0.063535
0.019367
0.009213
0.024243
-0.067329
0.062462
0.104489
0.080287
0.011112
0.022510
0.079235
0.043870
0.135087
-0.002471
0.053385
0.132779
0.044572
0.041814
0.054170
0.022940
0.055116
0.055133
-0.030145
0.059058
0.135286
0.140256
0.061330
0.035430
0.101731
0.206112
0.180089
0.072092
0.270315
0.215303
0.072449
0.212744
0.227974
0.198857
0.152676
0.249822
0.207743
0.193317
0.246099
0.238101
0.203550
0.257120
0.170177
0.269369
0.253725
0.208154
0.165658
0.219351
0.190659
0.157753
0.093891
0.140680
0.109340
0.152887
0.143708
0.107109
0.135814
0.028993
0.074721
0.076290
0.075537
0.022142
0.082349
0.021909
0.016487
0.070693
0.052045
0.039498
0.118829
0.229770
0.533347
0.758383
1.208313
1.403514
1.441372
1.310378
0.973665
0.588458
0.324335
-0.005936
-0.123952
-0.195164
-0.137650
-0.007675
0.111287
0.113811
0.000789
0.136097
0.171733
0.046097
0.153463
0.135477
0.048118
0.046713
0.263005
0.136141
0.155542
0.252167
0.187652
0.241624
0.248893
0.277789
0.302239
0.289346
0.383252
0.473991
0.457594
0.432952
0.459827
0.429307
0.492956
0.430124
0.491082
0.618653
0.491314
0.502703
0.570455
0.565997
0.612830
0.428270
0.508897
0.586910
0.598766
0.497379
0.540903
0.451766
0.519346
0.466248
0.539630
0.537243
0.425656
0.411591
0.375950
0.449257
0.348411
0.331750
0.359854
0.254438
0.286678
0.239036
0.205161
0.253309
0.168443
0.148158
0.192536
0.067272
0.124855
0.137494
0.153102
0.103882
0.094136
0.065558
0.082322
0.085285
0.074608
0.009618
0.022972
0.031914
-0.017080
0.021821
0.013071
0.017446
0.018462
0.087706
-0.069557
0.020030
0.043794
0.092533
-0.028742
0.004827
-0.071410
0.030832
0.008234
-0.026483
-0.025869
0.004582
0.059618
0.024184
-0.088804
-0.007879
0.070559
-0.003743
0.006288
0.062393
-0.152942
-0.039110
0.008260
0.015493
0.005087
-0.019590
-0.046622
-0.095421
-0.047792
0.046086
0.010524
-0.045314
-0.026496
-0.028137
-0.009534
-0.001770
0.024408
-0.066640
0.020964
-0.006695
0.064456
0.027073
0.076461
0.027403
0.040251
0.068136
0.043625
0.079333
0.097675
0.084721
0.106682
0.178257
0.147532
0.185832
0.204632
0.072374
0.231657
0.187907
0.110387
0.179369
0.149062
0.135080
0.106640
0.066054
0.099145
0.129224
0.113957
0.127794
0.096083
0.114944
0.095216
0.045286
0.025597
-0.004925
-0.083895
0.019901
0.045948
-0.021474
-0.007644
-0.028682
-0.060005
0.000863
-0.074335
0.046058
-0.068737
0.046179
-0.028996
-0.021801
-0.034037
-0.001483
0.094297
0.331599
0.633468
1.035671
1.148922
1.363420
1.266844
1.039275
0.569228
0.276545
-0.085635
-0.216745
-0.262033
-0.219551
-0.237753
-0.146586
-0.073842
0.030171
-0.075401
0.013815
-0.017219
-0.046731
0.079153
0.076704
0.035456
0.098132
0.078482
0.059038
0.191471
0.037604
0.150620
0.159155
0.128129
0.219979
0.158863
0.183057
0.226907
0.361213
0.314621
0.251968
0.299804
0.330617
0.299896
0.428965
0.462702
0.462534
0.448889
0.486890
0.485584
0.427834
0.393243
0.422298
0.512912
0.449570
0.408470
0.382802
0.394158
0.382475
0.332263
0.365778
0.442595
0.353492
0.203243
0.264525
0.306587
0.353636
0.294376
0.246271
0.225161
0.231471
0.165529
0.138604
0.148730
0.083666
0.150253
0.086279
0.126438
0.082321
0.049703
-0.034469
0.045643
-0.043797
-0.058553
-0.070315
-0.016455
-0.044004
-0.126453
0.003638
-0.067988
-0.064836
-0.044838
-0.115753
-0.007820
-0.090321
-0.009189
-0.079111
-0.092984
-0.141525
-0.102965
-0.051749
-0.002122
-0.110889
-0.094852
-0.138031
-0.167882
-0.024509
-0.055853
-0.102390
-0.050729
-0.174911
-0.200755
-0.103854
-0.106653
-0.123137
-0.107864
-0.143097
-0.086580
-0.023822
-0.067044
-0.049308
-0.049819
-0.112125
-0.129253
-0.103156
-0.068068
-0.089760
-0.136688
-0.122964
-0.105160
-0.181464
-0.094366
-0.102849
-0.145956
-0.060971
-0.091829
-0.098965
-0.126480
-0.028753
-0.080416
0.007056
-0.002738
0.024398
0.067974
-0.037624
-0.023849
0.030716
0.085239
0.126262
0.054449
0.057262
0.030950
0.054926
0.106844
0.096080
0.133886
0.111052
0.042731
0.098126
0.041820
0.088096
0.067042
0.086873
-0.039914
0.023483
-0.005012
0.001281
0.027432
0.001219
0.051683
-0.068464
-0.014423
-0.013730
-0.111205
-0.107152
-0.088487
-0.138458
-0.122475
-0.045005
-0.096964
-0.111788
-0.063276
-0.066563
-0.111016
-0.140560
-0.106232
-0.034408
0.300236
0.533493
0.889693
1.133648
1.372460
1.196786
0.959476
0.588868
0.274538
-0.058359
-0.222827
-0.233725
-0.239769
-0.249635
-0.113234
-0.125686
-0.078102
0.007148
-0.119360
0.001605
-0.049842
-0.021627
0.010024
-0.034423
0.104154
-0.103630
-0.010808
0.037389
0.058095
0.113137
0.135833
0.129400
0.195623
0.198442
0.127803
0.264450
0.254182
0.291209
0.130396
0.384603
0.303738
0.327291
0.363543
0.376940
0.402087
0.422043
0.412422
0.404534
0.406593
0.420954
0.580249
0.434221
0.405587
0.485746
0.497054
0.397223
0.428694
0.334550
0.348092
0.387309
0.314458
0.298957
0.282706
0.274889
0.264029
0.197041
0.226272
0.243726
0.174080
0.151557
0.072960
0.132396
0.123700
0.187342
0.199060
0.112622
0.059113
0.058597
-0.066435
-0.053373
0.019554
-0.003654
0.025363
0.069492
-0.036125
0.020652
-0.115943
-0.092701
-0.086774
-0.085687
-0.083883
-0.059160
-0.043657
-0.069793
-0.022834
-0.086338
-0.147478
-0.104214
-0.053000
-0.121036
-0.091691
-0.083185
-0.088235
0.001024
-0.159600
-0.043623
-0.016468
0.006283
-0.016766
-0.055543
-0.088545
-0.050180
-0.163544
-0.109756
-0.159158
-0.090192
-0.001153
-0.022252
-0.086853
0.002905
-0.024011
-0.070571
0.000650
-0.036815
-0.001339
-0.087692
0.069683
-0.059384
-0.106504
-0.054387
0.015725
-0.041158
0.015491
-0.020656
-0.048527
-0.089525
0.058213
-0.000762
0.025839
0.042884
0.096691
0.094346
0.122146
0.060502
0.119795
0.085621
0.119664
0.106881
0.026570
0.201915
0.166349
0.191582
0.093897
0.100816
0.196514
0.165492
0.123501
0.049606
0.110940
0.154465
0.111462
0.072128
0.131595
0.072232
0.060134
0.093542
0.167883
0.081837
0.049802
-0.021326
0.036833
-0.052057
0.058872
0.004618
0.034550
0.044506
-0.030719
-0.048902
-0.078884
0.009658
0.003066
-0.034694
-0.027647
0.003101
0.139197
0.347202
0.581216
0.959862
1.270516
1.446151
1.408537
1.123418
0.873379
0.502046
0.036106
-0.148080
-0.175940
-0.221697
-0.087556
-0.084027
0.002327
0.023277
0.097179
0.109520
0.137298
0.126968
0.117220
0.094118
0.170926
0.131295
0.044359
0.172190
0.178007
0.121022
0.169658
0.189660
0.273746
0.330574
0.272212
0.232678
0.337187
0.328105
0.300376
0.391122
0.407823
0.382923
0.478366
0.516340
0.450240
0.431915
0.628624
0.604500
0.581317
0.649477
0.569178
0.548094
0.611476
0.554541
0.496095
0.555316
0.468251
0.483286
0.464331
0.528699
0.541040
0.489314
0.387838
0.456061
0.506291
0.474933
0.346455
0.387609
0.339911
0.282340
0.281195
0.180107
0.269175
0.255199
0.173046
0.158272
0.172167
0.132127
0.141902
0.151977
0.051783
0.060783
0.056630
0.171778
0.146387
0.067265
0.075707
0.124610
0.101247
0.075338
0.058010
0.079686
0.091456
0.040542
0.010658
0.086093
0.045499
0.069819
0.034603
0.062100
-0.025603
0.157237
0.069326
0.051676
0.055186
0.090909
0.128958
0.166643
0.054942
0.035141
0.015643
0.015965
0.101322
0.076590
0.061951
0.137177
0.057650
-0.002498
0.053190
0.062203
0.056702
-0.013887
0.129082
0.136771
0.155494
0.078341
0.043813
0.025075
0.114395
0.048194
0.114712
0.072852
0.176861
0.069077
0.086466
0.191072
0.069734
0.136194
0.041900
0.188910
0.056273
0.158704
0.206964
0.211275
0.203617
0.256342
0.209753
0.273338
0.191588
0.310176
0.240208
0.262974
0.297070
0.190337
0.186259
0.245650
0.284003
0.237575
0.240728
0.212972
0.210381
0.238919
0.177477
0.199370
0.210429
0.156442
0.153726
0.165246
0.149019
0.109225
0.132380
0.213217
0.144439
0.071674
0.129124
0.066194
0.104138
0.076163
0.160351
0.151846
0.067861
0.074264
0.123197
0.008307
0.133453
0.212503
0.393427
0.621816
0.914250
1.241263
1.418785
1.421767
1.311373
0.962735
0.596738
0.216171
0.021801
-0.124342
-0.108093
-0.073335
0.020788
-0.001915
0.041054
0.084045
0.176139
0.171499
0.158471
0.025352
0.158271
