0.001866
0.014468
-0.047264
0.010143
0.134830
-0.088728
0.004665
-0.025116
0.051253
-0.057617
0.013561
-0.008930
-0.005367
0.082845
0.044197
0.082984
0.105190
0.050249
0.105816
0.077708
0.087338
0.050673
0.053041
0.187328
0.220503
0.093355
0.180793
0.126609
0.106619
0.146737
0.234240
0.229199
0.158318
0.159070
0.221904
0.265216
0.158937
0.168252
0.197431
0.145336
0.159160
0.153203
0.214150
0.160569
0.125304
0.034863
0.156326
0.130984
0.048026
0.059955
0.023685
0.062351
0.102537
0.061312
0.000132
0.011440
0.137096
0.143732
0.254063
0.369038
0.747208
1.019200
1.311060
1.387761
1.256271
1.087634
0.756521
0.348024
0.136195
-0.000038
-0.000252
-0.017710
0.002414
0.123618
0.119784
0.114039
0.211233
0.134506
0.190666
0.213724
0.227732
0.214319
0.205844
0.257970
0.222672
0.273091
0.370819
0.344260
0.420114
0.436627
0.411336
0.367484
0.549267
0.391872
0.585203
0.490003
0.457890
0.560328
0.536648
0.559056
0.553187
0.599874
0.652996
0.505973
0.627493
0.583813
0.498354
0.617786
0.482980
0.575010
0.480755
0.518206
0.552510
0.425746
0.457651
0.377045
0.416369
0.338675
0.362781
0.354670
0.325720
0.368589
0.382128
0.256207
0.222364
0.247804
0.293221
0.186765
0.170450
0.117880
0.185043
0.204130
0.167056
0.200614
0.209456
0.102914
0.097049
0.127640
0.120795
0.128838
0.127466
0.153504
0.079749
0.133222
0.147844
0.071538
0.098231
0.052159
0.099278
0.090185
0.117977
0.113677
0.146195
0.048976
0.089454
0.116150
0.124349
0.155721
0.021766
0.044757
0.085091
0.117307
0.063543
0.215795
0.095346
0.102783
0.258852
0.071902
0.137201
0.099894
0.190322
0.144527
0.155641
0.098916
0.154387
0.184460
0.178278
0.173439
0.216778
0.159083
0.208737
0.236565
0.259347
0.180858
0.224088
0.330074
0.244429
0.273985
0.239803
0.203031
0.210080
0.243096
0.279616
0.187762
0.316142
0.239497
0.192919
0.307242
0.225490
0.179923
0.159787
0.134836
0.209724
0.162754
0.154209
0.209130
0.130004
0.150482
0.041657
0.168320
0.083673
0.053685
0.100318
0.168815
0.143807
0.216720
0.217604
0.498041
0.672089
1.001700
1.401965
1.384618
1.399908
1.050414
0.825442
0.448514
0.182293
0.045423
0.001494
0.027307
0.123694
0.133968
0.162766
0.257899
0.219117
0.205417
0.215517
0.282892
0.253256
0.358292
0.259707
0.331238
0.265700
0.343524
0.372167
0.399900
0.388849
0.481549
0.416866
0.430804
0.482003
0.531177
0.571195
0.504176
0.501531
0.499158
0.553269
0.581740
0.610379
0.620695
0.547441
0.577207
0.646787
0.632603
0.604842
0.602049
0.578056
0.482989
0.515263
0.548650
0.449857
0.586370
0.444949
0.468356
0.437893
0.444176
0.426801
0.292293
0.372254
0.243087
0.233442
0.295844
0.260187
0.327895
0.216443
0.175739
0.202457
0.138758
0.232691
0.171673
0.154326
0.148237
0.154425
0.155360
0.012234
0.103493
0.157371
0.081149
0.159891
0.104649
0.058271
0.062306
0.073705
0.094287
0.094749
0.024512
0.076795
-0.008380
0.018484
0.074423
0.007414
0.077612
0.110622
0.130146
0.122136
0.052683
0.005045
0.137192
0.053426
0.037658
0.093855
0.067029
0.152310
0.093641
0.010140
0.083774
0.050760
0.058908
0.067464
0.018666
0.052240
0.050452
0.174296
0.109308
0.162979
0.112597
0.152299
0.115592
0.150641
0.155084
0.191422
0.229936
0.202371
0.223986
0.249062
0.183422
0.255228
0.194726
0.088270
0.225678
0.202324
0.257862
0.203459
0.237104
0.193069
0.192830
0.194758
0.209492
0.167561
0.087736
0.054124
0.116398
0.125862
0.102963
0.092593
0.070239
0.083940
0.054503
0.015840
-0.019107
-0.003023
-0.038623
0.047126
0.121020
0.324523
0.561624
0.717438
1.121969
1.321691
1.404520
1.134230
1.074750
0.569143
0.301038
0.048210
-0.089950
-0.172973
-0.098675
0.023589
0.094486
0.134953
0.138158
0.042532
0.146575
0.075320
0.070705
0.293808
0.241635
0.238914
0.209479
0.261067
0.199263
0.380864
0.288046
0.337796
0.392778
0.447379
0.344681
0.413313
0.364010
0.432373
0.526265
0.481949
0.464162
0.473963
0.485947
0.509561
0.485581
0.568419
0.542911
0.570280
0.454907
0.368157
0.504215
0.480615
0.443114
0.484615
0.441957
0.422997
0.422973
0.287668
0.361562
0.340576
0.263304
0.284876
0.260891
0.203276
0.162658
0.225225
0.172849
0.193227
0.157388
0.051840
0.096649
0.055536
0.062451
0.062234
0.063996
-0.011802
0.035863
0.044314
0.122045
0.027569
0.102816
-0.045182
-0.016716
-0.052658
-0.031304
0.038540
-0.017615
-0.031859
0.020658
-0.002048
0.011691
0.116877
-0.053759
0.008250
-0.037742
-0.111735
-0.072221
-0.021846
-0.143181
-0.047783
0.003136
-0.027635
-0.012054
0.013072
-0.086355
-0.041761
-0.041603
-0.055107
0.001759
-0.081997
-0.025729
0.018489
-0.017248
0.033418
0.019918
-0.001846
0.006144
-0.010806
0.071169
0.083810
0.005393
0.028868
0.096694
0.175422
0.075356
0.112987
0.099741
0.139095
0.075977
0.157160
0.173904
0.115006
0.115961
0.203325
0.095818
0.148881
0.127578
0.212701
0.095146
0.170121
0.075827
0.099815
0.092440
0.096770
0.006635
0.024391
0.024995
0.033443
0.053599
0.081071
0.014766
0.007968
0.008107
-0.033960
-0.058315
0.025509
-0.052868
0.038512
0.091954
0.151396
0.325545
0.693236
0.937866
1.256449
1.335728
1.230511
0.839031
0.540805
0.209306
-0.089110
-0.184670
-0.077340
-0.135214
0.002532
-0.048143
0.054417
0.088529
0.079616
0.071152
0.102501
0.149361
0.128508
0.136389
0.174753
0.152633
0.170602
0.192152
0.171578
0.331460
0.302797
0.313737
0.241441
0.426642
0.343636
0.316808
0.394498
0.497296
0.517081
0.449707
0.435624
0.499339
0.500907
0.381750
0.442105
0.452037
0.408945
0.480427
0.444600
0.417681
0.514500
0.460861
0.389645
0.405326
0.425800
0.299930
0.293788
0.384779
0.309595
0.272870
0.256988
0.192875
0.257901
0.224380
0.150947
0.146562
0.231413
0.082552
0.123437
0.083329
0.119845
0.087583
0.004753
0.056548
-0.004340
0.013571
0.049628
0.126213
0.006570
0.022627
-0.012662
-0.013207
-0.107006
-0.068153
-0.051348
-0.126932
-0.039194
0.101695
-0.030183
0.016901
-0.020614
-0.006827
-0.065499
-0.008488
0.002044
0.014618
0.022913
-0.038611
-0.032443
-0.094990
-0.018143
0.013773
-0.058702
-0.075673
-0.070716
0.001887
-0.007157
0.063811
-0.028828
0.011398
0.009251
-0.024922
-0.046773
-0.005836
0.104033
0.010795
-0.036929
0.024522
0.131336
0.071778
0.084454
0.072526
0.219697
0.149763
0.030345
0.057863
0.067336
0.159828
0.110375
0.130362
0.203959
0.185878
0.194044
0.153727
0.179160
0.156197
0.121817
0.127273
0.092617
0.047853
0.098285
0.085200
0.107155
0.033828
0.131318
0.112749
0.065988
0.090163
0.044818
0.110079
0.036163
0.038919
0.058183
0.002485
0.043306
0.045143
0.013964
0.118089
0.165207
0.463200
0.811733
1.024764
1.269721
1.347114
1.215369
0.851707
0.487445
0.273776
0.038214
-0.076419
-0.054588
-0.017981
0.093767
0.005049
-0.011572
0.204869
0.156393
0.130495
0.144072
0.143662
0.191843
0.131099
0.263288
0.247033
0.266569
0.264450
0.307941
0.295527
0.325037
0.302710
0.357882
0.421604
0.454348
0.384204
0.392163
0.483319
0.496733
0.443785
0.437815
0.503643
0.524311
0.527646
0.523758
0.513783
0.544172
0.578939
0.500534
0.527039
0.465537
0.462279
0.488711
0.427608
0.408875
0.447551
0.423573
0.442309
0.337813
0.353993
0.336484
0.209944
0.289723
0.336748
0.256577
0.229982
0.223750
0.091179
0.261066
0.180713
0.252871
0.127848
0.074458
0.123866
0.089026
0.084007
0.118541
0.032396
0.061046
0.058132
0.063920
0.085865
0.004839
0.052539
0.041778
0.098896
0.094480
0.072106
0.035303
0.029848
0.075112
0.090068
0.002480
0.035104
0.017418
-0.040626
0.042584
0.094163
0.060773
0.050559
0.006105
0.054835
0.043555
0.111445
0.064835
0.148162
-0.014415
-0.010589
-0.024538
0.168627
0.055146
0.062835
0.034591
0.123639
0.095054
0.139283
0.006686
0.100825
0.135706
0.175832
0.090960
0.094605
0.184858
0.190962
0.136381
0.219360
0.192354
0.129844
0.193527
0.290984
0.212053
0.231966
0.295544
0.240816
0.288819
0.170414
0.270071
0.199031
0.183251
0.180122
0.257645
0.205108
0.219912
0.195375
0.136499
0.104084
0.140178
0.135138
0.114374
0.053739
0.099499
0.078723
0.121039
0.034248
0.028102
0.056267
0.164582
0.230588
0.408081
0.645810
0.863642
1.225504
1.342861
1.500000
1.321767
0.889083
0.627215
0.258048
0.044712
0.014707
-0.029023
-0.000285
0.093477
0.235731
0.198978
0.214461
0.235840
0.135863
0.154867
0.272078
0.264249
0.329015
0.224913
0.284198
0.305839
0.346861
0.381104
0.401591
0.420416
0.391965
0.523933
0.525929
0.553196
0.483086
0.529334
0.546533
0.610188
0.536321
0.623138
0.662682
0.641216
0.522598
0.579430
0.587078
0.519207
0.610926
0.619623
0.573381
0.603077
0.625080
0.509556
0.621115
0.518896
0.460094
0.477868
0.477598
0.437695
0.386068
0.339630
0.306355
0.326853
0.371985
0.234164
0.271085
0.282335
0.222512
0.266028
0.287283
0.268816
0.143800
0.263882
0.182640
0.244899
0.186582
0.148884
0.053560
0.127444
0.142433
0.127657
0.100114
0.089623
0.103898
0.093531
0.063455
0.058330
0.118205
0.135723
0.156864
0.125622
0.075508
0.076980
0.099535
0.078972
0.184704
0.179500
0.153744
0.048488
0.087350
0.105443
0.180904
0.160070
0.022537
0.111460
0.155777
0.077415
0.108214
0.117355
0.105781
0.099583
0.108564
0.076612
0.085083
0.115359
0.158578
0.129108
0.096544
0.175792
0.256413
0.181264
0.236542
0.167264
0.256654
0.204558
0.257331
0.213720
0.219723
0.274115
0.251629
0.206634
0.191421
0.276883
0.259655
0.274571
0.320633
0.269204
0.106143
0.277389
0.195590
0.265971
0.198563
0.196749
0.089535
0.171552
0.114319
0.049934
0.080533
0.139900
0.107476
0.211844
0.115224
0.082842
0.108029
0.090623
0.064678
0.072877
0.257226
0.248853
0.647750
1.005177
1.173678
1.451717
1.388737
1.205326
0.856898
0.519602
0.285331
0.061929
-0.049236
-0.045623
-0.002961
0.173914
0.067560
0.160507
0.156223
0.319805
0.199413
0.208475
0.232929
0.278734
0.311947
0.295640
0.318053
0.365423
0.385250
0.373200
0.420747
0.416087
0.499591
0.407729
0.528299
0.542616
0.527671
0.503144
0.579941
0.577589
0.595493
0.587023
0.671457
0.532025
0.539616
0.554319
0.580414
0.663378
0.524793
0.533179
0.585125
0.562016
0.485568
0.560600
0.592545
0.484268
0.419236
0.418857
0.443107
0.430380
0.399313
0.288104
0.406339
0.321845
0.315959
0.264234
0.291334
0.234178
0.233169
0.185747
0.163934
0.170659
0.117169
0.064667
0.125825
0.143604
0.114082
0.029829
0.119747
0.035553
0.149064
0.095520
0.108222
0.003192
0.105720
0.054299
0.047985
-0.017189
0.046141
0.077875
0.039506
0.030488
0.075832
0.074442
0.049918
0.013650
-0.041589
0.093026
0.055496
0.023592
0.045394
0.108541
0.081187
0.059361
-0.065127
0.041729
0.062445
-0.031169
0.033994
0.005461
-0.031752
0.043809
0.046000
0.011852
0.011075
0.046444
-0.008801
0.040690
0.073354
0.124027
0.153971
0.153977
0.122959
0.114902
0.132224
0.087157
0.222584
0.159439
0.168692
0.177786
0.239237
0.138465
0.159479
0.178296
0.177163
0.206171
0.151734
0.165066
0.150824
0.187577
0.141256
0.068796
0.172749
0.216759
0.138795
0.075114
0.046350
0.108111
0.016132
0.036666
0.037874
0.053181
0.022823
0.009554
-0.053958
0.046282
0.022487
0.012898
0.095043
0.309158
0.586378
0.869582
1.134530
1.339743
1.232310
1.087578
0.763530
0.389354
0.117040
-0.066928
-0.046163
-0.062667
0.001111
-0.050391
0.036105
0.055530
0.128897
0.044390
0.024980
0.179828
0.072525
0.209807
0.242747
0.163172
0.257282
0.158933
0.252186
0.278806
0.292910
0.326395
0.319964
0.364605
0.365426
0.319820
0.446405
0.399265
0.373601
0.461741
0.440878
0.454812
0.504862
0.479680
0.422579
0.499260
0.483836
0.536298
0.529502
0.449749
0.417677
0.445230
0.454483
0.414695
0.309695
0.370471
0.386068
0.371230
0.233976
0.276132
0.338278
0.241890
0.232836
0.205202
0.210012
0.144559
0.130338
0.160092
0.080756
0.011771
0.068685
0.029760
0.043417
0.010506
0.033775
0.091477
-0.019849
-0.009783
-0.023694
-0.013118
-0.003202
-0.068893
-0.129050
0.023766
-0.012001
0.000537
-0.091988
-0.002430
-0.047693
-0.078124
-0.052424
-0.037708
-0.049830
-0.017302
-0.023162
-0.102153
-0.126670
-0.031723
-0.140119
-0.087315
-0.047856
-0.055605
-0.066538
-0.097357
-0.023504
-0.045341
-0.072101
-0.147542
0.004861
-0.051238
-0.095488
-0.074957
-0.084059
-0.050221
0.023797
-0.050630
0.010429
0.011065
0.025073
-0.004704
0.027300
0.000229
0.031604
-0.062044
0.083688
-0.026474
0.032899
0.154672
0.104080
0.069263
0.109052
0.069728
0.145492
0.092651
0.088725
0.104797
0.085729
0.020939
0.024309
-0.004857
-0.040549
-0.033184
-0.012247
-0.081841
-0.005256
0.010667
0.034231
-0.074706
-0.011222
0.028030
-0.027912
-0.102863
-0.126409
0.043259
-0.071907
-0.016472
-0.048670
-0.056662
0.143075
0.219886
0.456456
0.825892
1.104140
1.334981
1.097231
0.962385
0.683062
0.292175
0.020494
-0.182033
-0.138626
-0.187119
-0.106967
-0.148243
-0.068324
-0.003309
0.017102
-0.019480
0.024252
0.063407
0.061650
0.050831
0.097933
0.170777
0.046676
0.214405
0.212228
0.248986
0.176529
0.271627
0.353402
0.249825
0.217046
0.412459
0.347605
0.329308
0.328271
0.421628
0.456900
0.388793
0.415441
0.429527
0.457193
0.508664
0.478181
0.455169
0.446741
0.366015
0.340594
0.393110
0.373210
0.365054
0.348711
0.324243
0.336980
0.285872
0.322371
0.237180
0.293615
0.193966
0.238459
0.171848
0.174869
0.141880
0.197242
0.169417
0.077150
0.093001
0.030542
0.063468
-0.032990
0.044611
0.073709
0.054362
-0.022642
-0.107270
-0.032805
-0.021162
-0.049113
-0.035734
-0.029689
0.013188
-0.013217
-0.040784
-0.082098
-0.134775
-0.116651
-0.024344
-0.105797
-0.058429
-0.040006
-0.093856
-0.097722
-0.141093
-0.112019
-0.033104
-0.102723
-0.023575
-0.142265
-0.104911
-0.071574
-0.045423
-0.143882
-0.089870
-0.123080
-0.113195
0.016141
0.024628
-0.012110
-0.041174
-0.102847
0.032490
0.006035
-0.063495
0.032917
0.008062
-0.010288
0.054368
0.055496
0.026787
0.078135
0.083140
0.130603
0.048371
0.003939
0.118237
0.093299
0.135300
0.056535
0.096042
0.107749
0.096808
0.089199
0.212193
0.127055
0.057047
0.065391
0.095961
0.050135
0.071023
0.029707
-0.004425
0.090730
0.038291
0.001358
0.019586
-0.035347
0.043969
-0.030454
-0.105297
-0.043187
-0.027556
-0.032782
-0.043432
-0.019696
0.023650
0.100187
0.341893
0.545285
0.884040
1.164717
1.294489
1.266271
0.977939
0.686050
0.332987
0.101218
-0.099360
-0.128579
-0.137788
-0.074711
0.056327
0.053219
0.142538
0.055968
0.014153
0.095250
0.164166
0.070878
0.226557
0.135435
0.199480
0.257018
0.225133
0.239387
0.317693
0.321910
0.366706
0.290861
0.316655
0.436771
0.343760
0.402666
0.414048
0.449510
0.456426
0.487465
0.469072
0.487088
0.455607
0.545797
0.541281
0.515118
0.485328
0.542249
0.421307
0.499822
0.476555
0.355010
0.444702
0.317651
0.401378
0.311657
0.442167
0.325297
0.342149
0.318614
0.341541
0.322324
0.281189
0.231340
0.189218
0.167920
0.158014
0.142528
0.164927
0.044796
0.081845
0.123590
0.074028
0.091436
0.075914
0.057070
0.000539
0.040042
0.134268
0.071809
0.044509
0.025367
0.063202
0.066665
0.028690
-0.006795
0.063798
0.013877
-0.025124
0.030649
0.017004
0.084204
0.060746
0.020961
-0.015882
-0.046021
0.049893
0.088631
0.030210
-0.022138
-0.021201
0.002960
0.087869
0.021312
0.030070
0.007251
0.044129
0.009213
0.039120
0.068811
0.012977
0.038969
0.077437
0.057211
0.097063
0.174675
0.142096
0.118391
0.091731
0.187321
0.129648
0.147334
0.093558
0.161828
0.082183
0.127336
0.210826
0.313948
0.276618
0.256262
0.237994
0.143834
0.212527
0.167722
0.264835
0.162718
0.163880
0.213700
0.158207
0.175408
0.162068
0.148174
0.130531
0.097931
0.077776
0.135306
0.010684
0.050375
0.000250
0.133704
0.071746
0.076725
-0.026787
0.038014
0.079532
0.048374
0.071853
0.315526
0.348024
0.696767
1.064006
1.290983
1.354641
1.335360
1.154189
0.690213
0.342858
0.227369
-0.093575
-0.085943
0.004291
0.021507
0.132230
0.079709
0.111759
0.110033
0.160428
0.167975
0.209003
0.227055
0.239104
0.265975
0.259280
0.285210
0.347359
0.250334
0.325233
0.315774
0.469792
0.463119
0.380780
0.355154
0.533422
0.466536
0.488298
0.535409
0.532613
0.495005
0.525333
0.479903
0.574900
0.555835
0.623182
0.559267
0.599400
0.565953
0.585281
0.481809
0.514445
0.499783
0.473820
0.451835
0.512180
0.533481
0.445089
0.441050
0.401931
0.310651
0.312296
0.217833
0.360419
0.320538
0.355120
0.229870
0.221131
0.246859
0.148047
0.170588
0.079614
0.166083
0.086490
0.102532
0.089541
0.118588
0.155741
0.052608
0.024468
0.018622
0.075983
0.033006
0.056650
0.102636
0.027976
0.093458
0.014613
0.056786
0.063379
-0.004087
0.044097
0.093527
0.076297
0.075270
0.059554
0.107412
0.090390
0.117297
0.001190
0.007775
-0.002982
0.114217
0.042514
-0.029643
0.097609
0.063871
0.024860
-0.036458
0.081810
0.095690
0.034331
0.072243
0.000735
0.066221
0.087239
0.150747
0.126936
0.166220
0.165450
0.183641
0.122745
0.163148
0.199014
0.101687
0.205481
0.164451
0.269182
0.202129
0.255475
0.236245
0.260010
0.220565
0.254407
0.231880
0.133707
0.158251
0.202224
0.263677
0.192923
0.209869
0.228500
0.164557
0.133297
0.111386
0.088398
0.136444
0.056450
0.082080
0.072952
0.013642
0.053002
0.029246
0.106166
0.017784
0.072428
0.060401
0.132052
0.190755
0.389601
0.709498
1.017939
1.267247
1.343813
1.251273
0.916296
0.661647
0.267888
0.014849
-0.146528
-0.109763
-0.066269
0.035246
0.021930
0.139230
0.140137
0.022678
0.109245
0.120357
0.217139
0.157679
0.162041
0.235030
0.210054
0.261957
0.180180
0.362672
0.314960
0.366656
0.365080
0.230849
0.354668
0.406637
0.466735
0.544096
0.493728
0.544272
0.456363
0.517333
0.441134
0.518971
0.639586
0.555954
0.458836
0.574120
0.552825
0.445658
0.438417
0.492875
0.412248
0.475108
0.468990
0.392824
0.412370
0.446913
0.349258
0.373619
0.323877
0.317965
0.326993
0.333574
0.237688
0.209055
0.211738
0.140378
0.176435
0.183733
0.038618
0.138613
0.057997
0.115314
0.011557
0.059178
0.049269
0.041759
0.082416
0.053364
0.022562
0.037278
0.016504
-0.053573
0.071093
0.014763
-0.015962
-0.019100
-0.046035
-0.083323
-0.093699
-0.024960
0.149049
-0.048642
-0.010720
-0.039964
0.050880
0.006641
0.019516
-0.000114
-0.045811
-0.058648
-0.121895
0.012082
-0.051152
-0.092571
-0.054634
-0.000966
0.002907
-0.016756
-0.127953
0.025009
0.046333
-0.040417
0.092448
-0.011700
0.046928
0.012689
0.107454
0.061577
0.055974
0.093128
0.030192
0.022770
0.085209
0.096804
0.064723
0.093263
0.080939
0.089141
0.148433
0.142049
0.135119
0.172572
0.118045
0.057391
0.121251
0.109763
0.054508
0.036574
0.088483
0.078179
-0.012170
0.070650
0.058620
0.013177
0.083125
-0.058113
0.063373
-0.006323
0.038491
0.057477
0.019078
0.038872
-0.015225
-0.060925
0.009683
-0.009737
0.106604
0.179670
0.380073
0.643174
0.942586
1.174142
1.261594
1.205641
0.894080
0.509508
0.167070
-0.031103
-0.174453
-0.192295
-0.141583
-0.085922
-0.102759
0.010116
-0.048993
0.011085
0.082492
0.051038
0.083691
0.137562
0.089033
0.202457
0.073279
0.168498
0.147650
0.194886
0.213787
0.221013
0.304394
0.281714
0.317981
0.336703
0.319767
0.407340
0.386544
0.330514
0.524032
0.423138
0.468025
0.441984
0.457577
0.403892
0.397006
0.456841
0.390432
0.383656
0.412747
0.377603
0.392746
0.371806
0.307517
0.341755
0.239190
0.276552
0.305806
0.185836
0.260756
0.200684
0.208175
0.260915
0.223122
0.132857
0.164807
0.146637
0.095943
0.038175
0.049486
0.019616
-0.028562
-0.130130
0.009561
-0.112666
-0.079983
-0.080065
-0.064415
-0.106204
-0.063571
-0.076355
-0.013809
-0.038508
0.027350
-0.074552
-0.067718
-0.074803
-0.110251
-0.079910
-0.107298
-0.065845
-0.096819
-0.142549
-0.127035
-0.019350
-0.163596
-0.099656
-0.090003
-0.035196
-0.140468
-0.146563
-0.185618
-0.108078
-0.073214
-0.126900
-0.087975
-0.167964
-0.024107
-0.145476
-0.030487
-0.075483
-0.128612
-0.056558
-0.085244
-0.094391
-0.042890
-0.043513
-0.019649
0.030821
0.003614
-0.072439
-0.024872
-0.013190
0.072935
0.058580
0.080772
0.113604
0.049252
0.128708
0.093198
0.097696
0.017698
0.070144
0.073129
0.047885
0.092134
0.111905
0.062362
0.027573
0.067100
0.007020
0.013334
0.018329
0.010995
-0.098094
0.015958
-0.036042
-0.035598
-0.000075
-0.094126
-0.034643
-0.030221
-0.060309
-0.094194
-0.103458
-0.087853
-0.079833
-0.011549
0.204972
0.451444
0.510572
0.947310
1.157992
1.265282
1.088169
0.912187
0.490193
0.158417
-0.044629
-0.226575
-0.246418
-0.130461
-0.145072
-0.048078
-0.043022
0.009040
-0.017441
0.062443
0.070325
0.039444
0.069199
0.080919
0.139487
0.108927
0.087769
0.163286
0.121890
0.252575
0.289472
0.274607
0.390362
0.285697
0.293414
0.364762
0.316450
0.409111
0.383785
0.392574
0.397524
0.406173
0.464051
0.428897
0.459758
0.419571
0.433005
0.377429
0.459521
0.465373
0.372580
0.360495
0.404625
0.307613
0.402403
0.361015
0.253755
0.270967
0.221865
0.237648
0.175774
0.172622
0.231802
0.170034
0.140566
0.162046
0.118498
0.087565
0.068753
0.096354
-0.023384
0.019220
0.019104
-0.029998
0.057081
-0.042429
-0.011390
-0.128479
-0.097450
-0.135667
-0.052172
-0.057483
-0.132432
-0.106662
-0.069893
-0.072391
-0.144443
-0.105099
-0.074084
-0.137492
-0.019065
-0.043267
-0.036175
-0.008563
0.006651
-0.017965
0.007812
-0.041618
-0.124585
-0.050661
-0.078904
-0.091590
-0.125082
-0.049783
-0.016047
-0.033280
-0.044332
-0.055439
-0.071983
0.011075
-0.018031
-0.061428
-0.041320
0.050175
0.003687
0.064076
0.002699
0.006588
0.092296
0.031457
-0.034971
0.058057
0.027339
0.124480
0.051456
0.197284
0.075652
0.116251
0.098385
0.155529
0.105772
0.176660
0.136395
0.204813
0.113376
0.154173
0.082572
0.124240
0.086119
0.095159
0.068830
0.064779
0.048261
0.086670
0.004436
0.092130
0.036605
0.039890
0.045052
0.091254
-0.081196
-0.025713
-0.036798
-0.052884
0.037140
-0.012237
-0.031086
0.023876
0.277434
0.511906
0.729471
1.012873
1.239527
1.284074
1.190715
0.835648
0.515413
0.222022
-0.080008
-0.056873
-0.161196
0.014361
-0.010805
0.069044
-0.068843
0.112720
0.040267
0.089193
0.122159
0.190722
0.111818
0.190925
0.232577
0.293643
0.187039
0.321746
0.317565
0.304899
0.353551
0.336077
0.428085
0.370151
0.419340
0.415074
0.376442
0.428617
0.502630
0.579861
0.500286
0.550287
0.511672
0.517201
0.605604
0.535535
0.529209
0.494418
0.426474
0.544313
0.463843
0.477466
0.480879
0.454483
0.384970
0.425312
0.471079
0.436985
0.367579
0.328819
0.371340
0.281397
0.314747
0.230866
0.244035
0.202534
0.234872
0.171559
0.174553
0.140445
0.181069
0.137333
0.160613
0.160354
0.153895
0.026687
0.113508
0.055514
0.027003
0.037689
0.004789
0.045384
0.076919
0.112464
0.130596
0.119773
0.018737
0.057784
0.026306
0.076878
-0.007402
0.000140
0.028264
-0.021355
0.012707
0.002786
0.035027
0.100268
0.009519
-0.000758
0.040078
-0.027508
0.093190
0.026764
0.024281
0.004986
0.031233
0.005008
0.098516
-0.002455
0.048712
0.053599
0.056394
0.108835
0.070685
0.124551
0.038408
0.084127
0.101898
0.084629
0.120265
0.183184
0.168040
0.176178
0.157143
0.251225
0.239125
0.237173
0.300952
0.270209
0.194066
0.262247
0.160724
0.233816
0.313231
0.277085
0.158763
0.246168
0.118244
0.209666
0.211647
0.098537
0.144897
0.131529
0.163355
0.199816
0.039871
0.200034
0.079389
0.131436
0.066999
0.114669
0.077075
0.002352
0.066183
0.171965
0.138278
0.283814
0.328039
0.554401
0.911278
1.261000
1.426660
1.421872
1.260098
0.857301
0.523438
0.176626
0.038217
0.019780
-0.039634
0.042793
0.110334
0.102616
0.102575
0.209096
0.241840
0.260172
0.227840
0.244732
0.279579
0.262822
0.373009
0.367518
0.346234
0.315937
0.331843
0.354280
0.341272
0.465037
0.443146
0.450142
0.478248
0.474830
0.538428
0.468612
0.595143
0.528723
0.546308
0.620154
0.673274
0.646392
0.501183
0.522847
0.518088
0.585132
0.667442
0.536781
0.564542
0.501538
0.570432
0.545133
0.386356
0.544381
0.430465
0.448313
0.345703
0.411176
0.407182
0.356321
0.324778
0.335723
0.317854
0.211686
0.221875
0.247532
0.163861
0.230155
0.198658
0.147023
0.082801
