0.015130
0.011808
-0.008656
0.051005
0.028636
0.004431
-0.010398
0.042745
-0.008299
0.030546
0.046666
0.037601
0.084886
-0.025486
0.075519
-0.008354
0.028807
0.010958
-0.025604
-0.025674
0.061445
0.032574
0.081884
0.032635
0.100425
0.037265
0.118072
0.152411
0.098792
0.089938
0.141464
0.153417
0.156963
0.091299
0.144472
0.211903
0.143813
0.176554
0.210911
0.261309
0.162314
0.177602
0.168718
0.232329
0.193944
0.133027
0.283018
0.127446
0.143088
0.168721
0.156056
0.148604
0.081704
0.083909
0.063420
0.083379
0.116256
0.117658
0.069859
0.076422
0.118641
-0.032771
0.065685
-0.026126
-0.009577
0.019321
0.040732
0.099765
0.073735
0.013147
0.000906
0.050589
0.068726
0.130927
0.238483
0.352162
0.774817
1.046576
1.284505
1.387785
1.353745
1.104588
0.804882
0.391159
0.021486
-0.147287
-0.169150
-0.138189
-0.149119
-0.003914
0.024499
0.072684
0.074285
0.088327
0.069419
0.055445
0.159127
0.151341
0.105537
0.126011
0.193153
0.193191
0.189352
0.191223
0.225872
0.239343
0.167455
0.258185
0.235770
0.260304
0.269935
0.285890
0.311002
0.299599
0.446038
0.440998
0.431486
0.470991
0.426527
0.473878
0.516114
0.510137
0.502638
0.543425
0.545539
0.488065
0.567115
0.653338
0.647269
0.614656
0.470785
0.590481
0.585093
0.464867
0.533735
0.503937
0.435788
0.533288
0.474563
0.478672
0.431097
0.519235
0.374128
0.356587
0.397778
0.279752
0.327511
0.285919
0.243036
0.269824
0.300606
0.201208
0.241044
0.184642
0.145792
0.154153
0.240238
0.107329
0.155315
0.194185
0.153727
0.138428
0.141517
0.137035
0.158576
0.111367
0.182664
0.069332
0.175209
0.055956
0.123181
0.095516
0.097981
0.046222
-0.027580
0.054136
0.088839
0.099675
0.116968
0.083476
0.044627
0.104086
0.064097
0.032618
0.137263
0.111830
0.052823
0.076094
0.086909
0.080675
0.118514
0.034230
0.082629
0.071797
0.057923
0.013809
0.098914
0.080514
0.050605
-0.009075
0.022274
0.073731
0.068043
0.098334
0.076001
0.005199
0.095405
0.077351
0.071968
0.138552
0.053356
0.077424
0.081143
0.063638
0.101973
0.064500
0.009367
0.181745
0.244662
0.071489
0.125078
0.147399
0.098672
0.151455
0.238996
0.161175
0.166068
0.169832
0.254124
0.167771
0.202168
0.111919
0.292211
0.244280
0.281383
0.258052
0.232563
0.271485
0.224835
0.191138
0.259545
0.218005
0.284956
0.179839
0.136064
0.233793
0.218132
0.183453
0.243464
0.155560
0.165041
0.093169
0.097554
0.182777
0.076620
0.106400
0.132318
0.160449
0.083467
0.151071
0.083643
0.082537
0.102786
0.147103
0.178340
0.033321
0.060909
0.036505
0.089356
0.001162
0.050633
0.233044
0.316493
0.640764
1.010228
1.317736
1.500000
1.426123
1.241973
0.851692
0.528553
0.192453
0.030309
-0.111595
-0.134807
-0.114493
0.031785
-0.010365
0.040067
0.057373
0.120901
0.054823
0.060053
0.176238
0.070219
0.083378
0.080364
0.117946
0.162623
0.147864
0.189837
0.289753
0.178974
0.214133
0.250617
0.292222
0.293932
0.248082
0.351996
0.341010
0.371814
0.416555
0.464077
0.403323
0.419486
0.446948
0.473789
0.480832
0.444362
0.563770
0.512042
0.512330
0.630242
0.610960
0.600091
0.544974
0.554063
0.617849
0.551440
0.594567
0.588016
0.432653
0.493775
0.464384
0.477646
0.397791
0.434136
0.367723
0.449143
0.362120
0.377561
0.354295
0.387937
0.330508
0.276581
0.226363
0.216826
0.237553
0.228342
0.218821
0.154017
0.090965
0.227965
0.144154
0.071595
0.100544
0.103304
0.104868
0.089454
0.112330
0.018820
0.068887
0.019744
0.043342
0.035606
0.051573
0.017845
0.059445
0.065667
0.066007
0.077744
-0.027526
0.054521
0.039771
-0.059930
-0.011354
0.057823
0.015365
-0.061306
-0.050369
0.064837
0.051361
0.034893
-0.044183
0.087079
0.074450
0.015623
-0.006932
0.004962
0.050754
0.070323
-0.004058
0.034376
-0.004309
0.009985
0.016177
0.026692
0.002565
0.035601
0.028019
0.088268
0.032973
-0.000823
0.017000
0.043384
0.023874
-0.082004
0.048508
0.070214
0.021972
0.067179
0.018544
-0.025358
0.064842
-0.034666
0.084155
-0.018748
-0.042271
0.001857
0.074212
0.106291
0.115111
0.128253
0.086318
0.074747
0.138708
0.176969
0.066645
0.110464
0.110538
0.309317
0.186822
0.167705
0.232242
0.173052
0.116424
0.141782
0.192799
0.145529
0.131315
0.119872
0.140923
0.117353
0.112463
0.088219
0.068447
0.048952
0.050281
0.010977
-0.014981
0.022939
0.034101
-0.023973
-0.049337
-0.003351
0.071103
-0.014485
0.029712
-0.039936
0.013953
0.014381
-0.045668
0.022814
0.023634
0.023066
-0.087127
-0.087199
-0.031763
0.034520
0.198553
0.461252
0.737196
1.024293
1.295736
1.386794
1.179982
0.900688
0.576589
0.156295
-0.119098
-0.236279
-0.221404
-0.151121
-0.071989
-0.045151
-0.131313
-0.024491
-0.095911
0.118715
-0.032578
0.061307
0.068070
0.031260
0.025822
0.026375
0.160366
0.113396
0.000877
0.084776
0.088195
0.073370
0.108920
0.127285
0.194217
0.190792
0.228148
0.294379
0.231983
0.255971
0.265084
0.302370
0.234658
0.388018
0.410782
0.390915
0.431687
0.413823
0.387166
0.388693
0.406746
0.466069
0.424997
0.422137
0.465347
0.387162
0.479531
0.508182
0.462366
0.472335
0.414456
0.389999
0.422861
0.346165
0.364231
0.434991
0.386378
0.311867
0.240630
0.268604
0.231730
0.241578
0.212913
0.132151
0.201456
0.102674
0.089700
0.133700
0.158396
0.045018
0.032518
0.053915
-0.012936
-0.005142
-0.012036
-0.002519
-0.008750
-0.035352
-0.028221
0.004143
-0.104615
-0.007108
-0.049188
-0.012708
-0.051139
-0.051823
-0.047510
0.039405
-0.082390
-0.084090
-0.023979
-0.017616
-0.077867
-0.054271
-0.075419
0.070351
-0.052416
-0.028397
-0.079002
-0.105372
-0.081172
-0.049744
-0.086357
-0.025020
-0.038004
-0.037540
-0.033972
-0.041990
-0.059640
-0.052186
-0.008984
-0.075638
-0.008886
-0.033379
-0.037187
-0.043217
-0.012433
-0.047950
-0.079381
-0.057433
-0.058770
-0.059369
-0.066909
-0.076365
-0.026437
0.009881
-0.071252
0.005712
0.054563
-0.005372
0.030288
-0.085110
0.047200
-0.041584
-0.052557
-0.019193
-0.069097
-0.018349
0.019889
0.053082
0.014095
0.009772
0.042076
0.074717
0.043617
0.040175
0.122802
0.093609
0.086594
0.132337
0.125165
0.100443
0.149100
0.189649
0.157676
0.177410
0.111753
0.168373
0.071783
0.090991
0.173313
0.082460
0.062788
0.083542
0.051411
0.023686
0.045966
0.004598
-0.017329
0.045736
-0.038827
-0.003029
0.030002
-0.072016
-0.019069
-0.058234
-0.065321
0.033170
-0.062628
-0.058505
0.029916
0.022017
-0.072732
0.002537
-0.061027
-0.024815
-0.035137
0.175524
0.362600
0.635796
0.894173
1.241906
1.368162
1.252039
0.996094
0.674002
0.284772
-0.036433
-0.241717
-0.224389
-0.259713
-0.190360
-0.161333
0.085016
0.042302
-0.024083
0.073838
-0.044781
0.044731
0.118071
0.083809
0.056868
-0.010400
0.103411
0.100387
0.046749
0.102094
0.152109
0.166558
0.087904
0.191161
0.188068
0.196131
0.152043
0.237041
0.309351
0.310376
0.299418
0.230530
0.333744
0.398374
0.430268
0.401599
0.400288
0.417791
0.494377
0.530922
0.565339
0.491771
0.519694
0.494304
0.542426
0.495095
0.512740
0.471812
0.502690
0.377530
0.428034
0.439142
0.473140
0.451861
0.440592
0.423763
0.354373
0.310405
0.398127
0.224445
0.407168
0.355107
0.248442
0.181953
0.250272
0.249732
0.143241
0.192305
0.123031
0.115407
0.116963
0.140773
0.095877
0.104295
0.111157
0.057271
0.072512
0.047435
0.064344
0.033703
0.129705
0.059767
0.052870
0.058144
0.106359
0.099904
0.068889
0.024336
0.040422
0.079178
-0.046814
-0.000529
0.022928
0.002578
0.022931
0.012665
-0.056375
-0.039395
0.014276
0.057150
0.038134
-0.012860
0.065926
0.133551
0.108020
0.008843
0.009912
0.152204
0.045352
0.033466
0.056057
0.055204
0.099663
0.074557
0.041654
0.021545
0.048197
-0.030558
0.048790
0.069502
0.089895
0.017624
0.018421
0.031401
0.080472
0.087202
0.053503
-0.047074
0.097620
0.029309
0.018687
0.101369
0.050352
0.028211
0.094046
0.117360
0.109572
0.143525
0.073412
0.217386
0.128314
0.100803
0.143338
0.135941
0.254010
0.115742
0.199151
0.147447
0.191685
0.128595
0.228012
0.292181
0.213548
0.251464
0.211702
0.185868
0.281308
0.226249
0.217424
0.180312
0.153214
0.215151
0.206099
0.173349
0.097225
0.199312
0.167323
0.077452
0.178264
0.047464
0.060917
0.111510
0.086834
0.057818
0.084259
0.081549
0.111115
0.045221
0.082310
0.089923
0.092711
0.159370
0.126835
0.001060
0.050671
0.003010
0.145782
0.178172
0.303804
0.576283
0.996021
1.271322
1.391259
1.408344
1.276360
0.925438
0.514257
0.162030
0.019476
-0.139378
-0.138957
-0.050414
0.021301
0.053760
0.084315
0.137675
0.120209
0.112571
0.114507
0.094805
0.148586
0.118195
0.232608
0.068544
0.117475
0.190432
0.286203
0.247380
0.229947
0.251075
0.249070
0.238781
0.264285
0.289463
0.351282
0.402510
0.339187
0.431632
0.463448
0.453826
0.445348
0.427257
0.458199
0.578931
0.542731
0.506562
0.495519
0.551571
0.553761
0.566075
0.567146
0.536593
0.649459
0.616951
0.526504
0.569484
0.592062
0.591952
0.600390
0.606841
0.527452
0.530883
0.498724
0.463356
0.420418
0.449681
0.373597
0.478326
0.331975
0.485247
0.306469
0.338806
0.233978
0.380270
0.329686
0.181468
0.246171
0.098734
0.227380
0.233706
0.193501
0.164896
0.105788
0.066342
0.088706
0.123411
0.151859
0.115095
0.119754
0.183754
0.102422
0.109539
0.071394
0.076856
0.132563
0.096841
0.091559
0.098882
0.036014
0.045173
0.037861
0.107257
0.011841
0.128580
0.010094
0.122712
-0.018288
0.114137
0.050325
0.074870
0.047663
0.058138
0.141108
0.016668
0.105977
0.109373
0.076178
0.066098
0.086262
0.089011
0.120213
0.066982
0.087514
0.129340
-0.030191
0.133480
0.191891
0.081808
0.077144
0.092369
0.162352
0.060802
0.035138
0.022941
0.114047
0.061511
0.140170
0.159317
0.057957
0.056598
0.137567
0.075377
0.168289
0.136210
0.065994
0.114570
0.123517
0.072204
0.111252
0.150183
0.156507
0.238436
0.227151
0.216524
0.285258
0.239076
0.225670
0.177183
0.250918
0.309734
0.243447
0.258395
0.349968
0.336165
0.221902
0.268298
0.212659
0.147186
0.185242
0.171692
0.152978
0.192911
0.110172
0.201181
0.153562
0.099627
0.167754
0.065872
0.090011
0.119515
0.128858
0.057250
0.139546
0.033540
0.062352
0.121938
0.066768
0.079555
0.086907
0.060625
-0.000077
-0.043323
0.069078
0.040064
0.106448
0.211747
0.529212
0.811760
1.107641
1.366477
1.460388
1.328979
0.992679
0.668487
0.323964
0.037792
-0.103525
-0.254118
-0.121405
-0.042933
0.012934
0.037682
0.040265
0.055197
0.072709
0.085105
0.129067
0.076440
0.157433
0.097226
0.196721
0.072923
0.214742
0.085964
0.140691
0.220643
0.178287
0.213876
0.214173
0.268071
0.267420
0.360139
0.330289
0.253390
0.318355
0.399208
0.314551
0.350867
0.402243
0.466654
0.397704
0.407180
0.465307
0.421803
0.512859
0.536480
0.554413
0.556931
0.459881
0.568012
0.509937
0.565755
0.542372
0.477681
0.467393
0.450231
0.455214
0.410656
0.411435
0.462914
0.364744
0.370685
0.371975
0.298346
0.326745
0.269214
0.272946
0.297040
0.244042
0.225582
0.171313
0.173680
0.222217
0.196306
0.135473
0.186677
0.153161
0.082551
0.106886
0.081259
0.045137
0.022610
0.064842
0.022010
0.105076
0.101100
-0.027846
0.026915
-0.023463
0.056070
-0.032312
0.039078
-0.032426
0.015874
-0.006800
0.056939
-0.028089
0.029543
-0.072500
0.002336
-0.022060
-0.051443
0.032425
0.021004
-0.059274
-0.040033
-0.011266
-0.022436
-0.124659
-0.092936
0.010535
0.025551
0.056234
0.008785
-0.061908
-0.077452
0.023819
-0.064139
-0.043208
-0.097179
-0.026261
-0.028009
-0.046423
0.049856
-0.053568
-0.011736
-0.002065
-0.045817
0.004120
0.008791
-0.019205
0.058806
0.011102
-0.047662
0.000905
-0.046208
0.018560
0.000750
-0.051966
-0.046722
-0.006558
-0.072699
0.039790
-0.008971
0.036433
0.006335
0.072861
0.035696
0.119976
0.099273
-0.017351
0.107446
0.106037
0.111592
0.132813
0.145689
0.077122
0.077552
0.123499
0.169685
0.126469
0.067257
0.113318
0.122342
0.050390
0.107549
0.074175
0.032591
0.079055
0.000530
-0.059859
0.028398
-0.041908
0.022135
-0.018990
-0.066676
-0.096357
-0.041777
-0.096378
-0.007628
-0.050509
-0.063960
-0.029995
-0.061232
-0.082402
-0.115988
-0.058212
-0.067355
-0.108298
-0.060912
-0.059476
-0.022504
0.145908
0.243386
0.600944
0.801759
1.087603
1.322034
1.259627
1.057648
0.610123
0.355979
-0.024559
-0.220541
-0.241882
-0.296045
-0.269727
-0.196308
-0.119805
-0.137053
-0.004204
-0.104033
-0.021774
-0.013347
-0.077045
-0.045959
0.052505
-0.018590
0.003306
-0.018376
0.064993
0.026610
0.114646
0.125769
0.080103
0.118993
0.125547
0.186974
0.173677
0.159886
0.188582
0.198159
0.261341
0.195456
0.365854
0.310379
0.314612
0.400811
0.385554
0.353181
0.406524
0.387193
0.442299
0.407861
0.398068
0.443386
0.442132
0.438114
0.438057
0.490543
0.415618
0.401161
0.426428
0.433608
0.434556
0.461975
0.285976
0.339779
0.317025
0.289429
0.216832
0.290577
0.266870
0.192646
0.139012
0.159241
0.130242
0.129146
-0.003078
0.071400
0.122014
0.060489
-0.031041
0.034948
0.005165
-0.006612
0.006438
-0.004063
0.017340
-0.076394
-0.069684
-0.055889
-0.073538
-0.006548
-0.112098
0.038239
-0.048842
-0.109895
-0.068388
-0.054330
-0.168030
-0.091636
-0.064064
-0.013898
-0.049313
-0.122248
-0.145149
-0.114224
-0.058363
-0.071465
-0.049502
-0.037597
-0.020489
-0.160667
-0.106757
-0.030675
-0.097869
-0.056247
-0.029429
-0.086474
-0.057699
0.032326
-0.044889
-0.107563
-0.075082
-0.009004
-0.004293
-0.109727
-0.061508
-0.123400
-0.105623
-0.056828
-0.186303
-0.072288
-0.129051
-0.035039
-0.123264
-0.074911
-0.122887
-0.059995
-0.037942
-0.024730
-0.084442
-0.069455
-0.090265
-0.024748
-0.074894
-0.033644
0.041752
-0.050719
0.086732
0.006915
-0.030074
0.046260
-0.000296
-0.020312
0.046739
-0.022533
0.022568
0.029021
0.063545
0.146929
0.004992
0.127293
0.069481
0.043448
0.089401
0.115354
0.129637
0.105628
0.167233
0.021924
0.081763
0.016289
0.066000
0.052072
-0.048271
0.008509
0.012665
0.023569
-0.048571
0.061417
0.009491
0.009150
0.029704
-0.063786
-0.053894
-0.052890
-0.186971
0.006529
-0.027488
-0.097509
-0.020592
-0.055347
-0.004827
-0.055225
-0.072772
-0.065913
-0.093092
-0.007538
0.235344
0.430078
0.845794
1.087533
1.307747
1.271968
1.110039
0.850705
0.482047
0.140137
-0.105025
-0.272376
-0.276445
-0.196570
-0.180011
-0.046223
-0.071260
0.048475
0.023315
0.018769
0.043582
0.014618
-0.030325
0.056083
-0.050864
0.016227
0.043019
0.016524
0.125504
0.014278
0.038094
0.026289
0.155745
0.159004
0.237694
0.107645
0.210583
0.215622
0.338131
0.311258
0.312267
0.296480
0.399486
0.329509
0.372898
0.417317
0.382755
0.456047
0.534611
0.448637
0.470706
0.442425
0.530430
0.491776
0.418114
0.570451
0.567347
0.484633
0.427458
0.452854
0.425717
0.486214
0.423534
0.409197
0.375933
0.343966
0.376478
0.339808
0.363325
0.295094
0.325716
0.231181
0.148906
0.149573
0.195881
0.240893
0.201628
0.148690
0.150785
0.200547
0.084161
0.067137
0.037634
0.071752
0.041668
0.079703
0.017468
0.010297
0.073347
0.097216
-0.004621
-0.032101
-0.050356
0.045926
-0.022504
0.025850
0.011129
0.016747
-0.096584
0.011096
0.033545
-0.039098
0.055420
0.014640
0.026722
0.003823
0.009533
0.019781
-0.019783
0.057011
0.109661
-0.010856
-0.022360
0.056476
0.055133
0.062032
0.074791
0.054076
0.007182
-0.019750
-0.053802
0.055982
-0.002426
0.071612
0.040472
-0.029831
-0.036536
0.051924
0.020414
0.021289
0.027412
-0.013078
0.074432
0.040245
0.000312
0.078099
0.066784
0.026090
-0.018907
-0.015303
0.085877
0.073712
0.041000
0.051493
0.073195
0.027515
0.093478
0.058435
0.173402
0.043786
0.029989
0.106454
0.197218
0.106427
0.183622
0.130739
0.166501
0.184123
0.195770
0.137229
0.163394
0.233587
0.185540
0.202761
0.225551
0.216659
0.273536
0.201515
0.228448
0.191951
0.186199
0.193601
0.039902
0.109836
0.120149
0.110333
0.085440
0.159097
0.002779
-0.002280
0.078908
0.004231
0.094699
0.013137
0.007049
0.036292
0.140137
0.075642
0.027293
0.037760
0.020320
-0.035019
0.037094
0.041102
0.014714
0.012929
0.095149
0.198615
0.510107
0.707292
1.024108
1.281873
1.414605
1.316972
1.060505
0.701749
0.387846
0.037586
-0.104124
-0.164923
-0.210697
-0.098071
-0.028073
0.018914
0.063453
0.050011
0.089631
0.115694
0.089000
0.030444
0.102897
0.067216
0.106885
0.112431
0.161991
0.182179
0.137938
0.208457
0.193836
0.164912
0.200696
0.244861
0.264893
0.281527
0.304592
0.340416
0.287720
0.330391
0.377706
0.459834
0.403249
0.495724
0.488697
0.498393
0.486213
0.544284
0.567611
0.522058
0.599664
0.591371
0.542432
0.481274
0.526531
0.555432
0.554181
0.609886
0.488557
0.563294
0.538890
0.524380
0.514196
0.430679
0.431252
0.360609
0.465392
0.372724
0.413453
0.359079
0.331552
0.271677
0.278559
0.299205
0.185949
0.203796
0.224724
0.168286
0.087906
0.190702
0.144751
0.080034
0.175790
0.143827
0.109101
0.057166
0.093753
0.037127
0.183475
0.038754
0.049295
0.104179
0.117187
0.018846
0.015626
0.045559
0.067909
-0.021449
-0.020897
0.057462
0.067662
-0.019592
0.057639
0.037618
0.039338
-0.008175
0.003965
0.068662
0.068790
0.049045
0.022913
-0.006146
0.100348
-0.032810
0.097392
0.011435
0.086089
0.092537
0.072099
0.028604
0.053981
0.018085
0.091071
0.016935
0.107318
0.063646
0.045941
0.062624
0.005977
-0.065529
0.058700
0.018954
0.031151
0.026969
0.022626
-0.014515
0.105393
0.077270
0.010951
0.114365
0.012011
-0.000720
0.036033
0.037398
0.048843
0.038023
0.157266
0.044848
0.058425
0.069287
0.136032
0.185933
0.107278
0.164284
0.145122
0.088081
0.189373
0.129002
0.205611
0.139484
0.147418
0.265619
0.251953
0.176227
0.193007
0.154766
0.128651
0.173054
0.213031
0.151435
0.143135
0.162444
0.126692
0.053194
0.059475
0.178771
0.045502
0.040980
0.045315
0.055037
-0.062056
-0.035323
0.027752
-0.012898
0.083442
-0.005759
-0.028174
-0.047967
-0.005948
0.050338
0.073064
-0.020068
-0.029848
0.008237
-0.015698
0.022534
0.119632
0.246963
0.597031
0.879551
1.139376
1.320963
1.311642
1.052736
0.722239
0.364555
0.111646
-0.083276
-0.151086
-0.265534
-0.207023
-0.072926
-0.037637
-0.015285
0.015150
-0.105059
0.004648
0.121426
0.010897
0.017611
0.011569
0.018938
0.089274
0.089479
0.143843
0.082465
0.172972
0.101560
0.247363
0.096746
0.055111
0.206437
0.210313
0.295372
0.275790
0.275118
0.314199
0.236063
0.325320
0.383980
0.312995
0.372625
0.407231
0.369529
0.477422
0.436383
0.455018
0.433397
0.415289
0.481176
0.468266
0.456064
0.507451
0.437472
0.539951
0.484975
0.398417
0.385426
0.394428
0.395946
0.294871
0.331162
0.259720
0.312451
0.299433
0.232094
0.240633
0.276367
0.176491
0.142973
0.065504
0.173393
0.108832
0.118982
0.152167
0.003215
-0.032279
-0.002678
0.083198
-0.001283
0.000667
-0.006437
-0.018831
0.063969
0.034964
-0.121134
-0.014815
-0.046625
0.024949
-0.047596
-0.030357
-0.105461
-0.128058
-0.115157
-0.097935
-0.011732
-0.090364
-0.064473
-0.075627
-0.088010
-0.118612
-0.041344
-0.039368
-0.005561
-0.073238
-0.054371
-0.041255
-0.044488
-0.032355
-0.015845
-0.039903
-0.043674
-0.146880
-0.058999
-0.054000
-0.024634
-0.024080
-0.023237
-0.066150
-0.035549
-0.118315
-0.074765
-0.048648
-0.056974
-0.062535
-0.196151
-0.078017
-0.046740
-0.108083
-0.070955
-0.040159
-0.026744
-0.037616
-0.133024
-0.169910
-0.050588
-0.105399
-0.061080
-0.105828
-0.011101
-0.038819
0.029859
0.015472
0.052801
-0.029285
-0.007542
0.054008
0.007916
0.038394
0.040499
0.078468
0.061205
0.041657
0.106244
0.084033
0.134986
0.015441
0.049122
0.096861
0.117447
0.081006
0.111203
0.075343
0.096396
-0.011009
0.106971
0.006687
0.050083
0.066446
0.069485
-0.039007
0.046271
0.021459
-0.012007
-0.020050
-0.091080
-0.038151
-0.027700
-0.092723
-0.043483
-0.029874
-0.053430
-0.073915
-0.041400
-0.059055
-0.030828
-0.155345
-0.039215
-0.064733
-0.127104
-0.120283
-0.088665
-0.055113
0.026094
0.231993
0.512702
0.707899
1.035511
1.162702
1.238442
1.141205
0.844604
0.431349
0.141488
-0.262431
-0.245117
-0.380267
-0.262200
-0.224732
-0.255870
-0.101927
-0.008067
-0.102541
-0.095080
-0.037507
-0.048838
-0.041110
-0.090543
-0.018269
-0.042040
-0.070112
0.007171
-0.027600
0.060700
0.083230
0.037232
-0.052757
0.108652
0.076035
0.158263
0.166869
0.165462
0.169034
0.228401
0.291994
0.243571
0.286643
0.320618
0.292262
0.386229
0.356575
0.253922
0.324974
0.438744
0.381642
0.384095
0.374201
0.378958
0.342165
0.415062
0.431954
0.468186
0.365775
0.363046
0.420668
0.369547
0.461656
0.374345
0.286399
0.249167
0.231477
0.222750
0.277008
0.177266
0.239406
0.101962
0.144565
0.126476
0.136497
0.101254
0.044476
0.059623
-0.041221
0.090572
-0.004597
-0.020570
-0.046561
0.020072
-0.001147
-0.030014
-0.081021
0.002124
-0.093697
-0.080801
-0.053601
-0.104977
-0.087465
-0.024700
-0.060892
-0.080736
-0.085976
-0.036474
-0.018768
-0.024897
-0.089686
-0.102000
-0.096851
-0.013688
-0.054158
-0.034723
-0.108929
-0.058254
-0.108275
-0.031655
-0.083786
-0.094651
-0.052155
-0.061973
-0.154058
-0.128781
-0.069603
-0.134622
-0.142484
-0.092802
-0.090945
-0.141294
-0.034628
0.006733
-0.122587
-0.032653
-0.102360
-0.093233
-0.072151
-0.094319
-0.145100
-0.075755
-0.106585
0.017272
-0.004246
-0.098897
0.050074
-0.044014
-0.071818
-0.051467
-0.055751
-0.095706
-0.042416
-0.127763
0.023356
0.005737
-0.062805
0.022233
0.067860
-0.012390
0.002068
0.047135
0.071167
0.100535
0.077216
-0.007686
0.148452
0.123836
0.095033
0.112537
0.117399
0.091744
0.109097
0.087156
0.083428
0.053416
0.103842
0.035085
0.084073
0.020615
0.126695
0.083899
0.052309
0.065629
0.052323
0.080403
0.029195
-0.008411
-0.024817
-0.076098
-0.080882
0.021048
0.098123
-0.072947
-0.095285
0.017307
-0.059581
-0.048286
-0.023312
0.042275
-0.034552
-0.047101
-0.073681
-0.026521
-0.014061
-0.128948
-0.047142
0.139433
0.346012
0.698016
0.953665
1.218158
1.325103
1.194862
1.067714
0.672259
0.282903
-0.074429
-0.241555
-0.228851
-0.237478
-0.191416
-0.090263
0.038298
0.061835
-0.039798
0.045052
0.064383
0.026764
0.000041
-0.045149
0.029177
0.058137
0.064457
0.077320
0.100891
0.053417
0.131927
0.080047
0.244098
0.194018
0.206738
0.244488
0.288817
0.293731
0.229191
0.214755
0.378012
0.258245
0.351315
0.449630
0.398630
0.431955
0.401002
0.443461
0.418114
0.452868
0.490746
0.482550
0.513323
0.462659
0.559383
0.553674
0.485693
0.461960
0.485499
0.508743
0.476157
0.520111
0.469448
0.399654
0.289980
0.293293
0.262099
0.349644
0.302700
0.308320
0.286682
0.214426
0.278167
0.225599
0.117581
0.135122
0.137001
0.218964
0.180535
0.180436
0.087353
0.082646
0.107193
0.184272
0.091697
0.073921
0.109848
0.119896
0.060170
0.135403
0.029992
0.015279
0.036401
0.047085
-0.044116
0.066827
0.022724
0.099414
0.066613
0.007639
-0.082651
0.013999
0.109443
0.000003
-0.026695
0.024389
0.055556
0.037010
0.031705
0.127192
0.126793
0.061513
0.065377
-0.022843
0.037923
-0.025863
0.122088
0.044246
0.143899
-0.034571
0.005903
0.045357
0.032919
0.017698
0.084615
0.013152
0.012910
0.016023
0.023186
-0.000315
0.028507
0.109836
0.104615
0.054000
0.090769
0.115053
0.035651
0.048804
-0.005575
0.076299
0.078506
0.046112
0.120513
0.047137
0.208796
0.100053
0.065103
0.107184
0.058473
0.091909
0.128986
0.140671
0.132550
0.246149
0.192592
0.151264
0.176483
0.155695
0.205568
0.194098
0.185043
0.092912
0.266831
0.238749
0.192479
0.246997
0.149209
0.176606
0.261921
0.259716
0.226781
0.194230
0.132284
0.160956
0.153257
0.120513
0.128848
0.112948
0.076574
0.088127
0.040041
0.061676
0.111391
0.098904
0.060718
0.097527
0.088722
-0.012475
0.138837
0.124956
0.086425
0.013720
0.065253
0.060610
0.067297
0.169078
0.110996
0.257842
0.343089
0.640144
0.937740
1.273888
1.346765
1.433926
1.231947
0.902213
0.495745
0.235278
0.033160
-0.106640
-0.156668
-0.002106
-0.035741
0.031943
0.006989
-0.028764
0.115777
0.094780
0.113644
0.106931
0.165543
0.230777
0.202014
0.169020
0.121377
0.184988
0.222209
0.192078
0.161546
0.233819
0.257462
0.218526
0.339186
0.298895
0.367073
0.452433
0.327711
0.325322
0.321828
0.491561
0.453085
0.452724
0.495009
0.489043
0.486204
0.487028
0.564484
0.514165
0.558799
0.572225
0.488872
0.646959
0.504068
0.585516
0.608129
