-0.025981
-0.000957
-0.086413
-0.047498
0.055414
0.008603
-0.012779
-0.028055
0.067242
-0.024274
0.019985
0.058137
0.102420
0.081901
0.032907
-0.027507
0.022686
0.017259
0.005133
0.119445
-0.016400
0.067676
0.048634
0.148562
-0.043594
0.107438
0.080932
0.112557
0.119497
0.141419
0.063369
0.124446
0.137263
0.134473
0.128585
0.054159
0.099591
0.187977
0.213839
0.150334
0.169959
0.188849
0.259820
0.209866
0.207381
0.273103
0.233763
0.116761
0.137721
0.133139
0.161151
0.176650
0.177351
0.077613
0.170769
0.116919
0.033595
0.073443
0.066262
0.116248
0.087611
-0.012051
-0.006296
0.057705
0.002704
0.076889
0.109211
-0.006782
0.015153
0.025074
0.017550
0.105071
0.097035
0.085758
-0.024834
0.037820
0.233116
0.428062
0.742226
1.019707
1.248891
1.474156
1.465113
1.232584
0.791690
0.456236
0.084356
-0.103362
-0.205434
-0.177816
-0.141697
-0.014693
-0.030435
-0.039877
0.134377
0.060645
0.126177
0.107657
0.147935
0.185850
0.024198
0.076184
0.102474
0.140937
0.146667
0.165441
0.134059
0.178724
0.298132
0.183946
0.254851
0.299507
0.277434
0.326230
0.276687
0.275611
0.384045
0.352266
0.329295
0.422058
0.414320
0.539843
0.469405
0.514636
0.601374
0.611824
0.502696
0.450026
0.598367
0.644704
0.541221
0.538953
0.535774
0.540464
0.580364
0.549582
0.574806
0.524830
0.608147
0.517773
0.545992
0.459988
0.474178
0.433401
0.509627
0.381983
0.337354
0.470677
0.365668
0.330423
0.301362
0.261988
0.248368
0.248605
0.203791
0.248776
0.168461
0.255856
0.161653
0.161515
0.105384
0.131551
0.124029
0.212865
0.219475
0.111532
0.094507
0.168742
0.040964
0.023913
0.108801
0.051843
0.045079
0.096983
0.062972
0.120255
0.125298
0.172542
0.051182
0.110438
0.249234
0.113940
0.126586
0.182335
0.129096
0.068079
0.151714
0.076094
0.067090
0.088524
0.073880
0.004940
0.002722
0.082612
0.073354
0.072556
0.208604
0.098191
0.109163
0.095400
0.068944
0.077616
0.084033
0.045899
0.091815
0.186302
0.104514
0.107419
0.118728
0.071533
0.011445
0.137763
0.079545
0.114437
0.086040
0.047694
0.077305
0.031604
0.133237
0.129318
0.080478
0.109135
0.049776
0.062471
0.057474
0.272192
0.217238
0.145974
0.172510
0.074757
0.220193
0.207363
0.089982
0.116733
0.206691
0.159764
0.223345
0.242287
0.212631
0.312399
0.195939
0.270984
0.339259
0.306795
0.275157
0.302410
0.288374
0.271908
0.229319
0.274869
0.195561
0.181241
0.140517
0.189012
0.082978
0.201522
0.239765
0.234133
0.056812
0.115781
0.129982
0.098060
0.072759
0.111164
0.132174
0.074447
0.089517
0.130914
0.066132
0.034126
0.121008
0.133277
0.103793
0.036099
0.052069
0.080250
0.092943
0.132877
0.221200
0.331290
0.544531
0.823746
1.113661
1.412602
1.467286
1.371420
1.085474
0.796618
0.330407
0.025416
-0.100304
-0.151265
-0.171719
0.054004
-0.055641
0.031092
0.089182
0.168640
0.109773
0.041550
0.101933
0.117179
0.120198
0.150007
0.044763
0.119086
0.153316
0.174420
0.161476
0.168608
0.167228
0.245610
0.254890
0.246631
0.294465
0.236390
0.257929
0.389596
0.375621
0.312640
0.416130
0.397594
0.447802
0.404135
0.474344
0.475962
0.537916
0.492941
0.471318
0.512591
0.492544
0.565157
0.586426
0.545542
0.575634
0.559929
0.621979
0.560999
0.553882
0.581524
0.479807
0.548443
0.489588
0.479784
0.381503
0.458427
0.445756
0.377011
0.400790
0.288744
0.327607
0.340807
0.333668
0.249091
0.326478
0.293203
0.188020
0.193729
0.147558
0.180646
0.232694
0.085839
0.137427
0.092399
0.158258
0.154455
0.184558
0.119438
0.037428
0.054661
0.005068
0.064577
0.001992
0.088802
0.135779
0.021483
0.010454
0.074082
0.044483
0.083636
0.038495
-0.047176
0.005128
-0.045304
0.011370
0.028563
0.033710
0.048632
-0.005148
0.082607
0.039597
-0.047633
0.031852
0.020083
-0.102219
-0.031987
0.038832
0.051627
0.000651
-0.009111
0.003970
0.014463
-0.050339
0.013029
0.060518
0.040179
-0.046559
-0.025098
-0.042194
0.053374
0.030334
-0.015843
-0.004328
0.032603
0.030531
-0.050739
-0.029075
0.010380
-0.030679
0.075419
-0.016408
0.101727
0.067715
-0.010029
-0.026473
0.072557
0.078101
0.042139
-0.062937
-0.029616
0.036424
0.040777
0.025318
0.048401
0.099468
0.093061
0.044324
0.056885
0.152508
0.178022
0.125887
0.179645
0.131118
0.119526
0.181428
0.141876
0.201809
0.195614
0.198388
0.211485
0.176928
0.132605
0.170776
0.155461
0.111084
0.078355
0.124572
0.010736
0.018473
0.061254
0.049996
-0.024758
0.097201
0.069455
-0.046704
0.022847
0.033179
0.044103
-0.091918
-0.059853
-0.015781
-0.017649
-0.015963
-0.054005
-0.062313
0.007645
0.019102
-0.093925
-0.059393
-0.147145
0.010812
-0.042929
0.198506
0.558031
0.783174
1.125668
1.419828
1.340943
1.266491
0.803829
0.542916
0.128868
-0.095048
-0.243869
-0.250509
-0.265826
-0.144695
-0.128818
-0.116340
0.028421
-0.023778
-0.039324
-0.054164
-0.003329
0.005980
-0.024831
0.020150
-0.077625
0.056519
0.001248
0.093168
0.105232
0.049099
0.099087
0.161130
0.154624
0.120927
0.135833
0.126912
0.192668
0.194178
0.241435
0.224835
0.299432
0.295511
0.289803
0.289856
0.424235
0.479840
0.339303
0.489440
0.469643
0.478115
0.476748
0.466451
0.476770
0.431672
0.455047
0.426720
0.514352
0.478780
0.498339
0.444521
0.482776
0.423327
0.491633
0.385422
0.431219
0.302830
0.254807
0.374687
0.270030
0.279391
0.290069
0.221829
0.190416
0.143849
0.160361
0.155844
0.107679
0.095296
0.107201
0.075614
0.130667
0.024521
0.041636
-0.011209
0.065133
0.000029
0.048753
0.071431
-0.056323
-0.046351
-0.048158
-0.090432
-0.091963
0.031093
-0.011318
-0.061480
-0.037451
-0.007255
-0.000212
-0.077473
0.024530
-0.070938
-0.104852
-0.064202
0.004340
-0.002907
-0.023353
-0.047224
0.065636
0.009087
0.027277
-0.048012
-0.023895
-0.100804
-0.077416
0.016367
-0.045825
-0.085349
-0.078841
-0.086907
-0.103319
0.022289
0.004821
-0.067541
0.011656
-0.095537
0.078911
-0.087737
-0.096467
-0.077712
-0.041463
-0.067181
0.030250
-0.052519
-0.065195
-0.083921
-0.030034
-0.028757
0.060818
-0.061565
0.003191
0.007482
-0.051523
-0.026235
-0.030580
-0.048324
0.036349
0.079554
0.051709
-0.017784
0.040112
0.039796
0.062253
0.082179
0.061243
0.055891
0.150606
0.068511
0.110099
0.125563
0.074028
0.160800
0.153664
0.145022
0.123368
0.233691
0.120084
0.150741
0.139265
0.126667
0.179003
0.128468
0.088349
0.091575
0.146314
0.094094
0.000016
0.110204
0.090855
0.027372
0.073863
-0.036622
-0.039660
0.073102
-0.001615
0.021257
-0.049638
-0.027984
0.042209
0.037020
-0.030540
-0.031171
-0.003486
-0.008418
-0.030876
0.030262
-0.055216
0.006135
-0.096377
-0.002992
-0.143548
0.156591
0.271804
0.594064
0.920150
1.277017
1.418128
1.311105
1.126216
0.788666
0.420746
0.030630
-0.127304
-0.211411
-0.222586
-0.212318
-0.093221
-0.075762
0.009459
-0.025268
0.087263
0.040918
0.067932
-0.004577
0.044153
0.032847
0.104710
0.026425
-0.000285
0.039816
0.080901
0.107532
0.157216
0.080352
0.195175
0.198050
0.191597
0.149571
0.304306
0.195833
0.287034
0.329555
0.349609
0.391367
0.367696
0.417617
0.428491
0.374832
0.417551
0.430224
0.530180
0.490695
0.481993
0.499214
0.492036
0.576378
0.595424
0.527305
0.505849
0.486038
0.577392
0.625929
0.472812
0.528369
0.530510
0.323712
0.510275
0.561323
0.426912
0.450658
0.357288
0.335241
0.383243
0.288052
0.301349
0.213707
0.227710
0.221949
0.205182
0.210573
0.172694
0.177227
0.200494
0.130009
0.132472
0.028985
0.075315
0.140019
0.089386
0.154864
0.049333
0.052325
0.116506
0.079104
0.081138
0.007379
0.074642
0.025027
0.094585
0.095963
0.012781
0.033161
0.028566
0.075722
0.098762
0.068598
0.060972
0.052035
0.118621
0.009851
0.094913
0.004222
-0.015282
0.107423
0.067796
-0.005474
0.064013
0.069139
0.044720
0.058376
0.095463
0.150210
0.021915
0.033708
0.079093
0.099732
0.021756
-0.005543
0.124633
0.077682
0.082080
0.126059
0.125338
0.034884
0.001686
0.084525
0.070947
-0.012951
0.112633
0.123107
0.033074
0.101544
0.009322
0.067863
0.000000
0.000000
0.000000
0.000000
0.000000
0.000000
0.000000
0.000000
0.000000
0.000000
0.000000
0.000000
0.000000
0.000000
0.000000
0.000000
0.000000
0.000000
0.000000
0.000000
0.000000
0.000000
0.000000
0.000000
0.000000
0.000000
0.000000
0.000000
0.000000
0.000000
0.000000
0.000000
0.000000
0.000000
0.000000
0.000000
0.000000
0.000000
0.000000
0.000000
0.000000
0.146077
0.092293
0.124554
0.154946
0.058534
0.146427
0.104116
0.182317
0.080975
0.162471
0.063425
0.072800
0.069690
0.011932
0.040812
0.074372
0.070705
0.121839
0.135572
0.291195
0.481513
0.744633
1.132236
1.398643
1.485659
1.264806
1.064323
0.789350
0.377870
0.139927
-0.052320
-0.147639
-0.148281
-0.050656
0.046690
0.017405
0.092998
0.140343
0.114266
0.202067
0.101028
0.069117
0.056454
0.174808
0.189521
0.167757
0.126924
0.223398
0.108082
0.200809
0.224702
0.214785
0.188869
0.194773
0.277986
0.292670
0.360051
0.237659
0.367656
0.411246
0.379021
0.500391
0.473400
0.498617
0.562407
0.494722
0.542647
0.583575
0.577661
0.536703
0.615994
0.641503
0.631497
0.594308
0.563109
0.607024
0.629068
0.654325
0.566812
0.613986
0.548997
0.472643
0.506160
0.587052
0.524483
0.480625
0.488439
0.440054
0.445808
0.355498
0.445907
0.318049
0.404642
0.364952
0.281441
0.276620
0.289319
0.295493
0.200903
0.216666
0.220329
0.239928
0.239879
0.143968
0.105180
0.166370
0.127090
0.091062
0.110569
0.103878
0.147512
0.162988
0.161201
0.091194
0.056683
0.047678
0.010795
0.084125
0.050164
0.063142
0.129263
0.047071
0.136743
0.091562
0.090120
0.148608
0.140880
0.103658
0.124727
0.102427
0.110983
0.175421
0.082886
0.119133
0.101950
0.048849
0.151090
0.063639
0.033214
0.104867
0.100923
0.045799
0.050477
0.060060
0.118553
0.101479
0.096879
0.059997
0.051692
0.194797
0.137770
0.098905
0.118220
0.132203
0.124860
0.079659
0.102098
0.088347
0.110304
0.094292
0.086145
0.071483
0.105502
0.064048
0.059428
0.007843
0.138394
0.026775
0.006292
0.193998
0.108068
0.120739
0.108028
0.076208
0.198612
0.178264
0.170280
0.121653
0.143268
0.145597
0.207241
0.310769
0.191619
0.214469
0.294008
0.204752
0.304839
0.253303
0.271375
0.275199
0.239895
0.204277
0.244606
0.240695
0.165819
0.173228
0.252982
0.166138
0.202178
0.137360
0.113771
0.168392
0.031129
0.091384
0.109204
0.072383
0.090107
0.049535
0.127433
0.045162
-0.045470
0.012199
0.073357
0.052709
0.031317
0.053218
0.075511
0.059164
0.025659
-0.010521
0.037731
0.085891
0.324894
0.557753
0.886002
1.184861
1.381980
1.500000
1.228808
1.034121
0.618495
0.207271
-0.029050
-0.166812
-0.250847
-0.147193
-0.072943
-0.022972
-0.038625
0.009501
0.122387
0.069729
0.052238
0.055123
0.034518
0.055575
0.058814
0.063301
0.038336
0.020320
0.122856
0.137641
0.151718
0.122165
0.050231
0.197221
0.261781
0.284982
0.218884
0.209598
0.354607
0.338754
0.334734
0.303011
0.333905
0.319160
0.398426
0.448294
0.421534
0.442028
0.464665
0.500296
0.512908
0.559305
0.521335
0.555919
0.465752
0.561558
0.558775
0.493130
0.565066
0.549983
0.537691
0.444239
0.504495
0.419736
0.418106
0.440704
0.416285
0.389864
0.337615
0.305678
0.247279
0.291849
0.301300
0.140029
0.289052
0.193927
0.231582
0.127661
0.134130
0.199340
0.087279
0.111233
0.020221
0.036546
0.135230
0.173155
0.039943
0.018240
0.157164
0.016531
0.073298
0.025813
-0.044441
-0.082392
-0.007895
0.039915
0.005598
-0.030450
-0.073507
-0.078379
-0.027642
-0.019626
0.030636
-0.028799
0.088833
-0.067751
-0.003189
0.023779
-0.017028
-0.028578
-0.051522
-0.004568
-0.006426
0.027066
-0.047792
-0.009547
-0.048613
-0.053791
-0.049356
-0.027265
0.046487
-0.076535
-0.006376
-0.049414
-0.036053
-0.120702
-0.004887
-0.071380
-0.111754
-0.072971
0.044499
-0.009963
-0.026558
-0.013411
-0.038287
-0.108092
-0.031108
-0.057282
0.017248
-0.029413
-0.036325
-0.096580
0.033392
-0.021424
-0.061160
-0.020938
0.022407
0.032840
-0.018228
-0.008426
-0.007554
-0.036724
0.031741
0.013835
0.006352
0.041934
0.053104
0.030996
0.089990
0.071816
0.133099
0.133006
0.047160
0.096668
0.087274
0.073207
0.042972
0.148927
0.146299
0.114365
0.150678
0.147389
0.079144
0.004261
0.098937
0.022160
0.075560
0.001436
-0.056437
0.053827
-0.017580
-0.016093
-0.118899
-0.075668
-0.052413
-0.117106
-0.013902
-0.086459
-0.094397
-0.069891
-0.035867
-0.073499
-0.006374
-0.021221
-0.065926
-0.086572
-0.033539
-0.039211
-0.108270
-0.131657
-0.161287
-0.012737
-0.016931
0.211295
0.494942
0.853559
1.124487
1.338571
1.292820
1.116525
0.762710
0.362131
0.018119
-0.151088
-0.340613
-0.245074
-0.247634
-0.221499
-0.141466
-0.095210
0.015377
0.030942
-0.078952
-0.058944
-0.050413
-0.068786
-0.034575
-0.052386
0.019835
0.005903
-0.000185
0.053162
0.043422
0.080681
0.005426
0.070804
0.013231
0.114645
0.130052
0.131690
0.200301
0.129294
0.188361
0.203324
0.211835
0.368713
0.344976
0.360684
0.340279
0.324237
0.389570
0.453222
0.360760
0.406656
0.384479
0.367294
0.422047
0.436874
0.513229
0.435089
0.471831
0.396011
0.375998
0.412389
0.437756
0.415770
0.366491
0.310600
0.337104
0.295282
0.223252
0.273434
0.220315
0.233547
0.153133
0.160164
0.148793
0.226100
0.182328
0.214010
0.072253
0.094865
0.152315
0.012574
-0.005406
0.026332
0.006795
0.002026
0.019452
0.027286
-0.028857
-0.064450
-0.011640
-0.051591
-0.066322
-0.046751
-0.042434
-0.044664
-0.073617
-0.109104
-0.080024
-0.047742
-0.032209
-0.148621
-0.063125
-0.036076
-0.094412
-0.022304
-0.189691
-0.111139
-0.088714
-0.025628
-0.172930
-0.104080
-0.139343
-0.121601
-0.121797
-0.046820
-0.011583
-0.048043
-0.054140
-0.076227
-0.066365
-0.071521
-0.074656
-0.113579
-0.016278
-0.020564
-0.037671
-0.123487
-0.023181
-0.003929
-0.075550
-0.055827
0.001303
-0.070363
-0.039742
-0.112808
-0.080350
-0.103890
-0.075337
-0.049763
-0.035867
-0.046447
0.019573
-0.021924
-0.037313
-0.112034
-0.019525
-0.052711
0.034490
-0.028687
-0.024151
0.015946
-0.002632
0.013880
0.048805
0.015426
0.050684
0.010814
0.050041
-0.025870
0.019231
0.135145
0.073920
0.096558
0.179682
0.096300
0.196658
0.077466
0.157277
0.116728
0.166571
0.076245
0.086360
0.114689
0.118773
0.083693
0.171550
0.124861
-0.100320
0.084687
0.068772
0.063236
-0.018470
0.072509
-0.065181
0.044616
-0.016977
0.064800
-0.020220
0.028667
0.010282
-0.031907
-0.017350
-0.026247
0.022643
-0.006979
-0.099471
-0.029415
-0.053556
-0.058118
0.003572
-0.060482
-0.039978
0.175246
0.415701
0.675208
0.985757
1.255657
1.410412
1.359672
1.150301
0.634093
0.361846
-0.082084
-0.123258
-0.255091
-0.291664
-0.195146
-0.119703
-0.064715
-0.053626
-0.002900
-0.092305
0.084575
-0.023442
-0.037337
0.015587
0.025348
0.076165
-0.002292
0.106665
0.088017
0.168408
0.132468
0.131010
0.228630
0.208611
0.310332
0.232367
0.144418
0.221317
0.307839
0.362749
0.189932
0.284280
0.360358
0.371589
0.473925
0.408626
0.418078
0.548840
0.452871
0.529961
0.464241
0.520300
0.541131
0.468122
0.621483
0.520247
0.437687
0.522793
0.514730
0.573593
0.484392
0.519821
0.562738
0.614449
0.452236
0.483172
0.378815
0.370353
0.364196
0.325946
0.349576
0.233459
0.293243
0.199316
0.241523
0.249917
0.248154
0.112924
0.187581
0.083077
0.148677
0.191879
0.060228
0.142136
0.093568
0.074979
0.007101
0.054124
-0.039900
0.014218
0.024829
0.017428
-0.011548
0.080073
0.042211
0.023909
0.046156
0.050590
0.046901
0.010692
-0.066989
-0.069333
0.025813
-0.039903
0.004375
-0.014349
0.026511
0.004724
-0.068935
0.113773
-0.009028
0.021157
0.001021
0.128720
-0.049980
0.006855
-0.015543
0.025283
0.041284
0.011427
-0.033788
0.001966
0.066527
0.030716
0.071501
0.050392
0.114617
0.079890
0.022866
0.056690
0.020980
-0.013576
0.037443
-0.021911
0.065706
-0.022078
-0.012190
-0.045112
0.033159
0.073189
0.070182
0.076438
0.159111
0.054715
0.036808
-0.001122
0.080979
0.087891
0.039538
0.084066
0.104953
0.134191
0.129726
0.083535
0.077371
0.131887
0.168004
0.199285
0.209940
0.193886
0.213054
0.173103
0.258307
0.209846
0.235377
0.317265
0.173918
0.228644
0.111137
0.249527
0.253042
0.235965
0.214742
0.237547
0.197569
0.215673
0.161596
0.156851
0.085492
0.160086
0.100255
0.090819
0.095028
0.090791
0.166944
0.156070
0.067892
0.119838
0.090500
0.044453
0.058453
0.055262
0.131126
0.020452
0.045328
0.093458
0.015808
-0.002578
0.074582
0.018165
-0.022192
-0.003944
0.048806
0.232540
0.538963
0.853592
1.238185
1.348396
1.432066
1.337074
1.034737
0.596044
0.316444
0.032490
-0.200116
-0.213133
-0.178158
0.000000
0.000000
0.000000
0.000000
0.000000
0.000000
0.000000
0.000000
0.000000
0.000000
0.000000
0.000000
0.000000
0.000000
0.000000
0.000000
0.000000
0.000000
0.000000
0.000000
0.000000
0.000000
0.000000
0.000000
0.000000
0.000000
0.000000
0.000000
0.000000
0.000000
0.000000
0.000000
0.000000
0.000000
0.000000
0.000000
0.000000
0.000000
0.000000
0.000000
0.000000
0.000000
0.000000
0.000000
0.000000
0.000000
0.000000
0.000000
0.000000
0.000000
0.000000
0.000000
0.000000
0.000000
0.000000
0.000000
0.000000
0.000000
0.000000
0.000000
0.000000
0.000000
0.000000
0.000000
0.000000
0.000000
0.000000
0.000000
0.000000
0.000000
0.172337
0.045280
0.114849
0.110779
0.039252
0.080990
-0.003033
0.046761
0.106748
0.010632
0.012223
-0.000110
0.023627
0.028261
0.020390
0.012896
0.036813
0.065619
0.068056
0.017971
-0.025982
-0.004861
-0.070758
-0.003933
0.049468
0.073985
0.089358
0.008736
-0.034782
0.042097
0.047217
0.006833
-0.075467
-0.030691
0.060267
0.055538
0.053780
0.031324
0.038165
0.002888
0.056325
0.009465
0.013372
0.036463
-0.002292
0.059464
-0.010985
0.035736
0.010075
-0.062928
0.037727
-0.025911
0.046430
0.025632
0.009633
0.082748
0.062761
0.062565
0.066579
0.087649
0.013468
0.058343
0.038666
0.074401
0.028537
0.093501
0.032977
0.072371
0.104446
0.013257
0.030554
0.021099
0.089874
0.209103
0.095462
0.048793
0.052135
0.170124
0.120103
0.208484
0.090175
0.139068
0.158438
0.231956
0.172417
0.158429
0.229329
0.095919
0.162095
0.064908
0.113130
0.122574
0.017658
0.130636
0.000315
0.115156
0.064035
0.056576
0.012665
-0.046742
0.038560
-0.015090
-0.024182
0.044996
0.016997
-0.015290
0.027718
-0.085518
0.019218
0.050064
-0.012776
-0.062763
-0.067288
0.047192
-0.082932
0.047588
-0.111498
0.041048
-0.006523
0.219215
0.499315
0.863014
1.224168
1.341112
1.345115
1.236923
0.856713
0.483236
0.083524
-0.150556
-0.277905
-0.263040
-0.168118
-0.096850
-0.072042
-0.087530
-0.064062
0.017248
-0.083862
0.021100
0.065168
0.000000
0.000000
0.000000
0.000000
0.000000
0.000000
0.000000
0.000000
0.000000
0.000000
0.000000
0.000000
0.000000
0.000000
0.000000
0.000000
0.000000
0.000000
0.000000
0.000000
0.000000
0.000000
0.000000
0.000000
0.000000
0.000000
0.000000
0.000000
0.000000
0.000000
0.000000
0.000000
0.000000
0.000000
0.000000
0.000000
0.000000
0.000000
0.000000
0.000000
0.000000
0.000000
0.000000
0.000000
0.000000
0.000000
0.000000
0.000000
0.000000
0.000000
0.000000
0.000000
0.000000
0.000000
0.000000
0.000000
0.000000
0.000000
0.000000
0.000000
0.000000
0.000000
0.000000
0.000000
0.000000
0.000000
0.000000
0.000000
-0.087503
0.010642
-0.078644
-0.117199
-0.046948
-0.103282
-0.148943
-0.094846
-0.059692
-0.081854
-0.151287
-0.071565
-0.066246
-0.082841
-0.048351
-0.027132
0.004448
-0.075396
-0.036672
-0.033620
-0.047300
-0.088187
-0.101417
-0.091848
-0.057768
-0.109460
-0.064507
-0.129298
-0.029263
-0.106180
-0.081141
-0.110628
-0.182991
-0.113056
-0.102476
-0.133499
-0.088116
-0.074492
-0.008155
-0.048452
-0.109183
-0.078014
-0.129008
-0.116056
-0.108073
-0.160019
-0.042750
-0.148498
-0.085096
-0.137551
-0.136114
-0.028757
-0.093588
0.026390
-0.086321
-0.058016
-0.110315
-0.078373
-0.065531
-0.076584
0.014164
-0.062107
-0.051591
0.032320
-0.048898
0.051740
-0.007063
0.101284
-0.007273
0.058424
0.006201
0.069723
0.069288
0.050939
0.033019
0.134560
0.181166
0.055106
0.064166
-0.021742
0.070904
0.041231
0.016683
0.148398
0.062786
-0.021345
0.003465
-0.004051
0.012659
-0.076184
-0.101381
-0.068889
-0.088657
-0.036429
-0.107759
-0.157808
0.030935
-0.133807
-0.094206
-0.099906
-0.022828
-0.068018
-0.148254
-0.120876
-0.173607
-0.174390
-0.103229
-0.151009
-0.134313
-0.103071
-0.174739
-0.107929
-0.011974
0.273197
0.575043
0.903852
1.185255
1.338125
1.271365
0.962128
0.693679
0.308767
0.019971
-0.266028
-0.351047
-0.306664
-0.287287
-0.240876
-0.150784
-0.165243
-0.138616
-0.050596
-0.082799
-0.042711
-0.061860
-0.007729
-0.060728
0.058009
0.004144
-0.054362
0.016561
0.025462
-0.016837
0.004260
0.032032
0.079579
0.128686
0.124247
0.159918
0.122409
0.070471
0.133298
0.260522
0.246993
0.254671
0.267995
0.235472
0.292903
0.367007
0.279654
0.391017
0.359233
0.345406
0.343356
0.386955
0.407245
0.418062
0.470518
0.425793
0.464245
0.470595
0.390773
0.429474
0.441814
0.448313
0.415082
0.377494
0.311522
0.337466
0.353765
0.390358
0.344715
0.266783
0.108968
0.227413
0.229953
0.208302
0.164701
0.075686
0.091289
0.092427
0.115814
0.068453
0.019542
0.085624
0.027673
0.020062
0.027437
-0.020751
-0.061468
-0.000315
-0.064282
-0.015752
-0.031431
-0.087750
-0.056857
-0.065751
-0.099669
-0.007411
-0.121094
0.013679
-0.036590
0.050348
-0.057154
-0.064182
-0.010974
-0.078982
-0.086171
-0.064579
-0.015705
-0.069282
-0.069955
-0.094151
-0.001024
0.014445
-0.001702
-0.096328
0.010535
-0.017126
-0.105089
-0.034376
0.003540
-0.110125
-0.122519
-0.123431
-0.041196
-0.072010
-0.014564
0.010600
-0.010581
0.013025
-0.049812
-0.098425
-0.074894
-0.048898
-0.007237
-0.068810
-0.070317
0.042425
-0.005476
-0.007165
-0.038580
-0.039657
0.000685
-0.023241
0.031431
-0.039410
-0.033188
-0.046901
-0.052249
-0.041936
0.040485
0.045830
-0.038874
0.065083
0.079535
-0.030503
0.011139
0.125105
0.022660
0.017969
0.088349
0.112813
0.119276
0.147413
0.191079
0.187789
0.221526
0.161496
0.166992
0.187741
0.179160
0.065574
0.119799
0.142853
0.190070
0.117937
0.064909
0.126299
0.144684
-0.015708
0.134607
0.065902
0.120825
0.148975
-0.009563
0.012425
0.043771
0.002143
-0.005209
-0.034615
-0.027780
0.037821
0.042368
0.026799
0.018430
0.016349
-0.032742
-0.008968
0.025963
-0.026642
0.070851
0.020781
-0.000378
-0.024249
0.225316
0.431721
0.802387
1.136297
1.375363
1.385814
1.336878
1.040416
0.767034
0.345820
0.070263
-0.201295
-0.257907
-0.222923
-0.112370
-0.087826
-0.043562
0.084509
0.003896
0.122884
0.088025
-0.001758
0.045579
0.081743
0.089280
0.049857
0.067409
0.136989
0.143117
0.108958
0.178550
0.166353
0.228513
0.203215
0.202266
0.275536
0.281628
0.253409
0.387009
0.294023
0.319325
0.358042
0.407533
0.457919
0.475101
0.412223
0.482900
0.479176
0.514597
0.487343
0.472410
0.533886
0.610517
0.610567
0.512413
0.592427
0.565227
0.601981
0.546405
0.513671
0.492000
0.422244
0.535752
0.470437
0.523772
0.463895
0.459788
0.477512
0.452025
0.334431
0.303287
0.354728
0.380036
0.320038
0.156370
0.268487
0.248718
0.204675
0.281324
0.259801
0.174509
0.184648
0.152678
0.127140
0.110656
0.063053
0.065783
0.112476
0.069230
0.034822
0.120625
0.051677
0.076966
0.097713
0.152304
0.131520
0.076706
0.046540
0.047042
0.052750
0.136896
0.078184
0.086237
0.124291
0.127351
0.101447
0.009689
0.029066
0.070196
0.025424
0.102779
0.080947
0.087271
0.044071
-0.027146
0.111680
0.053094
0.091589
0.069548
0.046180
0.128024
-0.069497
0.074373
-0.009054
0.185606
0.094902
0.052468
0.026292
0.029668
0.115709
0.042654
0.052288
0.066393
0.019949
0.109356
0.094132
0.032169
0.115942
0.073412
0.104367
0.036273
0.082293
0.118367
0.044219
0.089994
0.006922
0.112558
0.145493
0.065495
0.065666
0.196149
0.164919
0.056386
0.121937
0.141241
0.187175
0.155395
0.135169
0.183761
0.127922
0.236507
0.173219
0.267040
0.149354
0.286805
0.244789
0.266434
0.213487
0.233534
0.297033
0.262535
0.272079
0.194797
0.227845
0.218472
0.154967
0.053779
0.196743
0.196315
0.180788
0.151761
0.037160
0.076212
0.096157
0.136250
0.111469
0.129979
0.069282
0.162456
0.056083
0.100934
0.143194
0.111239
0.087706
