0.060321
0.074435
0.016224
0.015378
-0.001425
0.001608
0.000560
-0.008958
0.013283
0.055413
-0.038981
0.030307
0.066099
0.015096
0.120069
0.038401
0.041174
-0.127219
0.040473
-0.006503
0.046362
-0.070723
0.048875
0.040755
-0.043686
-0.035127
0.062455
0.035587
0.035530
0.119171
0.068894
0.042644
0.090576
0.095540
0.134060
0.066935
0.138924
0.175549
0.132221
0.097051
0.129365
0.194076
0.137806
0.187447
0.133892
0.157773
0.166687
0.338880
0.212074
0.219255
0.227714
0.153116
0.218800
0.201682
0.159324
0.174723
0.095115
0.154385
0.079675
0.048876
0.093768
0.038710
0.066595
0.105314
0.062564
0.104587
0.039584
0.021587
0.045313
0.032172
0.000743
0.069179
0.043269
0.049019
0.104299
0.035664
0.047488
0.031944
0.116639
0.095147
0.116971
0.008508
0.112274
0.049838
-0.021338
-0.018238
-0.067426
-0.019892
0.098066
0.234587
0.510292
0.833726
1.211976
1.447536
1.496919
1.335836
1.118428
0.722906
0.386304
0.090064
-0.162327
-0.170652
-0.257269
-0.182913
-0.085717
-0.060678
0.004881
0.018777
0.029256
0.104444
0.033400
0.076784
0.005244
0.058907
0.117854
0.082085
0.005143
0.122347
0.160909
0.099315
0.087327
0.078767
0.173800
0.111375
0.142327
0.166738
0.187398
0.230539
0.211422
0.238134
0.199599
0.249414
0.318736
0.268449
0.391435
0.387319
0.453456
0.401362
0.382861
0.483894
0.428496
0.469640
0.513773
0.481286
0.484357
0.539440
0.575056
0.512100
0.549835
0.519640
0.649363
0.546672
0.661742
0.533489
0.542187
0.477725
0.573862
0.502180
0.542744
0.469242
0.611670
0.513318
0.494738
0.512802
0.393633
0.442027
0.366007
0.351271
0.422970
0.379213
0.388368
0.293906
0.289696
0.237517
0.212267
0.247607
0.204005
0.252009
0.164120
0.183490
0.182420
0.207966
0.183568
0.146746
0.160764
0.072891
0.121723
0.075106
0.041961
0.134867
0.143012
0.092392
0.147077
0.173136
0.067987
0.084974
0.034932
0.051489
0.112290
0.064553
0.095240
0.072197
0.030993
0.121691
0.104707
-0.000778
0.058296
0.139750
0.023501
0.108776
0.052705
0.076279
0.099974
0.053906
0.070674
0.081254
0.016234
0.070974
0.046135
0.052267
-0.026053
0.120294
0.047521
0.125368
0.018039
0.033343
0.044607
0.047947
0.148649
0.036591
0.051638
0.062706
0.080887
0.121283
0.022427
0.125014
0.021806
0.036605
0.075107
0.091358
0.058258
0.131755
0.064106
0.090908
0.157915
0.039579
0.033641
0.157696
0.000484
0.101005
0.109128
0.100086
0.102080
0.094073
0.143735
0.007479
-0.013030
0.061310
0.090753
0.104729
0.148015
0.143257
0.159579
0.124677
0.151123
0.165106
0.185652
0.098804
0.128632
0.197370
0.184111
0.114553
0.194987
0.170753
0.242479
0.218543
0.278607
0.277599
0.221826
0.310103
0.243280
0.253239
0.234473
0.243958
0.181160
0.231411
0.250586
0.295456
0.174857
0.197394
0.137970
0.102794
0.150824
0.144520
0.110042
0.158066
0.095568
0.131513
0.100695
0.170443
0.082242
0.033037
0.059447
0.038544
0.109968
0.079181
0.118258
0.073265
0.033377
0.041313
0.039417
0.023872
0.105719
0.057176
0.093755
0.032209
0.018373
0.051896
0.019172
-0.063665
-0.002069
-0.044758
0.070168
0.196502
0.381075
0.794971
1.045166
1.276701
1.397320
1.428809
1.201700
0.915874
0.562792
0.226362
-0.149900
-0.272798
-0.259895
-0.119424
-0.180969
0.014230
0.057013
-0.000319
0.121595
0.033126
0.052998
0.013327
0.058466
0.048555
0.103811
0.087282
0.097003
0.038225
0.015292
0.057593
0.048508
0.019788
0.156549
0.122922
0.170466
0.169666
0.178084
0.190777
0.161966
0.210579
0.131562
0.218181
0.250102
0.266490
0.281443
0.250111
0.425542
0.390563
0.339811
0.361193
0.356420
0.415682
0.506164
0.437673
0.428189
0.446442
0.458977
0.560250
0.506291
0.535319
0.498666
0.528584
0.560051
0.513777
0.505733
0.527227
0.459394
0.537761
0.578886
0.558804
0.446406
0.441545
0.419849
0.459906
0.441390
0.397840
0.374214
0.338703
0.370098
0.294805
0.241288
0.204134
0.251579
0.230155
0.135748
0.174743
0.127686
0.132465
0.126183
0.180432
0.062708
0.060577
0.119824
0.010856
0.046449
0.060657
0.064824
0.003033
0.011474
0.043136
0.065023
-0.004485
-0.040274
0.052376
-0.003766
-0.019260
0.016770
-0.034980
0.060120
-0.075537
0.050309
0.040019
0.053398
0.000051
-0.009454
-0.007002
0.015290
0.018201
-0.039419
0.011012
-0.082885
-0.015881
0.039213
-0.100791
0.007857
-0.085686
-0.014150
0.020357
-0.050059
-0.060247
-0.014201
0.052322
-0.033418
0.045858
-0.092876
-0.062445
-0.000020
-0.020378
0.033467
-0.002758
-0.037063
-0.038105
0.011523
0.001475
-0.067779
0.048366
-0.026651
0.006384
-0.038735
-0.008073
0.005691
-0.016944
-0.045173
0.020120
-0.037856
-0.035463
0.008137
0.008797
0.049593
-0.007869
-0.066679
-0.038433
-0.038156
0.074657
-0.015449
-0.089566
-0.021645
-0.107668
0.015031
-0.043104
-0.065507
-0.030346
-0.001290
0.020159
0.063884
0.011468
0.035104
0.144711
0.050466
0.083351
0.060240
0.025361
0.017287
0.108406
0.128282
0.038271
0.153453
0.127756
0.058954
0.218423
0.065384
0.163778
0.142940
0.115885
0.110415
0.085117
0.101231
0.048900
0.005327
0.123467
-0.050647
0.045617
0.054205
0.133272
-0.008901
0.086821
0.012832
-0.009593
0.046575
0.064322
0.016959
0.019367
0.104665
-0.060930
0.023608
-0.044184
0.023994
0.002152
-0.061857
-0.012879
0.050771
-0.008466
-0.001533
-0.083976
-0.032327
-0.018696
-0.042777
-0.047010
-0.050556
-0.029975
-0.036783
-0.069237
0.010983
-0.001633
0.144113
0.504155
0.918885
1.160378
1.356931
1.423654
1.245669
0.968079
0.494882
0.154865
-0.076606
-0.264980
-0.285730
-0.190023
-0.177339
-0.175389
-0.153606
-0.128151
-0.071836
0.011565
-0.024945
-0.020076
-0.018069
0.018558
-0.063493
-0.013151
-0.074818
-0.004715
0.072899
0.044792
0.099873
0.000207
0.047774
0.027863
0.115921
0.033621
0.006251
0.054642
0.060659
0.124109
0.081758
0.164886
0.165620
0.143538
0.121328
0.190011
0.204780
0.181034
0.272045
0.275633
0.320893
0.302153
0.418980
0.378347
0.388937
0.417162
0.436171
0.427129
0.485872
0.451535
0.614500
0.511894
0.452606
0.429723
0.477613
0.403619
0.499331
0.482799
0.462663
0.437907
0.469148
0.419199
0.374645
0.439045
0.401731
0.290231
0.354239
0.287906
0.259667
0.326690
0.287726
0.231769
0.243054
0.193719
0.176272
0.172427
0.152140
0.077486
0.074754
0.090943
0.122278
-0.025334
-0.014644
0.017601
0.129339
-0.018467
0.015960
-0.008354
-0.025869
-0.011350
0.026777
0.078676
0.052507
-0.027683
-0.023202
-0.052495
0.003459
-0.053853
-0.002727
0.086130
0.012147
0.026561
-0.071763
-0.048648
-0.009764
0.003229
-0.028639
-0.034253
0.006579
0.012814
0.012971
-0.024070
-0.074778
-0.032647
0.033549
-0.026987
0.041535
0.098404
-0.089936
0.013667
-0.014651
0.005284
0.034351
-0.013369
-0.037768
0.024320
-0.109338
-0.045949
-0.057725
-0.056345
-0.060422
-0.122550
-0.014744
0.035047
0.049602
-0.040084
-0.010689
0.075628
-0.007294
-0.037204
-0.056957
-0.041882
0.012000
-0.000098
0.109671
-0.026624
0.041335
0.006365
0.044759
-0.059336
0.014712
0.033560
0.021017
0.018423
0.004762
0.123735
0.068434
-0.019539
-0.002512
0.069674
-0.049632
0.059848
0.078721
0.018650
0.032987
0.013205
0.040639
0.070485
-0.011683
0.106908
0.107965
0.029785
0.203302
0.107292
0.175249
0.120838
0.190247
0.151452
0.193427
0.241836
0.237314
0.244434
0.241236
0.176385
0.086656
0.113998
0.167943
0.140886
0.142835
0.148992
0.129449
0.164376
0.044819
0.097410
0.183625
0.115554
0.071375
0.084384
0.152347
0.152216
0.004133
0.016859
0.035310
0.024058
0.035535
-0.040439
0.049562
0.037513
0.131251
0.089541
0.055649
0.057116
0.073127
0.019778
-0.045362
0.023427
0.056571
0.092083
-0.050261
-0.043388
0.036977
0.033083
0.061561
0.086952
0.223478
0.485977
0.909811
1.096662
1.385285
1.404626
1.376841
1.112301
0.869672
0.454597
0.175566
-0.054254
-0.231969
-0.195105
-0.297728
-0.157509
-0.095299
0.050904
0.019905
0.081817
0.022009
0.068323
0.052505
0.093478
0.086093
0.051263
0.079421
0.086880
0.130335
0.078486
0.099760
0.090058
0.100688
0.159782
0.159440
0.174283
0.201584
0.181587
0.132365
0.253968
0.251677
0.260470
0.216086
0.302818
0.277545
0.383544
0.307766
0.289232
0.414632
0.412459
0.313429
0.369393
0.456263
0.479909
0.535838
0.548542
0.455791
0.592843
0.560007
0.584659
0.629546
0.549850
0.578184
0.654981
0.510412
0.625969
0.631423
0.526117
0.547812
0.564794
0.608151
0.549427
0.510447
0.492359
0.483021
0.458310
0.462110
0.498993
0.437571
0.447025
0.369703
0.297631
0.331429
0.341542
0.278533
0.278475
0.200123
0.164926
0.242940
0.196079
0.148928
0.145319
0.137578
0.097595
0.183234
0.108530
0.174964
0.131543
0.134949
0.164848
0.090343
-0.000091
0.136273
0.102501
0.074563
0.124966
0.088356
0.052104
0.052946
0.127353
0.132301
0.158257
0.092830
0.128895
0.054295
0.093424
0.033615
0.134662
0.104355
0.172336
0.034570
0.048699
0.116852
0.152855
0.124810
0.103923
0.056332
0.085905
0.098801
0.054955
0.137007
0.074413
0.094207
0.137737
0.164259
0.192931
0.096669
0.067877
0.162290
0.074375
0.039520
0.131901
0.123208
0.169730
0.113998
0.133754
0.154366
0.086541
0.178191
0.134133
0.150702
0.074501
0.105955
0.099357
-0.001992
0.067836
0.044258
0.045838
0.091619
0.105581
0.107684
0.044596
0.185238
0.097594
0.118964
0.067913
0.039462
0.090944
0.062117
0.060762
0.113002
0.081291
0.160734
0.059229
0.142516
0.085890
0.114002
0.146520
0.172535
0.194910
0.167749
0.199847
0.240180
0.211657
0.238053
0.248778
0.290605
0.218726
0.159662
0.185848
0.222175
0.276305
0.265954
0.153627
0.273296
0.288157
0.335936
0.224685
0.216055
0.192981
0.229310
0.197512
0.218099
0.112896
0.158677
0.247755
0.199935
0.148448
0.103193
0.167824
0.179652
0.181693
0.090999
0.112923
0.073802
0.091370
0.148932
0.130880
0.119704
0.026696
0.120137
0.066363
0.071447
0.090277
0.085114
0.078200
0.077987
0.171882
0.099929
0.129902
0.113696
0.052726
-0.012939
0.069995
0.122210
0.399479
0.700254
1.064684
1.328016
1.500000
1.404201
1.279384
1.025948
0.576697
0.300760
-0.131046
-0.150485
-0.244760
-0.196755
-0.022375
-0.095267
-0.038397
-0.010877
-0.001240
0.037028
0.108852
0.114331
0.092039
0.065004
0.169760
0.108115
0.059776
0.137022
0.091967
0.000808
0.069497
0.148760
0.141363
0.083930
0.168238
0.137629
0.146846
0.184683
0.152065
0.229896
0.196957
0.203991
0.256545
0.194877
0.215725
0.270182
0.239811
0.393890
0.374455
0.396844
0.414778
0.347238
0.467060
0.519654
0.462560
0.529019
0.529450
0.525066
0.388620
0.649132
0.562406
0.531290
0.570974
0.599497
0.575835
0.476431
0.538549
0.560886
0.525234
0.455675
0.473563
0.456289
0.469304
0.398102
0.421093
0.420014
0.377189
0.333660
0.352327
0.369488
0.323691
0.244897
0.260750
0.207554
0.258582
0.206048
0.219932
0.151185
0.131045
0.096336
0.161355
0.172011
0.080644
0.173854
0.050279
0.121469
0.011179
0.060123
0.030768
-0.004175
-0.016325
0.023798
-0.014645
0.009188
-0.082523
0.065476
-0.008943
-0.018832
0.071940
0.029017
0.019787
0.009824
-0.072578
-0.003878
-0.030363
-0.027987
0.019483
-0.061630
0.042455
0.015608
0.011103
0.004269
0.013056
0.017801
-0.008337
-0.011844
-0.012297
-0.001230
-0.041722
-0.003346
-0.112505
-0.033675
-0.045395
-0.060717
-0.062561
0.028948
-0.002994
-0.026075
0.003438
0.045309
-0.054634
-0.038062
0.012130
-0.002881
-0.126386
0.001874
-0.081314
0.047800
-0.076315
0.035424
-0.028580
-0.041911
-0.080938
0.010479
-0.045196
-0.062394
0.049887
0.017579
-0.058814
-0.108205
0.032440
-0.037253
-0.021847
0.007017
-0.053450
0.067339
0.010509
0.022680
0.064177
-0.049290
-0.100456
-0.021019
-0.001033
-0.067225
0.011541
0.076043
0.062883
-0.006285
0.099282
0.027368
0.048875
0.091986
0.081838
0.035858
0.086130
0.095064
0.161716
0.102602
0.109926
0.054743
0.093579
0.145384
0.113048
0.064643
0.148278
0.081340
0.147393
0.081486
0.154537
0.123686
0.097943
0.085082
0.095222
0.044605
0.016391
-0.027900
0.036136
-0.066249
0.022003
0.004138
-0.031893
-0.091860
-0.046314
-0.094349
-0.149065
-0.098161
-0.103290
-0.013442
-0.099012
-0.054679
-0.054282
-0.087876
-0.066917
-0.088805
-0.137085
-0.136008
-0.098480
-0.006877
-0.074631
0.016142
-0.027164
-0.174430
-0.154835
-0.068616
0.192789
0.401405
0.783551
1.059131
1.307963
1.276075
1.236404
0.929752
0.642017
0.191968
-0.119625
-0.319864
-0.395139
-0.364706
-0.367090
-0.320882
-0.135318
-0.039538
-0.075332
-0.059387
-0.017996
-0.011283
-0.111225
-0.118095
-0.076291
-0.036732
0.020677
0.002050
-0.034612
-0.037997
-0.073294
-0.071318
-0.020220
0.046687
-0.035601
0.008866
0.001953
0.038346
0.103994
0.043588
0.037714
0.050260
0.057939
0.127862
0.020320
0.145760
0.196239
0.236319
0.223645
0.257467
0.282173
0.278986
0.295472
0.261357
0.364153
0.355657
0.274519
0.389374
0.321304
0.493919
0.463876
0.397255
0.490195
0.416574
0.426153
0.407040
0.512769
0.346926
0.330928
0.383623
0.454192
0.371797
0.301478
0.384361
0.300886
0.281046
0.343449
0.242538
0.212876
0.263840
0.142249
0.183399
0.161635
0.149348
0.107701
0.168050
-0.015765
-0.005291
0.076848
0.079007
0.019951
0.036894
-0.049034
0.081832
0.012018
-0.039548
0.009012
-0.088414
-0.003708
-0.060345
0.058366
-0.059305
-0.113386
-0.051731
-0.080100
-0.073534
-0.050309
-0.027643
-0.004183
-0.104127
-0.128491
-0.070568
-0.124833
-0.105129
-0.048449
-0.091509
-0.034762
-0.141322
-0.051045
-0.137552
-0.076797
-0.088324
-0.113083
-0.047855
-0.060166
-0.076338
-0.076403
-0.036776
-0.073688
-0.157067
-0.014859
-0.116410
-0.172621
-0.081839
-0.043802
-0.130730
-0.037926
-0.062741
-0.062011
-0.043158
-0.089001
-0.063800
-0.057402
-0.012442
-0.092361
-0.076095
-0.073731
-0.036773
-0.000528
-0.097364
-0.025250
-0.063649
0.017845
0.064442
-0.108404
-0.044037
-0.090895
-0.054729
-0.014783
-0.040439
-0.013730
-0.069498
-0.012678
-0.017759
0.015141
-0.101267
-0.039964
-0.044324
-0.063295
-0.048372
0.055765
-0.029684
0.001449
0.014029
0.011884
-0.034040
-0.066003
-0.001493
0.019478
-0.005040
0.100978
0.026310
-0.025366
0.010335
0.100535
0.139878
0.142680
0.096153
0.141535
0.039913
0.045347
0.086072
0.176570
0.066632
0.094605
0.117904
0.136232
0.107519
0.119304
0.081672
0.086461
0.042128
0.126923
0.033299
0.073417
0.066587
0.077048
0.029199
0.028342
0.034955
0.036315
-0.081844
0.016346
0.094116
-0.044485
-0.028983
0.011031
-0.080178
-0.052213
-0.019406
-0.070690
-0.064057
-0.007311
-0.027739
-0.023221
-0.074396
-0.069717
0.018608
-0.138309
-0.035878
-0.101092
-0.153754
-0.112098
0.016434
0.035045
0.406839
0.700132
1.084492
1.227300
1.347022
1.270792
1.033036
0.729248
0.316783
0.058067
-0.091699
-0.222459
-0.331234
-0.203747
-0.259824
-0.174079
-0.135419
-0.070506
-0.044303
0.014678
-0.043444
0.035584
-0.013271
0.045733
0.030782
-0.036008
0.042097
0.019658
0.065083
0.036795
0.051051
0.075118
0.076913
-0.008679
0.093163
0.021802
0.073700
0.133435
0.107941
0.131218
0.089007
0.173401
0.201392
0.230499
0.237806
0.219352
0.156711
0.306830
0.337805
0.253529
0.392288
0.341006
0.486550
0.378957
0.433750
0.486614
0.479046
0.513008
0.474410
0.491848
0.436676
0.579956
0.598856
0.523294
0.555143
0.447472
0.501411
0.509661
0.565420
0.426117
0.433417
0.433677
0.402513
0.445373
0.371927
0.340169
0.326707
0.328727
0.273371
0.247251
0.229382
0.277774
0.219284
0.223131
0.187256
0.246957
0.178408
0.118774
0.100809
0.078805
0.149018
0.064221
0.099964
0.150511
0.011540
0.090133
0.031407
0.098612
0.064655
0.006361
0.039138
0.114887
0.038100
0.091184
-0.028901
0.045473
0.050074
0.029054
0.096732
0.046429
0.076434
0.086991
0.050776
0.003854
0.117807
-0.011502
0.065586
0.016176
0.000743
-0.056829
-0.003287
0.011768
0.006879
0.130989
-0.031318
0.108063
0.025795
0.005855
-0.036611
-0.037991
-0.027831
0.021929
0.067214
0.012648
0.072317
0.107494
0.069178
0.000654
0.040822
-0.007806
0.035105
0.089649
0.093120
-0.055862
-0.023027
-0.004933
0.024148
0.079486
0.086666
0.113099
0.053938
0.027680
0.063413
-0.021871
0.059994
0.053956
0.064857
0.004820
0.068478
0.067457
0.009146
0.042604
0.102260
0.013039
0.081509
-0.011123
0.057713
0.076975
0.021388
0.072361
0.054698
0.027255
0.091284
0.080480
0.065227
0.078566
0.040324
0.025517
0.141332
0.144066
0.164131
0.175095
0.157025
0.143022
0.217479
0.200926
0.195580
0.142846
0.130384
0.249174
0.261380
0.265166
0.219927
0.242513
0.265765
0.226425
0.150805
0.267316
0.127825
0.260476
0.185193
0.152085
0.121706
0.103935
0.056275
0.106109
0.097193
0.177391
0.122171
0.102841
0.024103
0.035096
0.013238
0.020028
0.017787
0.055470
0.092552
0.011122
0.097642
0.086529
0.142645
0.039644
0.105274
-0.125624
0.042317
0.017877
0.147858
0.057683
0.019256
0.036062
0.055406
-0.023653
-0.010234
0.113836
0.344499
0.598519
0.938643
1.319199
1.351021
1.435746
1.327487
0.980034
0.648671
0.269311
-0.010966
-0.223356
-0.292854
-0.263945
-0.198884
-0.134873
-0.054626
0.112914
0.020947
-0.022974
0.003160
0.143979
0.100293
0.074215
0.092283
0.035914
0.171122
0.099843
0.107615
0.097780
0.111948
0.151857
0.124829
0.102395
0.116556
0.118301
0.138782
0.172527
0.076015
0.151472
0.129268
0.227410
0.291605
0.306026
0.265844
0.300994
0.238650
0.298938
0.344346
0.369359
0.389128
0.469035
0.464668
0.393195
0.443170
0.512860
0.467358
0.498837
0.521247
0.541234
0.521789
0.590706
0.561504
0.468390
0.525884
0.540054
0.532985
0.540182
0.464071
0.582629
0.525518
0.523471
0.420941
0.244822
0.500834
0.316594
0.411745
0.342133
0.350789
0.209206
0.284135
0.293771
0.194928
0.172448
0.220586
0.193748
0.148513
0.199084
0.136488
0.153809
0.025561
0.129738
0.068645
0.034786
0.073502
0.039586
0.104099
0.121365
0.006964
0.015205
0.034935
0.053516
0.046713
-0.010642
0.020536
0.050433
0.052885
-0.022048
-0.062948
-0.005380
0.010868
0.002677
0.029405
-0.116596
0.040667
-0.059994
0.053963
-0.016247
0.014710
-0.014975
0.005562
0.004435
-0.071766
-0.043105
-0.059815
0.013894
0.004178
0.015470
0.054141
-0.060731
0.003406
0.087604
0.017638
-0.034920
-0.001243
-0.052194
-0.027204
-0.043057
-0.040759
-0.028246
0.006577
-0.041040
-0.003234
-0.039719
-0.060476
0.022604
-0.013041
-0.023769
-0.040484
-0.001752
0.016743
-0.093591
-0.055834
0.026414
-0.012902
-0.007593
-0.007750
-0.031835
-0.080339
-0.023724
-0.021411
-0.064794
-0.030422
0.028699
0.029536
-0.043379
0.065834
-0.062220
-0.095306
-0.028963
-0.017116
0.077404
-0.036036
0.007167
-0.032426
-0.022328
0.013521
0.069802
0.074399
0.042282
0.018282
0.072677
0.040490
0.074884
0.087434
0.110759
0.110895
0.119090
0.143999
0.148165
0.129012
0.117889
0.143685
0.175442
0.123246
0.075109
0.085311
0.092480
0.145998
0.052046
0.090905
0.151891
0.102278
0.045658
0.090896
0.053756
-0.059941
-0.008917
0.082799
-0.068391
-0.017782
-0.031956
0.029708
-0.094466
-0.024260
0.002016
-0.128064
-0.064718
-0.029272
-0.080238
-0.068565
-0.066318
-0.056811
-0.046427
-0.074451
-0.133645
-0.103176
-0.046057
-0.047852
-0.134951
-0.094972
-0.127976
-0.066292
0.016844
0.105703
0.386781
0.716373
1.026165
1.265143
1.300724
1.252812
0.944431
0.608065
0.282694
0.010685
-0.205214
-0.422666
-0.442958
-0.381201
-0.290918
-0.169518
-0.220722
-0.125643
-0.044804
-0.059763
-0.006413
-0.100024
-0.056933
-0.133277
-0.140961
-0.112182
-0.053602
-0.021011
-0.044950
0.006527
-0.032052
-0.054285
0.029660
-0.013929
-0.008224
0.014972
-0.008129
0.050014
0.117173
-0.025676
0.109178
0.119238
0.170942
0.184294
0.193403
0.191482
0.261151
0.165920
0.287046
0.255372
0.283306
0.264909
0.290506
0.364353
0.372411
0.310262
0.352423
0.450815
0.338513
0.471706
0.473147
0.460246
0.440897
0.410633
0.416069
0.462310
0.361337
0.417082
0.325227
0.402400
0.430085
0.304029
0.316967
0.303468
0.297399
0.269007
0.249610
0.232191
0.218585
0.179193
0.155506
0.168960
0.204644
0.068140
0.073489
0.073347
0.103578
0.001993
0.064511
-0.036111
-0.107441
-0.038411
-0.014815
-0.007453
-0.060375
-0.020524
-0.086653
-0.141334
-0.109073
-0.186509
-0.138584
-0.079574
-0.075226
-0.106981
-0.102501
-0.076333
-0.047844
-0.123168
-0.060193
-0.093435
-0.104729
-0.069015
-0.125911
-0.075889
-0.107576
-0.142108
-0.102809
-0.066598
-0.150694
-0.092498
-0.087878
-0.046713
-0.135146
-0.094042
-0.171775
-0.025330
-0.110411
-0.077929
-0.032283
-0.132974
-0.060079
-0.079794
-0.167710
-0.153948
-0.034439
-0.087565
-0.131076
-0.095300
-0.046584
-0.128625
-0.098616
-0.102765
-0.072310
-0.057484
-0.122807
-0.050442
-0.093863
-0.027708
-0.173618
-0.114833
-0.048794
-0.021945
-0.120154
-0.108485
-0.162078
-0.123306
-0.074332
-0.084295
-0.151780
-0.018718
-0.063233
-0.030932
-0.066378
0.042753
-0.054087
-0.094691
-0.027330
-0.102970
-0.063673
-0.051762
-0.113645
-0.109841
-0.112697
-0.043918
-0.065924
-0.021203
-0.054526
-0.138354
-0.023489
0.023599
0.005428
0.043491
-0.036592
0.038531
-0.042108
0.025555
0.066090
0.041655
0.150927
0.035778
0.124240
0.083963
0.076711
0.057591
0.028245
0.188062
0.146540
0.033807
0.051579
0.080639
0.081641
0.010908
-0.026954
0.094341
0.049874
0.050202
0.007959
-0.016309
-0.069316
-0.033218
-0.038346
-0.055118
-0.029392
-0.065989
-0.042212
-0.116378
-0.088621
-0.045886
-0.087356
-0.101027
-0.058460
-0.077682
-0.096037
-0.047370
-0.095611
-0.077839
-0.031895
-0.051902
-0.111787
-0.134949
-0.054934
-0.059839
-0.066874
0.076774
0.365273
0.595692
0.890067
1.227119
1.399887
1.310383
1.129885
0.739397
0.342987
0.050015
-0.139794
-0.376958
-0.358942
-0.234735
-0.197320
-0.244704
-0.152285
-0.095313
-0.103121
0.021986
-0.054474
-0.164254
0.022423
0.010225
-0.043627
-0.023774
-0.007013
-0.005180
-0.038408
-0.023176
0.073921
-0.063565
-0.015853
0.005719
-0.039135
0.007855
-0.012796
0.128150
0.100751
0.122094
0.111703
0.097419
0.092322
0.217008
0.227890
0.229912
0.258823
0.232977
0.242378
0.396616
0.327451
0.366512
0.331091
0.430033
0.368780
0.378812
0.471485
0.512430
0.375967
0.503033
0.481888
0.463501
0.533562
0.440885
0.425564
0.540444
0.453468
0.483363
0.446126
0.553629
0.434005
0.514164
0.369679
0.431556
0.393134
0.308659
0.352762
0.295905
0.297313
0.230108
0.247766
0.243961
0.179958
0.175237
0.189152
0.130522
0.157026
0.229919
0.158028
0.056939
0.064767
0.091583
0.099038
0.051584
0.036547
0.047425
-0.016674
0.041941
-0.019660
0.053468
0.012231
0.044525
0.068517
0.060704
0.023794
0.083638
0.019809
0.025698
-0.041555
0.047678
0.011736
0.012814
-0.034151
-0.025748
0.015244
0.064651
-0.065510
-0.022914
-0.048353
0.069003
0.029887
0.054370
-0.036237
0.036161
-0.006624
0.090817
0.051746
0.020839
0.098045
-0.011688
0.082719
0.110297
0.086973
0.045373
-0.023615
0.022219
-0.000449
0.062480
0.012996
0.021953
-0.085381
0.011555
-0.018264
0.090045
0.032834
0.043854
0.058544
-0.060438
-0.020272
0.106179
-0.019556
0.072120
0.056193
0.069269
0.038979
-0.072368
0.009685
0.037706
-0.003343
0.078339
0.001008
-0.002306
0.024446
-0.022464
0.128007
0.020659
-0.036800
0.005508
0.048276
0.017507
0.044203
0.101176
0.127493
0.084327
0.116340
0.108788
0.100850
0.112266
0.115919
0.048428
0.195377
0.121976
0.264980
0.108044
0.202231
0.178579
0.259888
0.201378
0.237683
0.259200
0.260542
0.266104
0.234907
0.228607
0.189674
0.203144
0.165793
0.153272
0.134988
0.182637
0.167159
0.163203
0.175802
0.130267
0.118690
0.154939
0.057930
0.076769
0.126378
0.070721
0.062022
0.155763
0.027453
0.080846
0.040986
0.127966
0.073219
0.059976
0.109705
0.085595
0.101949
0.026277
0.090307
0.004185
0.111338
0.005483
0.056265
0.085256
0.074075
0.097352
-0.005976
-0.062604
0.003242
0.074392
0.261151
0.565047
0.939435
1.243889
1.467697
1.498374
1.316886
0.996053
0.671583
0.228553
-0.013342
-0.175828
-0.263357
-0.268991
-0.160765
-0.070822
-0.015096
0.022955
0.056461
0.072060
0.066302
0.076968
0.033869
0.038940
0.054894
0.106179
0.078256
0.051449
0.058798
0.121419
0.136205
0.126250
0.135702
0.139954
0.128681
0.103388
0.172436
0.169577
0.109175
0.168436
0.251720
0.188297
0.393126
0.254271
0.304055
0.304704
0.377738
0.408278
0.459266
0.463881
0.486801
0.485004
0.481394
0.485011
0.558757
0.460935
0.466547
0.567903
0.581038
0.506905
0.519879
0.618254
0.596098
0.576942
0.550513
0.522679
0.516533
