-0.056430
0.003908
-0.024372
0.050203
-0.058414
-0.015828
-0.040849
-0.019474
0.039549
-0.024805
-0.017705
0.065298
-0.027988
0.033359
0.022215
-0.057096
0.012011
-0.041338
0.040825
0.031064
-0.000432
0.102095
-0.059991
0.029813
0.098410
0.025946
0.063970
0.120058
0.090386
0.023059
0.141910
0.107708
0.074896
0.101608
0.102118
0.136818
0.223659
0.136467
0.154152
0.160939
0.150213
0.156763
0.240749
0.206181
0.150920
0.275779
0.197924
0.195730
0.218617
0.190185
0.106844
0.100966
0.155915
0.132747
0.136853
0.106438
0.137720
0.040393
0.116282
0.120926
0.086105
0.052056
0.081240
0.048599
0.021692
0.055389
0.034620
0.122524
0.080800
0.008280
0.091956
-0.050758
0.062887
0.024254
-0.034610
0.108522
0.043587
-0.019425
-0.023196
-0.034549
0.039969
0.031338
0.198268
0.440363
0.786437
1.040987
1.294910
1.413058
1.393987
1.122312
0.701819
0.436297
0.066148
-0.159933
-0.176256
-0.190059
-0.152241
-0.065947
0.042748
0.042943
0.042996
-0.017754
0.091590
0.032311
0.075843
0.105300
0.047688
0.125062
0.086169
0.180998
0.107927
0.176249
0.155410
0.227294
0.217827
0.194125
0.160022
0.225296
0.239095
0.376336
0.345596
0.269886
0.331234
0.258309
0.305077
0.310338
0.411274
0.391442
0.341092
0.436444
0.505570
0.553759
0.469110
0.504549
0.490291
0.576539
0.591920
0.521112
0.626998
0.509108
0.663557
0.647421
0.530991
0.553884
0.550987
0.515693
0.583289
0.478145
0.510295
0.509956
0.510142
0.518969
0.457047
0.484595
0.445707
0.393130
0.447930
0.426749
0.413163
0.364232
0.346613
0.357689
0.182455
0.277529
0.271013
0.261130
0.246931
0.173945
0.222638
0.241844
0.194482
0.147373
0.166132
0.069071
0.198144
0.127704
0.087406
0.078445
0.084345
0.075764
0.094135
0.088208
0.096479
0.078829
0.175522
0.154310
0.065098
0.114235
0.053982
0.067958
0.030664
0.148607
0.116511
0.071118
0.151378
0.127615
0.129742
0.065051
0.060460
0.090611
0.072263
0.020622
0.075651
0.105612
0.148485
0.093795
0.075686
0.089275
0.125937
0.140947
0.102699
0.080187
-0.023927
0.031442
0.107998
0.055690
0.172016
0.050332
0.047815
0.066460
0.057159
0.001673
0.111415
0.137458
0.087266
0.201545
0.096829
0.092512
0.121379
0.128591
0.157777
0.120955
0.121470
0.018602
0.090704
0.099791
0.094030
0.090183
0.127532
0.093156
0.144498
0.116387
0.127812
0.214748
0.162271
0.144458
0.154538
0.145309
0.125528
0.168437
0.211443
0.162659
0.202011
0.235800
0.181614
0.238073
0.313320
0.214672
0.256820
0.187553
0.178502
0.189236
0.122414
0.247122
0.266616
0.234392
0.274275
0.189423
0.199935
0.204404
0.243773
0.232297
0.159090
0.182243
0.114806
0.090466
0.184559
0.203750
0.123860
0.066346
0.138517
0.110928
0.028545
0.116300
0.010575
0.051492
0.037180
0.066388
0.074349
0.043268
0.136237
0.008966
0.064930
0.050158
0.064821
0.085079
-0.005624
0.078011
0.078120
0.168182
0.317100
0.579788
0.963306
1.322970
1.349901
1.447725
1.300590
0.944946
0.581827
0.264709
-0.015586
-0.185560
-0.191143
-0.139400
-0.165514
-0.076674
0.019542
0.024622
0.093189
0.125840
0.025789
0.089910
0.128189
0.092512
0.113981
0.042975
0.196877
0.102314
0.047281
0.082636
0.060308
0.136854
0.124544
0.114408
0.232018
0.204212
0.226943
0.188871
0.265984
0.184025
0.163459
0.297351
0.325183
0.339531
0.366512
0.398548
0.362741
0.489107
0.461626
0.399502
0.443208
0.498880
0.478534
0.531156
0.507805
0.503913
0.560124
0.552968
0.605016
0.512975
0.534588
0.579544
0.522495
0.567778
0.454416
0.560410
0.466595
0.336832
0.445746
0.478666
0.371905
0.452912
0.344930
0.382001
0.269891
0.250973
0.288649
0.316148
0.230730
0.220424
0.146814
0.293169
0.022503
0.163565
0.093900
0.220486
0.125898
0.129891
0.052740
0.088393
0.035123
0.024665
0.103384
-0.006685
0.019789
0.027416
0.062432
0.012145
0.016086
0.041064
0.018819
-0.003184
-0.040058
0.076415
0.006472
0.036551
0.031795
-0.008753
0.041898
0.019945
0.001614
-0.003123
-0.016814
-0.055575
0.027221
-0.034183
-0.046243
-0.059999
-0.011191
-0.105671
-0.005769
0.101748
0.048102
0.037240
0.012206
-0.001053
-0.032884
-0.013054
0.045677
-0.017335
0.041794
0.009278
-0.008964
0.006729
-0.028518
0.036930
0.044307
-0.067657
-0.031464
-0.046361
-0.028566
-0.139257
0.026841
-0.065354
-0.028765
0.015697
0.008972
-0.036185
0.019108
-0.022295
-0.008265
-0.038502
-0.012619
-0.052866
-0.036889
0.017513
0.070217
-0.007939
-0.036874
-0.028465
0.012372
-0.019584
-0.005163
0.067375
0.046814
-0.008991
0.060087
0.097419
0.000928
0.087246
0.082772
0.095714
0.143122
0.106158
0.132819
0.165261
0.105033
0.126527
0.139529
0.105831
0.171192
0.159348
0.110585
0.172875
0.153562
0.067532
0.106260
0.032743
0.081984
0.028429
0.053248
0.038133
0.028052
0.022151
0.006947
-0.041695
-0.012721
-0.075937
0.124107
-0.046924
0.009582
-0.077696
-0.035482
-0.080350
-0.039541
-0.032213
-0.033346
-0.021108
-0.099179
0.042007
-0.003256
-0.084818
-0.095110
-0.127807
-0.014199
-0.082786
0.008421
0.261873
0.375487
0.668366
1.053124
1.277662
1.372646
1.267910
0.946927
0.620958
0.263649
-0.087860
-0.215394
-0.317755
-0.293577
-0.254386
-0.103661
-0.078986
-0.004141
-0.114595
-0.021441
-0.041732
-0.008678
-0.005962
0.030776
0.024891
-0.007005
-0.016922
-0.001051
0.064510
-0.003534
0.045914
0.049507
0.028113
0.088674
0.098113
0.090145
0.125727
0.092910
0.190014
0.063439
0.151895
0.229245
0.177071
0.182224
0.262293
0.356483
0.286973
0.309137
0.346798
0.406489
0.412332
0.356857
0.399297
0.473343
0.371020
0.428704
0.379511
0.514191
0.448314
0.431389
0.432709
0.521765
0.456317
0.428592
0.459138
0.477835
0.352072
0.340367
0.362777
0.291053
0.359459
0.324880
0.296282
0.273039
0.292300
0.247847
0.196048
0.294799
0.218525
0.144601
0.157972
0.136111
0.109384
0.149630
0.004773
0.077874
0.074951
0.022896
0.035014
0.072217
-0.041337
0.009874
0.018919
-0.004566
-0.023899
0.009647
-0.049627
0.013761
-0.049256
-0.001524
-0.136505
-0.032129
-0.084467
-0.023242
-0.069995
-0.034094
-0.095415
-0.081297
-0.047266
-0.017984
-0.008367
0.011072
-0.049076
-0.028533
-0.011925
0.007987
0.056542
-0.010297
-0.120549
0.019562
-0.082756
0.040149
-0.039632
-0.007532
-0.062566
-0.007934
-0.030819
0.002050
0.016379
-0.072715
-0.076728
-0.022635
0.006177
-0.048434
-0.062246
-0.010057
-0.035597
-0.025845
-0.080010
-0.002070
-0.085399
0.030584
-0.030642
-0.048480
-0.011932
-0.073303
-0.042182
0.021926
0.033197
-0.017410
-0.034876
0.047376
-0.039148
-0.004084
-0.007885
-0.060445
-0.028389
0.016805
0.028001
0.094205
-0.011905
0.048976
0.068117
0.030438
0.069751
0.120287
0.020658
0.086324
0.107697
0.100843
0.110180
0.071378
0.149650
0.126951
0.161189
0.100886
0.192881
0.141731
0.152802
0.185615
0.145987
0.163131
0.137510
0.125207
0.114483
0.124897
0.022924
0.080646
0.112330
0.082861
0.132325
0.149135
0.066988
0.059399
0.053831
0.014822
0.003822
0.098985
0.006175
0.097801
0.015273
0.019622
0.031886
-0.000353
-0.000256
-0.012488
-0.022825
-0.015532
-0.002354
-0.003937
-0.015725
-0.040636
0.073095
-0.044286
-0.007416
-0.040648
0.015689
0.043028
0.334791
0.671572
0.994552
1.293530
1.365041
1.290954
1.125597
0.911396
0.391882
0.152507
-0.152748
-0.225796
-0.275643
-0.215551
-0.076817
-0.007600
0.047950
0.019887
0.009928
0.031656
0.024151
0.016608
0.015154
0.050112
0.080658
0.053650
0.084029
0.093826
0.069324
0.167475
0.068697
0.084338
0.207106
0.160044
0.264964
0.219199
0.184542
0.201262
0.228104
0.239860
0.227001
0.357386
0.320075
0.383104
0.316169
0.259961
0.321342
0.467266
0.434663
0.427605
0.535163
0.449804
0.422784
0.562546
0.504292
0.553991
0.507966
0.577942
0.479431
0.583847
0.557382
0.499277
0.549254
0.513791
0.438045
0.588585
0.485278
0.528575
0.578674
0.499204
0.400059
0.421567
0.331796
0.397696
0.343640
0.371604
0.335706
0.206618
0.293803
0.302141
0.234599
0.168995
0.169340
0.220538
0.194436
0.203368
0.150215
0.093164
0.091310
0.098770
0.165056
0.153339
0.097731
0.053094
0.157319
0.103814
0.108955
0.108276
-0.031806
0.064853
0.030579
0.065241
0.089472
0.134153
0.046707
0.093192
0.097220
0.086570
-0.004853
0.152212
0.079004
0.046080
0.115608
0.082222
0.030482
0.127671
0.131596
0.029536
0.111577
0.183174
-0.023634
0.039470
0.103888
0.022735
0.065126
0.038283
0.156797
0.087074
0.118780
0.088624
0.078395
0.134977
0.100907
0.060402
0.131725
0.052594
0.067845
0.086701
0.148240
0.091606
0.184319
0.105009
0.147217
0.059629
0.083695
0.073303
0.079551
-0.018192
0.112370
0.142066
0.098361
0.013730
0.033437
0.023840
0.132969
0.110810
0.116122
0.132725
0.086652
0.039271
0.076417
0.123145
0.090492
0.129364
0.216866
0.139459
0.190277
0.220878
0.129221
0.195721
0.237758
0.263335
0.261348
0.195995
0.260739
0.185977
0.289554
0.303419
0.263202
0.259049
0.291527
0.215885
0.200972
0.215690
0.212563
0.236796
0.192959
0.207621
0.150655
0.180374
0.174149
0.199239
0.236466
0.214739
0.116915
0.092706
0.182906
0.204583
0.172451
0.053634
0.163027
0.073386
0.037891
0.064939
0.178937
0.128527
0.120453
0.092385
0.139767
0.073059
0.065694
0.044898
0.086127
0.085784
0.052756
0.028541
0.171372
0.314971
0.606028
0.888109
1.195028
1.500000
1.441836
1.209448
0.951200
0.660041
0.297571
0.051080
-0.103992
-0.162404
-0.162436
-0.056079
0.012174
0.033840
0.089411
0.051936
0.050201
0.105958
0.062428
0.130253
0.124878
0.079707
0.133209
0.117722
0.132314
0.151566
0.153189
0.125844
0.269526
0.216785
0.237932
0.248085
0.259090
0.212667
0.238033
0.301395
0.336949
0.304834
0.268646
0.289987
0.393627
0.402738
0.506781
0.483719
0.430713
0.492476
0.485212
0.435314
0.474407
0.542207
0.523078
0.628093
0.565548
0.612195
0.579995
0.586200
0.493174
0.667934
0.533451
0.545567
0.607845
0.551110
0.508417
0.564558
0.483663
0.436893
0.563572
0.431296
0.380781
0.445125
0.393518
0.367174
0.353840
0.399006
0.288912
0.304308
0.345303
0.194804
0.263174
0.217227
0.242402
0.256046
0.220078
0.185284
0.154054
0.188056
0.123232
0.104393
0.153117
0.109140
0.056008
0.104603
0.095746
0.145735
0.076466
0.110165
0.096277
0.114209
0.091911
0.071914
0.071357
0.040192
0.025188
0.109607
0.147509
0.061685
-0.013051
0.086606
0.061394
0.002735
0.025760
0.012775
-0.007233
-0.047888
0.121839
0.046066
0.077183
0.035159
0.015684
0.030567
0.065830
0.001324
-0.020113
0.008779
0.021436
0.028848
-0.062900
0.064920
0.088382
-0.008624
0.011794
0.022566
0.087044
0.116666
0.140661
0.039574
-0.032484
-0.005727
0.031771
0.091189
0.016099
0.014248
-0.070452
0.079881
-0.022140
0.040475
0.070931
-0.011075
-0.001838
0.016243
0.059404
0.021013
-0.004078
-0.016678
0.031674
0.060585
0.058519
0.068391
0.023833
0.080397
0.102809
0.059918
0.188604
0.122557
0.048397
0.049830
0.100832
0.165444
0.182748
0.160401
0.123555
0.168140
0.119152
0.167647
0.174760
0.211273
0.250592
0.184056
0.134464
0.200561
0.136396
0.084983
0.026639
0.172974
0.132153
0.041131
0.158299
0.161576
0.098931
0.071918
-0.003839
0.023065
0.059767
0.014702
-0.014224
-0.001759
0.001237
-0.018503
0.078439
0.004206
0.024985
-0.004500
0.118124
-0.070724
0.045294
-0.026306
-0.005243
-0.007202
-0.095985
-0.020104
0.054648
-0.022813
0.002582
0.011116
0.120703
0.396050
0.756800
1.041225
1.237697
1.327068
1.288728
1.034631
0.693709
0.309372
-0.003440
-0.225960
-0.266548
-0.297926
-0.189517
-0.092702
-0.136057
-0.012374
-0.005646
0.071213
-0.026719
-0.025714
0.061793
-0.020623
0.005159
0.057050
-0.004313
-0.008861
0.001935
0.099970
0.094152
0.053498
0.050799
-0.044873
0.041347
0.078250
0.116639
0.096009
0.092749
0.195854
0.291102
0.261793
0.239704
0.219484
0.283171
0.173234
0.308472
0.305864
0.272450
0.325018
0.243635
0.443513
0.448801
0.461238
0.434222
0.427491
0.550294
0.433354
0.398371
0.450001
0.493210
0.402716
0.556864
0.378984
0.429583
0.357993
0.457373
0.405474
0.439904
0.394264
0.393266
0.381826
0.309487
0.313261
0.286866
0.306711
0.164707
0.219900
0.158286
0.167469
0.128066
0.087923
0.112993
0.090757
-0.031199
0.100585
0.027531
-0.021084
-0.023906
0.030555
0.019004
0.019631
0.011279
-0.008968
0.043587
-0.078841
-0.032235
-0.111611
-0.031617
-0.067596
0.002771
-0.114161
-0.078370
0.020278
-0.064634
-0.043135
-0.030204
-0.059627
-0.082207
-0.037166
-0.024802
-0.034466
-0.085002
-0.104824
-0.085811
-0.062633
-0.036561
-0.115062
-0.117703
-0.089059
-0.103323
-0.075861
-0.077331
-0.084068
-0.053493
-0.102173
-0.038569
-0.034240
-0.100149
-0.104224
-0.134189
-0.087938
-0.112459
-0.082724
-0.082691
-0.155497
-0.157905
-0.115148
-0.058448
-0.095214
-0.090395
-0.158165
-0.050474
-0.040705
-0.040121
-0.063169
-0.031770
-0.067445
-0.077751
0.000486
-0.062558
-0.041512
-0.075515
-0.066662
-0.090425
-0.093554
-0.073803
-0.073623
-0.020383
-0.066450
-0.007208
-0.013505
-0.030907
-0.031748
-0.010751
0.012192
0.073906
0.057039
-0.042631
0.103872
-0.001832
0.074927
0.055904
0.093265
0.045008
0.163129
0.129655
0.090239
0.103557
0.092952
0.115975
0.027255
0.072306
0.118476
0.027092
0.129599
0.042194
0.033165
-0.010276
0.113434
-0.005772
0.000127
-0.040059
0.008762
-0.075430
-0.061846
0.055609
-0.095741
-0.060877
-0.063774
-0.108298
-0.027813
-0.081665
-0.059216
-0.099922
-0.000169
-0.065317
-0.003153
-0.032468
-0.070644
-0.077768
-0.018240
-0.065314
-0.111823
-0.144712
-0.182910
-0.019124
0.080333
0.271195
0.501376
0.853374
1.085984
1.331432
1.316192
1.131207
0.779000
0.463915
0.092490
-0.132174
-0.268669
-0.404673
-0.297177
-0.247152
-0.085495
-0.051978
-0.046626
-0.125393
0.033158
-0.037688
-0.126749
-0.008575
0.034843
-0.062186
-0.079052
0.033368
0.013703
0.055730
0.003444
-0.017086
-0.050453
0.083045
0.061119
0.030213
0.086323
0.128371
0.143957
0.106275
0.209581
0.165242
0.153740
0.241567
0.287103
0.203282
0.315137
0.303619
0.305912
0.384026
0.370516
0.339375
0.384163
0.432526
0.393837
0.467338
0.432170
0.422422
0.369344
0.438278
0.458710
0.451557
0.422633
0.443391
0.449957
0.411936
0.399268
0.395696
0.380430
0.343143
0.363684
0.349139
0.342579
0.241545
0.265342
0.205973
0.220341
0.239414
0.154241
0.160939
0.099836
0.138185
0.150133
0.112946
0.156781
0.110074
0.056209
0.006521
0.065776
-0.012931
0.063095
-0.091091
0.047530
0.002255
0.014082
-0.068176
-0.005823
-0.020060
-0.008972
0.004444
-0.066705
0.059871
-0.041360
-0.091025
-0.039015
-0.039170
-0.033478
0.056753
-0.045204
-0.034563
-0.022938
-0.064162
-0.036949
-0.004317
-0.054475
-0.042637
-0.078018
-0.000832
-0.064657
-0.068734
-0.046633
0.022378
-0.005351
-0.054769
-0.054225
0.008592
-0.079274
0.011979
0.013568
-0.016191
0.013885
-0.049067
0.036187
-0.042177
0.005924
-0.016058
-0.025619
0.005366
-0.011825
0.027449
-0.011619
0.008685
0.018432
-0.022087
0.009512
0.031493
0.000468
-0.073667
-0.030117
-0.049853
0.054559
-0.019396
0.005997
0.023830
-0.002179
-0.096146
-0.008914
0.070150
0.082227
0.045035
0.044274
0.068070
0.007235
0.073131
0.036901
0.017444
0.117035
0.060840
0.111103
0.021116
0.074401
0.073385
0.121606
0.118485
0.219343
0.136868
0.227721
0.194393
0.160209
0.192532
0.177214
0.228698
0.226411
0.160971
0.166504
0.099794
0.173993
0.167494
0.097861
0.115392
0.062005
0.086607
0.055086
0.077778
0.033659
-0.001254
0.090849
0.034026
0.049343
0.054483
0.032310
0.047938
0.033311
0.004436
0.076442
0.006937
0.039247
0.034833
0.064547
0.061017
0.047939
0.007509
0.066849
-0.004039
0.090702
-0.020584
-0.027598
0.091475
0.321353
0.538894
0.747697
1.146081
1.444718
1.441383
1.280912
0.890873
0.676579
0.324541
0.002847
-0.149142
-0.215212
-0.174265
-0.089613
-0.048152
-0.003167
0.031025
0.103036
0.046097
0.033817
-0.041703
0.043796
0.122933
0.015555
0.108923
0.095163
0.127687
0.073841
0.152155
0.118922
0.116285
0.066414
0.162780
0.201898
0.203345
0.239383
0.248087
0.321011
0.283551
0.258811
0.260032
0.278542
0.299106
0.364333
0.309743
0.382245
0.469688
0.383097
0.372221
0.489768
0.425368
0.513845
0.533328
0.508494
0.526058
0.629606
0.563656
0.564648
0.533967
0.592015
0.521870
0.521177
0.534838
0.471084
0.573610
0.481376
0.470027
0.379953
0.491400
0.423747
0.489850
0.379290
0.383209
0.416809
0.329042
0.259482
0.227553
0.301148
0.169397
0.234999
0.260533
0.212339
0.294187
0.151129
0.172488
0.214423
0.065800
0.107239
0.137931
0.050448
0.169151
0.093819
0.046787
0.047084
0.097810
0.035914
0.103388
0.032125
0.049775
0.041159
0.007793
0.019327
0.080927
0.093254
0.111346
0.119046
0.021529
0.045428
0.086319
0.069035
0.086113
0.079950
0.048769
0.032877
0.051108
0.034306
0.136320
-0.033094
0.043611
-0.002531
0.042619
0.048031
0.029007
0.108352
-0.011238
-0.034095
0.056540
0.028476
-0.005970
0.036869
0.021406
-0.001662
0.034810
0.099497
0.050315
0.040117
0.050040
0.042897
0.076207
0.098793
-0.054142
0.034914
-0.019945
0.024251
0.050673
0.007262
0.015865
0.107385
0.051950
-0.001131
0.047417
0.020733
0.046009
-0.060351
-0.013409
0.094214
0.083781
0.030840
0.022507
0.080753
0.121142
-0.024927
0.064578
0.078763
0.196493
0.120698
0.126503
0.137483
0.039415
0.169367
0.111211
0.136731
0.188144
0.270534
0.262806
0.128470
0.174889
0.200132
0.123530
0.210808
0.187689
0.188851
0.176790
0.202513
0.135477
0.130940
0.165974
0.259247
0.115332
0.055958
0.107141
0.142322
0.088885
0.157882
0.055654
0.133771
0.058784
-0.024993
0.011384
0.021704
0.037718
0.048690
-0.031546
0.055962
0.001628
-0.019960
0.037970
0.027354
0.043478
-0.070697
-0.009009
-0.048051
0.004117
-0.039602
-0.004562
-0.032699
0.187617
0.403169
0.718755
0.984662
1.260867
1.386005
1.339657
1.140846
0.741055
0.438562
0.073235
-0.119684
-0.260702
-0.233793
-0.239225
-0.105386
-0.096495
-0.055591
-0.016005
-0.078039
0.063056
0.030128
0.039366
0.075588
0.009956
0.029413
0.079318
0.007928
0.067536
0.041422
0.061529
0.146690
0.058621
0.079626
0.054863
0.112273
0.161035
0.136537
0.164397
0.184264
0.220034
0.180539
0.213019
0.376642
0.268734
0.308061
0.340154
0.310515
0.397482
0.358058
0.422169
0.425467
0.475565
0.443176
0.471394
0.485691
0.480644
0.405964
0.471146
0.443865
0.392876
0.458152
0.446457
0.472100
0.479443
0.414456
0.433144
0.396861
0.381431
0.353896
0.384618
0.399387
0.261194
0.265848
0.212729
0.231644
0.278482
0.216072
0.214618
0.104371
0.182635
0.112285
0.044321
0.078699
0.116663
0.117289
0.123416
0.029221
0.037845
0.026864
0.011458
0.037829
0.002318
-0.103873
0.071643
-0.063809
-0.001180
0.064112
0.000174
-0.059578
0.071553
-0.042890
-0.084478
-0.032576
-0.014632
-0.018865
-0.006050
0.002603
-0.019721
-0.064520
-0.077406
-0.075175
-0.062341
-0.051015
0.005821
-0.054983
-0.023752
-0.045709
-0.096905
-0.036844
-0.009168
-0.013068
-0.054777
-0.062175
-0.032350
-0.056179
-0.036332
-0.053226
-0.020266
-0.046100
-0.137673
-0.038196
-0.127978
-0.113384
-0.044308
-0.032563
-0.122980
-0.147999
-0.090229
-0.135443
-0.021076
-0.056222
-0.106006
-0.011141
-0.108338
-0.094110
-0.050010
-0.010474
-0.047787
-0.059301
-0.075666
-0.121784
0.018849
-0.054932
-0.056348
-0.142080
-0.070439
0.007318
-0.106258
-0.062309
-0.062184
-0.066864
-0.011574
-0.042846
-0.012031
-0.064888
-0.082743
0.001477
0.024093
0.072955
0.146671
-0.057841
0.083443
0.152110
0.034926
0.020501
0.082987
0.104134
0.140041
0.165769
0.068290
0.113434
0.036257
0.016612
0.130045
0.083120
0.014008
0.040421
0.021487
0.004458
-0.066198
-0.002482
-0.024817
-0.025826
-0.101859
-0.030542
-0.103149
-0.053997
-0.145160
-0.103808
-0.015572
-0.057894
-0.020459
-0.103333
-0.060964
-0.057413
-0.065863
-0.075913
-0.103732
-0.081052
-0.125889
-0.125575
-0.066968
-0.051884
-0.190028
-0.079030
-0.105351
-0.034707
0.138457
0.378863
0.782118
1.045610
1.179966
1.276876
1.100376
0.745361
0.466508
0.149937
-0.065640
-0.302960
-0.308219
-0.328402
-0.305453
-0.210787
-0.127227
-0.139256
-0.046916
-0.094220
-0.087353
-0.095284
-0.043936
-0.064557
-0.012929
-0.123066
-0.007878
-0.031754
-0.069508
0.026392
0.020016
0.021398
0.041269
-0.018102
0.113882
0.071808
0.059492
0.008605
0.129542
0.110759
0.108375
0.120263
0.118476
0.183223
0.214822
0.147258
0.266658
0.237688
0.347503
0.331497
0.283573
0.375319
0.307041
0.410002
0.441762
0.352550
0.388131
0.482115
0.441467
0.424696
0.322682
0.390433
0.414528
0.441010
0.364376
0.342859
0.295399
0.334342
0.309802
0.318574
0.261853
0.315164
0.257719
0.203596
0.137726
0.188443
0.125708
0.100487
0.205865
0.061710
0.112514
0.008931
0.108281
0.057915
0.018392
0.049166
-0.064458
0.052855
-0.011328
0.039608
-0.049106
-0.051873
-0.073742
-0.078995
-0.035434
0.005948
-0.046788
-0.070799
-0.121121
-0.087802
-0.024510
-0.107508
-0.119745
-0.099035
-0.051675
-0.079124
-0.083534
-0.163195
-0.048730
-0.056538
-0.107794
-0.077781
-0.084335
-0.021301
-0.034977
-0.085140
-0.006988
-0.126863
-0.144278
-0.061554
-0.116780
-0.134415
-0.049648
-0.069018
-0.059835
-0.057999
-0.046506
-0.088983
-0.071585
-0.050125
-0.030972
-0.065698
-0.031521
-0.012084
-0.160156
-0.127741
-0.046507
-0.101352
-0.001197
0.024945
-0.063726
-0.142265
-0.102450
-0.085624
-0.072992
-0.063128
-0.002364
-0.067083
0.017547
-0.078498
-0.041959
-0.104630
-0.148521
-0.085359
-0.001640
0.002113
-0.058942
-0.055989
-0.107299
-0.125920
-0.025499
0.030341
-0.025707
0.056432
-0.033682
-0.068495
0.019794
0.034340
0.061694
0.075138
0.102355
0.048113
0.092092
0.053496
0.103173
0.072808
0.110767
0.182138
0.046840
0.099239
0.175926
0.128263
0.056795
0.051824
0.071431
0.047292
0.077538
0.000655
0.104118
0.084450
0.084665
0.067563
0.000436
-0.021460
-0.009159
-0.013905
-0.023821
0.018679
-0.090270
-0.122557
-0.025552
-0.054687
-0.079114
-0.025218
0.040719
0.033547
-0.093894
0.029692
0.003770
-0.067054
-0.053735
0.062730
0.027877
0.008198
0.040821
-0.115183
0.057066
0.202411
0.440243
0.656281
1.046164
1.268270
1.352200
1.287570
1.021879
0.694001
0.355874
-0.080579
-0.145801
-0.216999
-0.329132
-0.189676
-0.184899
-0.142837
-0.024313
-0.000199
-0.112805
-0.023535
0.051850
-0.068108
-0.000302
0.007756
0.014364
0.033834
0.007286
0.073955
0.059781
0.085599
0.067087
0.040393
0.175950
0.130758
0.173948
0.147678
0.141381
0.222337
0.232402
0.264347
0.243955
0.254101
0.299886
0.336760
0.266919
0.353523
0.385518
0.398322
0.470467
0.363896
0.431760
0.352786
0.418641
0.492486
0.428574
0.526639
0.473621
0.422748
0.479208
0.543446
0.581241
0.458597
0.474270
0.520738
0.530120
0.483186
0.492128
0.460929
0.426017
0.458960
0.427520
0.382660
0.284725
0.292920
0.201906
0.300255
0.307795
0.201082
0.200887
0.135015
0.242996
0.198816
0.190144
0.209178
0.136165
0.121794
0.158997
0.117679
0.127216
0.114786
0.037086
0.045046
0.058203
0.023323
0.113062
0.017077
0.049304
0.086707
0.041831
0.017190
0.040056
0.108737
-0.008076
-0.028024
0.065919
0.073706
-0.013275
-0.013173
0.020602
0.068890
0.052404
0.061006
0.043748
0.031429
0.070844
0.025132
0.045157
0.001139
0.075116
0.013861
0.001704
0.032916
0.043170
-0.031077
0.096653
0.026806
0.029596
-0.028833
0.058066
0.122000
-0.000992
0.019121
0.045066
0.056066
0.031235
0.062324
0.058495
0.072061
0.061048
0.106961
-0.039852
0.062385
-0.007959
0.025112
0.094284
0.062976
0.057662
0.088652
0.067223
0.083815
0.015633
0.046888
0.123733
0.081606
0.043471
0.126937
0.073320
0.055745
0.095951
0.107617
0.142856
0.130053
0.127828
0.097548
0.179413
0.119386
0.118076
0.158682
0.124900
0.237717
0.217106
0.167260
0.222767
0.299096
0.205869
0.222747
0.158126
0.187751
0.244374
0.240365
0.275252
0.210138
0.180537
0.173582
0.260709
0.130937
0.207181
0.192635
0.248765
0.165212
0.174607
0.149681
0.087778
0.145718
0.145693
0.131666
0.081757
0.127038
0.116782
0.080823
0.112579
0.103814
0.142640
0.058041
0.046244
0.041011
0.135429
0.093992
0.071056
-0.004680
0.120612
0.025974
0.016929
0.007260
0.088088
0.031617
0.147862
0.398580
0.620674
1.001726
1.298989
1.382281
1.391734
1.127881
0.785315
0.564479
0.043151
0.026156
-0.218128
-0.099527
-0.141142
-0.068546
0.078922
0.045719
0.125871
0.121733
0.030836
0.005532
0.006163
0.064966
0.028100
0.118801
0.074483
