0.096657
-0.005921
-0.001245
0.059316
-0.034167
0.030085
0.035976
0.011854
0.046487
-0.016678
0.044062
0.001630
0.008619
-0.020362
0.113019
0.019739
0.021507
-0.070245
-0.056876
-0.038808
-0.024387
0.013735
0.101133
-0.080156
0.006228
0.064165
0.032514
0.063507
-0.030001
-0.043944
0.095858
0.040493
0.050497
-0.006597
0.062172
0.106505
0.074236
0.101682
0.061217
0.147764
0.112516
0.131309
0.077812
0.144053
0.075094
0.124840
0.188599
0.188523
0.140426
0.250710
0.188563
0.116125
0.253187
0.178543
0.279592
0.230347
0.161364
0.214658
0.180324
0.101926
0.208181
0.117693
0.069051
0.117773
0.142502
0.020224
0.122911
0.058414
0.140446
0.057447
0.104432
0.079351
0.088337
0.050277
0.048991
0.049825
0.016086
0.127283
0.080957
0.110273
0.079537
0.046370
0.158388
-0.018281
0.034272
0.021907
0.078150
0.143198
0.091210
0.038386
0.082668
0.026635
0.068820
0.043067
0.012669
-0.048012
0.010189
0.013094
0.158116
0.315316
0.582089
1.019004
1.312347
1.465865
1.480434
1.303071
0.995642
0.696515
0.285811
0.088457
-0.056422
-0.331145
-0.299194
-0.309223
-0.161648
-0.084267
0.043111
0.061907
0.043915
0.083085
0.033775
0.121026
0.042237
-0.037598
0.057972
0.164468
0.039355
0.032416
0.057180
0.175884
0.171231
0.158614
0.153286
0.060698
0.175944
0.091419
0.110709
0.137064
0.178676
0.217936
0.177011
0.216923
0.220578
0.161870
0.249313
0.288179
0.278316
0.244489
0.354026
0.311713
0.326256
0.395106
0.353299
0.377505
0.474545
0.495029
0.463997
0.413368
0.451980
0.520451
0.489340
0.491327
0.552215
0.527918
0.599835
0.594824
0.589609
0.639465
0.609799
0.581215
0.575028
0.541571
0.527270
0.561140
0.547325
0.548061
0.542163
0.511509
0.508794
0.391672
0.476775
0.402287
0.358190
0.421464
0.329249
0.336760
0.274903
0.295996
0.303328
0.275706
0.344143
0.275393
0.303229
0.233469
0.237881
0.221056
0.133914
0.121117
0.138708
0.159873
0.191052
0.115048
0.131852
0.072252
0.121282
0.097606
0.185693
0.084704
0.068344
0.076352
0.005852
0.082896
0.116029
0.106710
0.113469
0.072686
0.121668
0.057899
0.113462
0.026540
0.034920
0.126365
0.161127
0.153198
0.087902
0.100256
0.138650
0.058081
0.042427
0.103784
0.049082
0.110849
0.097600
0.115782
0.118303
0.112022
0.104811
0.096603
0.128867
0.099080
0.068085
0.038613
0.080619
0.127153
0.106600
-0.005380
0.146834
0.018400
0.052532
0.089480
0.076740
0.083614
0.046194
0.132361
0.155897
0.031863
0.071973
0.110571
0.112434
0.162058
0.062491
0.107225
0.006225
0.074337
0.080337
0.094862
0.094003
0.111326
0.118004
0.076125
0.098852
0.061822
0.124232
0.066877
0.051542
0.097417
0.035498
-0.014432
0.075032
-0.008462
0.114755
0.047375
-0.036068
0.057606
0.084644
0.098297
0.091668
0.072506
0.088910
0.081780
0.129699
0.102208
-0.001980
0.111598
0.156955
0.139056
0.154352
0.055556
0.204651
0.163601
0.116419
0.153976
0.221964
0.218545
0.202397
0.196723
0.202101
0.162062
0.282650
0.198839
0.244304
0.248740
0.220956
0.250252
0.196749
0.212128
0.206711
0.137145
0.187418
0.263637
0.088422
0.159495
0.265316
0.130447
0.187508
0.133214
0.125232
0.103513
0.111679
0.099073
0.105104
0.129546
0.057617
0.036389
0.005105
0.061927
-0.009743
0.069486
0.092642
0.014385
0.056963
0.056428
0.031758
0.034954
0.027860
0.098635
0.111881
0.011851
0.073936
-0.042464
0.043603
-0.010583
-0.010280
-0.017298
-0.106731
-0.022710
-0.069555
0.203726
0.429583
0.778858
1.064713
1.340150
1.491423
1.327255
1.176549
0.898417
0.573528
0.237104
0.031435
-0.258749
-0.204171
-0.347473
-0.131796
-0.174898
-0.002636
0.120681
0.015430
-0.029175
0.124908
0.034412
0.023220
0.037158
0.046170
-0.040301
0.062278
0.046253
-0.010426
0.011983
0.016855
-0.036239
0.096116
0.062100
0.091396
-0.050302
-0.015582
0.133458
0.083500
0.161868
0.050775
0.126961
0.118641
0.167560
0.108246
0.126993
0.192814
0.146801
0.158858
0.162902
0.258126
0.302904
0.218634
0.219008
0.318455
0.441718
0.345861
0.317279
0.472170
0.347137
0.400303
0.404090
0.509565
0.479243
0.445824
0.578003
0.480774
0.471118
0.496906
0.536561
0.566553
0.430681
0.515360
0.444290
0.433928
0.497529
0.410802
0.490228
0.338975
0.319960
0.435875
0.384490
0.329519
0.419211
0.311696
0.236336
0.235974
0.223399
0.193605
0.131818
0.167745
0.190887
0.136310
0.126347
0.059550
0.091177
0.079895
0.101335
0.078611
0.086821
-0.009902
0.055445
0.003077
0.005363
0.010584
0.030062
-0.034256
0.037482
-0.001625
-0.065989
-0.005682
0.016081
0.016159
-0.006607
0.093403
0.019589
-0.064691
-0.035627
0.010380
-0.054200
-0.000914
-0.031523
0.006500
0.013409
-0.056712
-0.014181
0.016906
-0.003444
-0.021388
-0.028160
-0.021817
-0.042860
-0.052256
-0.042393
-0.044938
-0.065818
-0.014382
-0.022058
0.016785
-0.036890
-0.056350
0.045877
-0.062809
-0.037557
-0.071425
-0.093231
0.029296
-0.010401
0.005112
0.031302
-0.024858
-0.059714
-0.089282
0.009550
-0.084787
0.059317
-0.059043
-0.068671
-0.071082
-0.004938
-0.014202
-0.002650
0.031849
-0.088986
-0.025167
-0.088646
-0.090143
0.022071
-0.005153
-0.042832
-0.041503
-0.044734
-0.029455
0.024968
-0.032849
-0.147417
-0.118156
-0.057804
-0.059179
-0.043754
0.014071
-0.094052
-0.035020
-0.024673
-0.056112
0.013221
-0.113580
-0.045702
-0.041214
-0.058825
0.014548
0.020469
0.065922
-0.129679
-0.028020
0.018094
0.040508
-0.044207
0.055216
0.054610
0.039340
0.140607
0.074424
0.112125
0.003324
0.056890
0.039522
0.099870
0.166835
0.064388
0.215896
0.127608
0.114860
0.100453
0.145095
0.114964
0.068627
0.046165
0.091999
0.009059
0.001149
0.063487
0.077948
0.049184
0.068556
0.011951
0.046327
0.082302
-0.016064
0.063311
-0.054610
0.003568
-0.039988
-0.023911
-0.046543
-0.032985
-0.024240
-0.076531
-0.086089
-0.003999
-0.049559
-0.056170
-0.026951
0.014653
-0.101362
-0.080188
-0.092221
-0.017643
-0.129112
-0.001867
-0.055745
0.018132
0.031935
-0.052252
-0.070317
-0.094006
-0.039378
0.022723
0.266063
0.407165
0.877456
1.209664
1.375409
1.409527
1.290919
0.964449
0.638914
0.267144
0.040896
-0.172401
-0.339572
-0.385063
-0.331030
-0.204590
-0.136719
-0.139603
-0.090498
0.021485
-0.054567
-0.093634
-0.007970
-0.030843
-0.058665
0.045920
-0.052873
-0.028876
-0.024457
-0.087908
0.028962
0.001204
0.004941
0.026750
-0.062973
-0.050188
0.039318
0.079430
0.031725
0.018757
0.029327
0.110702
0.060897
0.080837
0.053155
0.199365
0.055019
0.150674
0.288533
0.123462
0.275542
0.218312
0.251978
0.191106
0.249416
0.282766
0.290896
0.394356
0.360287
0.368253
0.299853
0.415283
0.444878
0.473865
0.374189
0.512506
0.447763
0.415641
0.472930
0.551945
0.480999
0.507041
0.496304
0.552558
0.475899
0.479332
0.470510
0.530258
0.413761
0.403338
0.438011
0.376491
0.323934
0.323364
0.368209
0.343648
0.270492
0.227017
0.258901
0.281167
0.175500
0.250809
0.208114
0.088240
0.128861
0.131385
0.083984
0.096881
0.116175
0.129365
0.107733
0.080829
0.047045
-0.007429
-0.033111
0.055640
0.038844
0.032429
0.118194
0.076004
0.093485
0.092961
-0.052629
-0.011515
-0.021040
-0.017888
-0.011580
0.052189
0.057742
0.044133
0.013760
0.042954
0.048288
-0.018515
0.015448
-0.004949
0.021162
0.030084
0.014909
0.049833
0.022910
-0.006216
0.054197
-0.034156
0.037215
0.001136
0.043149
0.033941
-0.000422
0.034999
0.010142
-0.022625
0.043714
0.143582
-0.038954
-0.006801
0.039041
-0.007728
-0.014903
0.034200
-0.043390
0.073675
0.031671
0.011480
-0.007503
0.090722
0.049521
0.065790
0.020717
-0.058936
0.056654
-0.013151
0.006700
0.029681
0.021101
-0.061557
0.078348
0.006045
0.001993
0.039351
0.042139
-0.028683
0.024352
-0.033792
0.122724
-0.007376
0.060375
0.089824
0.012543
0.021874
0.037732
0.068337
0.078589
0.009858
0.049392
0.029061
0.057276
0.055698
0.040511
0.013702
0.151440
0.072072
0.133265
0.075946
0.158063
0.093369
0.091325
0.143157
0.128141
0.097476
0.167366
0.217115
0.158300
0.171843
0.174509
0.163952
0.174294
0.282337
0.200978
0.225414
0.227727
0.291922
0.217840
0.183552
0.250364
0.253451
0.249493
0.175168
0.302557
0.161457
0.134172
0.131856
0.105126
0.123741
0.193211
0.145468
0.159676
0.144918
0.050443
0.142893
0.203678
0.154826
0.071514
0.014366
0.069584
0.071271
0.019093
0.174069
0.024281
0.081790
0.171303
0.115290
0.094226
0.104532
0.025763
0.077453
0.076677
0.046894
0.025868
0.163497
0.014223
0.036939
0.065589
0.109420
-0.022255
0.027391
0.054756
0.092374
0.160404
0.452454
0.685507
1.075411
1.333715
1.500000
1.417645
1.342079
1.014089
0.655730
0.292863
0.049247
-0.147662
-0.255503
-0.308870
-0.189532
-0.001053
-0.097489
0.126893
0.081108
0.060946
0.078824
0.049762
0.065834
0.008642
0.098813
0.211713
0.096891
0.112566
0.145582
0.056076
0.122407
0.106074
0.090414
0.108403
0.106134
0.137584
0.142275
0.114183
0.132123
0.187780
0.165663
0.195863
0.216172
0.166728
0.141564
0.212361
0.160594
0.213458
0.266690
0.298403
0.299890
0.403603
0.372331
0.379590
0.425483
0.436666
0.374628
0.416323
0.525671
0.593397
0.513399
0.477288
0.517263
0.566793
0.506370
0.540289
0.636199
0.600942
0.573555
0.550527
0.666160
0.578315
0.571892
0.560668
0.566578
0.618854
0.520575
0.533370
0.493637
0.552388
0.539003
0.462764
0.490538
0.433446
0.482031
0.353586
0.330053
0.378033
0.328737
0.347652
0.271686
0.283354
0.291956
0.210293
0.211103
0.278582
0.245991
0.197813
0.221469
0.186682
0.070231
0.144649
0.129295
0.243336
0.133351
0.136911
0.184561
0.151771
0.077238
0.092914
0.128858
0.111865
0.077974
0.120414
0.205123
0.061960
0.158101
0.033346
0.166454
0.132127
0.098556
0.142794
0.104040
0.073088
0.058345
0.040626
0.074326
0.038939
0.126094
0.039956
0.092172
0.041475
0.076419
0.104098
0.033546
0.003934
0.052733
0.068102
0.070708
0.002841
0.041957
0.079776
0.150553
0.138963
0.154210
-0.012004
0.048141
0.146443
0.039485
0.048767
0.160809
0.153185
0.129519
0.092295
0.053723
0.130983
0.094580
-0.039231
0.096207
0.113794
0.050813
0.039102
0.150195
0.001550
0.106618
-0.015379
0.034656
0.026300
0.065163
0.086670
0.136463
0.073348
0.051381
0.066527
0.171339
0.099187
0.054303
0.090197
0.058142
0.089597
0.081686
0.068308
0.136586
0.055489
0.028855
0.074777
0.047267
0.108367
0.036175
0.119382
0.145870
0.100242
0.034039
0.111528
0.115578
0.191398
0.091363
0.069654
0.027352
0.136745
0.084145
0.197866
0.181509
0.197766
0.238561
0.264466
0.230459
0.165614
0.196979
0.241502
0.244805
0.288059
0.191711
0.203724
0.286458
0.184317
0.241339
0.125918
0.223310
0.146734
0.129679
0.111875
0.129835
0.111427
0.127148
0.166218
0.103479
0.050282
0.011228
0.046205
0.034290
0.026882
0.018944
0.044521
0.044953
0.027203
0.067398
0.061592
0.115973
0.077587
0.001035
0.016226
0.016233
0.060158
-0.009014
0.025492
0.041751
0.017727
0.042204
-0.007660
0.071046
-0.045811
0.002874
-0.015444
-0.146864
-0.048689
-0.106198
-0.005850
0.139772
0.470667
0.837107
1.127618
1.373001
1.445354
1.362301
1.145194
0.788596
0.461077
0.216148
-0.060911
-0.266164
-0.392259
-0.247881
-0.217856
-0.063423
-0.147158
-0.052837
-0.016354
0.016212
-0.006825
-0.001077
-0.016227
0.046094
-0.039774
-0.020668
-0.018538
-0.088030
-0.076119
0.042637
-0.077891
0.012576
0.037167
0.098773
0.048890
0.028976
0.054743
0.098523
0.067459
0.001116
-0.050206
0.114392
0.007890
0.074613
0.084580
0.141850
0.196718
0.208127
0.167469
0.183962
0.221738
0.205907
0.237424
0.268567
0.283238
0.269315
0.360359
0.315318
0.362787
0.436838
0.374844
0.414052
0.402208
0.458733
0.450831
0.401645
0.489464
0.537486
0.529345
0.459419
0.509856
0.542190
0.439866
0.439898
0.482742
0.436040
0.403110
0.379394
0.430363
0.337044
0.347740
0.268642
0.316858
0.243170
0.252348
0.279133
0.166168
0.199496
0.218940
0.097702
0.172356
0.162235
0.119886
0.084631
0.003239
0.075048
0.046541
0.040992
0.054316
-0.070167
0.008869
-0.052101
-0.006034
-0.054071
0.026106
-0.035431
-0.014028
-0.001556
-0.009298
-0.093424
0.009287
-0.150160
-0.036560
-0.079906
-0.053695
-0.080902
-0.096521
-0.048298
-0.022230
-0.009414
-0.020827
-0.084410
0.066539
-0.057484
-0.070259
-0.070937
-0.097188
-0.082127
-0.039672
-0.048102
-0.070194
-0.039518
-0.027600
0.005651
-0.089523
-0.038293
-0.084725
0.010370
-0.038023
0.024849
-0.044342
-0.078332
-0.113194
-0.055973
-0.116532
-0.054745
-0.045568
-0.008084
0.043070
-0.030519
-0.084173
-0.133661
-0.063482
-0.086398
-0.119626
-0.088744
0.020314
-0.057491
-0.066901
-0.059232
-0.089782
-0.059179
-0.030858
-0.104408
-0.046292
-0.057928
-0.037046
-0.073513
-0.145760
-0.037478
0.003346
-0.083584
-0.111427
-0.098057
-0.030762
-0.082163
-0.158267
-0.148996
-0.111517
-0.100580
-0.122286
-0.089132
-0.063553
-0.000175
-0.076136
-0.069668
-0.073662
-0.095463
-0.072412
-0.058153
0.041978
-0.014163
-0.095060
-0.074784
-0.034280
0.029221
0.003215
-0.009559
0.002996
-0.051446
0.020542
0.068637
0.115352
0.093013
0.071957
0.070001
0.105010
0.147253
0.051283
0.099941
0.088103
0.106153
0.109893
0.052649
0.051288
0.046583
0.094648
0.010432
0.103776
0.019246
-0.039221
0.008767
0.064855
0.003862
-0.035773
0.031244
-0.036509
0.047767
-0.028204
-0.020312
-0.063849
-0.039700
-0.038413
-0.136856
-0.097447
-0.126541
-0.112333
-0.038498
-0.065410
-0.038762
0.003225
-0.028416
-0.080029
-0.082139
-0.001136
-0.095613
-0.137431
-0.052446
-0.099076
-0.074054
-0.045838
-0.079188
-0.124829
-0.134490
-0.053607
-0.152106
-0.216306
-0.045885
0.195263
0.534254
0.833945
1.196402
1.345658
1.340608
1.263278
0.923186
0.567582
0.319736
-0.034524
-0.218351
-0.277387
-0.390274
-0.343145
-0.270627
-0.157293
-0.160732
-0.138365
-0.082319
-0.029497
-0.053950
-0.045023
-0.001565
-0.047640
-0.062956
-0.095049
-0.025221
-0.039131
-0.039354
0.009128
-0.086892
-0.055956
-0.038716
0.008021
-0.003439
0.015715
-0.027275
0.054099
0.019844
-0.011527
-0.051978
0.003752
0.165973
0.129648
0.234100
0.132415
0.075311
0.057852
0.105139
0.196319
0.245505
0.171818
0.273306
0.270613
0.368535
0.305947
0.413120
0.388348
0.426924
0.372892
0.375644
0.358221
0.409134
0.440445
0.400282
0.429713
0.426442
0.521379
0.485291
0.514162
0.383878
0.492349
0.400168
0.466124
0.444903
0.371114
0.440622
0.361102
0.442706
0.397065
0.353636
0.306642
0.250498
0.314626
0.196671
0.178849
0.209800
0.246257
0.181908
0.111710
0.168030
0.152024
0.053865
0.178110
0.047681
0.096378
0.131839
-0.002697
0.030170
0.009575
0.030363
0.025071
0.053134
-0.007002
0.057542
0.051145
0.061364
-0.062668
-0.094390
-0.044266
-0.082356
0.028556
-0.020814
-0.002301
-0.131056
-0.004796
0.001155
-0.022374
-0.061359
-0.002086
-0.015018
-0.086379
-0.063323
-0.047121
-0.070568
0.021659
0.084457
-0.006572
-0.047941
-0.048743
0.042410
-0.049042
0.044721
0.031817
-0.106677
-0.021951
-0.008537
-0.043386
0.030776
-0.059182
-0.063014
-0.004959
0.006735
-0.048371
-0.058304
-0.031477
0.069015
0.061897
0.030739
0.008268
-0.017169
0.062965
0.042909
0.064382
0.037718
0.013092
-0.019116
0.046697
-0.011152
0.036604
-0.070154
0.056006
-0.008340
-0.017331
0.036056
0.010070
-0.020855
0.051183
0.061543
0.042496
-0.043663
-0.005533
0.018687
-0.005073
-0.010570
0.020896
-0.059310
-0.031205
-0.058932
0.061931
0.012023
0.073579
0.123690
-0.051335
0.082000
0.056620
0.015280
-0.019783
0.037652
0.015012
-0.025719
0.128714
0.099658
0.074157
0.003063
0.103787
0.067567
0.120462
0.232429
0.153090
0.145206
0.101714
0.151460
0.078569
0.120557
0.207174
0.137052
0.150381
0.230458
0.226721
0.188542
0.204210
0.121987
0.221369
0.172094
0.203743
0.072722
0.154878
0.218535
0.151261
0.120981
0.115725
0.125203
0.160370
0.140484
0.053010
0.068247
0.054304
-0.002471
0.054486
0.023379
0.123284
0.123466
0.034168
0.083653
0.071512
0.037978
0.026658
-0.007178
0.065952
0.006671
0.008811
0.043177
0.011117
0.009567
0.044106
-0.020445
0.041591
0.010769
0.087565
-0.010823
-0.013881
-0.057225
-0.014964
-0.088508
-0.146421
-0.082664
0.192636
0.372774
0.683056
1.061874
1.356263
1.383228
1.440779
1.138130
0.989907
0.545754
0.255717
-0.005844
-0.216931
-0.256630
-0.305321
-0.155916
-0.088036
-0.084908
-0.060615
0.026885
0.039220
0.013744
0.076332
0.030972
0.084094
0.037176
0.044620
0.079020
-0.019155
0.077552
0.024320
0.082899
0.061796
0.069571
-0.011657
0.079591
0.146540
0.068253
0.169848
0.080214
0.184714
0.225132
0.138246
0.070288
0.147314
0.109028
0.228100
0.210918
0.234413
0.173803
0.215376
0.285533
0.334212
0.263365
0.317630
0.385109
0.442595
0.471354
0.371490
0.461337
0.479570
0.526158
0.526910
0.518316
0.553966
0.518789
0.513348
0.583742
0.519204
0.518911
0.570945
0.498492
0.584304
0.626523
0.556312
0.481958
0.397238
0.601608
0.497232
0.452095
0.406109
0.412459
0.401425
0.446169
0.433344
0.352151
0.295719
0.345483
0.394996
0.267530
0.224925
0.220638
0.148413
0.330418
0.207125
0.164254
0.138422
0.188812
0.146481
0.107537
0.061342
0.123390
0.190491
0.141098
0.005818
0.044651
0.113387
0.043973
0.140455
0.042446
0.002655
0.068962
0.132378
0.065152
0.006791
0.071262
-0.001587
0.061481
-0.019943
0.047123
0.103711
0.115994
-0.013128
-0.035175
-0.011734
0.010550
0.044849
0.027834
0.014436
0.102275
-0.028424
0.105214
0.013577
0.024369
0.075460
0.046341
0.042791
0.094758
0.072589
0.024584
-0.034638
0.003924
0.033782
0.004965
0.036296
-0.003521
-0.016675
-0.037525
-0.017855
0.086946
-0.024296
0.041114
-0.000419
0.040557
0.016218
-0.015760
0.082468
0.028457
0.109574
-0.009155
-0.017482
-0.061026
0.062608
0.032507
-0.003662
0.087066
-0.013945
-0.004306
0.036956
-0.076454
0.045756
0.025512
-0.054740
-0.042924
0.061579
-0.039898
-0.039307
-0.024368
-0.039833
-0.012837
0.001001
-0.030441
0.078097
-0.052879
-0.014041
-0.055713
0.033940
-0.018353
-0.086774
-0.009276
0.050850
0.012527
0.004338
-0.033035
-0.005793
0.098339
-0.008401
0.091406
0.070595
0.036220
0.091319
0.051182
0.094708
0.125730
0.076787
0.183031
0.158414
0.122992
0.093203
0.112162
0.168949
0.140997
0.183656
0.143628
0.092630
0.192874
0.137168
0.114477
0.178004
0.135720
0.036793
0.131476
0.144700
-0.005684
0.056922
-0.021273
0.019945
0.029734
0.042266
0.036404
0.073593
-0.005151
-0.081149
0.028062
0.009831
-0.108858
0.034292
-0.012168
0.013347
-0.020062
-0.042552
0.003866
-0.042563
0.018444
0.004042
-0.055437
-0.016570
-0.002438
-0.021019
-0.056005
-0.030491
-0.068554
-0.047428
-0.028166
-0.066493
-0.113810
-0.163711
-0.102776
-0.061557
0.233393
0.425411
0.738554
1.048251
1.341930
1.356750
1.324159
1.056856
0.625491
0.387129
0.033613
-0.163995
-0.329927
-0.363481
-0.333271
-0.281126
-0.148913
-0.114703
-0.086964
-0.035228
-0.011198
-0.106856
-0.074519
-0.028292
-0.062434
-0.087252
-0.073500
0.012081
-0.106303
0.040468
-0.002597
0.009802
-0.057702
0.001949
0.000614
-0.024852
-0.117648
-0.013511
-0.019000
0.002494
0.037345
0.049246
0.050429
0.109552
0.054330
0.045301
0.063607
0.079308
0.145525
0.135177
0.142423
0.237452
0.130920
0.229853
0.266714
0.331943
0.268038
0.238957
0.349183
0.271610
0.351649
0.404492
0.289734
0.401464
0.437536
0.365295
0.435383
0.436630
0.396458
0.514447
0.425803
0.415311
0.379879
0.486793
0.427553
0.337780
0.359721
0.308053
0.452588
0.382068
0.270003
0.339357
0.283799
0.317741
0.272854
0.238724
0.161243
0.128506
0.210023
0.109904
0.127458
0.017424
0.116780
0.111305
0.084023
0.069700
0.063755
0.009572
-0.025573
-0.017859
-0.050188
-0.022059
-0.083706
-0.039061
-0.111919
-0.089797
-0.122370
-0.055274
-0.063260
-0.145006
-0.089980
-0.126901
-0.123779
-0.060762
-0.141705
-0.059657
-0.045057
-0.105862
-0.060811
-0.016593
-0.075035
-0.155247
-0.150017
-0.120677
-0.079890
-0.122610
-0.043283
-0.090444
-0.082509
-0.048059
-0.162902
-0.127998
-0.169597
-0.152306
-0.158981
-0.095589
-0.118934
-0.117599
-0.069000
-0.168954
-0.044866
-0.109088
-0.054402
-0.130605
-0.167842
-0.110229
-0.077643
-0.121213
-0.069900
-0.112990
-0.118969
-0.141402
-0.095341
-0.091762
-0.085406
-0.156860
-0.133926
-0.076298
-0.060293
-0.078875
-0.077672
-0.098798
-0.055116
-0.104998
-0.113377
-0.090488
-0.125803
-0.072254
-0.085778
-0.077266
-0.104048
-0.114718
-0.077509
-0.083133
-0.059340
-0.126629
-0.120230
-0.197408
-0.141434
-0.095800
-0.032039
-0.133668
-0.099268
-0.181955
-0.161086
-0.053992
-0.006821
-0.127448
-0.078737
-0.160197
-0.096405
-0.128948
-0.067578
-0.159904
-0.068374
0.017891
-0.008302
-0.033395
0.002079
-0.091532
0.043326
0.005647
0.023744
0.047119
0.073696
0.011772
0.064303
0.139438
0.036811
0.114433
0.117459
0.115802
0.029904
0.124445
0.093003
-0.011305
0.142152
0.038805
0.121029
0.074974
-0.007326
-0.060851
0.043437
-0.005082
0.034480
-0.022429
-0.040454
-0.088988
-0.017764
-0.086144
-0.028990
-0.112075
-0.114482
-0.124332
-0.074778
-0.072666
-0.103324
-0.047889
-0.060093
-0.031775
-0.098864
-0.066752
-0.096531
-0.152594
-0.200326
-0.076522
-0.125660
-0.024774
-0.024960
-0.038435
-0.096859
-0.066658
-0.172419
-0.049473
-0.071078
-0.130864
-0.078603
-0.083367
-0.044157
0.321139
0.522612
0.871255
1.130932
1.350844
1.348380
1.209163
0.911052
0.636574
0.269986
-0.086973
-0.321285
-0.339811
-0.378222
-0.300781
-0.235805
-0.208399
-0.130959
-0.071493
-0.089048
-0.129001
-0.013000
-0.093485
-0.073949
-0.066375
-0.040747
-0.011845
-0.106661
-0.077192
-0.042252
-0.051980
0.015442
-0.113740
-0.012087
0.005036
-0.038814
-0.050930
-0.022337
0.107201
0.026622
-0.040011
-0.011924
0.022624
0.010747
0.126240
0.097835
0.038788
0.112478
0.131668
0.146325
0.146043
0.310078
0.213813
0.244645
0.233352
0.269073
0.300908
0.322304
0.291120
0.485429
0.365043
0.408407
0.396752
0.473565
0.370036
0.506613
0.472361
0.382568
0.479186
0.556189
0.445855
0.435104
0.455493
0.409591
0.444411
0.445783
0.440921
0.331428
0.459469
0.392160
0.351033
0.383297
0.302890
0.301217
0.287579
0.232672
0.258376
0.164769
0.197459
0.216976
0.185733
0.132049
0.193767
0.079695
0.054695
0.050548
0.160736
0.084966
0.062916
-0.022659
-0.007095
-0.001195
0.070279
-0.010047
-0.070316
0.038468
-0.098995
-0.000358
0.068155
-0.046875
-0.094187
0.007512
0.083511
0.037935
-0.019780
-0.023730
-0.042674
0.007754
-0.054238
0.011617
0.046915
0.010031
0.071760
-0.025085
-0.033165
0.037057
-0.066667
0.068026
-0.098520
-0.035483
-0.059605
-0.080571
-0.069625
0.018442
-0.025383
-0.003290
-0.028960
-0.010984
0.074527
0.015086
0.045832
0.018038
0.016625
0.006141
0.055826
0.006706
-0.015855
0.020218
-0.055489
0.042633
-0.043830
-0.091819
-0.053053
0.028009
0.025410
0.045849
-0.042005
0.019263
0.021957
0.034564
-0.011395
0.062953
0.026558
0.105574
0.011065
0.007024
0.043010
0.072264
-0.069011
0.037006
-0.001345
0.052488
0.044108
0.019192
0.058873
0.067341
0.093405
-0.025246
0.018572
0.121054
-0.024083
0.064477
-0.009923
0.000044
0.011597
0.038456
0.077089
0.111902
0.041384
0.081990
0.040086
0.060926
0.063557
0.054307
0.112006
0.084920
0.065339
0.064470
0.079427
0.158970
0.121411
0.157231
0.123309
0.124034
0.140426
0.153033
0.270021
0.187880
0.198584
0.238279
0.210868
0.150055
0.227119
0.214045
0.224203
0.232367
0.251719
0.146642
0.238490
0.155306
0.147285
0.194395
0.161858
0.136025
0.079592
0.093171
0.207141
0.014235
0.016934
0.082699
0.028724
0.093965
0.097825
0.036811
0.131494
0.121219
0.093086
0.057180
0.034611
0.029675
0.062817
0.140760
0.079767
0.036904
-0.028070
-0.031664
0.049016
0.104172
0.151632
-0.023730
0.013383
0.085132
0.023653
0.056364
0.031376
-0.032144
-0.011150
0.051130
0.264943
0.351195
0.749610
1.069119
1.383128
1.431943
1.476704
1.260792
0.834456
0.559491
0.264313
0.019347
-0.150726
-0.242982
-0.241880
-0.132692
-0.146079
0.095497
0.088162
0.037285
0.011073
0.133914
-0.033838
0.100016
0.099869
0.037621
0.120382
0.191768
0.212074
0.081318
0.094331
0.126844
0.065057
0.098301
0.100780
0.190694
0.003627
0.159799
0.202099
0.160559
0.263254
0.168257
0.130413
0.137953
0.199807
0.197507
0.251862
0.231319
0.245839
0.287573
0.289796
0.281686
0.291100
0.273241
0.406552
0.375847
0.388816
0.408366
0.372147
0.499259
0.465546
0.572120
0.507139
0.483604
0.566796
0.587861
0.566397
0.564350
0.597209
0.581292
0.588566
0.623291
0.500779
0.623680
