-0.022737
-0.085909
-0.096587
-0.090879
-0.001541
-0.007635
0.071587
0.001683
-0.002362
0.016858
0.090542
0.029629
0.042212
-0.026774
0.000680
-0.012307
-0.001431
0.029797
0.003123
-0.020031
0.038436
0.019074
0.013095
-0.017064
0.054684
0.075418
0.068166
0.066064
0.074779
0.041655
0.085011
0.135708
0.084303
0.150102
0.115021
0.160663
0.199658
0.194748
0.218497
0.179474
0.223495
0.312659
0.103410
0.174649
0.184728
0.230573
0.155989
0.210998
0.198336
0.164083
0.086950
0.132695
0.166714
0.161656
0.106018
0.158757
0.233290
0.092801
0.064913
0.065212
0.105815
0.017503
0.064206
0.074957
0.039993
0.022781
0.076784
0.046854
0.042629
0.071298
0.038576
0.039101
0.081166
-0.055447
0.014272
0.029982
0.030428
0.081067
0.071705
0.003422
-0.018873
-0.044369
0.015845
0.147449
0.302368
0.646091
1.033168
1.225274
1.450362
1.399313
1.221776
0.844921
0.458574
0.149106
0.052185
-0.225382
-0.146801
-0.189735
-0.042645
-0.104991
0.019770
0.048855
0.050140
0.001538
0.061636
0.119244
0.094403
0.129637
0.078021
0.041305
0.098677
0.178629
0.157577
0.172011
0.156996
0.138972
0.217886
0.200258
0.213203
0.227542
0.313330
0.266536
0.251255
0.275850
0.223456
0.291346
0.282539
0.353182
0.347209
0.418858
0.491954
0.457491
0.424111
0.463436
0.431255
0.466389
0.575834
0.496531
0.610141
0.549937
0.539108
0.538248
0.533068
0.556610
0.514734
0.529046
0.634997
0.528442
0.487671
0.550972
0.522761
0.510541
0.385867
0.522376
0.590995
0.422287
0.349180
0.374344
0.470070
0.366663
0.227188
0.369623
0.330355
0.278365
0.377873
0.218442
0.290432
0.233784
0.203236
0.204237
0.164264
0.161761
0.166444
0.178990
0.173852
0.202620
0.184942
0.059960
0.110634
0.115772
0.129531
0.150936
0.113331
0.055726
0.035075
0.101441
0.041421
0.089314
0.064859
0.084734
0.051858
0.084902
0.084098
0.112220
0.092511
0.031564
0.099583
0.078545
0.191850
0.043940
0.111417
0.032547
0.104706
0.072933
0.043484
0.104507
0.095060
0.076187
0.162793
0.075935
0.103802
0.112910
0.129482
0.070426
0.134042
0.061515
0.017466
0.085593
0.095212
0.064253
0.139192
0.106888
0.143928
0.062424
0.094274
0.093001
0.025529
0.069794
0.102288
0.047347
0.053272
0.108889
0.076329
0.075961
0.084420
0.050488
0.126478
0.060768
0.200643
0.098074
0.111547
0.127799
0.125486
0.098760
0.118765
0.095231
0.043853
0.113045
0.110300
0.046164
0.123252
0.126553
0.162935
0.153875
0.212073
0.163680
0.283573
0.234683
0.223526
0.170279
0.249960
0.256987
0.237548
0.185580
0.299140
0.244247
0.202846
0.232390
0.278894
0.276698
0.219313
0.161249
0.226643
0.259470
0.197550
0.125904
0.187684
0.171839
0.122816
0.210999
0.091174
0.135832
0.130480
0.116567
0.087610
0.068781
0.117609
0.058619
0.061534
0.085035
0.099720
-0.032479
0.064008
0.058537
0.051299
0.003408
0.079996
0.039033
0.062339
0.097907
0.076908
-0.010051
0.042446
0.151596
0.292645
0.487651
0.765577
1.099611
1.359746
1.364187
1.267882
1.048046
0.752476
0.376507
0.120747
-0.112052
-0.177423
-0.092475
-0.167086
0.066479
0.003316
0.015520
0.108446
0.108092
0.124898
0.107141
0.031823
0.039655
0.127305
0.046978
0.088090
0.045169
0.101425
0.153536
0.091631
0.160437
0.156408
0.088993
0.137855
0.219833
0.137219
0.153594
0.234642
0.144831
0.186792
0.242022
0.311981
0.272346
0.353802
0.334489
0.420970
0.339305
0.453225
0.381755
0.447712
0.445670
0.450303
0.451001
0.470660
0.521574
0.490964
0.553872
0.496513
0.452602
0.545376
0.507642
0.474307
0.541323
0.563463
0.500356
0.481948
0.534789
0.457699
0.410961
0.390206
0.356868
0.392386
0.367761
0.381255
0.351861
0.286760
0.244572
0.308026
0.258583
0.211118
0.235592
0.169101
0.174087
0.135485
0.157562
0.044088
0.019616
0.037686
0.145663
0.044863
0.122475
0.044665
0.071247
0.030442
-0.023902
0.089117
0.050874
-0.038576
0.045515
0.058255
0.009376
-0.012921
-0.007290
-0.049941
-0.010194
-0.003926
0.004538
-0.009150
-0.010280
-0.058932
-0.035855
0.093345
0.015367
-0.021621
0.019048
0.042281
-0.071228
0.053372
-0.041912
0.055793
-0.024012
-0.047550
0.002547
-0.047883
0.070794
-0.005739
-0.014366
0.010360
-0.043358
0.033632
0.030597
0.063003
-0.039172
-0.100135
-0.006024
0.040625
-0.001189
-0.000372
0.003126
-0.006342
0.021390
-0.056358
0.015880
-0.032571
0.022249
-0.065606
-0.041440
0.004847
0.023988
-0.012445
0.007123
0.106688
0.012385
0.013567
-0.003950
-0.028272
0.020917
0.042393
0.000064
0.020628
-0.019717
-0.045354
-0.003460
0.059426
-0.014247
0.038681
0.020397
0.105481
0.078328
0.039239
0.060931
0.093032
0.174116
0.083031
0.077868
0.090831
0.131909
0.103484
0.027331
0.103444
0.116254
0.143816
0.125166
0.020500
0.223368
0.107904
0.110252
0.100909
0.157752
0.182586
0.121147
0.064310
-0.006171
0.037733
0.000265
0.053019
0.022846
-0.050025
0.012102
0.021605
-0.005885
-0.060693
-0.093806
0.022999
-0.007313
-0.063343
-0.059690
-0.001895
0.010879
-0.022239
-0.004133
-0.124640
-0.021569
0.007144
0.090774
-0.067804
-0.107670
-0.093369
-0.047380
0.000194
0.204128
0.539093
0.781580
1.099976
1.321757
1.325951
1.133283
0.807672
0.476650
0.159017
-0.099784
-0.338481
-0.313037
-0.210211
-0.169795
-0.127856
-0.093196
-0.076578
-0.035610
0.004825
-0.001731
-0.029191
0.023822
0.015843
-0.062821
0.032332
0.065192
0.045162
-0.044214
-0.011523
0.107488
0.036819
0.062124
0.053559
0.036034
0.084729
0.083801
0.202474
0.156980
0.195970
0.183627
0.159822
0.189660
0.195206
0.252516
0.239667
0.286726
0.383995
0.328064
0.347407
0.339904
0.354168
0.427997
0.481473
0.463149
0.471225
0.438794
0.475852
0.489889
0.406905
0.469659
0.394304
0.436664
0.435185
0.384194
0.484599
0.411131
0.312620
0.452083
0.380298
0.369399
0.340185
0.269026
0.314822
0.266887
0.220783
0.293814
0.160787
0.225615
0.141301
0.118213
0.147741
0.120701
0.112237
0.148392
0.087060
0.052048
0.032939
0.004801
0.052498
0.068482
0.027883
-0.007161
-0.003510
-0.037598
0.003237
0.025197
0.016277
-0.054212
0.035277
-0.102704
-0.021685
-0.033075
-0.033836
0.035027
-0.033568
-0.110636
-0.074356
-0.004835
-0.090426
0.008578
-0.035460
0.020137
-0.060278
-0.087177
-0.020614
-0.109995
0.012606
-0.017687
-0.081639
-0.054024
-0.002818
-0.076870
-0.056052
-0.031137
-0.073630
-0.017213
-0.006996
-0.002979
0.059407
-0.064129
-0.098636
-0.077558
0.012553
-0.026468
-0.031397
-0.007711
-0.059621
0.015046
0.004693
0.013010
-0.003018
-0.007081
-0.047509
-0.085307
-0.041623
-0.052995
0.017728
0.032464
-0.000308
0.032926
-0.024446
0.023337
0.016518
-0.064117
-0.005809
-0.024787
0.050628
0.037305
0.017638
-0.017055
0.040370
-0.015600
0.071395
0.033713
0.021265
0.081100
0.024556
0.070105
0.125831
0.038761
0.152535
0.157095
0.130621
0.158672
0.122806
0.159038
0.074393
0.152598
0.159464
0.148739
0.139765
0.164101
0.157784
0.234207
0.176299
0.169010
0.120914
0.109627
0.090942
0.118676
0.141979
0.029783
0.092234
0.074513
0.022472
0.084555
0.015518
0.046212
0.005470
-0.017015
0.013256
0.005673
0.014073
-0.019909
0.018677
-0.001708
0.036594
0.025866
0.135487
0.034888
-0.022877
0.024656
0.060189
0.029219
-0.041297
-0.059650
0.004796
-0.014695
0.043380
0.107360
0.360235
0.616728
0.946142
1.176076
1.437550
1.357777
1.159719
0.691130
0.418347
0.101433
-0.120132
-0.265871
-0.204079
-0.141923
-0.124086
-0.044944
-0.001391
-0.024053
0.034553
0.022430
0.047834
0.122374
0.028488
0.131205
0.084440
0.068677
0.049466
0.002223
0.141247
0.118482
0.071990
0.126928
0.102822
0.210545
0.192219
0.112651
0.261582
0.261496
0.206400
0.237209
0.228849
0.238650
0.320981
0.330172
0.289904
0.339601
0.419251
0.427515
0.422929
0.464719
0.521270
0.479095
0.430216
0.519678
0.428380
0.485875
0.544779
0.514997
0.519758
0.541799
0.509245
0.542311
0.585405
0.524162
0.504704
0.565609
0.428614
0.505952
0.488280
0.486190
0.437729
0.413574
0.368340
0.355691
0.347208
0.355438
0.349769
0.308052
0.303963
0.241560
0.218366
0.232777
0.241806
0.128535
0.183890
0.190937
0.106734
0.166489
0.118029
0.148528
0.055635
0.117655
0.146612
0.091997
0.128225
0.032902
0.134884
0.057159
0.073863
0.088451
0.087706
0.062647
0.043734
0.102138
0.065727
0.072016
0.076235
0.023723
0.133320
0.091181
-0.018129
0.127257
0.153785
0.068498
0.149410
0.104575
0.044732
0.087885
0.154943
0.113089
0.111954
0.119193
0.020032
0.129452
0.134025
0.069437
0.110968
0.026874
0.057967
0.027168
0.136113
0.128413
0.077152
0.033192
0.123993
0.045168
0.102651
0.054852
0.099759
0.091453
0.098845
0.076192
0.196428
0.075513
0.058168
0.120455
0.139985
0.073512
0.070646
0.047929
0.049499
0.125657
0.183416
0.119612
0.076800
0.048082
0.077566
0.122964
0.059550
0.100163
0.124899
0.055570
0.185563
0.149967
0.078542
0.211110
0.161990
0.169567
0.230536
0.191950
0.211364
0.201527
0.197661
0.204880
0.240484
0.260751
0.308123
0.275722
0.372899
0.299965
0.255727
0.266958
0.174192
0.278252
0.225496
0.257142
0.246107
0.170969
0.165551
0.183861
0.172927
0.217890
0.223034
0.232122
0.136817
0.141786
0.171195
0.121522
0.078727
0.123555
0.070251
0.148617
0.104326
0.107619
0.138149
0.122280
0.113388
0.094352
0.108151
0.068648
0.202576
0.030360
0.081968
0.094285
0.138463
0.036316
0.005337
0.090105
0.005908
0.146213
0.267300
0.509025
0.888682
1.253812
1.341946
1.500000
1.289898
1.048792
0.771368
0.297666
0.083089
-0.133164
-0.179652
-0.124361
-0.080746
-0.054923
0.122644
0.066858
0.090973
0.124955
0.073125
0.043381
0.095445
0.143500
0.146926
0.025691
0.088789
0.135847
0.050750
0.202115
0.147867
0.184961
0.192664
0.192871
0.181292
0.237387
0.257827
0.232385
0.255914
0.304531
0.293409
0.260983
0.378374
0.313705
0.310841
0.403492
0.377108
0.434099
0.460470
0.468833
0.386359
0.561194
0.560243
0.498976
0.476946
0.581933
0.482087
0.594326
0.591073
0.576038
0.621766
0.506387
0.514526
0.562210
0.464880
0.527311
0.516473
0.477003
0.451581
0.573028
0.437171
0.390628
0.355120
0.403337
0.353055
0.396729
0.338104
0.364956
0.308154
0.226276
0.263706
0.331788
0.203189
0.231191
0.255751
0.108016
0.194162
0.124800
0.129704
0.137681
0.098332
0.102751
0.143772
0.144490
0.155449
0.077429
0.001359
0.124962
0.025121
0.036379
0.074373
0.067579
0.030805
0.009094
0.093339
0.066957
0.012778
-0.032375
0.064453
0.122679
0.050287
0.033204
0.021431
0.120419
0.067739
0.105858
0.066984
0.071462
0.041397
0.040151
0.000628
-0.031898
0.022451
0.026991
0.012912
0.016206
0.017764
-0.002335
0.087839
-0.021725
0.018086
-0.013140
0.045245
-0.020945
0.037940
-0.006830
0.053595
0.029721
0.023577
0.021608
0.014956
0.019337
-0.013713
0.006646
0.024609
0.024350
0.023130
-0.015056
-0.006543
-0.045123
-0.020356
-0.037738
0.043747
-0.017348
0.038677
0.066625
0.086857
-0.009323
0.044698
0.035103
-0.030720
0.072240
0.069822
0.082315
0.110674
0.063951
0.072743
0.074666
0.072514
0.088797
0.095170
0.097496
0.197584
0.141652
0.182237
0.159522
0.125683
0.146347
0.131729
0.145555
0.153089
0.239854
0.142126
0.071927
0.190609
0.112107
0.143646
0.212014
0.145932
0.169486
0.129986
0.087169
0.071968
0.099093
0.068588
0.096252
0.077503
0.109943
0.024183
0.006174
0.029571
0.051629
0.029634
0.034851
0.063066
0.032226
-0.004508
0.001724
-0.043759
0.034108
-0.013096
0.020485
-0.019802
0.003548
0.034523
0.000097
0.033922
-0.025324
-0.044646
-0.020738
0.103168
0.304306
0.629349
0.934756
1.268378
1.290563
1.260362
1.169304
0.784673
0.389081
0.092408
-0.235797
-0.209521
-0.274543
-0.276502
-0.175128
-0.179685
-0.063178
-0.054088
-0.046451
0.025269
-0.011430
-0.013029
-0.026332
0.003917
0.030025
0.013472
-0.013683
-0.038428
0.078138
0.040276
0.011698
0.061744
0.048261
-0.002588
0.080257
0.059749
0.080721
0.148934
0.149510
0.184751
0.186649
0.108910
0.253578
0.281822
0.255871
0.224111
0.249568
0.270922
0.238244
0.315164
0.310207
0.399208
0.262341
0.446466
0.427189
0.422345
0.452512
0.505422
0.473677
0.408800
0.418526
0.392715
0.380425
0.380470
0.416012
0.316750
0.380723
0.400004
0.350804
0.300705
0.313150
0.367506
0.310274
0.327922
0.208227
0.251949
0.261462
0.172472
0.203019
0.143396
0.051878
0.127240
0.044642
0.053814
0.054162
0.043054
0.008078
0.049029
0.086925
0.020348
-0.031115
0.035385
-0.083558
-0.104606
0.001235
-0.134971
-0.079981
-0.102491
-0.051388
-0.026433
-0.024443
-0.074617
-0.016994
-0.091259
-0.018347
-0.084370
-0.078620
-0.093598
-0.040967
-0.133299
-0.060986
-0.104222
-0.032778
-0.099674
-0.052463
-0.127356
-0.053843
-0.043675
-0.132743
-0.116511
-0.008134
-0.093460
-0.059628
-0.035839
-0.096883
-0.074752
-0.088324
-0.057890
-0.108550
-0.077684
-0.103034
-0.106414
-0.025855
0.012060
-0.049626
-0.083809
-0.055965
-0.087019
-0.065948
-0.068833
-0.078054
-0.060797
-0.051037
-0.008081
-0.065648
-0.078030
-0.073381
-0.097085
-0.146800
-0.098121
-0.034468
-0.059464
-0.052236
-0.059438
-0.070967
-0.103052
0.003260
-0.167190
-0.037987
-0.044309
-0.107304
-0.065435
-0.071233
-0.097488
-0.052269
-0.008140
0.029573
0.041716
0.015320
0.014995
-0.036489
0.031098
0.114080
0.094137
0.097534
0.010955
0.100360
0.100198
0.037466
0.045229
0.105967
0.071930
0.066009
0.086380
0.134592
0.120935
0.059807
0.079649
0.025638
0.077022
0.038072
0.012020
0.047114
0.041246
0.010929
0.042222
0.024885
-0.002776
-0.053456
-0.076736
-0.010436
-0.067521
0.004398
-0.046050
-0.113765
0.011506
-0.169062
-0.035058
-0.018612
-0.082419
-0.104554
-0.035495
-0.031092
0.040992
0.011972
-0.154245
-0.100321
-0.127268
-0.107297
-0.031905
0.117802
0.296136
0.668540
0.962270
1.162948
1.349164
1.252055
0.902460
0.552886
0.299628
-0.028252
-0.206491
-0.429432
-0.281226
-0.271591
-0.170035
-0.169064
-0.115219
-0.094434
-0.063199
-0.035099
-0.082312
0.010018
-0.019966
0.014715
-0.055200
0.007152
0.049313
-0.033401
0.000410
-0.024313
0.003383
0.046022
0.036899
0.056499
0.129206
0.081972
0.122706
0.120838
0.099356
0.172941
0.125291
0.191582
0.120915
0.276811
0.251415
0.340215
0.299514
0.329735
0.289960
0.339558
0.305378
0.433903
0.417019
0.435634
0.388777
0.438190
0.379989
0.461448
0.418716
0.553648
0.453705
0.471680
0.440565
0.453649
0.417611
0.493142
0.420088
0.387736
0.344793
0.343394
0.372523
0.348578
0.293011
0.294164
0.289812
0.307479
0.245023
0.214000
0.247924
0.155579
0.144057
0.100360
0.116381
0.169980
0.100299
0.065229
0.071017
0.026935
0.034319
0.005865
0.050502
0.073691
0.083330
0.018038
-0.028348
0.072842
0.007092
-0.026050
0.006479
0.005569
0.063390
-0.018760
0.095603
-0.013063
-0.002407
0.046076
-0.035451
0.015470
-0.032605
0.011161
-0.056121
-0.054471
-0.035696
-0.046976
-0.004871
-0.005930
0.000328
0.015701
0.018124
0.001765
0.029685
0.061300
-0.021859
0.088000
0.002801
-0.000621
0.075210
-0.035959
-0.078556
-0.105983
0.030445
-0.095212
-0.028457
0.050739
-0.010676
-0.055464
0.007423
0.022380
-0.059667
0.092543
0.109902
-0.036326
-0.001262
0.079286
-0.017527
0.047361
-0.010046
-0.023606
-0.057811
0.017648
-0.033566
0.018446
0.087516
0.087395
-0.073380
-0.074283
0.022701
-0.021889
0.071194
0.050100
0.075901
-0.005736
0.013209
-0.007981
0.082194
0.117391
0.043469
0.039656
0.070116
0.189656
0.148748
0.065537
0.211076
0.248730
0.200895
0.163337
0.192124
0.248204
0.223529
0.124271
0.161771
0.211812
0.142656
0.092356
0.184407
0.267350
0.141586
0.205542
0.112470
0.197856
0.043394
0.079832
0.162702
0.096689
0.044317
0.050135
0.031390
-0.004076
0.065853
0.052134
0.059552
0.008184
0.055442
0.071811
0.032482
0.019396
0.044266
-0.012064
-0.009667
0.056270
0.055597
0.011525
0.002148
0.066863
0.087645
0.072175
-0.042234
0.042173
-0.049962
0.168209
0.369427
0.629194
0.937070
1.210807
1.340856
1.338532
1.122496
0.837983
0.525095
0.234785
-0.039097
-0.198244
-0.237097
-0.123411
-0.123635
0.015714
0.094467
0.014616
0.060664
0.056962
-0.000537
0.085206
0.060287
0.112918
0.091760
0.109764
0.114379
0.029773
0.181503
0.084556
0.026455
0.115805
0.107411
0.176474
0.176590
0.148135
0.184994
0.145214
0.219077
0.248119
0.314768
0.255157
0.290691
0.262719
0.280082
0.304910
0.438716
0.397812
0.380419
0.408082
0.471373
0.507910
0.518099
0.467991
0.445153
0.513719
0.559360
0.500879
0.536686
0.572455
0.556433
0.487299
0.543247
0.504600
0.517379
0.469148
0.452062
0.484748
0.490801
0.456771
0.441187
0.341464
0.300303
0.402289
0.388506
0.309661
0.293893
0.323340
0.253263
0.242238
0.252292
0.214523
0.251918
0.099743
0.194703
0.145242
0.039474
0.147796
0.109487
0.155653
0.156807
0.090279
0.115335
0.015926
0.086280
0.029924
0.081404
0.073954
-0.023123
0.046418
0.127641
-0.022075
0.021031
0.086191
0.102666
0.070607
0.029482
0.064912
0.122214
0.010810
0.057027
0.064223
0.030054
0.095684
0.059523
0.019579
0.034860
0.048059
-0.010047
-0.020753
0.002831
0.031311
0.064574
0.051087
0.083078
0.058319
-0.030901
-0.027534
0.003937
0.011409
0.033446
0.044932
0.112270
0.006076
-0.023862
-0.007485
0.069711
0.063059
0.019519
-0.014165
0.053915
0.080273
0.038771
0.096153
-0.011896
0.021658
-0.049222
0.065615
0.068172
-0.003766
0.015054
0.022595
-0.018729
0.060624
0.018407
-0.009756
0.144687
0.035743
0.040004
-0.007187
0.016447
0.024096
0.076130
0.053611
0.047508
0.050964
0.189275
0.098523
0.050973
0.085781
0.084726
0.145982
0.075185
0.156423
0.195196
0.110328
0.252563
0.097223
0.209926
0.131063
0.112184
0.158051
0.190867
0.217478
0.153064
0.203435
0.189303
0.215145
0.150711
0.167871
0.074851
0.045881
0.044960
0.128159
0.124336
0.048959
0.086784
0.114067
0.067448
0.156603
-0.005453
-0.023627
-0.011445
0.000461
-0.033659
-0.015045
-0.083092
0.003072
-0.043640
-0.044644
-0.043825
0.032944
0.027950
-0.003963
0.007855
-0.024036
0.051567
0.000857
-0.019792
-0.031288
0.161287
0.452782
0.687957
0.974213
1.290530
1.335854
1.282856
0.977727
0.694712
0.404160
-0.013450
-0.205398
-0.237407
-0.284767
-0.232705
-0.121073
-0.060654
-0.113567
-0.069686
0.037825
0.084791
0.025114
0.070526
0.074019
0.087695
0.025413
0.046504
-0.011208
0.057366
0.021167
0.049830
0.094337
0.086416
0.146213
0.064446
0.101173
0.098438
0.181015
0.093742
0.145627
0.188452
0.151983
0.151935
0.314162
0.249226
0.224704
0.321019
0.355954
0.293413
0.242474
0.344928
0.380048
0.399343
0.349041
0.418103
0.368682
0.436045
0.427428
0.458953
0.499525
0.482442
0.357429
0.409386
0.431196
0.479736
0.383535
0.429803
0.378476
0.404540
0.294963
0.374460
0.314675
0.344367
0.318740
0.310508
0.292200
0.265207
0.249299
0.263526
0.166293
0.198666
0.110742
0.171700
0.055460
-0.008135
0.085881
0.052369
0.057170
0.010626
0.034650
0.044958
-0.027066
-0.040019
-0.024746
0.016236
0.024912
-0.036759
-0.010516
-0.048379
-0.025248
-0.062143
0.038443
-0.008692
-0.071931
-0.038043
0.018347
-0.066376
-0.037144
-0.003709
-0.102405
-0.052146
-0.026484
-0.015749
-0.060342
-0.097420
-0.059094
-0.082723
-0.071467
-0.091979
-0.002522
-0.119089
-0.159593
-0.063240
-0.094086
-0.057097
-0.025234
-0.090401
-0.132497
-0.074360
-0.098016
-0.093600
-0.025256
-0.097642
-0.069958
-0.154626
-0.069567
-0.053324
-0.080907
-0.064019
-0.045406
-0.078975
-0.021822
-0.065404
-0.090078
-0.100618
-0.070815
-0.121914
-0.062173
-0.127042
-0.080197
-0.036270
-0.078932
-0.137776
-0.142066
-0.039784
-0.078223
-0.089198
-0.111153
-0.077360
-0.124653
-0.044618
-0.044862
-0.063509
-0.081881
-0.083543
-0.009450
-0.021540
-0.064463
-0.048791
0.032664
0.063503
0.029344
0.007162
-0.003554
0.065607
0.014613
0.098552
0.124299
-0.014517
0.057701
0.012628
0.090313
0.040012
0.074764
0.134574
0.047254
0.034902
0.068428
0.106045
-0.001343
0.042022
-0.173589
-0.007257
-0.022510
-0.047246
-0.060933
-0.055669
0.018790
-0.024316
-0.096969
-0.038665
-0.054062
-0.050208
-0.075933
-0.031335
-0.155704
-0.082917
-0.099118
-0.057939
-0.076432
-0.157325
-0.114149
-0.055889
-0.086490
-0.076122
-0.133188
-0.143638
-0.138772
-0.200568
-0.156684
-0.046615
0.143342
0.395370
0.702142
0.951267
1.242762
1.220234
1.083728
0.872650
0.458071
0.094940
-0.175085
-0.332338
-0.431238
-0.322588
-0.310481
-0.122577
-0.113142
-0.147369
-0.105215
-0.175780
-0.129999
-0.131642
-0.119970
-0.040561
-0.024285
-0.015537
-0.133715
-0.104913
-0.030352
-0.020357
0.035441
0.009771
-0.040800
0.109181
0.013842
-0.009307
-0.001001
0.116805
0.037348
0.136504
0.133123
0.119394
0.142419
0.151234
0.164545
0.255875
0.248709
0.274052
0.292770
0.330742
0.309004
0.325341
0.395856
0.332749
0.293090
0.406167
0.336382
0.417806
0.369449
0.413385
0.398577
0.373973
0.337677
0.416819
0.366936
0.357224
0.284500
0.418748
0.378560
0.305614
0.293816
0.321771
0.243424
0.302987
0.265254
0.182049
0.224677
0.120217
0.114646
0.101962
0.098121
0.121730
0.071067
0.125081
0.078969
0.056424
0.054446
0.048079
-0.074116
-0.016587
-0.043105
-0.088511
-0.041133
-0.000898
-0.112873
-0.004533
-0.010515
-0.073392
-0.041209
-0.092264
-0.090346
-0.117933
-0.005593
-0.048351
-0.109802
-0.036488
-0.041194
-0.085195
-0.111876
-0.034232
-0.056875
-0.114241
-0.012466
-0.181510
-0.046998
-0.104660
-0.096737
0.026345
-0.020713
-0.020322
-0.103481
-0.022804
0.021260
-0.103652
-0.010365
-0.058389
-0.013871
-0.025928
0.012494
-0.059872
-0.064047
-0.094455
-0.064431
-0.073149
-0.073465
-0.069995
-0.033096
-0.048887
0.009112
-0.087914
-0.041025
-0.082129
-0.023676
-0.068981
-0.087179
-0.049177
-0.063686
-0.040746
-0.096910
0.027005
-0.021527
0.017386
-0.071794
-0.113322
-0.072785
-0.030460
-0.021391
0.005012
-0.000246
-0.055862
0.063721
0.017648
-0.065233
0.030512
0.049917
0.029009
-0.041990
0.000488
0.010740
0.037994
0.072824
0.112773
0.116414
0.092428
0.122129
0.113211
-0.008493
0.135233
0.220921
0.172556
0.184105
0.139028
0.141222
0.068872
0.164708
0.132478
0.155089
0.080342
0.078711
0.047597
0.030531
0.115141
0.113662
0.023219
0.035824
0.034602
0.034507
-0.022925
0.037698
0.016716
0.083542
-0.002033
0.083877
-0.063975
-0.047649
0.023880
0.049607
0.005970
-0.025995
-0.020131
0.108025
0.046683
-0.018997
0.018789
0.084222
0.007074
-0.041785
-0.002991
-0.006541
-0.061342
0.096215
0.406263
0.663910
0.970492
1.153091
1.429001
1.169375
1.052333
0.828135
0.345685
0.097986
-0.142399
-0.279081
-0.308862
-0.232826
-0.187258
-0.007379
0.064665
0.047960
0.037475
-0.009192
-0.005618
0.012867
-0.047904
-0.014007
0.056199
0.074665
0.078584
0.107817
0.028631
0.080379
0.090445
0.075878
0.196919
0.198273
0.129081
0.114961
0.150258
0.130979
0.224061
0.122418
0.250415
0.265891
0.211258
0.290122
0.289256
0.332957
0.314376
0.395707
0.408295
0.445597
0.482843
0.428493
0.500931
0.454595
0.597750
0.542700
0.484547
0.486039
0.508569
0.437984
0.467170
0.525841
0.551122
0.488539
0.435459
0.437967
0.488107
0.474386
0.430203
0.347825
0.459096
0.367057
0.388411
0.430689
0.282950
0.357876
0.326561
0.269196
0.353397
0.251729
0.213374
0.243513
0.258505
0.211564
0.152519
0.125287
0.111245
0.157587
0.094241
0.149163
0.075999
0.140099
0.015165
0.048364
0.083452
0.046651
0.074332
0.119740
0.041759
0.041143
0.048857
0.132309
0.091416
-0.016764
0.080555
0.084447
-0.026064
-0.014175
0.044784
0.019490
0.065418
-0.022021
0.099061
0.066866
0.084247
0.055707
-0.006815
0.069808
0.064137
0.146633
0.047270
0.072288
0.019528
0.085606
0.063222
0.128621
0.046637
-0.003092
0.112913
0.118738
0.078811
0.131451
0.018850
0.081124
0.078156
-0.008134
0.069609
0.063501
0.051922
0.023745
0.103678
0.102594
0.076403
0.126484
0.068851
-0.020286
0.084277
-0.018314
0.050429
0.074710
0.081700
0.017341
0.174162
0.087111
0.017989
0.031837
0.033902
0.109274
0.143137
0.070302
0.046085
0.088012
0.112107
0.090362
0.158423
0.129810
0.184238
0.168744
0.175334
0.121705
0.173653
0.237529
0.185933
0.213406
0.196146
0.154200
0.166755
0.181085
0.198385
0.208652
0.272240
0.213718
0.333123
0.133738
0.241753
0.171461
0.202458
0.244163
0.204179
0.161307
0.195039
0.049786
0.190597
0.151951
0.108616
0.169650
0.085128
0.122479
0.140255
0.114555
0.073003
0.093278
0.042673
0.097894
0.069444
0.057635
0.086308
0.122959
0.047507
0.077946
