-0.025609
-0.007880
-0.009670
-0.057379
0.004067
0.033128
0.055766
0.024308
-0.051881
0.039802
0.040303
0.028136
0.004156
0.020734
-0.006609
-0.030288
0.002571
0.029694
0.041819
0.073237
0.041849
0.023403
0.041624
0.069703
-0.008000
0.005493
0.119728
0.056544
0.021753
0.109966
0.115404
0.067268
0.072535
0.150416
0.152110
0.125022
0.120455
0.206986
0.167427
0.159797
0.133850
0.272050
0.191319
0.223252
0.276944
0.209912
0.167007
0.175013
0.106475
0.187546
0.172830
0.160539
0.196665
0.106630
0.164471
0.094114
0.112243
0.091231
0.067478
0.137475
0.038889
0.048752
0.068265
-0.011497
-0.036545
0.014431
0.101444
0.031398
0.040380
0.067198
-0.001685
0.084943
0.020068
0.030214
0.077146
0.034480
0.003995
0.109401
0.029290
0.034085
0.138648
0.233803
0.491048
0.835917
1.063118
1.390087
1.376657
1.305246
0.990711
0.750865
0.303715
0.090583
-0.148285
-0.182146
-0.226758
-0.152888
-0.030383
0.087305
0.143793
0.052210
0.052398
0.064986
0.113231
0.080323
0.062428
0.119368
0.087495
0.113480
0.132695
0.163377
0.142244
0.157988
0.238189
0.174470
0.114521
0.193786
0.175159
0.238615
0.258812
0.244322
0.251848
0.307472
0.337165
0.248874
0.350669
0.412670
0.439573
0.389091
0.517124
0.434900
0.473573
0.484630
0.545459
0.500715
0.456268
0.533316
0.551228
0.607544
0.648975
0.552518
0.551431
0.586505
0.514114
0.588995
0.605518
0.566854
0.539074
0.496013
0.564199
0.511298
0.389086
0.407939
0.377330
0.406405
0.404187
0.458844
0.357477
0.302754
0.349047
0.259225
0.201253
0.242679
0.169990
0.255468
0.222645
0.239267
0.189413
0.176201
0.119004
0.122111
0.147471
0.168043
0.154939
0.105792
0.219944
0.177591
0.135676
0.035605
0.090298
0.081125
0.074951
0.059104
0.137018
0.083998
0.067251
0.063510
0.123232
0.167411
0.069855
0.129058
0.034482
0.059258
0.131727
0.102259
0.054498
0.073961
0.066552
0.058014
0.135103
0.123826
0.050741
0.120981
0.149269
0.161556
0.119609
0.064385
0.080279
0.059542
0.146085
0.036282
0.080491
-0.026222
0.070599
0.047525
0.056250
0.021065
0.128528
0.025333
0.129898
0.146078
0.109926
0.115051
0.124084
0.100488
0.076045
0.099714
0.107049
0.074151
0.096036
-0.012977
0.106515
0.073039
0.191236
0.129940
0.107262
0.043298
0.099684
0.110682
0.046258
0.078819
0.148199
0.158239
0.133814
0.096301
0.196128
0.147347
0.082034
0.132447
0.216998
0.129556
0.175655
0.215510
0.232683
0.244768
0.235112
0.240227
0.232919
0.260879
0.233010
0.257965
0.287288
0.283667
0.172615
0.184118
0.244467
0.234613
0.160824
0.210389
0.253432
0.122340
0.142863
0.148370
0.135622
0.146703
0.120385
0.106012
0.126443
0.063225
0.110895
0.118347
0.094118
0.112649
0.095936
0.078142
0.069399
0.087234
0.042670
0.084500
0.055967
0.120256
0.080593
0.037798
0.039539
0.019670
0.048000
0.230196
0.428162
0.696932
1.056765
1.358417
1.500000
1.320543
1.072768
0.735027
0.450975
0.085607
-0.116129
-0.150504
-0.199543
-0.123283
-0.103284
0.050895
0.035922
0.074140
0.057073
0.112675
0.047597
0.043261
0.085844
0.070455
0.176638
0.134531
0.155018
0.040789
0.169791
0.131336
0.235161
0.158430
0.143838
0.212100
0.107533
0.112814
0.254930
0.261135
0.225016
0.283432
0.270416
0.333040
0.397575
0.300967
0.325361
0.463207
0.400443
0.401569
0.365913
0.513197
0.462008
0.507750
0.497105
0.458143
0.542231
0.558381
0.589778
0.510379
0.532057
0.530727
0.577700
0.520739
0.491467
0.480243
0.522410
0.473439
0.453549
0.462573
0.360191
0.437736
0.401091
0.452022
0.306415
0.302818
0.386800
0.224535
0.295698
0.307388
0.198362
0.140675
0.217364
0.147623
0.146613
0.121918
0.119014
0.047672
0.059295
0.096792
0.010618
-0.028851
0.050947
0.019700
0.064809
0.005407
0.037866
-0.004643
0.057866
-0.096190
0.067116
0.042410
0.085196
0.015985
-0.061306
0.018400
-0.011613
0.062840
0.013979
0.113418
-0.013220
0.067158
-0.006722
0.001558
0.002252
-0.047200
0.015785
-0.062343
0.037074
0.053053
0.020890
-0.011352
0.009193
0.015169
-0.075488
0.034088
-0.043555
-0.006244
-0.051601
0.000973
-0.000877
0.021860
0.081638
0.017402
-0.003137
-0.066169
0.013676
0.003754
-0.005798
-0.083398
-0.056433
-0.007151
0.038467
0.022794
0.046216
-0.054431
-0.012566
-0.016750
-0.027665
0.005579
0.005722
0.000746
-0.014991
-0.028462
0.029364
-0.007487
0.050749
-0.014106
0.066837
0.019537
-0.000849
0.124675
0.021489
0.095313
0.039433
0.070618
0.064707
0.083483
0.050057
0.014981
0.106723
0.149134
0.099390
0.154955
0.179301
0.105016
0.124620
0.157884
0.101426
0.101888
0.198668
0.113356
0.048609
0.055444
0.189816
0.104046
0.131844
0.007255
0.075598
-0.011362
0.052847
0.038690
0.022594
0.048566
0.022016
0.046078
-0.016943
-0.001331
-0.059537
-0.107508
-0.081450
0.003483
-0.059129
-0.010390
-0.025787
-0.068008
0.047431
-0.127817
-0.105480
-0.038526
-0.063919
-0.042164
-0.071092
-0.033022
0.004949
0.099241
0.314401
0.567064
0.903665
1.150727
1.308681
1.290914
1.133949
0.769360
0.504497
0.153813
-0.096453
-0.250936
-0.305350
-0.226904
-0.089517
-0.115302
-0.068212
-0.042928
-0.064709
-0.071541
-0.044244
-0.014719
0.001429
0.084141
-0.025985
-0.052386
0.021314
-0.001932
0.012426
0.041728
0.091740
0.041240
0.049252
0.091501
0.106049
0.128591
0.121834
0.194654
0.155626
0.102659
0.252142
0.250770
0.238134
0.229098
0.339538
0.306285
0.361542
0.342025
0.388833
0.367995
0.394916
0.380947
0.387963
0.409598
0.426977
0.405936
0.521024
0.488166
0.485103
0.388824
0.486282
0.366504
0.470719
0.430313
0.460472
0.473284
0.362549
0.385123
0.350549
0.373009
0.306096
0.302088
0.277334
0.259364
0.241036
0.242899
0.208310
0.191000
0.134753
0.169299
0.042334
0.061531
0.101497
0.007957
0.025111
0.010351
0.004442
0.037750
0.017538
-0.073483
0.052937
0.023331
-0.000061
0.028431
0.011372
0.047579
-0.051042
0.038532
-0.030137
-0.068952
-0.027782
-0.043830
-0.021736
-0.025286
0.014005
0.004480
-0.003201
-0.094898
-0.078417
0.057735
-0.096562
-0.040665
0.012308
-0.002575
-0.024607
-0.067443
-0.042196
-0.043972
0.043580
0.011075
0.005833
-0.002482
-0.038870
0.001156
0.047115
-0.059315
-0.023062
-0.008845
0.012078
-0.014561
0.001514
-0.051197
0.019684
-0.086142
-0.022931
-0.027775
0.013151
0.012283
0.019790
0.009133
-0.034995
-0.037346
-0.048601
-0.031758
-0.047855
-0.029184
-0.063794
0.002103
0.010401
-0.032555
-0.010481
0.003745
-0.067615
0.020385
0.077655
-0.016173
-0.013099
0.074716
0.072153
0.043128
-0.005251
0.118992
-0.005639
0.052226
0.029167
0.087016
0.143866
0.103791
0.046360
0.047055
0.143283
0.158159
0.117275
0.127162
0.234479
0.194443
0.188968
0.191255
0.228053
0.057937
0.177405
0.125359
0.088894
0.198610
0.080140
0.108772
0.103447
0.056699
0.146973
0.039777
0.065487
0.000061
0.130790
0.051847
0.151684
-0.022601
0.128177
0.004274
0.003455
0.026794
-0.006508
-0.024791
-0.028778
-0.050862
0.006195
0.062697
0.022570
0.031594
-0.007597
-0.011851
-0.044297
-0.044883
-0.033916
0.123437
0.198888
0.526890
0.852271
1.078955
1.318428
1.313089
1.309090
0.901531
0.540512
0.179710
-0.039338
-0.163293
-0.256991
-0.271296
-0.029729
-0.036765
-0.044611
-0.014988
0.063145
0.089444
0.105105
0.081444
0.122595
0.024681
0.000561
-0.022661
0.064359
0.099873
0.073194
0.150622
0.092830
0.162897
0.165483
0.103355
0.216397
0.231254
0.207831
0.272085
0.239189
0.222826
0.307421
0.303553
0.304990
0.321622
0.313292
0.343971
0.475636
0.455181
0.463663
0.504660
0.492532
0.487516
0.496457
0.550189
0.600878
0.506553
0.536374
0.543368
0.465455
0.491581
0.580693
0.557103
0.482121
0.488420
0.460385
0.523202
0.481501
0.512248
0.413970
0.372441
0.457666
0.436795
0.347231
0.444970
0.319549
0.342796
0.304548
0.239582
0.236831
0.165639
0.136170
0.290929
0.211560
0.169959
0.174150
0.108224
0.184468
0.154042
0.192836
0.058228
0.045382
0.082746
0.063754
0.110603
0.119825
0.105460
0.022040
0.046259
0.069632
0.075125
0.029817
0.173253
0.140283
-0.005369
0.072272
0.039176
0.110257
0.073987
0.064273
0.066639
0.100805
0.062034
0.108182
0.186611
0.043733
0.091358
0.051842
0.094544
0.047350
0.020064
0.061936
0.086116
0.037997
0.054012
0.002861
0.131925
0.004246
0.112073
0.073821
0.043781
0.013236
0.036580
0.075996
0.099362
0.071783
0.119083
0.072460
0.155802
0.078685
0.068127
0.074934
0.120621
0.123753
0.095080
0.112027
0.091303
0.087005
0.093202
0.051413
0.004533
0.150131
0.125244
0.102253
0.113277
0.163666
0.132383
0.133734
0.198585
0.104792
0.201882
0.139950
0.215745
0.109152
0.147519
0.135905
0.244657
0.116196
0.177852
0.212901
0.307050
0.326298
0.257840
0.268908
0.175459
0.304744
0.287454
0.283197
0.242552
0.272273
0.200935
0.278461
0.254913
0.217350
0.226207
0.225219
0.170310
0.175861
0.258994
0.208817
0.114387
0.248518
0.169896
0.133988
0.120506
0.064928
0.113723
0.131555
0.183396
0.102600
0.090749
0.108910
0.104537
0.121556
0.088056
0.065984
0.054682
0.148335
0.129087
0.124837
0.029534
0.099511
-0.045756
0.102235
0.116032
0.308695
0.466886
0.834024
1.082892
1.349408
1.404948
1.323500
1.109023
0.834852
0.365949
0.110932
-0.019141
-0.170092
-0.139274
-0.115589
0.062046
0.045256
0.062443
0.110958
0.088129
0.153349
0.094552
0.129246
0.165085
0.161681
0.127217
0.117065
0.142479
0.186446
0.117252
0.088838
0.184775
0.235118
0.145277
0.274527
0.181412
0.252899
0.246532
0.236761
0.318091
0.351297
0.414819
0.335130
0.421826
0.405270
0.491265
0.409041
0.440753
0.492844
0.507205
0.524353
0.554764
0.588289
0.559686
0.534639
0.567646
0.569498
0.536180
0.615305
0.567317
0.579915
0.569405
0.523073
0.575573
0.567959
0.495089
0.555256
0.521470
0.457998
0.430998
0.416606
0.419455
0.378821
0.438318
0.380609
0.467845
0.381541
0.309226
0.310210
0.297491
0.226853
0.267894
0.228189
0.272504
0.157401
0.158799
0.156419
0.165808
0.207074
0.148648
0.205506
0.158434
0.155290
0.048014
0.086458
0.075467
0.125895
0.149162
0.070920
0.062745
0.033653
0.076132
0.071930
0.078991
0.025214
0.126963
0.050677
0.052468
0.088745
0.030980
0.090426
0.038171
0.048507
0.039385
0.121099
0.163698
0.063835
0.102447
0.006521
0.104574
0.061060
0.144519
0.102741
0.014618
0.085559
0.041738
0.074458
0.043764
0.089557
0.092100
0.105465
0.006724
0.050443
0.035498
-0.022992
0.006235
-0.000710
0.064584
0.073096
-0.012032
0.050494
0.083978
0.105005
0.021215
0.048600
0.103057
0.057510
0.029530
0.035049
-0.000247
0.056861
-0.053517
0.019007
-0.040065
0.019640
0.081182
0.060421
0.066090
0.057441
0.055252
0.081763
0.112059
0.098487
0.102867
0.090183
0.131555
0.131910
0.099970
0.114104
0.210262
0.169155
0.089910
0.251111
0.217217
0.177913
0.155347
0.115623
0.143587
0.181312
0.102524
0.097066
0.140787
0.143576
0.186586
0.166280
0.144695
0.099220
0.059388
0.051160
0.044877
0.076952
0.068329
0.085078
0.116747
0.071348
0.116015
-0.053354
0.002338
0.016407
-0.034268
-0.074372
0.068447
0.098177
0.038083
0.058616
-0.021533
-0.045144
-0.056962
0.011190
-0.092884
0.003910
-0.047172
-0.129669
0.003379
0.065855
0.273866
0.597204
0.912690
1.223868
1.366369
1.333010
1.010242
0.718739
0.421254
0.071097
-0.105201
-0.287462
-0.228240
-0.198742
-0.111981
-0.137018
-0.080184
-0.014434
-0.051485
-0.024389
-0.044234
0.025163
0.009225
0.010229
-0.044712
0.095795
-0.029333
0.149665
0.080093
0.009426
0.082002
0.080167
0.092777
0.023209
0.197124
0.188036
0.190414
0.133134
0.162538
0.191040
0.316438
0.247819
0.228455
0.192216
0.326208
0.290333
0.315410
0.308131
0.396207
0.424182
0.400321
0.392431
0.494840
0.415704
0.478397
0.446696
0.500883
0.438281
0.459488
0.459045
0.392942
0.544903
0.458114
0.445740
0.400168
0.415190
0.347576
0.371138
0.368465
0.243249
0.279280
0.356026
0.336886
0.226777
0.271994
0.186110
0.210669
0.243007
0.206344
0.089001
0.117240
0.102198
0.038081
0.016076
0.134387
0.071177
-0.058742
0.007482
0.015856
-0.040884
-0.007531
-0.017960
0.020152
-0.014364
0.011391
-0.039386
-0.061023
-0.066696
-0.027177
-0.016945
-0.100840
0.002587
-0.093214
-0.013443
-0.012401
-0.003751
-0.068018
-0.146939
-0.038909
-0.036586
-0.068184
-0.030001
-0.066272
-0.076817
-0.034645
-0.020612
-0.046878
-0.084681
-0.039539
-0.047931
-0.075246
-0.056714
-0.030033
-0.135153
-0.044419
-0.066221
-0.026864
-0.005939
-0.131668
-0.030214
-0.064804
-0.094758
-0.091387
-0.116173
-0.082272
-0.033707
-0.074095
-0.075738
-0.077268
-0.051053
-0.107681
-0.177272
-0.106333
-0.047057
-0.099443
-0.000239
-0.064000
-0.098019
-0.059863
-0.063204
-0.026704
-0.052632
-0.100311
-0.057333
-0.042858
-0.102860
-0.100543
-0.020798
-0.073949
0.004395
0.046777
0.022843
0.000423
0.000486
0.031851
0.061187
0.062765
0.059075
0.085639
0.087919
0.022542
0.072738
0.087719
0.026848
0.119591
0.155819
0.152652
0.084422
0.168003
0.160832
0.084557
0.142442
0.024321
0.112910
-0.007735
0.074576
0.002369
0.119884
0.048001
-0.092318
-0.036788
-0.010960
0.014986
0.001237
-0.012590
-0.026228
-0.078805
-0.043471
-0.027545
-0.106888
-0.064585
-0.008283
-0.117992
-0.067872
-0.027286
0.000786
-0.087978
0.001799
-0.065314
-0.151395
-0.101714
-0.102866
-0.087433
-0.045534
0.165699
0.412635
0.830665
1.053871
1.250685
1.276864
1.167273
0.745461
0.445935
0.134830
-0.130133
-0.231725
-0.277222
-0.341160
-0.264236
-0.163440
-0.147451
-0.057492
-0.082360
0.019710
-0.071438
0.020012
0.027866
-0.027434
0.003891
0.003482
0.005485
0.058421
-0.050875
0.030605
0.072349
0.052062
0.066576
0.142541
0.026241
0.109436
0.112995
0.142098
0.100945
0.150479
0.182954
0.147954
0.238542
0.196508
0.151071
0.254178
0.311427
0.289703
0.362168
0.368783
0.364794
0.357456
0.361217
0.462087
0.409206
0.399723
0.472399
0.410690
0.416508
0.410951
0.478784
0.298465
0.380911
0.425504
0.445434
0.386072
0.365594
0.354085
0.316282
0.346090
0.373576
0.252755
0.198015
0.293646
0.218318
0.199480
0.158302
0.151987
0.215558
0.094645
0.168810
0.117583
0.014969
0.093546
0.127776
0.056073
0.094221
-0.031247
0.070001
-0.057858
0.009146
0.090345
-0.037121
0.041397
-0.003489
-0.036971
0.037404
-0.053611
-0.022857
-0.035566
-0.031356
-0.078255
-0.162909
-0.106361
0.055813
-0.014881
-0.085070
-0.063167
-0.042197
0.031635
-0.127152
0.008279
-0.063515
-0.092461
-0.041940
0.032884
-0.090945
-0.083051
-0.034700
0.014787
-0.123243
0.048120
-0.091220
-0.034762
-0.052941
0.005222
0.016612
0.014620
-0.009391
0.018237
-0.086694
0.006143
-0.039210
-0.023031
-0.043797
-0.055709
0.006334
0.008102
-0.034443
-0.049564
0.001699
0.031703
-0.016568
0.002281
0.004571
-0.012970
-0.005595
0.071465
0.064202
-0.064441
0.010309
-0.002871
-0.014411
0.150163
0.043646
0.025143
0.008979
0.039115
0.097666
-0.007317
0.027210
0.045278
0.109705
0.075003
0.083391
0.026953
0.109246
0.098903
0.179678
0.099288
0.110337
0.153885
0.167173
0.192412
0.158038
0.220749
0.105814
0.165969
0.194338
0.207598
0.154745
0.140497
0.207553
0.129084
0.211966
0.097652
0.056156
0.158936
-0.011958
0.174573
0.040500
0.040340
0.033686
0.034605
0.029680
0.015478
0.054544
0.031438
-0.037607
0.020895
0.033967
0.077260
-0.016392
-0.048142
0.032628
0.005147
0.029213
0.040338
0.026442
-0.000131
0.027293
-0.057771
0.024333
0.046375
0.282060
0.463762
0.754411
1.078930
1.350890
1.380486
1.156145
0.979040
0.565891
0.256749
-0.037382
-0.167685
-0.205495
-0.158872
-0.180774
-0.066517
-0.026187
0.020894
0.034286
0.059285
0.022722
0.111244
0.075125
0.052140
0.028637
0.080915
0.031577
0.086237
0.058547
0.092610
0.068842
0.106092
0.090885
0.151984
0.130851
0.085728
0.169122
0.171980
0.206867
0.233992
0.328937
0.334986
0.359977
0.365023
0.299930
0.304716
0.292444
0.419091
0.388723
0.540642
0.487250
0.497057
0.443323
0.573403
0.563069
0.557908
0.556181
0.525850
0.625691
0.500367
0.497360
0.613182
0.447968
0.529214
0.500242
0.539418
0.466135
0.441224
0.462092
0.394806
0.422917
0.337311
0.334438
0.317509
0.253201
0.357576
0.256832
0.294064
0.262980
0.294630
0.255112
0.183314
0.183870
0.159203
0.067889
0.123181
0.138540
0.128667
0.089772
0.139621
0.073044
0.026853
0.105148
-0.020348
0.042782
0.060768
0.041948
0.062574
0.087004
0.031952
0.033831
0.033591
0.041485
0.016942
0.025373
0.025005
0.157230
0.054342
0.034079
0.114207
0.036007
0.102721
0.034054
0.060321
0.030443
0.080455
0.067827
0.059345
0.068414
0.079834
0.023056
0.002110
0.084325
0.113324
0.082768
-0.023586
-0.036459
0.049425
0.032204
0.056190
0.001095
-0.002963
0.064451
-0.030442
0.144312
0.030754
0.031577
0.005459
-0.052366
-0.017408
0.071635
0.035503
0.011663
0.048413
0.009237
0.106287
-0.004405
0.049691
0.006120
0.021536
0.073257
0.071683
0.018443
0.061356
0.055269
0.088736
0.022927
0.145878
0.085493
0.069725
0.116151
0.059065
0.085064
0.190230
0.115000
0.201939
0.017197
0.100307
0.203083
0.169661
0.167362
0.155708
0.187869
0.196241
0.225075
0.219050
0.105941
0.157953
0.172240
0.217806
0.220884
0.256618
0.211581
0.176305
0.121926
0.200559
0.152230
0.097263
0.077665
0.120170
0.142898
0.108937
0.047270
0.141599
0.058443
0.043170
0.046504
0.085557
-0.048430
0.031802
0.041715
0.005758
-0.000907
0.017431
0.065756
-0.023504
-0.036666
0.026184
0.046373
-0.009553
0.084574
-0.000957
0.020826
0.046311
0.183543
0.318575
0.623148
0.964462
1.329058
1.430382
1.270886
1.107179
0.705219
0.333091
0.100932
-0.149402
-0.223248
-0.212070
-0.181220
-0.116107
-0.066336
-0.040542
0.060576
-0.028515
0.043485
0.076499
-0.040584
0.046408
0.018993
0.097231
0.121133
0.040293
0.159881
0.066202
0.150376
0.120311
0.022943
0.121619
0.205371
0.178894
0.176373
0.244072
0.165746
0.252303
0.212292
0.254481
0.324809
0.245390
0.291256
0.331686
0.406726
0.415671
0.444613
0.382213
0.404003
0.408109
0.406101
0.535199
0.529723
0.453010
0.458005
0.462535
0.467675
0.446698
0.529264
0.425336
0.531648
0.519755
0.473538
0.408174
0.446111
0.364852
0.442188
0.404683
0.324645
0.318365
0.310478
0.337538
0.342646
0.233383
0.235703
0.188630
0.156288
0.156777
0.057423
0.147034
0.097163
0.122534
0.141716
0.119773
0.072413
0.054272
0.062820
0.038505
0.124723
0.020340
0.042379
-0.074806
0.031299
0.034081
0.030652
-0.029021
-0.011373
0.059007
-0.112630
0.049346
0.003051
-0.019916
-0.050839
0.047504
0.009712
0.000656
-0.082573
-0.047275
0.004865
-0.089374
-0.060131
0.043642
-0.007970
-0.011772
-0.106828
-0.089050
-0.077131
-0.056322
-0.006739
-0.121663
-0.006010
-0.047977
0.006958
-0.041701
-0.029696
-0.001765
-0.028830
-0.088362
-0.045107
-0.073407
-0.013847
-0.054139
-0.084690
0.005754
-0.038710
0.008295
-0.046041
-0.113324
-0.163221
-0.103651
-0.120552
-0.005806
-0.058005
-0.053702
-0.109281
-0.069834
-0.069794
-0.021379
0.030042
-0.069631
-0.048301
-0.122648
-0.010224
-0.016174
-0.007344
-0.004188
-0.048664
0.000868
-0.063206
-0.090452
0.005212
-0.011828
0.059461
0.048776
0.075513
0.010755
0.084559
-0.000862
0.142053
0.113444
0.097836
0.053249
0.114220
0.050096
0.140519
0.056755
0.115274
0.054145
0.037700
0.039520
0.012103
0.069510
0.100182
0.089935
0.002288
0.048812
-0.060020
0.053463
-0.116419
0.023623
-0.079415
-0.053764
-0.058336
-0.029129
-0.063031
-0.110950
-0.016428
-0.007472
-0.073324
-0.052827
-0.108675
-0.137283
-0.111966
-0.068100
-0.090353
-0.081285
-0.109895
-0.045038
-0.178863
-0.087569
-0.176525
-0.151825
0.028932
0.195449
0.465351
0.867803
1.099371
1.370256
1.298026
0.991870
0.701745
0.391934
0.038399
-0.144380
-0.202224
-0.309079
-0.279137
-0.262609
-0.097313
-0.105341
-0.153291
-0.114629
-0.078419
-0.076316
-0.077423
-0.083667
-0.072187
-0.078869
-0.001218
-0.115023
-0.040274
-0.024340
0.023463
-0.048083
-0.040579
0.007540
0.039302
0.025612
0.053044
0.063950
0.044380
0.166405
0.182504
0.202490
0.187395
0.206000
0.120586
0.247085
0.279281
0.335259
0.272578
0.372013
0.334103
0.416750
0.369064
0.392031
0.404488
0.456550
0.460738
0.381357
0.412370
0.451385
0.483373
0.445198
0.376908
0.386731
0.338380
0.338380
0.441650
0.345432
0.261518
0.329845
0.252765
0.249494
0.252139
0.186552
0.183452
0.187050
0.098183
0.229953
0.124780
0.138984
0.024677
-0.026085
0.042347
0.048620
0.014573
-0.012624
0.024592
-0.006256
-0.098396
-0.056663
-0.020560
-0.020610
-0.013840
-0.102285
-0.056670
-0.053659
-0.074394
-0.143786
-0.094446
-0.104710
-0.063181
-0.085297
-0.150557
-0.140510
-0.090328
-0.026675
-0.095992
-0.145163
-0.038480
-0.049137
-0.012407
-0.147467
-0.176498
-0.093461
-0.094402
-0.060933
-0.074102
-0.102941
-0.080404
-0.194543
-0.093327
-0.000715
-0.192002
-0.149638
-0.074809
-0.058246
-0.097510
-0.079851
-0.084764
-0.012544
-0.062692
-0.108106
-0.119547
-0.159301
-0.044004
-0.023042
-0.014655
-0.020157
0.002103
-0.044188
-0.061992
-0.072676
-0.122486
-0.036979
-0.156800
-0.102620
-0.110801
-0.103130
-0.035283
-0.071219
-0.036911
-0.002416
-0.038582
-0.062522
-0.096804
-0.080179
-0.008231
0.075287
0.020134
-0.064573
-0.042594
-0.009087
-0.049195
0.000577
0.056029
0.072583
0.053553
-0.012548
0.064417
0.096826
0.116002
0.094029
0.093282
0.155260
0.087663
0.102161
0.128192
0.126239
0.208002
0.168084
0.161555
0.048592
0.094926
0.064360
0.106323
0.087915
0.037456
-0.011380
-0.017823
0.065225
0.036115
0.054384
0.059440
-0.036015
0.030106
0.004931
-0.085953
0.031038
-0.108979
-0.033565
-0.044960
-0.051375
-0.093703
-0.043506
-0.090770
-0.063173
-0.024391
-0.066364
-0.043374
-0.135740
-0.085781
-0.019728
-0.134031
-0.074328
0.039193
0.190071
0.522321
0.775246
1.095286
1.202590
1.335665
1.148901
0.893419
0.481071
0.215968
-0.090533
-0.222628
-0.292014
-0.156931
-0.189290
-0.165189
-0.055977
-0.034836
0.042700
0.030527
-0.041463
-0.020197
0.053791
0.053784
-0.016984
0.016142
0.064801
-0.008080
0.041256
0.094895
0.113102
0.073320
0.040025
0.058832
0.013446
0.168788
0.110279
0.122234
0.211094
0.215124
0.191382
0.177742
0.328250
0.285884
0.305499
0.286209
0.324571
0.280042
0.359593
0.335383
0.377003
0.409213
0.469730
0.462356
0.486363
0.478581
0.394619
0.446985
0.509388
0.398614
0.536886
0.491872
0.471313
0.401242
0.370257
0.422070
0.381007
0.409402
0.420958
0.348753
0.422058
0.312295
0.335808
0.293436
0.295800
0.286525
0.254185
0.272456
0.219972
0.282253
0.237250
0.198480
0.123160
0.087179
0.043418
0.087157
0.105426
0.112964
0.034493
0.075571
0.180134
0.046218
0.068201
0.013023
0.018049
0.007579
0.033911
-0.000071
0.046013
0.060511
0.077933
0.001583
-0.059798
0.005012
-0.065008
0.051532
0.031590
0.003846
0.000488
0.113650
0.021421
0.037353
0.079498
0.092089
0.103589
0.005367
-0.033687
0.077495
0.035144
0.035429
-0.007141
0.061241
-0.009263
0.026470
0.026505
-0.034556
0.048869
0.072831
0.052250
-0.087852
0.061521
0.066129
-0.016437
0.029694
0.111612
0.045891
-0.011665
0.073887
0.033485
0.068632
0.007184
-0.012742
0.016922
0.036721
0.014168
0.053161
0.127465
0.054737
-0.029331
0.115134
0.070951
0.038408
0.058384
0.049503
0.030715
0.069142
0.130059
0.058446
0.080105
0.080695
0.063227
0.065486
0.173146
0.161805
0.116089
0.062420
0.183057
0.124311
0.219894
0.126739
0.226425
0.174999
0.186500
0.142336
0.295954
0.210931
0.220825
0.251522
0.227627
0.190124
0.214981
0.218584
0.150803
0.124898
0.173378
0.134662
0.147632
0.177328
0.198976
0.161905
0.135864
0.087158
0.090557
0.078261
0.100217
0.043283
0.054551
0.083438
0.095364
0.016642
0.040403
0.090251
0.084153
-0.019940
0.095157
0.148198
0.051812
0.072912
0.039974
0.008277
0.030984
-0.091864
0.068369
0.079557
0.242625
0.478887
0.850345
1.121430
1.426251
1.410190
1.446569
1.146611
0.733504
0.361089
0.103102
-0.163460
-0.224453
-0.202455
-0.176160
-0.105805
0.013482
-0.021541
0.105317
0.039293
0.089957
0.110401
0.073917
0.078650
0.121098
0.122635
0.068670
0.124022
0.121498
0.134467
0.144123
0.163088
0.149720
0.229492
0.184443
0.220872
0.222008
0.209520
0.190826
0.305332
0.335090
0.334572
0.335813
0.385576
0.373119
0.329130
0.427925
0.433904
0.448438
0.450253
0.497986
0.562024
0.608572
0.528268
0.462962
0.562898
0.593045
0.492028
0.603154
0.542917
0.538842
0.458767
