0.041554
0.039039
0.003937
0.019041
0.054907
0.017032
-0.058178
-0.005823
0.036911
0.015580
0.049330
-0.015192
-0.069392
-0.028113
0.038980
0.025021
0.114705
0.066235
0.002898
0.043769
0.053138
-0.036419
-0.021646
0.037101
0.082523
0.035459
0.024294
0.104993
0.013848
0.058405
0.171276
0.155517
0.150553
0.138342
0.164895
0.162941
0.098800
0.188088
0.152766
0.192971
0.172521
0.208989
0.168152
0.216141
0.172558
0.234251
0.130642
0.105134
0.198350
0.123288
0.189966
0.140143
0.059481
0.166805
0.098703
0.064952
0.130000
0.122251
-0.012922
0.068505
0.009978
-0.012606
0.058744
0.138467
0.110474
0.069279
0.039957
0.154043
0.082352
0.069270
0.056477
0.000343
0.126502
0.048646
0.075618
0.066056
0.250868
0.386206
0.739119
1.020096
1.210465
1.376251
1.355051
1.151698
0.773121
0.432476
0.117834
-0.101530
-0.172091
-0.174158
-0.114530
0.038470
-0.027604
0.035508
0.062031
0.092403
0.142959
0.136309
0.043044
0.117822
0.109242
0.132858
0.153681
0.184678
0.154582
0.215979
0.259447
0.232078
0.270618
0.168780
0.241148
0.284212
0.297631
0.221770
0.329941
0.299879
0.427469
0.428160
0.442413
0.450001
0.453030
0.465815
0.410642
0.471897
0.584540
0.571478
0.539363
0.579759
0.642425
0.572519
0.598244
0.623348
0.531597
0.562590
0.627153
0.489773
0.533994
0.581485
0.576121
0.611093
0.568141
0.526546
0.440439
0.373960
0.472006
0.488757
0.424699
0.371344
0.335552
0.344298
0.288011
0.352949
0.279646
0.235671
0.315875
0.287679
0.137582
0.235836
0.156057
0.184495
0.157961
0.201717
0.212249
0.041227
0.179138
0.177026
0.160375
0.108360
0.136188
0.129381
0.074899
0.075026
0.162095
0.051854
0.074683
0.209215
0.155143
0.005056
0.021102
0.216165
0.158303
0.080217
0.012968
0.070175
0.109512
0.062695
0.182210
0.087124
0.052407
0.073653
0.045791
0.059094
0.128264
0.022851
0.069591
0.025045
0.062107
0.121418
0.148504
0.100347
0.115278
0.059280
0.019129
0.112454
-0.012717
0.140027
0.147467
0.048369
0.059298
0.014641
0.050602
0.030401
0.078760
0.145020
0.050601
0.064979
0.101850
0.021496
0.125521
0.104026
0.041671
0.098968
0.141784
0.083413
0.137296
0.144192
0.099356
0.086818
0.152450
0.190851
0.181105
0.199310
0.230088
0.233621
0.202870
0.240452
0.205422
0.248807
0.259798
0.242747
0.271363
0.191344
0.246756
0.229232
0.167714
0.329056
0.222366
0.188756
0.234176
0.277619
0.210626
0.231139
0.245041
0.119251
0.187869
0.190422
0.146247
0.044294
0.124036
0.123507
0.059959
0.023465
0.114820
0.161004
0.089646
0.121780
0.038408
0.095144
0.111623
0.117644
0.072435
0.066956
0.007022
0.116210
0.140550
-0.005824
0.081347
0.086043
0.146744
0.301882
0.511206
0.886375
1.123191
1.414843
1.442592
1.282558
0.997758
0.648505
0.433724
0.029715
-0.065092
-0.162920
-0.159846
-0.048708
0.005250
-0.034497
-0.023189
0.097062
0.125258
0.064851
0.095086
0.158019
0.123957
0.117258
0.099859
0.156373
0.194160
0.175794
0.204070
0.193073
0.231576
0.258848
0.251880
0.298983
0.276367
0.284467
0.355392
0.349251
0.336456
0.308942
0.387207
0.459356
0.351517
0.370982
0.522083
0.432923
0.547111
0.496771
0.520481
0.522923
0.661778
0.538806
0.522401
0.574891
0.582386
0.586112
0.523176
0.575661
0.500678
0.599681
0.508894
0.539212
0.466593
0.514542
0.480005
0.458157
0.398726
0.434319
0.354863
0.382360
0.410270
0.295168
0.308300
0.344094
0.284797
0.181495
0.237189
0.228669
0.256223
0.174713
0.099219
0.101831
0.105536
0.075368
0.101341
0.168097
0.024486
0.075298
0.010760
0.010539
0.093457
0.063914
0.051755
0.044337
-0.041781
0.031378
0.074788
0.026129
0.070345
0.013843
-0.006489
0.042622
-0.031169
0.047627
0.029580
0.048310
0.055814
0.023111
0.099332
0.076493
0.012937
-0.026121
0.036136
0.001905
-0.011877
0.021245
0.019106
-0.024544
0.007871
0.066897
-0.034100
-0.024274
-0.026850
0.011106
-0.042845
-0.018482
0.060786
0.020496
0.006983
0.002778
0.036242
-0.034612
0.036110
0.033687
-0.064958
0.003284
-0.006043
-0.001025
0.026968
-0.001248
0.042532
-0.033383
0.002068
-0.038891
-0.004761
0.031788
-0.014922
0.081270
0.041567
0.031230
0.042122
0.083600
0.006854
0.135113
0.118629
0.041049
0.143239
0.108111
0.172861
0.115113
0.193399
0.137347
0.168820
0.127242
0.223098
0.154853
0.255532
0.221578
0.134723
0.217963
0.218004
0.166917
0.077240
0.084336
0.126799
0.042744
0.066836
0.053277
0.085260
0.088877
0.061791
-0.007212
0.025151
-0.019105
0.005814
0.085372
0.010760
-0.075449
-0.027543
-0.086144
-0.060402
-0.017528
-0.021126
-0.033771
-0.062405
-0.005583
-0.072999
-0.036347
-0.069921
-0.145108
-0.010473
0.081227
0.268455
0.492442
0.882115
1.128011
1.301782
1.355011
1.207930
0.955088
0.472507
0.163157
-0.134108
-0.147479
-0.212330
-0.202357
-0.141977
-0.122230
-0.063703
-0.014146
0.011468
0.074365
0.002553
0.053094
-0.063439
-0.021646
0.114094
0.038651
0.039001
0.070470
0.005555
0.060687
0.126339
0.082279
0.196893
0.111092
0.142817
0.060313
0.107194
0.261292
0.258100
0.272183
0.256309
0.317894
0.232748
0.317347
0.341247
0.361228
0.369059
0.353346
0.399816
0.401083
0.414971
0.435742
0.471300
0.359468
0.466403
0.513300
0.514221
0.408640
0.484672
0.514943
0.423742
0.362826
0.450392
0.445280
0.359198
0.386935
0.406661
0.341944
0.234433
0.351438
0.240793
0.190610
0.180475
0.264977
0.208432
0.174843
0.188729
0.119075
0.069690
0.139326
0.225392
0.071910
0.009446
0.044477
0.045032
-0.042197
0.059026
-0.005955
-0.005036
-0.015625
-0.038001
0.009096
-0.021854
-0.092828
0.020691
0.027476
-0.041165
-0.048202
-0.032484
-0.048404
-0.103985
-0.046853
0.038878
0.006672
-0.058560
0.005412
-0.019825
-0.069122
0.013538
-0.080540
-0.091597
-0.064525
-0.131973
-0.040925
-0.066754
0.010068
-0.053012
-0.007865
0.030190
-0.066751
-0.026604
-0.098565
-0.006111
-0.086588
-0.110203
0.005307
-0.034977
-0.077971
-0.038750
-0.067083
-0.020933
-0.071927
-0.063251
-0.087920
-0.031764
-0.071319
0.020207
-0.037589
-0.066459
-0.043685
-0.028750
-0.021487
-0.058601
0.031820
-0.079976
-0.043428
-0.048667
0.008533
0.024071
0.022363
-0.105843
0.051604
0.059014
0.044858
0.022525
0.078737
0.117643
0.114170
0.003020
0.120351
0.138353
0.234221
0.104104
0.154443
0.192102
0.139734
0.165021
0.213361
0.104084
0.175722
0.135524
0.170911
0.148527
0.052105
0.085819
0.104675
0.013123
0.065503
0.087737
0.008378
0.025389
0.083912
0.178051
0.076725
-0.016651
0.099672
0.075674
0.028681
-0.025086
-0.013809
0.011557
-0.020208
-0.017393
0.065477
0.003618
-0.059563
-0.022250
-0.057058
-0.111441
-0.036174
-0.000679
0.011627
0.104427
0.351679
0.617676
0.916799
1.327983
1.385932
1.289402
1.140594
0.771922
0.478730
0.062539
-0.162198
-0.257933
-0.295543
-0.167163
-0.174611
-0.085959
0.033131
-0.076409
0.062848
0.113548
-0.027130
0.005343
0.024160
0.101318
0.053071
0.083941
0.145375
0.053908
-0.005942
0.115178
0.126270
0.150273
0.162626
0.190852
0.214654
0.210176
0.270453
0.234118
0.238468
0.276065
0.212263
0.382645
0.315431
0.407699
0.334503
0.455594
0.446058
0.473440
0.452432
0.554368
0.509268
0.479805
0.492197
0.512841
0.542281
0.533098
0.571013
0.563744
0.567448
0.510323
0.481175
0.535307
0.447977
0.432267
0.460972
0.423995
0.396526
0.483712
0.364650
0.350095
0.308821
0.284138
0.273270
0.231690
0.243441
0.289106
0.287127
0.220457
0.167861
0.157570
0.232453
0.068928
0.033059
0.101598
0.132465
0.016082
0.101239
0.040225
0.062272
0.089047
0.042613
0.069713
0.066179
0.068349
0.084649
0.011775
0.087577
0.035339
0.089096
0.031838
0.049814
0.058388
-0.005206
0.047792
0.158112
0.054453
0.109784
0.036466
0.037328
0.076993
0.072345
0.039020
0.020468
0.089131
0.092665
0.066462
0.060544
0.068691
0.053545
0.076718
0.004673
0.061323
0.115669
0.047871
0.036114
0.114382
0.066709
0.135027
0.094203
0.048698
0.090640
-0.021316
0.105447
0.094292
0.001711
0.105007
0.084387
0.034630
0.021911
0.057568
-0.004835
0.058005
0.092435
0.109527
0.183661
0.177174
0.078496
-0.007116
0.099155
0.080928
0.184159
0.091816
0.131465
0.188497
0.130688
0.060317
0.111036
0.154639
0.203806
0.255502
0.266134
0.153363
0.211172
0.274978
0.277644
0.255117
0.314526
0.272643
0.204780
0.208761
0.195741
0.150209
0.296743
0.301578
0.233042
0.185078
0.234387
0.126987
0.180016
0.130736
0.205760
0.171071
0.177926
0.149051
0.110421
0.138262
0.065109
0.079888
0.147694
0.068683
0.066048
0.102206
0.089296
0.105015
0.099079
0.081389
0.103430
0.152505
0.075176
0.071080
0.086657
0.037045
0.225475
0.549859
0.856328
1.107987
1.434202
1.500000
1.385986
1.114968
0.770887
0.310719
0.166681
-0.091702
-0.166496
-0.147170
-0.087378
0.080996
0.144821
0.007383
0.165690
0.064050
0.148555
0.018257
0.103510
0.135818
0.110877
0.088266
0.135397
0.164478
0.138224
0.223958
0.151202
0.212549
0.194153
0.196611
0.301737
0.348602
0.337781
0.307024
0.407495
0.307998
0.486493
0.418743
0.384318
0.460544
0.491296
0.541512
0.475439
0.576567
0.507953
0.552544
0.547789
0.599622
0.568538
0.647028
0.612064
0.591269
0.535365
0.522438
0.612934
0.500817
0.563836
0.514922
0.596193
0.562523
0.540524
0.565910
0.464674
0.452554
0.429303
0.385748
0.462440
0.340724
0.321579
0.362461
0.276397
0.276621
0.328020
0.197047
0.229302
0.198982
0.269051
0.272882
0.181252
0.261990
0.188317
0.133453
0.099936
0.178848
0.277890
0.152680
0.203420
0.083153
0.098678
0.165751
0.217912
0.107239
0.015845
0.132695
0.053139
0.046869
0.150810
0.030201
0.038788
0.072346
0.085091
0.033691
0.087979
0.081115
0.141276
0.151575
0.007215
0.114087
0.057549
0.072132
0.099286
0.086348
0.129463
0.174927
0.145227
0.098778
0.130243
0.128471
0.037389
0.075417
0.067770
0.062652
0.001146
0.089047
0.132030
0.079484
0.077011
0.047934
0.063217
0.115522
0.053059
0.035895
0.008732
0.096006
0.021399
0.073211
0.057844
0.038849
0.103692
0.125653
0.108477
0.100522
0.182790
0.071393
0.116082
0.111953
0.026189
0.136967
0.067863
0.115914
0.137927
0.178746
0.225179
0.138360
0.206754
0.271965
0.225967
0.244509
0.260278
0.224490
0.262546
0.267435
0.267660
0.167725
0.213588
0.248464
0.235223
0.218309
0.160917
0.192037
0.127331
0.236748
0.153124
0.087955
0.127915
0.121674
0.030427
0.155351
0.130733
0.102550
0.145319
0.104978
-0.004138
0.064421
0.064973
0.021063
0.056732
0.037181
-0.004372
0.028645
0.047073
0.073891
0.079217
-0.007906
0.065747
0.027590
0.036839
0.072749
0.029003
0.221411
0.570007
0.865453
1.150742
1.376592
1.438767
1.265954
1.026925
0.700787
0.249948
-0.012791
-0.175737
-0.214112
-0.170956
-0.155388
-0.077539
-0.054040
0.100112
0.002610
0.094389
0.165940
-0.030610
0.085800
0.061782
0.105761
0.102290
0.119695
0.112285
0.113142
0.105824
0.118089
0.197403
0.098039
0.155464
0.188429
0.222033
0.194844
0.309522
0.268828
0.262426
0.311769
0.407858
0.305063
0.395684
0.358330
0.387472
0.413702
0.490638
0.425452
0.504512
0.528522
0.442271
0.499037
0.532758
0.464448
0.614136
0.522123
0.535528
0.521270
0.486661
0.507817
0.458262
0.512556
0.419627
0.346382
0.392771
0.345514
0.369618
0.341943
0.289155
0.350407
0.242358
0.291616
0.211163
0.203158
0.232812
0.224441
0.201485
0.102074
0.109432
0.170850
0.047139
0.094043
0.081882
0.070181
-0.000754
0.016074
0.026168
-0.008478
0.016420
-0.017192
-0.028214
0.088802
0.081832
-0.025595
-0.024068
0.057001
-0.018140
0.016816
-0.102318
-0.059215
0.090021
-0.054938
-0.024385
-0.053896
0.034983
-0.057040
0.011379
-0.044245
-0.025518
-0.038080
0.013371
-0.063866
-0.043403
-0.086330
-0.094803
-0.003454
-0.026563
-0.085464
-0.038940
-0.011076
0.012906
-0.022501
-0.056138
-0.099617
-0.063425
-0.034606
-0.072236
-0.121441
-0.095917
-0.036866
0.083221
-0.033041
-0.040671
-0.098869
0.068421
-0.016944
-0.002495
-0.021077
-0.050651
0.014153
-0.031839
-0.068774
-0.053210
-0.014534
-0.044277
-0.062720
-0.115578
-0.022124
-0.001619
-0.041913
-0.027980
-0.073565
-0.016466
0.045755
0.046197
-0.026285
0.010772
0.063236
0.058405
0.131611
0.058255
0.127442
0.135119
0.099216
0.185494
0.140978
0.161568
0.111574
0.119650
0.060464
-0.026115
0.082911
0.111082
0.108381
0.089485
0.065455
0.055305
-0.052715
0.004448
-0.016628
0.044774
-0.057962
0.008736
0.008728
-0.100397
0.001289
-0.021044
-0.025248
-0.044364
-0.011956
-0.096328
-0.106148
-0.038143
-0.112153
-0.058980
-0.040322
-0.117381
-0.055742
-0.051831
-0.036924
-0.090544
0.014281
0.224764
0.512434
0.842739
1.082398
1.291190
1.269477
1.003325
0.757550
0.328253
0.005134
-0.183757
-0.337943
-0.303511
-0.282095
-0.166697
-0.109134
0.004856
-0.134075
-0.111915
-0.098651
-0.077799
0.000995
-0.036864
0.078203
0.010248
-0.004352
0.078268
0.024128
0.006264
-0.002333
0.081963
0.018587
0.098292
0.172324
0.099453
0.199533
0.131517
0.231456
0.138727
0.245849
0.254733
0.273705
0.215864
0.316348
0.335982
0.327700
0.400607
0.346703
0.395176
0.435994
0.413677
0.412938
0.526686
0.429437
0.439221
0.399345
0.528740
0.464441
0.379601
0.398174
0.438993
0.352051
0.432181
0.344903
0.391095
0.290661
0.327542
0.351950
0.267197
0.261845
0.267647
0.194789
0.214794
0.139782
0.080890
0.150184
0.084939
0.053221
0.088353
-0.007724
0.122937
0.024240
0.003196
0.028862
-0.049027
0.006828
-0.098046
0.015067
-0.055954
-0.008009
-0.056425
-0.026872
-0.090146
0.007844
-0.020127
0.007789
-0.038536
-0.091339
-0.009554
-0.000955
-0.074295
-0.054669
-0.099965
-0.067867
-0.127401
-0.074442
-0.114967
-0.143876
-0.046637
-0.096488
-0.064986
-0.021196
-0.115708
-0.017775
-0.129587
-0.122668
0.042904
-0.122502
-0.087529
-0.067948
-0.085375
-0.034368
-0.084463
-0.111853
-0.098545
-0.110828
-0.063186
-0.008484
-0.071128
-0.040010
-0.081810
-0.105922
-0.095730
-0.052802
-0.073082
-0.113681
-0.065718
0.011792
-0.016148
-0.085852
-0.089854
-0.008553
-0.043051
-0.042585
-0.112230
-0.054924
-0.065900
-0.046494
-0.041764
0.027113
0.037401
0.084670
0.071600
-0.033886
-0.001124
0.027229
0.103699
0.115091
0.055799
0.127412
0.134716
0.030583
0.084405
0.155583
0.130805
0.140793
0.178033
0.094201
0.081042
0.092139
0.129579
0.165692
0.134237
0.070078
0.084693
0.035198
0.034394
0.076532
0.029756
0.086074
-0.039167
0.017335
0.010891
0.029162
0.024608
-0.038122
0.008793
-0.037827
-0.049875
-0.033179
0.111098
-0.094217
-0.045588
-0.057887
0.027432
-0.066092
-0.058238
0.007331
0.016385
-0.057886
-0.080150
0.008932
0.093914
0.313666
0.596920
0.972978
1.242446
1.281986
1.175618
1.048163
0.667455
0.387880
0.012628
-0.180518
-0.299305
-0.208533
-0.111558
-0.120628
-0.100838
-0.079400
-0.039121
-0.046551
-0.035409
-0.033497
0.048535
-0.022121
0.079924
-0.034113
0.077770
0.076818
0.091731
0.067949
0.138713
0.143835
0.213241
0.173389
0.186036
0.222405
0.305524
0.251943
0.250899
0.208503
0.235554
0.283256
0.403805
0.359933
0.339854
0.436105
0.472664
0.450424
0.371002
0.471469
0.419279
0.469262
0.353079
0.519941
0.507505
0.540367
0.518680
0.566274
0.509563
0.495760
0.405725
0.451204
0.467539
0.486716
0.459926
0.408960
0.451853
0.446510
0.391385
0.337321
0.311387
0.353365
0.308028
0.249613
0.255238
0.197657
0.228686
0.252011
0.151665
0.209021
0.139699
0.109650
0.136336
0.132177
0.175107
0.169289
0.074688
0.116416
0.050738
0.066319
0.067081
0.066318
0.069467
-0.003251
0.031289
-0.007600
0.040058
0.063003
0.052025
0.012229
0.011547
0.089477
0.070809
0.002703
0.012891
0.105185
-0.029839
0.035526
-0.018406
0.060749
0.047749
-0.000342
0.087014
-0.003393
0.032435
0.038077
-0.021560
0.074937
0.018068
0.057513
0.018874
0.025648
0.040259
0.111510
0.068962
0.043082
0.094650
0.129927
0.132693
-0.006792
-0.002539
-0.046026
-0.011723
0.073408
0.023891
0.054186
-0.007123
0.038594
0.038537
0.028955
0.047525
0.073376
0.076401
0.087264
0.092035
0.042505
0.052810
0.065928
0.018581
0.129502
0.140113
0.195820
0.069918
0.115109
0.112936
0.115951
0.112936
0.144626
0.158739
0.165639
0.189004
0.217589
0.124110
0.262189
0.173636
0.199735
0.098950
0.199729
0.233043
0.209120
0.157182
0.231168
0.216655
0.225816
0.193255
0.154953
0.087099
0.100398
0.184222
0.149512
0.147462
0.071175
0.045893
0.053744
0.102459
0.162046
-0.001317
0.135646
0.085604
0.006679
0.081799
0.000642
0.002010
0.039440
-0.023802
0.150038
0.003488
0.015104
0.110615
0.055756
0.124440
0.072058
0.103382
0.282050
0.538893
0.853282
1.185147
1.333780
1.425367
1.268865
0.948614
0.619782
0.229372
0.099867
-0.159823
-0.281053
-0.163076
-0.108040
-0.033324
0.127935
0.072566
0.028831
0.014364
0.059147
0.049954
0.101253
0.164954
0.144367
0.072950
0.113560
0.134385
0.048725
0.175773
0.052115
0.246186
0.202033
0.216722
0.221059
0.140024
0.285374
0.245971
0.238058
0.279000
0.314931
0.364553
0.349768
0.411165
0.395191
0.391622
0.475561
0.508049
0.495168
0.576811
0.572643
0.520621
0.579401
0.596202
0.629933
0.511204
0.553318
0.566296
0.547235
0.609278
0.516228
0.480498
0.442189
0.472505
0.434258
0.451398
0.451089
0.400994
0.261888
0.416104
0.381904
0.373925
0.360089
0.231849
0.241023
0.204270
0.275074
0.193959
0.175795
0.118149
0.217343
0.168452
0.077534
0.051346
0.225648
0.141345
0.102381
0.100905
0.119595
0.070404
0.089214
0.040468
0.107390
0.010718
-0.037174
0.026308
-0.071077
0.047744
0.042887
0.012662
0.047942
-0.035047
0.022036
0.003179
-0.005331
-0.028807
0.064110
0.047116
0.084790
-0.013291
-0.110574
0.041671
-0.006430
0.081485
-0.013680
-0.054990
0.077109
0.032986
-0.034128
0.085157
0.003913
0.044226
0.057961
0.020762
0.023716
0.015733
0.100892
0.002680
0.019837
0.038982
0.005977
0.070861
0.004217
-0.011288
0.007386
0.037099
0.074834
-0.020339
-0.026879
0.050204
-0.013340
0.002746
-0.053558
0.048306
-0.038469
0.002544
-0.025982
0.049570
0.017416
0.053288
-0.001189
-0.014732
0.024555
0.086074
0.082419
0.140121
0.119642
0.176015
0.146110
0.129309
0.161544
0.189135
0.136416
0.105592
0.176790
0.172308
0.085505
0.090186
0.202516
0.153863
0.206018
0.128703
0.084649
0.146485
0.071282
0.094877
0.085999
0.099980
0.100766
0.007163
0.001015
-0.021557
-0.025405
0.023480
0.016596
-0.048909
0.015289
0.044727
0.060212
0.032633
0.003286
-0.052497
-0.008034
-0.046202
-0.068589
-0.032280
-0.057064
-0.086446
-0.062404
-0.121312
-0.043954
0.079034
0.078569
0.307008
0.537011
0.834750
1.168346
1.317489
1.346344
1.153948
0.738405
0.513392
0.164662
-0.121716
-0.239506
-0.242153
-0.242754
-0.098014
-0.066084
-0.071221
-0.029331
-0.039681
0.037589
0.016096
0.029868
-0.024831
0.033381
-0.058222
0.077982
-0.011056
0.082277
0.048269
0.037087
0.068294
0.064218
0.151068
0.139951
0.120220
0.103698
0.176760
0.127500
0.117688
0.236053
0.290330
0.281219
0.201830
0.320169
0.333129
0.361967
0.354383
0.353993
0.360353
0.491504
0.524722
0.385819
0.442331
0.449486
0.422118
0.506589
0.470103
0.443998
0.439955
0.423480
0.470556
0.502319
0.418155
0.363254
0.300566
0.284374
0.294456
0.336545
0.257726
0.335343
0.174614
0.190092
0.144706
0.091081
0.157161
0.094730
0.157781
0.113278
0.127160
0.045897
0.123280
0.061969
0.082872
0.105104
-0.083736
0.064289
0.039988
-0.091494
-0.010829
-0.018429
-0.037307
0.006655
-0.045725
-0.038516
-0.073217
-0.013264
-0.053553
-0.081396
-0.090664
-0.043410
-0.057702
-0.140415
-0.105111
-0.058641
-0.223060
-0.122723
-0.115826
-0.114138
-0.080267
-0.095346
-0.063306
-0.059149
-0.012629
-0.119859
-0.139601
-0.018935
-0.055340
-0.103826
-0.040526
-0.126253
-0.114267
-0.059700
-0.071669
-0.132651
-0.089926
-0.138247
-0.059453
-0.096521
-0.072283
-0.087483
-0.127538
-0.123043
-0.063005
-0.139855
-0.087159
-0.119809
-0.053319
-0.088916
-0.133478
-0.055815
-0.086154
-0.122134
-0.128949
-0.094466
-0.084703
-0.046600
-0.068012
-0.068647
-0.001301
-0.071455
-0.066413
0.014734
-0.034467
-0.072664
0.092721
-0.007256
0.013523
0.034882
0.033291
-0.013731
0.069925
-0.006953
0.092135
0.069497
0.003443
0.060975
0.116136
0.007235
0.087084
0.108526
0.070432
0.022548
0.063681
0.045569
-0.029466
0.022163
-0.043114
0.045365
-0.020668
0.030472
-0.018025
-0.036048
0.007525
-0.061240
0.005647
-0.107851
-0.048595
-0.129423
-0.030864
-0.111000
-0.062038
-0.122362
-0.095257
-0.072266
-0.109126
-0.107184
-0.060581
-0.139065
-0.176733
-0.147989
-0.057234
-0.090755
0.068268
0.328141
0.520732
0.938478
1.251042
1.340128
1.181097
1.036191
0.699949
0.268096
-0.036047
-0.278358
-0.288780
-0.343278
-0.302484
-0.230412
-0.141545
-0.062083
-0.078740
-0.138277
-0.066553
0.015145
-0.093328
0.013022
-0.017062
-0.012036
0.008241
-0.031092
0.035624
0.028015
0.010997
0.056234
0.095830
0.065570
0.017261
0.074320
0.127120
0.037748
0.213008
0.192473
0.153962
0.207844
0.216398
0.189647
0.268716
0.372408
0.307564
0.322570
0.359254
0.385773
0.445869
0.420407
0.423184
0.439961
0.421434
0.422647
0.474646
0.400183
0.527611
0.435070
0.405205
0.449152
0.417171
0.422612
0.394048
0.330193
0.403998
0.312287
0.314076
0.208359
0.232996
0.212747
0.177106
0.164908
0.154108
0.148253
0.153007
0.126118
0.172325
0.101468
0.002425
0.013572
0.034072
-0.025456
-0.089217
0.019887
0.089562
-0.055664
0.021754
-0.007483
-0.071693
-0.061872
0.033879
0.025186
-0.036110
-0.072216
-0.045330
-0.038120
-0.028697
-0.005821
-0.158476
-0.033152
-0.052928
-0.068243
-0.010183
-0.025469
-0.032318
-0.012134
0.004834
-0.083143
-0.050380
0.009303
-0.101068
-0.055574
-0.035716
-0.070940
-0.049403
-0.102945
-0.069006
-0.055094
-0.065167
-0.053268
-0.011139
-0.061720
-0.093124
-0.117508
-0.049956
-0.022724
-0.054646
-0.042729
-0.069568
-0.049702
0.004772
-0.078229
-0.076162
-0.027951
-0.065488
-0.033819
-0.101277
-0.064897
-0.033262
-0.027307
0.015552
-0.054381
0.014054
-0.100002
0.028060
-0.026754
-0.072894
-0.042390
0.053250
-0.021484
0.032396
0.010572
0.031812
0.037751
0.078078
0.024208
0.106436
0.037161
0.090687
0.170084
0.095519
0.130768
0.052916
0.122631
0.150565
0.101944
-0.006735
0.161000
0.190997
0.172623
0.173259
0.118223
0.128808
0.060387
0.132910
0.123079
0.092429
0.071155
0.052988
0.067655
0.065952
-0.016700
0.070730
0.032554
0.025542
0.001318
-0.010019
0.118009
-0.058914
-0.062439
-0.029139
-0.045319
0.039786
0.025990
-0.040324
-0.035651
-0.013772
-0.009860
-0.065685
-0.036737
0.105620
0.189668
0.484799
0.828415
1.133950
1.340949
1.351329
1.286668
1.051873
0.646927
0.289477
-0.016012
-0.201249
-0.290960
-0.207342
-0.089806
0.002598
-0.093623
0.050507
0.036751
-0.066721
0.095464
-0.012852
0.098048
0.039909
0.067393
0.145505
0.186923
0.093485
0.083196
0.180468
0.144964
0.119072
0.184211
0.293200
0.256714
0.194969
0.248545
0.253063
0.279911
0.229140
0.310606
0.261832
0.306927
0.418796
0.437914
0.367847
0.486237
0.523425
0.410182
0.481128
0.551515
0.574623
0.583638
0.479831
0.572593
0.568229
0.605620
0.582485
0.574533
0.547298
0.561108
0.557308
0.559907
0.526971
0.481977
0.431445
0.494723
0.461631
0.394143
0.348444
0.324191
0.360819
0.380039
0.315988
0.210157
0.231501
0.286999
0.243341
0.277517
0.228192
0.136639
0.185410
0.198085
0.042038
0.166155
0.073999
0.130322
0.086217
0.089613
0.027638
0.116921
0.132370
0.122149
0.066501
0.138932
0.002938
0.029436
0.060753
0.106768
0.075696
0.012539
0.037745
0.036366
0.062564
0.184802
0.111281
0.017846
0.037128
0.045722
0.099556
0.052837
0.089886
0.078699
0.020609
0.039950
-0.000698
0.086779
0.048813
0.071029
0.071065
0.040540
0.039552
-0.039633
0.081358
0.079123
0.116017
0.049327
0.082002
0.082481
0.139451
0.175094
0.001274
0.053695
0.051866
0.071691
0.118472
0.001371
0.108724
0.052043
0.085464
0.037390
0.070874
0.130967
0.103165
0.090560
0.097276
0.129286
0.141438
0.143533
0.107039
0.033152
0.167376
0.163682
0.163637
0.197750
0.156394
0.161766
0.180973
0.157454
0.183599
0.153681
0.242574
0.136917
0.238845
0.219134
0.223673
0.187164
0.273439
0.288710
0.222337
0.196247
0.297252
0.261686
0.137012
0.164644
0.236118
0.244554
0.175268
0.179783
0.091371
0.161163
0.148435
0.153385
0.055267
0.087930
0.128134
0.057867
0.035044
0.075515
0.092815
0.069250
0.084532
0.122925
0.032056
