-0.087615
0.079742
-0.015905
0.011490
-0.026826
-0.031616
-0.042265
-0.030327
0.005612
0.037194
0.096273
-0.047493
0.061328
-0.025114
0.089577
0.016672
0.060507
0.028962
0.013825
-0.009449
0.015259
0.039274
0.038415
0.003937
0.029196
-0.005041
-0.072002
-0.006735
0.053929
0.036434
0.033733
0.026321
-0.047572
0.111459
0.124443
0.060807
-0.017205
0.011202
0.105941
0.044193
0.113429
0.151225
0.148816
0.104994
0.125755
0.068908
0.139436
0.244346
0.171356
0.196466
0.171449
0.244259
0.210440
0.220374
0.184583
0.202224
0.254323
0.227217
0.169719
0.127396
0.127121
0.142267
0.159978
0.178415
0.175731
0.148421
0.049498
0.120590
0.007234
0.185540
0.134771
0.054405
0.006602
0.072306
0.216139
0.068320
-0.061560
0.084274
0.029098
-0.024133
0.085915
-0.000794
0.076520
0.082865
0.015507
0.105557
0.036322
-0.043873
0.111404
0.031479
0.118868
0.122663
0.017683
0.008004
0.040127
0.018797
0.106012
0.092794
0.043120
0.013430
0.056518
0.000597
0.180075
0.400103
0.729208
1.039566
1.324974
1.500000
1.337440
1.227445
0.992354
0.546500
0.321175
-0.004803
-0.194261
-0.259703
-0.255109
-0.204397
-0.009531
-0.036737
0.064953
0.022574
0.116662
0.150346
0.085169
0.074370
0.035479
0.022625
0.112997
0.030590
0.113372
0.121029
0.038330
0.151458
0.090543
0.160479
0.118749
0.126001
0.073820
0.144305
0.037780
0.115114
0.140770
0.098209
0.192429
0.190053
0.136548
0.204404
0.143917
0.184410
0.214169
0.214218
0.249199
0.262560
0.238630
0.252443
0.297892
0.277828
0.377160
0.462123
0.414559
0.418720
0.414350
0.450702
0.431291
0.447713
0.548953
0.611532
0.520419
0.561139
0.536229
0.604937
0.627376
0.516899
0.619606
0.647139
0.535209
0.554821
0.567384
0.585771
0.589130
0.412055
0.503412
0.454587
0.433740
0.503152
0.498807
0.407005
0.393293
0.381489
0.414114
0.298327
0.344187
0.295974
0.315279
0.261523
0.190359
0.207597
0.191875
0.229999
0.217479
0.130888
0.167457
0.088586
0.140855
0.159664
0.236639
0.146911
0.143618
0.202644
0.186677
0.070781
0.126778
0.157723
0.076040
0.082130
0.089073
0.081220
0.079016
0.024437
0.019750
0.142803
0.079444
0.125178
0.145029
-0.046724
0.153652
0.176972
0.101779
0.066554
0.132302
0.126319
0.118062
0.155696
0.025725
0.031719
0.117378
0.084706
0.058481
0.116964
0.097569
0.078765
0.053026
0.126217
0.098834
0.087836
0.082241
0.037639
0.050830
0.061262
0.141088
0.065210
0.125568
-0.004556
0.149368
0.078902
0.073687
0.031135
0.101972
0.114170
0.115852
-0.001727
0.041993
0.046284
0.045834
0.007993
0.017233
0.098926
0.115432
0.113076
0.123351
0.005762
0.103115
0.036778
0.078743
0.056226
0.042577
0.071216
0.024355
0.074332
0.122175
0.092903
-0.003035
0.139238
0.015098
0.044592
0.020355
0.071581
0.068665
0.172712
0.038124
0.084316
0.092800
0.053949
0.052077
0.089868
0.026159
0.070843
0.064781
0.107763
0.029174
0.139021
0.093358
0.058082
0.101096
0.055349
0.079357
0.151548
0.160126
0.037176
0.088173
0.215767
0.102602
0.176801
0.206315
0.234250
0.212902
0.231578
0.259398
0.195194
0.223390
0.263306
0.205285
0.224983
0.197752
0.279581
0.147954
0.160910
0.229606
0.157185
0.148978
0.148329
0.160066
0.175026
0.137199
0.223939
0.044153
0.165205
0.023217
0.026839
0.104085
0.003839
0.070951
0.083152
0.077998
0.018899
0.083142
-0.000805
-0.050697
0.069265
0.011355
0.043941
0.019004
0.020369
0.071470
0.032097
0.048863
0.002852
0.051664
-0.037779
0.004137
-0.019805
-0.020613
-0.007434
0.014118
-0.004071
-0.045904
-0.043955
-0.003334
-0.000067
0.101143
0.419960
0.797924
1.117142
1.310441
1.348017
1.304093
1.102994
0.800233
0.510617
0.247582
-0.023932
-0.229292
-0.312565
-0.344178
-0.200517
-0.103208
-0.176713
-0.032086
-0.059535
0.046400
-0.001619
0.055620
0.054769
-0.012872
0.002614
0.052833
-0.051607
0.078815
0.009048
0.051627
0.059881
-0.001207
0.039095
-0.065115
0.064394
0.023959
-0.006680
0.000577
-0.007812
0.049372
0.037450
0.044668
0.018158
0.064558
0.081210
0.150396
0.099984
0.102292
0.205145
0.196388
0.175647
0.227738
0.243033
0.195827
0.332675
0.286242
0.296946
0.303213
0.354435
0.422894
0.411037
0.372615
0.459755
0.482546
0.469511
0.411740
0.438268
0.471141
0.412034
0.512243
0.475129
0.509936
0.485709
0.442928
0.503411
0.470514
0.528258
0.461386
0.455028
0.413974
0.474078
0.391293
0.328623
0.351439
0.369975
0.232241
0.288115
0.255566
0.239408
0.215937
0.168292
0.131831
0.128877
0.127878
0.060562
0.059800
0.076324
0.058507
0.009392
0.064228
0.052571
0.031296
0.000087
0.035511
0.025927
0.037241
0.044589
-0.005208
-0.008574
-0.003009
-0.052952
0.037139
0.007920
-0.035478
-0.014938
0.003562
0.043736
-0.027548
-0.029323
-0.007343
-0.012909
-0.015067
-0.081214
-0.073800
-0.077223
0.019595
0.006872
-0.073198
-0.105738
-0.018689
-0.061659
0.006506
0.014582
-0.063624
-0.033276
-0.048398
0.067599
-0.028922
-0.031754
0.000137
-0.039443
0.004298
-0.108854
-0.045049
0.043195
-0.020388
-0.042919
-0.098373
-0.078418
-0.022803
-0.016409
0.004587
-0.009191
-0.089424
-0.031110
0.013558
0.035149
-0.010543
-0.120150
-0.041717
0.001620
-0.049365
-0.066653
-0.052342
-0.010865
-0.090627
-0.072822
0.033665
-0.065975
0.002060
-0.007047
-0.063795
-0.061144
-0.035865
-0.027058
-0.053019
-0.000922
-0.016197
0.016950
-0.044170
-0.086553
-0.086538
-0.068798
-0.082343
0.041874
0.049774
-0.003221
-0.055234
-0.125694
-0.006259
-0.087999
-0.033119
-0.056225
-0.035682
-0.057069
0.041349
0.011614
-0.002333
-0.027252
0.053744
0.036138
-0.086309
-0.004870
0.025585
0.049534
0.125348
0.058451
0.079101
0.059905
0.052594
0.024764
0.073666
0.026008
0.080300
0.047315
0.143328
0.189132
0.059665
0.130874
0.161883
0.144207
0.113479
0.197849
0.090725
0.053064
0.087230
0.114407
-0.015974
-0.004133
0.095441
0.042012
0.012357
0.009400
-0.004599
-0.016716
0.089870
-0.024758
0.021319
-0.014250
-0.084917
-0.081308
0.001428
-0.028877
-0.027835
-0.071235
-0.078881
-0.018358
0.054279
-0.020285
-0.015830
-0.054387
-0.036021
0.061457
-0.021432
-0.046561
0.012089
-0.015490
-0.028779
-0.051719
-0.061948
0.020633
-0.063626
-0.061664
-0.115524
-0.099175
-0.071043
-0.065861
0.166293
0.414504
0.695203
1.036992
1.265920
1.303183
1.324072
1.047507
0.675374
0.368936
0.158754
-0.112354
-0.287832
-0.324253
-0.369307
-0.309130
-0.136887
-0.081708
-0.158606
-0.180187
-0.070802
-0.066229
-0.007957
-0.062799
-0.039158
-0.059398
0.009507
-0.021809
-0.025449
-0.004375
0.016127
0.017025
0.047741
0.018588
0.033747
-0.004458
0.025017
0.033112
0.034566
0.015295
-0.049949
0.014441
-0.005940
0.119466
0.074415
0.106308
0.062771
0.090202
0.152565
0.138053
0.162645
0.164712
0.196251
0.268284
0.244984
0.247810
0.266580
0.318116
0.266167
0.291758
0.306043
0.353623
0.431827
0.469710
0.490295
0.449791
0.480370
0.410515
0.496231
0.474581
0.512848
0.459341
0.473837
0.530361
0.542785
0.471251
0.429731
0.454529
0.394451
0.503268
0.402014
0.363981
0.461648
0.418328
0.326321
0.396316
0.257920
0.263588
0.266326
0.282624
0.314180
0.283258
0.218291
0.226181
0.199519
0.161433
0.048382
0.153954
0.141439
0.066109
0.071687
0.045567
-0.001227
0.097519
-0.018251
0.036775
0.139678
0.153594
0.015283
0.008073
0.032621
0.043015
-0.058042
0.139978
0.043863
0.053479
0.003106
-0.053918
0.037487
0.057958
0.031196
0.097876
0.037057
0.058362
0.013651
0.017716
0.009845
-0.004786
0.049274
0.032274
0.055806
0.012855
0.029499
0.034811
-0.034246
0.056915
0.088656
0.054973
0.057442
0.044948
0.013639
0.088033
0.049432
0.035453
0.071435
0.051196
-0.008484
0.047498
0.051782
0.009179
-0.019804
0.093363
0.120500
0.123413
0.020095
0.101331
0.080174
0.050016
-0.027350
0.043458
0.027225
0.043836
-0.003018
0.065082
0.074787
0.022283
0.127643
-0.003578
0.059381
0.040632
0.014599
0.042219
0.079253
0.075503
0.079610
0.080858
0.027201
0.048445
0.061788
0.108675
0.068279
0.037325
0.063093
0.076997
0.066697
0.137137
-0.062339
0.042444
0.113651
0.072387
0.100898
0.055233
0.038713
0.051290
0.041876
0.094507
0.069164
0.121546
0.079161
0.118019
0.141256
0.131760
0.011881
0.101006
0.102148
0.123059
0.123420
0.170143
0.153702
0.150100
0.177696
0.253496
0.179523
0.198308
0.235173
0.165896
0.261810
0.160867
0.151000
0.224930
0.256859
0.270493
0.292173
0.268998
0.282942
0.210591
0.188957
0.194395
0.121936
0.269422
0.203216
0.162266
0.192020
0.123962
0.080521
0.184485
0.136601
0.124528
0.105645
0.140701
0.108800
0.140645
0.070575
0.063828
0.088991
0.084000
0.084246
0.094061
0.087736
0.184332
0.013046
0.128682
0.025479
0.014857
0.032899
0.040006
0.030113
0.008627
0.047683
0.062240
0.049203
0.152237
0.054022
0.084451
-0.011923
0.019407
0.043185
0.141729
0.350418
0.580251
0.972576
1.219784
1.355329
1.462863
1.353754
1.122830
0.789580
0.472474
0.246672
-0.140021
-0.158997
-0.277923
-0.244525
-0.126496
-0.078431
-0.006582
0.109172
0.092935
0.048171
0.092910
0.054058
0.118435
0.083262
0.100720
0.038292
0.155532
0.085333
0.147481
0.111612
0.114934
0.105256
0.080480
0.130543
0.181584
0.183616
0.214293
0.161820
0.138353
0.112044
0.153584
0.155104
0.248529
0.156332
0.177825
0.173282
0.221699
0.222896
0.163257
0.261100
0.307206
0.327225
0.249391
0.315154
0.371804
0.359302
0.463801
0.461271
0.398087
0.462510
0.515523
0.528050
0.495834
0.544601
0.575248
0.541737
0.490585
0.540654
0.528138
0.559339
0.479757
0.654386
0.634962
0.601035
0.542820
0.529300
0.549154
0.501484
0.549075
0.543007
0.520992
0.556501
0.453347
0.423726
0.467157
0.437788
0.462225
0.439481
0.301592
0.364141
0.271153
0.281337
0.209815
0.297671
0.258629
0.225843
0.132124
0.095541
0.165835
0.193918
0.162777
0.171119
0.050195
0.137397
0.110673
0.065040
0.020862
0.048306
0.104611
0.077438
0.058289
0.083808
0.076784
0.119942
0.084626
0.149510
0.086068
0.020977
0.160555
0.093362
0.026809
0.047072
0.026767
0.017313
0.096022
0.066803
0.042677
0.019659
0.028230
0.069859
0.128169
0.107877
0.121062
0.047068
0.034622
0.026482
0.011501
0.029545
0.070307
0.031983
0.017745
0.103893
-0.021551
0.046774
0.089040
0.097292
0.068768
0.033122
0.032405
0.037042
0.054178
0.095397
0.000002
0.082258
0.098692
0.042190
0.061757
0.009897
0.039837
0.136306
0.012775
0.052548
0.043439
0.054351
0.064071
0.044503
0.026508
0.005839
0.065211
0.076749
0.050354
0.023007
0.048475
0.034283
0.069985
0.100680
-0.037371
0.053531
0.067740
0.010595
0.089968
0.131632
0.076166
0.005466
-0.011501
0.044108
0.039759
0.021118
0.005166
0.030068
0.055341
0.039461
-0.023029
0.035706
0.071254
0.051090
0.065258
0.098940
0.020794
0.087606
0.105231
0.013641
0.105720
0.100457
0.055138
0.071868
0.144551
0.056634
0.108786
0.232423
0.190535
0.082525
0.188640
0.180612
0.168210
0.186872
0.178145
0.211653
0.177731
0.247051
0.237165
0.182581
0.180436
0.120075
0.169216
0.185465
0.091132
0.089910
0.122654
0.139327
0.102442
-0.002709
0.127586
0.033052
0.001836
0.041069
-0.025823
-0.016582
0.035679
0.082741
0.016736
-0.020419
0.032923
0.007220
0.009241
0.014827
0.081509
0.028695
-0.022049
-0.016678
-0.021411
-0.012089
-0.040472
-0.014967
0.027735
0.056919
-0.019038
0.041319
-0.027667
-0.035267
-0.055778
-0.019494
-0.065986
-0.095529
-0.064942
-0.081016
0.076326
0.211127
0.545275
0.869770
1.139196
1.357696
1.379134
1.186890
0.959331
0.560971
0.347396
0.037333
-0.210703
-0.357773
-0.383227
-0.358866
-0.309901
-0.200135
-0.083212
-0.060180
-0.082623
-0.063260
-0.026705
-0.023312
0.014860
-0.030120
-0.085637
-0.066229
0.018048
-0.048845
-0.004585
-0.096545
-0.007789
-0.000630
0.019087
-0.094163
-0.034906
0.026652
-0.021304
0.057276
0.019308
0.117916
0.048796
0.041643
0.002937
-0.015977
0.092341
0.020124
0.034221
0.122081
0.107251
0.132842
0.136564
0.200658
0.190312
0.215267
0.197004
0.205020
0.249693
0.294890
0.322690
0.223211
0.362890
0.427589
0.308012
0.349790
0.447807
0.363165
0.478260
0.391015
0.399762
0.473432
0.410860
0.467960
0.435078
0.461174
0.393148
0.333648
0.410651
0.381278
0.303100
0.355665
0.401215
0.340555
0.328529
0.345789
0.287184
0.224453
0.282210
0.281446
0.186590
0.198231
0.160811
0.108140
0.083437
0.072790
0.107426
0.069590
0.106635
-0.037975
0.062164
-0.004143
-0.018786
0.031939
0.042935
-0.025891
-0.022256
-0.056746
0.001469
-0.062732
-0.030276
-0.114335
-0.021290
-0.085625
-0.080284
-0.136297
-0.095738
-0.020514
-0.060911
-0.066711
-0.060309
0.008531
-0.048898
-0.021854
-0.089625
-0.082687
-0.040410
-0.065640
-0.093923
-0.001162
-0.090830
-0.115569
-0.045422
-0.005650
-0.086968
-0.048784
-0.140200
-0.058182
-0.104710
-0.099374
-0.011941
-0.066267
-0.081239
-0.051200
-0.182308
-0.115399
-0.020700
-0.004372
-0.068085
-0.075809
-0.082215
-0.086701
-0.097110
0.005766
-0.058640
-0.095737
-0.138730
-0.075658
-0.078145
-0.090770
-0.096936
-0.143663
-0.017884
-0.090189
-0.099368
-0.087147
0.002441
0.014875
-0.085970
-0.071502
-0.149899
-0.071129
-0.100757
-0.066230
-0.104752
-0.101200
-0.056572
-0.090335
-0.067390
-0.011810
-0.047135
-0.095960
-0.166044
-0.162055
-0.082801
-0.042237
-0.153397
-0.068207
-0.057581
-0.085175
-0.039249
-0.079242
-0.111669
-0.136764
-0.120457
-0.130197
-0.034907
-0.027274
-0.118821
0.007136
0.050068
-0.057220
-0.058243
-0.070995
-0.032394
0.040854
-0.039274
0.028106
0.000482
0.030846
0.040502
0.067379
0.033062
0.039296
0.047733
0.037391
0.072054
0.079242
0.065433
0.211703
0.151414
0.180574
0.061980
0.130810
0.130657
0.114194
0.021890
0.119405
0.089457
0.078984
0.030300
0.019358
-0.009969
-0.031936
-0.035037
-0.011189
-0.048998
-0.054444
-0.017101
-0.033702
-0.048088
-0.073401
-0.054228
-0.100217
-0.074338
-0.052189
-0.092278
-0.066060
-0.073564
-0.041184
-0.023521
-0.045711
-0.105477
-0.029926
-0.071175
-0.058349
-0.026553
-0.019036
-0.035284
-0.049139
-0.089003
-0.144288
-0.079354
-0.100446
-0.047373
-0.124921
-0.113545
-0.060125
-0.036972
0.195359
0.584811
0.892304
1.198051
1.327366
1.381244
1.167580
0.986790
0.606815
0.301655
0.066776
-0.220309
-0.384622
-0.316106
-0.302858
-0.264358
-0.105885
-0.098353
-0.090914
-0.093058
-0.076712
-0.092722
0.027564
-0.129100
-0.017425
-0.037147
0.037260
0.056141
-0.046607
-0.025283
0.003598
0.034253
-0.013191
0.011912
-0.089171
0.017763
-0.018760
0.003468
-0.027041
-0.024435
-0.004896
0.045221
0.036579
0.014976
0.016293
0.083350
0.158550
0.106937
0.212453
0.146484
0.153083
0.190404
0.202946
0.183714
0.289213
0.289760
0.180629
0.320319
0.350283
0.382125
0.369436
0.406612
0.415567
0.413819
0.367753
0.487809
0.404527
0.445577
0.481938
0.390340
0.459369
0.425799
0.460689
0.457990
0.407726
0.487985
0.510983
0.429001
0.495278
0.423857
0.323549
0.415110
0.374250
0.395592
0.388292
0.260057
0.184307
0.282699
0.240969
0.213523
0.177545
0.241670
0.133066
0.213162
0.049235
0.154592
0.108987
0.194781
0.145352
0.069909
0.066203
0.059870
0.039502
0.101621
0.019291
-0.023895
0.019331
0.085369
0.028125
0.084599
0.076566
-0.083617
0.034058
-0.054006
0.074604
0.070316
0.065818
-0.057582
-0.023376
-0.064151
-0.076870
0.058975
-0.039975
-0.040973
-0.043093
0.030981
0.076020
0.043278
-0.016706
-0.000893
-0.055249
-0.030290
0.031038
0.035485
0.011482
-0.004700
-0.042390
-0.021977
0.136863
0.001210
0.032112
-0.032049
0.041124
0.053401
-0.073817
-0.097378
-0.003526
0.050756
0.079807
0.044850
0.065594
0.016204
0.020686
-0.026314
0.050793
0.011910
0.030869
0.033121
0.000489
-0.005055
0.011093
0.083337
0.009950
-0.004493
0.040144
0.025471
-0.010270
0.052976
0.067002
0.057246
0.066699
0.035403
-0.015295
-0.043321
0.066862
-0.012696
0.071395
-0.003617
-0.048504
-0.013204
0.023976
0.084757
0.086068
0.002058
0.029207
0.002190
0.075423
0.038578
0.014314
-0.019874
0.068244
0.051338
0.002809
0.028396
0.066219
0.019151
0.084371
0.041809
0.096898
0.190159
0.043201
0.089992
0.109937
0.037764
0.071422
0.142181
0.126811
0.177587
0.206036
0.169919
0.116581
0.132330
0.191756
0.179957
0.153536
0.216225
0.240468
0.148395
0.187690
0.192249
0.231354
0.220199
0.161468
0.193706
0.236724
0.164550
0.192730
0.167886
0.166466
0.123498
0.099149
0.063903
0.210236
0.040921
0.090160
0.050964
0.129799
0.059648
0.071580
0.002405
0.002711
0.024498
0.118135
0.098827
-0.004377
0.005549
-0.002349
0.038554
0.020648
0.008849
0.072049
0.024753
0.032943
0.008638
0.057546
0.068991
-0.014286
0.075910
0.049874
0.022109
0.051376
0.102889
-0.078737
-0.002592
0.004995
-0.020367
-0.036147
0.117258
0.298442
0.646093
0.997615
1.308290
1.462088
1.405117
1.302036
0.946510
0.643113
0.325788
0.034406
-0.179962
-0.239411
-0.230256
-0.242887
-0.177522
-0.069299
-0.022198
0.031576
-0.002784
0.004895
0.087927
0.056023
0.023168
-0.001140
-0.021743
-0.033755
0.109179
0.068686
0.045239
0.034058
0.016569
0.091992
-0.033753
-0.001892
0.133298
0.137678
0.050989
0.075147
0.125868
0.103487
0.076376
0.155938
0.107596
0.113318
0.175974
0.145085
0.147583
0.216296
0.136765
0.282609
0.220178
0.297317
0.250189
0.337627
0.337061
0.280519
0.313765
0.399569
0.419189
0.403024
0.485532
0.421860
0.473477
0.485090
0.474823
0.498883
0.571089
0.386068
0.522937
0.503610
0.552974
0.527624
0.463816
0.514144
0.503819
0.484765
0.386114
0.493409
0.404123
0.485987
0.402518
0.419526
0.408978
0.390749
0.347366
0.294865
0.309972
0.353640
0.269131
0.246547
0.181554
0.176281
0.206267
0.220236
0.169929
0.184880
0.202217
0.121831
0.121929
0.111692
0.155999
0.082618
0.112355
0.034777
0.068707
0.015409
0.058810
0.015881
0.021973
0.062535
0.027000
0.088850
0.029946
0.086054
-0.008393
0.109471
0.055923
-0.006120
0.071233
0.040427
-0.050271
0.026438
0.013698
-0.038136
0.019391
-0.003798
-0.024300
0.001732
-0.030080
0.034646
-0.030631
-0.029992
0.069006
0.036904
0.059881
-0.014821
0.076423
0.003438
0.050142
0.005722
-0.032062
-0.003603
0.007770
0.064326
0.064063
-0.011043
-0.033622
0.032179
-0.064517
0.024279
0.046836
-0.051116
-0.027289
-0.020259
-0.078384
0.015069
-0.024612
-0.046211
-0.046582
-0.022963
-0.060669
-0.018356
0.004956
0.042373
0.027080
0.001283
-0.016775
-0.021702
0.056926
-0.087500
-0.007824
-0.017839
0.002680
0.016584
-0.024232
-0.046709
-0.029210
-0.008236
-0.008498
-0.112930
-0.052297
-0.026830
-0.055081
-0.055825
-0.027229
0.042926
-0.103419
0.007792
-0.012897
-0.047201
-0.057522
-0.036108
-0.040554
-0.040217
0.020229
0.009766
0.003096
0.041459
-0.036652
0.008281
0.080485
0.047312
-0.025768
0.071843
-0.009046
0.069191
0.080909
-0.051899
0.087589
0.086339
-0.002705
0.168440
0.049694
0.125749
0.125658
0.134933
0.144615
0.130397
0.163445
0.066324
0.109582
0.019309
0.089649
0.061034
0.138570
0.053952
0.049409
0.047478
-0.004630
0.063338
0.008942
0.065138
-0.079397
0.088063
-0.026806
0.040234
-0.006700
-0.031395
-0.051200
-0.035402
-0.024542
-0.084319
-0.059545
-0.090953
-0.093730
-0.020928
-0.084811
-0.067933
-0.087760
-0.038381
-0.068132
-0.003670
-0.047848
-0.001001
-0.054904
-0.014544
-0.071728
-0.088228
-0.022158
-0.030143
-0.068829
-0.099184
-0.172509
-0.110225
-0.136060
-0.174709
-0.002992
0.332558
0.613733
0.920092
1.142810
1.314110
1.260931
1.044336
0.737407
0.438515
0.110369
-0.055502
-0.264148
-0.398328
-0.437032
-0.383623
-0.238091
-0.234379
-0.145413
-0.143618
-0.114571
-0.069488
-0.113018
-0.101758
-0.082426
-0.086046
0.003265
-0.119668
-0.086363
-0.045423
-0.136564
-0.079769
-0.080874
-0.031312
-0.023348
-0.145956
0.023657
-0.090102
-0.046745
-0.031567
-0.127051
-0.034310
-0.071220
-0.020852
-0.036203
0.004395
-0.006013
0.031417
0.057924
0.077722
0.121994
0.130646
0.024927
0.119362
0.182636
0.213373
0.158000
0.213935
0.207057
0.290737
0.280745
0.245687
0.277679
0.339913
0.352379
0.418952
0.307072
0.445652
0.450914
0.382616
0.350648
0.415843
0.403148
0.372744
0.381497
0.384955
0.371904
0.352065
0.335583
0.398645
0.394050
0.242637
0.294980
0.299242
0.268930
0.302221
0.213597
0.137576
0.150495
0.231911
0.152972
0.147142
0.121549
0.077955
0.191857
0.083139
0.011189
0.058078
-0.017372
-0.017843
-0.002781
0.000435
-0.008733
0.023813
-0.046657
-0.059901
-0.026622
0.016253
-0.068814
-0.130485
-0.098960
-0.095959
-0.114572
-0.098331
-0.079366
-0.099299
-0.097291
-0.106993
-0.154439
-0.095727
-0.125231
-0.059099
-0.141322
-0.115873
-0.017226
-0.052323
-0.154423
-0.044509
-0.038406
-0.096159
-0.075722
-0.078418
-0.061894
-0.050182
-0.084379
0.053032
-0.074165
-0.074101
-0.106236
-0.095459
-0.061925
-0.094480
-0.050380
-0.106657
-0.116029
-0.111269
-0.071110
-0.133044
-0.032599
-0.100351
-0.074243
-0.097430
-0.119685
-0.158630
-0.083102
-0.126233
-0.126744
-0.014974
-0.101835
-0.150857
-0.148233
-0.134622
-0.123532
-0.064125
-0.093417
-0.051904
-0.051622
-0.051112
-0.140654
-0.067285
-0.066505
-0.091341
-0.072603
-0.087579
-0.060946
-0.153962
-0.104858
-0.039239
-0.130425
-0.105825
-0.122577
-0.137161
-0.117764
-0.062581
-0.109469
-0.078049
-0.045395
-0.077423
-0.118524
-0.081795
-0.196022
-0.061483
-0.090653
-0.132738
-0.076212
-0.112019
-0.090191
-0.048910
-0.095406
0.016373
-0.080838
-0.000811
-0.012914
0.020392
0.064174
-0.023325
-0.038985
0.061062
0.037411
0.047928
0.015251
-0.032534
-0.009297
-0.020533
0.131052
0.099703
0.111211
0.112114
0.086113
0.124964
0.159175
0.048697
0.098612
0.076523
0.058151
0.018813
0.089322
0.139214
0.069392
0.004614
0.043707
0.029477
-0.051987
0.015785
-0.055695
0.038377
0.037782
-0.059608
-0.040113
-0.016229
-0.067829
-0.000519
-0.004452
-0.004206
-0.034824
-0.031348
0.019564
-0.014404
-0.065402
-0.106807
-0.020651
0.025561
0.024804
-0.114066
-0.126276
-0.034978
-0.044984
-0.101341
-0.025898
-0.063826
-0.097702
-0.011265
-0.073356
-0.069301
-0.078970
-0.042740
-0.136621
-0.038177
0.066647
0.319235
0.664116
1.008914
1.300406
1.450239
1.337641
1.022583
0.749726
0.415946
0.197850
-0.092889
-0.283481
-0.447930
-0.308920
-0.317436
-0.213179
-0.073991
-0.067596
-0.034532
0.035050
-0.022393
0.043938
-0.006344
0.006164
0.060016
-0.010956
0.043061
-0.009390
-0.020966
-0.055347
-0.109109
-0.038902
0.041079
0.001782
-0.028043
-0.027613
0.059886
0.016510
0.024367
0.058057
-0.008295
0.035077
0.052736
0.014275
0.103486
0.122661
0.143887
0.125083
0.139133
0.214179
0.173943
0.279383
0.203246
0.239115
0.188524
0.274319
0.303867
0.333601
0.393278
0.465317
0.382110
0.377158
0.396899
0.505059
0.483854
0.455755
0.560862
0.512987
0.439399
0.547881
0.493796
0.593751
0.457531
0.483516
0.550285
0.448305
0.524894
0.533057
0.517080
0.539641
0.480483
0.392429
0.414358
0.382463
0.340824
0.345178
0.314638
0.370787
0.259754
0.192478
0.235370
0.230772
0.241052
0.178851
0.143030
0.202760
0.142005
0.154620
0.072829
0.110286
0.080962
0.132694
0.103897
0.046686
0.002269
0.033397
0.085504
0.060212
0.135133
0.040766
0.048982
0.042836
0.079914
0.122736
0.058973
0.052309
0.020313
0.069412
0.030018
0.008430
-0.017583
0.046967
0.073087
0.073858
0.045714
0.038513
0.075232
0.041564
0.058623
0.032949
0.003372
0.070554
0.063746
0.079918
0.069590
0.014854
0.152492
0.087801
0.080577
-0.017289
-0.081757
0.102807
0.006970
-0.011405
0.076449
0.102278
0.055071
0.045967
0.132570
0.044576
0.074952
0.051772
0.134107
0.088564
0.011279
0.017735
0.084903
0.017586
0.084084
0.035387
0.079928
0.097207
0.036029
0.066939
0.056537
0.110770
0.031597
0.106494
0.047517
0.113367
0.021323
0.003128
0.140995
0.112823
0.019086
0.021969
0.071601
0.069117
0.028172
0.039023
0.107566
0.096374
0.062558
0.015369
0.115712
0.004937
0.038118
0.120421
0.109819
0.123609
0.035645
0.042401
0.127620
0.057313
0.099070
0.107212
0.088139
0.074168
0.040002
0.058835
-0.001607
0.077058
0.190942
0.150875
0.105386
0.147828
0.132926
0.149764
0.113066
0.232436
0.190292
0.186714
0.231789
0.298402
0.276002
0.229696
0.275454
0.252433
0.135569
0.270407
0.299157
0.241085
0.258520
0.254934
0.227175
0.182766
0.187766
0.145382
0.270286
0.162439
0.165086
0.132270
0.157506
0.129084
0.073607
0.072680
0.095905
0.037568
0.147975
0.043887
0.051446
0.041947
0.073916
0.087390
0.071758
0.130434
0.111222
0.109669
0.139296
0.132866
0.049401
0.041251
0.117470
0.093727
