-0.006457
-0.022781
0.048934
-0.011543
0.035262
-0.010482
-0.049161
-0.070316
0.030676
-0.030620
-0.039633
0.016371
-0.019513
0.116263
0.061752
0.045658
-0.033205
0.039502
0.010274
0.069214
0.088922
0.054841
0.064130
0.136801
0.085579
0.167138
0.065142
0.160038
0.117747
0.142092
0.167912
0.184629
0.221427
0.180548
0.220874
0.192168
0.112685
0.302323
0.270743
0.223355
0.164852
0.165311
0.314355
0.235628
0.094505
0.167015
0.199219
0.168202
0.177294
0.085935
0.159823
0.116713
0.044849
0.113204
0.060452
0.061784
0.086301
0.084804
0.145964
0.070687
0.064121
0.089055
0.084805
0.131619
0.151197
0.261173
0.529547
0.811159
1.211480
1.410573
1.462951
1.406282
1.094468
0.677299
0.278104
0.036838
-0.038636
-0.060828
-0.037672
-0.036537
0.010602
0.069029
0.092847
0.142533
0.186583
0.123288
0.129682
0.178968
0.234177
0.182744
0.179328
0.213991
0.172066
0.205807
0.263885
0.272247
0.380016
0.373364
0.464976
0.606116
0.409093
0.402527
0.513667
0.504163
0.578900
0.527700
0.527200
0.576519
0.610761
0.560513
0.631131
0.646117
0.588408
0.569336
0.619253
0.599483
0.518036
0.596775
0.533531
0.600213
0.575271
0.573830
0.511677
0.589384
0.425671
0.487675
0.422492
0.460954
0.439312
0.375903
0.412250
0.347564
0.281097
0.303021
0.361777
0.293434
0.194832
0.354705
0.247102
0.159546
0.264343
0.104723
0.243647
0.186323
0.149355
0.171380
0.202155
0.041857
0.107197
0.049080
0.130246
0.156641
0.031856
0.051256
0.039387
0.160715
0.098383
0.108859
0.083487
0.081551
0.186208
0.103743
0.135996
0.067798
0.115455
0.137402
0.115258
-0.006661
0.148345
-0.000760
0.120223
0.094858
0.076029
0.132007
0.096782
0.103701
0.102661
0.121093
0.126597
0.182451
0.049045
0.212315
0.150610
0.120530
0.141416
0.246365
0.094251
0.124284
0.136367
0.034579
0.056426
0.123822
0.124833
0.137634
0.041162
0.190742
0.160313
0.210168
0.183051
0.217347
0.316338
0.198576
0.266496
0.277365
0.243141
0.299373
0.372457
0.247419
0.340737
0.272139
0.222994
0.330745
0.268924
0.325939
0.225835
0.165806
0.201489
0.228185
0.219080
0.162443
0.214547
0.203006
0.118098
0.244842
0.159568
0.182466
0.062490
0.132035
0.184693
0.008614
0.152094
0.022190
0.135065
0.130684
0.128050
0.132060
0.089516
0.059462
0.168247
0.178272
0.444456
0.767830
1.113358
1.403240
1.459098
1.483876
1.286700
0.841339
0.457494
0.157746
-0.008140
-0.055435
-0.000109
0.006788
0.087469
0.107622
0.051727
0.151739
0.217138
0.144359
0.149408
0.128258
0.188400
0.174511
0.243767
0.168036
0.225503
0.281713
0.391305
0.303339
0.330317
0.395233
0.376128
0.455660
0.489551
0.563337
0.452780
0.452652
0.449107
0.537522
0.557230
0.529060
0.614170
0.639056
0.481137
0.619845
0.515428
0.707866
0.616510
0.597346
0.680576
0.674604
0.619613
0.589303
0.587912
0.584308
0.469882
0.502982
0.465475
0.532786
0.407100
0.338377
0.432326
0.393347
0.361971
0.317688
0.373349
0.318949
0.337735
0.227315
0.251061
0.143191
0.188569
0.105380
0.189142
0.241078
0.103227
0.142330
0.032338
0.090013
0.021568
0.057767
0.058038
0.095688
0.105385
0.085709
0.102994
0.121057
0.016906
0.136383
0.029768
-0.044544
0.099007
0.107734
0.057810
0.119165
0.036518
0.060219
0.003688
0.050647
-0.002663
-0.021156
0.049833
0.099248
0.054705
0.101314
0.011531
0.063897
0.156802
0.017223
0.111612
0.091580
0.137231
-0.041504
0.090267
0.014131
0.061064
0.111498
-0.021932
0.006628
0.020254
0.060342
0.062176
0.129946
0.166405
0.009846
0.093892
0.066655
0.047497
0.137689
0.116988
0.050780
0.096075
0.135698
0.201110
0.269704
0.151093
0.222279
0.194910
0.219116
0.301580
0.202452
0.188957
0.222208
0.154181
0.268062
0.125022
0.212134
0.169744
0.119210
0.191382
0.181200
0.077184
0.107847
0.066108
0.109005
0.090364
0.062732
0.079797
0.066160
-0.014052
0.058518
0.042733
-0.037673
-0.002109
-0.024061
0.094490
-0.009403
0.061947
0.062337
0.028993
-0.003293
-0.034100
0.113001
0.356628
0.562407
0.878711
1.213966
1.320593
1.450848
1.238706
0.968315
0.538339
0.165827
-0.052709
-0.188750
-0.130260
-0.081255
-0.012984
-0.089506
0.042210
0.054990
0.081550
-0.027498
0.046179
0.092829
0.197556
0.193284
0.178580
0.178729
0.076070
0.187849
0.213200
0.234676
0.261177
0.230710
0.242741
0.200648
0.350605
0.240775
0.386859
0.420122
0.421431
0.470266
0.430383
0.518678
0.533111
0.585218
0.460310
0.536532
0.492758
0.514911
0.502202
0.528111
0.539488
0.572980
0.629997
0.485082
0.553114
0.512154
0.416524
0.497259
0.412415
0.432621
0.425233
0.345177
0.404661
0.269461
0.334633
0.297467
0.163177
0.198240
0.212108
0.236415
0.161308
0.177176
0.130382
0.118627
0.076889
0.070169
-0.032372
0.053188
0.025306
0.000617
0.000073
-0.033742
0.033153
0.084888
0.045618
0.014585
0.016672
0.063834
0.045258
-0.055590
-0.104104
-0.074388
-0.041276
-0.049055
-0.050134
0.013716
-0.001146
-0.017632
0.034756
-0.026667
-0.106444
-0.067760
-0.030510
-0.034268
-0.010390
-0.087486
-0.006317
0.007927
-0.088026
-0.073195
-0.146869
-0.008163
-0.062131
0.085118
-0.036019
-0.070411
-0.021965
0.049155
-0.005445
-0.055943
-0.042592
-0.029173
-0.016561
-0.031986
0.035125
0.022580
-0.024412
0.113692
0.065242
-0.092453
-0.018324
0.070506
0.022340
0.065886
-0.005727
0.079205
0.152703
0.099387
0.180203
0.102283
0.153172
0.080557
0.118087
0.094062
0.120014
0.074503
0.117704
0.136667
0.093394
0.123031
0.131851
0.123662
0.105591
0.137200
0.161812
0.117742
0.133204
0.040532
0.071259
0.012345
0.028244
0.067038
-0.011282
-0.020159
-0.049874
-0.035019
-0.075447
-0.083242
-0.152859
-0.104006
-0.058109
-0.074062
-0.063685
-0.025862
0.168240
0.361347
0.614177
1.008791
1.250039
1.382470
1.297119
1.001817
0.628328
0.184369
-0.020860
-0.143244
-0.242190
-0.175807
-0.140801
-0.057853
0.028565
0.030430
0.045329
0.048008
0.011351
0.100478
0.034821
0.087301
0.077630
0.222924
0.172185
0.065036
0.171699
0.208998
0.228427
0.216730
0.142924
0.249482
0.250367
0.370492
0.389293
0.431052
0.434977
0.475390
0.430036
0.441343
0.469303
0.472528
0.523163
0.489175
0.538484
0.502367
0.525457
0.545944
0.506647
0.471939
0.520142
0.419675
0.479746
0.394135
0.405280
0.379612
0.411400
0.428422
0.370503
0.386734
0.275163
0.285956
0.255932
0.291897
0.279815
0.302533
0.236144
0.160877
0.169986
0.086729
0.222457
0.118342
0.127333
0.077172
0.140044
0.041170
0.058630
0.094620
0.027301
0.021710
-0.051714
0.068883
-0.031653
0.018878
-0.001474
0.054734
0.059673
-0.006254
0.024203
-0.010586
0.071751
-0.005814
-0.038978
-0.066428
-0.052351
0.075222
0.002518
-0.008780
-0.015628
0.004882
-0.037066
0.019518
-0.082881
0.009321
-0.061586
-0.061289
-0.094258
-0.062334
-0.107673
0.065521
0.097859
-0.003805
-0.068908
-0.017857
0.085500
-0.061536
0.019702
-0.026155
-0.004693
0.039308
0.083362
0.006026
0.017093
0.016823
-0.054938
0.112292
0.011226
0.145334
0.081119
0.045858
0.047298
0.177668
0.020409
0.085800
0.186265
0.046241
0.125610
0.102969
0.175352
0.226568
0.144358
0.208049
0.192035
0.202816
0.208317
0.261930
0.232825
0.198205
0.140234
0.156910
0.222283
0.144462
0.147680
0.181384
0.147043
0.105755
0.091996
0.038544
0.015712
0.083486
0.122684
0.079704
0.155864
0.104033
0.035356
-0.032517
0.080474
-0.072335
0.090686
0.019765
0.057736
0.117026
0.098674
0.313394
0.673306
0.979113
1.302500
1.443051
1.397265
1.177705
0.928501
0.434476
0.090772
-0.013480
-0.102817
-0.091038
-0.025079
-0.042030
0.078455
0.114284
0.052097
0.125916
0.158389
0.111432
0.172711
0.221915
0.215105
0.281007
0.257353
0.244930
0.237650
0.253476
0.257301
0.331295
0.350993
0.409850
0.379712
0.479709
0.409973
0.476493
0.524587
0.508711
0.514873
0.380502
0.522795
0.552331
0.580820
0.579493
0.595901
0.564894
0.603361
0.702272
0.575463
0.634254
0.606116
0.621970
0.619275
0.538372
0.503050
0.508428
0.576847
0.562785
0.427648
0.472844
0.514995
0.394768
0.321084
0.372110
0.358207
0.382512
0.328332
0.331646
0.297480
0.241444
0.224442
0.286090
0.061048
0.219204
0.192974
0.189298
0.165258
0.218257
0.175970
0.085818
0.143845
0.095241
0.165756
0.102264
0.126650
0.109637
0.038498
0.098517
0.025009
0.077192
0.067844
0.128550
0.044197
0.031026
0.161693
0.120164
0.106508
0.022892
0.191104
0.116097
0.138055
0.131390
0.092224
0.089691
0.086989
0.112571
0.078342
0.208396
0.099127
0.135239
0.204500
0.117507
0.113020
0.046075
0.081936
0.018721
0.020306
0.153548
0.055467
0.180094
0.180205
0.090866
0.073061
0.067469
0.145174
0.089874
0.107975
0.038261
0.152056
0.187693
0.164489
0.146700
0.204794
0.267694
0.218290
0.192488
0.266020
0.278542
0.266573
0.246248
0.332030
0.265469
0.257575
0.263215
0.289944
0.209036
0.253078
0.172659
0.298754
0.257233
0.173093
0.251227
0.319395
0.156576
0.224917
0.217691
0.058039
0.237863
0.127896
0.122499
0.136306
0.118656
0.164672
0.159421
0.093946
0.156821
0.161372
0.088701
0.129932
0.135511
0.107427
0.055741
0.221820
0.303765
0.543071
0.905854
1.292379
1.410292
1.500000
1.474517
1.221284
0.766054
0.291751
0.143255
-0.050316
-0.075771
0.005869
0.083877
0.080315
0.126887
0.097644
0.149604
0.170525
0.164157
0.259080
0.219867
0.289966
0.232242
0.226396
0.218933
0.242103
0.277621
0.325208
0.376569
0.399399
0.341461
0.528236
0.471309
0.437804
0.564911
0.551505
0.489708
0.530619
0.508767
0.548718
0.613465
0.631773
0.623536
0.669013
0.586660
0.659243
0.710448
0.571278
0.653996
0.616062
0.626763
0.643592
0.564493
0.524025
0.566245
0.588070
0.514924
0.478888
0.539350
0.511932
0.514124
0.428388
0.405456
0.389191
0.357895
0.407898
0.338987
0.268535
0.294460
0.252332
0.233418
0.255984
0.163290
0.232849
0.217807
0.213682
0.158231
0.171442
0.136905
0.200235
0.193476
0.090260
0.103135
0.151072
0.029937
0.133927
0.091004
0.080553
0.133146
0.091851
0.150026
0.073714
0.067073
0.054584
0.061822
0.062794
0.182024
-0.027564
0.071166
0.123856
0.071859
0.079250
0.053182
-0.004348
0.055985
-0.008099
0.119667
0.081911
0.103328
-0.010458
0.125108
0.088114
0.032798
0.046036
0.076690
0.094136
0.054223
0.093630
0.107675
0.067704
0.130823
0.102279
0.127868
0.166146
0.106436
0.092444
0.114703
0.107173
0.111368
0.126610
0.086700
0.070890
0.125555
0.158483
0.185108
0.123549
0.153132
0.219782
0.201780
0.198107
0.199032
0.145917
0.284288
0.300564
0.305034
0.259513
0.265067
0.171966
0.157349
0.164965
0.208189
0.120331
0.237839
0.173988
0.175996
0.199338
0.202981
0.113767
0.091846
0.150149
0.045532
0.036459
0.060952
0.006045
0.099218
0.040007
-0.009912
0.011920
0.073880
0.030859
-0.023415
0.113420
0.278226
0.340220
0.648678
0.977701
1.296541
1.470677
1.449196
1.143838
0.833192
0.487114
0.089223
-0.095774
-0.171845
-0.108300
-0.026789
0.012998
0.078265
0.045807
-0.005800
0.054254
0.196157
0.174371
0.148012
0.215670
0.148327
0.106815
0.207258
0.100059
0.185322
0.296366
0.213655
0.340846
0.275431
0.316984
0.384615
0.388080
0.376526
0.443157
0.400416
0.397732
0.402604
0.436854
0.510340
0.576116
0.557233
0.441517
0.454090
0.530252
0.461306
0.530939
0.521247
0.536047
0.562359
0.548775
0.568715
0.497361
0.528559
0.467370
0.481718
0.445404
0.379054
0.341477
0.331865
0.364315
0.355190
0.230882
0.263131
0.196028
0.219787
0.231575
0.140913
0.160239
0.124499
0.154525
0.158789
0.135233
0.102575
-0.018674
0.021261
0.072157
-0.059365
0.121006
0.111970
-0.045606
0.019231
0.084192
0.015439
-0.078416
0.012491
-0.000904
-0.034790
0.063001
0.075230
-0.014389
-0.046450
-0.179488
-0.065348
0.025407
-0.063392
0.033912
-0.055012
-0.072014
-0.033182
-0.067584
-0.067760
-0.120556
-0.011199
-0.166905
-0.072121
0.006514
-0.006569
-0.038936
-0.080383
-0.065906
0.052383
-0.036517
-0.158745
0.008453
-0.070839
-0.118637
-0.080069
0.082828
-0.029450
-0.019668
-0.091567
0.010006
-0.026841
-0.005789
-0.064631
-0.015692
0.049695
0.044381
-0.054924
-0.017658
0.018074
0.040329
0.033674
-0.050971
0.076031
0.111788
0.074243
0.085245
0.263722
0.141754
0.071298
0.138334
0.097612
0.075674
0.167631
0.099988
0.206607
0.054284
0.102378
0.104682
0.017061
0.009984
0.070680
0.057836
0.061901
0.101923
0.030793
-0.027814
-0.055061
-0.048465
-0.069853
-0.106559
-0.063786
-0.114145
-0.014405
0.004740
-0.068972
-0.065861
-0.071534
0.014667
0.068133
0.124485
0.445522
0.688570
1.049887
1.374259
1.302960
1.245159
0.860001
0.556739
0.025202
-0.105317
-0.255095
-0.296417
-0.198566
-0.121451
-0.058703
-0.066402
0.019465
-0.096616
0.019089
-0.023152
0.017417
0.125862
0.068311
0.098965
0.115216
0.094225
0.070065
0.106375
0.222584
0.206361
0.294255
0.232651
0.134364
0.194337
0.179234
0.254491
0.300075
0.309146
0.388604
0.326655
0.364279
0.461349
0.433723
0.417049
0.361895
0.466161
0.492965
0.398600
0.384950
0.470049
0.544759
0.459818
0.531241
0.470540
0.425471
0.452422
0.409947
0.448996
0.364542
0.285048
0.322401
0.337154
0.236052
0.211427
0.182117
0.218121
0.185737
0.100105
0.178497
0.081620
0.106632
0.120213
0.035368
0.007709
0.042131
0.033877
0.020466
-0.056009
0.014987
-0.001071
0.018871
0.010078
-0.052067
-0.082304
-0.038685
-0.046202
-0.085768
-0.075719
0.029046
-0.137598
-0.181185
-0.052987
-0.139898
-0.078993
-0.097294
-0.061370
-0.087637
-0.096539
-0.027173
-0.028509
-0.086731
-0.093400
-0.084707
0.000814
-0.051804
-0.046052
-0.067159
-0.003631
-0.065783
-0.032380
-0.104460
-0.018165
-0.015827
-0.093993
-0.011244
-0.026943
-0.085936
-0.055618
-0.007196
-0.057303
-0.036035
-0.004858
-0.029781
-0.045477
-0.048829
-0.023695
-0.064780
-0.042962
-0.009273
-0.084539
0.007812
0.015120
0.062048
0.011098
0.071309
0.078579
0.167681
0.071630
0.098174
0.117787
0.166370
0.068914
0.117365
0.147948
0.172068
0.072041
0.115571
0.133153
0.146066
0.069228
0.039618
0.070569
0.076044
0.073607
-0.011560
-0.035955
0.017002
-0.009469
0.074772
0.020294
-0.007283
-0.049327
-0.065161
-0.048337
-0.039090
0.031840
-0.027332
-0.067754
-0.033505
-0.070968
-0.134348
-0.056302
0.090603
0.154235
0.328289
0.544097
0.956300
1.328667
1.346962
1.363188
1.057350
0.661480
0.248766
0.037225
-0.175410
-0.242102
-0.222429
-0.139201
-0.024402
-0.016567
-0.043455
0.008520
0.047186
0.069588
0.021759
0.193586
0.061887
0.090272
0.136384
0.148253
0.154533
0.152881
0.198472
0.132322
0.202561
0.283566
0.269180
0.316810
0.264312
0.290907
0.357490
0.386111
0.371358
0.450833
0.365981
0.468692
0.509183
0.493556
0.474177
0.451911
0.534603
0.514107
0.526191
0.571732
0.505160
0.594338
0.518106
0.497147
0.465845
0.482364
0.368576
0.497635
0.457846
0.352596
0.396601
0.323197
0.345946
0.205323
0.387532
0.264688
0.262896
0.299954
0.213654
0.242129
0.185929
0.173418
0.161670
0.036917
0.109932
0.164758
0.139186
0.058841
0.033736
0.022315
0.046937
0.058449
0.029111
0.030890
-0.014939
0.013404
0.025503
0.064465
-0.017277
0.015299
0.013171
0.029418
0.036345
-0.012457
0.023528
0.087964
-0.099889
0.019201
-0.020427
0.044804
-0.025540
0.017601
0.066602
0.039278
-0.025950
0.040264
-0.066928
0.115925
0.046035
0.122883
0.018899
0.064739
0.045948
0.031524
-0.029755
0.007826
0.039759
0.063695
0.004530
0.116434
-0.012862
0.033376
-0.044600
0.091128
0.037247
0.055770
0.102928
0.036143
0.035753
0.037595
0.159056
0.191318
0.063952
0.207982
0.157872
0.111862
0.140404
0.153098
0.168880
0.169444
0.170431
0.076797
0.160916
0.238615
0.218842
0.178312
0.155879
0.227183
0.214541
0.198325
0.239113
0.180094
0.102579
0.152607
0.096902
0.081784
0.183660
0.103197
0.040015
-0.013031
0.095091
0.040683
0.166055
0.121914
0.100203
0.025670
0.124144
0.070790
0.106917
0.093287
0.071123
0.003576
0.042465
0.073806
0.339134
0.581046
0.998216
1.225708
1.404613
1.480794
1.221424
1.005183
0.498234
0.112462
-0.065284
-0.051741
-0.002928
-0.038849
-0.037232
0.009601
0.063324
0.109438
0.114048
0.151224
0.133510
0.065537
0.152270
0.169371
0.115823
0.196103
0.249467
0.365429
0.304944
0.313331
0.292643
0.329338
0.457393
0.292252
0.422668
0.456501
0.376864
0.542114
0.430869
0.536257
0.529568
0.503886
0.525062
0.650174
0.601485
0.632416
0.568740
0.597228
0.617868
0.572528
0.599550
0.546162
0.579084
0.566709
0.575120
0.595823
0.478845
0.491909
0.506281
0.460432
0.510427
0.376281
0.320116
0.431228
0.363497
0.334056
0.276991
0.207863
0.261834
0.297701
0.288263
0.223325
0.195974
0.140956
0.159050
0.170793
0.121626
0.124998
0.173640
0.185158
0.101743
0.102737
0.096216
0.007145
0.141297
0.014176
-0.011415
0.025779
0.042474
0.052313
0.023564
0.029110
0.043015
0.050282
0.085310
0.163658
0.030805
0.142795
0.094039
0.000323
0.093797
0.033676
-0.016851
0.050334
0.010843
0.087876
0.095801
0.015256
0.098310
0.052582
0.041761
-0.000929
0.088856
-0.056813
0.070539
-0.016051
-0.018388
0.038067
0.037439
0.074735
0.034301
0.060665
0.010580
0.097146
-0.117149
0.028492
0.115077
-0.023599
0.124286
0.091775
0.153656
0.051955
0.105371
0.127059
0.148574
0.154298
0.218179
0.231156
0.185187
0.234350
0.217358
0.279639
0.197434
0.145635
0.302955
0.245393
0.201028
0.228508
0.201961
0.187695
0.238533
0.112541
0.107206
0.145548
0.118711
0.135913
0.177999
0.181447
0.052094
0.059421
0.010299
0.176054
0.020241
0.001921
0.037512
0.017107
0.051345
-0.004589
0.010357
0.100648
0.035459
0.042832
0.013692
0.034122
0.239988
0.341677
0.839610
1.073530
1.304070
1.458735
1.354648
1.075346
0.702473
0.339773
0.070768
-0.228844
-0.174370
-0.032155
-0.082283
0.046190
0.049838
0.062462
0.033424
0.099111
0.089190
0.019089
0.044039
0.180303
0.089496
0.204237
0.181197
0.176122
0.222712
0.220684
0.205899
0.302537
0.286965
0.308308
0.348741
0.317535
0.410122
0.417942
0.447581
0.411590
0.380192
0.475264
0.616829
0.504246
0.500529
0.509244
0.548916
0.547116
0.618406
0.594868
0.477189
0.489438
0.604158
0.460304
0.505598
0.425553
0.405914
0.409111
0.458714
0.420264
0.408472
0.389674
0.263463
0.379030
0.283210
0.251090
0.259049
0.241303
0.174044
0.092827
0.168356
0.156297
0.062999
0.112167
0.019886
-0.008798
0.071491
0.034580
-0.052732
0.032959
0.002552
-0.028878
0.062945
-0.027965
0.016128
0.014021
-0.005312
-0.047936
-0.016090
0.001474
0.032627
-0.040834
-0.030122
-0.100274
-0.050302
-0.039118
0.004900
-0.070113
-0.105359
0.042209
-0.054710
0.007406
-0.010396
-0.095564
-0.020807
-0.098500
-0.058516
-0.003793
-0.063663
-0.060767
-0.109286
-0.107446
-0.053041
-0.073003
-0.028561
0.015110
-0.013189
-0.074863
-0.072765
-0.039178
0.054317
-0.065554
-0.105082
-0.016748
0.006250
-0.007489
0.007478
-0.031062
0.031673
-0.059727
-0.005248
0.002374
0.020915
0.003215
0.085720
0.016151
0.101440
0.065321
0.125127
0.015364
0.114635
0.117560
0.107295
0.090739
0.145324
0.137481
0.126820
0.010628
0.067107
0.130048
0.099632
0.020279
0.052083
0.071084
-0.002267
0.003361
-0.067871
-0.030085
0.023420
-0.047851
-0.019301
0.013633
-0.051279
0.036930
-0.135206
-0.079953
-0.119051
-0.140693
-0.070558
-0.014126
-0.110383
-0.149825
-0.118087
-0.106465
0.108053
0.237631
0.451093
0.879940
1.214068
1.262594
1.339873
1.134324
0.692434
0.314685
0.020998
-0.216212
-0.266124
-0.203898
-0.205126
-0.148698
-0.161206
-0.077463
-0.099814
0.034841
0.007068
-0.026732
-0.061134
-0.049269
0.049041
0.082841
0.087953
0.086109
0.162787
0.214269
0.211258
0.190899
0.241521
0.215525
0.165510
0.265855
0.274069
0.305959
0.272859
0.380802
0.355391
0.439029
0.350402
0.459996
0.433598
0.409981
0.415394
0.476585
0.524327
0.454173
0.328888
0.445200
0.448927
0.336828
0.407440
0.415208
0.401390
0.389650
0.388212
0.414099
0.312321
0.376616
0.211106
0.243313
0.238677
0.257118
0.195253
0.243584
0.195761
0.127412
0.060676
0.128113
0.015679
0.104128
0.055784
0.146484
-0.056273
-0.001720
-0.034907
-0.051442
-0.056029
-0.054360
-0.056751
0.002714
-0.063021
-0.051518
-0.049208
-0.109565
-0.073389
-0.019337
-0.149163
-0.045925
-0.115023
-0.099435
-0.098511
-0.174901
-0.053053
-0.097237
-0.069778
-0.169271
-0.167814
-0.104997
-0.101250
0.018679
-0.191803
-0.065620
-0.101834
-0.111549
-0.101532
-0.057577
-0.147177
-0.140336
-0.110051
-0.070608
0.022564
-0.161549
-0.173305
-0.148142
-0.154028
-0.169014
-0.121812
-0.181554
-0.125871
-0.163487
-0.000404
-0.090158
-0.073407
-0.107377
-0.053858
0.002667
-0.023385
-0.022538
-0.038529
-0.046266
-0.002256
-0.005237
0.013163
-0.005003
0.071421
0.101799
-0.081501
0.083790
0.016879
0.061011
0.152775
0.050836
0.016893
-0.010318
-0.000290
0.107028
0.067599
-0.009780
0.143013
0.026944
0.029873
-0.075926
0.107712
-0.043235
-0.010130
-0.130037
-0.056211
-0.026498
-0.037832
-0.056829
0.000529
-0.074604
-0.068173
-0.098871
-0.057602
-0.113835
-0.175735
-0.079702
-0.129255
-0.011981
-0.038906
0.203265
0.418510
0.647279
1.048285
1.286740
1.359293
1.353597
0.899169
0.501041
0.108673
-0.127751
-0.279854
-0.319367
-0.309584
-0.124021
-0.116637
-0.125753
-0.029229
-0.049857
0.027399
-0.043054
-0.022869
0.057213
0.045921
0.032710
0.061612
0.101167
0.150846
0.148498
0.084276
0.188581
0.210370
0.163303
0.193970
0.290121
0.300342
0.347892
0.312355
0.388352
0.393525
0.481112
0.515829
0.357944
0.451433
0.431567
0.493419
0.392684
0.458652
0.496958
0.481227
0.411100
0.448313
0.535888
0.501558
0.385261
0.419383
0.449752
0.463031
0.383848
0.460323
0.277286
0.267394
0.330093
0.345989
0.257363
0.243031
0.167787
0.158704
0.247092
0.219549
0.142868
0.212081
0.100197
0.098404
0.090358
0.069483
0.062206
0.049866
0.098616
-0.013358
0.035340
0.061213
0.085567
0.037089
-0.038688
-0.016068
0.018187
-0.057067
-0.040657
-0.125439
-0.047947
0.032683
-0.036387
-0.048449
-0.020050
-0.057397
-0.007504
-0.098967
-0.029331
0.019691
-0.019507
-0.029642
-0.005715
-0.031066
-0.150006
-0.004915
-0.090278
-0.078323
-0.052047
-0.071261
-0.091750
0.052077
-0.011193
-0.130247
-0.022845
-0.056840
0.008899
-0.065597
-0.094443
-0.057544
0.001259
0.110147
0.006336
0.032637
0.045945
-0.006001
0.067551
0.023149
0.004332
0.021816
0.069833
0.070094
0.114290
0.126310
-0.028380
0.047661
0.139590
0.123409
0.046482
0.162856
0.094732
0.244943
0.186324
0.162936
0.177230
0.217372
0.176484
0.246562
0.133613
0.142695
0.242662
0.189745
0.035856
0.143348
0.109015
0.102886
0.098611
0.089333
-0.026659
0.098838
0.000348
0.100391
0.105146
0.022234
0.016898
0.025868
0.020880
0.043752
-0.008673
-0.002966
0.001013
0.000587
0.058613
0.086630
0.110806
0.317852
0.650791
1.083999
1.392355
1.447754
1.353574
1.151971
0.722714
0.418748
0.151520
-0.076306
-0.150477
-0.169008
-0.048401
0.033450
-0.018321
0.060273
0.070584
0.097099
0.040250
0.154977
0.128724
0.086146
0.177740
0.238774
0.232502
0.136646
0.251796
0.197189
0.166573
0.225616
0.278500
0.391040
0.352996
0.375827
0.460335
0.382901
0.437316
0.435450
0.522594
0.527748
0.586239
0.494739
0.657387
0.596223
0.511542
0.585736
0.572040
0.643744
0.583507
0.546788
0.641879
0.575872
0.530815
0.577007
0.590725
0.621879
0.546552
0.454028
0.477599
0.511294
0.362061
0.331725
0.366869
0.385423
0.354245
0.368277
0.340465
0.204283
0.292292
0.261116
0.233005
0.175994
0.107033
0.179798
0.188270
0.138994
0.151658
0.108470
0.127375
0.158006
0.058814
0.040816
0.075843
0.117377
0.080863
0.095997
0.108080
0.090788
0.083084
0.161092
0.198907
0.071331
0.072080
0.040288
0.006230
0.113712
0.091606
0.080502
0.022172
0.110147
0.051870
0.089925
-0.003974
0.025558
0.094309
0.126315
0.092690
0.054284
0.044952
0.021305
0.067990
0.170166
0.123503
0.054626
0.049083
0.100390
0.170361
0.102054
0.025078
0.075801
0.083371
0.027397
0.101787
0.177216
0.045142
0.137794
0.064058
0.151912
0.164801
0.110467
0.243352
0.300242
0.207613
0.193873
0.240729
0.288143
0.227069
0.169897
0.245841
0.262501
0.236572
0.247819
0.205004
0.234589
0.306649
0.210247
0.313125
0.163186
0.238781
0.148929
0.270008
0.157563
0.201093
0.179002
0.046378
0.200783
0.205053
0.173235
0.083100
0.142565
0.108167
0.074429
0.132861
0.063222
0.161926
0.074660
