0.019949
0.042372
-0.006421
0.034097
0.110148
0.011408
0.052031
0.046369
0.039008
-0.062014
0.002000
0.004314
0.039985
-0.026424
0.055503
0.073758
0.062753
0.064198
0.048608
0.144784
0.070723
0.024025
0.071185
0.114432
0.085168
0.194964
0.140206
0.051465
0.083253
0.059712
0.199424
0.204701
0.172701
0.156691
0.216592
0.230908
0.220382
0.238259
0.272627
0.228305
0.186702
0.179174
0.214935
0.182752
0.134581
0.170432
0.148802
0.124099
0.113012
0.088170
0.075670
0.107259
0.152017
0.086754
0.058361
0.031449
0.008997
0.113537
0.079402
-0.007430
-0.001752
0.019768
-0.003797
0.088811
0.124112
0.035446
0.083945
0.014935
0.102907
-0.064190
0.140074
0.248700
0.418302
0.751492
1.063777
1.339995
1.436954
1.352982
1.063100
0.755104
0.323092
0.081705
-0.030319
-0.147354
-0.128203
-0.026518
-0.003234
0.113515
0.147439
0.103947
-0.034538
0.204232
0.069592
0.155904
0.236780
0.086794
0.122934
0.193886
0.196369
0.160727
0.194814
0.233328
0.215953
0.221177
0.279428
0.279623
0.303134
0.352937
0.470636
0.382911
0.452831
0.376963
0.501620
0.447517
0.484965
0.541807
0.530570
0.541353
0.498822
0.555339
0.562662
0.703004
0.620941
0.627514
0.644124
0.629530
0.615812
0.570527
0.604294
0.524168
0.534646
0.564950
0.571730
0.540910
0.440309
0.455970
0.405820
0.474525
0.392060
0.348083
0.380685
0.250316
0.304057
0.264625
0.287933
0.269321
0.250581
0.209860
0.250208
0.220270
0.213869
0.083613
0.113255
0.180987
0.166185
0.143606
0.133903
0.043711
0.035513
0.107742
0.167445
0.136371
0.099967
0.163654
0.080176
0.131256
-0.018179
0.073529
0.050775
0.027694
0.041989
0.171745
0.089869
-0.066517
0.041690
0.160520
0.144743
0.010814
0.063770
0.070762
0.053751
0.188172
0.084498
0.066953
0.029459
0.123994
0.053322
0.117234
0.074624
0.099014
0.125267
0.148286
0.028891
0.050592
0.076891
0.093119
0.063445
0.057107
0.173884
0.021915
0.061390
0.142159
0.152143
0.007939
0.078324
0.074038
0.186383
0.109811
0.083644
0.166311
0.144770
0.149103
0.150576
0.182878
0.165959
0.249185
0.153808
0.138409
0.174020
0.240156
0.187698
0.288890
0.206300
0.196380
0.263747
0.249578
0.134973
0.251684
0.273845
0.265455
0.229402
0.228890
0.242244
0.271830
0.324628
0.237032
0.179650
0.195618
0.242193
0.167342
0.186380
0.180829
0.186476
0.107010
0.185762
0.134268
0.129986
0.065801
0.103379
0.110798
0.167874
0.121972
0.171733
0.068814
0.060514
0.109329
0.041589
0.093462
-0.042575
0.079984
0.138434
0.280605
0.571391
0.804702
1.130771
1.416508
1.500000
1.364711
1.104175
0.720171
0.373827
0.113189
-0.066150
-0.087189
-0.063801
-0.040867
0.042061
0.057957
0.098363
0.127870
0.144042
0.048206
0.068364
0.165109
0.214601
0.161571
0.109673
0.160192
0.236494
0.106090
0.170685
0.233519
0.250482
0.310911
0.246237
0.347515
0.409556
0.357396
0.432860
0.480329
0.457679
0.419569
0.490238
0.523389
0.514920
0.535918
0.501258
0.510277
0.519405
0.538028
0.510397
0.558154
0.498071
0.579570
0.511895
0.547884
0.645233
0.512013
0.567456
0.588777
0.543270
0.477317
0.414525
0.451393
0.461353
0.357117
0.400943
0.338737
0.317958
0.338637
0.388644
0.287355
0.312605
0.328381
0.231186
0.193005
0.166675
0.213461
0.210022
0.070074
0.157747
0.105694
0.166573
0.101068
0.111912
0.115620
0.048597
0.117425
0.151325
0.087453
0.082276
0.066100
0.099436
0.052998
0.114609
0.062920
0.087807
0.016748
0.040333
0.001129
0.033860
0.074047
0.051800
-0.009491
0.081426
0.141333
0.047790
-0.041961
-0.023876
0.004379
0.071259
0.021196
-0.067594
0.058841
0.003546
0.052026
-0.067707
0.068057
0.106783
-0.034270
-0.031288
0.017723
0.006148
0.062503
0.018801
0.023914
0.049099
-0.014069
-0.043231
0.037580
-0.029688
-0.018028
0.029720
0.074920
0.078727
-0.019781
0.076803
0.042731
0.006914
0.097061
-0.028279
-0.066190
-0.018733
0.030212
0.047483
0.185122
0.115841
0.077861
0.038220
0.058669
0.242571
0.135035
0.172088
0.176637
0.162407
0.152766
0.152446
0.163637
0.112302
0.148617
0.188127
0.193448
0.129788
0.149508
0.172536
0.099965
0.064798
0.122700
0.077172
0.122958
0.107734
0.074981
0.123530
0.059131
0.104591
0.062982
-0.001791
-0.038830
0.052517
0.047528
-0.083584
-0.035063
0.012561
-0.007874
0.014428
-0.034456
-0.007528
-0.015887
0.027317
-0.073198
0.134593
0.263827
0.466178
0.789276
1.025873
1.364740
1.422617
1.253230
0.979486
0.508393
0.117505
-0.024265
-0.240131
-0.268830
-0.134176
-0.157814
-0.100884
-0.014342
-0.009453
0.015220
-0.054018
0.072272
0.055419
-0.004461
0.070046
0.074488
0.098720
0.095104
0.151463
0.131122
0.133562
0.112934
0.113410
0.211604
0.227287
0.192956
0.311240
0.266822
0.280591
0.352022
0.274341
0.403501
0.295420
0.448695
0.412050
0.434578
0.421269
0.476498
0.518792
0.384600
0.527731
0.446825
0.511512
0.470647
0.521429
0.449315
0.496019
0.523665
0.523561
0.417584
0.386385
0.430289
0.395165
0.415105
0.513835
0.256358
0.242110
0.374887
0.272266
0.221156
0.225461
0.289412
0.204382
0.116696
0.171056
0.036411
0.157493
0.129845
0.161129
0.169556
0.031460
0.018447
0.084925
-0.024418
-0.012651
-0.005862
0.055615
-0.004621
0.075543
-0.005402
-0.004603
-0.115258
0.002445
0.011858
0.011851
0.023665
-0.017174
-0.071396
-0.049676
0.019418
-0.021846
-0.036854
-0.074685
-0.042099
-0.074573
-0.072679
-0.024289
-0.032224
0.005252
-0.095943
-0.032794
-0.063140
-0.063776
-0.086018
0.003090
-0.038680
-0.122859
-0.011892
-0.150050
-0.084441
-0.030439
-0.030038
-0.147164
0.011693
0.016220
0.041472
-0.054376
-0.066498
0.028537
-0.033164
-0.062537
-0.092935
-0.029636
-0.072844
-0.018792
-0.043794
-0.039877
-0.051642
-0.076914
0.006274
0.026713
-0.004538
-0.027585
0.042621
-0.020513
0.056991
0.040840
0.087349
0.062789
0.098716
0.066895
0.141236
0.061820
0.127690
0.103130
0.148904
0.167737
0.090698
0.102407
0.172776
0.032348
0.042031
0.151803
0.126570
0.100971
0.154843
0.005274
0.041934
0.084457
-0.029247
0.102711
0.043645
0.048748
0.071407
0.040332
-0.063880
0.014546
0.030837
-0.004765
-0.003035
0.007335
0.025960
0.022853
0.060377
-0.008079
0.004177
-0.059344
-0.020434
-0.018801
-0.005278
0.084882
0.201198
0.456796
0.798830
1.096742
1.306915
1.350311
1.200257
0.881698
0.535927
0.164732
-0.103675
-0.307234
-0.305839
-0.249016
-0.141244
-0.109303
-0.033093
-0.008072
-0.049487
0.084652
-0.022263
0.110959
-0.002426
0.097358
0.077621
0.101157
0.128642
0.122528
0.104684
0.153353
0.166487
0.222563
0.273586
0.212056
0.344845
0.231711
0.230962
0.255329
0.353336
0.461756
0.360026
0.329894
0.368380
0.452689
0.473588
0.452784
0.430078
0.511015
0.518658
0.507283
0.550291
0.574467
0.615144
0.516313
0.563925
0.459453
0.434722
0.482409
0.460142
0.443745
0.484549
0.480272
0.322685
0.336359
0.392662
0.392050
0.342269
0.282264
0.305479
0.290497
0.317693
0.309520
0.224944
0.181094
0.120072
0.083732
0.134094
0.157122
0.183445
0.178060
0.163602
0.073011
0.131989
0.066641
0.096927
0.071861
0.075527
0.095147
0.110480
0.064802
0.045009
0.092496
0.022206
-0.020766
0.021776
0.056441
0.006636
-0.011771
0.080075
0.081606
0.060546
0.044837
-0.021381
0.084520
0.089806
-0.027788
0.058986
0.014702
0.026639
0.047809
-0.001868
-0.020221
0.032083
0.089393
0.026554
0.046093
0.001486
0.027224
0.041436
0.045751
0.007775
0.068621
0.076249
0.020404
0.025712
-0.006481
0.071487
0.073465
0.044361
0.060625
0.062913
-0.042955
0.060291
0.009304
0.022773
0.069952
0.082211
0.109949
0.090529
0.045087
0.073143
0.067167
0.077105
0.150332
0.130243
0.151354
0.135749
0.114843
0.131872
0.187105
0.111673
0.164963
0.169368
0.277885
0.240701
0.226700
0.219406
0.353928
0.188315
0.151320
0.204344
0.243094
0.166718
0.118131
0.200478
0.191973
0.185509
0.158140
0.176758
0.032669
0.172109
0.178743
0.064365
0.022398
0.170646
0.081511
0.064942
0.019582
0.103129
0.082779
0.138361
0.088402
0.064317
0.000465
0.052935
0.040811
0.052124
-0.010379
0.143366
0.242938
0.413804
0.647935
0.964136
1.195164
1.447128
1.407440
1.255346
0.923235
0.554321
0.163816
-0.040408
-0.071765
-0.142799
-0.161875
0.004448
0.025967
0.039085
0.125630
0.093778
0.168529
0.196732
0.107244
0.264550
0.099322
0.192008
0.216654
0.158279
0.280291
0.248338
0.335241
0.267384
0.232551
0.247393
0.317974
0.315929
0.342589
0.304115
0.401237
0.377724
0.487880
0.453263
0.519249
0.452797
0.520875
0.476190
0.518625
0.478706
0.583183
0.572260
0.524475
0.544996
0.564416
0.632098
0.632076
0.614867
0.633996
0.561168
0.552899
0.604258
0.463894
0.532135
0.511295
0.540879
0.494422
0.493630
0.443261
0.458807
0.443142
0.395664
0.364607
0.373306
0.339482
0.291593
0.313542
0.258757
0.219037
0.289967
0.262576
0.223152
0.167889
0.237335
0.163780
0.121165
0.094285
0.121406
0.109983
0.154985
0.155415
0.104377
0.115384
0.150070
0.073222
0.062011
0.036678
0.055550
0.097876
0.085937
0.084826
0.156178
-0.000959
0.142794
0.054486
0.127336
0.037829
0.079978
0.080301
0.117181
0.103188
0.070439
0.101944
0.102057
0.092569
0.104877
0.126047
0.129893
0.051337
0.114725
0.188856
0.068693
0.086214
0.071656
0.032850
0.065119
0.124355
0.106689
0.068259
0.100980
0.084116
0.165203
0.152218
0.041941
0.006843
0.100486
0.049877
0.131525
0.119042
0.152977
0.153475
0.177034
0.035753
0.169429
0.158472
0.111376
0.133325
0.127142
0.158068
0.192256
0.200818
0.235642
0.221519
0.213283
0.180126
0.215301
0.281146
0.253155
0.306448
0.259008
0.320895
0.224168
0.280295
0.187984
0.251016
0.131056
0.219162
0.219598
0.236421
0.208729
0.180436
0.228567
0.194198
0.138069
0.155123
0.141068
0.190640
0.174672
0.089198
0.119378
0.101955
0.085953
0.097376
0.131625
0.044173
0.050948
0.050240
0.092100
0.105742
0.062478
0.037372
0.142222
0.197896
0.476897
0.637372
0.996429
1.300937
1.496894
1.467562
1.235182
0.937660
0.538617
0.233951
-0.031288
-0.162490
-0.208435
-0.103438
-0.049809
0.065036
0.158311
0.046018
0.187702
0.119411
0.093233
0.191849
0.132734
0.206741
0.123541
0.166944
0.186344
0.242227
0.222135
0.169933
0.257455
0.289086
0.331235
0.330522
0.302027
0.401058
0.324316
0.345932
0.371138
0.357086
0.377632
0.451084
0.495383
0.497644
0.465540
0.435916
0.576955
0.471517
0.511866
0.585239
0.562106
0.581913
0.554446
0.572027
0.636510
0.540855
0.497235
0.528202
0.531362
0.494914
0.475380
0.436152
0.484809
0.396676
0.500787
0.387496
0.333352
0.455489
0.300990
0.232873
0.258858
0.262837
0.186852
0.166404
0.277934
0.172029
0.118873
0.056412
0.212006
0.180732
0.060669
0.101115
0.138793
0.074934
0.126783
0.112923
0.101916
0.051937
0.122152
0.013387
0.012071
0.007525
0.021348
0.015894
0.098570
0.118625
0.083682
0.027146
0.012069
-0.072816
0.040703
0.036785
0.036892
0.044318
-0.030096
0.103344
0.058234
-0.100737
0.016897
-0.037746
0.019510
0.055262
0.013445
0.006489
-0.068082
0.002998
0.068093
-0.035552
-0.017260
0.068580
-0.014820
-0.047310
-0.030122
-0.045842
-0.002888
0.010530
-0.032152
-0.068844
0.000016
-0.062487
0.062284
0.019098
-0.021519
0.033044
-0.009220
0.051064
-0.042618
-0.024026
0.025040
0.057254
0.059677
0.149031
-0.029470
0.061805
0.106079
0.100219
0.093865
0.141596
0.091279
0.126596
0.080626
0.136832
0.174557
0.160738
0.164463
0.158707
0.214754
0.082344
0.057256
0.175157
0.177974
0.132864
0.119063
0.073114
0.124730
0.088397
0.073781
0.077632
0.095175
0.054390
0.022564
-0.004736
0.021127
0.080734
-0.008651
-0.010991
-0.014036
-0.047255
-0.004294
-0.018765
-0.067336
-0.025615
-0.050455
-0.113062
-0.059978
0.006927
-0.045278
-0.070196
-0.085138
0.061015
0.291071
0.519738
0.922426
1.223918
1.291301
1.188573
1.024865
0.715531
0.339070
0.029484
-0.234101
-0.307593
-0.315404
-0.237556
-0.142737
-0.105971
-0.013043
0.005942
0.045549
0.033225
-0.015278
-0.008645
-0.057888
0.020140
-0.001823
0.065131
0.075511
0.073973
0.126699
0.095204
0.128072
0.123729
0.135212
0.225741
0.211442
0.305565
0.145112
0.281307
0.263429
0.355033
0.307687
0.327236
0.424957
0.370054
0.331340
0.418934
0.448004
0.450399
0.486301
0.492899
0.403602
0.428699
0.466590
0.434090
0.455740
0.442472
0.542421
0.467630
0.392919
0.343585
0.369069
0.380439
0.250169
0.316690
0.240464
0.336973
0.212043
0.229459
0.384068
0.225843
0.182860
0.202280
0.110350
0.080330
0.157752
0.159418
0.092212
0.058392
0.079706
-0.002339
0.048110
-0.011301
0.000729
-0.062308
-0.029469
-0.017615
-0.034861
-0.049090
-0.077672
-0.026161
-0.010963
-0.114484
-0.113840
-0.135276
-0.030422
-0.064460
-0.135336
-0.116269
-0.005362
-0.068967
0.001940
-0.026302
-0.098585
-0.132141
-0.040023
-0.065354
-0.121484
-0.189496
-0.033955
-0.072886
-0.034129
-0.095022
-0.057089
-0.061126
-0.040616
-0.151280
-0.057025
-0.090084
-0.070282
-0.082529
-0.142847
-0.144308
-0.043337
-0.118799
-0.032353
-0.041508
-0.066784
-0.022009
0.016128
-0.038011
-0.092890
-0.088525
-0.034954
-0.064593
0.016512
-0.025198
-0.089495
0.042541
-0.064056
-0.010166
-0.033820
-0.003728
-0.009135
-0.085440
0.015430
0.056711
0.016249
0.058326
-0.033520
0.042680
0.015416
0.109801
0.115406
0.070245
0.111659
0.073746
0.077784
0.127671
0.123973
0.080434
-0.011848
0.077550
0.087048
0.037071
0.073106
0.048053
0.073721
-0.014382
-0.037366
-0.048605
0.058125
-0.092031
-0.016794
-0.035828
-0.130986
-0.072534
-0.033462
-0.093889
-0.029553
-0.027855
0.003899
-0.051152
-0.071070
-0.085011
-0.076302
-0.092908
-0.158844
-0.075595
-0.109184
-0.001520
0.327881
0.630137
0.927182
1.184833
1.209874
1.216845
0.872669
0.643763
0.280875
-0.011229
-0.180405
-0.271670
-0.270343
-0.233753
-0.173251
-0.098460
-0.102951
-0.053584
-0.061630
0.023635
-0.080064
-0.010466
0.046228
-0.015824
0.060248
0.034918
0.084882
0.104800
0.006550
0.107739
0.121313
0.044571
0.148458
0.110756
0.160633
0.294434
0.254905
0.283103
0.323268
0.317991
0.420336
0.312888
0.392884
0.388104
0.322698
0.383575
0.353863
0.366363
0.448207
0.448147
0.496311
0.457932
0.449923
0.456772
0.466475
0.433565
0.393782
0.442895
0.410767
0.420495
0.408622
0.402620
0.385315
0.399256
0.314452
0.309354
0.344234
0.250889
0.312937
0.204489
0.236155
0.243825
0.168236
0.103493
0.144729
0.118371
0.102496
0.050607
0.110774
0.078799
0.109358
-0.006924
-0.015056
0.032770
-0.006323
-0.027292
-0.020999
-0.016413
0.000500
-0.092689
0.038233
-0.005636
0.012993
-0.110088
-0.043608
-0.060555
-0.000345
-0.029535
-0.032835
-0.060782
0.012626
0.044534
-0.004933
0.005130
-0.062545
-0.043692
-0.091718
-0.105249
-0.016989
0.023364
-0.054154
-0.000694
-0.081771
-0.079142
-0.090204
0.012020
0.024358
-0.072240
0.015027
-0.012532
-0.083253
0.016451
-0.091324
0.069331
-0.015311
0.085716
-0.010231
-0.024623
-0.060852
0.011478
0.058093
0.046089
0.071150
0.001532
0.038695
0.048558
-0.039092
0.077305
0.078784
0.030609
-0.007579
0.038123
0.013143
0.007492
0.083164
0.076843
0.079930
0.090620
0.141078
0.080169
0.110384
0.084897
0.139983
0.214199
0.118998
0.265333
0.207848
0.153236
0.149077
0.137411
0.132332
0.120711
0.190458
0.120067
0.111929
0.192880
0.152749
0.045931
-0.016165
0.102620
0.069417
0.100161
0.038912
0.012246
0.115697
0.049365
0.082570
0.076442
0.008796
0.086285
0.079526
0.096144
0.078218
-0.006207
0.088157
-0.018305
-0.001798
0.022575
0.094387
0.155600
0.466601
0.695608
1.095288
1.256075
1.431883
1.424064
1.060074
0.741846
0.307839
-0.004272
-0.149260
-0.215974
-0.265374
-0.094599
0.018247
0.125692
0.066688
0.022315
0.013821
0.175016
0.046012
0.091000
0.100467
0.181791
0.099417
0.164826
0.172811
0.143995
0.183170
0.110151
0.228950
0.246881
0.231924
0.318442
0.358262
0.284145
0.282560
0.361035
0.391627
0.375773
0.405793
0.438659
0.454536
0.501737
0.437804
0.556401
0.527177
0.552226
0.556355
0.569422
0.539448
0.601415
0.539169
0.519754
0.477970
0.574674
0.570221
0.561182
0.467167
0.477555
0.436143
0.448735
0.400884
0.397150
0.413146
0.417274
0.397756
0.437954
0.302754
0.338895
0.296019
0.311538
0.164614
0.254042
0.241764
0.210863
0.247131
0.038884
0.214418
0.142697
0.159139
0.113025
0.084136
0.089047
0.044475
0.122047
0.094739
0.064478
0.128974
0.109072
-0.009559
0.098244
0.116182
0.019448
0.028068
0.007333
0.015282
0.004886
0.006266
0.055205
0.096997
0.034592
-0.018615
0.071528
0.242830
0.041827
0.053428
0.050591
0.106698
-0.003487
-0.003447
0.092563
0.019021
0.032259
0.064947
-0.003242
-0.001581
0.033192
0.071514
0.060382
0.082555
0.090170
-0.022320
0.069234
0.025331
0.050018
0.089732
0.072255
0.032680
0.042378
-0.012647
0.114247
0.050386
0.068731
0.068134
-0.000833
0.058174
0.088509
0.104987
0.107474
0.005113
0.121337
0.036263
0.149086
0.134872
0.124834
0.209153
0.202944
0.208113
0.091661
0.184624
0.142332
0.235280
0.163175
0.218343
0.205950
0.216135
0.240483
0.213558
0.207850
0.153532
0.247704
0.183348
0.121465
0.211343
0.187965
0.152758
0.143177
0.097440
0.104452
0.174859
0.086931
0.156582
0.071175
0.084516
0.020741
0.012131
0.000513
0.031220
0.033806
0.047882
0.053226
0.033476
0.058597
-0.029746
0.059395
0.006231
0.042232
0.165072
0.304375
0.490173
0.761128
1.092276
1.288248
1.438645
1.280873
1.085497
0.658792
0.240788
0.032316
-0.195850
-0.172571
-0.212878
-0.135289
-0.048127
-0.017607
0.019712
-0.009297
0.029527
0.002359
0.011485
0.059600
0.115047
0.092311
0.143249
0.157050
0.155759
0.177047
0.196532
0.272639
0.225715
0.161147
0.236558
0.242146
0.317637
0.290724
0.335331
0.280062
0.412582
0.403696
0.399602
0.412767
0.413632
0.451060
0.424193
0.414242
0.526586
0.492033
0.443599
0.563257
0.469580
0.543819
0.560260
0.583943
0.488522
0.544937
0.568694
0.397627
0.461571
0.412467
0.446289
0.435521
0.337293
0.356847
0.460058
0.270953
0.311646
0.310299
0.246190
0.324091
0.249826
0.105251
0.231459
0.244896
0.173693
0.189573
0.139642
0.168636
0.077850
0.042756
0.049544
0.116616
0.055639
0.006325
-0.012689
0.060338
0.089528
0.007171
0.028371
-0.041651
-0.028765
-0.018656
-0.037737
-0.016360
0.031294
-0.067437
-0.148569
-0.109692
0.010768
-0.030075
-0.001231
0.004351
0.067250
-0.076895
-0.074776
-0.025817
-0.089289
-0.088133
-0.116765
-0.078871
0.020083
0.001406
0.045691
0.009554
-0.071812
-0.034001
0.007140
-0.036137
-0.145524
-0.026808
0.045216
-0.007998
-0.023015
-0.060146
-0.031559
-0.098184
0.007436
0.006465
-0.056750
0.038247
-0.044066
-0.050129
-0.043505
-0.048951
-0.022662
-0.002362
-0.060700
-0.012432
0.000535
0.031161
0.045039
0.009408
-0.040921
0.086568
0.107632
0.043196
0.076241
0.057134
0.052813
0.115215
0.119826
0.085478
0.144456
0.141105
0.141431
0.126034
0.083476
0.176345
0.113186
0.139728
0.184135
0.031954
0.055460
0.074589
0.095407
0.013939
0.030274
0.110833
0.027624
0.147502
0.019801
0.056665
-0.052676
0.007202
-0.099772
-0.043565
-0.016878
-0.088796
-0.087045
-0.016779
-0.122210
-0.033553
-0.056642
-0.046958
-0.145221
-0.093956
-0.134612
-0.076826
0.062336
0.162482
0.330455
0.659935
1.040488
1.275627
1.337548
1.150688
0.848502
0.548152
0.075022
-0.066921
-0.266929
-0.339786
-0.166823
-0.169915
-0.148441
-0.157480
-0.182980
-0.021751
-0.086116
-0.077054
-0.023909
-0.005753
-0.048540
-0.003994
0.022176
-0.032811
0.030140
0.074214
0.100645
0.122684
0.085171
0.232092
0.121214
0.180444
0.094987
0.205302
0.251574
0.284469
0.272612
0.343705
0.353809
0.281254
0.266144
0.305356
0.393750
0.357528
0.380748
0.417434
0.462305
0.365057
0.451906
0.378182
0.388980
0.392979
0.437661
0.368354
0.418175
0.342438
0.399455
0.396732
0.356916
0.335409
0.288300
0.254541
0.244590
0.246464
0.168725
0.219951
0.207602
0.139964
0.180876
0.106945
0.176865
0.146203
0.059310
0.041422
-0.040632
0.082274
-0.004184
0.052498
-0.010460
0.014855
-0.052581
-0.027219
-0.059596
-0.046375
0.001769
-0.045063
-0.026683
-0.057182
-0.056667
-0.097287
-0.012283
-0.126474
-0.136223
-0.036508
-0.097786
-0.066580
-0.053373
-0.162850
-0.162192
-0.063691
-0.180754
-0.075730
-0.181787
-0.085067
-0.109185
-0.065423
-0.095545
-0.065201
-0.146778
-0.077302
-0.082735
-0.158817
-0.161732
-0.093922
-0.109246
-0.076746
-0.108287
-0.149275
-0.173877
-0.143839
-0.100395
-0.137266
-0.151828
-0.070123
-0.124236
-0.159591
-0.051779
-0.181908
-0.194326
-0.155221
-0.055140
-0.133737
-0.042111
-0.040220
-0.070679
-0.047483
-0.010184
-0.047449
-0.011901
-0.119489
-0.017465
-0.031671
0.018197
0.033655
-0.011158
-0.042974
0.061240
0.061707
0.089299
0.101061
0.047370
0.098329
0.077185
0.070262
0.093711
0.107090
0.158764
0.061645
0.068769
0.062425
0.023619
0.098177
0.010925
0.048354
-0.060519
-0.020533
0.018854
-0.021250
-0.071109
-0.085355
-0.029337
-0.005319
-0.020163
-0.113416
-0.065237
-0.041541
-0.079677
-0.070822
-0.144977
-0.090085
-0.086559
-0.125058
-0.036153
-0.062778
-0.112728
-0.103883
0.034141
0.110626
0.473622
0.782118
1.109682
1.266436
1.292040
1.206797
0.761803
0.369069
0.090494
-0.113136
-0.251224
-0.357857
-0.278877
-0.215056
-0.084383
-0.039984
-0.003095
-0.075096
-0.026251
-0.002098
-0.017283
0.008688
0.027334
0.080967
0.051650
0.061425
0.086280
0.042308
0.054204
0.061734
0.098436
0.148637
0.159923
0.089517
0.133429
0.253270
0.217320
0.286272
0.320788
0.287811
0.293471
0.295682
0.334395
0.379974
0.411925
0.431602
0.453446
0.410377
0.437153
0.453578
0.517945
0.498764
0.476233
0.461999
0.401581
0.435392
0.417669
0.414388
0.403772
0.400624
0.421300
0.385141
0.378203
0.381233
0.329262
0.261370
0.215068
0.257953
0.252800
0.068784
0.148889
0.226040
0.161115
0.135100
0.136843
0.070248
0.137566
0.074714
0.073911
0.081013
0.009081
0.041272
-0.033885
0.086270
0.051080
0.067002
-0.058742
-0.059074
0.031576
-0.005550
-0.066203
-0.084338
0.014949
0.018743
-0.014242
-0.066712
0.001743
0.052441
-0.089507
-0.039743
0.040025
-0.085700
-0.029992
-0.034558
-0.036992
0.003533
0.000173
-0.063995
-0.050797
-0.047638
-0.118661
-0.094886
-0.024310
0.074026
-0.069562
0.003094
-0.002144
0.050124
0.010183
0.006878
0.005894
0.013608
0.022446
-0.052564
-0.010927
0.010572
-0.016463
0.035715
-0.029601
-0.012954
0.057091
-0.030234
0.034395
0.024158
0.021022
0.003579
0.034967
0.069899
0.137286
0.091005
0.123555
0.020465
0.055095
0.107638
0.168477
0.153939
0.071808
0.152634
0.159989
0.108004
0.154154
0.175652
0.115209
0.206025
0.250752
0.226992
0.216085
0.203204
0.229925
0.148590
0.155932
0.186926
0.257108
0.065202
0.080158
0.109604
0.180837
0.162044
0.103446
0.121919
0.090433
0.116269
0.022947
0.091745
0.072732
0.102874
0.067614
0.161815
0.070427
0.023896
-0.011075
0.025588
0.024567
0.015232
0.080028
0.034418
0.019937
0.053017
0.195274
0.314760
0.530753
0.925615
1.186402
1.433954
1.403948
1.171439
0.846611
0.470598
0.219823
-0.088153
-0.166169
-0.175754
-0.078543
0.020312
0.023218
0.047329
0.065000
0.041991
0.099766
0.098077
0.106905
0.058326
0.209586
0.123640
0.192542
0.203053
0.167414
0.172178
0.210540
0.211855
0.294424
0.214533
0.346323
0.339261
0.309220
0.301827
0.434730
0.357265
0.490076
0.480139
0.402744
0.547295
0.476885
0.506094
0.432999
0.483872
0.654645
0.551880
0.457108
0.504138
0.525710
0.638408
0.678087
0.580977
0.621726
0.593431
0.580644
0.625831
0.498451
0.547229
0.485352
0.473992
0.473259
0.445427
0.373191
0.397737
0.378355
0.432802
0.319887
0.363887
0.311824
0.303124
0.302863
0.136922
0.231474
0.252388
0.176774
0.111663
0.159531
0.089906
0.093516
0.086691
0.167962
0.088912
0.130623
0.155740
0.107764
0.107259
0.104357
0.147741
0.069921
0.131875
0.177606
0.126189
0.011525
0.150264
0.013486
0.087725
0.099945
0.170118
0.060003
0.053897
0.037914
0.095445
0.098658
0.149411
0.098058
0.017942
0.009565
0.024940
0.125225
0.075961
0.128190
0.064086
0.049160
0.050537
0.090105
0.058629
-0.013867
0.086840
0.001943
0.074472
0.077456
0.097013
0.099696
0.050350
0.017456
0.079894
0.036400
0.146256
0.064590
0.095990
0.112943
0.062677
0.143810
0.116140
0.083154
0.100372
0.210215
0.075300
0.176339
0.150570
0.226703
0.117244
0.239444
0.229015
0.201508
0.184251
0.202387
