0.017382
0.048482
0.060922
-0.023912
0.022367
-0.049707
-0.037021
0.014769
0.026174
0.054014
0.064454
0.029600
0.043014
0.074065
0.012832
-0.008853
0.036222
0.054666
0.059068
0.068465
0.102654
0.030159
0.108491
0.167946
0.118938
0.122965
0.185802
0.146439
0.155458
0.228628
0.231300
0.179867
0.185799
0.220594
0.215029
0.181715
0.198544
0.171482
0.190170
0.097110
0.165189
0.151488
0.204429
0.220939
0.155839
0.137919
0.090811
0.155020
0.056469
0.123180
0.060705
0.148695
0.131976
-0.017123
0.006639
0.035499
0.098168
0.025796
0.016496
0.086278
0.125947
0.256003
0.395347
0.767509
1.100710
1.308082
1.438968
1.253615
1.029615
0.638458
0.359618
-0.033869
-0.046472
-0.013014
-0.052142
0.008457
0.048976
0.136865
0.141112
0.170390
0.157265
0.146740
0.249639
0.186023
0.198776
0.205278
0.253356
0.224919
0.247887
0.328878
0.312684
0.352514
0.357208
0.376518
0.431604
0.413755
0.407471
0.471247
0.542935
0.497811
0.480411
0.550216
0.544079
0.583223
0.600006
0.594538
0.585966
0.559964
0.626019
0.631560
0.657992
0.579367
0.478791
0.632998
0.561927
0.590951
0.493369
0.476967
0.461800
0.490762
0.438169
0.490985
0.411711
0.409607
0.374550
0.367998
0.315445
0.417664
0.291843
0.282522
0.279334
0.217883
0.287437
0.242195
0.215259
0.176219
0.198826
0.094514
0.004864
0.003779
0.140958
0.100229
0.122262
0.123003
0.094704
0.031649
0.111127
0.108503
0.156771
0.119076
0.118057
0.042811
0.080096
0.054214
0.122291
0.113642
0.031235
0.050892
0.077418
0.009400
0.171778
0.074684
0.104906
0.144704
0.124173
0.107568
0.074865
0.025944
0.089867
0.012052
0.133285
0.057699
0.196787
0.075327
0.112263
0.087578
0.097095
0.057709
0.235300
0.065511
0.108035
0.166047
0.088623
0.076634
0.069271
0.161775
0.206689
0.186453
0.067346
0.228971
0.116400
0.310691
0.233132
0.243724
0.263659
0.339397
0.195713
0.282946
0.227570
0.217552
0.272033
0.261297
0.291349
0.198773
0.249783
0.296819
0.285118
0.251224
0.249303
0.142598
0.114248
0.197314
0.115991
0.159893
0.055734
0.154509
0.114163
0.139546
0.096294
0.048852
0.082291
0.046652
0.121415
0.158492
0.111780
0.215344
0.370388
0.576175
0.818446
1.163154
1.392114
1.433342
1.266769
1.010887
0.703199
0.321991
0.181343
0.003552
-0.085464
0.013640
0.015602
0.143051
0.147017
0.102201
0.141803
0.195385
0.104078
0.136592
0.223976
0.273396
0.213398
0.268748
0.246302
0.313024
0.451932
0.351401
0.418713
0.391527
0.400607
0.455170
0.400244
0.505654
0.508768
0.500559
0.524215
0.615729
0.626153
0.546162
0.653559
0.558887
0.628141
0.535520
0.710043
0.563466
0.627680
0.687295
0.584992
0.561514
0.526719
0.593423
0.461632
0.540633
0.454696
0.419434
0.454436
0.399801
0.414101
0.445833
0.384399
0.370045
0.387822
0.268967
0.297358
0.282072
0.225989
0.222884
0.213704
0.185350
0.137427
0.131347
0.030061
0.138018
0.097028
0.153352
0.073509
0.175658
0.036988
0.111440
0.134300
0.152090
0.051079
0.030012
-0.005763
0.074846
0.083668
0.091113
0.059437
0.080525
-0.030056
0.071796
0.108657
0.033861
0.110962
0.158420
0.071266
0.060342
0.002041
0.015641
0.060802
0.057072
0.082978
0.058491
0.075472
0.032887
0.112075
0.025768
0.000479
0.046108
0.069350
0.063547
0.049562
0.005892
0.082457
0.039762
0.075671
0.103625
0.068545
0.025153
0.032405
0.075862
0.120690
0.161430
0.195014
0.149730
0.115648
0.184063
0.126834
0.074129
0.219309
0.150394
0.157489
0.219035
0.243877
0.277731
0.192722
0.260224
0.225505
0.177416
0.162131
0.179280
0.216718
0.133723
0.169627
0.126237
0.099998
0.192335
0.096550
0.096909
0.124577
0.081722
0.091263
-0.009175
0.025727
-0.029849
0.003365
0.035900
0.027077
0.032213
0.039007
0.148682
0.124352
0.296607
0.607988
0.820967
1.235180
1.315233
1.426860
1.262558
0.859540
0.551213
0.174568
-0.054151
-0.060018
-0.136024
0.008697
-0.003501
0.040813
0.031974
0.115390
0.048404
0.105616
0.165422
0.106751
0.139649
0.221099
0.154491
0.164628
0.267380
0.227367
0.266911
0.350241
0.339836
0.326474
0.366523
0.410953
0.463968
0.459333
0.502435
0.455489
0.467636
0.534692
0.480405
0.483464
0.529104
0.458250
0.490321
0.528067
0.555261
0.562901
0.568820
0.509517
0.464730
0.412075
0.440275
0.576409
0.394014
0.370230
0.441698
0.371620
0.371849
0.325026
0.328880
0.332881
0.299515
0.271900
0.208668
0.257066
0.230248
0.138579
0.155511
0.232472
0.138472
0.107738
0.112346
0.018553
0.091690
0.092741
-0.025578
0.017318
0.076742
0.030735
0.124602
-0.017167
-0.035762
-0.002743
-0.000166
-0.025707
-0.058171
-0.006250
0.029284
0.020829
-0.001363
0.085813
0.008142
-0.103821
-0.069604
-0.063647
0.008097
0.024061
-0.038458
-0.092344
-0.045559
0.025316
-0.008231
-0.021654
-0.060818
0.024765
-0.107069
-0.071008
-0.094890
0.057712
-0.086262
-0.055223
-0.030238
0.047582
-0.027339
-0.025353
-0.014542
-0.021232
0.021706
-0.055640
-0.026398
0.026937
-0.091161
0.068415
0.096517
-0.001130
0.003541
0.109851
0.135259
0.109528
0.090659
0.040412
0.077689
0.090832
0.159320
0.166806
0.113398
0.148201
0.090041
0.181345
0.142421
0.080271
0.083329
0.062803
0.123398
-0.004020
0.046621
0.019276
-0.000177
0.107083
0.118328
0.030432
-0.024419
-0.053093
-0.004615
0.046081
-0.124761
0.036133
-0.026500
-0.072162
0.007707
-0.016166
-0.107720
0.095648
0.090255
0.245944
0.504881
0.800862
1.129751
1.284034
1.273482
1.085389
0.669616
0.420009
-0.002395
-0.164509
-0.101167
-0.110779
-0.079689
-0.033843
0.105590
0.031844
0.022954
0.065045
0.111040
0.032288
0.075573
0.136498
0.199352
0.141687
0.180701
0.184494
0.204412
0.297188
0.283837
0.296517
0.356180
0.268400
0.369177
0.339348
0.393279
0.463912
0.343204
0.447824
0.431964
0.317738
0.485758
0.493135
0.457271
0.515567
0.484764
0.472932
0.455494
0.428586
0.466904
0.417182
0.455812
0.439398
0.411795
0.354367
0.417872
0.342106
0.395661
0.337076
0.309328
0.214643
0.335159
0.281020
0.250470
0.164086
0.155580
0.193853
0.078394
0.198331
0.095958
0.084895
0.092513
0.087365
0.000681
0.053550
0.001537
0.043969
0.044034
0.026568
-0.045779
-0.033204
0.019442
0.073952
0.110332
0.042878
-0.046823
-0.016165
-0.062356
-0.019786
-0.006549
-0.000236
-0.049303
-0.085204
0.043596
-0.107225
-0.038607
-0.088537
-0.044638
-0.104355
-0.037367
0.015138
-0.076912
-0.087636
0.012464
-0.050216
-0.106786
-0.000701
0.022812
-0.055753
-0.036184
-0.046390
-0.023435
-0.033473
-0.021482
-0.019115
-0.098406
0.065230
-0.047172
-0.103997
-0.026268
0.034278
0.074326
0.103725
0.050677
0.014880
0.143558
0.158300
0.184496
0.142531
0.060706
0.187006
0.113876
0.093251
0.220387
0.192761
0.179783
0.204902
0.186494
0.191903
0.179180
0.202663
0.233914
0.157697
0.109379
0.121644
0.091230
0.075325
0.084942
0.082029
0.147090
0.103233
0.044291
0.085882
-0.009360
0.044292
-0.065737
0.011739
0.023905
0.021566
0.034598
0.021654
0.041369
0.003401
0.065552
0.186426
0.457483
0.592047
0.960286
1.161434
1.378559
1.355794
1.065759
0.664380
0.416319
0.162284
-0.116685
-0.181386
-0.046886
0.018353
-0.063564
0.098296
0.016204
0.125602
0.163927
0.150244
0.008611
0.127792
0.156042
0.108350
0.179511
0.192826
0.191778
0.264090
0.283770
0.293797
0.320518
0.370094
0.351051
0.364888
0.433083
0.433483
0.507841
0.393457
0.513501
0.422621
0.517271
0.596447
0.535863
0.480854
0.589856
0.520307
0.604515
0.565320
0.525117
0.537602
0.552190
0.546375
0.512394
0.447105
0.511703
0.501622
0.517785
0.447031
0.418477
0.330986
0.380758
0.404107
0.355818
0.295445
0.301472
0.275895
0.245824
0.182918
0.240072
0.167382
0.223236
0.171632
0.235444
0.114039
0.188746
0.150015
0.074604
0.079263
0.141529
0.057319
0.042843
0.157188
0.104340
0.037310
0.038086
0.066708
0.105836
0.017291
0.045227
0.116692
0.105681
0.108458
0.142372
-0.040900
0.066085
0.048609
0.000186
0.017441
0.031712
-0.018530
0.061511
0.049323
0.051457
0.156186
0.088010
0.073708
0.070318
0.024051
0.042629
0.042558
0.072956
0.040573
0.138228
0.145962
0.155577
0.142230
0.039528
0.150891
0.088691
0.095679
0.125677
0.114898
0.165108
0.218331
0.158405
0.141820
0.133655
0.150882
0.174512
0.357697
0.238911
0.272512
0.162711
0.322723
0.239875
0.286290
0.299306
0.359664
0.264524
0.322889
0.249083
0.226890
0.271764
0.227767
0.190932
0.273486
0.168069
0.233935
0.238232
0.142797
0.158093
0.143657
0.147119
0.158801
0.164070
0.023991
0.056850
0.074273
0.085290
0.086757
0.030763
0.142563
0.175722
0.146685
0.230619
0.482082
0.772459
1.097080
1.370941
1.500000
1.387303
1.219305
0.720683
0.470691
0.197057
0.035695
0.034788
0.066915
-0.006790
0.112640
0.094815
0.230095
0.127977
0.112679
0.144120
0.226940
0.262321
0.315852
0.318721
0.221893
0.298676
0.331094
0.327046
0.319767
0.410076
0.402793
0.478155
0.455375
0.470874
0.428108
0.455538
0.523637
0.530633
0.564147
0.610532
0.591997
0.591505
0.705323
0.622970
0.615706
0.686391
0.598098
0.646508
0.551992
0.633381
0.618792
0.469415
0.540310
0.581216
0.533745
0.533526
0.456942
0.456219
0.451623
0.457122
0.422848
0.405934
0.366871
0.367307
0.363530
0.375086
0.268860
0.314169
0.229126
0.192729
0.234629
0.194238
0.174571
0.204914
0.236581
0.113472
0.174735
0.147798
0.138283
0.177763
0.058190
0.054377
0.101240
0.081992
0.158579
0.058199
0.124054
0.100549
0.143988
0.118806
0.132608
0.058022
0.116594
0.130404
0.050473
0.091958
0.052350
0.116875
0.120402
0.098660
0.145623
0.049640
0.015348
0.018547
0.137770
0.009549
0.078028
0.112604
0.099535
0.116520
0.121390
0.085732
0.018618
0.099939
0.047770
0.177325
-0.027284
0.118065
0.069985
0.083151
0.087613
0.139308
0.179842
0.195722
0.202585
0.187645
0.140939
0.192887
0.282548
0.266496
0.218355
0.251671
0.323575
0.254232
0.264541
0.292932
0.293759
0.237605
0.318380
0.337050
0.279848
0.197467
0.169150
0.283902
0.264078
0.266572
0.214760
0.215209
0.210944
0.125721
0.122648
0.091689
0.108869
0.109131
0.121782
0.141640
0.090822
0.099067
0.075037
0.147110
0.073681
0.105523
0.099431
0.104603
0.308200
0.447092
0.821711
1.139753
1.367520
1.487758
1.312946
0.966664
0.674918
0.271484
0.115487
-0.049444
-0.054273
-0.069080
-0.025600
0.119813
0.123008
0.116826
0.119466
0.081166
0.174113
0.176674
0.235579
0.224453
0.180552
0.180659
0.240277
0.208765
0.328326
0.256871
0.309856
0.451154
0.446350
0.411639
0.514563
0.407740
0.485778
0.448417
0.513284
0.521437
0.496718
0.486576
0.494105
0.546650
0.476865
0.512394
0.612419
0.556645
0.534356
0.593537
0.508112
0.593513
0.465939
0.554376
0.480104
0.472473
0.416309
0.509055
0.407391
0.369410
0.342625
0.442324
0.312714
0.346864
0.359413
0.274824
0.243153
0.271769
0.138174
0.220785
0.161083
0.167126
0.093634
0.121989
0.157632
0.076460
0.068513
-0.022189
0.094622
0.000339
-0.033289
0.109431
0.065365
0.050289
0.022126
0.094528
0.013538
-0.040831
-0.032718
0.032907
0.004470
-0.014282
0.015070
0.053136
0.052722
0.063697
0.012899
-0.078712
0.036436
-0.030909
-0.132166
-0.024257
-0.016314
-0.014978
-0.013785
-0.025547
0.039185
0.038780
0.038709
0.031996
0.034407
-0.006930
0.015105
-0.030918
0.015176
0.049447
0.036299
0.044190
0.019304
0.065801
0.010924
0.031935
0.082940
0.081942
0.033641
0.070445
0.113026
0.117888
0.086767
0.078397
0.162088
0.196629
0.169610
0.102898
0.148105
0.127098
0.122949
0.225354
0.207836
0.122327
0.151299
0.132599
0.167859
0.130178
0.033465
0.081829
0.163386
0.014146
0.003350
0.089859
0.008858
0.035343
0.004291
0.033262
0.032759
-0.058124
0.007791
-0.021621
0.019508
-0.043724
-0.006578
-0.026034
0.000622
0.057204
0.166382
0.205484
0.470359
0.812550
0.970912
1.289750
1.300094
1.128235
0.858886
0.525235
0.131957
-0.084652
-0.209969
-0.119377
-0.102188
-0.020673
0.021561
0.047074
0.036987
0.014507
0.065711
0.141740
0.074497
0.175570
0.054739
0.124585
0.174068
0.117885
0.218170
0.219904
0.237370
0.216385
0.273633
0.317551
0.284759
0.324002
0.391918
0.248676
0.406891
0.312325
0.382688
0.474002
0.395988
0.454864
0.433907
0.556639
0.477285
0.432141
0.507898
0.465179
0.443116
0.533630
0.362418
0.444903
0.418972
0.346517
0.328052
0.300436
0.278242
0.292177
0.310246
0.308080
0.275989
0.282901
0.176528
0.208188
0.200544
0.183640
0.160599
0.121256
0.110190
0.053011
0.069357
0.018172
0.026569
0.085326
-0.085998
0.020925
0.050032
-0.072514
-0.031920
0.002806
-0.075670
0.068368
-0.025469
0.043652
-0.016819
-0.086619
-0.057527
-0.141244
-0.105383
-0.116321
-0.098135
-0.092195
-0.100812
-0.049731
-0.059791
-0.064019
-0.062014
-0.050135
-0.027718
-0.044173
-0.118201
-0.119611
-0.101023
-0.038323
-0.056263
-0.043641
-0.103767
-0.046811
-0.091287
-0.144708
0.011995
-0.044097
-0.048314
-0.084141
-0.035423
-0.042710
-0.015586
-0.059953
-0.072891
-0.079513
-0.062604
-0.052914
-0.015315
-0.089302
-0.035872
0.043788
0.055521
0.021230
-0.031481
0.095549
0.048278
0.100536
0.061921
0.097562
0.081369
0.124196
0.096033
0.049722
0.084371
0.186699
0.005755
-0.005506
0.124441
0.002539
0.149617
-0.044707
-0.014198
-0.011642
0.023419
0.045883
-0.025258
0.023024
0.010952
-0.064083
-0.078883
-0.085073
0.001402
-0.000217
-0.102697
-0.046241
-0.055652
-0.013774
0.001224
0.072180
0.189633
0.455698
0.767021
1.067616
1.322848
1.233867
1.135596
0.811556
0.362651
0.139051
-0.090509
-0.178650
-0.230520
-0.180237
-0.199102
-0.044712
0.002860
0.017982
0.067833
0.049083
0.048871
0.084129
0.127529
0.138982
0.154219
0.143547
0.079278
0.206872
0.259023
0.270484
0.318502
0.333402
0.286119
0.363252
0.366771
0.343915
0.364999
0.359775
0.449279
0.403928
0.358200
0.490760
0.395762
0.410634
0.474591
0.452977
0.553203
0.484990
0.415059
0.478509
0.383143
0.456077
0.468001
0.458343
0.364528
0.408782
0.391672
0.344419
0.227733
0.257174
0.261960
0.242319
0.183746
0.132048
0.153019
0.226716
0.080750
0.168091
0.166885
0.170119
0.157419
0.145454
0.074724
0.055401
-0.009846
0.072524
-0.049476
0.111284
0.019361
0.076793
-0.020335
-0.001998
-0.011525
0.028180
-0.070272
-0.071848
-0.080126
-0.030853
0.000927
0.002382
-0.021332
0.020259
-0.033306
0.004571
-0.030079
-0.116002
-0.077687
-0.050685
0.019208
-0.029267
-0.114005
-0.016534
-0.000549
-0.036893
-0.059420
0.000839
-0.021642
-0.031950
0.023166
-0.008303
-0.057109
0.005882
-0.030855
-0.031918
0.059054
0.010829
-0.040390
0.063482
-0.031827
0.006374
-0.016069
0.038771
-0.012282
0.016176
0.044100
0.069266
0.064128
0.111158
0.103308
0.132051
0.123899
0.109327
0.163048
0.128184
0.149300
0.183813
0.180339
0.050353
0.217710
0.115073
0.190557
0.151106
0.193758
0.042446
0.111476
0.112983
0.129634
0.127420
0.076627
0.093108
0.096034
0.057690
0.067590
-0.003028
0.025201
-0.000826
0.025008
0.063768
0.058441
0.030076
0.075563
-0.014339
0.016249
0.057327
0.128061
0.272203
0.481650
0.886898
1.076313
1.277512
1.369963
1.181085
0.837819
0.427047
0.172250
-0.038948
-0.086882
-0.096430
-0.033440
0.019304
-0.003320
0.090137
0.107207
0.191600
0.079657
0.150964
0.161017
0.155703
0.176320
0.264019
0.220066
0.242703
0.284596
0.274991
0.334013
0.349039
0.305068
0.365426
0.348582
0.448437
0.440562
0.431470
0.427903
0.494681
0.512056
0.611103
0.551843
0.528330
0.562643
0.527283
0.604767
0.541310
0.594536
0.481467
0.519328
0.484814
0.532733
0.497881
0.481658
0.560708
0.453035
0.470446
0.460835
0.416989
0.368945
0.431087
0.295159
0.314960
0.375972
0.356779
0.294534
0.236881
0.195735
0.235088
0.191436
0.213121
0.162835
0.171996
0.189585
0.207813
0.137723
0.070650
0.038727
0.073081
0.067475
0.017999
0.124736
-0.010934
0.069253
0.061211
0.021196
0.065117
0.164314
0.035391
0.017059
-0.010341
0.017572
-0.008182
0.039756
0.066620
0.033916
0.006068
0.108900
0.024744
0.041348
0.036053
-0.001390
0.102214
0.096343
0.126186
0.018866
0.085205
0.062438
0.030070
0.108271
0.050531
0.057859
0.033997
0.103845
0.037943
0.096906
0.092742
0.057614
0.160574
0.103742
0.098374
0.153773
0.115336
0.131766
0.201638
0.150986
0.181514
0.186295
0.132630
0.204791
0.180095
0.148715
0.229818
0.238610
0.292774
0.184399
0.251759
0.204890
0.257567
0.211504
0.274805
0.201421
0.190933
0.231915
0.176568
0.135947
0.183417
0.108754
0.132958
0.183577
0.146738
0.099621
0.071696
0.100163
0.065190
-0.001532
0.090906
0.006743
0.083211
0.078099
0.063220
0.015725
0.074081
0.122693
0.190815
0.373518
0.644355
1.001647
1.254250
1.443519
1.369842
1.165173
0.760867
0.413513
0.144542
-0.064865
-0.104551
-0.014229
-0.024409
0.088517
0.113741
0.045010
0.100352
0.128470
0.182780
0.228288
0.297796
0.213911
0.174177
0.230181
0.237358
0.279449
0.323012
0.360843
0.367101
0.404172
0.391755
0.381886
0.331727
0.460049
0.439939
0.452145
0.510854
0.580338
0.553556
0.499968
0.502666
0.546281
0.594786
0.578840
0.566984
0.605964
0.659420
0.488483
0.617883
0.627030
0.561455
0.425548
0.487073
0.476299
0.470849
0.420593
0.312858
0.456317
0.379897
0.385313
0.386491
0.359385
0.246374
0.311583
0.312323
0.237460
0.228458
0.309160
0.224250
0.168352
0.077903
0.118626
0.202170
0.172707
0.095786
0.072810
0.176474
0.095074
-0.016175
0.086056
0.048879
0.043585
0.089719
-0.035043
0.047392
0.102391
-0.004811
0.049385
0.014758
0.038956
0.017424
-0.007929
0.033311
0.020213
0.109471
-0.018586
0.006503
0.029304
0.002422
0.025236
0.032925
-0.022667
-0.040104
-0.014863
0.045170
0.074112
0.093505
-0.077360
0.017103
-0.014603
-0.010935
-0.009104
-0.013406
-0.024497
0.019786
0.039563
0.023571
-0.040599
0.056999
0.057605
0.017944
0.085019
0.017255
0.059158
0.101548
0.194056
0.099314
0.148805
0.163784
0.162493
0.094630
0.173816
0.224490
0.208629
0.127823
0.164419
0.212263
0.153211
0.114361
0.132020
0.122282
0.155220
0.190114
0.080707
0.096962
0.070235
0.159208
0.069447
-0.020207
0.071299
0.021526
0.068832
-0.036425
0.035129
0.042153
0.032295
0.079348
-0.000636
-0.015020
-0.040614
-0.033371
0.048536
0.059730
0.156509
0.352011
0.669012
0.954311
1.144599
1.291571
1.238592
1.063812
0.647939
0.314367
0.038528
-0.100857
-0.056076
-0.128540
-0.064082
-0.032370
0.057847
0.014101
0.058964
0.052528
0.097991
0.141245
0.144795
0.086811
0.121759
0.160417
0.179614
0.221460
0.162395
0.280023
0.220168
0.244862
0.285007
0.327779
0.346590
0.337585
0.439924
0.333224
0.421382
0.493923
0.456916
0.463750
0.489874
0.528317
0.494941
0.565329
0.529147
0.482889
0.422914
0.417674
0.506167
0.464337
0.405833
0.524941
0.405574
0.420342
0.431742
0.430888
0.331721
0.364139
0.284531
0.245864
0.288888
0.221590
0.246681
0.119785
0.181520
0.084488
0.048121
0.138260
0.040304
0.061081
0.076283
0.025304
0.025246
-0.021441
0.027650
0.030716
0.003414
0.081993
-0.062814
-0.088471
-0.019355
0.001193
0.012686
-0.038915
-0.036170
-0.101560
-0.052306
-0.072282
-0.133567
-0.151329
-0.054003
0.025889
-0.054793
0.001014
-0.116977
-0.044448
-0.096266
-0.037155
-0.073742
-0.063686
-0.032219
-0.021655
-0.098303
-0.050939
-0.068524
-0.089375
0.002885
-0.034397
-0.062021
-0.109805
0.053501
-0.060445
-0.092359
-0.052188
-0.102762
-0.036930
-0.085770
-0.030273
-0.061291
-0.079302
0.056990
-0.009746
0.042733
-0.042097
0.001033
0.070234
-0.028807
-0.003844
-0.023851
0.082323
0.029732
0.045147
0.126365
0.086020
0.093591
0.123800
0.143799
0.140088
0.141141
0.096726
0.069880
0.113868
0.120061
0.034133
-0.004476
-0.053338
0.033581
0.027789
-0.035662
-0.065768
-0.053512
-0.039673
-0.090148
-0.004002
-0.106361
-0.055205
-0.032644
-0.106558
-0.098943
-0.122583
-0.110311
-0.159209
-0.035068
0.121246
0.339439
0.580026
0.961743
1.162832
1.373566
1.208509
0.940190
0.483574
0.243568
-0.055393
-0.155419
-0.205409
-0.166668
-0.063218
-0.105887
-0.021880
-0.040456
-0.012944
-0.039512
0.033216
0.011071
0.086415
0.098083
0.035509
0.061046
0.156934
0.135654
0.209287
0.124858
0.178456
0.296701
0.251007
0.262762
0.263063
0.371683
0.298530
0.376474
0.290315
0.369732
0.313311
0.456062
0.383283
0.418726
0.405808
0.525825
0.469854
0.404494
0.447816
0.448200
0.480043
0.408620
0.400599
0.337119
0.398433
0.222464
0.401415
0.312932
0.192640
0.276239
0.279666
0.248611
0.237280
0.281156
0.115195
0.154788
0.147145
0.024972
0.047037
0.136117
-0.002852
0.002228
0.043610
0.059039
-0.017651
0.044936
-0.076636
-0.027584
-0.089043
-0.073077
-0.090897
-0.048056
-0.104138
-0.028369
-0.039369
-0.093369
-0.086365
-0.102792
-0.132884
-0.051467
-0.015831
-0.167602
-0.089677
-0.043912
-0.099087
-0.142815
-0.101536
-0.106650
-0.106182
-0.058124
-0.082915
-0.053478
-0.095992
-0.085934
-0.153790
-0.133477
-0.116482
-0.117355
-0.162842
-0.076381
-0.052899
0.024248
-0.045114
-0.086174
-0.068493
-0.074018
-0.016173
-0.077144
-0.015992
-0.055704
0.011946
-0.010951
0.036191
0.016873
-0.036223
-0.017343
-0.004741
0.057600
0.049617
0.091637
0.126992
0.085278
0.079174
0.056633
0.137355
0.118499
0.073011
0.101187
0.137826
0.132043
0.056277
0.135726
0.026740
0.165210
0.074417
0.111200
0.060416
0.030336
0.037523
0.050348
-0.006409
0.059910
0.034430
0.077070
-0.070962
-0.073595
-0.038667
-0.050598
-0.065995
-0.094577
-0.025325
-0.019917
0.025468
-0.073868
0.020653
0.233923
0.454869
0.747416
1.050742
1.272541
1.350284
1.160914
0.829364
0.480958
0.242705
-0.105180
-0.182958
-0.124602
-0.063843
-0.031465
-0.004641
0.089882
0.051057
0.015926
0.117105
0.089617
0.071827
0.092948
0.152504
0.173779
0.206298
0.286962
0.265575
0.221956
0.247349
0.303675
0.358368
0.278347
0.292386
0.403066
0.397867
0.351319
0.384970
0.464362
0.502024
0.491823
0.533026
0.486207
0.456065
0.447025
0.487449
0.439820
0.583901
0.570885
0.474460
0.468443
0.357781
0.408953
0.426855
0.449358
0.399429
0.520092
0.328473
0.296462
0.432980
0.356155
0.314639
0.259571
0.334975
0.270783
0.237532
0.254935
0.153488
0.150976
0.198988
0.105717
0.099143
0.126690
0.154025
0.118433
0.055115
0.027678
0.071982
0.089610
0.039190
0.058068
-0.046468
0.016143
0.056641
0.037319
0.018538
-0.078044
0.071717
0.037426
0.087372
0.081151
0.003138
0.026146
-0.020153
0.003222
0.047364
0.010677
0.020600
-0.019441
0.032335
0.060749
0.134782
-0.047725
-0.014223
0.068872
0.069381
0.052828
-0.051098
0.034720
-0.013784
0.001368
-0.019294
-0.024147
-0.043659
0.085219
-0.099055
0.040982
0.113954
0.076214
0.101781
0.018728
0.087978
0.122655
-0.005327
0.105898
0.093260
0.144155
0.120876
0.131344
0.178433
0.196768
0.158266
0.211100
0.183740
0.150046
0.219182
0.184538
0.180716
0.178526
0.218644
0.203449
0.187407
0.140423
0.230544
0.200564
0.097881
0.114447
0.196198
0.179759
0.050738
0.119504
0.065767
0.091051
0.069572
0.101753
0.051255
0.079631
0.086218
0.088933
0.097569
0.038271
0.039136
0.080692
0.060499
0.176838
0.376241
0.509883
0.878654
1.148105
1.388499
1.373246
1.271148
0.904338
0.548070
0.273424
0.032115
-0.124577
-0.059682
0.050087
0.031483
0.069676
0.120241
0.123145
0.202629
0.143747
0.145547
0.267109
0.250227
0.224049
0.211907
0.261542
0.270870
0.290828
0.325061
0.265516
0.301182
0.450685
0.403168
0.489424
0.527095
0.480244
0.585460
0.507987
0.541381
0.533837
0.676649
0.580569
0.561107
0.594272
0.563392
0.552348
0.652369
0.568397
0.758317
0.540514
0.553901
0.519632
0.541601
0.506846
0.438935
0.486188
0.504357
0.459918
0.393572
0.340782
0.393778
0.409753
0.362263
0.325853
0.289611
0.270577
0.158593
0.260525
0.249962
0.188150
0.252851
0.270725
0.122724
0.134684
0.148141
0.243959
0.175909
0.076432
0.127205
0.137773
0.099322
0.059098
0.074592
0.101585
0.132040
0.128437
0.094952
0.078583
0.059565
0.016511
0.093170
0.149677
0.136332
0.047695
0.051023
0.126542
0.145734
0.087702
0.067213
0.154818
0.073293
0.075450
0.065659
0.063671
0.001347
0.031569
0.026040
0.143831
0.120550
0.098721
0.035939
0.071097
0.091612
0.101838
0.020521
0.012322
0.104327
0.125230
0.071937
0.131757
0.188334
0.138050
0.150142
0.156745
0.056384
0.138981
0.091779
0.235112
0.196060
0.182481
0.226677
