-0.035720
-0.000181
0.058245
0.065215
0.009432
0.118783
-0.060015
-0.035835
0.002071
-0.012090
0.045703
-0.066037
-0.023281
-0.011602
0.014189
-0.066675
-0.022174
0.019254
0.030729
-0.053267
0.044663
0.047204
0.058892
-0.016161
0.085131
0.105425
0.008049
0.086421
0.079736
0.118521
0.139229
0.130800
0.164238
0.195020
0.175918
0.117186
0.202583
0.178950
0.078780
0.177883
0.169016
0.265785
0.258819
0.222390
0.210070
0.135617
0.142609
0.215942
0.170503
0.083828
0.287002
0.170002
0.160684
0.055324
0.186809
0.149847
0.072526
0.096196
0.039957
0.078630
0.101645
0.079961
0.073517
0.009321
-0.008342
0.066113
0.044263
0.052415
-0.019693
0.074451
0.025548
0.116440
0.026556
0.054159
0.011007
0.039296
0.039492
0.041246
0.182836
0.313483
0.594490
1.015237
1.360252
1.380688
1.456366
1.345445
0.951745
0.542925
0.208117
-0.088738
-0.156214
-0.287102
-0.165455
-0.079352
0.026035
0.044718
0.106131
0.061615
0.112413
0.078608
0.090513
0.120483
0.114597
0.108376
0.112585
0.139345
0.154628
0.227004
0.202511
0.177980
0.145675
0.202872
0.257527
0.219291
0.251615
0.283443
0.303891
0.301717
0.356027
0.334199
0.428123
0.440312
0.438989
0.533865
0.505272
0.474686
0.446253
0.526676
0.531450
0.477266
0.544072
0.480354
0.534991
0.615252
0.572757
0.534313
0.645006
0.572536
0.521259
0.569589
0.600324
0.534665
0.585333
0.508367
0.533479
0.534236
0.555098
0.559348
0.467374
0.454777
0.420642
0.343390
0.373907
0.401302
0.314593
0.275094
0.291347
0.290112
0.236300
0.249034
0.226370
0.180138
0.189531
0.214660
0.154550
0.149620
0.102318
0.109330
0.121597
0.117037
0.095430
0.111013
0.072163
0.162292
0.127803
0.212958
0.054568
0.139954
0.095038
0.101522
0.178135
0.095846
0.070797
0.106085
0.141824
0.059197
0.108461
0.115923
0.084234
0.136100
0.100510
0.110801
0.106504
0.065339
0.050863
0.045777
0.051338
0.027346
0.131141
0.041077
0.082334
0.023540
0.139612
0.135403
0.104881
0.109163
0.121532
0.068925
0.078950
0.101793
0.146158
0.106464
0.098816
0.101681
0.112592
0.095642
0.136248
0.057943
0.191820
0.130289
0.093983
0.013285
0.092517
0.174364
0.097311
0.089090
0.125645
0.046101
0.051316
0.117864
0.075685
0.188479
0.093391
0.136194
0.150605
0.106465
0.161372
0.101938
0.230144
0.103406
0.251660
0.172344
0.243636
0.185654
0.276703
0.276642
0.246922
0.226369
0.349451
0.308977
0.291445
0.278978
0.216667
0.310151
0.240568
0.217228
0.178103
0.194792
0.165639
0.241614
0.196953
0.191546
0.221877
0.234378
0.140675
0.081274
0.143721
0.109349
0.160804
0.071298
0.128464
0.097998
0.059994
0.065332
0.069483
0.160805
0.099219
0.065454
0.099154
0.111583
0.038086
0.101569
0.091103
0.117302
-0.001883
0.039855
0.156015
0.302302
0.526874
0.904127
1.156750
1.390627
1.500000
1.296879
1.041143
0.662688
0.333032
0.063947
-0.212163
-0.139527
-0.159322
-0.060574
0.013971
0.197533
0.149881
0.098943
0.107426
0.119812
0.077832
0.059234
0.081562
0.115442
0.141763
0.112230
0.224035
0.148698
0.158646
0.213695
0.109649
0.212295
0.151924
0.211138
0.211596
0.272417
0.284585
0.303058
0.234637
0.366197
0.375215
0.387173
0.361320
0.484265
0.374106
0.437612
0.465006
0.460505
0.521265
0.526934
0.510549
0.493342
0.580547
0.616220
0.514296
0.525878
0.584196
0.567764
0.537354
0.517095
0.533877
0.441543
0.566763
0.438691
0.531201
0.469628
0.460031
0.413903
0.441531
0.426088
0.467926
0.362722
0.425333
0.289881
0.304379
0.272526
0.190660
0.177944
0.210806
0.175725
0.215401
0.148705
0.247070
0.178882
0.156929
0.097664
0.086838
0.205845
0.012554
0.152252
0.029072
0.036411
0.080445
0.087598
0.081783
0.125500
0.013414
0.012189
0.035076
0.019345
0.093036
0.031859
-0.036214
-0.020104
0.038413
0.075176
0.007416
0.020609
-0.014923
0.066338
0.059955
-0.005648
0.030796
0.011852
0.031936
-0.050065
0.033241
0.030614
0.073742
-0.001022
0.013497
0.012262
0.040279
-0.024236
-0.008995
0.016441
-0.008298
-0.001564
0.041770
-0.049478
-0.019950
-0.008723
0.023231
0.064203
0.004201
0.053072
-0.060027
-0.023510
-0.024337
0.021053
-0.074504
0.004052
-0.056293
-0.081158
0.048322
0.048776
-0.012572
-0.056635
-0.028834
0.034341
0.100847
0.069894
0.052877
0.058453
0.030321
0.026332
0.047928
0.113272
0.060222
0.110003
0.094071
0.056157
0.155488
0.122990
0.178945
0.083298
0.162951
0.147815
0.185371
0.175291
0.185222
0.052290
0.147877
0.105046
0.144649
0.177282
0.088640
0.190895
0.110024
0.169896
0.085042
0.098807
0.109433
0.048090
-0.025901
0.025027
0.051695
0.019060
0.022443
-0.031114
-0.043822
-0.019433
-0.015113
0.017320
0.040918
-0.062148
-0.000923
0.023218
-0.060046
-0.006869
-0.105765
-0.001704
-0.044512
0.026855
-0.166347
0.028520
0.001427
0.087145
0.292459
0.754952
1.026100
1.296034
1.402468
1.334109
1.036225
0.651100
0.383478
-0.038823
-0.186138
-0.206187
-0.340071
-0.295613
-0.091641
-0.080753
-0.058397
-0.012808
-0.005189
0.037493
0.002403
-0.042241
-0.005017
-0.013514
0.030029
-0.017262
0.090873
0.056299
0.046653
0.100261
0.062157
0.100733
0.189660
0.117329
0.104092
0.201395
0.047233
0.158423
0.164358
0.174387
0.247155
0.249595
0.308225
0.330006
0.254024
0.336793
0.282658
0.371851
0.385100
0.359188
0.439853
0.411052
0.459628
0.428061
0.434178
0.434890
0.463104
0.490111
0.505162
0.427044
0.391066
0.414316
0.423315
0.448013
0.435056
0.392457
0.342801
0.301872
0.323150
0.292807
0.306486
0.281430
0.266827
0.310578
0.208728
0.291455
0.207381
0.135883
0.110410
0.176331
0.143082
0.098908
0.089166
0.092517
-0.000396
0.025327
0.071573
0.010395
-0.009072
0.066144
-0.026402
-0.000708
0.006560
0.002607
-0.038772
0.000109
-0.058632
-0.082706
-0.027105
-0.042736
-0.003187
0.035914
-0.060598
-0.060700
-0.081298
-0.023883
-0.080851
-0.014419
-0.064153
-0.075011
-0.153347
-0.003231
-0.057276
-0.043851
-0.051406
-0.018543
-0.075318
-0.058374
-0.027734
0.000790
-0.010926
-0.114876
-0.026739
0.034218
0.022822
-0.015178
0.001482
-0.012899
-0.072095
-0.025431
-0.050661
-0.104610
-0.113624
0.016911
-0.007240
-0.073238
0.013005
-0.064798
-0.047631
-0.022398
-0.001010
-0.060354
-0.005222
-0.035021
-0.012159
-0.052175
-0.097924
0.003201
-0.014369
0.021638
-0.020512
0.000734
-0.038241
0.059964
0.022055
0.093524
0.059501
0.047694
0.106335
0.081843
0.081436
-0.001380
0.144554
0.097684
0.186536
0.140775
0.206761
0.126717
0.090317
0.178404
0.212914
0.091833
0.185027
0.149617
0.116220
0.195884
0.191374
0.106886
0.092601
0.068128
0.102681
0.138994
0.043376
0.054581
0.048702
0.144523
0.088700
0.029439
0.005569
0.029866
-0.011855
0.003172
-0.070777
-0.074053
-0.053640
-0.008283
0.009546
-0.040150
0.028742
-0.017165
0.024795
0.025446
-0.081617
0.047159
-0.018443
-0.031366
-0.001801
0.106323
0.328839
0.564499
0.879843
1.247322
1.420205
1.378076
1.186209
0.872221
0.508411
0.100199
-0.141995
-0.274024
-0.226606
-0.087555
-0.083734
-0.016128
-0.043356
0.019187
-0.005163
0.017736
0.013958
0.013838
-0.050136
0.168226
0.001728
0.100444
0.000478
0.112480
0.074378
0.029732
0.106078
0.107960
0.173035
0.150101
0.144124
0.234047
0.284732
0.228181
0.218391
0.292693
0.314036
0.350197
0.272710
0.301836
0.389561
0.431643
0.401096
0.487489
0.455424
0.477828
0.471543
0.481533
0.580725
0.573575
0.523340
0.527049
0.591455
0.515567
0.556537
0.485567
0.505430
0.477047
0.527089
0.518354
0.537151
0.455115
0.453697
0.405462
0.472508
0.355505
0.393975
0.281397
0.340467
0.320151
0.259629
0.319697
0.176318
0.296997
0.249877
0.237547
0.257747
0.180988
0.265099
0.106018
0.148302
0.212581
0.143045
0.122001
0.137149
0.088990
-0.018725
0.020907
0.014087
0.132658
0.005121
0.013164
0.053772
0.072873
0.070833
0.032053
0.087873
0.091427
0.082397
0.097287
0.102893
0.080969
0.130628
0.119704
0.038232
0.043808
0.101440
0.043550
-0.022313
0.040701
0.095247
0.010683
0.028788
0.066504
0.062840
0.059239
0.105572
0.023028
0.117314
0.099816
0.095085
0.056073
0.001373
0.112446
0.081522
0.085560
0.014885
-0.041537
0.037377
0.048905
0.098662
0.013914
0.124724
-0.046486
0.074641
0.108310
0.035835
0.031643
0.044559
0.147644
0.043228
0.083368
0.054103
0.017841
0.094020
0.058373
0.112958
0.119474
0.152202
0.168896
0.100222
0.075030
0.183474
0.124053
0.169688
0.097827
0.170449
0.199297
0.256257
0.199945
0.191799
0.119020
0.217495
0.188027
0.272316
0.248606
0.210344
0.318382
0.273366
0.325725
0.228561
0.244517
0.246454
0.215274
0.139837
0.294513
0.201443
0.228910
0.151245
0.176086
0.129487
0.158946
0.125275
0.134079
0.146156
0.114021
0.127655
0.128346
0.094826
0.102021
0.145117
0.116563
0.036783
0.110098
0.121402
0.148612
0.154622
0.060165
0.091510
0.051514
0.096358
0.013542
-0.006698
0.212010
0.262344
0.499916
0.871184
1.196809
1.423582
1.450963
1.303044
1.098934
0.785118
0.347650
0.146483
-0.057246
-0.160747
-0.106037
-0.028681
0.008926
0.078539
0.087221
0.034734
0.114031
0.160035
0.191500
0.224439
0.185768
0.179817
0.194508
0.092020
0.136736
0.122500
0.251946
0.203829
0.288113
0.317047
0.289626
0.259333
0.212107
0.256952
0.395095
0.310651
0.423073
0.325313
0.321718
0.406832
0.462675
0.505745
0.393161
0.532686
0.489409
0.514495
0.538086
0.591932
0.589548
0.605844
0.572325
0.673215
0.563615
0.602765
0.628493
0.626555
0.563098
0.590634
0.732811
0.559287
0.593155
0.472000
0.490578
0.469069
0.547849
0.464235
0.392081
0.448908
0.452934
0.316362
0.406947
0.368963
0.337507
0.261583
0.286197
0.335390
0.267027
0.245159
0.273748
0.188382
0.215469
0.149007
0.107906
0.223976
0.156580
0.163240
0.087613
0.177566
0.044188
0.048028
0.185147
0.065263
0.118636
0.096694
0.127091
0.044055
0.179942
0.090641
0.091524
0.092934
0.004589
0.002767
0.047354
-0.020749
0.033975
0.034695
0.160421
0.105122
0.072480
0.161021
0.092870
0.096837
0.077301
0.091681
0.106681
0.056514
0.044540
0.012725
0.005584
0.132690
0.097426
0.125135
0.161010
0.047190
0.031390
0.073464
0.034705
0.052360
0.085916
0.152661
-0.029791
0.054982
0.023364
0.088596
0.089592
0.022277
0.093739
0.022333
0.098210
0.107928
0.119253
0.108487
0.072981
-0.036779
0.050734
0.092991
0.081705
0.069036
0.146971
0.079728
0.100675
0.054664
0.159771
0.135503
0.140706
0.050777
0.179330
0.180666
0.089855
0.200037
0.182925
0.149895
0.233385
0.204378
0.190093
0.205505
0.167835
0.244154
0.260606
0.190099
0.195890
0.176687
0.159862
0.277695
0.233334
0.180711
0.172527
0.194200
0.212457
0.171926
0.104816
0.097746
0.024404
0.116807
0.067079
0.117959
0.044613
-0.000600
0.098223
0.114427
0.107389
0.043756
0.114063
0.121400
0.058118
-0.026826
0.076367
-0.024974
0.010134
0.026655
0.038931
-0.030506
-0.018124
0.032448
0.069834
0.155885
0.439189
0.711566
1.041703
1.276121
1.462818
1.283413
1.168559
0.791504
0.398485
0.033947
-0.095961
-0.211285
-0.229038
-0.242177
-0.092268
-0.054402
-0.018367
0.061392
0.022085
0.057316
0.055557
-0.033000
0.081018
0.056561
0.075904
0.074388
0.047701
0.007712
0.120983
0.171963
0.137244
0.119945
0.159720
0.173131
0.112581
0.190873
0.280320
0.260024
0.296455
0.228668
0.248488
0.299846
0.357846
0.404554
0.341128
0.399678
0.429281
0.404958
0.452672
0.327850
0.454615
0.537178
0.420770
0.470523
0.469373
0.581988
0.449387
0.528626
0.498084
0.401962
0.414366
0.470536
0.396401
0.434522
0.410704
0.425787
0.289304
0.347769
0.409787
0.353039
0.309496
0.282179
0.246524
0.277902
0.263099
0.207115
0.182971
0.104611
0.218314
0.198416
0.154965
0.108710
0.118359
0.115093
-0.009595
0.045512
0.012503
-0.004518
0.049674
0.007126
-0.006141
-0.110263
-0.081677
-0.109218
0.026572
-0.048314
-0.004205
-0.077756
0.035166
-0.039727
-0.093755
-0.077904
-0.090042
-0.043824
-0.053766
-0.035788
-0.071739
-0.080056
-0.068408
-0.028947
-0.060919
-0.093359
0.005610
-0.091662
-0.099517
-0.067289
-0.072938
-0.026579
-0.062232
-0.055389
-0.059314
-0.055343
0.025076
-0.035377
-0.042318
-0.062367
-0.085386
-0.107431
-0.105268
-0.042844
-0.040893
-0.082714
0.004960
-0.069349
-0.136585
-0.171966
-0.084886
-0.118428
-0.107061
-0.037045
-0.008637
0.017501
-0.041013
-0.072542
-0.049627
-0.095061
0.011647
-0.063848
-0.032954
-0.010420
-0.002904
-0.081466
0.042536
-0.074932
-0.084792
-0.020534
0.019522
-0.091715
-0.004060
0.067149
0.016623
0.027663
-0.015723
0.110295
0.004816
0.116467
0.041920
0.105871
0.034945
0.086401
0.101407
0.168662
0.097497
0.101017
0.139064
0.038320
0.015387
0.113877
0.065995
0.098095
0.113183
0.028194
-0.032582
0.024736
-0.012022
0.000934
-0.060626
-0.001509
0.003440
-0.005812
-0.047754
-0.041932
-0.030472
-0.100580
-0.067649
-0.037253
-0.114161
-0.061800
-0.067104
-0.058934
-0.143649
-0.115421
-0.018582
-0.067763
-0.079522
-0.148241
-0.048927
0.076939
0.189111
0.478382
0.868249
1.127257
1.346817
1.271286
1.043794
0.794826
0.364626
0.078846
-0.094775
-0.329358
-0.340303
-0.324179
-0.223867
-0.143826
-0.029427
-0.065872
-0.055772
-0.033159
-0.173956
-0.046759
-0.025466
-0.058844
0.025652
-0.111028
-0.079587
-0.072883
0.068315
-0.054641
0.068353
0.100644
0.113551
0.063011
0.038570
0.128893
0.172581
0.143425
0.125576
0.182971
0.148896
0.219011
0.280380
0.221003
0.297462
0.297163
0.312319
0.312187
0.338507
0.388834
0.410325
0.386920
0.446288
0.483894
0.427326
0.433282
0.376323
0.468338
0.442477
0.423093
0.435327
0.404154
0.361499
0.510810
0.397442
0.343062
0.338229
0.313599
0.308102
0.299899
0.285314
0.233451
0.217960
0.160136
0.208426
0.179595
0.167570
0.119939
0.107428
0.038046
0.121193
0.050489
-0.047845
0.041200
-0.050458
0.027547
0.031235
-0.097027
0.010356
0.052556
-0.073935
-0.024316
-0.105724
-0.075348
-0.028944
-0.037393
-0.043929
-0.078352
-0.042853
-0.093273
-0.044558
-0.063441
-0.071938
-0.106814
-0.084410
-0.055432
-0.084252
-0.103867
-0.114368
-0.041605
-0.062692
-0.061701
-0.028620
-0.103241
-0.117859
-0.078146
-0.031379
-0.056375
-0.129467
-0.088211
-0.052393
-0.027878
-0.016585
-0.080807
-0.121611
-0.019946
-0.025492
-0.109176
-0.097398
-0.008371
-0.089178
-0.064085
-0.017724
-0.019987
0.048238
-0.031947
-0.124164
-0.081796
-0.065747
-0.116994
-0.039834
0.032377
0.083272
-0.053800
-0.088422
-0.024611
-0.063968
0.055299
0.004979
-0.069582
-0.061859
0.043120
-0.043258
0.027953
0.049898
-0.055901
0.034663
0.025313
-0.022678
0.014828
0.100962
0.066124
0.096650
0.143224
-0.014032
0.088606
0.134232
0.186835
0.166427
0.123742
0.079904
0.182609
0.225149
0.209517
0.136881
0.131953
0.149736
0.128819
0.184915
0.121513
0.053794
0.088531
0.113106
-0.018974
0.083091
0.061227
0.116370
0.022564
-0.033039
-0.019375
-0.021339
-0.014784
0.094391
0.052847
0.096474
0.128738
0.023619
0.012416
-0.074502
-0.020085
0.117375
0.012194
-0.035538
-0.066036
-0.022810
0.003078
-0.015401
0.001813
0.222105
0.435257
0.801793
1.102763
1.297311
1.464654
1.320909
0.996592
0.549537
0.320108
-0.058176
-0.255811
-0.204164
-0.256143
-0.198785
-0.071463
-0.075655
0.010807
0.028379
0.074226
0.060884
-0.078592
0.057870
0.056332
0.120657
0.107222
0.077519
0.062434
0.081156
0.141583
0.118120
0.125964
0.179988
0.183123
0.214901
0.113744
0.225451
0.245393
0.217527
0.265351
0.249004
0.351118
0.341841
0.364157
0.414732
0.444244
0.422148
0.412334
0.449674
0.451373
0.513370
0.503386
0.473879
0.520013
0.566649
0.560151
0.538544
0.520018
0.615415
0.546808
0.516060
0.560120
0.519001
0.516547
0.489597
0.511681
0.459568
0.439720
0.398999
0.313284
0.361087
0.347745
0.268043
0.321003
0.268392
0.259037
0.354226
0.193392
0.252954
0.233507
0.218466
0.156257
0.138696
0.095617
0.156660
0.136338
0.062637
0.183261
0.105800
0.151547
0.190738
0.133240
-0.000386
0.082987
0.018981
0.015432
0.025122
0.095085
0.013353
0.024238
0.004078
0.073896
0.036030
0.098206
0.002437
-0.034591
0.002891
0.036467
0.013581
0.068499
0.069131
0.117520
-0.007969
-0.072232
0.082825
0.110560
0.061978
0.080367
0.053097
0.045123
0.002217
0.035447
0.117440
0.025547
0.035643
-0.010571
0.001604
0.081406
-0.027429
0.055849
-0.018645
0.083762
0.013598
0.072446
0.041341
0.061517
0.047038
-0.004737
0.128677
-0.009844
0.014444
0.029396
0.130834
0.010892
0.157506
0.148479
0.042719
0.031540
0.049491
0.052658
0.062136
-0.038054
0.072955
-0.000765
0.074090
0.141157
0.115533
0.065800
0.075578
0.124859
0.119151
0.152987
0.160215
0.248065
0.154248
0.195240
0.251269
0.207406
0.135360
0.290779
0.179014
0.143337
0.272077
0.313056
0.174347
0.185009
0.165720
0.296682
0.196217
0.133019
0.185162
0.210173
0.102840
0.137845
0.091550
0.131717
0.127686
0.092683
0.095207
0.094698
0.142899
0.157620
0.096019
0.068637
0.032757
0.076358
0.044364
-0.030378
0.139754
-0.008785
0.034176
0.016299
0.099131
0.030747
0.030343
0.049752
0.029339
0.023823
0.202313
0.446270
0.746704
1.038572
1.316120
1.491498
1.334204
1.157396
0.760619
0.298112
0.110929
-0.186012
-0.354805
-0.126575
-0.116512
-0.047476
-0.068050
0.022289
-0.005059
0.135056
0.112959
0.107362
0.025682
0.061559
0.067451
0.062037
0.076535
0.114292
0.035878
0.125496
0.060163
0.173890
0.137420
0.188960
0.171810
0.225820
0.300312
0.191378
0.269935
0.219222
0.222742
0.334359
0.356003
0.320003
0.421999
0.375906
0.426428
0.497804
0.436188
0.443465
0.606402
0.459147
0.467055
0.543259
0.582230
0.504347
0.493072
0.670676
0.483409
0.559175
0.543781
0.616895
0.496599
0.452899
0.426838
0.518210
0.505067
0.475750
0.469675
0.471566
0.437126
0.314534
0.305114
0.246493
0.260102
0.223825
0.247685
0.294184
0.216554
0.161874
0.160432
0.210150
0.157120
0.119611
0.112160
0.138192
0.043044
0.026331
-0.017419
0.059058
0.072180
0.051982
0.045595
0.003782
-0.023545
0.051402
0.021951
0.057958
0.031857
0.020830
-0.055136
-0.050543
0.014678
-0.069570
0.056626
0.002071
0.010850
0.048188
0.001496
0.011079
0.040796
0.029024
0.068795
-0.012883
0.018766
-0.047873
-0.058532
-0.071407
0.000741
-0.028985
0.042716
-0.048148
0.010394
-0.064479
-0.027106
0.020681
-0.121555
-0.022405
-0.079970
-0.000288
-0.074716
-0.017425
0.006176
-0.069348
-0.035102
-0.015617
0.035614
0.001272
-0.002830
-0.004021
-0.028666
0.096058
0.019752
-0.042865
-0.007490
-0.048512
0.078151
0.000099
-0.001523
-0.031851
0.029036
-0.032707
-0.058398
-0.001678
-0.073623
0.035066
-0.047430
-0.005907
0.064222
0.075698
0.102766
0.103336
0.081130
0.079262
0.159308
0.100972
0.097609
0.085358
0.076263
0.162198
0.231936
0.057679
0.137933
0.091847
0.144308
0.078961
0.152355
0.088018
0.098197
0.084201
0.139111
0.063256
0.019273
0.084612
0.027801
0.034007
0.063955
-0.040890
-0.063877
0.047883
-0.030813
0.045264
0.054199
-0.034076
-0.031117
-0.010135
-0.081233
0.023877
-0.038686
-0.084845
-0.024663
0.008689
-0.096568
-0.114828
-0.031449
-0.062322
-0.072747
-0.037168
0.096085
0.244708
0.580210
0.809842
1.163390
1.288155
1.466542
1.119141
0.715963
0.348918
0.013498
-0.209122
-0.363481
-0.301217
-0.193490
-0.247381
-0.116974
-0.118638
-0.091077
-0.105078
-0.000280
0.004676
-0.005513
-0.007509
-0.041008
-0.029483
0.045273
0.017221
-0.058020
0.012828
0.025359
-0.022165
0.056907
0.009529
0.132252
0.050238
0.128332
0.160353
0.132350
0.150795
0.273551
0.155577
0.286598
0.235690
0.226437
0.318167
0.331056
0.230944
0.408594
0.350524
0.364100
0.340187
0.397037
0.459099
0.498597
0.417066
0.347965
0.418255
0.385714
0.412899
0.385038
0.436042
0.455510
0.363147
0.379409
0.367161
0.307898
0.387596
0.302643
0.227425
0.270393
0.291638
0.311224
0.220280
0.184164
0.194634
0.138129
0.159547
0.097333
0.036639
0.013071
0.003837
-0.020763
0.024430
-0.012246
0.069687
-0.044613
-0.048617
-0.034635
-0.071229
-0.087822
-0.033672
-0.015393
-0.155026
-0.092825
-0.163561
-0.022756
-0.076098
-0.107586
-0.036947
-0.050535
-0.105668
-0.074647
-0.046439
-0.063744
-0.154432
-0.086410
-0.180181
-0.121767
-0.087655
-0.069070
-0.040233
-0.085795
-0.053284
-0.159248
-0.158008
-0.194314
-0.070483
-0.106235
-0.137260
-0.132174
-0.113292
-0.099748
-0.103006
-0.150688
-0.146552
-0.108738
-0.122093
-0.083416
-0.083819
-0.112936
-0.127423
-0.121976
-0.021089
-0.069983
-0.122033
-0.127022
-0.013878
-0.091161
-0.136308
-0.113059
-0.117304
-0.052310
-0.089120
-0.149783
-0.151900
-0.068513
-0.068899
-0.090338
-0.083423
-0.149470
-0.030620
-0.051230
-0.073310
0.040743
-0.036537
-0.070197
-0.052581
-0.052709
-0.027107
-0.048441
0.031562
0.000741
-0.003789
0.075587
0.096999
0.064211
0.072239
0.035320
0.107584
-0.027119
0.089980
0.027013
0.065881
0.065366
0.118442
0.025917
0.137489
0.003829
0.051974
0.078553
-0.019617
0.028187
-0.011698
-0.025183
-0.031134
0.011515
0.022203
0.040514
-0.126514
-0.081803
-0.122180
-0.071031
0.003630
-0.031831
-0.026701
-0.016907
-0.101762
-0.126304
-0.037333
-0.168674
-0.023063
-0.092263
-0.005717
-0.051708
-0.131803
-0.139934
-0.084171
-0.078033
0.160053
0.423026
0.685310
1.058350
1.312960
1.319343
1.121407
0.883209
0.521028
0.104137
-0.038867
-0.234225
-0.367158
-0.284407
-0.122253
-0.261352
-0.145527
-0.084200
-0.108647
-0.073155
-0.058148
-0.000998
0.038104
-0.023560
-0.111891
0.026362
-0.056221
0.005916
0.012586
0.062428
0.090563
0.101050
0.076443
0.089441
0.066305
0.205270
0.085560
0.174153
0.199337
0.131510
0.193753
0.226859
0.236328
0.258450
0.332455
0.302095
0.317193
0.414531
0.455796
0.357372
0.407549
0.480579
0.473624
0.396308
0.486197
0.429065
0.458206
0.454917
0.420711
0.503178
0.541514
0.467576
0.394716
0.445360
0.344498
0.370698
0.303672
0.352594
0.227303
0.251069
0.294201
0.248590
0.283997
0.201553
0.260124
0.167339
0.194362
0.194776
0.152733
0.119431
0.189494
0.132081
0.175790
-0.010661
0.065140
0.075191
0.006156
0.062551
-0.012448
-0.027144
0.048872
-0.052266
0.035519
0.032149
0.041330
-0.026272
0.020882
0.030201
0.010677
-0.072016
0.066247
0.021334
-0.033180
-0.014095
0.026636
-0.084887
0.068272
-0.052614
-0.104443
0.090117
-0.031542
-0.008340
0.043519
-0.114937
-0.054689
-0.033696
-0.045975
-0.003009
0.018554
-0.028763
-0.022608
0.024841
0.049287
0.005216
0.082919
-0.033281
-0.043270
-0.033285
-0.027777
-0.022484
0.043602
-0.012374
0.020847
-0.001411
-0.002259
0.034919
-0.013566
0.043907
0.032368
-0.025671
-0.084874
0.023462
0.002428
-0.040369
0.001473
-0.088373
0.054720
-0.001820
0.001936
0.013111
-0.042968
0.095406
0.050561
0.073627
0.030828
0.103680
0.067879
0.040637
0.052187
0.111246
0.118423
0.090205
0.147384
0.141091
0.190176
0.100172
0.124010
0.198329
0.186450
0.206362
0.213686
0.202692
0.216977
0.230798
0.134370
0.209346
0.105961
0.188361
0.113248
0.178006
0.115661
0.113719
0.177276
0.184107
0.096027
0.151941
0.141802
0.074721
0.151608
0.043008
0.017939
0.103584
0.021393
0.008209
0.049540
-0.002553
0.078213
-0.000385
0.103054
-0.037271
0.060394
0.015213
0.016242
-0.009612
0.028346
0.061376
0.036641
0.054055
0.240608
0.477712
0.710230
1.124545
1.357067
1.459228
1.403827
1.227319
0.814304
0.431993
0.126077
-0.099400
-0.151788
-0.192141
-0.197176
-0.061302
0.002117
0.074711
0.135532
0.103839
0.035412
0.086870
0.125440
0.054138
0.111520
0.064072
0.147797
0.158179
0.060896
0.104653
0.180464
0.123703
0.150455
0.219021
0.199867
0.238628
0.216525
0.223903
0.265964
0.344363
0.277088
0.340045
0.373385
0.372631
0.372223
0.407601
0.499631
0.471081
0.593328
0.567408
0.542623
0.548738
0.667439
0.600995
0.612004
0.564377
0.557409
0.480497
0.534227
0.610822
0.592216
0.596355
0.538833
0.540249
0.544217
0.600112
0.548117
0.438803
0.451931
0.537239
0.425715
0.480907
0.447239
0.342396
0.294442
0.275944
0.381726
0.272904
0.229453
0.281057
0.326022
0.275614
0.190430
0.181903
0.152031
0.143154
0.195808
0.168056
0.102665
0.197018
-0.004639
0.116738
0.103376
0.042481
0.123222
0.047590
0.093588
0.079096
0.017685
0.114638
0.119031
0.066903
0.140000
0.108392
0.079977
0.109731
0.062898
0.053198
0.030851
0.149582
0.076651
0.150740
0.091493
-0.009985
0.073780
0.063920
0.088352
0.072261
0.139583
0.129996
0.129713
0.070641
0.067223
0.060560
0.082231
0.071265
0.048350
0.021205
0.037236
0.130113
