-0.041479
0.225685
-0.518803
0.143557
0.074725
0.304159
0.500061
0.379129
-0.936631
-0.028612
0.565465
0.412283
0.090630
0.346609
0.023816
0.632331
0.069110
0.038879
-0.789687
-0.615819
0.551518
0.309209
-0.849084
-0.063631
0.354364
0.309182
0.266365
0.015152
-0.154772
0.085238
0.420352
0.097115
-0.096931
-0.178826
0.224994
0.240141
0.480917
-0.348350
0.248795
0.941739
-1.396079
-0.997405
0.087203
-0.176297
0.560880
-0.667762
0.755009
0.682557
0.200884
-0.045651
-0.068823
0.206407
-0.140942
0.847458
-0.478975
-0.591073
-0.117438
-0.495931
-0.267297
0.121263
0.207224
0.058129
-0.331990
-0.286574
-0.728071
-0.054922
0.019800
0.255812
0.053927
0.764872
0.200846
0.159079
-0.540896
0.312424
-0.249428
-0.336663
-0.122260
0.439501
0.896884
-0.400591
0.546624
0.248305
-0.139588
0.194344
-0.007007
0.289385
0.017949
0.474242
0.489851
0.130896
0.988899
0.455199
0.888156
0.248407
-0.492458
0.100493
-0.496950
0.353324
-0.492969
0.020257
-0.099138
-0.187597
0.015586
-0.106999
-0.431897
0.051036
-0.575634
-0.007728
0.183362
0.131871
0.374922
-0.148219
0.539072
-0.385185
-0.177485
-0.549530
-0.827050
0.802129
0.312460
-0.084791
-0.145448
0.183706
-0.081917
-0.095506
0.381521
0.161891
0.172221
0.749623
0.591484
0.280717
-0.159244
0.153456
0.030791
0.680082
0.382566
0.784840
0.077657
-0.644254
0.191920
0.819415
0.519258
0.063886
0.671288
-0.038463
0.357301
0.981874
0.152460
-0.414512
0.487595
-0.042485
-0.020931
0.578656
-0.085320
-0.141424
0.031893
0.593418
0.422307
0.721389
-0.170743
-0.145202
-0.166974
-0.144521
-0.131393
0.125551
0.116923
-0.015650
-0.137354
-0.210604
1.165732
0.099506
0.182854
0.009171
0.338006
0.753087
0.026830
-0.280112
0.211642
-0.317536
0.256095
-0.245213
0.404057
0.320581
0.007821
-0.445498
0.027180
0.125723
0.189806
-0.633868
-0.052625
-0.408750
0.132183
0.336202
0.022426
-0.218139
-0.380633
0.173547
0.783489
-0.101713
0.514625
0.004740
-0.094775
0.282999
0.326624
-0.545642
0.231122
0.180498
0.122183
0.986480
0.037070
-0.285246
0.449055
-0.020148
0.075845
-0.286082
0.640066
-0.503015
0.045603
0.270784
-0.244532
0.246778
0.487204
0.703535
-0.207251
-0.348856
-0.569657
0.217519
0.278765
-0.228598
0.171138
0.364631
0.088664
-0.899273
-0.027766
-0.401765
-0.410806
0.147801
0.507007
0.854679
0.054991
0.043812
-0.745096
0.244164
0.028323
-0.044736
0.976036
-0.101044
-0.489553
-0.415488
-0.237052
0.432865
0.331651
-0.044313
0.561497
-0.165671
0.233690
-0.013102
-0.149348
0.322037
-0.022507
0.066649
0.731166
0.150686
-0.276101
0.109403
0.133656
-0.185239
0.907570
-0.575407
0.545933
0.116940
0.719195
-0.315681
0.465409
0.048101
-0.916493
0.459237
0.423228
0.484020
-0.773374
0.961920
0.438435
-0.359295
0.133730
-0.249228
0.547627
-0.070201
0.529866
0.961319
-0.915363
0.446462
0.779777
0.062779
1.224819
0.067246
0.917408
0.583671
-0.627580
-0.876352
-0.371081
0.867667
0.203879
-0.163965
0.241289
0.656266
-0.364778
0.632563
0.543573
-0.322598
0.581742
-0.237876
0.149842
0.741423
0.363140
0.955194
1.500000
0.675311
0.672338
1.259512
0.290979
-0.513028
-0.544896
0.091141
-1.049895
-0.111695
0.250303
0.270597
-0.004955
0.208139
-0.268638
0.594454
0.930975
0.248711
0.196162
0.212211
0.341632
0.131722
-0.158304
0.327770
-0.094326
-0.298945
0.180963
0.233798
0.307893
-0.370567
-0.030685
0.140328
0.650436
-0.414708
-0.492392
0.254583
0.239139
-0.719243
0.089594
1.018551
0.214079
-0.157825
0.456970
0.012233
0.322574
0.068781
-0.224378
0.316159
0.077252
0.954443
-0.186536
0.042451
-0.498835
0.422991
0.256670
0.575097
0.237959
0.065914
0.244840
0.049224
0.505615
0.781586
-0.440788
-0.385680
-0.367705
-0.046355
-0.126760
0.088378
0.536285
-0.422100
0.209794
0.202749
-0.068864
-0.465232
0.161588
0.461727
-0.124238
-0.032540
-0.712268
-0.023125
-0.457447
-0.082846
0.874801
0.067768
0.085653
-0.295710
0.336480
0.480836
-1.216663
0.235384
0.837705
-0.086564
0.002580
0.275902
-0.690620
0.814214
0.068775
-0.820822
-0.554424
-0.345769
0.826646
0.381699
0.020891
-1.046115
-0.112348
-1.083552
-0.120704
0.425168
-0.162913
0.010830
0.593835
0.259775
-0.321948
-0.178439
0.055938
0.213576
0.190280
-0.110440
0.501133
-0.103778
0.782578
-0.015704
-0.169613
0.324351
0.171452
-0.139064
0.356363
-0.329800
0.124053
0.393160
0.052275
-0.651616
0.467614
0.091363
-0.020128
0.511748
0.141037
-0.019510
-0.360204
-0.040754
-0.540257
-0.412176
0.327923
-1.041730
0.024931
-0.110918
0.086029
0.042570
0.292353
0.106786
1.135772
0.316351
-0.807914
0.107827
-0.750422
-0.424782
0.492363
-0.551414
0.875311
-0.094390
-0.515355
-0.194378
-0.519065
-0.646937
-0.289507
-0.480259
0.658168
-0.042924
-0.204557
0.106504
0.051245
0.026389
-0.103551
-0.042391
0.083552
-0.089357
0.172285
0.216372
0.524519
0.305807
-0.041562
0.103028
-0.255277
0.193158
0.335628
-0.233589
0.513871
-0.324221
0.719541
0.755759
-0.308819
-0.119344
-0.454891
1.204402
0.667877
0.297473
-0.306846
0.390157
-0.245589
0.090545
0.358048
0.055134
-0.773869
-0.404625
0.594882
0.585155
0.003372
-0.618220
0.654024
0.261391
-0.244486
-0.117350
-0.278664
-0.496797
0.447034
-0.678143
-0.509055
0.137522
0.403514
0.306163
0.240688
0.879538
0.672208
1.319325
-0.037122
0.376913
-0.056926
0.387191
1.195747
-1.038533
-1.199782
-0.890778
0.029347
0.404692
0.403558
0.058991
0.454190
0.202171
-0.064067
0.237037
0.170904
0.258922
-0.019563
-0.627254
0.213336
-0.222456
0.681197
0.378101
-0.444010
0.249557
0.205320
-0.332338
0.020293
-0.486206
0.001898
0.087013
-0.419623
0.580106
0.334815
0.789547
0.165991
0.175615
-0.045373
-0.027206
0.311888
0.202458
0.297648
-0.086950
0.001842
0.221908
-1.056161
1.205472
0.373062
1.004370
0.298789
-0.528692
-0.018313
-0.072966
1.026185
0.382583
0.267870
0.079591
0.273675
0.386549
0.798696
0.212565
0.540416
-0.057271
-0.527496
0.230604
0.812205
0.375128
-0.248498
0.219950
1.290061
-0.013998
0.698163
-0.821376
-0.680254
0.393710
0.529133
-0.410088
0.063832
-0.862376
-0.078421
-0.192144
0.529910
-0.409761
0.162493
0.055561
-0.339061
0.469019
0.337024
-0.031854
-0.165005
-0.626452
0.141526
-0.545582
-0.617660
0.047933
-0.758781
-1.471145
0.143660
0.517143
-0.628207
-0.855982
-0.789302
0.221302
0.185262
0.127208
-0.169864
0.941653
-0.348247
-0.610752
0.526299
0.030877
0.270752
0.633642
-0.641897
-0.398356
-0.655158
-0.324265
0.285173
-0.346802
0.288674
-0.026494
-0.155337
-0.131251
-0.038444
0.368906
0.618739
0.145532
0.506059
0.148551
0.194111
0.372477
0.273326
-0.235587
0.166874
0.213698
0.022504
0.606105
-0.284018
-0.123841
-0.363269
-0.022695
-0.014955
0.429779
0.815768
-0.546293
0.242490
-0.210551
-0.315186
-0.179951
0.415621
0.118516
-0.411985
0.094056
0.859041
0.533215
-0.555483
0.517697
-0.089474
0.038130
0.636918
0.184657
0.681311
0.454129
-0.206094
-0.283920
0.648915
-0.370082
0.709841
0.206157
-0.331875
0.695676
0.050883
0.026788
-0.320699
0.343438
0.166643
0.784245
-0.508794
0.151368
0.146361
0.224232
1.151859
-0.500777
0.742889
0.378306
0.280992
-0.121101
-0.361266
0.241712
-0.127812
0.217624
-0.547042
-0.155106
0.561386
0.050436
0.083655
-0.478236
-0.355134
-0.286589
-0.134563
0.399415
1.081849
0.413452
-0.569361
0.046711
0.183468
0.268783
0.237220
-0.307792
-0.053204
1.037706
-0.125599
-0.397780
0.486118
0.265504
0.077252
0.107463
0.170318
0.172485
-1.087314
0.633564
0.275106
1.135404
1.259558
1.157574
0.303760
0.944928
0.437878
-0.434104
0.572701
-0.210390
-0.226229
-0.091959
-0.281205
0.982768
0.160972
-0.101180
-0.115337
-0.497709
-0.836843
-0.270836
-0.882941
0.307770
0.476647
-0.203599
-1.483121
0.447474
0.574055
-0.543989
0.294047
0.200072
-0.734076
0.119750
-0.523355
-0.711075
0.474017
-0.228372
1.203000
-0.464501
0.728636
-0.093374
-0.480611
-0.124570
-0.020953
0.492631
-0.072875
0.121967
-0.201220
0.609686
-0.151903
0.937672
0.782461
-0.053505
-0.584478
0.169900
0.355890
0.655491
0.381352
0.251303
-0.070108
0.103605
1.099972
0.556380
0.088911
0.504570
0.469955
0.490038
0.842678
0.249723
0.214810
-0.513934
-0.077368
-0.743618
0.067159
0.696302
-0.014809
0.949482
0.408445
-0.309798
-0.163720
-0.210509
0.562980
0.044364
0.016400
0.066286
0.086008
0.394647
-0.015772
0.225398
-0.234993
0.074866
0.577467
-0.298522
-0.036309
-0.034743
0.400356
-0.231336
-0.016136
0.112633
0.055440
-0.007414
0.228846
0.124188
-0.585401
0.643081
-0.299322
0.544872
-0.389455
-0.394428
-0.894380
-0.071560
-0.166277
0.463095
-0.078579
-0.538866
0.111910
-0.158001
0.090925
0.068212
-0.623528
-0.332896
0.156756
0.333960
-0.047770
0.534084
-0.339413
-0.726452
-0.151383
0.187175
-0.129332
-0.300693
-0.084401
-0.042044
-0.017297
0.154915
-0.460681
-0.173444
0.478035
0.442262
0.651928
-0.063415
-0.018697
0.771051
0.869480
0.680357
-0.269775
-0.249469
0.642075
-0.091358
-0.009468
-0.262392
-0.033482
0.468088
-0.143597
0.109810
-0.076654
0.102246
-0.606408
-0.164116
-0.355896
0.300165
-0.101740
0.455467
-0.007123
-0.300101
0.274484
0.748329
0.659965
-0.951714
0.111215
0.398962
0.808452
0.054020
-0.030144
0.578819
-0.216588
-0.124058
0.610982
-0.031386
0.694357
0.807504
0.548061
0.167904
-0.429040
0.928653
0.343505
0.070728
-0.551342
-0.056109
0.008294
0.163320
0.268792
0.407541
0.567818
-0.180851
-0.043741
-0.027265
0.124826
0.078630
-0.096366
0.011797
0.572498
-0.045916
-0.030277
-0.156504
-0.589217
0.026789
0.891943
-0.046292
-0.528385
0.522775
-0.300441
0.094987
0.272162
0.062604
-0.467895
0.132467
-0.134582
0.512451
-0.353826
-0.424430
-0.175607
0.108303
0.261606
0.881479
1.236144
0.291545
1.054462
0.570322
0.910015
0.561103
0.355586
-0.264554
0.197341
0.756311
0.405544
-0.574900
0.197839
-0.535908
0.459767
-0.109356
-0.010256
-0.184531
-0.338003
-0.114248
0.018662
-0.146184
-0.157208
0.186617
0.530078
0.536232
-0.479348
-0.112444
0.267901
0.119845
0.016511
1.208843
0.490239
0.105179
0.016104
0.879314
0.359244
-0.034525
0.286381
1.209715
0.948584
0.883536
0.526366
0.920803
0.605796
-0.052866
0.427769
0.738309
0.448636
-0.300160
-0.098518
0.472506
-0.333306
0.577845
0.057137
0.203008
0.491863
0.365838
0.158778
1.246992
0.115135
1.104902
-0.374435
0.328376
0.195411
0.418110
-0.450084
-0.029320
0.530938
0.144744
-0.013487
0.499745
0.112383
0.133438
-0.200624
-0.096054
-0.476789
-0.314592
-0.028921
0.539620
0.357596
-0.345759
-0.149211
0.276159
0.086757
-0.790250
-0.100890
0.145867
0.257970
0.220965
0.378941
-0.014900
-0.069119
0.038659
-0.003446
0.307667
-0.101151
-0.421149
-0.032070
-0.138010
-0.695344
0.834039
0.922562
-0.233203
-0.122670
0.105339
0.411577
-0.454787
-0.085435
-0.687194
0.343929
-0.188362
0.413339
-0.931926
-0.221686
-0.372747
-0.757318
-0.855484
1.075279
-0.776532
0.560605
-0.244141
-0.756493
-0.656706
-0.199392
0.011068
0.630360
0.111517
-0.218785
0.264439
-0.062133
-0.184822
-0.052668
0.581869
0.066287
0.264349
0.310909
0.283255
-0.046117
-0.504908
-0.619530
0.659184
-0.146962
-0.639794
-0.512458
0.210764
0.303007
0.424780
-0.450517
-0.197764
-0.676869
0.028062
0.188507
0.566214
0.298882
-0.734250
0.838704
-0.023639
-0.878333
0.229034
0.350097
0.213242
0.635799
-0.477780
-0.634839
0.290528
0.329084
-0.208272
-0.151194
0.002848
-0.175837
-0.026636
0.077429
-0.478429
0.467542
0.152432
0.359486
-0.058654
0.481005
0.123555
-0.191317
-0.093155
-0.457714
-0.391562
0.188336
-0.059244
0.644164
0.602494
-0.176023
0.340814
0.387852
-0.464864
0.068323
0.133103
0.580754
0.018217
-0.601650
-0.172480
0.613734
0.096431
-0.584557
0.181349
-0.342829
0.101693
-0.667844
0.587958
0.957144
0.031247
0.184684
-0.726228
0.117291
-0.362904
-0.289734
0.267466
-0.166860
-0.039414
-0.497870
-0.435736
-0.383326
0.538319
-0.067639
0.471024
-0.081902
0.030120
0.613197
0.959920
0.722580
0.320706
0.051081
0.330092
0.230202
-0.275719
-0.891302
-0.350437
-0.381680
-0.021815
0.521212
-0.322124
-0.050929
-0.042105
-0.104196
0.167087
-0.578831
0.528908
-0.494290
0.163178
0.881902
0.156815
-0.353246
-0.653065
0.242975
-0.147157
0.008381
0.432959
-0.106184
0.973515
0.117345
0.441507
0.405610
0.146525
0.900592
-0.322610
0.066492
0.731773
-0.000441
0.518384
-0.773434
-0.387855
-0.663939
-0.819518
0.615121
0.132629
0.832214
0.492988
-0.289301
0.028880
0.650844
0.085146
0.095030
-0.704284
0.271040
0.727797
0.775450
0.264545
-0.277616
-0.164176
0.584179
0.104099
-0.085519
0.508796
0.228540
-0.584216
0.539810
0.315279
0.183563
0.030872
-0.096317
0.235777
0.572045
0.261434
0.003661
-0.199843
-0.258587
-0.103705
-0.035080
-0.113825
-0.366370
-0.098922
-0.171499
0.407790
0.531090
0.412293
0.227622
0.216794
-0.268682
0.429488
-0.304556
0.201820
-0.041137
-0.143865
0.204050
0.084965
-0.671196
-0.286548
0.274923
0.149759
-0.230342
0.059994
-0.754448
-0.052217
0.292676
-0.009580
-0.358394
0.571358
-0.184231
0.880577
-0.951355
0.716330
-0.219752
-0.345792
-0.433495
0.471181
0.114421
-0.284789
-0.610708
-0.775203
-0.171909
0.134921
-0.167002
0.760278
0.262265
0.153677
-0.820375
-0.581813
-0.048424
-0.102247
0.726631
-0.665405
-0.704068
-0.582933
-0.949012
-0.503526
0.448906
0.098779
0.371557
0.499006
0.695750
0.068025
-0.700382
-0.535466
0.124249
0.009854
0.604726
-0.072128
-0.438569
-0.536072
-0.196337
-0.435687
-0.080420
-0.334613
0.133578
0.061888
0.549959
0.401415
0.457741
0.160941
-0.146909
-0.672900
0.279241
0.757997
0.203667
0.141122
0.125041
-0.172296
0.464339
0.428589
0.151036
-0.103222
0.819591
0.107106
-0.166787
0.021950
0.001381
-0.371511
0.789465
0.354547
0.106223
0.321949
-0.151108
0.324269
-0.537348
-0.230128
-0.210973
-0.039429
0.386551
-0.207165
0.008895
-0.000620
-1.006458
0.279279
0.692971
0.338457
-0.229992
-0.062871
-0.335110
0.110983
-0.479159
0.332005
0.331935
-0.211651
0.195152
0.200130
0.178214
0.432115
-0.606403
0.814258
0.746220
-0.902229
-0.183361
-0.257546
-0.234396
0.302709
0.665420
-0.162013
-0.336250
-0.191079
0.792856
0.338715
1.309871
0.641645
0.655915
1.137704
0.511589
0.221308
-0.308082
0.336582
-0.288955
-0.081014
-0.475143
-0.219067
0.086367
-0.157775
-0.273585
0.985443
0.436556
-0.377268
0.242370
0.482221
0.052368
0.028481
-0.282856
0.301602
0.041694
-0.477984
-0.255437
-0.289319
-0.680582
0.005841
0.104279
0.270988
-0.339384
0.006669
-0.675248
-1.058812
-0.196884
0.417375
0.181427
0.645371
0.269402
0.109809
-0.547315
0.111011
0.285335
-0.568972
0.272445
0.127563
0.086450
0.652205
0.346226
-0.646365
-0.014529
0.877306
0.031199
0.255264
0.060633
0.864422
0.868697
0.025551
-0.088076
0.742556
0.075226
0.204915
0.841746
-0.516739
0.915169
-0.076522
0.378592
0.270539
-0.220472
-0.185375
0.343102
-0.358773
-0.149710
-0.010791
0.391326
-0.193729
-0.203368
-0.236112
0.383468
0.240510
-0.017265
-0.012313
0.624451
0.264882
-0.670896
0.193223
-0.511420
0.538111
-0.171367
0.465858
-0.323595
0.127487
0.472836
-0.007424
-0.465409
0.298623
0.491822
0.212318
-0.194371
0.359021
-0.158676
-0.389252
0.224567
-0.112468
-0.101323
0.042410
-0.012060
-0.551443
-0.232628
0.168163
-0.086574
0.645630
0.920762
0.246007
-0.529562
0.932989
0.017809
-0.710893
0.254032
-0.687586
-0.023184
-0.132952
-0.562774
-0.160063
-0.466685
0.242248
-0.502279
-0.112863
0.010638
-0.364953
0.642845
-0.689448
-0.282998
0.057772
0.525999
1.038211
-0.384189
-0.010546
-0.078484
0.155784
-0.482547
-0.656227
0.219334
0.494592
0.560366
-0.418041
-0.270800
0.829882
0.877163
0.293445
0.609197
-0.300966
-0.561965
0.504761
-0.130117
0.469735
-0.103444
-0.019895
0.168157
0.318094
-0.006291
0.036615
1.474158
0.485517
0.228070
0.721550
0.910318
-0.584945
-0.567813
0.252976
0.158266
0.267291
0.216491
-0.109326
-0.417152
0.943490
0.426996
-0.176102
-0.136254
0.037757
-0.418989
0.197818
-0.163654
-0.025385
-0.102508
0.880328
-0.633463
0.198576
-0.010265
-0.018305
-0.654425
-0.517269
0.432247
1.324147
0.112627
-0.090543
0.888335
0.530739
0.407447
-0.024886
0.476166
0.278851
0.139018
0.039017
-0.091446
-0.419013
0.062537
-0.256226
0.176099
-0.458795
0.269377
-0.102840
0.075966
-0.079777
0.688443
0.267606
-0.257537
-0.747661
-0.271994
0.996232
0.224573
0.805848
0.829628
-0.225982
1.453722
0.710934
-0.050549
0.005180
0.741756
0.419830
0.404494
0.104413
0.157522
0.147526
-0.993349
-0.317926
0.490465
0.173877
0.396302
0.095103
0.055722
-0.304154
-0.071198
0.275854
0.465106
0.035197
0.647457
0.105549
0.132702
0.093718
-0.633483
0.752889
-0.030409
0.585860
-0.064741
0.019654
-0.614279
0.171960
0.044832
0.094850
0.296922
0.768707
0.759736
0.469832
0.075587
0.676833
0.104385
-0.044761
0.124527
0.009555
1.127171
0.556208
0.787624
0.555423
0.469207
0.304267
-0.105599
0.356197
-0.348984
0.578062
-0.220647
0.581972
1.386184
0.363755
0.380121
0.076220
0.962316
0.667492
1.407292
0.418383
0.476365
-0.252209
1.024769
-0.018851
0.986064
-0.448062
-0.210898
0.358799
-0.048065
0.455469
-0.484209
-0.083064
-0.490570
0.119832
-0.240702
0.270582
0.267610
-0.515865
-0.704025
0.714813
-0.415083
0.758236
0.901121
-0.110501
-0.083327
0.573081
0.682366
0.265704
0.209035
-0.023808
-0.481003
0.645943
0.235230
0.255263
0.178923
0.427337
0.551834
0.223026
0.260739
0.013738
0.396740
0.785730
0.643674
0.271001
-0.449449
0.469392
0.115667
-0.200171
-0.521218
0.456724
0.296514
-0.108871
0.272631
-0.298405
-0.452724
0.391189
0.851004
0.027639
0.188015
0.149798
-0.069693
-0.149773
-0.583626
-0.153283
0.534368
0.256312
-0.165951
0.477764
0.550224
0.443402
-0.188561
0.708287
0.101587
0.393532
-0.602179
0.591849
0.006362
0.740179
-0.183662
-0.225093
0.506787
-0.147303
0.616632
0.339185
-0.468377
-0.460921
0.132341
0.115628
0.185440
-0.505469
-0.139435
0.133437
-0.414267
-0.000808
-0.131591
-0.351923
0.466383
0.091466
0.569068
-0.705626
-0.184261
0.108051
-0.597755
-0.159228
-0.280086
-0.682131
-0.210470
-0.022948
-0.558474
0.140154
0.966497
0.165807
-0.011642
-0.551055
0.134962
-0.492601
-0.394440
-0.056154
0.625429
0.039415
-0.074842
-0.310762
0.206678
0.979878
-0.178110
0.937330
-0.112882
0.613114
-0.130079
-0.012951
-0.049288
0.095549
-0.412758
-0.443703
0.116890
-0.283173
0.878084
0.255969
-1.144518
-0.036562
1.022082
0.423346
-0.115465
0.256072
-0.305759
0.250349
0.212110
1.098297
0.202013
0.095816
-0.395747
-0.579308
0.378928
0.572443
0.107693
0.584631
1.142976
0.700416
0.220320
0.932452
0.737475
-0.352798
-0.329881
-0.844196
-0.704424
-0.241172
0.300117
-0.158749
0.264694
0.472584
0.166195
-0.173274
-0.779765
0.012233
-0.541782
0.151170
0.049704
-0.372300
0.423169
0.345342
-0.894377
0.524936
-0.461768
0.384169
-0.348472
-0.015709
-0.499781
-0.332728
-0.413451
-0.051335
0.410531
0.063637
0.706807
-0.007410
-0.583082
0.317015
0.709921
0.247798
0.691682
0.669465
0.517464
0.510475
1.002952
-0.295027
0.583634
-0.431454
-0.406185
0.648939
0.235478
1.187909
0.476191
-0.355935
0.649362
0.145549
0.710919
-0.252873
0.314725
0.777415
0.693921
-0.716547
0.454690
-0.728605
0.890653
0.249275
0.378293
-0.072780
-0.211976
-0.290257
-0.143686
0.093388
-0.352201
0.232462
0.524097
1.225726
-0.387607
0.519072
0.456946
-0.130478
-0.182881
-0.161491
0.109453
0.435414
-0.092491
-0.186194
-0.375025
-0.080741
-0.405409
0.584571
-0.645232
-0.504198
-0.366655
-0.005402
0.111744
0.472687
0.046294
-0.438828
-0.504937
-0.229299
-0.187218
-0.511198
0.126679
0.257824
0.632004
0.862499
0.208688
0.300967
-0.106664
0.398814
-0.598917
0.018299
0.191037
-0.302380
-0.655757
0.012822
0.837540
0.081416
0.050438
0.043535
-0.727488
0.032641
-0.394825
0.125943
0.005897
-0.228145
-0.380660
-0.319944
0.166823
0.229209
-0.296688
-0.292282
-0.101923
-0.631262
-0.015934
-0.076693
0.361050
-0.146175
0.363960
-0.709219
0.114682
0.762011
-0.147756
0.475586
0.643389
-0.658799
0.103097
0.062309
-0.344807
0.458659
0.154848
-0.225722
-0.491161
-0.132773
-0.567790
-0.341620
0.251643
-0.229553
0.155723
-0.975931
-0.251463
0.106159
0.431500
0.234588
-0.390456
0.615388
0.542399
0.100858
-0.177139
0.832897
0.465035
0.145493
0.099093
-0.065619
0.143032
-0.026029
-0.086595
-0.411134
-0.231142
0.134086
-0.157294
0.164692
0.556131
0.564314
0.333094
-0.147342
0.513654
0.088162
-0.186012
0.664790
0.181659
0.263369
-0.129779
-1.002437
0.494213
-0.226800
0.389371
0.200723
-0.189404
-0.041126
-0.320317
-0.823758
-0.481046
-0.058177
0.635978
-0.168228
-0.020464
-0.491739
-0.110103
-0.478687
0.313884
-0.508248
-0.441405
0.304791
0.369369
1.171561
-0.042962
-0.530911
-0.009564
-0.626865
0.937622
0.769478
0.374975
0.331102
0.897633
0.654458
0.121889
0.170732
-0.664882
-0.927258
-0.515828
-0.660403
-0.034056
-0.396732
-0.699860
-0.223937
-0.972306
-0.224008
0.014905
-0.309584
0.319189
0.005491
0.082565
0.898171
0.200190
-0.482631
1.210501
0.882188
0.539810
0.104740
-0.574962
0.264269
0.517104
-0.313754
-0.415914
0.996999
-0.429404
-0.072759
0.066130
0.512014
0.152191
-0.105144
0.540957
-0.244847
0.713612
0.524507
0.145528
-0.261735
-0.492255
0.428825
0.052931
0.501202
0.336066
0.354153
0.981793
0.148636
0.505485
0.516341
0.433810
-0.391862
-0.018397
0.577941
0.031977
0.767843
0.573624
0.206993
0.272992
0.604968
-0.255945
0.480685
-0.209635
0.508548
0.356632
0.073770
-0.512886
0.159446
0.793163
0.039083
-0.894459
-0.333571
-0.519799
0.812045
-0.085946
-0.357798
-0.187524
0.203263
-0.999427
0.424054
0.169018
-0.017752
0.048560
0.015710
-0.363596
0.410760
0.211927
0.219604
0.039158
-0.119057
0.478900
-0.359943
0.017646
0.235471
0.446673
0.534988
0.251533
-0.322888
-0.172332
0.005622
-0.243103
0.173994
-0.185600
0.412380
-0.593310
0.028534
-0.104904
0.669433
-0.374718
0.422362
-0.032261
0.213557
-1.028249
0.235011
-0.050701
0.368910
-0.469329
-0.315750
-0.489842
-0.194922
-0.715700
-0.108402
-0.289380
0.059273
-0.028183
0.096088
-0.220347
-0.402861
-0.611132
-0.425787
0.634644
-0.530050
-0.236145
-0.592010
0.142256
0.064759
-0.042194
0.514836
0.009046
0.391283
0.264642
0.307950
-0.002586
-0.520390
0.018585
0.447838
-0.216165
-0.478106
-0.118146
-0.495856
0.233846
-0.571052
-0.686685
0.683073
-0.471343
-0.675436
0.367274
0.307154
0.530666
-0.370204
-0.206057
-0.304037
-0.381437
-0.906242
-0.609726
-0.029632
-0.418338
-0.970184
0.440259
-0.006282
0.606816
-0.130192
-0.211380
-0.546611
-0.257776
0.640405
0.365233
-0.024660
0.221987
-0.134802
0.344580
0.359386
-0.081474
-0.656315
0.266148
0.192335
-0.495287
0.684408
-0.364598
-0.651359
0.372459
0.063340
-0.014794
-0.135094
0.435930
-0.010597
0.151025
-0.649003
-0.361908
-0.072221
0.304760
0.610798
0.160850
0.565670
-0.080712
-0.085734
-0.112574
-0.126124
0.640378
0.390716
-0.007011
0.157606
0.897939
0.656991
0.053813
0.050959
0.437613
1.209301
0.980757
0.607599
0.130539
0.488585
-0.038548
-0.206278
-0.016665
-0.415502
-0.316390
0.080037
-0.953445
-1.053276
-0.012130
0.278168
0.259829
0.323694
0.325887
-0.273007
0.616588
-0.461663
-0.263897
0.142826
0.475452
-0.149069
-0.282549
-0.691922
0.553310
0.735727
0.349361
0.210020
0.073360
0.169063
-0.277704
-0.171626
0.110074
-0.259405
0.211395
0.476778
0.273723
0.070871
0.614327
0.111887
-0.041163
0.393365
-0.008847
1.069295
0.150258
0.925281
0.592161
1.131740
0.191693
-0.070348
-0.017907
0.048001
-0.384636
0.657929
0.875535
0.611112
0.606774
0.717847
0.428567
-0.108179
0.096835
0.537786
1.098874
0.946175
0.438792
0.369330
0.741517
1.118151
0.704119
0.606158
0.792857
-0.571499
-0.187814
0.214705
-0.130463
-0.273705
-0.313900
0.455019
0.184851
-0.452647
0.718216
1.180503
0.621879
0.293101
0.002200
0.248412
0.523261
-0.277727
0.133578
-0.248275
-0.295618
0.464839
-0.301356
0.240585
-0.062319
0.103936
-0.437510
0.582191
0.342322
0.185477
0.635784
0.132147
-0.859487
-0.407728
0.175552
0.513346
-0.650381
0.304665
0.277920
-0.070784
0.147899
0.558452
0.977745
0.051799
0.358606
0.376427
0.175017
0.908716
-0.301787
0.006435
0.242581
0.665318
-1.046717
-0.561200
0.126164
0.366297
0.303729
0.008011
-0.329133
0.416736
0.478230
-0.312341
0.236150
0.281859
-0.118667
0.324242
-0.632705
-0.325042
0.307747
0.619073
-0.250711
0.175015
0.317995
-0.159694
-0.297587
0.442425
-0.453450
0.140060
0.160670
-0.235412
0.617649
-0.248682
0.199691
-0.231946
-0.204886
-0.695381
0.021772
0.515617
0.663777
0.221839
-0.350531
0.191675
-0.236233
-0.407027
0.220405
0.250386
0.336848
-0.213474
-0.130836
-0.056672
