-0.014292
-0.043925
0.025396
0.029332
0.031620
-0.012069
-0.040169
0.044054
-0.001482
-0.096681
0.061961
0.057166
-0.026546
0.030946
0.014173
-0.002438
-0.031975
0.074464
0.046377
0.025899
0.040870
0.054497
0.013109
0.025511
0.122297
0.061383
0.119126
0.205038
0.059961
0.161600
0.217583
0.191362
0.148104
0.328696
0.181285
0.184370
0.118492
0.231999
0.262718
0.245747
0.235898
0.159435
0.124381
0.181140
0.161958
0.120948
0.142698
0.150919
0.160079
-0.006742
0.115917
0.065682
0.016847
0.090164
0.078862
0.083357
0.127459
0.056619
0.066001
0.061010
0.020503
-0.028878
-0.044374
0.055239
0.092807
0.115399
0.227297
0.293356
0.527589
0.904745
1.129409
1.392175
1.400228
1.221380
0.795046
0.495183
0.187102
-0.132766
-0.206267
-0.083910
0.007283
0.013676
-0.055413
0.030443
0.077176
0.125878
0.103274
0.114604
0.138789
0.076638
0.158404
0.136830
0.198290
0.163753
0.274722
0.304480
0.341542
0.321087
0.295572
0.282923
0.358314
0.314082
0.428668
0.464024
0.431886
0.497008
0.430041
0.471145
0.459698
0.605966
0.543554
0.463785
0.594559
0.612056
0.596004
0.549691
0.623096
0.556293
0.593325
0.543868
0.610006
0.522161
0.558875
0.549158
0.582527
0.535173
0.446229
0.418238
0.470280
0.437749
0.351058
0.419421
0.342807
0.359205
0.304533
0.332789
0.211273
0.340241
0.275863
0.228020
0.241035
0.168138
0.182069
0.151370
0.140447
0.150027
0.150052
0.092004
0.097110
0.090012
0.136342
0.111528
0.116159
0.058290
0.093275
0.113271
0.082443
0.145436
0.123875
0.161160
0.073783
0.186235
0.154304
0.105224
0.043527
0.152136
0.029445
0.107698
0.080810
0.089848
0.153636
0.040116
0.123213
0.041158
0.059701
0.121292
0.075794
0.079590
0.174747
0.109249
0.019885
0.171840
0.100821
0.159122
0.070796
0.062669
0.006616
0.073934
0.092168
0.056671
0.108016
0.103138
0.119421
0.164771
0.125225
0.136858
0.110509
0.087920
0.075993
0.164034
0.192194
0.145768
0.119457
0.170951
0.221143
0.223120
0.144985
0.183475
0.237633
0.188932
0.263207
0.342790
0.253430
0.343318
0.312651
0.342836
0.337169
0.302196
0.306484
0.173647
0.195965
0.142657
0.272616
0.181856
0.166285
0.112959
0.175542
0.199478
0.104730
0.088780
0.148538
0.122936
0.079999
0.149085
0.208605
0.118022
0.180193
0.087565
0.126206
0.004587
0.113822
-0.042699
0.044895
-0.011664
0.168071
0.278972
0.461386
0.720449
1.064100
1.328585
1.450948
1.434311
1.148717
0.649483
0.428257
0.213584
-0.076368
-0.020120
0.008774
-0.046576
0.021002
0.083416
0.075060
0.183277
0.131984
0.149123
0.134307
0.126750
0.143030
0.166544
0.235637
0.206219
0.256571
0.236210
0.254948
0.270285
0.298161
0.268472
0.314544
0.420202
0.379129
0.342155
0.433643
0.439043
0.569745
0.564820
0.480080
0.608210
0.524158
0.551857
0.655063
0.626951
0.574237
0.602176
0.607621
0.566612
0.589297
0.539885
0.577283
0.526722
0.555016
0.524481
0.583078
0.488778
0.515076
0.447840
0.455692
0.478341
0.369713
0.409304
0.345087
0.372345
0.337616
0.285242
0.254876
0.278614
0.263466
0.265217
0.187613
0.221256
0.232422
0.196077
0.196569
0.190322
0.153787
0.041020
0.065878
0.062225
0.081475
0.085393
0.123947
0.148170
0.142157
0.046148
-0.016046
0.108695
0.183264
0.022378
0.054341
0.058475
-0.023005
0.076762
0.118671
0.095438
0.074477
0.078834
0.085166
0.040930
0.188767
0.035381
0.012118
-0.056465
0.016757
0.011935
0.117601
0.059543
0.033404
0.045937
0.052374
0.029177
0.037742
-0.027131
-0.026720
-0.021301
0.066538
0.040255
0.042722
0.037178
0.076335
0.051127
0.108821
0.018414
0.044533
0.045013
0.040633
0.102006
0.061011
0.012373
0.183250
0.073212
0.125320
0.057962
0.037306
0.145184
0.115630
0.119692
0.173428
0.090919
0.197070
0.170706
0.155222
0.148966
0.176351
0.263838
0.159075
0.202704
0.208548
0.149319
0.142111
0.152704
0.094593
0.165873
0.184948
0.175514
0.092458
0.105928
0.039546
0.107050
0.088368
0.074871
-0.006990
0.026089
0.075945
0.065224
0.088288
0.048986
0.080595
-0.009297
0.044011
0.056457
0.048738
0.025132
0.077855
0.091594
0.334042
0.486865
0.779263
1.180463
1.311746
1.294764
1.250437
0.769408
0.444545
0.116046
-0.120146
-0.213870
-0.223337
-0.044268
-0.111300
-0.036070
-0.034115
0.006246
0.131518
0.035033
0.045533
0.108113
0.130116
0.061623
0.127707
0.086483
0.187856
0.163927
0.171236
0.184421
0.211861
0.243697
0.232326
0.277963
0.237240
0.304040
0.349870
0.369299
0.372538
0.382785
0.376397
0.421120
0.500872
0.381214
0.456611
0.476698
0.433121
0.427324
0.554767
0.515601
0.577212
0.499691
0.459755
0.489719
0.473334
0.473583
0.457258
0.405127
0.474949
0.367566
0.371307
0.400750
0.311891
0.300941
0.287517
0.321110
0.338912
0.176472
0.231062
0.205009
0.174900
0.192710
0.118107
0.089976
0.165086
-0.002186
0.082251
-0.056312
0.012285
0.115659
0.057527
-0.003231
0.076444
-0.020431
-0.056685
0.068608
0.014614
-0.093409
-0.054160
0.000506
-0.026212
0.030082
0.038846
-0.045902
0.037721
-0.047668
0.005631
0.030883
-0.027867
-0.043957
-0.012921
-0.009886
-0.018112
-0.049895
-0.035832
-0.002225
-0.055476
-0.026483
-0.119536
-0.064283
-0.033210
-0.026963
-0.080284
-0.039508
0.011663
-0.020280
-0.056906
-0.082915
-0.115239
-0.056521
-0.067349
-0.009578
-0.006258
-0.014925
-0.033297
-0.067735
-0.108475
-0.054659
0.037317
0.101538
0.090777
-0.010972
0.059153
0.064529
0.104656
0.036090
0.040741
0.058683
0.055343
0.089167
0.088101
0.100333
0.109714
0.131453
0.175910
0.139868
0.164963
0.118727
0.127666
0.130541
0.112007
0.091470
0.149495
0.131339
0.109523
0.083428
0.064992
0.091054
0.004183
0.050683
0.022048
0.037021
0.031045
-0.016713
-0.012548
0.021358
-0.043873
0.005396
-0.110167
-0.024434
0.006106
-0.035981
-0.028895
-0.052186
-0.082896
-0.049698
-0.047114
0.030893
0.206811
0.286984
0.576862
0.913699
1.184276
1.306699
1.239791
1.032531
0.672313
0.312390
-0.017306
-0.121375
-0.219109
-0.167314
-0.120810
-0.045611
-0.042194
0.001127
-0.009622
0.011152
0.101048
-0.023254
0.063291
0.062277
0.014027
0.137957
0.104354
0.088041
0.125008
0.185923
0.205141
0.154364
0.073659
0.271139
0.262176
0.302679
0.265780
0.266186
0.414248
0.306429
0.448028
0.419620
0.375504
0.458014
0.452312
0.445678
0.401170
0.416703
0.402372
0.525526
0.430087
0.492532
0.473801
0.441279
0.515046
0.456811
0.515728
0.403903
0.487361
0.449271
0.422934
0.394005
0.355670
0.331883
0.314770
0.336661
0.293794
0.321548
0.199006
0.176094
0.226242
0.141410
0.045502
0.219210
0.133126
0.006046
0.015572
0.091124
0.119433
0.112290
0.036856
0.092079
-0.000418
-0.035905
0.012542
0.034262
-0.074944
-0.055257
-0.055184
0.054404
-0.016457
-0.004908
-0.007104
-0.036082
-0.062657
0.044541
0.013143
-0.065198
0.052526
-0.031931
0.033097
-0.041380
0.056860
0.025035
-0.045960
-0.034854
-0.022085
0.011334
0.046466
0.027860
0.041767
-0.064074
-0.007946
-0.033622
-0.023786
0.031444
0.076971
0.043447
0.039459
0.088486
0.004838
0.105959
-0.036181
-0.002738
0.029624
0.026283
0.040418
-0.010618
0.041918
0.060781
0.084694
0.094487
0.006228
0.068181
0.074295
0.051010
0.173848
0.136627
0.058217
0.187905
0.116635
0.219104
0.165428
0.150406
0.156519
0.128957
0.207515
0.155156
0.168774
0.185510
0.150749
0.156718
0.197272
0.173386
0.113512
0.260415
0.190101
0.159865
0.115128
0.097196
0.147374
0.108149
0.150924
0.043011
0.136354
0.052087
-0.017233
0.055662
0.089497
0.077089
0.061544
0.043608
0.032865
0.033335
0.010833
0.060004
-0.011847
0.046996
0.167102
0.261436
0.497557
0.801966
1.152598
1.337102
1.440395
1.272507
0.951996
0.619045
0.264798
-0.052330
-0.158088
-0.121365
-0.115778
-0.067702
0.003971
0.106162
0.113854
0.125110
0.067684
0.110065
0.058605
0.147706
0.108601
0.187378
0.173948
0.240615
0.196987
0.253325
0.244235
0.253703
0.270400
0.378689
0.295468
0.362474
0.375364
0.432329
0.425157
0.530632
0.530191
0.463364
0.431682
0.542759
0.535863
0.604405
0.505576
0.486329
0.578084
0.701733
0.625202
0.596362
0.548720
0.545760
0.575384
0.462824
0.487583
0.610199
0.607944
0.541094
0.506800
0.376941
0.396521
0.502187
0.467193
0.436991
0.394823
0.407899
0.323346
0.225068
0.315694
0.174635
0.257470
0.303968
0.311200
0.184242
0.237210
0.180432
0.178012
0.107646
0.162855
0.129469
0.151137
0.109246
0.120221
0.111328
0.082216
0.168724
0.073443
0.092387
0.117624
0.138440
0.103465
0.139714
0.113113
0.060100
0.106943
0.050804
0.103089
0.129806
0.121949
0.063958
0.056475
0.028574
0.145861
0.138204
0.056806
0.080768
0.131447
0.068258
0.128698
0.092872
0.100667
0.102904
0.059258
0.106867
0.093988
0.080392
0.096809
0.159105
0.114321
0.119611
0.105449
0.181101
0.127611
0.127049
0.102981
0.082781
0.073273
0.157301
0.137555
0.143661
0.180777
0.045003
0.120336
0.148321
0.231194
0.198785
0.218072
0.149249
0.282345
0.215843
0.209968
0.189977
0.270384
0.316061
0.189934
0.358854
0.279751
0.294335
0.251787
0.329048
0.248099
0.257674
0.263020
0.190547
0.231240
0.241203
0.250998
0.226901
0.206841
0.186329
0.191052
0.153141
0.165420
0.075568
0.132785
0.131036
0.146887
0.096842
0.177501
0.152820
0.162811
0.038398
0.072203
-0.026871
0.107268
0.046322
0.137176
0.287338
0.444726
0.729422
0.941177
1.347447
1.414845
1.399492
1.251917
0.871490
0.463710
0.233633
-0.005111
-0.079646
-0.047689
0.022591
0.004052
0.132970
0.085612
0.174499
0.085815
0.171336
0.196671
0.182864
0.269650
0.216032
0.209788
0.241241
0.256532
0.279646
0.197243
0.244380
0.384530
0.284272
0.417415
0.346922
0.323612
0.402978
0.371600
0.427709
0.540908
0.493211
0.472597
0.567064
0.505673
0.555009
0.543955
0.563034
0.583008
0.603412
0.643008
0.694526
0.553316
0.639524
0.538372
0.611336
0.601341
0.539583
0.549729
0.478849
0.418941
0.591132
0.440740
0.414249
0.320960
0.360961
0.371669
0.381280
0.381176
0.242622
0.316368
0.350520
0.267805
0.226370
0.244119
0.337171
0.230484
0.113308
0.103957
0.132664
0.204103
0.097686
0.163124
0.070229
0.081124
0.062791
0.128544
0.104268
0.154202
0.022345
0.103065
0.030047
0.013395
0.050834
0.066600
0.117150
0.069302
0.103488
0.031049
0.112641
0.035814
0.021267
0.014337
0.065927
0.079413
0.023202
0.038248
0.026003
0.093213
0.076919
0.094474
0.015990
0.053516
0.078066
0.006267
0.028932
0.022762
0.042909
0.093114
0.002695
0.088385
0.062397
0.045161
0.119393
0.003764
0.050461
0.126629
0.068405
0.083019
0.049538
0.062582
0.087818
0.076769
0.140297
0.112932
0.055146
0.133645
0.107198
0.145943
0.144219
0.143896
0.140582
0.198056
0.214025
0.177810
0.178240
0.213043
0.166631
0.240739
0.205883
0.220148
0.208764
0.201128
0.182439
0.246439
0.105633
0.198012
0.251844
0.173185
0.181713
0.165639
0.129627
0.150399
0.066195
0.090630
-0.013325
0.050237
0.064404
0.046452
0.063572
0.021939
-0.040665
-0.003705
0.026095
0.020509
-0.007160
-0.120560
-0.042137
0.054781
0.107016
0.112400
0.499978
0.666514
1.029293
1.317973
1.328351
1.241263
1.011991
0.651477
0.236636
0.006856
-0.148837
-0.136976
-0.138703
-0.067031
-0.022273
0.003325
0.159866
0.032741
0.112893
0.067898
0.179351
0.006082
0.105217
0.134076
0.120022
0.121347
0.166789
0.170258
0.211450
0.194550
0.260053
0.241792
0.276409
0.330260
0.409678
0.336676
0.299210
0.433310
0.387359
0.442653
0.369625
0.487087
0.438430
0.447584
0.582769
0.424982
0.458106
0.534678
0.494502
0.487811
0.482736
0.448954
0.428284
0.464154
0.357417
0.502813
0.393401
0.483011
0.405893
0.332047
0.317895
0.376870
0.406637
0.306851
0.255385
0.204896
0.264564
0.257421
0.204175
0.153797
0.202834
0.185231
0.064650
0.115225
0.169490
0.154229
0.047972
0.119766
0.056294
-0.012342
-0.044895
0.051691
-0.012971
0.047952
-0.048754
0.019840
-0.059693
-0.003245
-0.014057
-0.094088
0.042544
0.020639
-0.041123
-0.095958
-0.080975
-0.072675
-0.058787
0.008687
-0.116273
-0.021189
0.025286
-0.069085
-0.111504
-0.042798
-0.047873
-0.063738
-0.085249
-0.062875
-0.043418
-0.009486
0.006348
-0.094075
-0.066299
-0.063129
-0.056715
-0.032334
-0.080473
-0.024144
-0.091210
-0.207984
-0.052519
-0.051613
-0.068482
-0.052361
-0.065415
-0.074915
-0.046182
0.056789
-0.005855
-0.025487
-0.076148
-0.087491
-0.009965
0.028652
0.012991
0.021155
0.033887
0.086508
0.068899
-0.004298
0.110200
0.119532
0.119594
0.117348
0.225687
-0.011391
0.062673
0.081697
0.079132
0.097578
0.057459
0.059691
0.036491
0.029545
0.083886
0.080233
0.083518
-0.043662
0.043128
0.018148
-0.069636
0.020353
-0.015044
-0.071001
-0.062893
-0.020260
-0.030124
-0.027818
-0.075950
-0.036452
-0.114979
-0.025259
-0.054398
-0.068831
-0.085739
-0.090152
-0.022703
0.052639
0.106517
0.497588
0.839878
1.057540
1.259645
1.327481
1.103873
0.736589
0.406460
0.054498
-0.098001
-0.278105
-0.214959
-0.234792
-0.107270
-0.024173
-0.054175
0.071550
-0.034360
-0.009925
-0.031606
0.014366
0.014518
0.019307
0.107058
0.027687
0.048647
0.149689
0.095018
0.102791
0.113603
0.090889
0.173550
0.205393
0.255609
0.257950
0.372148
0.342096
0.297878
0.318458
0.326819
0.379580
0.385801
0.408357
0.443927
0.391202
0.428942
0.358680
0.404187
0.437579
0.443422
0.485541
0.493020
0.445069
0.469274
0.453614
0.376342
0.396497
0.341569
0.324581
0.298451
0.304627
0.297645
0.249426
0.202204
0.191822
0.264305
0.190576
0.223813
0.144348
0.058337
0.142162
0.155123
0.100276
0.026782
-0.008767
0.048113
0.012601
-0.014778
0.022189
-0.088573
-0.083045
0.037145
-0.022313
-0.047086
-0.099015
-0.018542
-0.073341
-0.061175
-0.099594
-0.064462
-0.016440
-0.100774
-0.028164
-0.065296
-0.055204
-0.082706
-0.072662
-0.098789
-0.082661
-0.087951
-0.014872
-0.107953
-0.039576
-0.023764
-0.126031
-0.058770
-0.019001
-0.090411
-0.142563
0.015256
-0.036178
-0.053447
-0.000240
-0.129296
-0.114977
-0.006651
-0.109747
-0.107364
-0.039939
-0.009372
-0.064536
-0.087631
-0.081186
0.014944
-0.138618
0.016907
-0.032376
-0.005764
-0.039889
-0.112785
0.005424
-0.057531
-0.014959
0.002219
0.072989
-0.030369
0.052057
0.129878
0.069595
0.017675
0.128642
0.059050
0.105826
0.150269
0.153578
0.096606
0.025949
0.113438
0.122990
0.124815
0.117179
0.157320
0.116868
0.112823
0.068266
0.009910
0.039480
0.052009
0.064107
0.019215
0.007320
0.030403
0.120240
-0.049027
0.018712
-0.025067
0.018905
-0.015603
0.007201
-0.053389
-0.043783
0.011769
-0.077091
0.043003
0.000467
-0.030748
0.058053
0.162877
0.338309
0.704398
0.930329
1.192517
1.355109
1.195329
0.964311
0.645775
0.183945
-0.008247
-0.166061
-0.203539
-0.168003
-0.097184
-0.113865
0.004608
-0.061834
0.078920
0.113571
0.051928
0.152509
0.105553
0.118482
0.111057
0.133008
0.174415
0.184322
0.139744
0.227924
0.219289
0.212811
0.213980
0.269010
0.301582
0.429527
0.360420
0.420688
0.386715
0.382935
0.474834
0.473934
0.444604
0.429296
0.486968
0.524135
0.414600
0.519074
0.516326
0.523729
0.526473
0.536888
0.460224
0.562866
0.522030
0.462719
0.531058
0.431622
0.466057
0.404371
0.425536
0.371033
0.365455
0.366341
0.322281
0.329062
0.314802
0.256566
0.359882
0.199814
0.207224
0.267273
0.088706
0.186700
0.163302
0.188999
0.111616
0.057596
0.151236
0.160008
0.127841
0.047323
0.109402
0.093272
-0.009042
0.084011
0.033155
-0.023975
0.043362
0.044205
0.073102
0.034657
0.099510
0.007205
0.001816
0.039274
0.065945
0.066395
-0.002669
0.032415
0.059807
-0.012727
0.052286
0.092806
0.002227
-0.026336
-0.037878
-0.063556
0.029906
-0.033350
0.125320
-0.013044
-0.029168
0.025927
0.032567
0.025546
0.098092
0.021497
0.064671
0.075806
-0.023921
-0.003729
0.057390
-0.006228
-0.010623
0.040959
0.070504
0.083972
0.020408
0.075865
0.170488
0.031940
0.057921
0.074745
0.145842
0.185055
0.120469
0.038335
0.241825
0.150376
0.163013
0.221932
0.177866
0.187159
0.142845
0.206171
0.172398
0.214523
0.251550
0.206430
0.273587
0.218190
0.165150
0.241311
0.181098
0.206384
0.195218
0.134158
0.146544
0.093894
0.071934
0.156558
-0.000084
0.026197
0.082362
0.044646
0.068530
0.041648
0.044233
0.097843
0.140029
0.075026
0.042716
0.054875
-0.014560
0.116306
0.119240
0.036063
0.210869
0.283123
0.598963
0.809551
1.200671
1.368363
1.500000
1.180950
0.925883
0.570347
0.282917
0.009250
-0.134806
-0.222258
-0.016216
-0.010339
0.025055
0.095661
0.176017
0.135240
0.110031
0.160948
0.098627
0.170923
0.147439
0.138814
0.169947
0.227371
0.212133
0.268916
0.287628
0.247083
0.269761
0.350610
0.315968
0.299369
0.406609
0.368070
0.418106
0.499540
0.427581
0.474575
0.495617
0.481173
0.552122
0.521997
0.562463
0.516654
0.604334
0.559484
0.548123
0.541745
0.603226
0.554778
0.513631
0.556555
0.563289
0.504896
0.493841
0.445910
0.436741
0.397036
0.467725
0.408694
0.385266
0.452485
0.337886
0.311307
0.342967
0.213527
0.254798
0.260361
0.209977
0.207151
0.177924
0.159913
0.116692
0.169040
0.103168
0.147426
0.119078
0.069389
0.185198
0.060124
0.071800
0.084374
0.071683
0.033965
-0.009806
0.037518
0.078336
-0.002457
0.079357
0.004101
0.104515
0.061686
-0.014237
0.092399
0.087520
-0.065832
0.086269
0.058444
0.110697
0.017374
0.082342
-0.026747
-0.018345
0.036814
0.079227
-0.009046
0.049400
-0.026181
0.001200
0.024214
0.035383
0.084404
0.026082
0.086984
0.032397
0.058055
-0.003690
0.068444
-0.036617
0.064186
0.011865
-0.032587
0.006442
0.048115
0.011002
0.089046
0.079335
0.061288
0.113840
0.132797
0.010186
0.080588
0.096430
0.077327
0.129413
0.138415
0.123906
0.108132
0.156616
0.085272
0.170752
0.200394
0.189575
0.196218
0.212394
0.159059
0.224350
0.205341
0.215656
0.120621
0.172764
0.129982
0.075991
0.139840
0.063384
0.095868
0.039459
0.095414
0.118808
0.145676
0.082746
0.059997
0.081255
0.005593
0.000817
-0.029711
0.023147
-0.037872
-0.030372
0.047902
-0.031572
0.049621
-0.036707
-0.026377
0.082806
0.150612
0.346477
0.670544
0.994253
1.157328
1.318347
1.236944
1.080070
0.723781
0.305710
0.126751
-0.099861
-0.248565
-0.145007
-0.103941
-0.063449
0.050247
0.020491
0.069571
-0.000708
0.052761
0.105686
0.086390
0.053477
0.087910
0.174418
0.120454
0.213704
0.218980
0.129157
0.194050
0.169198
0.230767
0.179861
0.142060
0.265410
0.368361
0.321089
0.353840
0.408542
0.401931
0.437228
0.427482
0.403813
0.452132
0.434308
0.447833
0.470235
0.457117
0.408646
0.494967
0.534303
0.441109
0.519828
0.489731
0.468914
0.442948
0.483775
0.434628
0.402688
0.404585
0.259611
0.367501
0.294062
0.286397
0.270290
0.182590
0.243373
0.212138
0.176947
0.181961
0.152641
0.127664
0.148695
0.091721
0.118225
0.073574
0.008813
-0.001607
-0.006372
0.020726
-0.003173
-0.074272
-0.018197
-0.023089
-0.059140
-0.040225
-0.052606
-0.008528
0.006625
-0.042122
-0.075969
-0.015376
-0.068357
0.030878
-0.019501
-0.129390
-0.081002
-0.051357
-0.082883
-0.116640
-0.039312
-0.053382
-0.038133
-0.046403
-0.030311
-0.076279
0.018671
-0.111327
-0.012005
-0.143570
-0.168318
-0.101183
-0.068958
-0.079414
-0.099827
-0.057984
-0.042224
-0.079971
-0.049902
-0.063276
-0.095528
-0.026069
-0.076311
0.005094
-0.070089
-0.034504
0.005696
-0.161240
-0.090612
0.048411
-0.067774
0.004222
0.026295
-0.014031
0.031595
-0.032396
0.044770
0.003140
0.012912
0.031803
0.113312
0.028495
0.060154
0.099979
0.087984
0.129696
0.092937
0.063187
0.132596
0.120802
0.104579
0.061583
0.129444
0.058611
0.101429
0.071235
0.102588
0.059414
0.065329
0.001422
0.003939
-0.070148
-0.052316
0.043826
-0.099001
-0.006548
-0.107815
-0.069872
-0.103678
-0.004065
-0.065358
-0.078954
-0.168065
-0.070332
-0.143764
-0.028678
-0.061779
0.043223
0.157312
0.373527
0.661098
0.985637
1.175378
1.280706
1.176508
0.850401
0.526860
0.018147
-0.101265
-0.162676
-0.349461
-0.300360
-0.168184
-0.043480
-0.060393
-0.021545
-0.078735
0.009462
-0.039980
-0.020783
0.012037
-0.023504
0.017190
0.072101
0.053506
0.131213
0.158181
0.129059
0.125855
0.115827
0.121423
0.221993
0.176810
0.153349
0.313086
0.248133
0.336758
0.340555
0.342696
0.386887
0.386776
0.381319
0.371747
0.424358
0.434404
0.351455
0.360943
0.428404
0.452179
0.443347
0.386713
0.415325
0.416516
0.344344
0.337729
0.381772
0.371006
0.364360
0.289964
0.302272
0.249684
0.269904
0.209900
0.263256
0.155348
0.209757
0.127928
0.117351
0.164110
0.096744
0.088756
0.123040
0.065574
0.066066
-0.026203
-0.003722
0.028140
-0.008074
-0.070572
-0.064690
-0.011013
-0.071528
0.003057
-0.073364
-0.140955
-0.147770
-0.068214
-0.084145
-0.096964
0.024769
-0.036117
-0.083462
-0.097608
-0.044355
-0.115386
-0.080698
-0.070798
-0.062185
-0.072745
-0.073608
-0.150401
-0.051832
-0.142208
-0.091878
-0.063849
-0.074890
-0.114787
-0.013104
-0.040097
-0.121890
-0.028721
-0.201533
-0.128461
-0.146886
-0.017457
-0.133429
-0.135431
-0.145814
-0.049200
-0.071906
-0.084810
0.007073
-0.074738
-0.052633
-0.108859
-0.110537
-0.014358
-0.004862
-0.116428
0.049222
-0.003490
-0.003401
-0.030322
0.035739
0.042020
-0.011947
0.094128
0.107013
0.049592
0.128329
0.044854
0.115694
0.164825
0.088537
0.074864
0.128060
0.114138
0.083807
0.120467
0.044247
0.042832
0.112278
0.060956
0.047293
0.022867
0.026009
0.006182
0.112213
0.040896
0.035899
-0.011043
-0.076169
-0.041662
0.030597
0.055514
-0.020453
-0.008489
-0.054274
-0.074858
-0.024211
-0.087096
-0.022123
-0.081006
-0.060841
-0.124980
0.024260
0.137009
0.281629
0.556684
0.843511
1.172978
1.330577
1.243643
1.026665
0.670797
0.283268
0.044584
-0.195890
-0.207717
-0.222537
-0.117295
-0.097757
-0.079740
0.029622
0.010209
-0.028963
0.073800
-0.016749
0.028818
0.010763
0.063938
0.124738
0.131565
0.197120
0.149315
0.183380
0.242210
0.165893
0.250008
0.174583
0.212013
0.248485
0.376032
0.277694
0.284715
0.287872
0.367111
0.464249
0.487924
0.427921
0.466925
0.509111
0.494539
0.488684
0.494117
0.469009
0.498763
0.544292
0.491687
0.541657
0.389659
0.452334
0.481498
0.493871
0.470795
0.355698
0.404238
0.385402
0.317994
0.306556
0.331743
0.249950
0.275042
0.226782
0.210348
0.186595
0.318422
0.156021
0.226862
0.190999
0.079298
0.158180
0.081937
0.047176
0.071525
0.136939
0.054501
0.108562
0.078204
-0.023731
0.132238
0.031684
0.063571
0.098936
0.048514
-0.058158
-0.001001
-0.010227
-0.047638
0.024118
0.023878
-0.030926
-0.028695
-0.056807
0.115067
0.068211
0.019000
0.005064
0.008023
-0.000940
-0.043518
0.012935
0.044728
0.027080
0.032872
-0.036732
-0.023788
0.088593
0.074618
0.019741
0.027471
-0.003312
0.083781
0.024497
0.002904
0.000358
0.023498
-0.006559
0.122850
0.006412
0.037435
0.042114
0.062766
-0.007000
0.016626
0.085941
0.084385
0.077054
0.130274
0.087870
0.027523
0.107939
0.185456
0.100605
0.153115
0.202562
0.203372
0.166614
0.216313
0.263687
0.189109
0.195884
0.200275
0.286056
0.253381
0.206492
0.241302
0.187162
0.251880
0.151234
0.265651
0.099140
0.215681
0.149851
0.125308
0.213658
0.178174
0.085283
0.047117
0.107869
-0.041565
0.000597
0.097491
-0.002598
0.112943
0.063614
0.035326
0.090037
0.071439
0.082477
0.028158
0.048189
0.057445
0.090616
0.181458
0.238615
0.434251
0.781230
0.992133
1.260324
1.391755
1.230110
1.073900
0.622854
0.397415
0.031076
-0.073477
-0.106021
-0.070449
-0.103502
-0.025650
0.076363
0.066725
0.151555
0.069176
0.157165
0.220298
0.163885
0.178400
0.157144
0.187460
0.236369
0.276991
0.227820
0.256582
0.278607
0.368084
0.283616
0.346543
0.329770
0.389437
0.381093
0.443496
0.501187
0.527430
0.491497
0.590264
0.491463
0.607351
0.534833
0.601211
0.501314
0.488086
0.612751
0.611029
0.570154
0.607309
0.615645
0.530927
0.560562
0.449460
0.570653
0.443540
0.506251
0.463896
0.522727
0.442743
0.430540
0.425254
0.389227
0.329573
0.293380
0.314652
0.337024
0.277887
0.280679
0.275923
0.212859
0.286122
0.195028
0.168014
0.238495
0.160788
0.135179
0.062310
0.049265
0.045498
0.104765
0.096291
0.125772
0.165826
0.096002
0.129908
0.067282
-0.005266
0.106406
0.002512
0.004972
0.143674
0.083572
0.063662
0.026277
0.103771
0.042633
0.161812
0.049762
0.092390
0.095615
0.106028
0.028774
0.032716
0.112083
0.079878
0.048261
0.033588
0.057730
0.022114
