0.058682
-0.055203
-0.129281
0.059729
0.058134
-0.094398
-0.044129
-0.013393
-0.018219
0.026622
0.018635
0.036301
-0.036611
0.074503
-0.067362
0.050106
-0.006260
0.007244
0.040511
0.070387
0.010690
0.008134
0.110337
-0.000780
0.042109
0.048590
0.042419
-0.042703
0.010724
0.000214
0.019014
0.102158
0.020561
0.046739
0.065650
0.108141
0.092805
0.086745
0.107975
0.164678
0.100398
0.183119
0.154875
0.175384
0.182660
0.165428
0.183429
0.201403
0.184756
0.205619
0.189469
0.224895
0.206803
0.160782
0.227326
0.093780
0.157025
0.111168
0.105316
0.023176
0.184570
0.230993
0.149084
0.120365
0.083650
0.101572
0.082588
0.015507
0.065781
0.055163
0.038530
0.061385
0.029772
0.139361
0.028693
0.049645
0.130913
0.064807
0.008073
0.086553
0.096233
0.079637
0.125482
0.113273
0.084691
0.082876
0.066039
0.016019
-0.013473
0.109326
0.062268
-0.029641
0.076990
0.144796
0.339785
0.649007
0.991902
1.283216
1.402019
1.437221
1.232199
0.978947
0.588807
0.240260
0.089579
-0.147061
-0.202234
-0.214006
-0.154744
-0.155964
0.043755
0.031810
0.029701
0.132222
0.097622
0.107167
0.019010
0.037661
0.121339
0.054344
0.149371
0.071223
0.110326
0.109908
0.160445
0.014902
0.133767
0.152957
0.027651
0.182816
0.150997
0.186597
0.111447
0.167876
0.168750
0.277759
0.274688
0.201129
0.303539
0.288439
0.293195
0.354327
0.311180
0.361154
0.394401
0.382663
0.396008
0.374039
0.505256
0.471607
0.516167
0.488907
0.498103
0.547128
0.545170
0.551241
0.584177
0.597348
0.540977
0.531416
0.653027
0.574255
0.548792
0.575550
0.527893
0.594394
0.510830
0.512383
0.577528
0.522759
0.468836
0.403476
0.346861
0.402817
0.315089
0.408454
0.402277
0.320309
0.294136
0.291129
0.259127
0.238109
0.284070
0.230396
0.220610
0.188712
0.211967
0.200281
0.182948
0.152361
0.133993
0.149193
0.066396
0.163637
0.085065
0.175489
0.104639
0.164602
0.110252
0.097827
0.047357
0.077491
0.106743
0.074479
0.083133
0.099306
0.025763
0.076574
0.065478
0.093256
0.077766
0.011372
0.000037
0.117679
0.140610
0.038831
0.010583
0.173205
0.046872
0.085616
0.086839
0.069595
0.122806
0.068991
0.128521
0.050229
0.034669
0.081500
0.054773
0.039616
0.080465
0.044982
0.037089
-0.026515
0.025306
0.079003
0.037453
0.045881
0.113623
0.088448
0.126577
0.089295
0.060336
0.177081
0.104091
0.135420
0.055709
0.067866
0.087633
0.062656
0.026354
0.073151
0.089982
0.104233
0.064783
0.075353
0.123263
0.039057
0.046059
0.092485
0.077953
0.029827
0.078400
0.008262
0.086776
0.068332
0.130755
0.095711
0.083647
0.007443
0.086423
0.105542
0.079381
0.134390
0.079469
0.084484
0.200156
0.111190
0.163226
0.091702
0.052859
0.192787
0.115936
0.176150
0.164111
0.084964
0.257760
0.163254
0.183470
0.176333
0.231508
0.257317
0.221369
0.205039
0.184434
0.203095
0.189200
0.201873
0.231158
0.235092
0.233555
0.233045
0.279900
0.214567
0.178178
0.157951
0.187497
0.168267
0.187140
0.163888
0.121894
0.161837
0.108616
0.165536
0.027246
0.102209
0.092145
0.127527
-0.022580
0.045175
0.082242
0.110140
0.074546
0.004372
0.039735
0.047461
0.008471
0.005511
0.052372
0.068484
0.083803
0.060620
0.030637
0.037097
0.010736
0.004843
0.031611
-0.049590
0.076201
0.236826
0.428877
0.671683
0.935591
1.261643
1.479390
1.365872
1.271217
0.954352
0.555585
0.267491
0.010526
-0.171605
-0.223431
-0.258459
-0.154519
-0.118323
-0.005231
0.001490
0.061129
0.042169
-0.019140
0.076417
0.001932
0.064261
0.062786
0.039578
0.070410
-0.037243
0.062052
0.025425
0.043060
0.041477
0.097529
0.040457
0.123713
-0.054626
0.121915
0.103331
0.128779
0.105562
0.087221
0.122590
0.136002
0.239926
0.135521
0.212870
0.229953
0.296650
0.264363
0.221132
0.238049
0.378414
0.358055
0.338969
0.358343
0.457141
0.368922
0.453284
0.473976
0.494221
0.529716
0.530957
0.505878
0.477969
0.459225
0.477442
0.564606
0.537913
0.436023
0.474770
0.460065
0.417754
0.449769
0.401341
0.444808
0.345699
0.385912
0.400277
0.356164
0.331239
0.191539
0.308376
0.226128
0.305837
0.303129
0.154191
0.247984
0.156900
0.215965
0.144443
0.168939
0.097873
0.132320
0.143112
0.051537
0.109186
0.074205
0.126941
0.012706
-0.038680
-0.039183
-0.026421
-0.031535
0.028066
0.052517
0.024846
0.056358
-0.023204
-0.041183
-0.046154
-0.073236
-0.007093
-0.021131
0.039021
-0.105851
0.053405
-0.081116
0.050391
-0.029447
0.014087
0.056594
-0.022467
0.013899
0.025904
-0.036408
0.037952
-0.052044
-0.001277
0.019684
-0.078594
-0.052124
-0.103026
-0.087839
-0.040876
-0.054363
-0.037172
-0.010596
-0.010524
-0.061090
-0.014840
-0.022362
0.024069
-0.026548
-0.058540
-0.021781
0.011175
-0.000539
-0.092552
-0.042622
-0.001166
0.027376
-0.032362
-0.011623
-0.005104
0.011331
-0.114313
-0.022290
-0.079265
-0.014073
0.050454
-0.066249
-0.027246
-0.050473
0.026298
0.025249
-0.017192
-0.097056
0.017541
-0.036774
-0.011136
-0.045836
0.012089
-0.047096
-0.007278
-0.014632
-0.045610
-0.102054
-0.022510
-0.029526
-0.060589
-0.127677
-0.037442
-0.029912
0.007435
0.037278
0.001288
0.035017
0.085502
-0.009479
0.053621
0.017615
0.065694
0.072283
0.098761
0.074084
0.148160
0.045519
0.120018
0.048252
0.108771
0.079511
0.042474
0.191345
0.051682
0.170030
0.100558
0.126485
0.122946
0.168225
0.060470
0.011805
0.024931
0.062463
0.067941
-0.055387
-0.023499
-0.013981
-0.004289
-0.048712
0.023323
0.010221
0.055879
-0.032080
-0.050503
-0.025878
-0.078743
-0.060992
-0.108654
-0.028597
-0.053567
0.021830
-0.028407
-0.114902
-0.067577
-0.078172
-0.014395
-0.030373
-0.097777
-0.024142
-0.039575
-0.093106
-0.149881
-0.161520
-0.092468
-0.124947
0.021996
0.257032
0.563676
1.004662
1.233302
1.374571
1.252698
1.175063
0.847249
0.439436
0.098164
-0.144613
-0.223067
-0.367577
-0.315720
-0.279611
-0.109095
-0.078360
-0.061330
-0.055802
-0.083265
-0.028966
-0.005973
-0.036391
-0.102395
-0.059632
0.034872
-0.050224
-0.059320
0.024165
-0.000528
0.005716
-0.026681
0.026175
-0.009284
0.131564
-0.021831
0.107497
0.042218
0.076172
0.057162
0.074548
0.049573
0.072458
0.207073
0.157798
0.133031
0.178487
0.258648
0.302379
0.205584
0.290569
0.268860
0.346974
0.298050
0.328222
0.349152
0.326529
0.392380
0.383822
0.446333
0.476341
0.447470
0.477595
0.515899
0.511955
0.480937
0.435062
0.421207
0.435056
0.447126
0.429864
0.460018
0.370831
0.448487
0.380566
0.404729
0.432422
0.370192
0.419887
0.284170
0.377551
0.213992
0.308434
0.297920
0.186817
0.222825
0.217786
0.183390
0.137236
0.138341
0.114264
0.146496
0.141126
0.055083
0.069070
0.078677
0.063181
0.031816
-0.014940
-0.060260
0.049109
-0.010605
-0.052536
0.007059
-0.001308
0.070768
0.034249
0.003662
0.012664
-0.061066
0.042428
0.043814
0.004431
0.027250
-0.034843
0.056629
0.041143
0.035081
-0.029008
0.033059
0.018554
-0.041792
0.030191
-0.027037
-0.005819
-0.016851
0.010968
0.032500
0.084456
-0.033014
-0.028810
-0.001505
-0.000176
0.063311
0.000892
-0.084265
-0.012883
0.039986
-0.077189
0.035110
0.097122
-0.023837
-0.013975
-0.047254
-0.000894
0.094292
0.049259
0.033331
0.089344
0.112233
0.062628
-0.051402
0.056364
0.078010
-0.008968
-0.018887
0.059974
0.019044
-0.015459
0.052664
-0.001997
-0.040084
-0.070381
0.092776
-0.014368
-0.016467
0.027348
-0.002578
0.075378
0.038124
0.087115
0.035381
-0.000442
0.041470
0.040342
0.074777
0.128224
0.023836
0.013494
0.045884
0.086785
0.079645
0.029649
0.004229
0.061841
0.090892
0.133989
0.008520
0.087613
0.136561
0.091163
0.148701
0.174069
0.163197
0.191914
0.186360
0.346528
0.163820
0.208385
0.221033
0.260742
0.248958
0.217422
0.192177
0.212096
0.265149
0.213905
0.152501
0.187212
0.131817
0.148819
0.173840
0.171073
0.118406
0.173464
0.110561
0.101283
0.100587
0.055366
0.056276
0.130481
0.113055
0.013465
0.023225
0.119629
0.057903
0.100256
0.075669
0.085443
0.050598
0.048239
0.027113
-0.010865
0.016735
0.020853
0.144217
0.066567
0.069369
0.147301
-0.002962
0.055940
0.091786
0.020765
-0.019942
0.149186
0.094131
0.446354
0.719346
1.110357
1.328579
1.422348
1.325250
1.158399
0.835334
0.519177
0.277310
-0.057076
-0.198851
-0.216898
-0.210941
-0.113269
0.040778
0.089059
0.023348
0.109465
0.103840
0.102508
0.118330
0.074451
0.114345
0.008941
0.044375
0.077335
0.047392
0.116346
0.104211
0.118677
0.147710
0.122130
0.164992
0.133855
0.082729
0.115215
0.162679
0.199504
0.077045
0.245261
0.219894
0.277762
0.249193
0.174077
0.289738
0.316052
0.362165
0.307086
0.309359
0.394251
0.465836
0.483151
0.332110
0.461769
0.468840
0.481598
0.512555
0.500610
0.571159
0.573783
0.526868
0.569859
0.598911
0.644296
0.610066
0.672742
0.615487
0.537364
0.597867
0.598156
0.576495
0.478874
0.445780
0.535434
0.499523
0.475240
0.411996
0.434668
0.403943
0.386950
0.416522
0.450797
0.354653
0.268851
0.336627
0.260313
0.309905
0.304601
0.247456
0.262343
0.161589
0.237179
0.199526
0.150851
0.177459
0.095988
0.167325
0.110892
0.157742
0.102126
0.125403
0.116929
0.158181
0.135377
0.093268
0.071509
0.126224
0.137899
0.064320
0.096491
0.081512
0.144392
0.124136
0.097963
0.139314
0.085571
0.103190
0.063447
0.089123
0.028763
0.064968
0.209039
0.143299
0.092594
0.099408
0.096034
0.129044
0.109452
0.114153
0.078993
0.115680
0.109179
0.068910
0.184842
0.121773
0.053897
0.136983
0.073051
0.118884
0.131600
0.008572
0.142373
0.134359
-0.005022
0.103966
0.136485
0.052045
0.080448
0.060070
0.032003
0.060600
0.077202
0.091675
0.181008
0.108019
0.029745
0.064044
0.081721
0.083594
0.044698
0.062205
0.127829
0.123634
0.065214
0.074565
0.094259
0.106989
0.069352
0.103528
0.126881
0.114288
0.020013
0.147919
0.127134
0.056411
0.147481
0.090379
0.186871
0.115407
0.117408
0.122218
0.202905
0.129955
0.142978
0.111030
0.155113
0.152284
0.176767
0.107593
0.216329
0.179594
0.291986
0.189715
0.232284
0.208419
0.149073
0.240488
0.282496
0.207018
0.272944
0.243402
0.251385
0.242850
0.246494
0.154684
0.209969
0.226128
0.233142
0.184374
0.109235
0.269292
0.154067
0.163312
0.166832
0.109818
0.100800
0.103698
0.173575
0.095259
0.071872
0.083598
0.119188
0.045951
0.133633
0.097648
0.055489
0.032378
0.033265
0.083219
0.056198
-0.000723
0.098619
0.005271
0.028593
0.038271
0.029330
0.030138
-0.064161
0.093891
0.036288
-0.062938
-0.027176
-0.025386
0.163324
0.257199
0.404636
0.790798
1.101125
1.306396
1.500000
1.384359
1.212883
0.768150
0.517536
0.224619
-0.097550
-0.236488
-0.229567
-0.273670
-0.195259
-0.058421
-0.053548
0.005251
0.104399
0.009560
0.056946
0.070483
0.046367
0.130797
0.023154
0.005707
0.033905
0.029263
0.114085
0.018786
0.043289
0.069584
0.108233
0.058629
0.112719
0.116300
0.101692
0.092602
0.065411
0.053364
0.112719
0.143016
0.143689
0.160935
0.211740
0.243545
0.265934
0.218045
0.259087
0.386339
0.293885
0.382332
0.308133
0.370719
0.359246
0.389170
0.438001
0.465041
0.387949
0.401965
0.413035
0.468861
0.476420
0.441897
0.582458
0.526097
0.508041
0.502745
0.489286
0.511719
0.441975
0.534309
0.479259
0.449223
0.400043
0.387264
0.418722
0.407023
0.338809
0.291371
0.316407
0.287550
0.357903
0.234085
0.251091
0.208099
0.129796
0.149674
0.022516
0.174318
0.177884
0.066621
0.119844
0.065191
0.136050
0.074407
0.001173
0.032530
-0.034707
0.062705
-0.042724
-0.094962
-0.105386
0.041921
0.076970
-0.015913
0.036452
-0.013603
0.002710
-0.009731
-0.056171
0.094353
0.020834
0.026646
0.001874
0.006008
0.007257
-0.023407
-0.039456
-0.053099
0.019257
-0.019135
-0.069105
-0.062101
-0.023416
-0.062900
-0.103940
-0.017329
-0.005161
-0.094928
-0.093126
-0.040593
-0.080279
-0.051672
-0.013683
0.011184
-0.007856
-0.029985
0.006477
-0.089965
-0.056495
0.001349
0.013026
-0.081501
-0.078668
-0.007632
-0.032589
-0.078325
-0.063602
-0.080807
-0.100982
-0.090530
0.043077
-0.060766
-0.036868
-0.094500
-0.082991
-0.062281
-0.062485
-0.032684
-0.079790
-0.046954
-0.042859
-0.034092
-0.011969
-0.063947
0.004777
-0.036066
-0.014268
-0.063138
0.052449
-0.002669
-0.086704
-0.048851
-0.048354
-0.033316
0.036655
-0.021096
-0.024252
-0.068552
-0.064932
-0.022490
-0.054355
-0.073356
-0.010640
-0.054457
-0.006115
-0.026680
0.053037
0.008983
0.086818
-0.042440
0.033761
0.118055
0.064860
0.113075
0.124076
0.112769
0.177762
0.090072
0.021311
0.064762
0.105485
0.060784
0.116484
0.099341
0.123480
0.011030
0.052643
-0.005483
0.045662
-0.023486
-0.013644
-0.079079
0.022858
-0.018131
-0.012938
-0.028754
-0.030012
0.001446
0.041984
-0.084450
-0.019218
-0.035447
-0.079520
-0.059411
0.003772
-0.036697
-0.064243
-0.117956
0.012599
-0.049026
-0.124220
-0.110231
-0.125179
-0.078759
-0.080364
-0.099643
-0.042734
-0.093211
-0.117927
-0.057338
-0.046102
-0.079991
-0.137324
0.054293
0.421307
0.794555
0.976883
1.206573
1.329799
1.299173
1.053484
0.689219
0.319972
0.040821
-0.122023
-0.287474
-0.290743
-0.412178
-0.276715
-0.218775
-0.003548
-0.133083
-0.077060
-0.074401
-0.093797
-0.144683
-0.124015
-0.031288
-0.081155
-0.030538
-0.045448
-0.051457
-0.093793
-0.028785
0.037431
-0.051428
-0.044621
-0.033811
-0.020908
-0.066703
0.004963
-0.010469
0.043122
0.056239
0.062170
0.037652
0.079943
0.058995
0.064778
0.050988
0.100110
0.149422
0.263503
0.265883
0.241721
0.189452
0.247064
0.317973
0.371358
0.330523
0.439848
0.301824
0.376034
0.374799
0.468262
0.420487
0.424280
0.406570
0.368638
0.437903
0.421939
0.449932
0.397474
0.389170
0.395596
0.357640
0.399358
0.362884
0.351356
0.343024
0.387141
0.362705
0.367327
0.258712
0.252390
0.226330
0.168760
0.205072
0.115076
0.126560
0.101454
0.053539
0.072309
0.138365
0.031825
0.089767
0.047592
0.072397
0.065066
0.047516
-0.057326
0.007391
0.040367
0.045934
0.036965
0.049312
-0.029113
0.016750
0.024533
-0.021989
-0.014552
-0.035876
0.016465
-0.041420
-0.090990
-0.059343
-0.047400
0.042403
0.025128
-0.014005
-0.025565
-0.140215
-0.086439
-0.106809
-0.041769
-0.058587
-0.052961
-0.101534
-0.039958
-0.107100
-0.011062
-0.028430
-0.068862
-0.040030
-0.054367
-0.076252
-0.021614
-0.118527
-0.052974
-0.010750
-0.106781
-0.011320
-0.070043
-0.035545
-0.001731
-0.069793
0.049271
-0.027816
-0.045198
-0.098249
-0.049210
-0.030279
-0.059616
0.008523
-0.114787
-0.103585
-0.094475
-0.076127
-0.079347
-0.044990
-0.112771
0.034433
0.014451
0.044132
-0.018338
-0.022777
-0.059024
0.048271
-0.107588
0.018264
-0.037775
-0.050642
-0.021270
0.005379
-0.008872
-0.051296
-0.194122
-0.061981
-0.010002
-0.064212
-0.033945
-0.001109
0.014035
0.020010
-0.008240
-0.013108
-0.037101
-0.010452
-0.038727
0.013388
0.005860
0.107051
0.084694
0.140903
0.091127
0.068375
0.145905
0.160952
0.180129
0.084375
0.121565
0.173104
0.109345
0.148490
0.117028
0.223050
0.171932
0.176064
0.182863
0.184343
0.167526
0.135573
0.062829
0.122137
0.111168
0.139039
0.043695
0.111823
0.042270
-0.028410
0.024958
0.103970
0.079485
0.078488
0.035966
0.027482
-0.031951
-0.038186
0.055341
0.055858
0.022437
0.044989
-0.009079
-0.029910
0.031009
-0.021397
0.073345
0.035341
-0.016938
0.028587
-0.018044
0.043831
0.023363
0.067357
0.009453
-0.015902
-0.109298
-0.052052
0.028564
0.147684
0.439257
0.776173
1.112401
1.250315
1.380149
1.300367
1.022364
0.672505
0.348256
0.011312
-0.139365
-0.357137
-0.331221
-0.321576
-0.220721
-0.016511
-0.056610
-0.045101
0.032184
-0.004583
-0.019311
-0.001459
0.028652
0.058990
0.029750
-0.006719
0.010327
-0.067764
-0.024754
0.065667
0.024130
0.110278
0.026841
0.024863
0.101482
0.020174
0.141338
0.164567
0.167592
0.114611
0.043908
0.118546
0.190681
0.260833
0.186658
0.238098
0.218087
0.319985
0.332520
0.306968
0.385321
0.343853
0.393644
0.358993
0.395587
0.437663
0.432583
0.460624
0.381418
0.489353
0.540347
0.570859
0.573042
0.427576
0.559946
0.529250
0.487561
0.561993
0.507141
0.472384
0.469417
0.562230
0.502969
0.460390
0.456762
0.491931
0.383332
0.463945
0.375625
0.295902
0.453097
0.265527
0.336482
0.289922
0.251376
0.362691
0.240612
0.063190
0.257531
0.193511
0.150503
0.106490
0.190931
0.144031
0.122589
0.137687
0.151699
0.057422
0.094926
0.162500
0.080803
0.088720
0.053267
0.129908
0.044906
0.116727
0.200259
0.060171
0.108693
0.105485
0.020557
0.063127
0.026567
0.011869
0.065246
0.063558
0.102539
0.020240
-0.024684
0.086436
0.043880
0.003170
0.049993
0.094175
0.014232
-0.005461
0.074561
0.054639
0.097621
0.013055
-0.039891
0.047247
0.077205
-0.004051
0.017437
0.063539
0.023466
-0.017876
0.053952
0.068317
0.014385
0.004456
0.052928
-0.004678
0.094029
0.059169
0.017434
-0.058146
0.023177
0.033876
0.133955
0.122407
0.011482
0.031477
-0.036924
0.030330
0.024811
0.110372
-0.028869
0.061355
0.075394
0.094279
0.006375
0.025739
-0.031561
0.008337
0.097423
0.057197
0.013150
0.077580
0.045510
0.098729
0.032407
0.057821
-0.001719
0.108440
-0.002710
0.015643
0.087958
-0.000674
0.080401
0.026703
0.083887
0.007823
0.052521
0.019890
0.173860
0.048692
0.098682
0.172341
0.102530
0.107430
0.105517
0.142551
0.196313
0.145361
0.156636
0.189363
0.212205
0.190968
0.237097
0.223483
0.218459
0.215096
0.209591
0.227127
0.179425
0.156253
0.192900
0.153982
0.085185
0.084571
0.018398
0.064465
0.043997
0.111216
0.040764
0.121414
-0.002043
-0.017679
0.107036
0.061877
0.039506
0.059922
0.075645
0.024570
0.041614
0.125978
0.041048
-0.042356
-0.016418
0.018466
-0.013334
-0.040917
-0.012378
0.017897
0.030292
0.036221
0.029751
0.078906
0.038701
-0.073696
-0.031677
-0.020304
0.010127
0.252578
0.437877
0.844009
1.095594
1.380814
1.415009
1.307346
1.036140
0.616610
0.295975
0.132707
-0.117959
-0.279890
-0.250671
-0.194733
-0.159125
-0.134707
-0.059995
0.033315
0.027052
0.048954
-0.013011
0.023290
0.047153
-0.003176
-0.023807
0.037979
0.072381
0.006064
0.072288
0.042816
0.101441
0.044758
0.003669
0.009501
0.097867
0.038619
0.061095
0.111633
0.060619
0.072472
0.115649
0.041350
0.173114
0.248060
0.171663
0.149020
0.210572
0.205014
0.287435
0.221620
0.247922
0.323250
0.315956
0.327919
0.387833
0.462015
0.431113
0.415553
0.512046
0.433118
0.433734
0.431426
0.560078
0.556152
0.484077
0.469176
0.434111
0.428560
0.382209
0.353251
0.403296
0.441656
0.370964
0.413689
0.334733
0.419673
0.403849
0.333813
0.279099
0.334376
0.345477
0.199761
0.249416
0.187907
0.209725
0.223910
0.160663
0.084930
0.154836
0.130790
0.017558
0.165758
0.056954
0.020124
0.057112
0.066719
0.015946
0.003269
-0.050859
0.020851
0.005466
-0.069252
-0.083799
0.041305
0.014758
-0.144886
0.026743
-0.106665
-0.031867
-0.035945
0.045612
-0.098255
-0.040120
-0.035390
-0.096468
-0.123934
0.019555
-0.000271
-0.058217
-0.073278
-0.067572
-0.125357
-0.091703
-0.053838
-0.011349
-0.040616
-0.064700
-0.081071
-0.106027
-0.103126
-0.007390
-0.019326
-0.070239
-0.108392
-0.075960
-0.020698
-0.122400
-0.080176
-0.086641
-0.036400
-0.115058
-0.111275
0.000931
-0.040745
-0.004478
-0.030705
-0.010006
-0.130083
-0.045337
-0.057724
-0.031181
-0.050279
-0.058176
-0.115161
-0.070075
-0.027850
-0.089309
-0.034005
-0.077343
-0.025276
-0.034155
-0.081680
-0.052002
-0.029435
-0.074340
-0.075951
-0.111085
-0.058505
-0.054326
-0.066298
-0.082733
-0.041934
-0.096698
-0.007302
-0.049156
-0.013564
-0.027042
-0.037998
-0.060091
-0.072723
-0.007696
-0.107740
-0.081506
0.020213
-0.050762
0.024128
-0.078796
0.064388
0.010324
0.017714
0.072788
0.109942
-0.000764
0.032370
0.111543
0.100989
0.064217
0.019108
0.181704
0.086327
0.067452
-0.003109
0.133918
0.078365
0.072026
0.083356
0.043548
0.004000
0.101173
-0.017543
0.060686
0.056356
0.033235
-0.029403
-0.049959
-0.002955
-0.010882
-0.020702
-0.121492
-0.063261
-0.102468
-0.093493
-0.110208
-0.069749
-0.067896
-0.085197
-0.070689
-0.032060
-0.147662
-0.100854
-0.090955
-0.119319
-0.093018
-0.085867
-0.106796
-0.125172
-0.010297
-0.123107
-0.094261
-0.051938
-0.120664
-0.161893
-0.135617
-0.139343
-0.066770
0.156161
0.418922
0.802100
1.110704
1.292903
1.329388
1.118641
0.794290
0.566373
0.174870
-0.095499
-0.219092
-0.374357
-0.440200
-0.411882
-0.269581
-0.160667
-0.122721
-0.110973
-0.138472
-0.149560
0.018364
-0.104819
-0.027959
-0.059621
-0.103438
-0.059382
-0.074841
-0.106764
0.014490
-0.016138
0.034810
-0.051133
-0.082273
-0.000159
0.037567
-0.077688
-0.017606
0.022795
-0.019888
-0.065810
0.033207
0.119150
0.046471
0.093811
0.130485
0.114247
0.141540
0.101028
0.175826
0.140048
0.252938
0.204762
0.209271
0.304594
0.250606
0.327544
0.336057
0.353082
0.382184
0.355274
0.321966
0.362119
0.449751
0.392784
0.400412
0.342462
0.420729
0.414840
0.415363
0.344453
0.448145
0.327645
0.336999
0.310095
0.310010
0.312649
0.257095
0.243335
0.290249
0.284484
0.243298
0.288077
0.195963
0.212147
0.170936
0.154933
0.036766
0.161402
0.066168
0.106642
0.022505
0.010579
0.035381
-0.014313
0.032577
0.028588
-0.088819
-0.022976
-0.072863
0.009520
-0.007793
-0.177475
-0.010581
-0.101294
-0.113530
-0.069492
-0.016583
-0.048201
-0.053302
-0.077934
-0.098191
-0.135032
0.062148
-0.029194
-0.030105
-0.094115
-0.114082
-0.162936
-0.128118
-0.084479
-0.064281
-0.077829
-0.036101
-0.070392
-0.069350
-0.080330
-0.055540
-0.195961
0.014476
-0.069023
0.000070
-0.015064
-0.052743
-0.099765
-0.124253
-0.088404
-0.061167
-0.011299
-0.026329
-0.013085
-0.150038
-0.038945
0.002329
-0.095640
-0.030032
0.028575
-0.064092
-0.064338
-0.051675
-0.072946
-0.020627
-0.028802
-0.011945
-0.130182
-0.075341
-0.020093
-0.034927
-0.052751
-0.070012
-0.082720
-0.050366
-0.055196
-0.094410
-0.031637
-0.163822
-0.053445
-0.074681
-0.147885
-0.012671
-0.040199
-0.058676
-0.004649
-0.055583
-0.060484
-0.000602
-0.004656
-0.032523
-0.009187
-0.032593
-0.041510
0.013823
0.034775
0.077000
-0.043898
-0.039669
-0.034963
-0.049443
0.115162
0.009305
-0.001562
0.075975
0.087584
0.094759
0.125934
0.117969
0.077218
0.163595
0.192825
0.119391
0.053896
0.169984
0.181841
0.078856
0.159842
0.185019
0.073609
0.131218
0.118954
0.093061
0.143928
0.040819
0.063969
0.127015
0.119252
0.040894
0.077147
0.057785
-0.020111
0.025904
0.075904
0.053576
0.052114
0.070606
0.046221
-0.001780
-0.012459
0.021454
0.101111
-0.042719
0.029801
0.019153
0.053463
0.010626
0.024574
-0.043348
0.098121
-0.023677
-0.033676
0.102112
-0.011997
0.025491
-0.048137
-0.114246
-0.011351
0.114051
0.279552
0.575870
0.839851
1.293188
1.364589
1.419406
1.230466
1.000471
0.646054
0.267247
-0.031452
-0.149428
-0.300840
-0.321920
-0.201700
-0.125944
-0.048348
-0.058773
0.030485
0.046280
-0.027532
0.002240
0.026996
0.016335
0.116179
0.030099
0.054481
0.060144
0.062188
0.046353
-0.013199
0.036725
0.025399
0.099200
0.073825
0.072619
0.128180
0.137050
0.097496
0.143200
0.108992
0.203236
0.194602
0.212788
0.221803
0.275382
0.208674
0.236483
0.280169
0.272752
0.216798
0.325533
0.373729
0.373002
0.370695
0.411268
0.506517
0.393485
0.457288
0.529855
0.572640
0.481376
0.452462
0.434091
0.504370
0.487492
0.579735
0.593084
0.505055
0.520108
0.498549
0.477414
0.457673
0.401763
0.559232
0.436877
0.441699
0.416163
0.438287
0.374007
0.302217
0.333136
0.361367
0.372222
0.293618
0.266631
0.319854
0.179964
0.207705
0.238289
0.235630
0.148615
0.177399
0.144449
0.151525
0.145779
0.050692
0.148091
0.142103
0.080232
0.076480
0.091675
0.176902
0.124166
0.021758
0.073259
0.090384
0.072645
0.128264
0.040482
0.051154
0.070296
0.091432
0.083546
0.022362
0.110872
0.058213
0.109425
0.034600
0.121866
0.133815
0.004791
0.059232
0.027255
0.075234
0.057598
0.062712
0.029962
0.045012
0.087804
0.095157
0.015262
0.039669
0.061816
0.139009
-0.017567
0.068695
0.089991
0.092360
0.093007
0.080201
-0.021442
0.036736
0.105646
0.078563
0.034658
0.070385
0.114529
0.099021
0.025934
0.036607
0.077239
0.138485
0.058251
0.020195
0.103856
0.140788
0.069872
0.006324
0.107470
0.003800
0.080795
0.031930
0.070828
0.076929
0.050052
0.162497
0.015808
0.085358
0.046782
-0.025576
0.098932
0.110741
0.130481
0.012439
0.071060
0.083477
0.057890
0.044603
0.109775
0.106603
0.147135
0.050289
0.086940
0.101474
0.087384
0.128250
0.108828
0.039528
0.156267
0.178290
0.098625
0.206039
