-0.009519
0.013798
-0.004903
-0.018986
0.053943
-0.074658
-0.100615
-0.023575
0.077049
0.034046
0.090301
-0.017610
0.005242
0.008193
-0.011123
-0.015608
-0.037722
-0.033791
0.052586
0.121140
-0.011097
0.082522
0.145042
0.073456
0.099400
0.153027
0.019197
0.212826
0.162550
0.206148
0.221068
0.201266
0.177486
0.187374
0.162293
0.170559
0.243184
0.305731
0.195208
0.284293
0.175429
0.179011
0.209958
0.131286
0.151937
0.098585
0.162675
0.103955
0.152783
0.080286
0.097724
0.068707
0.082740
0.062794
-0.019139
0.055506
0.004985
-0.014775
0.095762
0.077439
0.088853
0.113849
-0.032331
0.013600
0.060502
0.049922
-0.089374
0.049373
0.023639
0.156334
0.240289
0.325251
0.769977
1.144384
1.361056
1.500000
1.294505
1.080266
0.755018
0.390002
0.065428
-0.078324
-0.095689
-0.115584
0.013218
-0.038305
-0.008738
0.050099
0.182226
0.106325
0.091803
0.098233
0.121431
0.023232
0.196024
0.076067
0.232962
0.106752
0.192685
0.223323
0.262410
0.237205
0.224984
0.272840
0.284859
0.400542
0.367667
0.383954
0.320208
0.440865
0.433145
0.536754
0.531534
0.490735
0.446857
0.549126
0.514191
0.546648
0.621710
0.551954
0.601144
0.549523
0.606484
0.530865
0.541679
0.633269
0.570072
0.575886
0.556127
0.522304
0.430599
0.459887
0.483279
0.498181
0.495930
0.427126
0.444762
0.440878
0.374537
0.350359
0.269712
0.314714
0.265261
0.273597
0.236333
0.280645
0.241488
0.221402
0.127443
0.199313
0.232399
0.192857
0.102635
0.127875
-0.009737
0.102062
0.182542
0.087110
0.145365
0.086800
0.102855
0.118169
0.140636
0.036414
0.038681
-0.009438
0.050447
0.001479
0.053251
0.051119
0.055189
0.068603
0.100682
0.098827
0.158702
0.031141
0.091156
0.027782
0.099842
0.091577
0.155177
0.008949
0.088070
0.069485
0.057758
0.024746
0.055817
0.112439
0.103185
0.138862
0.028560
0.100880
0.081127
0.127341
0.122846
-0.016200
0.112877
0.038107
0.053815
0.071823
0.007556
0.036403
0.129715
0.093615
0.097632
0.122212
0.099508
0.154956
0.152921
0.179837
0.191437
0.138218
0.235822
0.152110
0.125128
0.180008
0.123271
0.199159
0.235438
0.285965
0.204740
0.292181
0.229990
0.140176
0.289376
0.279261
0.282622
0.382172
0.321843
0.271455
0.249360
0.281706
0.327478
0.212742
0.177082
0.203890
0.208687
0.149384
0.155482
0.174676
0.124872
0.097658
0.122316
0.170050
-0.011283
0.104425
0.109293
0.118779
0.123172
0.085537
0.078010
0.109261
0.031527
0.155214
0.171731
0.147472
0.078995
0.182877
0.397298
0.626646
0.958405
1.292382
1.459810
1.430796
1.200646
0.946663
0.618428
0.289805
-0.027891
-0.100176
-0.048451
-0.094293
-0.006308
0.053141
0.105557
0.042636
0.129219
0.062206
0.116718
0.037109
0.084532
0.174284
0.191677
0.168430
0.198012
0.183256
0.170933
0.268778
0.239328
0.324862
0.315107
0.298656
0.334571
0.378874
0.255068
0.375134
0.369793
0.400487
0.426041
0.375607
0.494609
0.463291
0.517539
0.534753
0.576275
0.571074
0.568314
0.593457
0.666943
0.652514
0.598721
0.563427
0.546452
0.572621
0.625832
0.638979
0.478878
0.488322
0.479113
0.448357
0.421993
0.424338
0.507582
0.406537
0.419904
0.282212
0.354851
0.297974
0.306776
0.291300
0.259828
0.235036
0.266230
0.244805
0.206820
0.122726
0.133892
0.123158
0.116644
0.133312
0.133920
0.062134
0.086970
0.152741
0.000561
0.049985
0.110626
0.016098
0.061184
-0.018406
0.041942
0.028685
0.106356
0.063644
-0.041959
0.071781
0.141710
0.053621
0.057713
-0.004092
0.092700
0.022666
0.085279
0.103247
-0.020975
0.050048
-0.014499
0.066434
-0.019672
0.006634
-0.036032
0.028265
-0.006593
-0.017587
0.054191
0.079088
-0.014086
0.027919
0.045473
0.052193
0.048679
0.027370
0.029761
0.049566
0.004439
0.018128
0.005543
0.017565
-0.019300
0.016833
0.091072
0.010061
0.035733
0.050777
0.047531
0.012254
0.046527
0.111437
0.087274
-0.007783
0.074328
0.067966
0.081099
0.118897
0.108067
0.196777
0.190659
0.156753
0.192522
0.182028
0.227006
0.244614
0.183870
0.179842
0.162575
0.157080
0.253207
0.215608
0.231333
0.155121
0.144769
0.025614
0.096155
0.085826
0.134936
0.065928
0.093733
0.024012
0.027138
0.002336
-0.017543
0.044047
0.021259
0.038984
0.010798
-0.007657
0.052628
-0.099815
0.020662
-0.030229
-0.039362
-0.041462
-0.066004
-0.024940
0.087923
0.190071
0.379631
0.677796
0.905921
1.252701
1.275677
1.288430
0.962200
0.634055
0.376129
0.020794
-0.143029
-0.185654
-0.239102
-0.143131
-0.077870
0.022430
-0.009360
-0.027808
0.082992
0.041357
-0.055168
0.124656
0.064838
0.045518
0.115055
0.102849
0.064057
0.157397
0.154961
0.201302
0.220585
0.173505
0.224297
0.309485
0.279881
0.231433
0.285802
0.370957
0.310045
0.358328
0.338535
0.362228
0.393950
0.471238
0.429100
0.430049
0.516142
0.434839
0.432899
0.437620
0.417850
0.476791
0.464870
0.535992
0.457503
0.460329
0.436785
0.421964
0.454878
0.430117
0.445951
0.345205
0.393641
0.362763
0.375836
0.242042
0.264301
0.230729
0.258789
0.118783
0.155766
0.196052
0.158368
0.103217
0.117995
0.133652
0.081579
0.126285
-0.052279
0.057305
-0.078126
0.093481
0.085484
0.123994
0.003652
-0.013502
-0.044695
-0.080449
-0.035567
-0.050865
0.050198
-0.053119
-0.085141
-0.045600
-0.021491
-0.007660
-0.086768
-0.017433
0.004078
-0.077768
-0.081171
-0.023040
-0.037540
-0.003612
-0.054787
-0.074091
-0.058914
-0.005857
-0.072474
-0.061372
0.058737
-0.025149
-0.063927
-0.034659
-0.063035
-0.072573
-0.047750
-0.045234
-0.097276
-0.114690
0.002906
-0.065527
-0.046031
-0.002354
-0.039759
-0.075229
-0.035548
-0.076133
-0.076421
-0.033131
0.008632
-0.064207
-0.030361
0.003894
-0.049683
0.016311
-0.011429
-0.074724
0.077623
0.007129
0.049182
0.072042
0.020535
0.058731
-0.069709
0.087936
0.092725
0.045689
0.077233
0.130847
0.070195
0.187184
0.179549
0.109840
0.182542
0.165336
0.157830
0.084958
0.177936
0.203546
0.076835
0.082062
0.029253
0.070428
-0.046514
0.095297
0.096754
-0.018257
0.053529
-0.016148
0.040311
0.082962
-0.029946
-0.039845
-0.102442
-0.031400
-0.004675
-0.006883
0.021091
-0.046737
0.006539
-0.030052
-0.072574
-0.024498
-0.091645
0.018282
0.061225
0.255754
0.452892
0.822291
1.075924
1.272545
1.359593
1.150897
0.888952
0.525612
0.154953
-0.080636
-0.304266
-0.304745
-0.147861
-0.060837
-0.026593
-0.067611
0.058597
-0.030351
0.028194
0.037376
-0.001907
-0.009183
0.058351
0.032077
0.012763
0.085206
0.106911
0.154162
0.039329
0.200512
0.110026
0.232995
0.222505
0.236892
0.210845
0.281148
0.251303
0.291026
0.237476
0.376149
0.373704
0.442067
0.343425
0.487762
0.448772
0.508877
0.431716
0.532912
0.505967
0.491448
0.556427
0.475853
0.499244
0.501595
0.464157
0.446455
0.460057
0.490934
0.502494
0.391002
0.470363
0.391312
0.445494
0.427760
0.425859
0.269158
0.335285
0.154534
0.230583
0.165586
0.235757
0.188440
0.106058
0.130899
0.214083
0.101373
0.031036
0.065265
0.049165
0.087552
0.085116
0.079670
0.039334
0.018832
0.070054
0.055001
0.113733
0.090551
0.056275
-0.115533
0.005674
0.062414
0.014807
0.050894
0.026832
0.028734
0.054332
-0.037516
0.031260
0.066807
0.046118
0.020239
0.013608
0.062456
0.015619
0.029858
0.040254
0.015568
0.058347
0.050220
0.048746
-0.009775
0.002383
-0.039028
-0.057499
0.039942
0.018674
0.012873
-0.028359
0.059646
-0.068063
0.037105
-0.021759
0.033517
0.013072
0.006860
0.075855
0.047868
0.082952
0.083501
0.127982
0.106165
0.027072
0.054793
0.047439
0.064516
0.183778
0.081092
0.137361
0.121561
0.047564
0.133082
0.031444
0.217939
0.146795
0.250529
0.195366
0.151111
0.191383
0.250655
0.194823
0.163821
0.222344
0.309404
0.253550
0.176096
0.150893
0.227745
0.239096
0.190803
0.229192
0.168431
0.207592
0.113968
0.188635
0.158227
0.163360
0.095571
0.133958
0.099813
0.137706
0.060998
0.101528
0.150116
0.019841
0.013654
0.086461
0.062057
0.147852
0.084043
0.069255
0.104375
0.038282
0.100310
-0.008728
0.241505
0.190107
0.401592
0.860832
1.062625
1.449513
1.393671
1.350225
1.089323
0.719550
0.412082
0.111103
-0.126246
-0.116846
-0.172060
-0.014357
-0.091714
0.081356
0.138677
0.153432
0.118480
0.116265
0.153292
0.134526
0.245078
0.175475
0.207178
0.226600
0.197399
0.181117
0.224327
0.198705
0.289845
0.362611
0.340308
0.304052
0.391426
0.333213
0.350016
0.422976
0.399007
0.511737
0.422265
0.469908
0.462592
0.443844
0.586111
0.616083
0.527186
0.545301
0.581657
0.599247
0.549492
0.521740
0.597432
0.636170
0.576545
0.627808
0.528802
0.552070
0.582675
0.610142
0.529035
0.541259
0.500302
0.449752
0.454004
0.423783
0.406739
0.339992
0.371516
0.419494
0.309682
0.257972
0.233176
0.178105
0.232302
0.206965
0.259524
0.262850
0.254547
0.178111
0.151648
0.153815
0.153009
0.144563
0.166900
0.191974
0.084685
0.107173
0.184456
0.008841
0.070834
0.090482
0.099181
0.085556
0.109500
0.077237
0.099371
0.076543
0.115208
0.092112
0.079060
0.101650
0.144060
0.191090
0.094470
0.062729
0.001505
0.111994
0.077567
0.058921
0.070624
0.167129
0.182999
0.031392
0.054392
0.137667
0.096740
0.048211
0.066036
0.070088
0.151669
0.108850
0.121409
0.101117
0.116675
0.067219
0.032067
0.104753
0.152104
0.088884
0.051913
0.146678
0.159633
0.141911
0.202298
0.085175
0.119064
0.099396
0.141766
0.124389
0.089002
0.139224
0.240196
0.271614
0.189282
0.257324
0.264237
0.169392
0.258901
0.195145
0.267166
0.283827
0.270800
0.254159
0.220922
0.268514
0.283877
0.213544
0.185973
0.235865
0.246703
0.229165
0.145432
0.204203
0.229968
0.139407
0.132629
0.147363
0.080835
0.201321
0.159676
0.175746
0.093876
0.126377
0.070373
0.068421
0.085447
0.145987
0.022356
0.085644
0.085481
0.135987
0.084881
0.015422
0.075033
0.069578
0.146084
0.390251
0.514897
0.941743
1.165701
1.417317
1.488268
1.367620
0.969155
0.634025
0.127094
0.007035
-0.126778
-0.222775
-0.067645
0.002825
0.037786
0.105823
0.100517
0.066309
0.153324
0.146846
0.120904
0.170296
0.150609
0.203330
0.175535
0.174041
0.206974
0.233573
0.242999
0.203805
0.282855
0.248769
0.355484
0.314175
0.388209
0.381485
0.353661
0.408681
0.402040
0.490078
0.505619
0.458145
0.529496
0.520570
0.518741
0.471458
0.598233
0.581568
0.581514
0.568606
0.505019
0.616979
0.518397
0.622610
0.584850
0.523293
0.454552
0.511123
0.492414
0.514483
0.398826
0.396492
0.442731
0.428254
0.390319
0.322108
0.435204
0.382836
0.354698
0.344227
0.333752
0.233703
0.192198
0.218138
0.215899
0.242171
0.216536
0.043859
0.129981
0.106549
0.144681
0.151986
0.089276
0.020964
0.173723
0.043849
0.108323
0.088624
0.072916
0.029545
0.064636
0.045637
0.086049
-0.031841
0.067209
-0.027324
0.056758
0.040664
0.021332
-0.064502
-0.025159
-0.008870
0.027170
-0.009494
-0.031110
0.009308
-0.018594
0.087812
0.023739
0.015807
0.002366
-0.030525
-0.014386
0.032053
0.047007
0.014887
0.023732
0.015561
0.030830
-0.029809
-0.057599
0.033678
0.007593
-0.026598
0.023986
-0.020613
0.040703
0.036982
-0.042911
0.040148
0.010147
0.025963
-0.010232
-0.000878
0.026629
0.010750
0.068507
0.006545
-0.010647
0.127079
0.085557
0.047458
0.094997
0.064215
0.162044
0.129178
0.083128
0.049756
0.219414
0.170214
0.191739
0.221979
0.138566
0.141981
0.127832
0.164309
0.106328
0.168044
0.163016
0.071935
0.087445
0.160997
0.069549
0.148719
0.076261
-0.013621
0.102385
0.172711
0.032145
0.001725
-0.031304
0.039434
0.030770
-0.044055
0.044711
0.034214
-0.051842
-0.064061
0.005929
-0.019062
-0.106566
-0.044746
-0.013454
0.009876
-0.024714
0.026005
0.158220
0.302052
0.687286
0.983325
1.207205
1.276322
1.328031
0.937630
0.614941
0.115266
-0.018077
-0.148686
-0.214009
-0.182362
-0.138614
-0.017805
-0.052248
-0.015529
-0.014717
-0.001738
0.070830
0.044203
0.042315
0.003700
0.030766
-0.020801
0.099912
0.000794
0.051283
0.131455
0.167772
0.087233
0.183124
0.158539
0.155272
0.212803
0.232880
0.239304
0.265530
0.275590
0.310063
0.310106
0.318609
0.413620
0.387478
0.402253
0.396032
0.547463
0.405867
0.466186
0.469715
0.439485
0.447618
0.412974
0.403392
0.510896
0.431918
0.440950
0.313166
0.398508
0.284257
0.375448
0.387318
0.352992
0.292520
0.318241
0.264467
0.255919
0.203230
0.221561
0.203339
0.095427
0.194221
0.109837
0.101506
0.070496
0.060747
0.039663
-0.002287
0.029988
0.033547
-0.047479
-0.008515
-0.044291
-0.094011
0.008482
0.023632
-0.063216
0.023946
-0.083712
-0.030172
-0.111766
-0.110720
-0.051602
0.015527
-0.082583
-0.072964
-0.151758
-0.039459
-0.058906
0.023369
-0.087305
-0.128080
-0.120856
-0.067562
-0.031583
-0.086103
-0.089960
-0.095431
-0.126415
-0.045430
-0.033969
-0.022847
-0.114102
-0.124115
-0.016465
0.016007
-0.053515
-0.093914
-0.058651
-0.018251
-0.079262
-0.144195
-0.095770
-0.081086
-0.036091
-0.113035
-0.076027
-0.032491
-0.094963
-0.014661
-0.044289
-0.109189
-0.058501
-0.049103
-0.026292
-0.045092
-0.033440
-0.025471
-0.078776
-0.012001
-0.014089
0.030708
-0.010868
0.047133
0.036479
-0.007428
-0.069337
0.018341
0.082184
0.091356
0.117953
0.109313
0.040887
0.044099
0.095913
0.118399
0.053365
0.001593
0.131429
0.151378
0.050469
0.066585
0.002252
0.094984
0.015346
0.085106
-0.013704
-0.011702
0.020822
-0.103085
-0.090955
-0.057922
-0.001137
-0.056976
-0.020986
-0.053293
-0.031480
-0.100057
-0.111421
-0.067519
-0.087435
-0.151472
-0.148456
-0.066646
-0.069857
0.011321
0.058808
0.220171
0.487729
0.730505
1.018266
1.214359
1.266989
1.136154
0.727113
0.348945
0.055059
-0.118595
-0.257674
-0.180295
-0.246635
-0.063347
-0.075303
-0.053531
-0.068731
-0.035588
0.037122
-0.018460
-0.089211
0.023234
0.030383
-0.004534
0.074378
0.122881
0.130679
0.050962
0.155427
0.060097
0.121175
0.131334
0.210083
0.219899
0.198296
0.250948
0.315845
0.296783
0.239335
0.338535
0.398633
0.413359
0.364380
0.389860
0.361214
0.433367
0.493621
0.463871
0.446148
0.446758
0.519182
0.554483
0.400738
0.364298
0.455076
0.399989
0.389364
0.405538
0.448342
0.382433
0.388600
0.347936
0.349174
0.312091
0.270772
0.170104
0.274112
0.215565
0.153876
0.223338
0.159106
0.241880
0.128787
0.157049
0.054199
0.083185
0.019779
0.064610
0.071104
-0.049815
0.001152
0.019823
-0.037698
0.004137
-0.029134
0.060233
0.009889
-0.019288
-0.037762
-0.012108
-0.015414
-0.060657
0.033138
-0.140929
-0.046092
-0.007167
-0.060240
-0.022551
0.005409
0.011505
0.022949
-0.055425
-0.076024
-0.065850
-0.031275
-0.011372
-0.019013
-0.127210
-0.024236
-0.027616
0.011763
-0.072371
-0.021414
-0.030907
0.011367
-0.047910
-0.021441
-0.003511
-0.009725
-0.069034
-0.045911
-0.099881
-0.037456
-0.036933
-0.076699
-0.015686
-0.011531
-0.104281
0.018131
-0.064906
0.011839
0.059051
-0.031822
0.020769
0.052778
0.018767
0.136559
0.021733
-0.059651
0.017329
0.105618
0.108642
0.119775
0.177164
0.073284
0.124281
0.083307
0.119255
0.126713
0.176931
0.121128
0.152444
0.075668
0.207228
0.045335
0.121054
0.220609
0.177782
0.093919
0.167131
0.169342
0.153892
0.173924
0.074950
0.056123
0.101756
0.121186
0.048428
0.025631
0.078333
0.079546
0.044990
0.062093
-0.014679
0.116955
0.004988
0.005474
-0.051687
-0.003648
-0.038404
-0.001054
-0.014688
-0.005393
0.053280
0.061389
0.083558
0.222534
0.363724
0.633540
1.053303
1.309484
1.342436
1.245136
1.058649
0.725400
0.380581
0.044686
-0.090365
-0.173676
-0.193538
-0.111989
-0.064789
0.069058
0.013322
0.034996
0.085173
0.003854
0.091042
0.092036
0.167322
0.126069
0.111657
0.222433
0.130467
0.195423
0.198674
0.220284
0.283944
0.283751
0.271224
0.219992
0.354653
0.360947
0.395198
0.376604
0.347080
0.403456
0.412594
0.477222
0.485730
0.401536
0.571024
0.552179
0.501676
0.519671
0.455537
0.497708
0.585189
0.467602
0.601757
0.570031
0.583766
0.536936
0.492782
0.525675
0.522248
0.467687
0.464690
0.407277
0.479490
0.349376
0.386590
0.331312
0.340287
0.252525
0.327909
0.303147
0.223418
0.269286
0.283913
0.196791
0.231230
0.221108
0.215201
0.125002
0.108814
0.201355
0.052351
0.199090
0.143609
0.046940
0.072941
-0.013856
0.093248
0.053332
0.147738
0.063948
0.026870
0.031222
0.148311
0.021685
0.025599
0.067789
0.012165
0.090342
0.077779
0.002047
-0.035425
0.030951
0.082303
0.025502
-0.053096
0.044411
-0.024994
0.098586
0.012216
0.054585
0.039321
0.088842
0.060131
0.056320
0.088330
0.015874
0.057754
0.010314
0.059949
0.066464
0.043753
0.011248
-0.015357
0.048626
-0.001201
0.076216
0.036096
0.062338
0.077045
0.086344
0.097552
0.034401
0.133343
0.174378
0.059423
0.052587
0.081501
0.139972
0.033548
0.075318
0.124152
0.116973
0.134666
0.110388
0.143707
0.157919
0.095583
0.205358
0.149960
0.248802
0.200997
0.192206
0.146829
0.088888
0.162944
0.226243
0.171871
0.173215
0.267514
0.183414
0.152611
0.179440
0.137995
0.098348
0.152582
0.194897
0.128221
0.135916
0.162994
0.092563
0.087424
0.144736
0.096578
0.072211
0.061904
0.083002
0.028885
0.050767
0.051313
0.078923
0.074276
0.026170
0.009928
0.018862
0.019162
-0.076831
0.278902
0.331169
0.575625
0.864126
1.145778
1.445643
1.460055
1.192120
0.911407
0.576272
0.201924
-0.078426
-0.191111
-0.096321
-0.106134
-0.099306
0.052508
0.047415
0.038903
0.024408
0.041791
0.086264
0.108805
0.056903
0.151743
0.098393
0.156143
0.160629
0.165726
0.105192
0.083985
0.170865
0.214373
0.211389
0.271172
0.290777
0.283377
0.313138
0.393831
0.358027
0.317197
0.371270
0.453980
0.467102
0.487558
0.459145
0.467757
0.385029
0.462619
0.565242
0.512794
0.544582
0.582344
0.503658
0.560780
0.546389
0.498580
0.545766
0.461311
0.485388
0.501765
0.403151
0.448597
0.393303
0.375374
0.409519
0.315729
0.315742
0.381165
0.327725
0.280727
0.183987
0.303169
0.199134
0.151144
0.137078
0.236492
0.090583
0.105397
0.099319
0.087779
0.107532
-0.008105
-0.012964
0.069524
0.012471
0.017758
0.035971
0.052549
0.050028
0.050257
-0.048199
-0.025595
0.021912
-0.060568
-0.022818
-0.065030
0.001993
-0.023538
0.039166
-0.029922
-0.046674
0.007789
0.019976
-0.059808
-0.010202
-0.027973
0.004185
0.040567
0.007779
-0.046611
0.059321
-0.049454
0.003696
-0.017704
0.016314
0.013226
-0.017100
-0.013754
-0.084012
0.004360
0.019936
-0.014355
-0.011920
-0.023692
-0.048862
-0.041955
-0.039386
-0.010260
-0.093297
-0.033645
0.023658
0.032962
-0.039708
-0.007633
0.090578
-0.028554
0.042352
0.024017
-0.016044
0.001777
0.039588
0.044495
0.035401
-0.019348
0.082969
0.131268
0.089449
0.047879
0.109031
0.115987
0.053215
0.083888
0.045161
0.047861
0.112297
0.114415
0.119721
0.077974
0.131635
0.136634
0.090274
0.021513
0.053549
0.019727
0.090638
0.069275
0.052461
0.069340
-0.077384
-0.007799
0.015513
-0.037553
-0.016647
0.012730
0.042665
-0.027268
-0.050237
-0.064828
-0.106027
-0.011379
0.021362
-0.152894
-0.055624
-0.065455
-0.060711
-0.107797
0.054556
0.118135
0.314830
0.702402
0.915687
1.216541
1.269167
1.199011
0.855165
0.701027
0.220870
-0.056235
-0.101078
-0.243850
-0.309891
-0.168861
-0.144087
-0.138641
-0.101286
-0.059311
0.025256
-0.063737
0.024994
0.013344
-0.099773
0.031208
0.007473
0.045059
0.054634
0.055493
0.107721
0.234332
0.142109
0.001866
0.160273
0.087444
0.165177
0.241186
0.291098
0.210471
0.333815
0.306177
0.359092
0.362740
0.291323
0.377895
0.317941
0.425234
0.364628
0.457266
0.428443
0.474934
0.378136
0.404829
0.419431
0.379763
0.352846
0.441246
0.370666
0.387592
0.330395
0.371528
0.301847
0.256424
0.251754
0.295198
0.309574
0.294469
0.238645
0.250039
0.198982
0.154200
0.169069
0.147849
0.101214
0.102795
0.143592
0.037329
0.026995
-0.023603
-0.091274
-0.026817
0.072831
-0.076689
-0.060139
0.065640
-0.032076
-0.071105
-0.090899
-0.047251
-0.071949
-0.051275
-0.042361
-0.086037
-0.063031
-0.105645
-0.078468
-0.017763
-0.088793
-0.093453
-0.104472
-0.069432
-0.091488
-0.202006
-0.143322
-0.086182
-0.061143
-0.097674
-0.142171
-0.135123
-0.109837
-0.034894
-0.069219
-0.130400
-0.170124
-0.163094
-0.108606
-0.050381
-0.037282
-0.139946
-0.137925
-0.111599
-0.110865
-0.093844
-0.137644
-0.140665
-0.158221
-0.004769
-0.118951
-0.059360
-0.070862
-0.048300
-0.078877
-0.076152
-0.076031
-0.161245
-0.102131
-0.032342
-0.087773
0.014752
-0.021518
-0.084014
-0.005244
0.013297
0.049889
-0.022466
0.017157
-0.038148
-0.025530
-0.001352
0.081407
0.091296
0.138499
0.079567
0.037422
0.057640
0.097661
-0.026861
0.131250
0.132822
0.123270
0.062416
0.055940
0.056832
0.059315
0.016391
0.004965
0.018546
-0.034738
0.045579
-0.117895
-0.134309
0.003329
-0.036737
-0.041680
0.022853
-0.019473
-0.075075
-0.046068
-0.063498
-0.113281
-0.069959
-0.142363
-0.076731
-0.079375
-0.014827
-0.124753
-0.113402
-0.054167
0.250689
0.437292
0.768347
1.013305
1.266491
1.291502
1.076769
0.765189
0.361903
0.117761
-0.226879
-0.430288
-0.370282
-0.257938
-0.136456
-0.112248
-0.089508
-0.073719
-0.055017
0.000463
0.017144
-0.037006
0.004795
-0.083035
0.058303
-0.013031
0.052456
0.072801
0.127730
0.172311
0.175974
0.182634
0.159073
0.170487
0.231008
0.204825
0.237767
0.300982
0.258192
0.309439
0.252229
0.343436
0.387358
0.345011
0.391194
0.378646
0.386341
0.346612
0.362980
0.444936
0.465904
0.425876
0.365551
0.419922
0.424374
0.489736
0.336952
0.451585
0.486959
0.279883
0.333726
0.356303
0.317498
0.303925
0.215883
0.310002
0.297516
0.293195
0.165933
0.237969
0.219475
0.180501
0.193691
0.123127
0.130108
0.137764
0.015149
0.077412
0.035346
-0.020945
0.010558
0.034970
0.064423
-0.057967
-0.000548
0.035101
0.046151
-0.021878
0.048829
-0.032469
-0.029971
-0.046748
0.003456
-0.005227
-0.100194
-0.022206
-0.049658
-0.093656
-0.070941
-0.023955
-0.072275
-0.123956
-0.020814
0.000407
-0.028067
-0.015047
-0.017949
-0.005791
-0.026371
0.063550
-0.022974
-0.017862
-0.030918
-0.056775
-0.116023
-0.075496
-0.079006
-0.045445
-0.060451
-0.082099
-0.077544
0.009635
0.018185
-0.067751
0.015153
-0.030562
0.030340
0.029809
0.060648
0.048867
-0.022485
0.057791
-0.083919
-0.029807
-0.047326
0.046327
0.079215
0.069263
-0.000697
-0.041586
0.075469
0.086803
0.020065
0.033011
0.083026
0.101586
0.018831
0.084786
0.079256
0.068939
0.084557
0.133216
0.161818
0.252769
0.261060
0.194956
0.147244
0.088184
0.097375
0.139272
0.197071
0.292360
0.177223
0.187849
0.148708
0.078308
0.110365
0.107592
0.155940
0.070803
0.124792
0.115730
0.054995
-0.005742
0.020088
0.040245
0.003964
0.056827
-0.043701
-0.017216
-0.000523
0.030299
0.064135
-0.002275
-0.033741
-0.025087
0.033017
0.149197
0.270826
0.702650
0.940708
1.354300
1.413480
1.342962
1.069140
0.748700
0.326713
-0.034911
-0.144822
-0.229082
-0.149399
-0.145674
-0.032157
0.020496
0.033163
0.122700
0.023942
0.038960
0.112619
0.052938
0.075181
0.143450
0.140376
0.150345
0.154338
0.194212
0.140989
0.208614
0.239027
0.258779
0.245064
0.283627
0.253169
0.320793
0.370735
0.356126
0.410900
0.402668
0.426489
0.470138
0.567068
0.454762
0.500359
0.493952
0.500128
0.518538
0.544013
0.555142
0.526558
0.548647
0.652963
0.553860
0.505115
0.547533
0.519294
0.529959
0.454469
0.490690
0.424705
0.498573
0.445899
0.496619
0.407845
0.360995
0.469958
0.286132
0.257657
0.355004
0.257654
0.329733
0.184613
0.111618
0.187846
0.273337
0.219794
0.193007
0.134779
0.078809
0.163815
0.134420
0.172490
0.078206
0.027084
0.173486
0.007690
0.057583
-0.003546
0.064942
0.124594
0.088381
0.145249
0.062039
0.072185
0.049318
0.044941
0.091643
0.119068
0.064242
0.102926
0.050855
0.017853
0.029343
0.081637
0.060733
0.069287
0.115934
0.133980
0.122805
0.022666
0.052087
0.081132
0.041052
0.071108
0.074868
0.094824
0.160574
0.087308
-0.009314
0.041435
0.111185
0.065540
0.041003
0.136955
0.000940
-0.003145
0.054965
0.095517
0.049432
0.165571
0.060215
0.033867
0.095455
0.098796
0.130661
0.156470
0.149593
0.081151
0.183765
0.171066
0.184804
0.222462
0.157015
0.142366
0.135844
0.179824
0.233992
0.272618
0.297566
0.276803
0.183451
0.284320
0.234968
0.229452
0.269542
0.258114
0.282112
0.231936
0.219648
0.199588
0.177876
0.261739
0.202102
0.246116
0.106883
0.163860
0.070632
0.121524
0.087395
0.152342
0.134408
0.092989
0.077288
0.071250
0.118195
0.108098
0.035736
0.015085
