-0.030627
0.020739
0.054831
0.055290
-0.012136
0.040911
0.027019
-0.051128
-0.085503
0.005955
-0.087503
0.081011
-0.022263
0.008825
-0.027166
0.109779
-0.037683
0.028222
0.037982
-0.021691
-0.002724
0.016758
-0.018206
-0.026873
-0.000983
-0.010864
-0.040678
0.023223
0.056114
-0.083735
-0.001434
0.064390
-0.007093
0.011882
0.057724
0.028289
0.008379
0.031181
0.044336
0.091451
0.075051
0.089280
0.114189
0.097835
0.123580
0.109380
0.105802
0.182146
0.139820
0.162442
0.199435
0.150803
0.153734
0.243172
0.207730
0.195008
0.236958
0.169748
0.233898
0.186648
0.205887
0.170930
0.144361
0.239999
0.194403
0.162270
0.160313
0.092660
0.140322
0.164627
0.175397
0.147300
0.111653
0.106043
0.029173
0.107033
0.111118
0.049638
0.026878
0.029055
0.057144
0.088167
-0.034583
0.034424
0.088915
0.072837
0.040871
0.122433
0.037783
0.033051
0.107664
0.062251
0.028268
0.102126
0.060995
0.050395
0.042853
-0.004341
0.089347
0.044592
0.063800
0.044286
0.038405
-0.011578
0.115524
0.000543
-0.096706
0.000512
-0.019743
0.046901
0.148392
0.349581
0.698014
1.008233
1.345087
1.500000
1.427445
1.209081
1.050820
0.745887
0.392274
0.137382
-0.061368
-0.230058
-0.344656
-0.265503
-0.137610
-0.042835
-0.097163
-0.027294
0.077035
0.046493
0.020772
0.030576
0.048859
0.051095
-0.032479
0.021885
0.101853
0.097097
0.031055
0.112144
0.070242
0.118187
0.162449
0.095070
0.113322
0.075666
0.126823
0.137335
0.087709
0.154730
0.157024
0.111716
0.172525
0.037825
0.105418
0.171221
0.083135
0.169978
0.198274
0.245092
0.235721
0.267008
0.254726
0.241270
0.299631
0.280238
0.299412
0.291382
0.333874
0.321230
0.329180
0.429127
0.337499
0.471828
0.434300
0.488245
0.486561
0.513131
0.570355
0.563802
0.577890
0.563275
0.598379
0.629371
0.567202
0.657872
0.567358
0.527843
0.609353
0.595536
0.577307
0.562738
0.561927
0.564665
0.552472
0.498212
0.441813
0.379511
0.470580
0.436707
0.431814
0.402190
0.341958
0.356057
0.396242
0.315501
0.261956
0.297821
0.338112
0.193750
0.230735
0.232977
0.201965
0.125805
0.212678
0.280313
0.177210
0.181166
0.088751
0.125011
0.061831
0.123929
0.113820
0.057522
0.059209
0.113716
0.097326
0.067492
0.121562
0.143520
0.007944
0.058152
0.137278
0.010165
0.064328
0.070319
0.162582
0.132369
0.049988
0.094935
0.054609
0.108464
0.152245
0.098332
0.094929
0.100631
0.051661
0.001143
0.128503
0.100269
0.118379
0.051947
0.085880
0.070543
0.083903
0.044552
0.056573
0.001129
0.032452
0.123203
0.110122
0.106709
0.019167
0.043014
0.067043
0.056981
0.056467
0.023027
0.088610
0.065807
0.090583
0.027381
0.127479
0.090105
0.106566
0.110493
0.121489
0.124700
0.082810
0.067181
0.083105
0.023001
0.112417
0.044398
0.039945
0.092368
0.075713
0.066468
0.051974
0.092329
0.072532
0.098492
0.120965
0.059330
-0.020270
0.089405
0.029874
0.066277
0.024538
0.079296
-0.024297
0.017969
0.004368
0.045771
0.092568
0.037764
0.012506
0.046853
0.126309
0.077351
0.067871
0.010202
0.026553
0.074629
0.032428
0.123007
0.085027
0.070275
0.046098
-0.041806
0.020530
0.056928
0.038698
0.096955
0.043331
0.012997
0.099188
0.059051
0.072975
0.062817
0.110927
0.157466
0.201258
0.182787
0.133387
-0.032175
0.175370
0.176329
0.162380
0.166578
0.204089
0.204087
0.295312
0.238148
0.235251
0.283164
0.221169
0.201530
0.249759
0.207007
0.182683
0.197348
0.067655
0.056560
0.057738
0.116469
0.122671
0.158015
0.189305
0.102234
0.102089
0.013297
0.099847
0.089991
0.078424
-0.023450
-0.014138
-0.016345
-0.010909
0.081920
-0.030174
-0.043916
0.026977
-0.031130
-0.005879
0.017980
-0.032922
-0.027351
-0.028292
0.071593
-0.079563
-0.039727
0.028592
-0.047064
-0.028819
0.043070
0.012386
0.066677
0.039840
0.025789
0.004731
-0.001071
0.047401
-0.107552
-0.088716
-0.057367
0.037970
0.141761
0.487596
0.877976
1.132511
1.381088
1.397462
1.279990
1.122637
0.728688
0.540011
0.220698
-0.111918
-0.245307
-0.284651
-0.305234
-0.337018
-0.184883
-0.105691
-0.105667
-0.046470
-0.057317
-0.028278
0.041212
-0.005164
0.057849
0.049159
-0.088005
0.009839
0.021742
-0.090571
0.049135
-0.086523
-0.014876
-0.009628
0.014980
-0.020847
-0.038294
0.011464
0.071324
-0.052428
-0.052112
-0.041262
0.049777
-0.015879
-0.031596
0.040364
0.005054
0.023758
0.063379
0.009749
0.019209
0.100484
0.117845
0.120859
0.144504
0.199216
0.146798
0.272024
0.181854
0.258950
0.242632
0.244734
0.295828
0.264757
0.239049
0.385573
0.393336
0.417795
0.403951
0.413349
0.434882
0.395329
0.404724
0.404128
0.514139
0.419211
0.467608
0.590610
0.463885
0.481275
0.446471
0.388063
0.439516
0.368397
0.398783
0.432333
0.423438
0.346884
0.339257
0.393305
0.271383
0.297301
0.355604
0.267615
0.169924
0.279807
0.212881
0.159481
0.076580
0.191584
0.103535
0.128770
0.062065
0.117219
0.101273
0.023164
0.076948
0.104493
0.046911
0.068814
-0.037978
-0.011551
0.102996
0.002328
-0.017751
-0.053954
0.020323
-0.005416
-0.032534
0.009357
-0.117330
-0.107638
-0.011628
0.038305
0.010200
-0.023776
-0.052356
0.003626
-0.095743
-0.028635
-0.110832
-0.103709
0.013826
-0.081152
0.036433
-0.056697
-0.070905
-0.003280
-0.086483
-0.056140
-0.065659
-0.043005
0.012632
0.002175
-0.066075
-0.038872
-0.044757
0.007920
-0.078007
-0.039016
-0.074731
-0.052857
-0.076734
-0.109608
-0.018717
-0.015910
-0.038624
-0.104919
0.000748
-0.005766
-0.052615
-0.043575
-0.015253
-0.024257
0.022142
-0.132547
-0.052853
-0.080026
-0.074800
-0.114268
0.055853
-0.087899
-0.098173
-0.105737
-0.070166
-0.021600
-0.120180
-0.051082
-0.037007
0.011618
0.043184
-0.020029
-0.093841
-0.029773
-0.017150
-0.077328
-0.069296
-0.066339
-0.038983
-0.073844
-0.002641
-0.017593
0.005038
0.015032
-0.010407
-0.009073
0.031267
-0.080812
-0.055299
-0.102937
-0.024623
-0.025549
0.009412
0.008260
-0.025385
0.048928
-0.070407
0.031390
-0.008500
-0.052734
-0.023485
-0.070720
-0.084498
-0.033599
0.001295
-0.065515
0.000551
0.053336
-0.055702
0.064954
0.018792
0.040906
-0.012601
0.043653
0.034739
0.023549
0.009976
0.099276
0.109701
0.035820
0.131102
0.154038
0.183069
0.196260
0.145673
0.061728
0.128219
0.095819
0.103304
0.079684
0.124517
0.085316
0.128400
0.070476
0.161291
0.122321
0.074304
-0.013556
0.078016
0.053622
0.019873
0.040682
-0.014561
0.048780
-0.008738
-0.015194
-0.071579
-0.040720
-0.064723
0.029082
0.008019
-0.058892
-0.073231
0.018313
-0.059037
-0.010577
0.001350
-0.002915
-0.008659
0.033261
-0.006628
-0.098289
0.058664
0.045544
-0.021695
0.029197
-0.023744
-0.014519
-0.124224
-0.021463
0.015555
0.061677
-0.006770
-0.018799
-0.073032
-0.100867
-0.188568
-0.040707
0.120242
0.301408
0.660977
1.104488
1.312870
1.381494
1.403633
1.201780
0.800276
0.610904
0.357410
0.010644
-0.168372
-0.300857
-0.308431
-0.368642
-0.294703
-0.214083
-0.120085
-0.015893
-0.013860
0.016329
-0.004504
0.052494
0.071545
0.011451
-0.033091
0.015806
-0.011466
0.005202
0.011669
0.027553
0.023228
-0.051848
0.018197
0.005991
-0.009607
-0.022958
0.015026
0.011455
-0.034542
0.049162
0.087759
0.008176
0.078667
0.056664
0.174120
0.124565
0.134011
0.076383
0.129686
0.152486
0.173602
0.145521
0.098300
0.199434
0.175571
0.282583
0.235793
0.217906
0.323331
0.364352
0.351716
0.356770
0.368155
0.467585
0.292306
0.486841
0.443549
0.376718
0.446326
0.442179
0.530376
0.540466
0.491146
0.453116
0.498123
0.615592
0.561811
0.528960
0.642911
0.528813
0.537911
0.509689
0.515693
0.426394
0.399883
0.386604
0.443280
0.468594
0.348007
0.305190
0.285484
0.345300
0.323303
0.358327
0.250189
0.212007
0.252531
0.307885
0.149042
0.158836
0.189141
0.166523
0.223927
0.143202
0.072290
0.127444
0.049855
0.111837
0.109465
0.049314
0.115838
0.081021
0.060128
0.165359
0.060105
0.022576
0.128311
0.133551
0.076103
0.064762
0.084186
0.128464
0.057444
0.004520
-0.032546
0.080858
-0.012973
0.160020
0.088697
0.084847
-0.009987
0.020090
0.092893
0.117127
0.017634
0.074282
0.104793
0.068578
0.051745
0.119171
0.091265
0.057214
0.012817
0.112146
0.087569
0.118960
0.022230
0.063346
0.049984
0.102602
0.087264
0.200726
0.079831
0.087265
0.065724
0.022967
0.004581
0.002875
0.011789
0.096134
0.103338
0.099525
0.040165
0.021711
0.103874
0.110912
0.053397
0.078372
0.077470
0.049147
0.153897
0.063617
0.162762
0.003728
0.153576
0.119670
0.070367
0.064741
0.100879
0.121820
-0.009775
0.120794
0.067173
0.019198
0.053042
0.043447
0.136299
0.083373
0.105592
0.135585
0.101411
0.088125
0.092115
0.112606
0.099526
0.095561
0.154118
0.074970
0.118908
0.039374
0.052093
0.179553
0.001505
0.109216
0.028733
0.122965
0.078004
0.174550
0.073737
0.112233
0.062566
0.121576
0.109042
0.096595
0.162804
0.116635
0.211790
0.053302
0.194533
0.115839
0.157764
0.189582
0.134303
0.177129
0.179666
0.198257
0.190873
0.226250
0.185368
0.256169
0.284693
0.194734
0.231891
0.242398
0.212582
0.330592
0.267094
0.218051
0.271366
0.206100
0.243367
0.291317
0.158401
0.176549
0.163904
0.274492
0.194591
0.242979
0.182350
0.197304
0.107283
0.121025
0.160499
0.142225
0.135789
0.126704
0.082379
0.183724
0.075521
0.047551
0.074939
0.073166
0.132153
0.016483
0.110350
-0.049590
0.053968
0.127321
0.101912
0.049394
0.124268
0.083578
0.185302
0.042176
0.097743
0.113107
0.121274
0.074035
0.048272
0.095677
0.080844
0.071949
0.004292
0.030701
-0.016556
0.007120
0.117468
0.374558
0.501268
0.881021
1.272121
1.387246
1.469695
1.366162
1.097576
0.873038
0.529153
0.272953
0.003476
-0.190546
-0.242292
-0.316955
-0.180328
-0.196549
-0.001404
0.023486
0.049015
0.011180
0.097798
0.046673
0.080018
0.107977
0.091706
0.087393
0.116758
0.127867
0.128135
0.058280
0.079713
0.059079
0.129679
0.058025
-0.010533
0.112918
0.036480
0.071076
0.108021
0.032172
0.039324
0.085931
0.052464
0.044459
0.164497
0.177042
0.165735
0.098434
0.143298
0.206065
0.238646
0.219017
0.196569
0.197515
0.165600
0.321069
0.245862
0.317262
0.323434
0.264186
0.284057
0.341163
0.378152
0.398463
0.477616
0.403396
0.511590
0.504437
0.515644
0.539880
0.426482
0.477464
0.433489
0.520228
0.513161
0.584983
0.575253
0.623556
0.553079
0.579334
0.471665
0.596901
0.459748
0.500460
0.493530
0.460944
0.409936
0.382965
0.388139
0.366781
0.311315
0.325793
0.298158
0.337527
0.231487
0.266652
0.285734
0.284148
0.195118
0.163200
0.187044
0.208325
0.232191
0.162323
0.167647
0.037427
0.036043
0.113523
0.069894
0.065634
0.140954
0.064883
0.079818
0.028520
0.127863
0.066206
0.116437
0.089362
0.039958
0.102584
-0.006051
0.030816
0.145744
0.111123
0.086488
0.020290
0.005751
0.045566
0.070930
0.074740
0.055681
-0.010948
-0.021285
-0.010712
0.002763
0.060355
-0.019853
-0.023118
0.005529
-0.060823
0.014936
-0.030157
0.015071
0.069282
-0.057434
0.006907
0.095880
0.037543
0.048890
-0.043300
-0.025796
0.020055
0.006806
0.032249
0.007182
0.080801
-0.063568
0.016675
0.059792
0.017756
-0.007739
0.020839
-0.001235
0.037930
-0.034859
-0.042045
0.076961
0.049616
-0.068227
-0.000381
-0.005414
0.009175
-0.041802
-0.019596
-0.033049
-0.029557
0.005419
-0.056057
0.031551
-0.020642
-0.005871
-0.052984
0.072296
-0.013095
0.045594
-0.010999
0.010220
-0.022947
-0.065762
0.045946
-0.023616
0.002250
-0.004373
0.110174
-0.001220
-0.010206
-0.023211
-0.052964
0.049973
0.031718
-0.011831
0.063331
-0.034865
-0.004580
0.038252
-0.035441
-0.072053
-0.009254
0.014079
-0.018553
-0.005654
-0.023194
-0.017810
0.034899
0.045604
-0.048180
0.026617
-0.007888
0.052142
0.069318
0.086836
0.093833
0.014082
0.034493
0.004559
-0.050763
0.112549
0.048136
0.089273
0.087883
0.057570
0.186928
0.153666
0.044653
0.068644
0.191627
0.195306
0.116515
0.084922
0.092852
0.091768
0.101153
0.028150
0.065422
0.023375
0.016444
0.106347
0.040145
0.062094
-0.010599
0.057729
-0.025667
-0.032796
-0.053502
-0.098014
-0.037150
-0.055797
-0.060346
-0.085753
0.044290
-0.107080
-0.045314
-0.059365
-0.113081
-0.018727
-0.080619
-0.008465
-0.013705
0.006712
-0.001754
-0.006517
0.002664
0.006416
-0.068628
-0.047768
-0.036552
-0.102619
-0.051374
-0.031338
-0.081338
-0.031203
-0.081354
-0.036590
-0.135044
-0.190316
-0.183992
-0.052871
0.071572
0.307391
0.561069
0.903302
1.269275
1.357918
1.274698
1.140136
0.780991
0.526349
0.278741
-0.030586
-0.199881
-0.331985
-0.397315
-0.418926
-0.404942
-0.244320
-0.159868
-0.169641
-0.093951
-0.095262
-0.099996
-0.027443
-0.098487
-0.036669
-0.148057
-0.084624
-0.110403
-0.043326
-0.082993
-0.025960
-0.041203
-0.063965
-0.038213
-0.136930
-0.057970
-0.057532
0.022501
-0.062023
0.047993
-0.005261
0.000645
-0.024418
-0.017905
-0.012470
-0.067824
-0.057761
-0.004195
-0.066924
-0.031819
0.035742
0.057343
0.037296
0.146674
0.031518
0.068832
0.092308
0.184289
0.090957
0.188933
0.171365
0.252737
0.272318
0.288130
0.199517
0.269794
0.299489
0.324609
0.317999
0.384975
0.301061
0.451107
0.396313
0.457955
0.389686
0.477253
0.385434
0.479156
0.417909
0.478681
0.355526
0.362955
0.341448
0.431905
0.357931
0.369979
0.318544
0.277120
0.268173
0.288252
0.274861
0.193383
0.234484
0.226718
0.126303
0.187467
0.149649
0.102583
0.064791
0.082099
0.089003
0.062703
0.009204
0.044050
0.053933
0.005843
0.037811
0.049522
0.061891
-0.096802
-0.022171
-0.028904
-0.048421
-0.053803
-0.050671
-0.069273
-0.103308
-0.099441
-0.016066
-0.064392
-0.067317
-0.046788
-0.036069
-0.060267
-0.030676
-0.063500
-0.019291
-0.150605
-0.130929
-0.074649
-0.049392
-0.091263
-0.034458
-0.081364
-0.081586
-0.156060
-0.034057
-0.062261
-0.049795
-0.037874
-0.061952
-0.062037
-0.144387
-0.015015
-0.070850
-0.053304
-0.040808
-0.115921
-0.067903
-0.075218
-0.096020
-0.012045
-0.035694
-0.093870
-0.086703
-0.011184
-0.060287
-0.130591
-0.084603
-0.059421
-0.000210
-0.026554
-0.025727
-0.036223
0.011180
-0.153825
-0.102557
-0.042395
-0.125813
-0.085918
-0.020101
-0.092974
-0.098499
0.015076
-0.025868
-0.080144
-0.094655
-0.020627
-0.126641
-0.089204
-0.022180
-0.089366
-0.016518
-0.048080
-0.072097
-0.028074
-0.062465
-0.104096
-0.120004
0.085000
-0.104999
-0.033029
-0.061394
-0.003093
0.039340
-0.033711
-0.005230
-0.013585
-0.051102
-0.030069
-0.003050
-0.037381
-0.075481
-0.023962
0.026957
-0.057767
-0.079057
-0.022325
-0.046095
-0.046327
-0.036635
-0.094239
0.034188
0.030137
-0.047744
-0.032815
-0.038936
-0.007202
0.012353
0.032610
0.059117
0.031475
0.031793
0.069739
0.013206
-0.005182
-0.028479
0.057221
0.147965
0.165370
0.109135
0.071915
0.165193
0.186841
0.137897
0.170336
0.135605
0.080908
0.130090
0.084390
0.112873
0.152480
0.108918
0.106876
0.178960
0.082993
0.124493
0.011424
0.099729
-0.015504
0.120264
-0.076250
-0.045176
0.014654
0.039575
-0.008435
0.024678
-0.018969
0.005071
-0.068618
0.067547
0.052897
0.022673
-0.002054
-0.003943
-0.014443
0.063567
-0.000846
-0.001509
-0.035266
0.005648
-0.029045
-0.070066
0.004602
-0.014914
0.002067
0.002164
0.003673
-0.047337
0.030961
0.122419
0.057263
-0.027762
-0.054864
-0.139397
-0.102576
-0.043769
0.047061
0.247164
0.538249
0.865184
1.173674
1.388475
1.369632
1.334877
1.012496
0.717628
0.442147
0.144073
-0.042907
-0.193941
-0.313045
-0.322380
-0.217031
-0.249514
-0.167984
-0.089920
0.029973
-0.035785
0.007300
0.073305
0.044736
0.029891
0.017789
-0.046281
-0.013042
0.003965
0.018435
0.035756
-0.060110
-0.001772
-0.051488
0.040210
0.033392
0.107265
0.093206
0.063887
0.095595
0.040275
0.028259
0.061724
0.035838
-0.020261
0.120022
0.084492
0.043782
0.137664
0.080250
0.119476
0.127413
0.235892
0.175137
0.204808
0.200892
0.215132
0.241475
0.194991
0.313162
0.318487
0.308643
0.310085
0.393616
0.453969
0.343363
0.463063
0.406165
0.532634
0.531219
0.428513
0.495603
0.538009
0.523860
0.537675
0.575488
0.479909
0.489229
0.576398
0.504001
0.489292
0.479302
0.530387
0.496556
0.506109
0.528491
0.438721
0.397493
0.439304
0.403540
0.410016
0.373254
0.335066
0.286424
0.298162
0.230494
0.303473
0.278594
0.208889
0.261050
0.211533
0.214203
0.196186
0.124081
0.104866
0.104851
0.117310
0.086919
0.041308
0.113612
0.097221
0.046910
-0.023698
0.030029
0.081469
0.081196
0.054931
0.043716
0.093649
0.001621
-0.030608
-0.020705
0.085529
0.060515
0.074214
0.020879
0.055480
0.055185
0.096614
0.078493
0.023558
0.127036
0.052000
0.028523
0.068484
0.010591
0.069159
0.129720
0.092239
0.005357
0.139082
0.093408
0.078203
0.111078
0.018322
0.126312
0.108996
0.099938
0.053584
-0.011941
0.030002
0.026663
0.070819
0.072010
0.017308
0.100121
0.083655
0.006403
0.030813
0.072977
0.002219
0.059585
0.065677
0.081206
0.074257
0.037144
0.066197
0.057190
0.000546
0.015254
0.090553
0.070022
0.017437
0.004993
0.040547
-0.033181
0.026513
0.042973
-0.036196
-0.017478
0.033800
0.032800
-0.020010
0.035796
0.046680
0.100483
0.018180
0.099015
0.060293
0.040438
-0.049417
0.023695
0.011987
0.124273
0.076449
-0.012497
0.075094
0.027061
0.011483
0.033439
0.106367
0.027696
0.185553
0.015089
-0.022206
-0.007552
0.050333
0.032343
0.031343
0.100367
0.098312
-0.032482
0.052203
0.083409
0.082535
0.031356
0.143731
0.111993
-0.011143
0.031164
0.039241
0.154318
0.206458
0.091644
0.153181
0.203280
0.130316
0.195298
0.103090
0.196619
0.134306
0.130665
0.262793
0.145253
0.144072
0.194384
0.212538
0.235654
0.229244
0.231609
0.233396
0.192275
0.212618
0.168422
0.189542
0.153880
0.109365
0.175882
0.114041
0.012869
0.067405
0.108860
0.090690
0.096090
0.129171
0.091352
-0.120908
0.017705
0.005932
0.047529
0.026126
-0.023956
0.011297
-0.096511
0.011594
-0.013599
0.078262
0.001269
0.005387
0.005110
0.012904
0.027129
-0.032289
-0.043539
-0.026449
0.022875
-0.050180
0.050843
0.065932
0.027522
0.052529
0.019038
-0.042001
-0.044013
-0.142841
-0.107543
-0.122669
-0.022237
0.122682
0.413080
0.717963
1.076546
1.294876
1.401672
1.295928
1.250189
0.870053
0.614635
0.281698
0.029874
-0.216495
-0.313127
-0.355906
-0.360649
-0.242543
-0.181499
-0.074542
-0.037873
0.014790
0.009740
0.027252
0.016291
0.027284
0.011220
0.002611
-0.094380
0.061440
-0.078639
-0.026969
0.017828
-0.044127
-0.017817
-0.038955
-0.020228
-0.051547
0.025550
-0.048177
-0.024197
-0.048923
0.058720
-0.049129
0.031988
-0.062313
-0.053999
0.084663
0.013009
0.070454
0.049353
0.026452
0.094509
0.070291
0.129300
0.120701
0.097951
0.160105
0.171474
0.221525
0.209402
0.179860
0.211873
0.322089
0.345848
0.261476
0.316609
0.330037
0.319393
0.367678
0.339195
0.363255
0.327739
0.495908
0.479991
0.522673
0.481403
0.541273
0.471758
0.478641
0.434034
0.453465
0.447267
0.372356
0.443457
0.441225
0.401496
0.353251
0.307013
0.462589
0.403351
0.355348
0.224116
0.234310
0.242899
0.218762
0.259945
0.244082
0.146343
0.134391
0.130674
0.139451
0.104037
0.026646
0.005169
0.017604
0.042920
0.059811
0.012797
-0.018455
-0.019023
-0.110107
-0.035866
-0.048811
-0.031792
-0.044528
-0.067444
-0.135280
0.003465
-0.006642
-0.115946
-0.076965
-0.003366
-0.080904
-0.140830
-0.082684
-0.082533
-0.095226
-0.059398
-0.040141
0.008744
0.004180
-0.108773
-0.036955
-0.043468
-0.113443
-0.025039
-0.049516
-0.067570
-0.150372
-0.028411
-0.146037
-0.052475
-0.094226
-0.084144
-0.064613
-0.068558
-0.042308
-0.003747
-0.142888
-0.113583
-0.106069
-0.160694
-0.079642
-0.048485
-0.124366
-0.109630
-0.124754
-0.080209
-0.038139
-0.064407
-0.040480
-0.058909
-0.167442
-0.037710
-0.064572
-0.146178
-0.183844
-0.073162
-0.142949
-0.130898
-0.061725
-0.131529
-0.112943
-0.001761
0.003761
-0.134291
-0.053743
-0.067881
-0.034429
-0.132431
-0.130328
-0.090365
0.049383
-0.178724
-0.067945
-0.080690
-0.125793
-0.082422
-0.092319
-0.043762
-0.098702
-0.052772
-0.119829
-0.083549
-0.056771
-0.136270
-0.045199
-0.063735
-0.091166
-0.084479
-0.088927
-0.183085
-0.057559
-0.137783
-0.035654
-0.058434
-0.083865
-0.072818
-0.042332
-0.081289
-0.101056
-0.096271
-0.010059
-0.134352
-0.043148
-0.150735
-0.012576
-0.005204
-0.058929
-0.027733
-0.017950
-0.093187
-0.044832
-0.097143
0.053220
0.013628
0.082862
-0.019056
0.051645
0.091754
0.027563
-0.032922
0.010098
0.152806
0.077390
0.036032
0.125458
0.026505
0.043134
0.068148
0.024682
-0.032442
0.088820
-0.000132
-0.062440
-0.024752
-0.002371
0.010749
-0.025613
-0.059667
-0.063974
-0.068683
-0.079415
-0.063804
-0.131674
-0.069685
-0.056637
0.006981
-0.025712
-0.141742
-0.020791
-0.101901
-0.043974
-0.077875
-0.005090
-0.086919
-0.104584
-0.044005
-0.078565
-0.075715
-0.176820
-0.075238
-0.072365
-0.051575
-0.030903
-0.055574
-0.043099
-0.074969
-0.092571
-0.109806
-0.009714
-0.113583
-0.118328
-0.125668
-0.132939
-0.184793
-0.180761
-0.144940
-0.020691
0.120125
0.448284
0.867936
1.117575
1.342163
1.298199
1.142950
0.975848
0.674448
0.332033
-0.050994
-0.208535
-0.237746
-0.418969
-0.369650
-0.363606
-0.265838
-0.118367
-0.080651
-0.146216
-0.098777
-0.106581
-0.033394
-0.008157
-0.061634
-0.142131
-0.056546
-0.109869
-0.043537
-0.104607
-0.107564
-0.033419
-0.087751
-0.082468
-0.012106
-0.074566
-0.101845
-0.043204
-0.112982
-0.071956
-0.096772
0.019372
-0.041282
0.031592
0.045415
-0.028746
-0.048090
0.026940
-0.008644
0.029575
-0.015893
0.112031
0.055985
-0.014254
0.086189
0.054391
0.093050
0.175269
0.231967
0.129746
0.173604
0.196427
0.209686
0.261655
0.196424
0.347535
0.343773
0.339768
0.375041
0.407684
0.386670
0.404526
0.392168
0.374155
0.441948
0.502685
0.409735
0.386341
0.378557
0.443826
0.398893
0.424159
0.400282
0.380189
0.328638
0.366571
0.407404
0.371348
0.307551
0.314767
0.257112
0.212715
0.266185
0.222173
0.170906
0.208757
0.239240
0.207009
0.124398
0.113481
0.081134
-0.012703
0.079612
0.067939
-0.002093
0.017444
0.090930
0.043850
0.028787
0.053853
-0.004961
0.004864
0.004324
-0.028191
-0.029963
0.050302
-0.036078
-0.004195
-0.000454
-0.012502
-0.018965
0.004517
-0.031897
-0.042123
-0.039779
-0.042889
-0.030725
-0.025816
-0.024977
-0.042129
-0.004518
0.055962
-0.065080
-0.042637
0.004099
-0.057687
-0.069947
0.026000
-0.036737
-0.072794
0.029472
-0.028824
0.023728
0.035485
-0.030388
-0.015683
-0.034182
-0.031744
0.030313
-0.004975
-0.014528
0.034327
-0.037252
0.007809
-0.032442
0.034765
-0.031373
-0.001482
0.059210
-0.039225
-0.024226
-0.022092
0.026051
0.050423
0.021181
0.015296
-0.008401
-0.016483
0.054567
-0.088915
-0.014364
0.019813
0.003156
0.072458
0.059362
0.031302
0.022796
-0.045904
0.033154
0.002381
-0.028561
0.020763
-0.021707
-0.021631
0.029113
0.063758
0.050104
0.036554
0.004773
0.076963
-0.043803
0.010976
-0.014523
0.033863
0.038188
-0.015936
0.073187
0.056071
0.063150
0.028573
0.034796
0.066488
-0.023821
0.083866
0.045765
0.059770
0.023806
0.041381
0.003371
-0.003997
-0.050789
-0.026553
0.027213
0.077947
0.108633
0.030819
0.027958
0.139317
0.073137
0.103081
0.122424
0.127607
0.110731
0.093364
0.091026
0.108807
0.214935
0.199056
0.195134
0.175462
0.122547
0.160814
0.229180
0.265723
0.206298
0.181908
0.210058
0.194764
0.234748
0.258230
0.251489
0.196180
0.235000
0.071793
0.174161
0.147419
0.137472
0.072159
0.152422
0.064429
0.023876
0.105629
0.052861
0.056125
0.076913
0.027911
0.022680
0.071152
0.053602
0.102532
0.088407
0.094892
0.051288
0.110395
0.091778
0.091447
0.058470
-0.042005
0.032225
0.071666
0.056292
0.020455
0.027932
-0.026582
0.031782
0.051577
0.011742
0.115036
0.045433
0.122117
0.042754
0.018588
0.061391
0.032158
-0.015351
-0.086756
0.067795
0.067571
0.221655
0.400136
0.735263
1.058358
1.346473
1.457660
1.431040
1.249944
0.976181
0.642855
0.320732
0.150805
-0.128963
-0.247582
-0.279450
-0.300972
-0.136014
-0.097005
-0.007434
-0.027613
0.104801
0.008134
0.106428
0.082082
0.105206
0.033671
0.107626
0.062253
0.100596
0.094946
0.138719
0.076398
0.031783
0.022275
0.071186
0.141453
0.058837
0.114292
0.073798
0.120925
0.130809
0.074444
0.084992
0.072334
0.105377
0.112967
0.074005
0.193704
0.125676
0.176269
0.159391
0.236317
0.225110
0.248914
0.205340
0.255035
0.216144
0.277977
0.285851
0.284439
0.371300
0.370509
0.387760
0.360429
0.384232
0.353255
0.402929
0.508799
0.506429
0.463839
0.524809
0.548418
0.533985
0.511669
0.541550
0.485560
0.541857
0.543321
0.652172
0.554723
0.561760
0.555078
