0.046895
0.006650
0.064357
0.005517
0.005644
0.064089
-0.036165
0.023931
-0.049824
0.029099
0.008411
-0.080427
0.032501
-0.010387
0.021975
-0.024423
-0.030130
0.009548
-0.029630
-0.008976
-0.039367
0.013124
0.004385
0.003690
0.044811
-0.001174
-0.002726
0.101462
0.054625
0.075764
0.072297
0.080210
0.008814
0.052997
0.099178
0.079886
0.106968
0.113357
0.129485
0.201620
0.199557
0.169875
0.200475
0.145558
0.184636
0.236290
0.159931
0.204602
0.197255
0.285436
0.183656
0.221591
0.222761
0.231443
0.092812
0.182351
0.119740
0.156843
0.137621
0.070316
0.118340
0.105102
0.097757
0.089774
0.029413
0.059967
-0.012280
0.085650
0.082341
0.014724
0.017283
0.020262
0.061525
-0.007366
0.106756
0.118099
0.071988
0.032381
-0.008853
-0.000039
0.047626
-0.030169
0.054922
0.034912
0.128381
0.147088
0.227456
0.448687
0.736095
1.076985
1.295459
1.425153
1.350652
1.075842
0.877384
0.394064
0.123009
-0.075437
-0.220010
-0.202628
-0.091589
-0.117141
-0.093961
0.039073
0.071286
0.060982
0.072421
0.039896
0.050660
0.161502
0.029506
0.112581
0.036576
0.134170
0.098218
0.089560
0.133942
0.123152
0.136667
0.161573
0.130601
0.174264
0.166935
0.203531
0.174147
0.244359
0.225387
0.188164
0.314489
0.225836
0.287563
0.328245
0.355514
0.450559
0.406392
0.368667
0.376788
0.435685
0.369066
0.418622
0.479491
0.603370
0.562100
0.588715
0.535284
0.586184
0.455730
0.530662
0.568058
0.636194
0.587585
0.576073
0.608202
0.498549
0.538982
0.513925
0.546678
0.392974
0.439103
0.526496
0.453019
0.385256
0.352054
0.284518
0.347696
0.304225
0.311180
0.280704
0.286203
0.223223
0.211738
0.123410
0.197224
0.164651
0.183650
0.199012
0.126985
0.158692
0.131432
0.105703
0.054390
0.116835
0.153144
0.042317
0.136554
0.240709
0.081010
0.096553
0.164019
0.088279
0.108246
0.063831
0.033045
0.106087
0.110994
0.155636
0.015713
0.108561
0.092657
0.136229
0.075461
0.089522
0.067153
0.061915
0.093789
0.008505
0.039155
0.131729
0.091244
0.044427
0.170712
0.079807
0.099605
0.096331
0.084381
0.133072
0.029459
0.163578
0.075010
0.041869
0.125426
0.049241
0.092264
0.180661
0.069575
0.068571
0.094547
0.068437
0.055985
0.117498
0.037471
0.051075
0.067362
0.034782
0.160707
0.069949
0.092578
0.022473
0.128509
0.071355
0.084451
0.048025
0.119685
0.065713
0.073291
0.038729
0.134709
0.090323
0.106093
0.155584
0.096363
0.066147
0.072240
0.119155
0.186721
0.111625
0.155103
0.048406
0.085501
0.110848
0.214448
0.090731
0.094971
0.169429
0.176161
0.276893
0.231990
0.212578
0.208121
0.244406
0.233315
0.264524
0.255842
0.234752
0.284590
0.203494
0.239251
0.227830
0.230147
0.184994
0.180673
0.165558
0.148788
0.143408
0.177254
0.173143
0.207726
0.091365
0.086681
0.133879
0.152206
0.114126
0.104959
0.137376
0.033442
0.008976
0.098252
0.118993
0.089555
-0.004784
0.042085
0.088991
0.005626
0.006926
-0.006902
0.067970
0.026078
-0.003269
0.002303
0.065988
-0.010008
0.010845
0.049608
0.214830
0.345381
0.702587
0.943651
1.323739
1.406276
1.333747
1.177196
0.854261
0.444533
0.199225
0.000188
-0.189388
-0.239281
-0.177959
-0.147563
-0.062555
-0.020918
-0.035728
0.064953
0.026339
0.087522
0.077643
-0.005637
0.009512
0.062645
0.111091
0.023928
0.127256
0.167740
0.078929
0.046151
0.133889
0.088559
0.176712
0.103788
0.155740
0.114568
0.084955
0.197940
0.190709
0.270553
0.285637
0.282948
0.273777
0.340380
0.326962
0.342204
0.381663
0.411882
0.371264
0.413628
0.542956
0.414949
0.493995
0.449764
0.414760
0.422386
0.509175
0.565573
0.480276
0.585927
0.554983
0.511853
0.499033
0.470498
0.489572
0.436145
0.425946
0.473355
0.471856
0.454490
0.342686
0.352327
0.402292
0.411732
0.342148
0.297460
0.241631
0.280688
0.215939
0.245631
0.220404
0.241141
0.098564
0.115577
0.172158
0.107378
0.181879
0.115849
0.125630
0.150319
0.084212
0.095509
0.111866
-0.021329
0.065441
0.028091
0.003977
0.018028
-0.003429
0.019076
0.051492
0.008708
-0.020648
0.015422
0.015890
-0.066731
-0.037142
0.009495
0.037168
0.015974
-0.011163
0.000445
0.024134
0.069309
-0.025321
-0.023954
-0.014601
-0.029447
0.063467
0.056354
0.003627
0.064799
-0.004111
-0.081600
-0.001730
0.033526
-0.063830
-0.075077
0.025693
-0.048452
-0.085475
-0.067216
-0.029385
-0.014459
0.021802
-0.013245
-0.057378
-0.081452
-0.083365
0.015228
-0.081404
0.014019
-0.069715
-0.042659
-0.064713
-0.015374
-0.079017
-0.030100
0.042604
-0.043761
0.011649
-0.014364
-0.007069
-0.073202
-0.020502
-0.004722
0.034855
0.031075
0.085439
-0.077895
-0.061263
0.030989
-0.062432
0.026963
-0.036865
-0.025217
0.036772
-0.043134
0.052033
0.047473
0.058943
-0.016390
0.178805
0.071734
0.035903
0.083165
0.137808
0.101844
0.085480
0.120062
0.063889
0.124175
0.152888
0.169566
0.122121
0.107614
0.157981
0.131467
0.124142
0.141649
0.118074
0.149597
0.069292
0.069579
0.015907
0.156030
-0.002490
0.057864
0.074865
-0.039992
0.034867
0.017306
-0.028499
0.011089
0.032534
0.038323
0.010161
-0.028368
0.015745
-0.068996
0.057618
0.052413
-0.066111
-0.004504
-0.031329
-0.031702
-0.015698
-0.015432
-0.001022
-0.048048
-0.116569
-0.078272
-0.047967
-0.072676
0.008639
-0.004282
0.218952
0.535120
0.863484
1.063510
1.267389
1.359503
1.079677
0.769774
0.499352
0.200425
-0.137116
-0.266423
-0.311889
-0.293554
-0.205279
-0.158303
-0.112590
-0.060505
-0.093861
-0.020480
-0.067602
-0.010830
-0.083345
0.001817
-0.111124
-0.007767
0.013767
-0.005692
0.065301
0.026553
-0.002861
0.011752
0.082596
0.041148
0.003312
0.071815
0.007666
0.016769
0.070469
0.145324
0.156244
0.224034
0.171518
0.189752
0.224709
0.192891
0.195099
0.272516
0.241869
0.275706
0.289272
0.398004
0.366952
0.284767
0.335233
0.430416
0.397852
0.456724
0.466283
0.446656
0.449987
0.533652
0.483479
0.374103
0.484774
0.313463
0.321083
0.350626
0.433703
0.335253
0.434417
0.307010
0.355519
0.388782
0.316090
0.254349
0.324105
0.239291
0.205183
0.232692
0.198413
0.102983
0.145688
0.071276
0.120666
0.044766
0.095001
0.088462
0.014647
0.032542
0.099261
0.041198
-0.036342
0.036031
-0.025286
-0.003102
0.026029
-0.055872
-0.054309
0.006932
-0.090047
-0.046237
0.035223
0.012180
-0.065087
0.001667
-0.098062
-0.003175
0.043873
-0.015151
0.084220
-0.069211
-0.071224
0.059608
0.020523
-0.009544
-0.029293
-0.032336
0.006573
-0.110874
-0.107518
-0.069909
-0.076642
0.031691
0.040716
0.018978
-0.004004
0.004063
-0.109065
0.017644
-0.018579
-0.045529
-0.067248
-0.092002
-0.188159
-0.042749
0.029914
0.012107
0.111366
-0.023714
0.065834
0.013226
0.018171
-0.006628
0.025401
-0.041165
-0.035521
-0.003152
0.000880
0.013853
-0.069358
-0.023856
-0.133863
-0.021932
-0.080272
-0.048076
0.015227
0.055218
0.021646
0.004051
0.005400
-0.024084
-0.008497
0.048944
0.067225
0.009688
0.019410
0.061291
0.108379
0.040510
0.019131
-0.019193
0.077940
0.024815
0.034738
0.177326
0.160393
0.129901
0.157865
0.073698
0.097050
0.155548
0.132350
0.163641
0.135269
0.204720
0.197025
0.134157
0.185127
0.178812
0.165123
0.162110
0.171128
0.166489
0.146053
0.182584
0.169287
0.138099
0.134506
0.091560
0.097155
0.065181
0.073428
0.072964
0.023080
0.038572
0.022732
0.026042
0.106548
0.065377
0.021264
-0.005037
0.005633
-0.007687
0.117344
0.126178
0.062068
0.029616
0.002146
-0.032373
0.002713
-0.028608
0.020618
-0.000491
-0.017057
-0.007028
0.125511
0.239362
0.470101
0.732314
1.172776
1.365943
1.384957
1.283798
1.036079
0.657685
0.318087
0.066340
-0.139876
-0.254742
-0.260412
-0.182343
-0.035090
0.004222
-0.039458
0.095033
0.061817
0.033989
-0.012152
0.077341
0.082328
0.119689
0.085080
0.084661
0.113208
0.115509
0.136437
0.142391
0.075952
0.131832
0.116137
0.107678
0.159013
0.082420
0.247637
0.174047
0.207292
0.226028
0.275202
0.216571
0.348200
0.286174
0.296290
0.391794
0.309968
0.341219
0.323062
0.380837
0.478887
0.446543
0.538666
0.553758
0.524437
0.514190
0.537945
0.576218
0.618361
0.586027
0.541466
0.535259
0.597606
0.518610
0.510275
0.503332
0.458964
0.507160
0.497577
0.556362
0.421558
0.410189
0.384459
0.468457
0.444778
0.412979
0.379467
0.359797
0.211410
0.254708
0.291593
0.267099
0.290620
0.215623
0.134692
0.169730
0.244779
0.242130
0.264607
0.212002
0.135781
0.033578
0.147467
0.105213
0.057473
0.060046
0.205094
0.110281
0.038453
0.093375
0.137758
0.069352
0.104034
0.098049
0.076506
-0.008234
0.066315
0.063157
0.055319
0.104257
0.076479
0.081678
0.075966
0.170976
0.123348
0.176848
0.048603
0.075148
0.060644
0.082733
0.123717
0.126292
0.020597
0.136897
0.072084
-0.005082
0.069958
0.023684
0.031286
0.115111
0.012122
0.103101
0.081958
-0.006833
0.174971
0.071185
0.077267
0.103778
0.086419
0.117352
0.040450
0.129749
0.066682
0.079175
0.145759
0.088859
0.162287
0.032167
0.068617
0.097404
0.146311
0.084194
0.095331
0.081612
0.070496
0.104065
0.084140
0.116045
0.095620
0.058079
0.040062
0.096299
0.051275
0.095947
0.105873
0.132821
0.131248
0.165384
0.031187
0.182319
0.197380
0.075999
0.176055
0.179419
0.146896
0.234223
0.168512
0.177526
0.173826
0.186850
0.248305
0.245211
0.306550
0.305293
0.248380
0.223101
0.286456
0.234205
0.260401
0.243537
0.288721
0.284477
0.136759
0.293782
0.163684
0.223545
0.152759
0.162217
0.228692
0.136282
0.206877
0.159331
0.117214
0.203966
0.204538
0.183898
0.070375
0.087830
0.050528
0.161387
0.054341
0.098866
0.149316
0.048838
0.029207
0.046706
0.087606
0.132825
0.121498
0.185097
0.186632
0.045729
0.023135
0.058666
0.106903
0.180633
0.245879
0.430052
0.692894
1.045693
1.298572
1.500000
1.327472
1.145539
0.815367
0.485734
0.116108
-0.070223
-0.128114
-0.195369
-0.129656
-0.079552
0.017224
0.044750
0.063140
0.060201
0.080620
0.054212
0.136483
0.080850
0.070358
0.071685
0.178220
0.088618
0.027351
0.052290
0.082608
0.101433
0.107766
0.129391
0.093477
0.174860
0.212750
0.231940
0.227953
0.204767
0.204595
0.233721
0.328149
0.321573
0.275274
0.275577
0.355759
0.388783
0.339553
0.403975
0.377052
0.381385
0.434158
0.457948
0.485488
0.633032
0.482518
0.558021
0.522448
0.552003
0.514220
0.527392
0.547252
0.632309
0.569243
0.545712
0.557301
0.549222
0.513919
0.520040
0.416418
0.520603
0.420857
0.347863
0.350669
0.388004
0.435177
0.371398
0.337133
0.267747
0.348487
0.248969
0.246631
0.209125
0.217111
0.116911
0.199755
0.153179
0.106822
0.186260
0.099160
0.081763
0.080165
0.107740
0.110704
0.054246
0.109538
0.092404
-0.023402
0.038526
0.018693
0.014078
0.069597
0.027724
0.012167
0.024014
0.009766
-0.000956
0.028227
-0.049228
0.057372
0.039548
0.111848
-0.003254
0.039129
0.000795
-0.040662
0.031931
-0.012963
0.008362
0.039006
0.030353
0.077017
-0.057557
0.057189
0.023598
0.067674
0.072283
0.106596
-0.012444
-0.027690
0.023279
0.041609
0.051588
0.000334
-0.007820
-0.034749
0.012104
0.080470
0.115251
0.088488
-0.023569
-0.000475
0.078154
0.018896
0.066759
0.111677
0.060734
0.017387
-0.041049
-0.027331
-0.020736
0.011099
0.046361
0.046503
-0.074091
0.056993
0.029820
0.004422
-0.037203
0.022202
0.041519
-0.008973
0.016808
0.025341
0.065046
-0.008794
0.037756
0.056210
-0.114490
0.011987
0.124393
0.075663
0.015102
0.087398
0.101978
0.111262
0.063915
0.085394
0.165296
0.085840
0.124111
0.102172
0.211273
0.175089
0.089843
0.172437
0.110791
0.144909
0.157241
0.090831
0.177681
0.089807
0.121519
0.116006
0.130429
0.064507
0.079737
0.096103
0.083931
-0.032878
0.074350
0.047040
0.031670
0.008001
0.004715
-0.086293
0.042847
-0.012312
-0.046360
-0.019487
-0.048720
0.064453
-0.076488
-0.022100
-0.085703
-0.059600
0.037613
-0.035060
-0.030352
-0.107020
-0.024891
-0.014680
-0.089102
-0.038564
-0.033755
-0.034774
0.026979
0.307971
0.467005
0.912140
1.111396
1.315813
1.268544
1.057890
0.851694
0.405389
0.109074
-0.135581
-0.347880
-0.312445
-0.326216
-0.274234
-0.183629
-0.128637
0.005722
-0.024704
-0.016766
-0.069591
-0.034513
-0.022433
-0.072010
0.053803
0.022014
-0.104752
-0.012026
0.035586
0.018271
0.012007
-0.053724
0.064801
-0.001480
0.057275
0.051257
0.102809
0.099689
0.062760
0.062320
0.086816
0.082896
0.141346
0.135971
0.205963
0.224381
0.231813
0.310371
0.268545
0.259358
0.279019
0.314166
0.311746
0.356285
0.436064
0.320732
0.319066
0.446369
0.421551
0.450136
0.368619
0.485233
0.404990
0.440514
0.423080
0.421710
0.393151
0.323095
0.362024
0.331681
0.333105
0.383518
0.382787
0.328040
0.262294
0.214860
0.258049
0.225680
0.130761
0.207610
0.124238
0.160183
0.095838
0.107182
0.138300
0.095370
-0.006469
0.033820
0.051159
0.067387
0.011878
-0.028941
-0.008576
0.071120
-0.046807
-0.013730
-0.057723
-0.018945
0.003001
-0.098545
-0.025467
-0.066285
-0.103558
-0.035368
-0.057646
-0.160218
-0.102087
-0.131691
-0.090532
-0.085479
-0.033434
-0.082301
-0.053248
-0.136446
-0.112202
-0.042232
-0.088166
-0.044325
-0.043297
-0.049169
-0.008003
-0.080903
-0.035706
-0.081917
-0.111357
-0.051258
-0.106501
-0.071054
-0.128758
-0.147225
-0.195433
-0.087274
-0.051360
-0.023965
-0.059033
-0.080238
-0.054624
-0.015550
-0.055547
-0.093074
-0.034493
-0.011702
-0.128160
-0.076831
-0.095258
-0.082689
-0.068840
-0.022519
-0.101511
-0.149282
-0.061725
-0.043854
-0.092130
-0.041935
-0.003875
-0.093833
-0.001449
-0.025891
-0.034422
-0.060532
-0.069320
-0.065488
-0.030747
-0.070077
0.005663
-0.144247
-0.104867
-0.074578
-0.094527
-0.045805
-0.009026
-0.086148
-0.071547
0.087334
-0.015946
0.033249
0.005678
0.081223
0.092094
0.094298
0.063299
0.051925
0.137720
0.061006
0.031652
0.153060
0.079947
0.204272
0.167371
0.070921
0.127683
0.118848
0.064002
0.012227
0.035961
0.131600
0.040430
0.039012
0.002328
-0.037355
0.039380
-0.095549
0.015216
-0.090652
-0.055076
-0.059425
-0.092127
0.004166
-0.030556
-0.069932
-0.090115
-0.090731
-0.047222
-0.026406
-0.036061
-0.091061
-0.033551
-0.049450
-0.061678
-0.015551
-0.034713
-0.032771
-0.036242
-0.045153
-0.123854
-0.060581
0.041905
0.142201
0.487630
0.823024
1.085263
1.243935
1.313025
1.197482
0.874858
0.521103
0.162530
-0.139619
-0.253082
-0.370784
-0.299423
-0.227089
-0.148612
-0.083003
-0.055197
-0.073145
-0.044650
-0.092116
-0.070688
0.033498
-0.041246
0.002329
0.024585
0.014997
0.013236
-0.008520
0.037948
0.007126
0.011980
0.081585
-0.025469
0.072247
0.043795
0.106223
0.166469
0.097113
0.095731
0.139049
0.083603
0.148847
0.225416
0.252596
0.332638
0.240284
0.296258
0.305455
0.417785
0.337897
0.341681
0.444219
0.375428
0.389839
0.521748
0.461245
0.484361
0.461986
0.543439
0.457203
0.515398
0.409857
0.503050
0.488720
0.474868
0.449580
0.416541
0.410171
0.473277
0.369296
0.352068
0.369612
0.428871
0.353891
0.357505
0.274234
0.253319
0.266230
0.228938
0.167975
0.208595
0.161438
0.261901
0.164824
0.208831
0.118782
0.042939
0.161379
0.155292
0.042949
0.013839
0.108842
0.005384
0.079608
0.069334
0.037886
-0.012072
0.065862
0.069769
0.013472
0.015633
-0.017258
0.020914
0.025360
0.015815
-0.050166
-0.021639
-0.035994
-0.048048
0.021382
0.009844
-0.013955
0.091221
0.104231
-0.018098
0.083127
-0.028444
-0.063168
-0.007087
0.053643
0.027456
0.093660
0.034045
0.063478
-0.062672
0.033817
0.050586
0.014739
0.161773
0.011415
-0.012423
0.074979
-0.015735
-0.026747
0.033731
-0.041012
-0.012561
0.000865
0.030372
-0.062442
0.022739
-0.046401
0.032508
0.054996
0.101732
0.020416
-0.001787
-0.005800
0.001251
0.031233
0.007590
0.051742
0.096800
0.012985
0.018637
0.002732
0.092010
0.074461
0.040043
-0.003082
0.035180
-0.034052
-0.014797
0.065579
0.032329
0.018813
0.096435
0.046787
0.058062
0.081109
0.095545
0.104306
0.112532
0.075771
0.154652
0.173799
0.124961
0.138726
0.180142
0.184980
0.179298
0.202732
0.282410
0.213831
0.128739
0.191987
0.164423
0.205302
0.176184
0.134282
0.129877
0.230809
0.222982
0.176552
0.116811
0.151559
0.112813
0.205981
0.173169
0.075170
0.132382
0.147093
0.061006
0.125469
0.094297
0.088261
0.094577
0.122908
0.021694
-0.030254
0.050599
0.037860
0.143119
0.011268
0.031046
0.041645
0.002846
0.018652
-0.018286
0.055130
0.042323
0.073952
0.020043
0.002822
-0.000639
0.069705
0.191858
0.434631
0.800243
1.014112
1.356682
1.332021
1.333420
1.008574
0.708759
0.400679
0.033598
-0.152577
-0.273111
-0.237763
-0.194746
-0.046623
0.040536
-0.035483
0.082141
0.065209
0.083665
-0.007298
0.035041
0.111087
0.076014
0.076855
0.070353
0.070656
0.029767
0.061373
0.112085
0.085190
0.093684
0.154627
0.103097
0.146536
0.168200
0.124248
0.250368
0.268155
0.158110
0.198379
0.282413
0.229341
0.267442
0.352807
0.319046
0.323146
0.343683
0.401899
0.409706
0.410450
0.410326
0.497700
0.561149
0.479711
0.533530
0.607647
0.432691
0.530290
0.583077
0.520031
0.553731
0.436522
0.489817
0.473852
0.533952
0.476089
0.523203
0.492218
0.478204
0.435194
0.394096
0.438943
0.374113
0.316861
0.327233
0.444646
0.238130
0.304137
0.269870
0.268866
0.230582
0.217273
0.140178
0.194469
0.181070
0.150813
0.199734
0.134557
0.117497
0.066628
0.092227
0.052444
0.128892
0.078497
0.102353
0.074140
0.027527
0.067152
0.091298
0.070106
-0.012402
0.073762
0.062610
0.027676
-0.006988
0.079017
-0.014303
0.085510
-0.023802
0.085825
-0.018773
0.017782
0.034508
0.029273
0.029243
-0.010157
0.022591
0.020556
0.028045
0.109550
0.110936
0.001115
0.090985
0.036267
0.023642
0.031719
-0.015147
0.011667
0.076756
-0.004320
0.124178
0.014703
0.009819
-0.039449
0.019772
0.047600
0.058161
0.081064
0.118480
-0.019352
-0.013394
0.071350
-0.001239
-0.000229
-0.066865
-0.018870
0.020510
0.026079
0.041900
0.036699
0.058476
-0.018705
0.015518
0.028186
-0.035990
-0.026435
0.052122
0.028126
0.038735
0.035039
0.078515
0.033109
-0.018712
0.016466
-0.010321
-0.003911
0.040568
0.050540
0.015463
0.073459
0.034045
0.031239
0.002187
-0.002754
0.071032
0.126197
0.068429
0.144915
0.072860
0.140345
0.150221
0.124839
0.163016
0.140671
0.131725
0.194281
0.160530
0.181757
0.148179
0.139860
0.143493
0.151057
0.152651
0.140508
0.077157
0.090696
0.116772
0.047106
0.112667
0.057467
0.043184
0.032378
0.004245
0.011527
0.006536
-0.020020
0.012779
0.002123
0.075333
-0.021000
-0.100273
-0.004504
0.057414
-0.115643
-0.010615
-0.052986
-0.069127
-0.028080
-0.009979
-0.026880
-0.034726
-0.048752
-0.091603
-0.122207
-0.019965
0.117779
0.325832
0.597397
0.935753
1.243791
1.288479
1.261514
1.118791
0.703705
0.416158
0.044777
-0.265061
-0.316324
-0.298964
-0.255563
-0.149775
-0.146156
-0.010730
-0.123664
-0.135988
-0.052874
-0.090777
-0.029346
-0.037547
-0.050949
-0.038421
-0.044476
-0.085853
-0.064638
0.003249
-0.034723
0.060957
-0.008490
-0.021592
0.065697
0.009559
0.044502
0.082398
0.140090
0.057194
0.128374
0.115331
0.187677
0.145283
0.266053
0.137359
0.207693
0.242300
0.281624
0.345461
0.337034
0.429071
0.307560
0.308263
0.326142
0.371751
0.402604
0.428001
0.372319
0.380712
0.438686
0.452436
0.370895
0.458264
0.420705
0.367321
0.361492
0.436263
0.413315
0.445101
0.294914
0.367683
0.344705
0.263451
0.293519
0.270665
0.239671
0.295138
0.231934
0.209822
0.148773
0.080352
0.060835
0.122245
0.035318
0.077072
0.040699
-0.015882
0.116960
0.028321
-0.040679
0.029028
-0.085304
-0.052561
-0.106483
-0.072430
-0.083952
0.020970
-0.116079
0.028699
-0.073086
-0.072191
-0.091050
-0.142848
-0.088603
-0.036312
-0.044556
-0.191762
-0.062584
-0.077894
-0.053858
-0.068710
-0.107312
-0.110914
-0.086553
-0.120796
-0.082382
-0.065995
-0.087176
-0.162545
-0.101826
-0.089414
-0.017071
-0.062305
-0.187005
-0.048675
-0.002247
-0.022938
-0.118057
-0.094900
-0.135014
-0.082363
-0.059837
-0.108602
-0.139551
-0.158624
-0.060680
-0.145907
-0.095121
-0.074750
-0.045284
-0.095954
-0.124161
-0.118285
-0.050963
-0.065976
-0.069536
-0.055825
-0.106323
-0.090947
-0.173981
-0.071665
-0.073735
-0.095977
-0.050236
-0.080725
-0.096749
-0.115771
-0.183562
-0.099582
-0.090133
-0.068973
-0.052912
-0.127778
-0.090549
-0.061161
-0.057060
-0.168120
-0.053040
-0.050056
-0.087662
-0.067602
-0.005586
-0.077430
-0.002081
-0.053468
-0.022411
0.025883
0.062025
-0.022850
-0.037105
0.086274
0.023257
0.028014
0.019070
0.037158
0.082249
0.018739
0.093626
0.018095
0.037179
0.003987
0.117865
0.055976
0.064262
0.069152
-0.032691
0.013740
-0.058550
-0.018297
-0.071527
0.023407
-0.023974
-0.143634
-0.056061
-0.035750
-0.154034
-0.105688
0.006721
-0.046361
-0.032042
-0.046772
-0.094310
-0.073681
-0.030399
-0.138290
-0.115796
-0.145684
-0.023753
-0.086439
-0.072007
-0.062686
-0.106086
-0.125366
-0.117398
-0.089050
-0.129995
-0.009201
0.142320
0.468737
0.866506
1.080224
1.297718
1.247908
1.119061
0.738171
0.421548
0.123081
-0.096629
-0.303637
-0.361661
-0.354461
-0.244557
-0.191688
-0.123853
-0.117592
-0.044819
-0.057753
-0.090549
-0.021694
-0.012708
-0.050859
-0.039319
-0.048376
-0.053877
-0.062653
-0.048944
-0.089892
-0.111374
-0.047272
0.041723
-0.027139
0.016384
0.054211
0.020929
0.171136
0.073014
0.114257
0.081668
0.133925
0.108138
0.125112
0.221223
0.215061
0.228897
0.113618
0.299679
0.276510
0.368164
0.389879
0.344441
0.415920
0.378955
0.379783
0.373647
0.360453
0.463274
0.423630
0.453724
0.374471
0.410541
0.454689
0.405934
0.386453
0.365677
0.434976
0.336341
0.322798
0.347125
0.324416
0.347012
0.313431
0.236540
0.278546
0.247767
0.223338
0.130692
0.153363
0.102688
0.162269
0.114350
0.117963
0.141852
0.133279
0.063934
0.051076
-0.011356
0.101450
0.014505
0.048578
0.064766
0.046960
-0.003785
0.037449
0.000006
-0.028880
0.058266
0.002419
0.011461
-0.002842
-0.113869
-0.036776
-0.035407
-0.031061
-0.069360
0.014842
-0.047234
0.010498
0.002403
0.021692
-0.013545
-0.116107
-0.044986
0.005888
-0.021780
-0.033838
-0.111303
0.037299
-0.040875
-0.033381
-0.053279
-0.032588
-0.001194
0.045878
0.012849
-0.025505
-0.095738
-0.076726
-0.027403
-0.009716
-0.056595
-0.030152
-0.083574
0.003622
0.040539
-0.002093
-0.006593
-0.013303
0.019354
-0.059699
0.084964
-0.008014
0.002772
-0.044529
-0.010206
-0.077379
-0.049447
0.000616
0.029174
-0.002453
-0.037557
0.049243
0.071234
0.053727
-0.021242
-0.034986
0.036403
-0.043195
0.018746
0.017783
-0.005320
-0.025659
0.016641
0.066452
-0.050965
0.072137
0.030547
0.078463
0.048223
0.039266
0.077995
0.072856
0.084180
0.137829
0.064959
0.062672
0.004669
0.165772
0.151592
0.117059
0.165153
0.195257
0.221411
0.189531
0.176024
0.164873
0.220765
0.194517
0.071894
0.176168
0.116906
0.138792
0.108955
0.234182
0.175417
0.073045
0.021443
0.100783
0.054452
0.081928
0.087627
0.096750
0.046254
0.042575
0.050718
0.037479
0.014641
0.008216
0.094222
-0.051696
0.015469
0.027502
0.114421
0.040045
0.034288
0.042254
0.031835
-0.009339
0.009116
0.064826
0.099476
0.038106
-0.009323
-0.035564
0.012059
0.304266
0.469101
0.859808
1.186412
1.397688
1.416494
1.226946
0.960965
0.578999
0.388016
0.015904
-0.103019
-0.252503
-0.149877
-0.205163
0.006017
-0.060486
-0.000301
0.027276
0.000928
0.071395
0.042587
0.033200
0.031570
0.054814
0.090238
0.077907
0.095142
0.090697
0.111115
0.076699
0.106737
0.161123
0.183773
0.152966
0.173771
0.168642
0.171003
0.189238
0.159288
0.185147
0.221066
0.255420
0.348032
0.266917
0.386027
0.344414
0.400165
0.364996
0.379129
0.347988
0.428639
0.393837
0.471047
0.476206
0.478989
0.455881
0.540149
0.501165
0.499280
0.577342
0.585430
0.538772
0.585419
0.615790
0.478333
0.580252
0.510403
0.545484
0.483739
0.424630
0.409462
0.471123
0.441724
0.354529
0.425159
0.314444
0.379947
0.332887
0.402923
0.319460
0.251748
0.247668
0.178693
0.159086
0.173558
0.172917
0.199091
0.185905
0.199614
0.133298
0.154480
0.046238
0.104227
0.028403
0.099774
0.055744
0.171783
0.087325
0.118679
0.068113
0.086943
0.151070
0.175841
0.061815
0.045306
0.143566
0.094043
0.071751
0.092982
0.114949
0.087514
0.050477
0.116654
0.085298
0.125124
0.074349
0.054735
0.046443
0.029049
0.073319
0.085838
0.066029
0.125389
0.093829
0.110021
0.056078
0.055234
0.011415
0.124743
0.046138
0.031187
0.076762
0.101051
0.091583
0.060785
0.065895
0.126173
0.009839
0.096091
0.072010
