0.059781
0.009078
0.006453
0.013546
0.040002
0.038087
-0.046069
-0.061041
-0.026479
0.030499
-0.021969
0.061102
0.002084
0.053161
0.058048
0.023199
-0.014943
0.056364
-0.006941
-0.022351
-0.030559
-0.067434
-0.010397
0.027798
0.069524
0.077499
0.086362
0.079675
0.020687
0.016090
0.035737
0.050947
0.048084
0.184597
0.177467
0.059060
0.198770
0.183223
0.135711
0.127647
0.208324
0.221388
0.174847
0.225093
0.234475
0.188455
0.182542
0.262436
0.212190
0.163899
0.180465
0.186490
0.205022
0.128322
0.101907
0.085728
0.116839
0.101880
0.090889
0.088165
0.078639
0.149771
0.035137
0.147358
0.076695
0.098495
0.016955
0.069171
0.135507
0.046657
0.061956
0.115717
0.030857
0.031285
0.052402
0.130682
0.058450
0.055074
0.039169
0.030352
0.022779
0.053175
-0.049440
0.001453
0.083660
0.071354
0.172210
0.514087
0.749445
1.123844
1.334731
1.436232
1.354062
1.047366
0.830932
0.477623
0.110426
-0.101085
-0.198182
-0.215241
-0.117694
-0.083432
-0.056776
-0.001245
0.044262
0.144737
0.069338
0.076718
0.030819
0.084317
0.063077
0.089136
0.121614
0.090176
0.102928
0.154666
0.129578
0.131270
0.065831
0.155691
0.126076
0.205281
0.194376
0.228609
0.194117
0.272574
0.227728
0.306667
0.281533
0.372707
0.278911
0.390643
0.296745
0.407672
0.399673
0.448598
0.452955
0.447430
0.508296
0.487171
0.557086
0.423930
0.577823
0.575152
0.496079
0.575255
0.609065
0.571791
0.632608
0.606552
0.580623
0.578186
0.519687
0.536018
0.549998
0.476925
0.513877
0.488149
0.503796
0.464912
0.464354
0.437187
0.402724
0.364192
0.361252
0.354317
0.324985
0.311650
0.271452
0.207773
0.326855
0.203311
0.245097
0.136506
0.229430
0.240434
0.252896
0.218567
0.099479
0.077364
0.195486
0.115846
0.134076
0.092352
0.162968
0.104009
0.129268
0.068905
0.149324
0.101032
0.165463
0.089701
0.117572
0.057150
0.015714
0.138493
0.061875
0.063690
0.053735
0.079117
0.090119
0.136677
0.093586
0.094914
0.082588
0.077799
0.051940
0.090160
0.079927
0.056906
0.036512
0.123694
0.144949
0.128508
0.126722
0.052667
0.022899
0.123150
0.055693
0.167109
0.140841
0.070555
0.072219
0.047603
0.019448
0.005588
0.132980
0.068355
0.015598
0.042740
0.051584
0.068764
0.123322
0.068962
0.080997
0.165402
0.143130
0.061955
0.086084
0.059536
0.148285
0.094471
0.116642
0.076489
0.016433
0.071340
0.078779
0.060681
0.025800
0.104880
0.065500
0.086536
0.116741
0.125337
0.180973
-0.017695
0.138067
0.106036
0.100634
0.134255
0.204356
0.087690
0.153614
0.180844
0.144006
0.189428
0.171918
0.232860
0.275220
0.216235
0.236724
0.224671
0.281174
0.200294
0.179279
0.151378
0.254274
0.256193
0.142761
0.265351
0.175337
0.225128
0.175276
0.126990
0.136894
0.143297
0.187720
0.180267
0.115602
0.153295
0.123802
0.148654
0.164810
0.125950
0.133513
0.096271
0.047638
0.042129
0.164203
0.085265
0.008484
-0.015462
0.050585
0.043676
-0.018732
0.115920
0.082625
0.078861
0.039368
0.074526
-0.013062
0.026889
0.039748
0.133786
0.375541
0.760313
1.053047
1.349684
1.453853
1.404893
1.178374
0.826932
0.480550
0.152585
-0.107277
-0.199147
-0.264302
-0.174538
-0.171035
-0.075329
-0.002245
0.109770
0.039232
0.084251
0.094562
0.063972
0.081447
0.031385
0.060787
0.074597
0.099961
0.077737
0.143356
0.104206
0.107161
0.161318
0.076899
0.119501
0.139417
0.163161
0.087072
0.081160
0.192038
0.205291
0.224178
0.192637
0.295448
0.339909
0.319020
0.317132
0.471511
0.322414
0.396844
0.454135
0.395745
0.432929
0.436776
0.411389
0.415989
0.449005
0.439863
0.535883
0.471144
0.467825
0.672185
0.487017
0.662301
0.560567
0.529794
0.482921
0.504475
0.450235
0.464684
0.440137
0.490246
0.480104
0.432800
0.434235
0.338842
0.315827
0.324272
0.253169
0.228627
0.344067
0.190703
0.246919
0.181498
0.110357
0.260358
0.136643
0.145031
0.149134
0.114607
0.071500
0.049851
0.102631
0.116516
0.087338
0.050241
0.001622
0.045393
0.037085
0.022348
-0.035487
-0.004657
0.099430
-0.017239
0.022066
-0.108382
0.017627
0.030625
-0.022389
0.128293
0.076966
0.031778
-0.026320
-0.065027
-0.007823
0.007345
-0.060975
-0.008709
0.034072
-0.029638
0.120872
-0.015874
0.050449
-0.031579
0.034679
-0.000016
-0.104138
0.054187
0.009697
-0.007175
0.024466
-0.067191
-0.045606
-0.002604
0.052741
0.058136
-0.021374
0.026559
-0.008996
0.021389
-0.068121
0.011458
0.011031
-0.068820
-0.058334
-0.046926
0.121713
0.009890
-0.061888
0.042350
-0.059663
-0.009763
0.031756
-0.099442
-0.058590
-0.056063
0.005474
-0.055697
-0.031825
-0.063819
0.010044
-0.002596
-0.034707
-0.084512
-0.026742
-0.013862
-0.002400
0.120156
0.046853
0.015332
0.087280
-0.006317
0.074493
0.084496
0.136746
0.043599
-0.003432
0.061553
0.091873
0.117700
0.096183
0.141476
0.109254
0.138136
0.128673
0.155122
0.145760
0.100792
0.152534
0.151155
0.132090
0.161155
0.130206
0.111687
0.117375
0.061238
0.051291
0.005889
0.019983
0.036747
0.035841
-0.029590
0.024333
0.029284
0.021456
-0.029041
0.045640
-0.044825
0.012067
0.006894
-0.061612
0.008045
-0.002630
-0.010597
-0.080897
-0.088978
-0.023409
0.003097
0.055415
0.034582
-0.005595
-0.051218
-0.081632
-0.071966
-0.034676
-0.017697
-0.084710
0.028753
0.199633
0.457408
0.877253
1.195408
1.340161
1.353114
1.122703
0.892360
0.518080
0.220371
-0.061315
-0.227273
-0.380417
-0.295452
-0.245790
-0.112129
-0.089722
-0.054363
0.017350
-0.043071
-0.049890
-0.001578
-0.011835
-0.079330
-0.022594
-0.079662
0.018793
-0.046235
0.017456
-0.071761
0.036345
0.060606
0.103593
0.058240
0.046658
0.077452
0.073263
0.075080
0.154485
0.112033
0.123730
0.178712
0.198413
0.290440
0.238975
0.240789
0.330304
0.245522
0.264249
0.320515
0.309296
0.309546
0.345987
0.401620
0.479239
0.404175
0.415009
0.449403
0.400053
0.424679
0.469737
0.459421
0.444306
0.537045
0.422315
0.392237
0.416240
0.493933
0.408252
0.412145
0.311547
0.325151
0.327091
0.305807
0.270775
0.289817
0.146820
0.232467
0.302605
0.253023
0.167771
0.232918
0.143103
0.212138
0.139112
0.028752
0.143269
0.082365
0.078456
0.072453
0.080144
0.025165
0.047847
-0.001145
0.080265
-0.042036
0.003101
-0.023032
-0.044167
0.024108
-0.021385
-0.106525
-0.105930
-0.045091
0.011391
-0.005196
0.014555
-0.024989
-0.038937
0.012395
0.031078
-0.073601
0.033167
-0.039450
-0.012453
-0.067970
0.041906
-0.027311
-0.008452
0.014329
0.025738
-0.053367
-0.014412
-0.036264
-0.034545
-0.015067
-0.072068
-0.093708
-0.008091
-0.007603
-0.066267
-0.028629
0.049860
-0.031472
0.004518
0.039939
0.005410
0.034577
-0.048880
0.014332
-0.019308
0.048099
-0.085180
-0.075352
0.019930
-0.037341
-0.012407
0.011276
-0.060902
0.021521
0.012317
-0.015236
-0.069544
-0.010393
0.043327
-0.057188
0.002749
-0.019856
-0.041196
0.015598
0.016189
-0.039512
-0.004535
0.002900
-0.033815
-0.076728
0.050250
0.023716
0.036010
0.002610
0.060542
0.093553
0.088651
0.161261
0.138517
0.034654
0.064879
0.127194
0.093225
0.173149
0.090226
0.136382
0.150542
0.145347
0.228381
0.220741
0.152117
0.154020
0.214790
0.191404
0.278046
0.144175
0.156649
0.137257
0.186733
0.199048
0.163660
0.103662
0.089361
0.206545
0.079862
0.087402
0.117555
0.073449
0.066066
-0.008599
0.138827
-0.009958
0.108207
-0.012509
0.090575
0.072048
0.096410
0.055502
0.042364
0.046219
0.078867
0.010878
0.046670
-0.016425
-0.017266
0.005067
0.004397
-0.026746
-0.071901
-0.049218
0.080589
0.288836
0.484648
0.755482
1.183058
1.375791
1.374596
1.269498
1.093973
0.752079
0.353020
0.062874
-0.138355
-0.253891
-0.250302
-0.211071
-0.071049
0.032964
0.039731
0.057213
0.047703
0.082878
0.054778
0.009638
0.034973
0.059253
0.021640
0.068932
0.084642
0.079680
0.115192
0.110373
0.078979
0.171226
0.115815
0.195122
0.209201
0.108861
0.214320
0.224346
0.218939
0.277029
0.261939
0.242552
0.262727
0.204392
0.261161
0.347880
0.375674
0.437232
0.479659
0.393595
0.430878
0.577734
0.518346
0.463961
0.490218
0.563703
0.533192
0.597972
0.571999
0.535138
0.557133
0.588421
0.645561
0.590090
0.583425
0.543859
0.507279
0.499561
0.543443
0.599585
0.480337
0.471791
0.464901
0.372578
0.399872
0.373700
0.344784
0.263907
0.260746
0.385038
0.295037
0.278079
0.244632
0.246405
0.212767
0.212002
0.240223
0.160381
0.169525
0.174475
0.233558
0.185321
0.136250
0.062252
0.094257
0.103763
0.095795
0.050896
0.146101
0.071153
0.066366
-0.015968
0.129028
0.058354
0.091176
0.051876
0.053984
0.032278
0.069574
0.093604
0.132656
0.130113
0.098881
0.112341
0.152654
0.163002
0.036068
0.003217
0.087282
0.051622
0.038756
0.151567
0.011183
0.125345
0.108228
0.075473
0.157856
0.106065
0.101053
0.032329
0.091965
0.085231
0.080690
0.021179
0.152443
0.128380
0.162131
0.097563
0.091669
0.084356
0.084069
0.174145
0.084271
0.026398
0.052390
0.146938
0.093187
0.019329
0.107781
0.072020
0.154433
0.195861
0.087626
0.157315
0.143663
0.048301
0.121346
0.050667
0.085779
0.144729
0.047698
0.147483
0.107262
0.101283
0.133242
0.091565
0.187037
0.064347
0.147517
0.136993
0.165647
0.192102
0.158282
0.195199
0.199171
0.179334
0.204168
0.174634
0.287342
0.233594
0.217597
0.300282
0.259968
0.267690
0.268062
0.242743
0.216971
0.370426
0.258851
0.254058
0.215247
0.245095
0.230432
0.223301
0.139134
0.192870
0.170580
0.191936
0.198716
0.187360
0.112008
0.203041
0.114698
0.164070
0.097239
0.091294
0.070802
0.118432
0.068981
0.011726
0.053925
0.046835
0.127762
0.119730
0.091920
0.115638
0.209477
0.149488
0.047479
0.047015
0.027700
0.057907
-0.017260
0.128151
0.098648
0.119209
0.219730
0.380201
0.843123
1.155499
1.282074
1.419619
1.348051
1.185662
0.900053
0.472961
0.170842
-0.167798
-0.182014
-0.242478
-0.099958
0.003132
-0.074004
0.067632
0.056495
0.071378
0.125188
0.040111
0.059456
0.077168
0.031744
-0.006580
0.103713
0.020318
0.066603
0.077326
0.135231
0.155059
0.088171
0.107649
0.100335
0.086774
0.152514
0.123608
0.245262
0.251243
0.248197
0.267287
0.290156
0.304728
0.297242
0.334886
0.276822
0.411852
0.415069
0.291542
0.360953
0.434261
0.365889
0.423963
0.482716
0.512602
0.559434
0.509525
0.561270
0.605691
0.588579
0.645505
0.578124
0.543318
0.567675
0.546374
0.563364
0.527314
0.557205
0.477289
0.479698
0.435057
0.418498
0.439230
0.467860
0.422329
0.394772
0.283869
0.299269
0.333350
0.267533
0.282888
0.240724
0.190306
0.241105
0.220415
0.254102
0.165439
0.100688
0.106509
0.096321
0.163377
0.097276
0.091043
0.006274
0.091406
0.047356
0.043034
0.079305
0.105461
0.131204
0.028132
0.052261
0.112937
0.017404
0.133821
0.029032
0.073977
0.040676
-0.007844
0.026546
0.046787
-0.000302
0.063639
-0.018553
0.047500
0.006670
-0.018087
0.049102
-0.049304
-0.087636
0.070018
0.050938
0.010663
-0.012317
0.034404
-0.012579
-0.041777
0.093038
-0.056329
0.034056
-0.049562
0.014897
-0.008062
-0.054947
0.016728
-0.047207
-0.058796
0.006605
-0.003787
0.073520
0.024850
-0.045624
0.038888
0.010290
-0.024219
0.009570
0.032705
0.030801
0.022685
0.018674
-0.001642
-0.003738
-0.027921
-0.102721
0.002885
-0.045100
-0.008610
0.026478
-0.019415
-0.012769
-0.028965
0.025954
0.005081
0.036046
0.092756
0.048257
-0.041790
0.018662
-0.021270
0.058522
0.009963
0.086396
-0.037157
-0.030216
0.070122
0.067861
0.030655
0.090266
0.182276
0.109396
0.117459
0.157436
0.194961
0.173666
0.191586
0.102857
0.156278
0.178670
0.186286
0.164923
0.146320
0.126274
0.049451
0.146681
0.085261
0.077201
0.036776
0.073943
0.004116
0.072564
0.001089
0.013092
0.030723
0.033858
0.030384
0.038628
0.006858
0.038956
-0.042399
-0.003401
0.026728
-0.054799
-0.059641
-0.118704
-0.016827
-0.036915
0.022444
-0.073573
-0.076079
-0.060424
-0.006223
-0.013044
-0.041211
-0.013166
-0.057851
-0.071563
0.074266
0.234692
0.629241
0.765870
1.118456
1.345920
1.295626
1.129965
0.789261
0.451572
0.135396
-0.129545
-0.271638
-0.280410
-0.288576
-0.259559
-0.144947
-0.130864
-0.063675
-0.036649
-0.053007
-0.025782
-0.050429
-0.072893
0.016958
-0.012701
0.080342
-0.080249
-0.044877
0.045585
-0.069849
-0.061968
-0.049083
0.018603
0.037183
0.033141
0.001904
0.108408
0.052289
0.060351
0.111010
0.183565
0.094023
0.117285
0.126660
0.242977
0.296315
0.220152
0.260986
0.297584
0.237714
0.318530
0.322805
0.390666
0.384284
0.374033
0.448235
0.314822
0.442090
0.333048
0.460816
0.415301
0.434043
0.369229
0.392970
0.380636
0.358904
0.465472
0.390739
0.372665
0.346998
0.305928
0.304302
0.299205
0.323504
0.289199
0.274189
0.097552
0.260973
0.199909
0.208586
0.167575
0.096959
0.164758
0.111104
0.115742
0.064663
0.086319
0.071926
0.020333
-0.047797
0.019497
-0.045018
0.029798
-0.039549
-0.038277
-0.016258
-0.100323
-0.011462
-0.027458
-0.061557
-0.033222
-0.095107
-0.002049
-0.095082
-0.179745
-0.012515
-0.128956
-0.141470
-0.031404
-0.069720
-0.115638
-0.028458
-0.046660
-0.073480
-0.128473
-0.139358
-0.062571
-0.049619
-0.118291
-0.092684
-0.032204
-0.060546
-0.091985
-0.040204
-0.061032
-0.104307
-0.060382
-0.027841
-0.049048
-0.162704
-0.105058
-0.145795
-0.050374
-0.051675
-0.041575
-0.094835
-0.183770
-0.073029
-0.179026
-0.067356
-0.068312
-0.025836
-0.087523
-0.082405
-0.026008
-0.095175
-0.060002
-0.101624
-0.018141
-0.060090
0.000644
-0.092519
-0.035481
-0.062569
-0.110409
-0.088489
-0.092350
-0.050422
-0.168961
-0.062215
-0.019640
-0.071780
-0.051154
-0.048195
-0.053355
-0.035670
-0.028235
-0.010450
0.000086
-0.007112
0.002735
-0.011959
-0.047499
-0.040164
-0.019160
0.025926
0.031082
0.040964
0.041627
0.040913
0.026514
0.120958
0.053624
0.066286
0.099262
0.105334
0.103018
0.116819
0.191787
0.115865
0.102788
0.098566
0.120637
0.018391
0.076556
0.099583
0.021304
0.023477
-0.022758
-0.020156
0.001982
-0.033625
-0.022898
0.043347
-0.097305
-0.035050
-0.031612
-0.006840
0.000424
-0.028395
-0.008589
-0.073240
-0.065083
-0.039540
-0.081512
-0.031296
-0.049101
-0.004255
-0.064067
-0.040329
-0.046712
-0.059915
-0.135202
-0.032112
-0.147140
-0.060239
-0.104170
0.184724
0.477660
0.744446
1.143842
1.318881
1.326795
1.239292
0.893362
0.514119
0.198262
-0.062956
-0.270463
-0.319083
-0.319513
-0.194425
-0.246778
-0.130415
-0.053622
-0.119297
0.020647
-0.021268
-0.025919
-0.028097
0.041789
-0.001731
-0.010034
-0.084167
0.014359
0.001921
0.018876
0.061869
0.050576
-0.033432
0.034630
0.080970
0.095090
0.161579
0.132371
0.120448
0.048276
0.126744
0.092366
0.159030
0.208044
0.240089
0.240693
0.250228
0.287975
0.371997
0.370387
0.408822
0.355873
0.358676
0.389518
0.424788
0.473087
0.416564
0.426724
0.545428
0.539260
0.489731
0.449356
0.484409
0.410324
0.446735
0.484496
0.459240
0.381692
0.453507
0.455446
0.447816
0.412783
0.402557
0.366299
0.367539
0.347054
0.296280
0.327316
0.296457
0.205541
0.323158
0.185558
0.190619
0.144640
0.202516
0.179129
0.117228
0.070285
0.023972
0.106838
0.073965
0.064574
0.053652
-0.011532
0.089720
0.040037
0.061905
0.070522
-0.019062
0.041720
0.073432
-0.013003
-0.045995
0.018996
-0.105702
0.017889
0.003233
0.094134
0.050157
0.086614
0.014413
0.000831
0.069338
0.112193
0.005460
0.084216
0.061825
0.013078
-0.050380
0.019166
-0.053182
0.071799
0.076898
0.035259
0.057504
-0.074169
0.026720
-0.001623
-0.037095
0.041195
-0.013831
0.003104
0.006800
0.042036
0.063156
0.005558
0.040001
0.015177
0.071667
-0.060987
0.017159
-0.009689
-0.002629
-0.023640
-0.039049
0.064470
0.045185
0.056633
-0.034304
-0.009701
0.058947
0.030401
0.013320
0.046903
-0.045526
-0.024086
0.054377
-0.001252
0.004584
0.085019
-0.001132
-0.030095
0.033931
0.048592
0.056006
0.061480
0.080155
0.071917
0.086199
-0.011673
0.058368
0.077916
0.155753
0.131385
0.176536
0.184058
0.212151
0.172267
0.158670
0.165426
0.219594
0.215907
0.196525
0.116337
0.218742
0.213068
0.191264
0.250858
0.176214
0.179195
0.170114
0.204976
0.212858
0.114799
0.193541
0.086505
0.214195
0.143039
0.079204
0.152097
0.164232
0.151918
0.055989
0.111589
0.180710
0.033491
0.044098
0.057976
0.110930
0.021832
0.003844
0.127392
0.041011
0.049281
-0.060117
0.020316
0.077821
0.119766
0.018879
0.044137
0.109109
-0.028021
0.031624
0.022265
0.015074
0.039784
0.009794
0.223154
0.464204
0.791665
1.170670
1.416603
1.500000
1.386530
1.130717
0.761638
0.319614
0.121840
-0.137933
-0.226507
-0.293788
-0.220601
-0.026089
-0.004837
-0.009000
0.123639
-0.009550
-0.003508
0.136948
0.124565
0.072554
0.082423
-0.018622
0.066436
0.058894
0.036804
0.040306
0.145378
0.160097
0.106078
0.181981
0.166772
0.114516
0.121264
0.209078
0.186035
0.251547
0.187697
0.230818
0.287726
0.242907
0.305145
0.282474
0.278219
0.328568
0.371768
0.443369
0.371908
0.406397
0.467987
0.447721
0.458853
0.495089
0.497896
0.516379
0.519102
0.569359
0.532804
0.593318
0.560676
0.496269
0.535020
0.592229
0.511589
0.515453
0.489957
0.445203
0.451936
0.482024
0.517413
0.358071
0.359126
0.354472
0.328232
0.316896
0.352767
0.250010
0.216575
0.228454
0.238045
0.223498
0.244423
0.214394
0.210076
0.148222
0.094629
0.087965
0.140699
0.077773
0.034949
0.080419
0.116994
0.108960
0.130295
0.001241
0.036076
0.000628
0.079646
-0.031143
0.026875
0.017442
0.095810
0.052232
-0.004161
-0.006270
0.032929
0.041232
-0.037333
0.017727
0.037830
0.068230
0.015820
-0.010956
0.040568
0.077674
0.050130
0.010546
0.034251
-0.013034
-0.050542
-0.009876
0.071679
0.012499
0.084820
0.046341
0.024249
-0.021720
0.017517
-0.043399
0.067682
-0.014841
0.021901
0.045955
-0.036194
-0.062840
0.069763
0.037515
-0.007172
-0.010247
-0.022768
0.006627
0.006327
-0.006561
-0.064075
-0.035947
0.090124
0.044114
0.005366
-0.022056
0.041636
-0.027400
0.060471
0.047425
0.015575
-0.038263
0.018629
0.048552
0.047342
-0.026430
-0.015964
-0.033212
0.058241
0.005527
-0.047821
0.002608
-0.018737
0.081217
0.114595
0.025871
0.000630
0.033669
0.048231
-0.018644
0.070947
0.108530
0.067408
0.106824
0.123216
0.160597
0.136064
0.152678
0.157537
0.158276
0.190375
0.050533
0.160117
0.220383
0.092796
0.150698
0.134223
0.123407
0.075647
0.126672
0.133515
0.126162
0.153703
0.022891
0.024506
0.068126
-0.034975
0.058215
0.018656
-0.008409
-0.012058
-0.002653
0.007695
0.016716
-0.028332
-0.004333
0.037397
0.005676
0.036541
-0.068197
-0.061292
-0.064780
-0.029349
-0.091913
-0.073901
0.021632
-0.035820
-0.025909
-0.039678
-0.077543
0.027544
0.076707
0.272946
0.609239
0.970515
1.268457
1.282902
1.318035
1.041657
0.818660
0.401871
0.084328
-0.148800
-0.259733
-0.312240
-0.288335
-0.192322
-0.137033
0.011807
-0.039703
-0.075049
-0.052977
-0.066483
-0.048466
-0.012559
-0.083629
-0.051814
0.007834
-0.039717
0.082866
-0.038819
0.009367
0.044317
0.026655
0.077107
0.056312
0.000527
0.104600
0.108367
0.164962
0.106324
0.139894
0.136991
0.213107
0.198185
0.190423
0.244540
0.226366
0.243858
0.300898
0.269280
0.365782
0.262537
0.353540
0.408011
0.401953
0.426469
0.434874
0.326893
0.471994
0.350464
0.401992
0.465747
0.436323
0.372247
0.353951
0.452769
0.415269
0.362337
0.340764
0.395733
0.327776
0.297610
0.271863
0.275141
0.226524
0.220271
0.378608
0.165681
0.117459
0.207775
0.118627
0.120750
0.065520
0.061746
-0.005883
0.061137
0.080815
0.076379
-0.026864
-0.023518
-0.007607
0.040538
-0.031920
-0.076817
-0.097050
-0.116489
0.005325
-0.080779
-0.146236
-0.037256
-0.034744
-0.105572
-0.090060
-0.040122
-0.168613
-0.003528
-0.091686
-0.134227
-0.080671
-0.051105
-0.111296
-0.045578
-0.138382
-0.108324
-0.090354
-0.072456
-0.082810
-0.070247
-0.090952
-0.003713
-0.151683
-0.134345
-0.116689
-0.064156
-0.129335
-0.208935
-0.123761
-0.083599
-0.016944
-0.090358
-0.181131
-0.091006
-0.066738
-0.104818
-0.069674
-0.128155
-0.134105
-0.099244
-0.077090
-0.069118
-0.052111
-0.076653
-0.173024
-0.085090
-0.097520
-0.082131
-0.146770
-0.095835
-0.137892
-0.078993
-0.136120
-0.113151
-0.072032
-0.131543
-0.043273
-0.040602
-0.100370
-0.118428
-0.087665
-0.071020
-0.076827
-0.109905
-0.087126
-0.132097
-0.070770
-0.114000
-0.096710
-0.085747
-0.020559
-0.090995
-0.026653
-0.104080
-0.056322
-0.040730
0.077532
0.029608
-0.067426
-0.022597
-0.015270
-0.041893
0.130110
0.002056
0.082692
0.118544
0.064964
0.049315
0.076733
0.140875
0.103217
0.079474
0.033184
-0.021960
0.066038
0.040046
0.004944
0.081503
0.018938
0.073495
0.043231
0.035456
-0.000763
-0.075276
-0.017480
-0.072274
-0.061760
-0.074030
-0.113381
-0.075027
-0.137953
-0.089768
-0.036808
0.006747
-0.174703
-0.081677
-0.161201
-0.049420
-0.031608
-0.022646
-0.078258
-0.073108
-0.131033
-0.147168
-0.034713
-0.169665
-0.025436
-0.127605
-0.229941
0.003447
0.185936
0.463109
0.883055
1.115764
1.287536
1.286568
1.067940
0.799500
0.415174
0.050889
-0.165023
-0.367213
-0.384777
-0.413414
-0.319091
-0.188144
-0.109447
-0.171716
-0.062995
-0.148765
-0.030488
-0.127739
-0.058755
-0.115396
0.011522
-0.064897
-0.068668
0.070801
0.000619
0.000254
-0.012072
-0.019825
-0.046226
0.004665
-0.015741
-0.028649
0.027047
0.074005
-0.038094
0.046450
0.076440
0.063796
0.166045
0.187345
0.170999
0.264165
0.154449
0.239691
0.261050
0.321615
0.388462
0.292851
0.410237
0.359558
0.383780
0.348285
0.471781
0.374337
0.393189
0.490321
0.523876
0.400788
0.450214
0.390995
0.472813
0.416701
0.454739
0.356335
0.391577
0.349447
0.434724
0.334899
0.364917
0.281188
0.251281
0.262209
0.380495
0.278263
0.273818
0.237460
0.286751
0.170068
0.195653
0.076201
0.136817
0.109223
0.151391
0.024254
0.030847
0.073993
-0.017399
-0.043071
0.042996
-0.018804
-0.025486
0.022321
-0.082917
-0.067026
-0.094905
0.041093
0.020229
-0.021622
0.011822
0.019964
-0.024637
0.034308
-0.043487
-0.039885
-0.033609
-0.031088
-0.055166
-0.066489
-0.039028
-0.055932
-0.007320
-0.071224
-0.059388
-0.049790
-0.036812
-0.028192
0.014998
-0.001934
-0.071794
-0.052557
-0.037823
-0.119927
-0.011279
-0.037481
-0.083945
0.039114
-0.060340
-0.048818
-0.041006
-0.014462
0.035555
0.037791
-0.038558
0.011384
-0.082006
-0.046232
-0.009183
-0.048669
0.024776
-0.101020
-0.040176
-0.036072
-0.003433
0.001963
-0.017036
-0.004187
-0.017993
0.002079
0.017492
0.022085
-0.014500
-0.017483
-0.038993
0.036952
-0.030254
-0.016024
-0.052890
-0.001774
-0.063143
-0.007910
0.003832
0.087613
0.003980
0.097164
0.074709
-0.009267
0.024186
0.115716
0.089587
0.091467
0.031750
0.111927
0.200884
0.081912
0.075525
0.144202
0.167279
0.109815
0.215798
0.194029
0.213642
0.154696
0.190212
0.102110
0.197650
0.183546
0.236123
0.129939
0.156391
0.132009
0.100297
0.137737
0.127345
0.165304
0.068333
0.089942
0.107273
0.096913
0.077367
0.028347
0.040064
0.076428
0.047131
0.070277
0.092447
0.117072
0.060750
-0.020926
0.092459
0.019994
-0.007879
0.141955
-0.004404
0.011820
0.072578
0.012341
0.026161
0.071568
-0.000531
-0.008322
-0.058682
-0.012703
0.065936
0.249226
0.580931
0.843838
1.153605
1.355526
1.377534
1.319355
1.055253
0.582321
0.308077
-0.008768
-0.117117
-0.262957
-0.244853
-0.111992
-0.049044
0.021005
0.089958
0.064295
0.063557
0.110842
0.045779
0.072924
0.093798
0.061993
0.046453
0.087586
-0.013973
0.022139
0.173387
0.056056
0.096723
0.072979
0.067327
0.166965
0.232826
0.108370
0.148674
0.213193
0.222151
0.260379
0.219719
0.250398
0.322602
0.385979
0.404361
0.412668
0.412950
0.371843
0.444723
0.338629
0.498486
0.514059
0.496204
0.460053
0.494678
0.557005
0.507582
0.531623
0.613344
0.533924
0.537761
0.500131
0.554117
0.573834
0.561261
0.539603
0.436728
0.497495
0.469310
0.497632
0.452115
0.385982
0.483134
0.426257
0.363258
0.374931
0.384319
0.347906
0.305568
0.347946
0.340286
0.235383
0.236397
0.203305
0.206505
0.209757
0.175008
0.169432
0.189545
0.193031
0.131680
0.098161
0.100735
0.135533
0.079543
0.154462
0.096222
0.062950
0.091906
0.032687
0.134145
0.125749
-0.025031
0.040253
0.078351
0.076800
0.062176
0.065294
0.004264
0.044055
0.051672
0.098396
0.079468
0.071274
0.086767
0.039373
0.150583
0.079120
0.007541
0.032470
0.112053
0.110845
0.056030
0.064013
0.072872
0.068285
0.073540
0.045950
0.039510
0.088020
0.062796
0.065650
0.038982
0.072362
0.092442
0.038080
-0.034704
0.060007
0.064449
0.024483
