-0.023868
-0.017836
0.029536
0.099107
-0.037481
0.014150
0.031575
-0.082265
-0.031750
0.011263
0.001661
-0.057424
0.095942
-0.004544
0.032387
0.003084
0.037800
0.027665
0.083171
0.011324
0.021600
0.034409
0.029789
0.048785
0.068753
0.046160
0.095861
-0.023378
0.076016
0.061093
0.064608
0.047911
0.089717
-0.018640
0.028792
0.036148
0.067114
0.080385
0.063942
0.130395
0.132056
0.043982
0.156651
0.185300
0.183548
0.124877
0.228911
0.169805
0.196307
0.216238
0.184772
0.211248
0.213314
0.221392
0.231453
0.210571
0.148073
0.121139
0.184467
0.174047
0.141828
0.115095
0.169199
0.090837
0.100202
0.107649
0.121472
0.081292
0.039523
0.021134
0.067672
0.037800
0.013768
0.056882
0.032039
0.020722
0.076222
0.042970
0.032962
0.052596
0.169245
0.075761
0.106069
0.042826
0.064040
0.023220
0.145788
0.046026
0.039151
0.077764
0.015716
0.020933
-0.088278
-0.072728
-0.055316
0.024793
0.023063
0.297216
0.576665
0.889566
1.184953
1.348989
1.482026
1.352375
1.106156
0.739315
0.429865
0.157673
-0.090293
-0.220646
-0.238830
-0.169597
-0.192187
-0.013524
-0.015004
0.068377
0.124073
0.093186
0.067654
0.097552
0.064183
0.073218
-0.002807
0.085346
0.083443
0.133136
0.043595
0.141361
0.067022
0.141434
0.110943
0.068994
0.159023
0.115774
0.189189
0.128975
0.158018
0.197577
0.160199
0.150707
0.154046
0.235682
0.206124
0.188757
0.282191
0.267939
0.266453
0.343512
0.486713
0.431955
0.368709
0.342470
0.371423
0.432843
0.529808
0.520297
0.598687
0.526184
0.565873
0.558051
0.643876
0.550502
0.655508
0.634130
0.567304
0.552285
0.508491
0.574296
0.620351
0.585670
0.542858
0.518806
0.526025
0.554415
0.480718
0.527038
0.500691
0.413421
0.423436
0.369166
0.456504
0.289970
0.394893
0.371591
0.297230
0.302841
0.224083
0.228752
0.251345
0.292579
0.166648
0.174480
0.152349
0.179883
0.087182
0.167651
0.099527
0.191482
0.158384
0.135114
0.090637
0.146045
0.064196
0.161525
0.196095
0.080315
0.163467
0.054687
0.091402
0.066869
0.110590
0.158951
0.115954
0.079451
0.115594
0.124304
0.143379
0.103220
0.084520
0.137724
0.039423
-0.044848
0.157970
0.119684
0.120331
0.103621
0.086204
0.049832
0.140516
0.097051
0.107265
0.167009
0.135491
0.016849
0.008368
0.138632
0.112085
0.103928
0.107808
0.145448
0.097727
0.055451
0.091388
0.072285
0.107306
0.113240
0.050887
0.109575
0.100824
0.065781
0.098794
0.086975
0.059727
0.016797
0.075573
0.103955
0.106878
0.159285
0.096445
0.065494
0.096012
0.159198
0.082125
0.153798
0.093198
-0.004549
0.057192
0.069411
0.121088
0.147119
0.132903
0.020931
0.100542
0.059553
0.075614
0.130134
0.053480
-0.004950
0.040690
0.120783
0.060376
0.090017
0.027480
0.147149
0.112466
0.105608
0.097479
0.139468
0.140408
0.131547
0.067145
0.178175
0.131126
0.194464
0.114359
0.205598
0.090486
0.252007
0.129831
0.256356
0.201737
0.196643
0.151478
0.227047
0.241952
0.255145
0.255776
0.212053
0.231854
0.162759
0.250845
0.249944
0.229554
0.220562
0.170145
0.159401
0.106587
0.124769
0.064510
0.093045
0.190526
0.089431
0.083610
0.080013
0.023212
0.119973
0.132263
0.053721
0.125024
0.076804
0.048149
0.023108
0.044401
0.054259
0.012685
0.039254
0.064687
0.039820
0.004153
0.086307
-0.024025
-0.009758
-0.003584
0.025474
0.043151
0.145551
0.066270
0.023977
0.000277
-0.005055
0.068399
0.227605
0.465755
0.803789
1.182945
1.332715
1.470532
1.327966
1.214363
0.863549
0.506945
0.227871
-0.047195
-0.285968
-0.273578
-0.288186
-0.189181
-0.165527
-0.026170
0.034872
0.047139
-0.041776
0.047838
0.024036
0.026265
0.035319
-0.034596
0.051473
0.091353
0.064756
0.099275
0.025898
0.051405
0.082984
0.003692
0.133406
0.062183
0.094721
0.033839
0.113383
0.048706
0.143520
0.138286
0.123324
0.170093
0.128478
0.118766
0.227674
0.168432
0.231926
0.207525
0.287549
0.234383
0.358415
0.280139
0.280065
0.437064
0.280216
0.331039
0.399877
0.378758
0.448261
0.463125
0.494946
0.426032
0.466122
0.498867
0.474104
0.571611
0.471901
0.550151
0.470389
0.529897
0.482033
0.488978
0.492822
0.459214
0.493627
0.481191
0.424645
0.342578
0.378583
0.405404
0.366563
0.301951
0.322908
0.237604
0.336545
0.270395
0.269074
0.221434
0.207529
0.210683
0.090198
0.147296
0.108451
0.192852
0.116882
0.050787
0.055895
0.015424
0.033241
0.115642
-0.044646
0.043442
-0.080770
-0.001696
0.048149
-0.032054
0.031288
0.018954
-0.036122
-0.004800
-0.025452
0.005395
-0.047180
-0.057110
0.002478
-0.000497
0.017535
0.003733
-0.009025
-0.059106
0.049800
-0.046645
0.002034
-0.055404
-0.151139
0.005370
-0.014107
0.023081
-0.000508
-0.022115
-0.011907
0.012244
0.059018
-0.010145
-0.008498
0.004740
-0.071454
0.041150
-0.019780
-0.021069
-0.010258
-0.045590
-0.061167
0.000316
-0.042648
0.068389
0.078129
-0.005118
-0.036534
0.006712
-0.079586
-0.027223
-0.040045
0.077690
0.015193
-0.052185
-0.037478
-0.023187
-0.121204
-0.063888
-0.075072
-0.045307
-0.021342
-0.034632
-0.028040
-0.015109
-0.121166
-0.099133
0.067222
0.001026
-0.088965
-0.052703
-0.052682
-0.060604
-0.001862
-0.117264
-0.059427
-0.082888
-0.024369
-0.013943
-0.007652
-0.001766
-0.005018
-0.047542
-0.042927
-0.069415
0.004506
-0.046210
-0.060467
-0.033719
0.045055
-0.023537
0.029263
0.025302
0.061016
-0.011504
0.029316
0.095121
0.089521
0.075805
0.160581
0.108690
0.088241
0.152783
0.131388
0.143238
0.142951
0.058154
0.083942
0.073472
0.068543
0.060035
0.051619
0.109048
0.122337
0.088033
-0.014010
0.044712
0.007505
0.016722
-0.009413
-0.034286
-0.020830
0.060844
-0.001647
0.045008
-0.004340
-0.013189
0.008725
0.039694
-0.079295
0.069513
-0.038475
-0.002359
0.017962
0.033233
-0.019684
-0.041212
-0.014250
-0.045775
-0.038028
-0.035361
-0.078559
-0.064994
-0.090175
0.016255
-0.079209
-0.042078
-0.044036
-0.140144
-0.135446
-0.130062
0.041662
0.340628
0.643187
0.884611
1.227086
1.336093
1.289752
1.177138
0.854049
0.563360
0.187122
-0.074602
-0.200053
-0.393143
-0.357764
-0.200666
-0.214561
-0.059716
-0.024645
-0.078539
-0.059456
-0.041683
-0.078376
-0.086304
-0.026208
0.019241
-0.034431
-0.045976
-0.002587
0.010133
-0.011956
-0.094539
0.005488
0.039844
-0.014071
-0.080877
0.018355
0.014496
0.005397
0.083085
0.049966
0.046367
0.103157
0.037955
0.069129
0.097749
0.107924
0.144649
0.124724
0.126875
0.243179
0.226114
0.299853
0.315640
0.326803
0.326252
0.305218
0.344949
0.379271
0.428396
0.455743
0.419681
0.460453
0.428569
0.443845
0.449259
0.440132
0.498841
0.465730
0.496945
0.551251
0.510858
0.408501
0.465248
0.526457
0.418262
0.423589
0.386995
0.394192
0.438337
0.393689
0.289591
0.322843
0.306062
0.346628
0.278866
0.312380
0.288762
0.216499
0.236234
0.132389
0.203860
0.142509
0.179260
0.053745
0.114112
0.070538
0.175839
0.003794
0.097713
-0.011396
0.065011
0.082257
0.049376
0.082391
-0.009374
0.015288
0.017915
0.060223
-0.014531
0.087827
-0.037772
0.034409
-0.044558
-0.005418
-0.068225
0.070687
-0.012766
0.091303
0.006457
-0.005150
-0.015844
0.031064
-0.006200
-0.015395
0.024731
0.038542
-0.050816
-0.054716
-0.043181
0.047453
0.065161
0.030971
0.086523
0.016502
0.057864
-0.040508
-0.024153
-0.037101
0.002598
-0.002416
-0.054356
-0.029476
-0.007076
0.060221
-0.067790
-0.012185
0.098918
-0.040628
-0.066047
-0.044178
0.030360
0.089587
-0.068643
0.086806
0.036720
0.037639
0.054219
0.048070
-0.023298
-0.053187
-0.015201
0.007887
-0.029773
0.044644
0.065677
0.057605
0.010915
-0.049041
0.079680
0.017561
0.051270
0.026315
0.065917
0.014517
0.017318
0.075625
-0.005766
0.036677
0.016216
0.108317
0.077106
0.150655
0.049659
0.080921
-0.034236
0.015686
0.073154
0.032942
0.047456
0.009647
0.126152
0.077699
0.100657
0.154745
0.112040
0.078793
0.115165
0.127603
0.190742
0.244189
0.161447
0.250198
0.151419
0.168532
0.230709
0.153640
0.190149
0.217942
0.205004
0.192265
0.227905
0.280081
0.292390
0.264922
0.178787
0.107876
0.149138
0.173213
0.188722
0.165922
0.206601
0.095315
0.138888
0.139909
0.073029
0.053182
0.032731
0.069877
0.034386
0.088714
0.185052
-0.003417
0.121034
0.078034
0.048382
0.115268
0.090561
0.036088
0.146390
0.083487
0.078673
0.005543
0.060077
0.087661
0.109885
0.040298
0.020300
0.054920
0.010602
-0.030878
0.041321
-0.058237
0.071374
0.109687
0.375995
0.694399
1.040698
1.307999
1.500000
1.446722
1.286489
1.000480
0.702588
0.343276
0.035927
-0.132475
-0.255823
-0.234695
-0.107895
-0.117587
-0.120174
0.000094
0.050092
0.081265
0.067749
0.004884
0.067340
0.019904
0.069619
0.084148
0.109227
0.061895
0.103207
0.081655
0.093578
0.069679
0.152920
0.108306
0.148120
0.181634
0.174997
0.097900
0.188617
0.232571
0.175180
0.194626
0.237435
0.223818
0.232873
0.194094
0.255327
0.305617
0.332082
0.307166
0.350231
0.351355
0.363179
0.408666
0.412260
0.398377
0.482618
0.547690
0.513001
0.439724
0.536750
0.539400
0.597551
0.578858
0.534146
0.564476
0.584183
0.604486
0.618351
0.609592
0.578345
0.624314
0.585288
0.559982
0.508151
0.638297
0.519163
0.612566
0.437726
0.508948
0.408637
0.454552
0.461227
0.321516
0.389657
0.360176
0.324346
0.331199
0.349898
0.232927
0.291466
0.287972
0.210558
0.287991
0.218105
0.171262
0.165534
0.145672
0.220727
0.161778
0.086799
0.090423
0.171577
0.147463
0.081378
0.152781
0.097540
0.115154
0.055744
0.083110
0.154016
0.084150
0.076937
0.052334
0.099086
0.086540
0.100063
0.029351
0.103058
0.031216
0.088502
0.117265
0.131271
0.052083
0.069799
0.071430
0.100947
0.104081
0.021304
0.072890
0.027517
0.103222
0.143061
0.076467
0.086624
0.131482
0.081616
0.043653
0.091598
0.118095
0.112705
0.114014
0.060158
0.137857
0.084983
0.160733
0.045272
0.084048
0.064675
0.074594
0.060616
0.078689
0.082927
0.040189
0.086261
0.052935
0.060608
0.082704
-0.000535
0.047892
0.076907
0.068679
0.119160
0.113850
0.136772
0.104498
0.024981
0.073998
0.115752
0.078543
0.041081
0.068062
0.012061
0.064971
0.032165
0.119306
0.154017
0.083115
0.126499
0.064152
0.000640
0.075381
0.074919
0.034161
0.044574
0.128450
0.073835
0.046603
0.085330
0.108544
0.146548
0.045763
0.096561
0.101997
0.000330
0.106152
0.176063
0.151228
0.221982
0.286226
0.233750
0.244239
0.239841
0.240034
0.109908
0.244803
0.298144
0.353919
0.243819
0.183397
0.218978
0.273727
0.174179
0.194414
0.157747
0.185929
0.188748
0.142597
0.198411
0.182968
0.145332
0.129975
0.097548
0.061506
0.087769
0.114669
0.060060
0.025877
0.047843
0.062168
-0.051916
0.054712
0.105526
0.071701
-0.005776
-0.053207
0.010942
-0.022653
0.070925
-0.006985
-0.001165
0.077775
0.044646
0.064318
-0.002574
0.067042
0.021652
0.074335
0.031815
0.006075
0.005148
-0.045810
-0.024424
0.106045
0.199980
0.554634
0.857169
1.179172
1.376216
1.458587
1.287497
1.019627
0.717294
0.370102
0.026731
-0.107892
-0.226229
-0.263886
-0.196216
-0.110854
-0.022414
-0.039853
-0.054534
0.020958
-0.053676
0.049130
-0.060450
0.027996
-0.005391
0.010585
-0.009138
0.087023
0.067139
0.108698
-0.055943
0.015681
0.112046
-0.020518
0.028842
-0.028921
0.026260
0.061110
0.001587
0.099627
0.141782
0.138024
0.099504
0.165982
0.215348
0.129907
0.112632
0.158857
0.217272
0.211728
0.183357
0.196730
0.193955
0.267311
0.318103
0.340997
0.409013
0.374286
0.372217
0.404950
0.473839
0.449390
0.453763
0.502010
0.415875
0.448240
0.461301
0.477085
0.514679
0.459899
0.549870
0.391503
0.450389
0.436222
0.366807
0.430601
0.397570
0.371529
0.403659
0.449150
0.310373
0.376526
0.324031
0.281668
0.241000
0.231472
0.269285
0.226883
0.257937
0.213986
0.168864
0.103753
0.102403
0.059424
-0.008614
0.112201
0.136461
0.039920
0.022993
0.030379
-0.007981
0.029664
0.076123
-0.067582
-0.032473
-0.056776
0.065659
0.001777
0.043660
-0.037942
-0.087285
-0.052579
-0.093326
-0.057343
0.014663
-0.088838
0.012475
-0.006556
-0.091851
-0.077637
-0.048067
-0.111919
-0.040273
-0.016114
-0.054970
0.033290
-0.013622
-0.031642
-0.036409
-0.053397
-0.008970
-0.147293
-0.039775
-0.102813
-0.049283
-0.031437
-0.063093
-0.060563
-0.097870
-0.062029
-0.003614
-0.108470
-0.042156
-0.053611
-0.057550
-0.044299
0.043073
-0.092502
-0.115048
-0.009937
-0.080819
-0.122538
-0.117269
-0.051274
-0.075950
-0.014655
-0.088957
-0.033450
-0.070479
-0.063225
-0.118495
-0.045193
-0.053355
-0.048837
-0.024189
-0.074937
-0.092894
-0.126058
-0.117681
-0.058745
-0.111970
-0.065140
-0.073640
-0.099781
-0.082278
-0.105285
-0.060141
-0.041557
-0.019995
-0.002732
-0.081405
-0.042921
-0.102738
-0.060085
-0.150909
-0.029437
-0.041174
-0.022653
-0.069416
-0.033456
-0.033372
-0.034662
0.072819
-0.030614
-0.075156
0.015132
-0.030680
-0.017609
0.004456
0.017901
0.031570
0.007692
0.066824
0.182836
0.023202
0.077988
0.051576
0.135879
0.093051
0.081152
0.056008
0.191919
0.033069
0.078814
0.003894
0.010712
0.047935
0.100934
0.053665
0.008357
0.012942
0.063444
-0.036069
-0.092572
-0.098410
0.060588
-0.040647
-0.071719
-0.054326
-0.020083
0.016318
-0.103945
-0.040563
-0.121072
-0.106309
-0.020900
-0.052198
-0.001885
-0.045031
-0.110141
-0.074516
-0.160279
-0.132459
-0.051570
-0.140105
-0.119578
-0.097234
-0.107026
-0.055157
-0.042220
-0.125553
-0.165894
-0.164357
-0.001047
0.116821
0.319159
0.685319
1.036131
1.222284
1.389518
1.171164
1.046199
0.681212
0.334084
0.070098
-0.149270
-0.359784
-0.424259
-0.332642
-0.283716
-0.241861
-0.100367
-0.132052
-0.035492
-0.070243
-0.031590
-0.158507
-0.037958
-0.108872
-0.045074
-0.066540
-0.071070
-0.008360
-0.068632
-0.022453
-0.062949
-0.088300
0.033184
-0.024134
0.012387
0.035179
-0.029920
-0.075894
-0.041067
-0.041494
0.082438
0.022424
0.017302
0.137703
0.038118
0.031848
0.123449
0.167996
0.175305
0.188016
0.142740
0.235788
0.268914
0.207238
0.253855
0.241101
0.308638
0.386756
0.343915
0.458426
0.369097
0.408032
0.426680
0.447237
0.416245
0.418865
0.357197
0.456207
0.437474
0.463648
0.494660
0.427801
0.452809
0.368715
0.431979
0.464879
0.304654
0.405182
0.394062
0.304039
0.275878
0.303490
0.272901
0.207605
0.340967
0.215469
0.209434
0.105543
0.170622
0.171152
0.107769
0.119579
0.087937
0.094053
0.036306
0.034868
0.051097
0.029371
0.019847
-0.008118
-0.008685
0.024789
-0.035059
-0.032355
-0.032505
-0.007806
-0.032239
-0.059739
-0.027854
0.007736
-0.004091
-0.034950
-0.047911
-0.019313
0.006230
-0.032725
-0.033433
-0.009428
-0.072955
-0.128546
-0.061071
0.014516
-0.067067
0.000963
-0.088366
-0.046181
0.027076
-0.015642
-0.006514
-0.002748
-0.012771
-0.006154
-0.058311
-0.029699
-0.046314
-0.016133
0.012379
-0.077859
-0.052680
0.072435
0.014894
-0.082081
-0.020803
-0.035873
-0.023635
-0.029415
-0.068757
0.027974
0.040247
0.071428
-0.011691
0.072129
-0.006170
-0.041374
-0.014703
-0.028892
0.080675
-0.076568
-0.060937
0.028249
0.046575
-0.045693
-0.038080
-0.069746
-0.014407
-0.043362
-0.037970
-0.046198
0.024341
0.003802
-0.038854
0.061527
0.007139
0.037981
-0.002999
0.035665
-0.056116
0.010227
0.008675
0.020916
-0.053201
-0.073997
0.089677
0.001988
0.030812
0.050953
0.023092
-0.009089
-0.027402
0.097951
0.041223
0.122069
0.085956
0.094361
0.026527
0.099062
0.137018
0.127645
0.120527
0.122803
0.144320
0.129713
0.042874
0.248475
0.117343
0.143021
0.091340
0.231825
0.217074
0.209909
0.149000
0.132411
0.119790
0.208339
0.096330
0.194477
0.129538
0.196185
0.095401
0.083188
0.045908
0.138133
0.142504
0.096608
0.005758
0.061523
0.089828
0.015476
-0.000897
0.050714
0.057991
-0.013569
0.049659
0.105300
-0.023333
0.020925
0.055827
0.053797
0.062875
-0.020373
0.001799
0.053799
-0.101083
-0.015090
0.041816
0.019919
0.120673
0.005699
-0.015040
-0.041535
-0.006786
-0.040380
0.030138
0.126683
0.433188
0.737054
1.057487
1.322560
1.394941
1.430527
1.203410
0.960430
0.541814
0.233781
-0.006948
-0.180820
-0.236525
-0.245046
-0.259895
-0.008639
-0.078195
-0.081934
0.069441
-0.033191
0.045541
-0.017767
-0.017961
-0.015693
-0.003675
0.052447
0.154700
0.125962
0.078781
0.057382
0.046680
0.058841
0.049610
0.029925
0.177678
0.071162
0.117600
0.091903
0.067809
0.103412
0.152989
0.147298
0.183024
0.253482
0.100062
0.276690
0.233609
0.339872
0.235322
0.267893
0.263558
0.361146
0.303438
0.360495
0.356162
0.431638
0.451095
0.470566
0.407376
0.424955
0.525211
0.566009
0.498344
0.552873
0.545404
0.645037
0.526635
0.547154
0.597104
0.603018
0.549913
0.557597
0.497693
0.498108
0.516705
0.477355
0.527952
0.412517
0.389542
0.450393
0.406096
0.362346
0.388300
0.286698
0.311766
0.340690
0.296936
0.228004
0.211830
0.191975
0.248804
0.160813
0.204610
0.175961
0.201102
0.193002
0.137100
0.144641
0.150324
0.101153
0.136946
0.081663
0.054948
0.065493
0.010863
0.112975
0.097396
0.132915
0.087283
0.026721
0.037849
0.036146
0.060769
0.037786
-0.108111
0.125179
-0.033508
0.059711
0.066122
0.085118
0.005538
0.032601
0.096727
0.119971
-0.049652
0.083016
0.039248
-0.009906
0.006385
0.069853
0.038475
0.055346
0.091303
0.038789
0.090215
-0.013237
0.086135
-0.020026
0.095753
0.048436
0.020221
-0.107170
0.056850
-0.062949
0.024920
0.086503
0.105034
-0.058319
0.016591
-0.055097
0.102963
-0.052972
-0.009009
0.008568
0.067104
0.029812
0.003134
0.002058
0.015645
0.109173
0.159367
0.124327
0.097708
0.036220
0.019922
-0.005801
0.035040
0.079935
-0.010191
0.050995
-0.017528
0.002576
0.100813
0.026891
-0.001743
0.066052
0.020128
0.108965
0.039946
0.055946
-0.034675
-0.028928
0.096317
0.052753
-0.025097
0.098363
0.060619
0.066733
0.102463
0.039265
0.054418
0.007519
-0.024587
-0.000275
0.120932
0.136129
0.115502
0.132258
0.113461
0.146597
0.115895
0.192474
0.190621
0.100160
0.229221
0.099269
0.314398
0.215750
0.229895
0.131200
0.166703
0.257644
0.213176
0.150944
0.190306
0.096113
0.053241
0.042219
0.084414
0.102172
0.051655
0.141693
0.095303
0.081057
0.010037
0.018974
0.048247
0.016779
-0.006499
-0.085356
0.084446
0.002501
0.041404
0.032863
0.086663
0.012218
0.000991
-0.039604
-0.015025
-0.019350
-0.018689
0.002459
0.012979
-0.058060
0.036066
-0.072860
-0.038927
-0.070895
-0.013913
-0.100638
-0.092577
-0.071785
-0.063587
0.000953
0.192729
0.588945
0.995679
1.175695
1.394128
1.383323
1.167636
0.941231
0.633439
0.294752
-0.067102
-0.226991
-0.303337
-0.383033
-0.294519
-0.230710
-0.125045
-0.077126
-0.077714
-0.036137
-0.071951
0.048642
-0.064412
-0.007790
-0.134200
0.011535
-0.058815
-0.128790
-0.108143
-0.017431
-0.079177
0.048064
-0.124243
0.058590
0.003963
0.006021
0.011998
-0.025946
0.056546
0.035544
0.021992
0.060020
0.063684
0.120124
0.149017
0.089192
0.210067
0.162871
0.119420
0.111791
0.259970
0.249461
0.204484
0.228594
0.304109
0.246921
0.329482
0.260619
0.406627
0.393605
0.338208
0.359602
0.435038
0.441185
0.416634
0.443188
0.454591
0.462577
0.461707
0.424070
0.399851
0.416705
0.472988
0.416403
0.390731
0.393069
0.414123
0.351467
0.385587
0.308903
0.214159
0.326781
0.255717
0.228805
0.244208
0.219837
0.155145
0.239140
0.198684
0.097283
0.130317
0.058360
0.121010
-0.003323
0.047221
0.057989
0.051615
-0.044298
0.020724
-0.013784
-0.011179
-0.101944
-0.013379
0.082641
-0.059574
-0.050723
-0.045559
-0.072343
-0.030664
-0.038800
-0.073924
-0.071624
0.047070
-0.041690
-0.036286
-0.005544
-0.112938
-0.156428
-0.098599
-0.098733
-0.100827
-0.092902
-0.057994
-0.048922
-0.091219
-0.135949
-0.078615
-0.003760
-0.105330
-0.032788
-0.157358
-0.083358
-0.099955
-0.153230
-0.007124
-0.123933
-0.165601
-0.077111
-0.114167
-0.097518
-0.009837
-0.032202
-0.151375
-0.015098
-0.090578
-0.143403
-0.117466
-0.081312
-0.087498
-0.113306
-0.124154
-0.173265
-0.036283
-0.136426
-0.066679
-0.085646
-0.098092
-0.074090
-0.036612
-0.134342
-0.125932
-0.017988
-0.121689
-0.155807
-0.155440
-0.158629
-0.025867
-0.047130
-0.076898
0.013442
0.009613
-0.122827
-0.114787
-0.054762
-0.073853
-0.089673
-0.072263
-0.055750
-0.146026
-0.143953
-0.153168
-0.035975
-0.093362
-0.099316
-0.081928
-0.047844
-0.045277
-0.028378
-0.110047
-0.039139
-0.012579
0.053493
-0.028325
-0.068913
-0.001775
0.020776
-0.033209
0.027135
-0.009762
-0.034893
-0.006736
0.009925
0.148587
0.003175
0.010056
0.050047
0.059996
0.239719
0.058887
0.079327
0.133089
0.170235
0.063528
0.065358
0.026317
0.105051
0.039913
0.049635
-0.006860
0.052493
-0.043736
-0.017711
-0.051409
-0.005199
-0.139442
-0.131272
-0.025945
-0.024628
-0.164907
-0.095119
-0.053653
-0.112030
-0.094314
-0.034752
-0.056611
-0.073905
-0.163614
-0.065663
-0.124445
-0.091347
-0.088532
-0.021426
-0.075678
-0.044835
-0.092438
-0.038712
-0.171517
-0.126705
-0.115411
-0.088058
-0.094280
-0.131428
-0.116639
-0.104684
0.160135
0.417391
0.756921
1.111634
1.291225
1.352408
1.206014
0.939175
0.589053
0.201541
-0.043298
-0.214318
-0.378174
-0.380556
-0.359691
-0.365257
-0.150245
-0.172535
-0.085542
-0.015375
-0.083238
-0.035124
-0.076668
-0.148515
-0.097947
-0.084087
-0.121660
-0.031575
-0.035076
-0.103888
-0.030486
-0.087956
0.062617
-0.008981
-0.052244
-0.043459
0.033273
0.043208
-0.022768
0.001185
0.041731
0.132678
0.068392
0.096119
0.110074
0.103279
0.121303
-0.000672
0.148961
0.137852
0.136100
0.199245
0.204827
0.196313
0.224132
0.261581
0.219600
0.234068
0.314942
0.379088
0.370515
0.413088
0.340197
0.405871
0.379823
0.479966
0.491096
0.454512
0.433685
0.444937
0.443815
0.395521
0.384573
0.423713
0.448970
0.408555
0.445558
0.343496
0.330430
0.353508
0.312786
0.295402
0.325800
0.237820
0.218296
0.178999
0.255572
0.137019
0.152544
0.147374
0.167517
0.064129
0.038106
0.122824
0.074349
-0.012718
-0.060906
0.071557
0.023342
-0.081383
0.000026
-0.092681
0.035918
0.117314
-0.077837
0.021161
-0.025863
-0.045049
-0.000714
0.018465
-0.032391
-0.044743
0.023091
-0.064769
-0.011203
-0.050795
-0.059043
-0.051497
-0.064788
0.061921
-0.031331
-0.126622
0.031049
-0.029819
-0.053447
-0.047011
-0.075401
-0.031698
-0.031302
0.010203
-0.056234
-0.063014
-0.038242
-0.067978
-0.015063
-0.112253
0.004301
-0.035063
-0.016309
0.098366
-0.048991
-0.027929
-0.006092
0.002578
-0.037270
0.003129
-0.002494
-0.009637
-0.085356
-0.081859
0.047245
-0.002114
-0.121458
0.111019
0.008531
0.033604
0.051268
-0.023470
0.044682
0.009156
-0.003345
-0.043881
0.070218
-0.047421
0.043073
-0.060297
-0.001856
-0.039513
-0.046223
0.035483
-0.010069
0.066160
0.012976
-0.052385
0.049509
-0.010075
0.077494
0.084369
0.019211
-0.050111
0.040141
0.058665
0.035719
0.069465
0.002676
0.054983
0.052027
0.058412
0.104578
0.066012
-0.015720
0.040131
0.064588
0.080247
0.092274
0.126769
0.111931
0.053774
0.133580
0.063056
0.136718
0.180131
0.197195
0.119839
0.088126
0.166593
0.077560
0.200515
0.220471
0.154103
0.228791
0.139905
0.151357
0.155186
0.167128
0.236743
0.204938
0.225187
0.102466
0.098946
0.099900
0.166959
0.087187
-0.000260
0.149227
0.071654
0.056461
0.068981
0.039397
0.059839
0.050063
0.111223
0.080190
0.122349
0.039536
0.006428
-0.030170
0.111179
-0.041129
0.024369
0.056493
0.027688
0.116981
0.034787
0.034386
0.026390
0.021282
-0.016653
0.034362
0.009482
-0.024722
0.002906
-0.070583
0.018105
0.230008
0.571335
0.853687
1.102171
1.416294
1.483356
1.332291
1.145500
0.770194
0.403688
0.178648
-0.021046
-0.244233
-0.236898
-0.221722
-0.202280
-0.085047
0.017148
-0.001199
0.125991
0.082419
0.029021
0.012403
0.168507
0.108715
0.058590
0.060669
0.138874
0.034561
0.018302
0.089479
0.072111
0.098938
0.057396
0.102415
0.118367
0.146802
0.113664
0.161821
0.113638
0.160775
0.171256
0.212655
0.191694
0.070998
0.199689
0.297886
0.307209
0.312000
0.239116
0.246569
0.312115
0.305150
0.367161
0.435906
0.398704
0.428040
0.468796
0.456878
0.547144
0.515841
0.499402
0.495370
0.580268
0.556157
0.570680
0.574674
0.561506
0.525803
0.559635
0.663313
0.585077
0.653148
0.568900
0.525138
0.507865
0.480087
0.570605
0.438158
0.477851
0.460322
0.398463
0.487983
0.435264
0.364839
0.321491
0.293131
0.314150
0.282041
0.206532
0.248999
0.294980
0.170861
0.228515
0.295726
0.126184
0.184616
0.190112
0.162821
0.153937
0.112263
0.224312
0.136322
0.093755
0.089872
0.131836
0.122229
0.077285
0.042317
0.106709
0.079158
0.147741
0.010768
0.038163
-0.002296
