-0.070714
0.037804
-0.012820
0.107984
0.050728
-0.005746
0.055825
0.026633
0.034234
-0.005146
0.017779
0.005936
0.018461
-0.019541
0.007711
0.063574
-0.028818
0.037442
0.031302
0.011182
-0.072895
0.115157
0.000858
-0.002002
0.053085
-0.039266
0.015770
0.023641
-0.008300
0.006223
0.077553
-0.039126
0.056775
0.056249
0.050323
0.102705
0.102245
0.085417
0.091511
0.033467
0.027142
0.071583
0.126208
0.064764
0.101710
0.120558
0.121702
0.163249
0.147338
0.278832
0.184978
0.152119
0.257296
0.215937
0.148773
0.244619
0.209248
0.202603
0.187217
0.235381
0.177294
0.154532
0.197561
0.126006
0.094573
0.091184
0.178369
0.142443
0.161622
0.147547
0.137637
0.135485
0.146120
0.075307
0.132548
0.080676
0.077741
0.047707
0.048002
0.048754
0.004478
0.024378
0.112400
0.104624
0.035800
0.054987
0.049776
0.010540
0.066823
0.071107
-0.005611
0.117265
0.139054
0.050152
-0.031155
0.142096
0.038000
0.075442
0.055803
0.142718
-0.047431
-0.025133
0.010047
-0.019368
-0.060851
0.029513
0.220869
0.429242
0.756251
1.120406
1.278676
1.439631
1.371406
1.220846
0.948112
0.581729
0.387879
0.064726
-0.211451
-0.224838
-0.214338
-0.216752
-0.201711
-0.034363
0.011084
0.002341
0.044358
0.063004
0.015665
0.073657
0.046316
0.067186
-0.002170
-0.018447
0.145315
0.025812
0.098918
0.096846
0.083105
0.046094
0.115390
0.082353
0.150151
0.134648
0.079353
0.108114
0.088871
0.116895
0.131410
0.127845
0.102926
0.164864
0.145429
0.183789
0.194512
0.180535
0.256317
0.147815
0.164522
0.220534
0.315794
0.265349
0.263877
0.464985
0.357398
0.368696
0.371195
0.416816
0.441402
0.497253
0.449668
0.494309
0.539400
0.516822
0.568119
0.480531
0.642822
0.593243
0.572951
0.547873
0.670225
0.602126
0.582057
0.583697
0.577641
0.534498
0.596552
0.553644
0.572798
0.497308
0.469196
0.422070
0.392682
0.394119
0.506595
0.336356
0.477656
0.335747
0.362383
0.303669
0.261016
0.233505
0.244161
0.159049
0.192946
0.189576
0.169926
0.148720
0.150767
0.161176
0.134437
0.213088
0.157990
0.202121
0.121249
0.168939
0.192663
0.074493
0.126054
0.074869
0.061381
0.070819
0.087413
0.104393
0.052120
0.131605
0.136684
0.003018
0.049021
0.054599
0.039941
0.107591
0.033933
0.106301
0.064086
0.052370
0.133534
0.102733
0.053992
-0.014399
0.095326
0.058704
0.069205
0.069975
0.088183
0.161184
0.137997
0.101135
0.036501
0.041739
0.055068
0.079718
0.136233
0.067719
0.068236
0.056542
0.047698
0.053419
0.071630
0.067522
0.095380
0.105227
0.053016
0.033739
0.053270
0.065729
0.006440
0.074856
0.004119
0.037197
0.090689
0.037551
0.065203
0.066890
0.075543
0.119318
0.045613
-0.005192
0.028197
0.024811
0.133830
0.044211
0.013882
0.080679
0.119030
0.139831
0.068739
0.016350
0.051303
-0.001971
0.030724
0.069898
0.107771
0.090833
0.086939
0.096935
0.092401
0.053919
0.192554
0.091783
0.032724
0.060525
0.066308
0.039432
0.087781
0.131867
0.092818
0.140832
0.100875
0.121874
0.038431
0.082083
0.050018
0.156254
0.066930
0.079863
0.106066
0.124784
0.111274
0.179374
0.089440
0.096850
0.220448
0.234798
0.088668
0.195156
0.181568
0.203343
0.224985
0.171507
0.320157
0.230648
0.261527
0.253326
0.188628
0.252193
0.236342
0.285151
0.200478
0.231022
0.073637
0.184965
0.208641
0.100400
0.185023
0.198104
0.152868
0.134000
0.130013
0.027283
0.124413
0.086376
0.034598
0.064026
0.047964
0.094164
0.106329
0.057833
0.133200
0.074945
0.029408
-0.027440
0.072738
0.105478
0.030351
0.001262
0.103977
0.128893
0.031188
0.046804
0.062641
0.090589
0.035716
0.047708
-0.012944
0.066502
0.025465
-0.013472
-0.004925
-0.021765
0.023706
-0.059100
-0.174112
-0.010731
0.279815
0.521442
0.845217
1.142998
1.326232
1.397687
1.350234
1.103522
0.776495
0.509587
0.256568
-0.041892
-0.253681
-0.313765
-0.308672
-0.277063
-0.236344
-0.065209
-0.084362
-0.039607
-0.001126
-0.041471
-0.042137
0.012261
-0.026883
0.002147
0.015944
0.083652
-0.071159
0.006657
0.005518
-0.073762
0.037560
0.018984
0.023724
0.080559
-0.008223
0.020095
0.037672
-0.011994
-0.033794
0.075444
0.040508
0.075462
0.052173
-0.026950
0.126180
0.109950
0.015592
0.105607
0.122477
0.152902
0.111188
0.131549
0.158598
0.212780
0.219858
0.358517
0.262162
0.229122
0.244585
0.347974
0.338098
0.325984
0.363682
0.500311
0.437111
0.462223
0.352478
0.447834
0.473738
0.432029
0.526862
0.470388
0.377937
0.406251
0.542746
0.497966
0.456435
0.432185
0.496442
0.425500
0.384132
0.372931
0.426947
0.326536
0.384972
0.396141
0.334174
0.245770
0.197503
0.209973
0.160461
0.163790
0.257082
0.106223
0.116855
0.099758
0.141200
0.131376
0.127951
0.058118
0.099171
0.083173
0.030152
-0.000272
0.087127
0.063790
0.033538
0.004852
0.025507
0.060853
-0.063152
-0.030955
0.007952
0.034885
0.008271
0.056621
-0.108786
0.034649
-0.010579
-0.065702
-0.007648
-0.026634
-0.060491
-0.017961
-0.017971
0.032608
-0.010686
-0.082025
-0.000689
-0.050182
-0.093165
0.037822
-0.052967
-0.042614
-0.006912
-0.050267
-0.030145
-0.032669
-0.075469
-0.022177
-0.066447
-0.118764
-0.069643
-0.018629
0.017201
-0.026792
-0.037637
-0.010467
0.002198
0.004829
-0.052122
-0.039577
0.015658
-0.034395
-0.065808
0.011088
-0.045368
-0.136165
-0.017676
-0.073367
-0.081951
-0.074412
-0.133197
-0.029191
-0.052697
-0.055107
-0.100062
-0.068706
-0.060787
0.008907
-0.047112
-0.012082
-0.112425
0.003411
-0.020725
-0.074118
0.010684
0.000000
0.000000
0.000000
0.000000
0.000000
0.000000
0.000000
0.000000
0.000000
0.000000
0.000000
0.000000
0.000000
0.000000
0.000000
0.000000
0.000000
0.000000
0.000000
0.000000
0.000000
0.000000
0.000000
0.000000
0.000000
0.000000
0.000000
0.000000
0.000000
0.000000
0.000000
0.000000
0.000000
0.000000
0.000000
0.000000
0.000000
0.000000
0.000000
0.000000
0.000000
0.000000
0.000000
0.000000
0.000000
0.000000
0.000000
0.000000
0.000000
0.000000
0.000000
0.000000
0.000000
0.000000
0.000000
0.000000
0.000000
0.000000
0.000000
0.008167
0.080741
0.005384
0.009360
-0.016115
0.002976
-0.025255
0.033450
-0.044558
-0.014400
-0.011478
-0.010702
-0.041078
-0.027593
-0.000312
-0.012573
-0.007367
-0.083579
-0.081978
0.049077
-0.097980
0.069126
-0.171586
-0.005856
-0.039595
-0.025526
-0.072447
-0.015173
0.058973
0.006476
-0.108687
-0.015452
-0.110325
-0.108851
0.019850
-0.089407
-0.135860
-0.157514
-0.132500
0.030434
0.185889
0.519316
0.809375
1.113808
1.338372
1.376404
1.245406
1.064391
0.690394
0.401422
0.105039
-0.129813
-0.292410
-0.316476
-0.369511
-0.235877
-0.248707
-0.133319
-0.113843
0.041142
-0.075922
-0.018648
0.056240
0.004036
0.027476
0.019352
0.031495
-0.021552
-0.018438
0.004725
-0.061150
0.096633
-0.042847
0.043141
0.019604
-0.057664
-0.024114
0.070912
0.017810
0.009312
-0.022622
0.047138
-0.049108
0.067259
0.114412
0.067902
0.043594
0.136424
0.075151
0.082163
0.175731
0.176133
0.145873
0.154010
0.133361
0.184947
0.295691
0.281026
0.210430
0.281580
0.237093
0.314701
0.336449
0.392974
0.378598
0.502273
0.450034
0.402108
0.498712
0.426744
0.498913
0.476023
0.477310
0.459830
0.573472
0.589070
0.506627
0.457893
0.484998
0.477332
0.423151
0.542669
0.502319
0.411270
0.395114
0.372568
0.306279
0.405545
0.335834
0.322844
0.266868
0.312717
0.256926
0.213253
0.234911
0.266860
0.181725
0.202241
0.154638
0.233286
0.181225
0.197109
0.107561
0.025753
0.061037
0.142416
0.057226
0.034807
0.072935
0.047677
-0.039571
0.009868
0.088043
-0.014292
0.099262
0.109140
0.080316
0.047934
0.077726
0.068440
0.048401
0.106566
0.024185
0.090846
0.058405
0.089123
0.041345
0.110200
0.097471
0.088717
0.051280
0.030993
0.019151
0.012787
0.053175
0.087260
0.023149
-0.061164
0.056335
0.091718
0.072214
0.026636
0.120970
0.101236
0.068506
0.115295
0.044888
0.085839
0.023201
0.059887
0.121814
0.072333
0.136755
0.066334
0.037544
0.116218
0.102106
0.040401
0.070924
0.096028
0.081934
0.035646
0.011077
0.036472
0.093646
0.121221
0.055273
0.082380
-0.020333
0.125677
-0.009949
0.088569
0.066566
0.097519
0.050572
0.084686
0.037411
0.133129
0.047909
0.051466
0.160836
0.037901
0.040050
0.077294
0.117854
0.121541
0.037750
0.092606
0.100970
0.100088
0.005197
0.056596
0.099904
0.090867
0.126286
0.015616
0.036465
0.109503
0.047863
0.060652
0.054422
0.040275
0.017805
0.080082
0.115085
0.091293
0.104998
0.057839
0.113625
0.131498
0.148788
0.111859
0.161226
0.185831
0.189151
0.246321
0.237312
0.171905
0.152297
0.153457
0.175373
0.235088
0.211933
0.183958
0.327400
0.311610
0.240605
0.262397
0.316916
0.269344
0.224611
0.207978
0.216826
0.285533
0.259144
0.153262
0.181608
0.172493
0.122126
0.128027
0.078628
0.175577
0.169746
0.146001
0.156068
0.130772
0.116132
0.182682
0.092146
0.087231
0.076880
0.111673
0.068581
0.220647
0.050019
0.101789
0.054188
0.076967
0.033972
0.086213
0.080778
0.048626
0.119847
0.027866
0.115194
0.099648
0.024379
0.131238
0.195110
0.161127
0.070195
0.073833
0.036754
0.100674
0.033225
0.054373
0.020676
0.214841
0.341398
0.681550
0.929716
1.296223
1.500000
1.486682
1.326348
1.092931
0.666036
0.419179
0.127971
-0.068606
-0.245365
-0.283948
-0.283460
-0.135200
-0.088926
-0.031226
0.027530
0.023099
0.169820
0.082428
0.130106
0.106430
0.090718
0.107562
0.103235
0.102580
0.141629
0.085708
0.055281
0.175518
0.028040
0.124982
0.191883
0.128288
0.180575
0.042630
0.116467
0.114899
0.106418
0.174160
0.161102
0.153595
0.182235
0.127890
0.218753
0.232393
0.233514
0.227392
0.177604
0.235741
0.266961
0.330498
0.317956
0.319309
0.262124
0.281655
0.411061
0.425556
0.329536
0.438849
0.414598
0.363197
0.508519
0.555350
0.438675
0.566110
0.538192
0.530247
0.559218
0.640971
0.582652
0.548521
0.620647
0.591052
0.550016
0.563637
0.565245
0.566853
0.591786
0.572508
0.490165
0.542576
0.528622
0.413846
0.345994
0.448107
0.323225
0.430283
0.419831
0.363837
0.322879
0.387989
0.284414
0.211307
0.204917
0.197239
0.184761
0.168965
0.223924
0.118303
0.075459
0.156595
0.096184
0.078605
0.105416
0.096695
0.080159
0.050250
0.039590
0.090194
0.108443
0.097222
0.074662
0.021943
0.032811
0.078665
0.112706
0.071144
0.021124
0.098302
0.046892
0.059525
0.101492
0.073815
0.062536
0.058993
0.089082
0.077846
0.103342
0.127762
0.113925
0.022806
0.106308
0.031851
0.102231
0.031687
0.111992
0.086549
-0.026673
0.083963
0.071740
-0.006592
0.037887
0.030933
0.033554
0.059876
0.097926
0.041130
-0.007153
0.000307
-0.033594
0.031480
0.030686
0.142532
0.107689
0.010781
0.021194
0.040410
0.030022
0.051049
0.014339
0.014526
-0.002307
0.032781
0.001916
0.131827
0.011406
0.014026
0.063599
0.092573
0.066392
0.059816
0.014061
-0.007950
0.045347
0.079193
0.052058
-0.004295
0.019191
0.026457
-0.058455
0.006240
0.062318
-0.027085
0.015783
-0.009291
0.021232
-0.010430
0.059549
0.024732
-0.022126
0.002688
-0.016361
0.004823
-0.018337
0.051815
0.053716
0.088405
0.046980
-0.029394
0.008325
-0.001564
-0.045378
-0.019742
0.085369
0.021844
-0.005338
0.037104
0.022268
0.073574
0.004693
0.085873
0.080948
0.076465
0.038981
0.129702
0.112139
0.069042
0.120360
0.059384
0.172760
0.156099
0.076389
0.143993
0.222946
0.170396
0.172325
0.200020
0.145924
0.188805
0.216328
0.128521
0.090139
0.154074
0.102060
0.089523
0.044420
0.039256
0.050999
0.119642
0.002097
-0.157300
0.059525
0.007541
-0.044449
-0.053751
0.010572
-0.008924
-0.058466
-0.074955
-0.057433
-0.032929
-0.062247
-0.057901
-0.001288
-0.049141
-0.081682
-0.037354
0.039712
0.015636
-0.071402
-0.095862
-0.077764
-0.043014
-0.104086
0.083036
-0.015010
-0.041781
-0.028136
-0.054204
-0.128286
-0.038549
-0.128521
-0.135484
-0.113959
0.021035
0.252589
0.576996
0.948305
1.263441
1.266205
1.286397
1.117426
0.868237
0.580997
0.240283
-0.038148
-0.268480
-0.380062
-0.399603
-0.390826
-0.318863
-0.149278
-0.076026
-0.126274
-0.014598
-0.068682
-0.095392
-0.048134
-0.088999
-0.099682
-0.048298
-0.107829
-0.053631
-0.087392
-0.105454
-0.085593
-0.057804
-0.042914
-0.114088
-0.007665
0.010204
-0.042282
-0.119078
-0.069084
0.030646
-0.081449
-0.040032
-0.087708
-0.037810
0.064096
-0.013640
0.014727
-0.013408
0.017583
-0.007625
0.190160
0.038491
0.095980
0.213488
0.136959
0.147322
0.276166
0.207278
0.245464
0.238170
0.188087
0.286365
0.341409
0.371238
0.343048
0.366927
0.357803
0.435819
0.366939
0.390201
0.456152
0.423748
0.384839
0.413844
0.426293
0.359925
0.415153
0.375221
0.455252
0.375838
0.438292
0.374133
0.397219
0.299271
0.254315
0.282049
0.254954
0.224468
0.188898
0.167453
0.197425
0.243715
0.173569
0.154807
0.099932
0.081168
0.052825
0.053669
0.111874
0.056526
0.093473
0.044142
0.088689
0.010946
-0.032592
-0.077865
-0.028185
0.060564
-0.055070
0.046466
-0.106896
-0.052764
-0.103072
-0.008891
-0.048221
-0.085071
-0.060363
-0.101358
-0.065228
-0.091834
-0.062332
-0.083368
-0.080135
-0.104993
-0.023397
-0.028787
-0.032955
-0.072637
0.003957
-0.071173
-0.027574
-0.088971
-0.088265
-0.013291
-0.067285
-0.058646
-0.033309
-0.170053
-0.041336
-0.045968
-0.061598
-0.067994
-0.025846
-0.080731
-0.094267
-0.131101
-0.076100
-0.034137
-0.078703
-0.134587
-0.067235
-0.067313
-0.065889
-0.121919
-0.136281
-0.075417
-0.014526
-0.056412
-0.046667
-0.064482
-0.086729
-0.085692
-0.071888
-0.050807
-0.039946
-0.095177
-0.021789
-0.040472
-0.059059
-0.089643
-0.101371
-0.059175
0.000406
-0.036676
-0.065610
-0.107396
-0.101698
-0.100789
-0.119576
-0.056168
-0.089363
-0.034371
-0.088381
-0.013690
-0.030853
-0.107156
0.052811
-0.044053
-0.097462
-0.095494
-0.065894
-0.018403
-0.101644
-0.062678
-0.063087
-0.100532
-0.132786
-0.088027
-0.038815
-0.040597
-0.043547
-0.002983
0.008565
-0.108448
-0.134572
-0.125611
-0.047031
-0.025279
0.085315
0.004573
-0.066610
0.055444
0.029968
0.088344
0.071760
0.055460
0.004414
0.052354
0.003662
0.124627
0.148213
0.106767
0.081479
0.159825
0.126221
0.082250
0.164361
0.117646
0.065654
0.148241
0.091069
0.085760
0.074315
0.075717
0.056021
0.037973
0.078928
0.012426
0.036480
0.065418
0.021250
-0.007682
-0.036133
0.011332
0.076651
0.007198
0.006355
0.003328
0.011519
-0.014557
-0.084548
-0.068289
0.000650
0.028790
-0.087072
0.025920
-0.002317
-0.110333
0.089043
0.016293
-0.086706
-0.025509
-0.128152
-0.040830
-0.002477
-0.117337
0.000548
-0.055878
-0.046200
-0.089542
-0.018452
0.023374
-0.044890
-0.096806
-0.242439
-0.127652
0.073547
0.213421
0.416502
0.737283
0.956709
1.237770
1.273952
1.343811
1.080894
0.810571
0.471960
0.114921
-0.094982
-0.228272
-0.354545
-0.315939
-0.342919
-0.315744
-0.114144
-0.098415
-0.049538
-0.005612
-0.027566
-0.077079
-0.077811
-0.006985
-0.013848
-0.027621
-0.002385
-0.003179
-0.019040
-0.040314
0.000774
0.060893
-0.057496
0.015636
-0.029154
-0.007396
0.018850
0.032066
0.041391
-0.005472
0.038931
0.023107
0.057574
0.023213
0.091733
0.042889
0.075780
0.120180
0.087330
0.151763
0.169499
0.142962
0.139137
0.293818
0.206111
0.246869
0.252088
0.246180
0.215722
0.324495
0.337105
0.403437
0.339883
0.358208
0.361821
0.405175
0.524326
0.445811
0.438830
0.501709
0.438058
0.553143
0.445955
0.468235
0.559390
0.612666
0.544767
0.457366
0.517434
0.429004
0.424048
0.379674
0.497131
0.337899
0.384334
0.365270
0.366262
0.331858
0.298179
0.378546
0.275129
0.270109
0.236743
0.191934
0.147866
0.169346
0.177694
0.164296
0.142144
0.124784
0.095681
0.195520
0.120407
0.082265
0.103338
0.063477
0.085428
0.105630
0.025972
0.004048
0.085286
0.021466
-0.006544
-0.032564
0.030139
0.082160
0.075711
0.052854
0.007730
0.029513
0.087418
0.066361
-0.020701
0.050534
0.057190
0.019095
-0.007409
0.152352
0.044366
-0.003580
-0.003461
0.122322
0.064946
0.061075
0.058917
-0.016758
0.052303
0.085557
0.036561
0.016704
0.069834
0.099130
0.056515
-0.012953
0.057846
0.099973
0.067545
0.056790
0.012228
0.067049
0.094693
0.074563
-0.011693
0.031703
0.040210
0.136971
0.089475
0.021008
0.098773
-0.034750
-0.012264
0.026986
0.139044
-0.005076
-0.014099
-0.011646
0.014856
0.056977
0.003480
0.062924
0.093097
-0.009734
0.050865
0.114205
0.105822
0.015696
0.013595
0.039408
0.038317
-0.010691
0.041225
0.050792
0.055014
-0.015838
-0.003864
0.035300
0.072119
0.030561
0.007790
0.048994
0.013513
0.120923
-0.024271
0.091813
-0.055659
0.034101
0.086453
0.013848
0.034708
0.069484
0.083092
0.045258
0.084151
-0.013636
0.093670
0.091820
0.000000
0.000000
0.000000
0.000000
0.000000
0.000000
0.000000
0.000000
0.000000
0.000000
0.000000
0.000000
0.000000
0.000000
0.000000
0.000000
0.000000
0.000000
0.000000
0.000000
0.000000
0.000000
0.000000
0.000000
0.000000
0.000000
0.000000
0.000000
0.000000
0.000000
0.000000
0.000000
0.000000
0.000000
0.000000
0.000000
0.000000
0.000000
0.000000
0.000000
0.000000
0.000000
0.000000
0.000000
0.000000
0.000000
0.000000
0.000000
0.000000
0.000000
0.000000
0.046915
0.038807
0.135428
-0.025889
0.045683
0.013454
0.056195
0.033793
0.066231
0.079793
0.063221
0.025899
0.033927
0.077037
0.055909
0.055658
-0.059995
-0.071885
-0.068190
0.114112
0.245894
0.621526
0.814097
1.112627
1.275272
1.443676
1.299277
1.078169
0.748820
0.571757
0.206700
-0.111088
-0.109079
-0.317674
-0.257570
-0.245040
-0.162972
-0.083831
-0.025877
-0.025983
-0.016335
0.015983
0.069132
0.058836
-0.058992
0.023983
0.016997
-0.014731
-0.038947
0.096325
0.023325
0.018588
0.043683
0.076293
0.000646
0.139541
0.136808
-0.021065
0.062239
0.023539
-0.004795
0.079078
0.052901
0.074979
0.090611
0.040808
0.071499
0.159127
0.143524
0.067820
0.089861
0.175906
0.149835
0.257537
0.215295
0.224958
0.212975
0.279186
0.289259
0.278587
0.255138
0.310762
0.330518
0.442946
0.371622
0.397318
0.446788
0.513303
0.452326
0.433441
0.470671
0.471634
0.528208
0.518953
0.484714
0.530590
0.412484
0.575142
0.484285
0.520517
0.506897
0.401547
0.458017
0.469911
0.383593
0.345633
0.343910
0.304445
0.332866
0.323139
0.288975
0.248229
0.211607
0.200457
0.157014
0.184665
0.156579
0.102847
0.179032
0.126106
0.066655
0.089937
0.057983
0.018033
0.015589
-0.020874
-0.017449
0.024006
0.042218
0.069993
0.041124
0.007880
-0.038206
-0.015099
0.044060
0.039987
-0.052013
-0.072634
-0.061218
-0.113104
0.016569
-0.002062
-0.056407
-0.089905
-0.019259
0.006265
-0.031372
-0.074654
-0.017639
-0.029929
-0.084265
-0.106590
-0.000992
0.037886
-0.060863
0.024001
-0.010073
-0.106969
-0.100436
-0.016961
-0.125239
-0.056928
-0.132950
-0.064654
-0.124759
-0.039515
-0.016408
-0.038789
-0.102588
-0.077904
-0.122499
-0.034488
0.004778
0.012425
-0.001958
-0.029422
-0.092197
-0.032877
-0.019361
-0.100164
0.005443
0.010722
-0.064349
0.060660
-0.070892
-0.030977
-0.033998
-0.140369
-0.074123
0.011761
-0.089988
-0.036054
-0.116968
0.003522
-0.031509
-0.081217
-0.031986
-0.050313
-0.104678
-0.073933
-0.049974
-0.065056
-0.040975
-0.029778
-0.073966
-0.132597
-0.077033
-0.055835
-0.067347
-0.040253
-0.148528
-0.038280
-0.119454
-0.016935
-0.121254
-0.137363
-0.086056
-0.055694
-0.102954
-0.098944
-0.067141
-0.089146
-0.093841
-0.083147
-0.081645
-0.074115
-0.027336
-0.067711
0.001993
-0.003077
-0.039641
-0.065822
-0.082186
0.010164
-0.009710
0.014941
-0.020005
0.031230
0.062925
0.116889
-0.035679
0.049767
0.019718
0.067713
0.092799
0.058514
0.008123
0.138428
0.100648
0.040069
0.102253
0.033935
0.121735
0.021647
0.049770
0.054338
0.095485
0.024480
0.006202
-0.010302
0.012752
0.002516
-0.050369
0.026851
-0.086738
-0.064685
-0.114359
-0.108453
-0.103283
-0.035498
-0.040789
-0.083392
-0.083658
-0.117386
-0.064759
-0.093038
-0.203101
-0.094239
-0.124489
-0.146188
-0.131243
-0.087029
-0.050821
-0.120276
-0.041943
-0.179606
-0.064563
-0.077262
-0.153201
-0.123869
-0.117263
-0.109744
-0.088579
-0.179265
-0.275494
-0.169766
-0.205054
-0.072594
0.186667
0.419844
0.765085
1.143293
1.327463
1.228322
1.189783
0.887177
0.580961
0.222988
0.000827
-0.185262
-0.381597
-0.412735
-0.459492
-0.365163
-0.219486
-0.145215
-0.113874
-0.078309
-0.110730
-0.175089
-0.094598
-0.080577
-0.135327
-0.087842
-0.147896
-0.045002
-0.083312
-0.083488
-0.030199
-0.094205
-0.076451
-0.120962
-0.106426
-0.078185
-0.044071
-0.026650
-0.052045
-0.116062
-0.032363
-0.082607
-0.038966
-0.074788
0.013398
-0.027695
-0.015958
-0.018403
0.068127
0.020742
0.024374
0.143578
0.146979
0.103482
0.117576
0.106552
0.113355
0.162204
0.237908
0.249498
0.264890
0.184873
0.219579
0.319887
0.280256
0.383823
0.318114
0.357716
0.434982
0.377984
0.394689
0.434277
0.452884
0.422733
0.365458
0.472191
0.387760
0.346139
0.367978
0.457370
0.354059
0.380659
0.398191
0.271020
0.328172
0.232701
0.309291
0.260177
0.213816
0.191464
0.179238
0.237556
0.153673
0.126916
0.041364
0.114300
0.148848
0.073127
0.154615
0.026871
0.012725
-0.004766
-0.034914
-0.074290
-0.036891
-0.004057
-0.010531
-0.103832
-0.044575
-0.008644
-0.076852
-0.128147
-0.094593
0.022759
-0.008308
-0.058215
-0.037827
-0.088789
-0.106350
-0.042719
-0.015410
-0.005185
-0.093298
-0.126744
-0.083760
-0.092694
-0.017273
-0.075709
-0.092612
-0.027834
-0.080000
-0.125603
-0.042834
-0.010206
-0.023925
-0.022240
-0.060266
-0.119165
-0.065088
-0.037068
-0.054742
-0.064175
-0.038643
-0.081826
-0.104193
-0.058014
-0.086884
-0.069628
-0.135878
-0.143178
-0.066056
-0.018719
-0.082837
-0.019502
-0.115725
0.041527
-0.063102
-0.058166
-0.042709
-0.083498
-0.062223
-0.042704
-0.084698
0.009401
0.026592
-0.090115
-0.019275
0.027163
-0.018033
0.005463
-0.010379
-0.061395
-0.003837
-0.097353
0.024106
-0.101889
-0.072351
-0.081568
-0.027197
-0.008784
-0.090728
-0.035347
0.021777
-0.038060
0.012029
-0.063053
-0.080721
-0.002990
-0.027209
0.053706
-0.052560
-0.028950
-0.064121
0.009897
0.024092
-0.016703
-0.032312
-0.055437
-0.130346
-0.029203
-0.066185
-0.039543
0.004681
-0.065713
0.043051
-0.004435
0.008952
0.017530
0.023681
0.055823
-0.024796
0.001273
0.075108
0.110539
0.053916
0.033513
0.008885
0.119072
0.036995
0.152447
0.164868
0.149181
0.112948
0.096405
0.153456
0.124776
0.201081
0.154196
0.132708
0.123750
0.132378
0.168827
0.174536
0.176247
0.098179
0.000000
0.000000
0.000000
0.000000
0.000000
0.000000
0.000000
0.000000
0.000000
0.000000
0.000000
0.000000
0.000000
0.000000
0.000000
0.000000
0.000000
0.000000
0.000000
0.000000
0.000000
0.000000
0.000000
0.000000
0.000000
0.000000
0.000000
0.000000
0.000000
0.000000
0.000000
0.000000
0.000000
0.000000
0.000000
0.000000
0.000000
-0.075055
0.027646
-0.029092
-0.043390
-0.026761
0.126454
0.296778
0.634737
0.949140
1.289811
1.393640
1.420797
1.269176
0.857523
0.654876
0.350847
0.003696
-0.116991
-0.278738
-0.254696
-0.234139
-0.163698
-0.139129
-0.065953
-0.012820
-0.029597
0.054832
0.113331
0.107696
-0.015101
0.046215
0.026192
0.053733
0.049984
0.036435
0.030059
0.057307
0.068531
0.111056
0.010241
-0.004761
0.004567
0.036995
0.082363
0.143092
0.106310
0.098239
0.101166
0.029397
0.065829
0.121474
0.129357
0.085713
0.171690
0.156147
0.163237
0.176121
0.189092
0.207497
0.261021
0.175114
0.255987
0.234199
0.240000
0.251904
0.401991
0.375825
0.483302
0.440680
0.472774
0.463114
0.479310
0.464037
0.503215
0.554133
0.471457
0.506767
0.582188
0.538497
0.520719
0.515721
0.557053
0.496525
0.601620
0.603547
0.521010
0.488350
0.554856
0.489783
0.494751
0.399680
0.521554
0.421551
0.371179
0.336489
0.361286
0.344085
0.340632
0.250830
0.288775
0.250288
0.218733
0.198749
0.272817
0.264110
0.146987
0.163587
0.124295
0.120853
0.128165
0.112648
0.117101
0.114490
0.155156
0.117770
0.109976
0.077513
0.045489
0.131326
0.041684
0.026307
0.082660
0.058878
0.074750
0.112205
0.022277
-0.016653
0.163572
0.099235
0.088850
0.100819
0.021321
0.096814
0.176050
0.079208
0.050543
-0.006912
0.029267
0.123841
0.043306
0.061548
0.051842
0.061857
0.039808
-0.002506
0.003553
0.130982
0.133466
0.025003
0.036969
0.110088
0.049139
0.121731
0.100365
0.098371
0.097973
0.012398
0.095461
0.051833
0.054656
-0.030760
0.121178
0.108514
0.092629
-0.011327
0.092260
0.105425
0.034710
0.012570
0.044659
0.017411
0.079386
0.102227
0.055102
0.049830
0.017951
0.103390
