-0.010844
-0.026304
0.064412
-0.014510
0.018899
-0.013856
0.095227
-0.036504
-0.037434
0.027197
0.064572
0.031281
-0.022266
0.007052
-0.006733
-0.001545
0.077025
0.065043
0.071969
-0.019161
0.055758
-0.012218
-0.017259
0.057998
0.082692
0.002139
0.088287
0.132751
0.067694
0.108521
0.089076
0.128575
0.144841
0.173943
0.070135
0.173867
0.144665
0.192269
0.207507
0.204367
0.220264
0.176503
0.188226
0.300430
0.210677
0.157954
0.172906
0.172739
0.147086
0.196737
0.118279
0.126710
0.073211
0.171664
0.031442
0.076747
0.063372
0.053381
0.087445
0.108330
0.001991
0.061014
0.070091
0.056031
0.066456
0.046370
-0.008870
0.056588
0.031513
-0.079683
-0.043338
0.107102
-0.000748
0.021527
0.174188
0.511402
0.750427
1.056008
1.300403
1.445066
1.342891
1.169020
0.736957
0.316154
0.001292
-0.129053
-0.209492
-0.131414
-0.008777
0.053832
0.029728
0.033850
0.105188
0.109363
0.097514
0.117842
0.124189
0.157460
0.114385
0.146439
0.203784
0.160357
0.146180
0.148898
0.188211
0.271195
0.284595
0.233454
0.226157
0.293791
0.307709
0.306741
0.389306
0.308451
0.432103
0.499739
0.466357
0.436576
0.430671
0.516413
0.417651
0.547481
0.567083
0.481339
0.570664
0.557584
0.557162
0.584526
0.588661
0.647795
0.549328
0.592514
0.580578
0.563688
0.583388
0.597050
0.507467
0.472420
0.589768
0.495335
0.483189
0.417568
0.463764
0.349332
0.405259
0.310874
0.399842
0.335096
0.221688
0.245801
0.287812
0.195401
0.249077
0.312640
0.191254
0.180321
0.241912
0.143472
0.161067
0.133593
0.173306
0.094713
0.143853
0.112849
0.122601
0.135793
0.119902
0.160243
0.048960
0.038536
0.102979
0.121052
0.071247
0.028515
0.023741
0.156295
0.065644
0.065294
0.018478
0.025571
0.080273
0.083306
0.188707
0.153691
0.162426
0.027500
0.101297
0.104650
0.095167
0.144814
0.045043
0.079994
0.169250
0.129800
0.073703
0.069692
0.156843
0.149936
-0.008189
0.130005
0.118103
0.150258
0.120389
0.115473
0.152203
0.141623
0.101091
0.129563
0.101269
0.013197
0.087084
0.152921
0.094274
0.148418
0.155545
0.001617
0.075020
0.186791
0.081309
0.089242
0.091172
0.084343
0.113352
0.182315
0.201302
0.148717
0.066511
0.242697
0.236798
0.270522
0.301248
0.330591
0.184444
0.214715
0.237002
0.250841
0.249574
0.372714
0.240801
0.187219
0.311397
0.245141
0.208671
0.253843
0.220011
0.154814
0.172110
0.203871
0.241494
0.148284
0.160696
0.084225
0.104877
0.143089
0.136284
0.130907
0.145327
0.109529
0.049665
0.087472
0.061400
0.160936
0.087946
0.120609
0.094493
0.135097
0.087143
0.055730
0.092338
0.115710
0.080209
0.205302
0.361286
0.704656
0.931599
1.315426
1.426252
1.479184
1.190808
0.924257
0.515468
0.139039
0.028299
-0.198260
-0.163534
-0.123910
-0.017018
0.060110
0.082688
0.037035
0.105438
0.063527
0.155892
0.086471
0.081017
0.088330
0.144940
0.139633
0.077938
0.100120
0.150257
0.204602
0.164554
0.191772
0.280466
0.320739
0.279820
0.321261
0.321203
0.334330
0.345448
0.396740
0.393686
0.456779
0.438082
0.422264
0.451042
0.507443
0.535392
0.602526
0.516812
0.578105
0.581339
0.580321
0.545141
0.595066
0.581007
0.559034
0.631417
0.580829
0.522895
0.624526
0.480523
0.551203
0.451260
0.464110
0.469557
0.464960
0.498347
0.357736
0.386302
0.342451
0.343886
0.353881
0.271910
0.253379
0.211130
0.193818
0.146641
0.255500
0.238909
0.186666
0.168655
0.087152
0.202787
0.102089
0.207312
0.128588
0.101226
0.073578
0.079026
0.121178
0.046920
0.116745
0.039120
0.077190
0.027185
0.088907
-0.027759
0.024412
0.062453
0.015859
-0.044385
-0.046433
-0.069560
0.034192
0.033676
-0.010028
-0.023614
0.097443
-0.016020
-0.018532
-0.060755
0.028663
0.098191
-0.026555
0.094361
-0.008778
-0.036695
0.030623
-0.034618
0.032425
0.005498
-0.014487
-0.014230
-0.003285
0.003546
-0.020587
0.021586
0.056348
0.046914
0.003685
0.050554
0.073474
-0.068465
-0.000918
-0.022981
0.091406
-0.009183
0.065467
-0.007209
-0.049206
-0.016870
0.090552
0.022848
-0.039302
0.016969
0.098690
0.137337
0.069809
0.046560
0.111324
0.090776
0.112038
0.132360
0.068036
0.129104
0.071133
0.092078
0.143657
0.065295
0.116484
0.227780
0.149461
0.240216
0.138898
0.196849
0.208682
0.186861
0.168852
0.146756
0.147609
0.099731
0.126434
0.078012
0.098287
0.085034
0.025904
0.084975
0.034946
0.070694
0.002922
-0.007480
0.058461
-0.088804
0.001648
0.030328
0.018979
-0.004047
0.015305
-0.020775
-0.089658
-0.040572
-0.021956
0.000449
0.000747
0.023345
-0.057009
0.107364
0.206038
0.424219
0.710914
1.122266
1.417351
1.459426
1.170037
0.926865
0.578259
0.258458
-0.065449
-0.208050
-0.272384
-0.128725
-0.138501
-0.053040
-0.141827
-0.072695
0.094589
-0.007603
-0.005594
0.041921
-0.067913
0.025572
-0.016804
0.082641
0.109696
0.057777
-0.011038
0.138979
0.069271
0.143481
0.252762
0.107954
0.204264
0.126574
0.146072
0.275607
0.315847
0.236236
0.262959
0.308236
0.323738
0.372815
0.345016
0.370972
0.501612
0.485261
0.479847
0.440480
0.507722
0.472452
0.468450
0.461973
0.522296
0.453559
0.491472
0.498524
0.501964
0.434684
0.490253
0.471654
0.384944
0.450484
0.326487
0.350572
0.398766
0.335035
0.355914
0.235420
0.234796
0.209290
0.101546
0.161447
0.239368
0.187239
0.203850
0.087079
0.112896
0.141716
0.093792
-0.016132
0.089250
0.053861
0.007947
-0.001958
0.039332
0.016381
0.022134
0.046091
0.008300
-0.060234
0.041223
-0.037395
-0.011651
-0.004351
0.025367
-0.034141
-0.118470
-0.064379
-0.056647
-0.083543
0.003887
-0.043938
-0.065545
0.021738
-0.019327
-0.047062
-0.010567
-0.040246
-0.092924
-0.028535
-0.135230
-0.040675
-0.046208
-0.076293
-0.107262
-0.004733
-0.051317
-0.050333
-0.023926
-0.064601
-0.002590
-0.044746
-0.090053
-0.045872
-0.065386
0.026412
0.027685
-0.000350
-0.030194
0.000209
-0.089454
-0.033793
-0.127135
-0.025058
-0.040623
-0.080384
-0.011923
-0.074483
-0.073439
-0.070496
-0.013226
-0.009595
-0.015597
-0.022084
0.077727
-0.008167
0.008949
0.053348
0.169766
0.027224
0.033016
0.030025
0.093610
0.059441
0.103746
0.076988
0.215103
0.154847
0.133967
0.093012
0.215778
0.055309
0.159018
0.176980
0.102402
0.165243
0.143168
0.121775
0.101773
0.123791
0.169114
0.025735
0.059231
0.083483
0.015554
0.038239
0.022553
-0.010297
0.066452
0.044659
0.006740
0.021153
-0.095203
0.008683
-0.019501
-0.126052
0.017373
0.005192
-0.030765
-0.042412
-0.009037
-0.039018
0.002017
0.026239
-0.007529
0.080552
0.389791
0.633238
1.017968
1.310901
1.362074
1.403442
1.150276
0.670211
0.339107
-0.003223
-0.122760
-0.218454
-0.185792
-0.243189
-0.079327
0.028983
0.026920
-0.021138
0.128434
-0.031486
-0.080416
0.022024
0.006655
0.062175
0.096637
0.002413
0.129281
0.141480
0.109268
0.205647
0.143684
0.152390
0.203006
0.167800
0.179498
0.205428
0.315083
0.265353
0.329605
0.330962
0.317552
0.386716
0.453755
0.397420
0.407971
0.435385
0.457043
0.496254
0.573157
0.452915
0.470147
0.472917
0.487581
0.559339
0.487088
0.520621
0.447324
0.503983
0.485186
0.519565
0.511284
0.516396
0.461309
0.447910
0.449470
0.358250
0.428367
0.350060
0.317402
0.281495
0.313486
0.232185
0.248408
0.358485
0.291471
0.168319
0.142752
0.137073
0.103479
0.130711
0.150196
0.085521
0.019464
0.068275
0.150254
-0.039680
0.100163
0.170838
0.031784
-0.004499
0.028686
0.021664
0.014530
0.037641
-0.010901
0.082886
0.104294
0.094219
0.073407
0.074780
0.119461
0.025594
-0.000969
0.058962
-0.000775
0.118002
0.070327
0.076744
0.026394
0.106155
0.027480
0.001960
0.045404
0.008701
0.028885
0.005581
-0.046764
0.058552
0.071742
0.082627
0.082763
0.036085
0.060322
-0.006862
0.088272
0.038769
0.046477
0.053423
0.006062
0.091820
0.058072
0.054737
-0.015994
-0.009975
0.084536
0.056813
0.077894
0.063981
0.147913
0.036968
0.076912
0.094074
0.082101
0.139659
0.081969
0.167136
0.095623
0.202999
0.157002
0.197879
0.161874
0.176658
0.190297
0.171669
0.207642
0.197293
0.236874
0.193379
0.174968
0.248912
0.141460
0.177004
0.304450
0.243009
0.238426
0.245683
0.202742
0.194181
0.267325
0.204070
0.171505
0.238291
0.219180
0.151112
0.166976
0.167736
0.125056
0.137757
0.121355
0.214149
0.181938
0.111237
0.094260
0.166728
0.096090
0.183450
0.115035
0.015877
0.052527
0.125621
0.073663
0.119720
0.059017
0.074449
0.047168
0.051843
0.122169
0.289658
0.636449
0.895008
1.235380
1.500000
1.460297
1.303129
0.918727
0.522457
0.221501
-0.038057
-0.122958
-0.122801
-0.161492
-0.006334
0.077343
0.053726
0.070724
0.032406
0.101686
0.116991
0.190608
0.147839
0.176388
0.129172
0.170938
0.213699
0.247917
0.184086
0.191715
0.196371
0.193364
0.302106
0.288092
0.333726
0.268989
0.329494
0.394292
0.361322
0.384985
0.419623
0.478167
0.441175
0.514754
0.550172
0.555035
0.583484
0.568338
0.615545
0.630054
0.595198
0.593336
0.645356
0.549907
0.611670
0.629075
0.584268
0.648662
0.637106
0.552107
0.582205
0.521301
0.522650
0.593868
0.579069
0.463849
0.525881
0.440472
0.384209
0.365603
0.418376
0.321286
0.314257
0.369723
0.353188
0.225536
0.251525
0.206334
0.223317
0.202516
0.183185
0.263924
0.254649
0.209768
0.175488
0.066021
0.107693
0.176203
0.167181
0.139448
0.082009
0.061789
0.054948
0.119184
0.101013
0.092483
0.266405
0.089653
0.138028
0.150253
0.104216
0.172965
0.125864
0.135380
0.034664
0.125426
0.116154
0.133711
0.059877
0.045595
0.071753
0.073399
-0.009627
0.048009
0.102597
0.063487
0.072749
0.046105
0.038193
0.105228
0.156715
0.084535
0.073598
0.068752
0.104439
0.157985
0.189604
0.072431
0.107809
0.070448
0.050371
0.098376
0.103129
0.106823
0.142058
0.038325
0.078268
0.123170
0.125971
0.094859
0.044726
0.069951
0.040835
0.195145
0.084566
0.108836
0.131312
0.095356
0.182863
0.144173
0.185626
0.224529
0.260083
0.154457
0.260905
0.277694
0.294448
0.207025
0.284762
0.258076
0.346955
0.182205
0.245419
0.275330
0.220524
0.202735
0.221634
0.191286
0.117611
0.267116
0.196161
0.170338
0.207494
0.155461
0.127911
0.121431
0.091531
0.049995
0.231714
0.123067
0.091004
0.169542
0.048712
0.026514
0.017977
0.078948
0.107395
0.049910
0.061090
0.094222
0.150321
0.075690
0.017132
-0.003023
0.033514
0.045377
0.020732
0.341453
0.597026
0.822879
1.159070
1.413870
1.421811
1.386118
1.095232
0.650254
0.262451
0.013360
-0.182227
-0.301586
-0.116762
-0.004418
-0.007901
-0.003755
0.109267
0.060023
0.113267
0.025526
0.083898
0.075044
0.121507
-0.041691
0.141602
0.191578
0.108965
0.104758
0.138896
0.084858
0.150568
0.167251
0.240674
0.200896
0.278903
0.308288
0.326472
0.301626
0.353231
0.330974
0.428690
0.426244
0.409288
0.444985
0.492923
0.513323
0.503910
0.439314
0.497504
0.629953
0.546934
0.528112
0.525792
0.533224
0.452862
0.518468
0.450109
0.502414
0.583828
0.518760
0.553144
0.470873
0.464900
0.467857
0.483249
0.424124
0.429558
0.358906
0.320692
0.266434
0.197513
0.287080
0.280602
0.210485
0.243024
0.247755
0.120906
0.185398
0.136420
0.071641
0.121070
0.125660
0.011312
0.069667
0.050781
-0.002525
0.059154
0.043404
-0.031977
-0.034169
0.137833
0.020415
-0.045062
0.087340
0.040490
0.023175
0.045174
0.005482
-0.009057
0.014483
-0.059289
-0.052003
0.001287
0.038423
0.006805
0.050974
0.023719
-0.069576
-0.052928
-0.056917
-0.016159
0.001448
0.030981
-0.082577
-0.033918
0.039047
0.000462
0.029552
0.023187
0.006096
0.023671
-0.069130
-0.075147
-0.048819
-0.011027
-0.062460
-0.100699
-0.057917
-0.017707
-0.006239
-0.038420
-0.064871
-0.020006
0.030004
-0.033132
-0.010165
-0.064011
0.019131
-0.029346
-0.083367
-0.097577
-0.061810
0.022179
-0.112353
0.016179
-0.084758
0.032344
0.035118
-0.009005
-0.053078
0.021338
0.106456
-0.006106
0.175902
0.071751
0.156482
0.117495
0.172708
0.174969
0.154750
0.175654
0.043606
0.167431
0.076774
0.091443
0.224733
0.038895
0.066508
0.047692
0.085205
0.133024
0.105022
-0.035033
-0.010263
0.012165
0.052430
-0.039066
-0.008525
0.016471
-0.039773
-0.041708
-0.061689
-0.061811
0.050559
0.011754
-0.012853
-0.147728
0.084786
-0.011060
-0.026197
-0.088751
-0.078428
-0.127561
-0.087151
-0.114628
-0.029076
0.095609
0.234670
0.621547
1.001229
1.156670
1.368121
1.280583
1.077828
0.764107
0.339455
0.011113
-0.211349
-0.316565
-0.271527
-0.281927
-0.212744
-0.110311
-0.004150
-0.040262
-0.094049
-0.025473
-0.046848
0.065588
0.013170
0.001464
0.010306
-0.019291
0.046455
0.052929
0.054256
0.006088
0.015863
0.136057
0.016310
0.099136
0.111801
0.163094
0.124469
0.274986
0.289133
0.367045
0.265698
0.333734
0.330765
0.328422
0.232194
0.346265
0.445795
0.411741
0.426442
0.448107
0.401844
0.480688
0.397212
0.420577
0.458253
0.461977
0.439695
0.371399
0.351801
0.459612
0.455346
0.357119
0.344303
0.351728
0.356350
0.306359
0.224667
0.174241
0.223038
0.198010
0.156720
0.181031
0.072156
0.093222
0.152257
0.134863
0.143789
0.075963
0.020510
0.058135
0.073986
-0.016138
-0.082341
0.020108
-0.053247
-0.047697
-0.034709
-0.009750
-0.046695
-0.032237
-0.128857
-0.020762
-0.092854
-0.042953
-0.090375
-0.060120
-0.057324
-0.122737
-0.136568
-0.100072
-0.057239
-0.030718
-0.069167
-0.033744
-0.065483
-0.165581
-0.052721
-0.009257
-0.082838
-0.039192
-0.142366
-0.158470
-0.106590
-0.096563
-0.038865
-0.061313
-0.188222
0.012396
-0.101540
-0.008754
-0.033060
-0.077158
-0.148188
-0.000851
-0.125414
-0.178761
-0.062353
-0.027201
-0.073782
-0.073061
0.041347
-0.137239
-0.071275
-0.052410
-0.118984
-0.090643
-0.056092
-0.019790
-0.048282
-0.054639
-0.075439
-0.118842
-0.072701
-0.025119
0.007601
-0.046873
-0.037282
-0.003624
-0.011839
-0.058581
0.012642
0.099460
0.045414
0.016452
0.001644
0.027421
0.121208
0.130834
0.099787
0.069663
0.266675
0.121986
0.143636
0.118958
0.050226
0.083096
0.148194
0.033788
0.104816
0.045564
0.028755
-0.046334
0.060095
0.074718
0.079341
-0.018903
0.002011
0.015565
-0.004909
-0.052199
-0.027575
-0.011495
-0.027688
0.008292
-0.070423
-0.004415
-0.045975
-0.060146
-0.054791
0.001773
-0.034273
-0.060939
-0.086357
-0.114782
-0.044713
-0.005233
-0.057246
0.206373
0.442104
0.825236
1.145919
1.363456
1.354649
1.273379
0.881288
0.533873
0.109425
-0.120699
-0.250131
-0.232820
-0.234013
-0.154716
-0.049907
-0.070642
-0.068531
-0.025395
0.020222
-0.038443
0.045707
0.043279
-0.079135
-0.004623
0.013662
0.058731
0.112498
0.066320
0.080016
0.199161
0.033974
0.203160
0.183494
0.183525
0.158826
0.266913
0.237177
0.333648
0.325834
0.266407
0.355879
0.360929
0.352476
0.400195
0.378042
0.351326
0.357996
0.469044
0.416449
0.484869
0.495543
0.519025
0.410299
0.505817
0.493568
0.537566
0.525979
0.518966
0.531537
0.437694
0.488098
0.482449
0.449535
0.409554
0.454408
0.432277
0.422429
0.334233
0.272655
0.267220
0.338016
0.297956
0.169514
0.222338
0.157096
0.239399
0.174595
0.126352
0.081097
0.145193
0.140892
0.109261
0.094712
0.006122
0.041114
0.031318
-0.056918
0.008971
-0.003936
-0.017785
0.051609
0.083396
-0.101372
-0.051327
-0.117751
-0.032955
-0.073702
0.000085
0.023090
0.045459
0.015170
-0.024693
0.057654
0.020389
-0.024492
-0.056500
-0.078840
0.095022
0.070504
-0.025596
0.039147
0.075669
0.041333
-0.014755
-0.033871
-0.059416
-0.088211
-0.052158
0.048975
0.090884
0.081927
-0.016757
0.086011
0.054532
0.007826
0.011284
0.000000
0.000000
0.000000
0.000000
0.000000
0.000000
0.000000
0.000000
0.000000
0.000000
0.000000
0.000000
0.000000
0.000000
0.000000
0.000000
0.000000
0.000000
0.000000
0.000000
0.000000
0.000000
0.000000
0.000000
0.000000
0.000000
0.000000
0.000000
0.000000
0.000000
0.000000
0.000000
0.000000
0.000000
0.000000
0.000000
0.000000
0.000000
0.000000
0.000000
0.000000
0.000000
0.000000
0.000000
0.000000
0.000000
0.100472
0.215100
0.160356
0.098212
0.085107
0.148488
-0.002082
0.039598
0.022544
0.072303
0.095568
0.062621
0.080237
0.043031
0.077280
0.119942
-0.007492
0.020595
0.103169
0.102213
0.084386
-0.016535
-0.016417
0.071923
0.245887
0.456033
0.809977
1.111862
1.330769
1.394821
1.373046
1.062258
0.709905
0.000000
0.000000
0.000000
0.000000
0.000000
0.000000
0.000000
0.000000
0.000000
0.000000
0.000000
0.000000
0.000000
0.000000
0.000000
0.000000
0.000000
0.000000
0.000000
0.000000
0.000000
0.000000
0.000000
0.000000
0.000000
0.000000
0.000000
0.000000
0.000000
0.000000
0.000000
0.000000
0.000000
0.000000
0.000000
0.000000
0.000000
0.000000
0.000000
0.000000
0.000000
0.000000
0.000000
0.000000
0.000000
0.000000
0.000000
0.000000
0.000000
0.000000
0.000000
0.000000
0.000000
0.000000
0.000000
0.000000
0.000000
0.000000
0.000000
0.000000
0.000000
0.000000
0.000000
0.000000
0.000000
0.000000
0.000000
0.000000
0.000000
0.000000
0.000000
0.000000
0.189052
0.134752
0.178912
0.143343
0.079235
0.060362
0.155978
0.093113
0.020394
0.030347
0.070894
0.018749
0.084691
0.028667
0.088478
0.107234
0.012971
0.074179
-0.002957
-0.023796
-0.006895
0.027446
0.083590
0.031849
0.094765
0.100598
0.073012
0.071810
0.105809
0.000505
0.078240
0.004165
0.101201
0.038629
0.031437
0.095768
-0.037469
0.034140
0.101662
-0.002825
0.017551
0.056027
0.053066
0.018291
0.060464
0.080908
0.017670
0.050825
-0.025660
0.053100
0.030411
0.044403
0.047284
-0.016703
0.063180
0.020149
0.040708
0.019535
0.030654
0.094019
-0.031456
0.014359
0.122199
0.067071
0.038630
0.069205
0.179710
0.107525
0.108561
0.166357
0.141289
0.139217
0.086482
0.132648
0.158540
0.126754
0.151649
0.238788
0.177913
0.163970
0.263576
0.257865
0.184042
0.151972
0.209408
0.238226
0.135337
0.244176
0.134878
0.199219
0.166812
0.111272
0.063714
0.087500
0.124911
0.079335
0.152257
0.092008
0.084027
0.081947
0.108491
0.073427
0.025691
0.100282
-0.011265
-0.052671
0.047759
-0.000751
-0.014622
0.061940
-0.018933
-0.075436
0.027114
-0.078742
0.006608
-0.001828
0.178347
0.319293
0.582918
0.886050
1.248971
1.415315
1.434999
1.162550
0.870640
0.424898
0.085159
-0.210190
-0.271697
-0.245540
-0.164608
-0.054224
-0.045797
-0.000018
-0.000110
-0.018669
0.047774
-0.006740
0.042068
0.081622
0.107765
0.047707
0.046450
0.018860
0.073631
0.167592
0.162763
0.131724
0.081266
0.189523
0.180262
0.204526
0.237362
0.188325
0.269734
0.313616
0.283699
0.372845
0.274887
0.345475
0.296198
0.430031
0.375047
0.385530
0.544368
0.454010
0.509520
0.331022
0.424734
0.517720
0.532478
0.483599
0.436559
0.460098
0.496175
0.600557
0.382698
0.529576
0.340992
0.350098
0.320953
0.361419
0.309175
0.340900
0.332192
0.333826
0.192222
0.291378
0.214135
0.168135
0.175918
0.087327
0.111318
0.147525
0.165382
0.144837
0.069373
0.017766
0.075642
-0.019444
0.078937
0.030092
-0.062086
-0.020187
0.072018
0.055291
-0.048836
-0.033450
0.028682
-0.076556
-0.125998
0.005302
-0.052995
0.038488
-0.099992
-0.036959
-0.020176
0.014519
-0.058333
-0.090769
-0.025860
-0.032904
-0.070242
-0.047011
-0.023274
-0.111678
-0.085212
-0.095369
-0.072144
-0.125057
-0.175746
-0.150691
-0.069519
-0.066141
-0.112209
-0.091990
-0.094237
-0.009221
-0.134788
-0.050405
-0.110205
-0.023437
-0.048717
-0.077177
-0.168862
-0.062334
-0.150591
-0.097493
-0.083124
-0.025826
-0.049365
-0.139689
-0.151482
-0.084885
-0.104229
-0.077749
-0.058407
-0.031854
-0.075445
-0.044854
-0.083370
-0.000861
-0.074549
-0.012111
-0.033459
-0.086893
0.028106
-0.008246
0.048120
-0.045960
-0.016057
0.050620
0.059912
0.227581
0.119750
0.088754
0.042270
0.011218
0.147594
0.118642
0.054005
0.132382
0.085752
0.015359
0.087144
0.092954
0.099261
-0.000809
0.056273
0.022602
-0.060866
0.070320
0.062684
-0.007231
-0.055607
-0.015089
-0.110320
0.021857
-0.105149
-0.032660
-0.056879
-0.014055
-0.119053
-0.062763
-0.038900
-0.068050
-0.147413
-0.077120
-0.121567
-0.116878
-0.097464
-0.085483
-0.143285
-0.002933
0.190717
0.317006
0.820060
0.988877
1.374825
1.357547
1.172351
0.910169
0.538982
0.140313
-0.166686
-0.262611
-0.339013
-0.269203
-0.176535
-0.116921
-0.110016
-0.057846
-0.121222
-0.048191
0.034153
0.000520
-0.035867
-0.070102
0.040512
-0.008534
-0.071648
0.104840
-0.000658
0.031401
0.018475
0.061530
-0.020976
0.091140
0.137686
0.128692
0.158426
0.127943
0.170457
0.229897
0.247337
0.191361
0.213686
0.320736
0.204229
0.348024
0.362004
0.432447
0.339310
0.384658
0.405672
0.470902
0.424493
0.424931
0.434597
0.397111
0.407641
0.429432
0.450467
0.452090
0.457946
0.420477
0.363187
0.367849
0.431926
0.286456
0.380156
0.259392
0.296654
0.235958
0.183443
0.175434
0.192903
0.065617
0.092113
0.079151
0.109110
0.140250
0.049637
0.001492
0.061140
-0.015018
0.082442
0.041305
0.079149
-0.043643
0.046750
-0.079874
-0.102951
0.061709
-0.125066
-0.058649
-0.193874
-0.093805
-0.149096
-0.104320
-0.127716
-0.032976
-0.127277
-0.145683
-0.000929
-0.077863
-0.081241
-0.056247
-0.097894
-0.109563
-0.068165
-0.094841
-0.137779
-0.104189
-0.118011
-0.061304
-0.016234
0.010450
-0.076888
0.011495
-0.090465
-0.067769
-0.047384
-0.086262
-0.089300
-0.183950
-0.049025
-0.072189
-0.023404
-0.095575
-0.089319
-0.149684
-0.123743
-0.079278
-0.040706
-0.073165
-0.074496
-0.129870
0.001723
-0.062310
-0.105476
-0.036369
-0.049830
-0.070679
-0.125276
-0.080015
-0.093267
-0.029622
-0.061454
-0.046480
-0.094778
-0.058675
-0.023727
-0.022269
0.106106
0.011674
0.065772
0.074753
0.054330
0.023602
0.018158
0.074415
0.117291
0.129290
0.122190
0.106073
0.097467
0.110887
0.165454
0.091225
0.040256
0.116122
0.102429
0.087716
0.145871
0.041600
0.055750
0.091639
0.049244
0.038240
0.033286
0.012451
0.017978
-0.008781
-0.014169
0.002968
0.041563
0.033809
-0.071527
-0.052158
-0.036638
-0.068246
-0.086100
-0.076184
0.006819
-0.104870
0.002178
0.005224
-0.052857
-0.017964
-0.031517
0.172171
0.303349
0.720712
0.993366
1.373026
1.425872
1.347850
1.132653
0.738020
0.268547
-0.002366
-0.192520
-0.338014
-0.295437
-0.221934
-0.111093
0.028513
0.006225
-0.013133
-0.025708
0.059252
-0.004238
0.084090
-0.031509
0.156673
0.015950
0.080105
0.076839
0.106972
0.103233
0.099474
0.172887
0.175108
0.171503
0.270072
0.193820
0.202754
0.289135
0.327796
0.277826
0.274348
0.277373
0.325717
0.331376
0.426983
0.508073
0.405170
0.524395
0.622913
0.483717
0.520841
0.581504
0.517279
0.539885
0.539990
0.543664
0.581834
0.544956
0.413022
0.565518
0.460116
0.516125
0.511778
0.430823
0.451944
0.469776
0.399111
0.420623
0.269353
0.295687
0.408984
0.256489
0.275087
0.310653
0.220810
0.198490
0.177472
0.235129
0.154378
0.148233
0.183339
0.142244
0.133788
0.164216
0.116535
0.179426
0.095695
0.099680
0.038864
0.007531
0.034798
0.090686
0.028867
0.002151
0.015356
0.033165
0.095171
-0.009494
0.040926
-0.023567
-0.002682
0.084462
0.049976
-0.002075
0.055705
0.034483
0.025838
-0.006307
0.020472
0.013958
0.009347
0.022170
0.045044
0.086505
-0.027475
0.093535
0.035308
0.079661
0.096921
-0.003232
0.023037
-0.010994
0.012629
0.052415
0.035886
0.007291
0.071811
0.027849
0.077908
0.038009
-0.033107
0.047276
0.026407
0.030885
0.011951
0.044289
0.027385
0.043194
0.107716
0.130447
0.063798
0.117900
0.102013
0.105366
0.095196
0.138354
0.120386
0.047369
0.173480
0.142557
0.148714
0.114766
0.184377
0.166337
0.178258
0.210704
0.204143
0.199066
0.219705
0.172389
0.215590
0.307662
0.241397
0.287856
0.190110
0.229500
0.288850
0.302537
0.224266
0.240449
0.248767
0.174410
0.194884
0.157738
0.000000
0.000000
0.000000
0.000000
0.000000
0.000000
0.000000
0.000000
0.000000
0.000000
0.000000
0.000000
0.000000
0.000000
0.000000
0.000000
0.000000
0.000000
0.000000
0.000000
0.000000
0.000000
0.000000
0.000000
0.000000
0.000000
0.000000
0.000000
0.000000
0.000000
0.000000
0.000000
0.000000
0.000000
0.000000
0.000000
0.000000
0.000000
0.000000
0.000000
0.000000
0.000000
0.000000
0.000000
0.000000
0.000000
0.000000
0.000000
0.000000
0.000000
0.000000
0.000000
0.000000
0.000000
0.000000
0.000000
0.000000
0.000000
0.000000
0.000000
0.000000
0.000000
0.373817
0.370694
0.415120
0.429039
0.467441
0.467322
0.568954
0.568942
0.586774
0.548453
0.516400
0.568537
0.610634
0.570032
0.597502
0.660542
0.622491
0.610854
0.591516
