0.056134
-0.020215
0.012638
-0.015741
0.028914
-0.024001
0.062994
0.008846
0.058000
0.080694
-0.031305
0.000778
0.053761
0.044042
0.022649
-0.029367
0.133510
-0.040091
-0.029311
0.017628
0.005033
-0.033054
0.101298
0.090967
0.047981
0.047593
0.183904
0.126174
0.119056
0.084373
0.161743
0.201547
0.155089
0.115047
0.186298
0.203761
0.169488
0.343323
0.225752
0.234583
0.209519
0.211001
0.162674
0.212865
0.139954
0.115885
0.171195
0.223056
0.201090
0.166914
0.106475
0.089012
0.164791
0.181751
0.132541
0.016643
-0.025595
0.059282
0.136086
0.062288
0.009055
0.093798
0.122360
0.080500
0.047135
0.029684
0.055492
0.066012
0.020474
0.001723
-0.004089
-0.026444
0.026024
-0.030957
0.113530
0.242989
0.462210
0.712801
1.051992
1.327113
1.485716
1.355877
1.156653
0.902505
0.438796
0.095811
-0.197156
-0.286608
-0.176346
-0.107790
0.015280
0.010844
0.040933
0.012036
0.041358
0.055354
0.060251
0.173144
0.077554
0.181041
0.153489
0.151273
0.089200
0.159570
0.163064
0.220355
0.141171
0.281742
0.255236
0.250634
0.271391
0.336274
0.299735
0.348213
0.332558
0.263310
0.390434
0.447927
0.437269
0.513240
0.453612
0.430307
0.531491
0.436907
0.518525
0.626895
0.556408
0.618530
0.550300
0.574292
0.589372
0.589888
0.537849
0.609700
0.613023
0.589739
0.583450
0.541926
0.529336
0.547577
0.434853
0.420046
0.460251
0.502473
0.430041
0.391897
0.441522
0.319627
0.354237
0.413527
0.328596
0.335704
0.361850
0.288860
0.252883
0.227893
0.223044
0.229451
0.236490
0.120531
0.201449
0.155241
0.180482
0.105308
0.106048
0.068115
0.051790
0.117465
0.079998
0.075894
0.060880
0.134750
0.046580
0.067173
0.115295
0.107769
0.111876
0.085670
0.055094
0.085341
0.038472
0.028477
0.059889
0.040872
0.094963
0.001770
0.081472
0.036759
0.059837
0.128292
0.097624
0.177967
0.164216
0.075464
0.166920
0.110901
0.127776
0.062600
0.063331
0.114507
0.104424
0.126775
0.053051
0.107408
0.069461
0.045357
0.059805
0.054650
0.119379
0.083256
0.075037
0.099144
0.100611
0.076570
0.101057
0.106708
0.135010
0.079300
0.013178
0.065758
0.046018
0.042702
0.106025
0.180009
0.089709
0.160260
0.073938
0.148331
0.126536
0.201732
0.166243
0.158259
0.236805
0.226115
0.277160
0.273146
0.282830
0.307697
0.300002
0.270060
0.287258
0.245510
0.278326
0.219038
0.299151
0.196712
0.207634
0.198125
0.259955
0.206423
0.158901
0.039169
0.179625
0.139985
0.148791
0.094891
0.126643
0.144521
0.169088
0.040124
0.099049
0.064727
0.118840
0.104367
0.077669
0.024722
0.030719
0.081863
0.122891
0.077865
0.069210
0.069321
0.075994
0.047965
0.254816
0.246003
0.490410
0.862811
1.062677
1.329344
1.479120
1.400277
1.234019
0.737697
0.374942
0.088123
-0.018150
-0.152507
-0.176228
-0.102845
-0.020599
0.061935
0.120271
0.087934
0.110924
0.114383
0.122392
0.164507
0.180930
0.137525
0.159416
0.164488
0.266731
0.192827
0.248528
0.126571
0.141527
0.242323
0.237102
0.219487
0.241322
0.264323
0.352531
0.321425
0.355184
0.421301
0.331538
0.453317
0.411554
0.419315
0.476136
0.570742
0.479765
0.582322
0.507721
0.531082
0.544495
0.565408
0.518897
0.616138
0.596208
0.536450
0.514898
0.508345
0.568189
0.543470
0.506572
0.446608
0.550309
0.450752
0.402272
0.417001
0.356439
0.414914
0.309803
0.400823
0.317125
0.270371
0.340136
0.300903
0.231394
0.260872
0.160352
0.263149
0.161931
0.187814
0.112584
0.176332
0.196533
0.045440
0.190155
0.113561
0.065342
0.139647
0.024584
0.073094
0.037488
0.047392
0.076691
-0.004503
0.064262
-0.029260
0.090287
0.051808
0.050514
-0.022725
-0.007967
0.044083
0.077239
0.101568
0.034910
0.008768
0.053186
-0.022937
0.090988
0.002080
-0.001617
0.028204
0.021120
0.115335
-0.031923
-0.009146
-0.031534
-0.064373
0.067697
0.043412
0.013433
0.023053
0.043725
-0.022826
-0.031451
-0.053549
-0.088857
0.035082
-0.018960
0.036441
-0.027894
-0.069707
0.077279
0.022567
-0.017172
0.049063
0.043927
-0.011888
0.009255
-0.034545
0.009464
-0.031349
-0.022625
-0.003582
-0.023888
0.001293
0.087342
0.062331
0.112541
0.044128
0.079521
0.102735
0.166246
0.118683
0.123797
0.154997
0.121455
0.183421
0.157064
0.221786
0.156692
0.162414
0.149322
0.261055
0.076328
0.251463
0.180886
0.096581
0.226142
0.051393
0.092311
0.110649
0.135994
0.087189
0.078242
0.000817
0.033979
0.054468
0.036175
0.085000
-0.037458
0.041403
0.023757
-0.010802
0.043830
0.094280
0.057245
0.040470
0.034958
0.005712
-0.084423
-0.018318
-0.029739
-0.082240
-0.099466
-0.004076
-0.067409
0.017593
0.094368
0.105921
0.298940
0.696556
1.050835
1.295195
1.429284
1.401170
1.108700
0.690130
0.352560
0.020385
-0.153968
-0.362918
-0.298512
-0.169879
-0.072102
-0.029024
-0.050889
0.008509
0.047809
0.046432
-0.050225
-0.057272
-0.003625
0.049476
0.021907
0.046820
0.179858
-0.004353
0.078053
0.063507
0.129683
0.115486
0.188732
0.131879
0.185501
0.137311
0.264123
0.215783
0.295744
0.316058
0.244049
0.321554
0.307761
0.404722
0.397711
0.407080
0.408514
0.388867
0.468404
0.429671
0.378523
0.479766
0.431194
0.535036
0.479749
0.547883
0.513851
0.488923
0.401790
0.473005
0.410478
0.423515
0.394254
0.397081
0.329790
0.383211
0.331516
0.292806
0.351326
0.292424
0.294145
0.251380
0.196006
0.217180
0.230856
0.211372
0.148092
0.126341
0.097083
0.133611
0.045988
-0.034077
0.021436
0.069501
0.021052
-0.049519
0.060233
0.073977
-0.036255
-0.020889
0.046106
-0.071479
-0.053588
-0.087410
-0.043176
0.027011
0.008291
-0.019673
-0.006900
-0.091902
-0.075865
-0.038961
-0.039694
-0.089082
0.051303
0.020114
-0.013094
-0.004335
-0.021140
-0.055109
0.003070
-0.080370
-0.020018
-0.031668
-0.065974
-0.016108
-0.030428
-0.065848
-0.052318
0.002911
-0.051249
-0.012308
-0.051578
-0.039694
-0.020547
0.022572
-0.122289
0.033139
-0.024893
-0.104595
-0.062956
-0.056514
-0.021393
-0.088328
-0.025495
-0.093096
-0.073427
-0.076399
-0.058006
0.035566
-0.038408
-0.073621
-0.009392
0.077702
0.024455
-0.014803
-0.024093
0.008660
0.059766
0.049183
0.070326
-0.020518
0.021593
0.026354
0.146765
0.084798
0.091820
0.102005
0.144129
0.193550
0.118032
0.141436
0.134038
0.137223
0.165059
0.098904
0.071364
0.151722
0.224954
0.127353
0.164817
0.128263
0.104140
0.131130
0.112422
0.022515
0.070453
0.027908
-0.025594
-0.028741
0.004571
0.011314
0.067769
-0.009274
0.084867
-0.015835
-0.107569
-0.015260
0.043427
-0.005944
-0.046206
-0.041031
-0.025976
-0.006483
-0.000429
-0.034546
-0.126610
-0.075091
0.060874
0.174492
0.346812
0.638294
1.013005
1.284015
1.462770
1.263809
1.036613
0.687603
0.293691
0.047419
-0.193304
-0.276142
-0.289756
-0.140770
-0.099246
-0.021445
0.016566
0.052509
0.018819
0.043770
0.051376
0.010570
0.044624
0.138041
0.025284
0.029916
0.078849
0.155746
0.122746
0.062996
0.213634
0.081909
0.210359
0.105639
0.222044
0.207415
0.275575
0.221546
0.313450
0.275264
0.334330
0.330607
0.443260
0.365041
0.403450
0.424580
0.419699
0.455838
0.449353
0.470307
0.511625
0.518665
0.478431
0.464713
0.501809
0.528405
0.577089
0.563061
0.471236
0.492398
0.510840
0.610390
0.445956
0.472138
0.430401
0.404657
0.406179
0.371563
0.343721
0.330843
0.438359
0.281217
0.256412
0.223193
0.203763
0.166687
0.171120
0.211039
0.142809
0.195585
0.146442
0.139284
0.163086
0.104664
0.107107
0.120207
0.067821
0.082470
0.104791
0.039383
0.062024
0.068147
0.097033
0.026624
0.073765
0.071176
0.062655
-0.021401
0.004256
0.085577
-0.008341
0.062704
-0.013411
0.083387
0.071984
0.057294
0.097173
0.008233
0.041055
0.125062
0.036099
0.056590
-0.016367
0.031090
0.007643
0.086379
0.104835
0.111902
0.042015
0.092781
0.053842
0.044697
0.059438
0.139309
0.075553
0.115656
0.063044
0.046648
-0.011988
0.109923
0.033174
0.032294
0.059527
0.055417
0.013975
0.125696
0.053791
0.065730
0.100115
0.020400
0.154658
0.076522
0.000853
0.067114
0.012865
0.119687
0.156439
0.144623
0.084316
0.148576
0.225549
0.163978
0.134868
0.112470
0.199912
0.237719
0.167536
0.275898
0.193520
0.180418
0.210606
0.205126
0.216486
0.239858
0.287058
0.318806
0.223899
0.291652
0.266815
0.221443
0.212387
0.189369
0.208616
0.167310
0.183204
0.077422
0.136945
0.189222
0.166555
0.172264
0.132061
0.069747
0.113244
0.049665
0.064457
0.058642
0.035484
0.063273
0.085566
0.082876
0.131041
0.088485
0.146434
0.046061
-0.002844
0.081464
0.031938
0.133616
0.049643
0.232285
0.491038
0.801894
1.060876
1.328723
1.500000
1.393988
1.214407
0.822369
0.405602
0.105982
-0.079090
-0.176456
-0.215444
-0.007603
-0.022600
0.124212
0.134913
0.200461
0.021877
0.133627
0.135849
0.173583
0.270694
0.283247
0.237342
0.132623
0.110306
0.223002
0.314699
0.212063
0.236180
0.338547
0.192212
0.294957
0.301226
0.259966
0.319492
0.369541
0.463199
0.416419
0.409963
0.506140
0.401912
0.468006
0.524623
0.530735
0.622015
0.566963
0.608395
0.622926
0.555698
0.550371
0.615226
0.669268
0.613305
0.535617
0.590156
0.526077
0.681695
0.656075
0.497828
0.585491
0.551093
0.507913
0.480423
0.451459
0.508965
0.463556
0.397415
0.484191
0.386447
0.328028
0.299909
0.379033
0.253723
0.210957
0.226172
0.239496
0.298738
0.206920
0.285178
0.094125
0.238001
0.188396
0.109374
0.161110
0.184054
0.152703
0.112864
0.104167
0.063598
0.114100
0.063996
0.123944
0.104982
0.191157
0.152857
0.195837
0.032740
0.078179
0.191734
0.143324
0.092132
0.067556
0.101267
0.071312
0.137462
0.104605
0.180148
0.031003
0.089443
0.104876
0.067738
0.078503
0.042022
-0.002347
0.123101
0.120861
0.007289
0.104425
0.067788
0.036954
0.091014
0.111159
0.127144
0.069815
0.103344
0.028260
0.095069
0.005290
0.005778
0.118114
0.069734
0.123359
0.158509
0.027912
0.064109
0.129510
0.039867
0.156971
0.035658
0.109031
-0.007331
0.085980
0.089973
0.111449
0.162038
0.114249
0.095344
0.174904
0.143319
0.263801
0.246905
0.205209
0.107185
0.175581
0.240152
0.280292
0.172866
0.268670
0.249890
0.281322
0.225504
0.290984
0.317390
0.234884
0.245736
0.279653
0.272624
0.193000
0.207810
0.168881
0.221966
0.342642
0.109314
0.151714
0.165926
0.125875
0.017269
0.085759
0.182951
0.087660
0.099742
0.057486
0.073624
0.072781
0.104723
0.043337
-0.005729
-0.013829
-0.003171
0.093842
-0.042314
0.069148
0.053689
0.076555
0.004455
0.003577
0.073288
0.182437
0.472877
0.781834
1.125734
1.363534
1.346926
1.353296
1.199397
0.792182
0.451869
0.092573
-0.171759
-0.197360
-0.265690
-0.082545
-0.027717
-0.082668
0.025070
-0.000104
0.070947
0.044700
0.045167
0.145235
0.118833
0.109938
0.139288
0.087960
0.017313
0.128616
0.169476
0.152394
0.192490
0.224329
0.214263
0.251408
0.255889
0.329335
0.355197
0.270429
0.290449
0.288366
0.267817
0.442131
0.359855
0.371933
0.444134
0.456035
0.430470
0.527927
0.419868
0.521650
0.549600
0.445044
0.512753
0.558929
0.500969
0.542789
0.544253
0.536120
0.441457
0.466137
0.456440
0.507702
0.408846
0.421136
0.480342
0.315475
0.382796
0.368372
0.331064
0.381398
0.375575
0.325817
0.224337
0.157122
0.174436
0.124156
0.234263
0.100169
0.122005
0.120472
0.118291
0.093457
0.039742
0.152691
0.003710
-0.042430
0.130032
0.024146
0.071013
-0.028664
-0.020404
0.042927
-0.054300
0.020634
-0.049748
-0.061888
-0.003032
-0.012412
0.041329
-0.036783
-0.117696
0.010897
-0.000010
0.011611
0.014144
0.007735
0.016583
-0.042827
-0.005985
-0.071079
-0.060925
-0.083086
-0.018954
0.028501
0.039689
-0.116267
-0.072900
-0.046301
-0.006936
0.093087
-0.054671
-0.090942
0.007618
-0.064913
-0.028498
0.068499
-0.067157
0.035569
0.020415
-0.022201
0.005910
-0.021206
-0.159775
-0.050712
-0.074773
0.001477
0.003695
-0.030257
-0.074751
0.065679
-0.005425
-0.066475
-0.050276
-0.073379
-0.083013
-0.077064
-0.016448
0.038669
0.083679
0.021995
0.018625
0.066842
0.003491
0.020548
0.055997
0.072505
0.060543
0.126535
0.110676
0.113156
0.177425
0.142303
0.127701
0.083424
0.054428
0.082526
0.103714
0.120496
0.147076
0.110564
0.105290
0.097092
0.075910
0.028031
-0.018175
0.063624
-0.005671
0.044826
0.011600
-0.018105
-0.000207
0.020694
0.020741
-0.043001
-0.036030
-0.030738
0.022807
0.012435
-0.030728
-0.058361
-0.024669
0.004706
-0.064366
-0.085479
-0.046732
-0.167578
-0.061722
0.011709
-0.007951
0.095073
0.312251
0.645969
0.879715
1.259061
1.329562
1.286520
1.010473
0.697474
0.279205
-0.030360
-0.286115
-0.311411
-0.315698
-0.218569
-0.215491
-0.108730
0.053451
-0.028302
-0.032067
-0.066060
-0.084153
-0.026517
-0.050936
-0.131547
-0.025097
-0.037052
-0.023388
0.066574
0.036923
0.079046
-0.013523
0.034488
0.135167
0.134176
0.143700
0.151203
0.155130
0.207809
0.251898
0.285107
0.233711
0.302553
0.299043
0.345007
0.416576
0.339213
0.397282
0.413937
0.400310
0.349967
0.444071
0.473861
0.471469
0.462519
0.455108
0.495245
0.385604
0.408165
0.401806
0.418917
0.404713
0.403053
0.380785
0.405533
0.368311
0.352429
0.304626
0.285180
0.386243
0.316264
0.270700
0.202857
0.182319
0.187701
0.131981
0.126741
0.008044
0.142226
0.108718
0.057551
0.078881
0.041647
0.062639
0.029569
-0.076604
-0.010884
-0.039679
-0.008481
-0.052868
-0.039929
-0.015869
0.024008
-0.108329
0.000639
-0.117698
-0.041324
-0.101455
-0.053782
-0.058724
-0.051628
-0.140011
-0.063179
-0.064257
-0.021751
-0.082193
-0.061056
-0.048775
-0.102866
-0.108134
-0.090487
-0.011936
-0.158549
-0.060542
-0.046272
-0.024981
-0.100834
-0.061987
-0.165772
-0.151373
-0.095492
-0.108451
-0.053308
-0.076858
0.039087
-0.052246
-0.049157
-0.065433
-0.090766
-0.111515
-0.014534
-0.016001
-0.098081
-0.125857
-0.032117
-0.081180
-0.074111
-0.041331
-0.004007
0.037497
-0.021149
-0.138196
-0.059520
-0.106273
-0.025392
-0.030277
-0.105232
-0.020525
-0.031304
-0.041191
0.017043
-0.019617
0.035632
0.028290
-0.000700
0.057978
0.027970
0.097237
0.109416
0.034066
0.123106
0.089223
0.161452
0.095413
0.100604
0.078729
0.139806
0.094371
0.135325
0.093582
-0.019840
0.063620
0.092869
0.081069
0.012142
0.007174
0.026269
-0.012071
0.067757
0.041402
0.017783
0.043747
-0.021927
-0.014467
-0.082031
-0.044153
-0.015563
-0.028777
-0.011073
-0.095117
-0.011615
-0.044914
-0.036537
0.011343
-0.031419
-0.147639
-0.030601
-0.064423
-0.053028
-0.126199
0.169470
0.335012
0.651322
1.034828
1.095277
1.386611
1.352511
1.046189
0.677866
0.290377
0.045412
-0.191397
-0.241459
-0.172470
-0.127173
-0.058163
-0.018697
-0.097134
-0.020397
-0.062185
-0.008193
0.070983
-0.066685
0.037034
-0.009818
0.034040
0.148149
0.108576
0.135195
0.054085
0.096543
0.072093
0.143030
0.261903
0.082837
0.158505
0.192561
0.256671
0.176246
0.336108
0.269712
0.328520
0.419979
0.372798
0.417913
0.338655
0.399713
0.424788
0.434517
0.552461
0.462962
0.464565
0.478836
0.457875
0.454143
0.503183
0.483588
0.623456
0.514690
0.502178
0.451065
0.562905
0.424884
0.418552
0.370949
0.419951
0.413834
0.346091
0.344506
0.319430
0.349954
0.293291
0.267515
0.255147
0.273479
0.251021
0.172468
0.192005
0.183369
0.092542
0.156769
0.106792
0.172126
0.167914
0.129662
0.170613
0.059674
0.071891
0.102300
0.002307
0.021242
0.072287
0.059139
0.074127
0.040010
-0.011570
0.024799
0.086086
0.015400
-0.035110
0.086249
0.001923
-0.069629
0.034490
-0.021309
0.061960
0.014829
-0.026369
0.047250
0.025091
0.002231
0.112669
0.030983
-0.066368
0.027430
0.000804
0.015928
0.000885
0.135474
0.011026
-0.002950
0.019290
-0.058943
0.044089
0.037780
0.050956
0.092558
0.024189
0.029451
-0.042077
-0.001918
0.101993
0.034630
0.083159
-0.059188
0.013030
-0.020672
0.067630
-0.012282
0.065734
0.056539
-0.004001
-0.014783
0.055474
0.011394
0.066996
-0.009472
0.003861
0.150249
0.129903
0.072464
0.091776
0.139930
0.145737
0.164055
0.058017
0.011789
0.161988
0.179132
0.208974
0.178720
0.197757
0.294863
0.169817
0.271626
0.155877
0.215307
0.138897
0.212331
0.178243
0.207502
0.160820
0.182685
0.158187
0.195427
0.132534
0.106907
0.085453
0.161007
0.146151
0.192927
0.208571
0.093995
0.077586
0.049153
-0.008390
0.053455
0.082931
0.102722
0.055494
0.081723
0.078861
0.067830
0.072469
0.024746
0.058588
0.040343
0.016748
0.083512
0.120868
0.157559
0.489191
0.828126
1.085988
1.364134
1.457400
1.423555
1.158605
0.863312
0.462645
0.027124
-0.093048
-0.221572
-0.066955
-0.088428
-0.002709
0.053660
0.103192
0.012669
0.107308
0.095319
0.064892
0.020095
0.129020
0.144547
0.133367
0.139294
0.191863
0.135529
0.132516
0.195128
0.217680
0.163255
0.168688
0.265726
0.266829
0.334367
0.273451
0.368012
0.358479
0.379208
0.331826
0.470163
0.385827
0.442587
0.422520
0.415786
0.546872
0.578110
0.522779
0.549551
0.577653
0.605875
0.495927
0.506174
0.567512
0.536635
0.616216
0.617030
0.567891
0.642129
0.545708
0.423986
0.472757
0.509384
0.432749
0.347590
0.356283
0.374121
0.445255
0.290496
0.338502
0.287552
0.306736
0.295474
0.248135
0.288515
0.321702
0.193230
0.160609
0.136253
0.080293
0.211084
0.113958
0.167081
0.114142
0.078444
0.067388
0.206157
0.043693
0.049808
0.059668
0.061904
0.082529
0.086193
-0.049784
0.016641
-0.037370
0.089147
0.036468
0.061659
0.024252
-0.022592
0.078932
0.050467
0.048412
-0.006050
-0.004973
-0.001746
-0.051767
-0.001878
0.030173
-0.000454
-0.065790
0.063668
0.002642
0.018928
-0.035893
0.047130
0.015921
0.037749
-0.051364
0.002043
-0.034630
0.041326
-0.026010
-0.071097
0.074325
0.007993
0.019884
0.034638
0.018098
-0.112416
0.087534
0.005602
-0.006459
0.093660
0.064973
0.021477
0.078403
-0.016007
0.051427
-0.028049
0.041362
0.035048
0.014257
0.066269
-0.001440
0.011314
-0.027974
0.004448
0.017544
0.146293
0.001899
0.101201
0.140549
0.126276
0.063427
0.171602
0.068091
0.184876
0.125095
0.254481
0.298668
0.193585
0.190616
0.167464
0.140334
0.194588
0.162814
0.164669
0.130882
0.160639
0.192039
0.179194
0.110711
0.090143
0.173685
0.036162
0.026888
0.037049
0.065675
0.007840
0.114132
0.060690
0.041769
-0.014771
0.072423
0.015910
0.033631
-0.008745
-0.033892
0.022409
-0.034953
0.001992
-0.025968
-0.111721
-0.105368
0.002315
0.043658
0.137633
0.401438
0.762540
1.009306
1.298321
1.373637
1.364338
1.090325
0.671624
0.367011
-0.016325
-0.203943
-0.227833
-0.237891
-0.157841
-0.096265
-0.087299
-0.051899
-0.049486
-0.027091
0.064092
0.040180
0.080824
0.037156
0.074509
0.053594
-0.003681
0.021581
0.088717
0.089386
0.148620
0.086338
0.151969
0.163716
0.149483
0.191698
0.159480
0.196368
0.236487
0.278352
0.252205
0.233250
0.347892
0.369574
0.346109
0.369544
0.419732
0.468705
0.375289
0.434462
0.462913
0.438826
0.403174
0.467559
0.454183
0.518359
0.458992
0.469578
0.527559
0.439321
0.452159
0.518580
0.349897
0.424876
0.413430
0.332375
0.296822
0.351782
0.350746
0.302675
0.270597
0.222643
0.185885
0.224781
0.143623
0.132737
0.148901
0.066242
0.117434
0.143895
-0.017186
0.045267
0.060451
-0.026713
0.038972
0.043244
-0.013057
0.061991
-0.047526
-0.031472
-0.028298
-0.072191
-0.074070
-0.011777
-0.074067
-0.039013
-0.086322
-0.092741
-0.112002
-0.125410
-0.069731
-0.066382
-0.080888
-0.059954
-0.180662
-0.104241
-0.059966
-0.107403
-0.053455
-0.045229
-0.074543
-0.070980
-0.102036
-0.036388
-0.087151
-0.111798
-0.095976
-0.054957
-0.113319
-0.056256
-0.025832
-0.060810
-0.037903
-0.090271
-0.108473
-0.032483
-0.075395
-0.111947
-0.135518
-0.089945
-0.153817
0.015762
-0.074157
-0.077071
-0.047407
-0.133081
-0.024170
-0.049608
-0.129349
-0.154785
-0.047465
-0.117101
-0.089774
-0.104506
-0.068851
-0.117462
-0.156253
-0.034215
-0.025896
-0.019979
-0.103040
0.088891
-0.026540
0.009997
-0.020410
-0.052249
0.068258
0.088973
0.004659
0.081879
0.035239
0.090209
-0.001041
0.012722
0.087914
0.065355
0.146390
0.110215
0.100031
0.092361
0.082274
0.034344
-0.041897
0.079837
0.018273
-0.034395
0.054743
-0.076335
-0.054870
-0.015464
-0.017733
-0.073247
-0.031455
-0.085881
-0.025901
-0.104083
-0.066199
-0.076424
-0.082816
-0.099864
-0.077512
-0.035142
-0.114133
-0.085571
-0.043498
-0.174916
-0.119021
-0.195524
-0.077861
-0.044287
0.024886
0.244545
0.579355
0.926747
1.186056
1.385099
1.266502
0.928047
0.591258
0.242766
-0.047061
-0.254472
-0.330361
-0.383489
-0.219415
-0.148704
-0.195809
-0.088165
-0.066777
-0.002615
-0.118514
-0.028407
-0.022281
0.022845
-0.022525
0.008373
0.025526
-0.065218
-0.028117
0.001473
-0.024240
0.081930
-0.017221
0.059011
0.074619
0.037619
0.110320
0.104513
0.113105
0.242215
0.231701
0.175049
0.303156
0.232764
0.239040
0.312555
0.412090
0.362099
0.338712
0.449593
0.383902
0.378432
0.444621
0.429747
0.408570
0.415773
0.374715
0.388700
0.358473
0.446077
0.426064
0.392397
0.411730
0.422373
0.324931
0.385209
0.288095
0.352762
0.215981
0.294066
0.202732
0.255835
0.141109
0.129883
0.120764
0.097647
0.169550
0.008905
-0.000621
0.102258
-0.008841
0.077060
0.006617
-0.019655
0.047864
0.000029
-0.062585
0.012567
-0.041632
-0.072788
-0.035974
0.004556
-0.072309
-0.000338
-0.046234
-0.012088
-0.043054
-0.091586
-0.034480
-0.116092
-0.116817
0.072180
0.002166
-0.051136
-0.005875
-0.076835
-0.052572
-0.010816
-0.098005
-0.072497
-0.029680
-0.024971
-0.006508
-0.079020
-0.054735
-0.007745
-0.105393
-0.098334
-0.060247
-0.060779
-0.045168
0.016456
-0.036586
-0.029107
-0.073301
0.000360
-0.056375
-0.101958
-0.084221
-0.095879
-0.042672
-0.030502
-0.027602
-0.091957
0.023965
-0.057720
-0.036639
-0.074836
-0.081369
-0.085801
-0.004892
-0.043671
-0.035580
-0.067579
0.006630
0.045900
0.046603
-0.088712
-0.028574
-0.032892
0.038548
-0.061311
0.033378
0.058930
0.053748
0.073811
0.046589
0.120369
0.109125
0.093939
0.157227
0.133736
0.224799
0.151871
0.163850
0.149500
0.202550
0.152317
0.119342
0.168029
0.157690
0.096215
0.123295
0.004845
0.098794
0.006885
0.034143
0.040338
0.094199
0.032608
-0.041840
-0.019221
0.041705
-0.035806
-0.044372
-0.009712
0.053522
-0.091920
0.026833
0.000393
0.004516
-0.058634
-0.068226
-0.024200
-0.049874
-0.106220
0.028775
-0.006010
0.006361
0.031071
0.171366
0.308117
0.733371
1.024936
1.276933
1.376065
1.264566
1.106202
0.789686
0.349940
-0.019284
-0.196902
-0.301587
-0.183328
-0.188918
-0.139493
-0.070120
0.032733
-0.069169
0.048141
0.004734
0.043306
0.053173
0.123811
0.076429
0.083969
0.046401
0.074033
0.103300
0.154243
0.105616
0.064401
0.209386
0.176793
0.262711
0.204502
0.327028
0.262285
0.203712
0.246590
0.384140
0.389633
0.396722
0.491211
0.411008
0.452575
0.509631
0.508763
0.460531
0.416333
0.538102
0.583854
0.518201
0.458210
0.564131
0.508659
0.549210
0.522757
0.529868
0.520061
0.524738
0.455567
0.478589
0.522856
0.466080
0.468524
0.466968
0.391610
0.475919
0.492079
0.345238
0.296064
0.315827
0.356620
0.292106
0.236780
0.140789
0.246986
0.224252
0.186848
0.185191
0.135295
0.098396
0.115284
0.082950
0.086978
0.114170
0.118162
0.145331
0.061677
0.084945
0.065180
0.057253
0.041892
0.114914
0.021047
-0.012767
-0.051168
0.077753
-0.045493
-0.075826
0.041054
0.123487
-0.032293
0.006195
0.062678
-0.009807
0.048599
0.122530
0.119410
0.010231
0.009233
0.105168
0.031965
0.052904
0.059773
0.083592
0.136996
0.060329
0.002157
0.087902
0.025210
0.062816
0.107395
0.073923
0.137036
0.110345
0.038596
-0.011415
0.086171
0.058275
0.072496
0.011675
0.036947
0.041515
0.047239
0.051668
0.056870
0.043370
0.054459
0.123449
0.082517
0.067312
0.096110
0.018466
0.100272
0.089008
0.039666
0.116184
0.082261
0.143892
0.071386
0.066966
0.125164
0.153773
0.155391
0.217974
0.126026
0.143717
0.230719
0.154063
0.280549
0.295214
0.214443
0.292667
0.259340
0.180855
0.259991
0.256039
0.257690
0.211362
0.273612
0.236191
0.210990
0.128313
0.177432
0.184643
0.177418
0.133688
0.089741
0.121591
0.090143
0.087695
-0.014526
0.147960
0.101829
0.131997
0.133568
-0.018289
0.153822
0.040460
0.115882
0.093254
0.014863
0.009245
0.109749
0.051002
0.011966
0.034202
0.128426
0.274531
0.457460
0.750704
1.051422
1.396071
1.478702
1.449203
1.122179
0.779311
0.361089
0.046240
-0.117795
-0.123967
-0.172957
-0.051174
-0.041751
0.081841
0.058156
0.067958
0.154369
0.155325
0.070372
0.231822
0.123805
0.130504
