0.033295
0.406925
0.120717
-0.060103
-0.006742
0.021155
-0.010375
-0.000403
0.324860
-0.071755
-0.206002
-0.111768
0.175141
0.256662
0.341718
-0.212609
0.086361
0.474591
0.064244
-0.175896
-0.098738
0.315634
-0.136990
-0.209186
0.250497
-0.086225
-0.105996
0.123276
0.263103
0.030649
0.893387
0.027364
0.145450
-0.111484
0.429889
-0.309852
0.282955
0.159267
0.318930
-0.329172
0.186983
-0.451574
0.690043
-0.013685
0.437125
-0.255485
-0.195407
0.100020
-0.304993
-0.355807
-0.066089
0.861413
0.028620
-0.460135
0.011325
-0.003003
-0.357119
-0.362355
0.019304
0.187703
-0.028759
-0.099396
0.139370
0.119208
-0.801544
-0.614167
0.473542
0.467266
0.364558
-0.081673
0.332065
-0.804386
0.194019
0.528999
0.041744
-0.423442
-0.040888
-0.076948
0.011109
0.855100
0.818869
0.569561
1.237247
0.547548
0.698391
0.285511
-0.047586
0.016367
0.792502
-0.621266
-0.710999
-0.190917
0.324549
-0.204062
0.360295
0.160438
0.356971
-0.567940
0.148247
0.171229
0.631569
0.238028
0.186744
0.009812
0.059658
0.452187
-0.449822
0.360136
0.278581
0.031143
0.039433
0.010216
0.596666
0.417170
-0.010239
-0.070207
0.148178
0.382811
0.072082
0.649629
0.194941
0.466223
0.669596
0.590931
0.261666
0.523765
0.618983
-0.079486
0.346903
0.200267
0.222062
0.204382
0.283318
-0.091929
0.940713
0.544535
0.004621
0.486589
-0.029996
0.396002
-0.302315
0.682365
0.171724
-0.000418
0.294237
0.222490
0.403985
0.188015
0.666380
0.352856
-0.380229
0.394584
0.219159
0.048446
0.092731
-0.205829
0.431278
-0.105342
0.651113
-0.343960
0.530817
-0.542686
0.537462
-0.166343
0.038997
-0.264774
0.076236
0.777943
0.279366
-0.223820
0.038769
0.353770
0.252433
-0.164982
-0.549752
-0.259823
0.044730
0.223116
0.438481
-0.272158
0.258701
0.142215
-0.199190
-0.035011
0.535647
0.298770
0.170904
0.308792
0.172667
-0.493842
0.086971
0.213709
0.143651
0.444346
0.176573
-0.082221
0.362127
0.628909
-0.127140
0.273839
0.130908
0.244122
0.368775
-0.023084
0.222893
-0.009572
0.178088
-0.524981
0.035087
-0.146788
-0.514101
0.353482
0.412608
0.195259
-0.009349
0.073870
0.018552
0.269482
-0.276115
0.221366
-0.016557
0.028123
0.183389
0.242698
-0.139026
0.066515
-0.214363
0.137044
-0.449354
-0.312028
0.018551
0.033223
-0.124333
-0.162870
-0.368151
0.019919
0.388275
-0.439313
0.142809
-0.126786
-0.027750
0.201865
0.115313
-0.187202
0.557155
0.453254
-0.021378
0.273466
0.114118
0.411298
0.226129
0.500668
-0.441556
0.287396
0.456974
-0.355545
0.393867
-0.633289
0.436149
0.123997
-0.070827
0.221737
-0.104585
-0.091006
0.311636
-0.237450
-0.155091
-0.201762
0.124532
0.224308
0.727190
-0.100639
-0.041596
0.201077
0.079276
-0.179185
0.749366
-0.093069
0.126208
-0.054635
-0.320190
0.246855
0.794733
0.891739
0.332613
0.271585
0.965760
0.045613
0.005150
-0.105790
0.378181
-0.342214
-0.295585
-0.314259
-0.481770
-0.033676
0.043836
-0.137588
-0.528675
0.172101
-0.102299
0.177111
-0.342839
0.085231
0.000145
0.123023
0.715075
0.201655
0.098818
0.222181
-0.072615
-0.005790
-0.322984
0.132930
-0.003161
-0.268093
0.393123
0.022804
0.300835
0.371917
-0.341597
0.381576
0.319854
0.021977
0.008215
0.907344
0.021745
0.423664
0.249912
0.742226
0.060645
0.454321
0.096407
0.486372
-0.484031
0.215181
0.427871
0.397635
0.328503
-0.275738
0.449977
1.093478
0.468930
-0.262760
-0.328702
0.584048
0.095697
0.536716
-0.216645
0.516403
-0.314109
0.494502
0.038248
-0.097369
-0.078753
0.339810
0.418288
-0.174021
-0.046293
0.609613
0.520281
0.190549
-0.274400
0.615852
0.543787
0.187089
0.068793
-0.150119
0.047979
0.141174
-0.122734
0.258103
0.490362
0.111729
0.351740
-0.493696
-0.146084
0.450967
-0.410358
-0.085557
0.150393
-0.272437
-0.466099
0.510529
0.113890
0.026208
-0.299282
-0.092116
0.029504
-0.319955
0.181149
-0.083974
-0.402974
0.303808
-0.409966
-0.164882
0.492446
-0.068506
0.781370
0.091028
0.008110
-0.377848
-0.453666
0.155679
-0.629641
-0.561496
-0.103612
0.443243
-0.645542
-0.095383
-0.280167
-0.076066
0.111013
-0.119337
0.381917
0.334722
0.075231
0.471427
0.281820
0.137097
-0.251214
-0.067087
-0.218801
0.460269
0.033009
0.402137
0.772753
0.481571
-0.134285
0.239841
0.264761
-0.232759
0.113170
0.524926
-0.287722
0.260162
0.809391
0.139006
-0.308282
0.601822
0.053152
-0.198183
0.488671
0.265012
-0.335022
-0.559881
0.164310
0.547605
-0.156992
-0.129719
0.550122
-0.341102
0.046428
-0.420244
0.513842
-0.223964
0.230995
0.267369
0.029333
-0.089163
-0.276389
0.525990
-0.293402
0.170239
-0.044476
0.085585
-0.493492
0.071311
0.227181
-0.295313
0.284330
0.589904
0.603096
-0.245789
0.019780
0.525656
-0.107861
0.446894
0.517875
-0.723652
0.245532
-0.160977
-0.312310
0.106166
0.648449
1.127782
0.680399
0.565645
0.495385
0.226977
-0.037785
0.454942
-0.169069
-0.512504
-0.822829
0.330195
-0.207962
0.021382
-0.694888
0.193382
0.501410
-0.106866
-0.425279
0.313092
0.141042
0.215257
0.545962
-0.194132
0.136091
0.161756
0.329271
0.063576
0.214170
0.119985
-0.624622
0.242747
-0.108679
-0.443958
0.687029
-0.586555
-0.195824
0.429857
0.358507
0.325278
-0.077530
0.611527
0.466817
0.143577
0.755815
0.340360
-0.056218
-0.389678
0.286666
-0.104780
-0.069386
0.376693
0.061560
0.858718
-0.252637
0.360005
0.170717
0.468625
-0.130676
-0.329499
0.030598
0.198164
-0.441773
0.756716
0.379658
-0.395453
-0.379701
0.084651
0.496419
-0.037361
0.181384
-0.048930
0.021339
0.479688
0.257845
-0.643526
0.491477
0.112659
0.581464
0.299358
0.214573
0.031008
-0.332386
0.442793
0.446006
0.551064
0.215695
0.360032
0.736399
-0.439962
0.194219
-0.074072
0.076118
0.090742
0.611229
-0.751548
0.563298
-0.008439
-0.145737
-0.304114
0.341172
0.074277
0.688559
-0.664736
-0.310556
-0.409268
0.069178
0.348902
-0.089449
-0.532348
-0.438912
-0.258219
-0.174557
-0.399983
0.198353
0.074899
-0.688025
0.110071
-0.034540
-0.607921
0.100265
-0.082477
0.102987
-0.905487
-0.286548
0.107330
-0.357080
-0.645610
-0.010789
0.397382
-0.298576
-0.162036
-0.152055
0.181316
0.175555
0.084720
-0.651250
-0.005232
-0.205276
-0.244759
0.278423
-0.411824
0.207252
-0.058795
0.130735
0.099236
-0.524167
0.197787
0.217397
-0.598919
-0.006294
-0.151023
-0.263595
-0.181081
0.291244
-0.425883
-0.263313
0.082650
0.418401
-0.293858
-0.320155
0.418663
-0.002599
-0.008757
0.001701
0.089895
-0.009856
0.412015
-0.104317
0.185506
0.287694
0.342393
-0.388735
0.003043
-0.276170
0.367042
-0.187474
-0.392229
0.323965
-0.207751
-0.732977
-0.741349
0.151222
-0.326200
-0.439619
-0.403557
0.478750
0.227874
-0.147769
0.316456
0.073656
0.533927
-0.175459
-0.222292
-0.176612
-0.121184
0.118867
-0.054484
0.114151
0.054709
0.437856
0.331710
0.645009
0.275294
0.442530
0.257438
0.315423
0.437289
0.555088
0.002781
-0.133513
-0.161895
-0.040480
0.001156
-0.493749
-0.041180
0.647545
0.202696
0.300635
0.408776
0.148587
0.520120
0.561344
-0.213530
0.170128
-0.260839
0.458703
0.017490
-0.083436
0.548364
0.396756
-0.513304
-0.363718
-0.137984
-0.131959
0.711177
-0.113478
-0.001062
0.969709
0.414614
0.258828
-0.017843
0.599255
0.264519
0.156921
-0.527899
-0.297525
0.314834
0.417058
-0.513936
0.069289
0.202896
0.305845
0.182251
0.911248
0.225715
0.458723
0.278313
0.709233
0.414140
0.646478
0.192602
0.153078
0.540152
0.174927
0.119644
-0.783659
0.171962
0.432132
0.391831
0.708582
0.353416
0.539142
0.423668
-0.189993
0.280921
0.395295
-0.132621
0.295825
-0.193752
-0.431766
0.666792
-0.472750
0.403809
-0.628855
0.101367
-0.107105
-0.078156
0.340204
0.309011
-0.427001
-0.469067
-0.418117
-0.457320
-0.521022
-0.282961
-0.376754
0.369016
-0.633355
-0.034750
-0.328987
-0.034333
0.197873
-0.531361
0.070578
0.296687
0.368557
-0.408307
0.128780
-0.074891
0.351308
-0.535273
-0.036902
0.000823
-0.063590
-0.121207
-0.335782
0.204254
0.110646
0.482433
0.780755
0.080360
-0.332000
0.424414
-0.068046
-0.028891
-0.031942
-0.398080
-0.010716
0.007415
0.015064
-0.104327
-0.024051
-0.532009
0.083872
-0.162564
0.090405
-0.080879
0.272518
-0.353507
-0.355139
-0.455824
0.899287
0.232768
0.349926
0.483823
-0.386718
0.039795
0.269493
0.283405
0.075419
-0.083782
0.009529
0.023549
-0.146318
-0.197702
0.108420
0.286694
0.114936
-0.703985
0.570161
0.519847
-0.553392
0.399486
-0.438426
0.495081
0.429437
0.122089
-0.077660
0.397514
-0.126972
-0.045456
-0.253138
0.493732
0.348883
0.199018
0.472112
-0.238882
0.249499
0.244541
-0.659587
0.183402
-0.398865
0.596704
-0.424140
0.245469
0.321101
0.155771
0.106918
0.285400
-0.032873
0.490791
0.722581
-0.440804
0.574620
0.232765
0.064744
-0.251410
0.235137
0.498783
0.293336
0.195406
0.715131
0.372665
-0.032657
0.261220
0.461515
0.860030
0.683342
0.316535
0.465686
0.543750
-0.428497
-0.345312
0.346468
0.056238
0.296808
0.056778
0.514146
0.813806
-0.120876
0.296639
-0.206801
0.054701
-0.186427
-0.145722
-0.209497
0.133497
1.100302
0.818523
-0.013344
0.090343
-0.186633
0.100448
0.267960
0.105174
0.170945
0.571851
0.527829
0.471166
0.187435
0.019594
-0.298016
0.049634
0.465928
0.202859
1.249763
0.324814
-0.535672
0.281949
0.197295
-0.331537
0.222662
0.249642
0.396682
0.756205
0.190306
0.446464
0.551440
-0.004072
-0.178984
0.153961
0.638622
-0.171350
-0.068900
-0.131228
0.289200
-0.216406
1.500000
0.323968
0.100378
-0.112598
0.203718
-0.172212
0.649325
0.080380
-0.339520
0.249667
-0.197582
-0.263890
-0.045439
-0.506940
-0.191573
-0.433366
0.296407
-0.020134
-0.517111
-0.018068
0.495218
-0.125444
0.080543
0.491040
0.481495
0.310814
0.109908
0.434444
0.687352
0.381437
0.391009
-0.173349
-0.056931
-0.181568
-0.250350
-0.048574
0.633697
-0.139397
0.280728
0.261607
-0.132211
0.141952
-0.540753
0.263673
-0.655283
-0.448419
0.356486
0.150030
-0.323535
0.675776
0.411184
-0.596612
0.085215
-0.024341
-0.353528
-0.163041
-0.121073
0.282879
0.169792
0.668996
0.425236
-0.084698
-0.193260
-0.030921
0.065843
0.086753
-0.133461
-0.345836
0.262159
-0.428050
-0.216131
0.108361
-0.597133
0.089263
-0.162342
-0.345990
0.011710
0.229919
0.005687
-0.545936
-0.134126
0.064383
-0.221371
-0.024679
-0.025933
0.085842
0.361784
-0.085434
-0.555656
0.074464
0.604495
-0.377102
0.344773
0.325258
-0.068919
0.045022
0.122942
-0.156057
0.621521
0.576688
0.237952
-0.021279
0.054576
0.780514
-0.322702
0.379663
-0.071404
0.300117
0.109514
0.138512
0.583720
-0.236660
0.738016
0.275605
-0.457648
0.207864
-0.045112
0.347379
-0.338656
0.125862
0.068241
-0.338137
0.432332
0.124347
0.022353
-0.266770
0.184092
-0.251981
-0.104748
0.073887
0.271013
-0.116551
-0.112111
-0.047123
-0.270777
0.434028
0.580136
0.572289
-0.238181
0.418877
0.438466
0.461881
0.439801
0.538967
0.998596
0.793744
-0.378742
-0.095295
-0.439689
-0.115270
-0.328675
-0.470436
-0.405975
0.469976
0.184860
0.691289
0.130853
-0.253297
0.125345
-0.113659
0.800884
-0.428958
-0.772960
-0.152416
-0.247975
0.456095
0.378051
0.058080
0.164571
-0.531353
0.495041
-0.101467
-0.044011
-0.543234
-0.355304
0.473904
-0.369748
0.045643
0.319183
-0.021458
-0.002310
0.587864
-0.322454
0.247017
0.324284
0.115614
0.111831
-0.350164
0.117414
0.436768
0.080737
-0.016437
-0.125567
0.410551
0.511009
0.058589
0.202501
-0.247803
-0.027047
0.152369
0.193562
0.604202
-0.475548
0.360470
-0.612071
-0.106539
0.137251
0.397621
0.510041
1.248475
0.427647
-0.154681
-0.294210
0.373694
0.484406
-0.155548
-0.021424
-0.133772
0.376136
0.356092
0.216118
-0.162835
0.188627
-0.112135
-0.058213
0.123365
-0.275494
0.054543
0.027126
-0.399243
-0.211438
0.417893
0.469541
-0.408886
0.118898
-0.067588
-0.158450
-0.205236
-0.087999
-0.043788
-0.849516
-0.064098
-0.813115
0.290025
0.058828
0.208592
0.089566
-0.608184
-0.173843
-0.121345
-0.970133
-0.320042
0.273418
-0.188250
0.010867
0.230525
0.002917
0.339009
0.069734
-0.007952
0.151907
0.761209
0.084525
-0.249510
-0.099882
0.086559
0.292930
-0.090671
0.077476
-0.593013
0.042802
-0.369066
-0.297662
-0.286757
-0.109668
0.456840
-0.297952
-0.001975
0.004551
0.054804
-0.078340
0.442648
-0.643953
0.165101
-0.233349
-0.426585
0.008961
0.237477
-0.455086
0.410260
-0.546681
0.472447
-0.012559
0.058288
-0.341239
-0.011314
-0.055253
0.015570
0.383475
0.196952
-0.202813
0.292020
-0.060087
0.130875
0.583619
0.150052
0.239246
0.113417
0.934676
0.323577
-0.533080
-0.914560
-0.436287
0.434405
0.678998
-0.308960
-0.292248
-0.135129
0.008403
0.012811
-0.044175
-0.034064
0.064220
0.130382
-0.142570
0.573949
0.439653
0.098434
0.056654
-0.494119
0.713188
-0.558488
0.538379
0.138474
-0.069478
0.237655
0.284969
-0.293898
-0.241657
-0.301489
0.704351
0.461569
-0.240143
0.439455
0.520900
0.749276
1.337842
0.124570
-0.103112
0.205850
-0.343224
0.048450
-0.181528
-0.073762
0.904046
-0.338287
0.059815
0.123107
-0.348872
-0.372182
-0.070942
0.378067
0.339314
0.101063
-0.288862
0.399292
-0.135325
0.039548
-0.223987
-0.162914
-0.216554
-0.443884
0.010779
-0.423851
0.113271
-0.107355
-0.293789
0.212791
-0.180470
0.089528
0.410133
0.199844
-1.233230
0.149359
-0.704899
0.020982
0.075351
0.337520
0.547259
-0.115062
0.305177
-0.384967
0.583726
-0.083671
-0.415538
-0.499155
0.065806
0.245621
0.408257
-0.521011
-0.343968
0.259219
0.690351
0.424352
0.032328
0.649612
-0.054670
0.021469
0.783308
0.175158
-0.264240
0.226452
0.541200
0.259085
0.566938
-0.134982
-0.107051
-0.432459
0.543966
0.035524
-0.477572
-0.314078
0.585841
-0.023835
0.471392
-0.190531
0.205106
0.277002
0.495570
0.179387
-0.492826
-0.406267
0.037962
-0.775171
-0.149338
-0.267764
-0.432118
-0.249869
-0.198781
0.117999
-0.439949
0.184217
-0.059038
-0.465897
0.060586
0.304125
-0.118504
0.358251
0.010245
-0.309206
-0.136523
-0.008860
0.271419
-0.189123
-0.118941
0.056050
-0.174062
-0.055137
-0.366667
-0.273851
0.118246
-0.460681
0.165408
-0.203363
0.435706
0.008390
0.173157
-0.085466
-0.439871
0.236849
0.005413
0.097439
-0.236728
0.098455
-0.324321
0.020060
0.219859
0.552406
-0.167256
-0.113791
-0.220752
0.453004
0.142481
0.197258
0.284261
0.276672
0.003752
0.763813
-0.237027
0.033928
0.385927
0.147746
-0.186792
0.491909
0.153337
0.280986
0.001289
-0.545491
0.471796
0.682780
-0.201896
0.442230
-0.189387
-0.018861
0.624413
0.114394
0.439389
-0.072168
0.389116
-0.247411
-0.079575
0.048038
0.009325
0.001316
-0.474208
-0.656881
0.216795
-0.010459
-0.580099
0.205701
-0.444883
-0.218661
0.476918
0.218394
0.220301
-0.003759
-0.238326
0.153612
0.263748
-0.138899
-0.111738
-0.861999
0.431670
-0.653786
0.333834
-0.459714
-0.185712
0.029803
-0.553132
-0.165632
0.338977
0.513115
0.434391
0.005607
0.472726
-0.292612
0.304755
-0.260496
0.856932
0.723533
0.604025
0.321505
-0.033457
0.525121
0.243171
0.365505
-0.505022
-0.382864
-0.082685
0.605684
0.343612
-0.300157
0.019834
0.163852
-0.040410
-0.338203
0.301598
-0.647730
-0.084187
0.138415
0.311733
0.216710
-0.120597
-0.059117
-0.061853
0.273317
-0.119514
0.306336
0.264029
0.045660
0.009844
0.103047
-0.174013
-0.756967
-0.086714
-0.759838
-0.029136
0.521224
0.453557
0.395768
0.300110
0.355527
0.554166
0.347400
0.882632
0.301576
0.610126
0.571419
0.248073
0.201559
0.656791
0.209148
0.294794
0.009104
-0.443337
0.245920
-0.194986
0.410941
0.946392
-0.060450
1.097432
-0.104372
-0.220884
0.468106
0.387208
0.093620
-0.150131
-0.129580
0.830667
-0.242197
0.202723
1.214213
-0.521542
-0.079511
0.067527
0.283352
-0.298013
-0.431405
-0.652499
0.510661
0.616492
0.202148
-0.376366
0.101849
0.029641
-0.706872
-0.750512
0.353431
0.294436
-0.122485
0.053044
-0.177268
0.051946
0.135044
0.269014
-0.158779
-0.163032
-0.299121
-0.285432
0.451559
0.010599
0.037119
0.334363
0.406480
-0.024043
0.016512
0.082405
-0.099817
0.201222
-0.281759
-0.930082
0.438594
0.272242
-0.240693
-0.899156
-0.128305
0.196102
0.442182
-0.356354
-0.242256
0.337959
0.014294
-0.504700
0.386200
0.154056
0.228474
-0.429021
0.507958
0.483456
0.318141
-0.363913
0.350973
0.253863
-0.377872
0.173924
0.270538
-0.753229
0.412478
0.527504
-0.174541
0.385694
-0.086297
0.245015
-0.110671
-0.521568
0.368891
-0.130069
0.243180
-0.099198
0.415706
0.128354
-0.043183
-0.065360
-0.192523
0.867046
-0.077051
0.140565
0.142968
-0.299227
0.193825
0.251664
0.297641
0.105455
-0.318399
0.246895
0.348437
-0.207097
-0.214023
0.793959
-0.203827
-0.650961
0.496324
-0.676673
0.645810
-0.332969
-0.503835
-0.200047
0.210320
-0.398830
0.390000
-0.187261
0.358216
0.602704
-0.488032
0.304443
-0.422541
-0.445508
0.218868
0.094710
-0.048246
-0.189378
-0.648423
-0.081655
-0.655210
0.135517
0.174543
-0.109350
0.551989
0.751460
1.176418
0.496475
1.385670
0.796193
0.334096
0.399413
0.384986
-0.462916
0.256059
0.293749
-0.053586
-0.260502
0.387462
0.348155
0.491987
0.258543
0.070599
-0.657188
-0.062024
-0.985909
0.443983
0.551172
0.124205
-0.049731
0.410567
0.427830
0.484088
0.018405
-0.047784
-0.043336
0.280688
0.380664
0.842149
0.066340
-0.004049
0.247193
0.678915
-0.172901
-0.080093
-0.006842
0.610205
1.113690
-0.520192
0.562071
-0.326430
0.414369
0.441969
-0.218383
0.195373
0.454733
0.241805
0.216799
0.708190
0.200459
-0.080220
1.310677
0.073921
0.177446
0.294580
-0.050766
-0.124086
0.150763
0.018025
-0.297664
0.240255
-0.011107
0.169622
0.676948
0.391246
0.161054
0.545728
0.158572
-0.084524
0.282818
0.207554
-0.437146
0.098500
-0.495723
0.473798
0.286829
0.041174
-0.705708
-0.127411
-0.546167
-0.369437
-0.615099
-0.264012
0.388062
-0.105853
-0.449881
0.325227
0.495725
-0.366387
-0.836981
-0.116541
-0.429184
0.093707
0.390481
0.551719
0.390489
-0.124244
-0.275085
-0.359315
0.317212
-0.167798
0.429865
-0.034554
-0.079665
0.171616
0.412142
0.594978
0.097016
0.471952
0.294873
-0.037884
-0.295046
-0.495221
0.050977
-0.706744
-0.441499
0.539800
0.511610
0.058738
0.446682
-0.649606
-0.809919
0.009296
0.180686
-0.207961
0.033121
-0.553041
-0.163037
0.470593
0.586114
0.050119
-0.398455
-0.036738
-0.542495
-0.136251
-0.913213
-0.050133
-0.124957
-0.444552
0.537856
0.024822
0.306916
0.051781
-0.481602
0.145100
0.269984
-0.169951
0.137563
-0.017674
-0.553783
-0.406960
-0.102218
0.522310
0.185633
-0.248961
0.095424
0.107263
-0.661251
-0.119169
-0.653507
0.061829
0.263786
0.095570
-0.120416
0.256828
0.483674
-0.110516
-0.349176
0.153241
0.516330
0.048597
0.134281
0.251131
0.275052
0.469747
0.551382
-0.158030
-0.212537
-0.419416
0.169899
-0.039368
0.282639
-0.128826
0.347778
0.143119
-0.728331
-0.453220
0.099916
-0.889361
0.036697
0.497467
-0.559239
0.635984
0.143962
-0.324569
0.016323
-0.351819
0.150825
0.381298
0.513414
0.655943
0.697797
0.390468
0.208801
0.273565
-0.061607
-0.483267
0.032412
0.110706
0.276010
0.234261
0.121304
-0.301970
0.125010
0.050268
0.005234
-0.001248
0.226146
-0.044753
0.098698
0.149935
-0.443557
-0.172272
-0.109293
0.390051
-0.087056
-0.231759
0.514699
0.571708
-0.845031
0.332507
-0.123288
0.052124
0.165327
0.122798
0.227222
0.486330
0.102611
-0.068403
-0.094642
-0.014723
0.024782
0.065460
-0.817131
-0.302358
0.082728
0.447731
-0.080373
0.055869
0.239086
0.020013
0.076279
0.611678
0.361737
0.228268
0.337894
-0.040969
-0.266042
-0.041803
0.604509
-0.044369
-0.120210
-0.125771
0.497785
0.104838
0.493423
0.319983
0.929052
-0.280108
0.340157
0.302055
0.223510
0.328464
-0.456009
-0.077779
-0.063981
0.292936
-0.702657
0.319276
0.159931
0.177754
0.464585
-0.093301
0.555730
-0.299241
0.164860
-0.062496
0.504955
-0.010092
0.222982
-0.151323
0.337744
0.148984
0.266096
0.297907
0.411310
-0.212225
-0.009352
0.140586
0.470134
-0.066254
-0.252046
-0.435603
0.116535
-0.512239
0.049827
0.255667
-0.405617
0.641568
0.443206
-0.267751
-0.386736
-0.199890
-0.775397
-0.564784
0.107433
0.326361
-0.127601
0.312515
-0.606663
0.195118
0.017751
-0.077443
0.178714
0.372761
0.329231
-0.774063
0.129656
0.545542
-0.900067
1.013783
-0.259718
-0.268416
0.159930
-0.414225
-0.013731
-0.325202
-0.258455
0.564489
-0.252845
-0.273503
0.440218
-0.019551
0.093859
0.095619
0.766706
-0.496332
-0.237634
-0.241752
-0.741175
-0.155159
-0.279161
-0.333045
-0.389768
0.006050
0.029796
0.120752
0.090863
0.282196
0.382941
0.172273
-0.100247
0.339230
-0.164398
-0.104747
-0.220302
0.115170
0.428182
0.165269
0.243050
0.213107
-0.030377
0.213068
-0.023351
0.108133
0.578995
0.373061
0.175218
0.381118
-0.461526
-0.641546
0.385267
-0.116766
0.734373
0.331067
0.290143
0.452614
-0.278182
-0.183707
-0.175829
-0.346210
0.119772
-0.350176
-0.375745
0.057618
-0.353634
0.384373
-0.016696
0.352703
0.350943
0.534438
0.144235
0.083954
0.252611
0.587944
0.589818
0.880357
0.249179
0.017426
-0.706897
-1.005762
-0.321249
0.296445
0.287867
-0.010115
-0.256472
0.169873
-0.338882
0.219601
0.290076
0.100626
0.125391
0.070758
0.112624
-0.350077
0.570401
0.107136
-0.003700
0.994066
-0.020205
0.480340
-0.380464
0.377662
-0.408562
0.311314
-0.381814
0.430032
-0.144551
-0.106512
0.875394
0.609118
-0.097016
-0.005159
0.226977
-0.059847
-0.026889
-0.040355
0.152874
0.608221
-0.244560
0.166985
0.175042
0.314224
-0.045314
0.262333
0.902642
-0.073926
0.176738
0.068546
0.416504
0.229646
-0.300666
0.590989
-0.112505
0.172598
0.363219
-0.015097
-0.338405
0.059776
0.227426
0.903821
-0.174469
-0.260981
-0.367945
-0.595094
0.111198
-0.261841
-0.397623
-0.411177
0.533140
-0.228756
0.124762
-0.376570
-0.589216
-0.685744
-0.301722
0.127513
0.215560
-0.167144
0.024204
0.051152
0.028823
0.637497
0.750437
0.780869
-0.031837
0.203825
0.256026
-0.649245
-0.254948
-0.150079
-0.453804
-0.549982
-0.090466
0.093649
0.142767
-0.156734
-0.012926
0.202254
-0.122057
-0.307816
0.057768
0.116374
-0.170119
-0.315914
-0.229376
-0.249775
-0.463094
0.612238
0.049746
-0.020410
-0.057376
0.207084
0.051017
0.013056
-0.757234
0.384157
0.016026
-0.038582
0.209666
-0.079016
-0.371406
0.297382
-0.213007
-0.310070
0.098739
0.028020
-0.015756
0.312834
-0.443770
0.053103
0.669594
0.199851
0.070266
0.273166
0.094435
0.308360
-0.306054
-0.321059
-0.057035
-0.528785
-0.023203
-0.183168
0.143120
0.329329
0.153531
0.026088
0.431528
0.408496
0.032338
-0.061450
0.513966
0.169442
0.310413
0.244193
-0.013736
0.744389
0.221175
-0.813584
-0.368669
0.242671
0.314095
0.218383
0.966527
0.407285
-0.012941
-0.427556
-0.337682
0.091042
0.215643
0.252191
0.323048
0.091696
-0.314146
0.084931
0.068131
0.164798
-0.162301
0.646565
-0.027568
0.315492
0.042351
0.355600
0.473692
0.179086
0.237008
0.073063
-0.193619
-0.142635
-0.232859
-0.462651
-0.455537
0.750462
-0.285282
-0.050979
0.771688
0.990558
1.300625
0.645594
0.096104
0.125489
-0.036863
-0.869231
-0.348848
0.268391
-0.315831
-0.184120
-0.023746
0.072449
0.167536
-0.322807
-0.736869
0.267185
-0.163053
-0.496575
0.061194
-0.222721
-0.037551
-0.184571
0.389575
-0.148216
-0.007954
0.125647
-0.132018
-0.507876
0.602237
0.087466
-0.264074
0.302328
0.507719
-0.128459
-0.118070
0.294258
0.051225
0.903723
-0.095448
0.404650
0.390822
-0.000848
0.716883
0.164264
0.442151
-0.353438
0.317412
0.334623
0.190705
0.254469
0.039850
1.090225
0.013884
0.700478
-0.018862
0.377495
-0.258759
0.697725
0.768349
0.786401
0.282041
-0.053994
0.402606
0.794671
0.188739
0.228369
0.006077
0.666814
0.046682
0.478394
0.615645
0.267118
0.959159
-0.236977
-0.007812
-0.149397
0.353571
0.307665
-0.630697
0.021150
-0.351166
0.656886
0.164686
0.300870
0.383899
-0.325463
0.701185
0.250220
0.455932
-0.045441
0.353021
0.667144
0.546135
0.042230
-0.175259
0.748911
-0.292903
0.119951
-0.207050
-0.183795
-0.488844
0.024328
-0.650887
0.396173
-0.298967
-0.187068
-0.187014
0.250644
-0.243132
0.026833
0.319110
0.690439
0.247063
0.193160
-0.764804
0.436627
-0.251469
-0.705713
-0.402603
0.202562
-0.514117
0.007038
-0.139306
0.266030
-0.136921
0.312882
0.717164
0.328508
0.188972
0.082424
-0.499040
-0.366498
-0.113830
0.154364
-0.046412
-0.056222
-0.322972
0.133330
0.234096
0.242515
-0.371839
0.537021
0.067121
0.005092
0.032964
-0.386248
0.328145
-0.508507
-0.073961
0.358885
0.743190
-0.147945
0.192419
0.326055
0.147467
0.006174
0.241370
0.397026
0.095885
-0.686346
0.222633
-0.045713
0.643286
0.145972
0.158204
-0.379780
-0.539530
-0.374469
1.013571
1.005284
0.502055
-0.036090
-0.570781
0.484081
-0.043243
0.015458
-0.446314
-0.787683
0.091520
0.732758
-0.079900
0.383667
0.231049
-0.070293
-0.002948
-0.006348
-0.072058
0.131413
