0.021712
0.023932
-0.069773
-0.049932
-0.006765
0.013096
-0.021148
0.022668
0.019506
0.002931
0.035716
-0.016674
0.017228
0.008973
0.045270
-0.082159
-0.000964
-0.047270
-0.025653
0.037545
0.076035
0.041194
0.045699
0.051951
0.087181
0.014569
0.010358
0.185355
0.180327
0.151543
0.077087
0.070879
0.041793
0.174599
0.087767
0.177384
0.183362
0.240727
0.184749
0.198753
0.110087
0.208853
0.292153
0.164611
0.211644
0.228978
0.199566
0.193894
0.230164
0.154224
0.243676
0.136631
0.186677
0.177207
0.106939
0.200236
0.048849
0.094043
0.104794
0.078167
0.034577
0.183394
-0.028049
0.084170
0.164167
0.061666
-0.000267
0.022239
0.001970
-0.003339
0.083557
0.127570
-0.009509
-0.048751
0.003620
0.034090
0.076489
0.056315
0.056902
0.049147
0.252716
0.545483
1.082824
1.205890
1.500000
1.413771
1.294130
1.008788
0.647750
0.281042
-0.035808
-0.170781
-0.172173
-0.180756
-0.099756
-0.040058
0.033445
0.026403
0.181136
-0.004343
0.127562
0.064229
0.102878
0.118560
0.046274
0.144531
0.060851
0.210046
0.126073
0.086486
0.278332
0.102070
0.184101
0.174306
0.285009
0.098251
0.277413
0.324041
0.351721
0.359039
0.307574
0.312350
0.400005
0.366257
0.416703
0.489410
0.485841
0.428528
0.504638
0.442854
0.573936
0.614276
0.569088
0.552251
0.598719
0.530165
0.622424
0.558230
0.607742
0.592668
0.551919
0.566765
0.580205
0.581157
0.492627
0.450633
0.554267
0.454089
0.443688
0.424459
0.429446
0.417603
0.331315
0.313050
0.287177
0.416187
0.359013
0.282191
0.265801
0.205502
0.237407
0.285203
0.189651
0.238944
0.149388
0.068593
0.135063
0.132368
0.183827
0.103554
0.153811
0.132407
0.079082
0.058907
0.041571
0.113871
0.089264
0.092771
0.138359
0.056600
0.131923
0.125725
0.128787
0.046367
0.091411
0.214231
0.073024
0.063012
0.016332
0.058427
0.118385
0.058878
0.161764
0.078701
0.092415
-0.014565
0.126308
0.079127
0.123834
0.097724
0.169176
0.034479
0.166351
0.110997
0.087585
0.133193
0.034379
0.112153
-0.029715
0.025272
0.118691
-0.001045
0.095446
0.097390
0.036322
0.045999
0.123960
0.048724
0.057447
0.108397
0.050373
0.100168
0.116707
0.100155
0.040904
0.076620
0.053846
0.029851
0.152623
0.056527
0.070280
0.135804
0.142395
0.156054
0.130447
0.136797
0.118316
0.090117
0.099764
0.120266
0.093085
0.213564
0.181035
0.161708
0.157747
0.184137
0.187422
0.292934
0.214677
0.301888
0.222121
0.197521
0.250293
0.326305
0.251635
0.122570
0.315473
0.312399
0.161132
0.169014
0.147418
0.180155
0.243939
0.208609
0.190879
0.176507
0.178981
0.154330
0.025910
0.065329
0.176558
0.123951
0.070608
0.036415
0.109528
0.107492
0.086534
0.119622
0.065612
0.055527
0.111562
0.059089
0.049637
0.039137
0.076900
0.033235
0.045011
0.080721
0.019927
0.065976
0.117950
0.286411
0.554305
0.847470
1.193348
1.454568
1.421169
1.281593
1.132481
0.757706
0.338671
0.045605
-0.160530
-0.272398
-0.218515
-0.052238
-0.103980
0.019143
0.011265
0.032034
0.022714
0.049931
0.084512
0.075410
0.128497
0.165378
0.175274
0.153162
0.130458
0.069212
0.129775
0.212100
0.147907
0.188912
0.210419
0.205630
0.234405
0.273707
0.249472
0.281437
0.316859
0.385552
0.368070
0.353363
0.317188
0.434556
0.398168
0.408701
0.488565
0.487768
0.522799
0.474862
0.563848
0.576103
0.505572
0.495977
0.588534
0.558180
0.625832
0.631603
0.450086
0.617272
0.480727
0.494118
0.504247
0.466484
0.533735
0.478464
0.378533
0.379789
0.452268
0.352172
0.368831
0.358298
0.323004
0.343731
0.278062
0.280363
0.299162
0.161769
0.245485
0.188489
0.193816
0.150073
0.140113
0.051153
0.086079
0.085022
0.162016
0.093335
0.138894
0.120802
0.078507
0.053573
0.037622
0.073074
0.020698
0.096688
-0.003496
-0.008095
-0.017517
0.040094
0.000172
0.017218
0.040226
0.072086
-0.009178
0.080700
0.000036
-0.026191
0.012837
-0.139996
-0.007758
0.043443
0.042625
-0.022761
-0.041280
-0.043460
0.036825
0.060324
-0.068149
-0.001579
0.042099
0.045066
0.031701
0.068025
0.063930
0.009055
-0.030755
0.013245
-0.001049
-0.092847
-0.027143
-0.022614
0.044900
0.005170
0.013049
-0.040309
0.043055
-0.083560
0.038562
-0.047015
-0.018839
-0.035317
-0.043741
-0.072189
-0.045503
0.073511
0.000961
0.035104
0.045427
0.000987
0.018236
-0.033375
0.016349
-0.018946
0.033899
-0.026651
0.076443
0.038361
0.047105
-0.032482
0.064988
0.052892
0.040410
0.074782
0.111512
0.034339
0.185243
0.095861
0.013447
0.196493
0.127698
0.094941
0.167581
0.149277
0.161563
0.156878
0.188000
0.201305
0.097105
0.166587
0.136609
0.091242
0.104522
0.085211
0.101352
-0.019467
0.050084
0.081285
0.057217
0.003380
0.059265
0.009605
0.004535
-0.023308
-0.069234
0.021966
-0.023883
0.011474
0.045067
-0.071488
-0.005410
-0.146574
-0.065057
-0.123042
0.025981
-0.088496
-0.035048
-0.172646
-0.086326
0.010969
0.152305
0.372977
0.632987
0.993897
1.357542
1.398388
1.291391
1.128540
0.763321
0.350493
0.050076
-0.190348
-0.260211
-0.304187
-0.203155
-0.147684
-0.094644
-0.090337
-0.007607
-0.017414
-0.084688
-0.131646
-0.040973
-0.031476
-0.114452
0.053324
0.013918
-0.013630
0.039177
0.069980
0.023612
0.142565
0.045078
0.072636
0.016720
0.132929
0.226864
0.206662
0.185788
0.104503
0.200583
0.265812
0.327446
0.304553
0.251936
0.351617
0.243866
0.389346
0.409258
0.315445
0.405732
0.446874
0.507160
0.415927
0.439760
0.485059
0.462180
0.493588
0.461883
0.413852
0.444836
0.524025
0.440886
0.464049
0.364121
0.385184
0.455214
0.355484
0.385226
0.285825
0.353751
0.279813
0.306263
0.238639
0.210497
0.230850
0.193530
0.161103
0.170410
0.065321
0.172409
0.030463
0.087713
0.058132
-0.031566
0.005369
0.012926
0.059760
0.003933
0.096955
0.091467
0.028035
-0.137013
-0.023330
-0.074273
-0.021600
-0.110038
-0.060080
0.042178
0.002473
-0.119152
-0.031615
-0.044623
-0.062670
-0.067456
-0.009258
-0.007270
-0.038719
-0.008703
0.012782
-0.019056
-0.044326
0.063043
0.002042
-0.008819
-0.065282
-0.091325
-0.067966
-0.031369
-0.067868
0.000132
-0.026901
-0.014835
-0.083383
-0.039374
-0.024427
-0.047609
-0.113796
-0.073713
-0.018586
-0.063811
-0.046276
-0.022956
-0.048986
-0.060120
-0.127240
-0.025452
-0.049100
-0.067125
-0.050573
-0.030543
-0.019913
-0.055333
0.013364
0.005454
-0.099183
-0.064335
0.060516
-0.060574
-0.066831
0.009364
-0.048905
0.061961
0.015781
-0.032143
-0.002873
-0.007043
0.035052
0.036919
0.069202
0.033017
-0.043382
0.094339
0.078960
0.045899
0.095089
0.090227
0.102347
0.174744
0.124038
0.109519
0.126271
0.142916
0.152655
0.179422
0.185963
0.178101
0.228102
0.117223
0.183128
0.107109
0.125452
0.100364
0.104818
-0.043126
0.038280
0.007318
0.091299
0.031581
-0.006046
0.035251
0.049569
0.025541
0.051855
-0.003026
0.056969
-0.008121
0.015651
-0.030535
0.002198
-0.011831
0.098152
0.041917
-0.058062
-0.075997
-0.032604
-0.024724
0.009969
-0.104417
-0.101334
0.001778
0.148537
0.278086
0.549589
0.981610
1.155459
1.402090
1.399017
1.197480
0.861093
0.456238
0.272108
-0.065808
-0.278401
-0.198539
-0.208883
-0.041879
-0.062536
0.041725
0.021674
0.065719
0.033062
-0.003408
0.038636
0.004040
0.036254
0.096733
0.095936
0.123538
0.133274
0.124900
0.094737
0.107212
0.101624
0.143715
0.146256
0.141716
0.261697
0.285916
0.230586
0.249430
0.336580
0.318295
0.266885
0.401449
0.357509
0.343904
0.450557
0.410147
0.458896
0.472032
0.480089
0.538411
0.466705
0.563027
0.497763
0.520562
0.612612
0.596684
0.479973
0.543312
0.551079
0.537858
0.520879
0.538992
0.518851
0.520518
0.466243
0.387741
0.411791
0.467386
0.501444
0.376543
0.333377
0.372463
0.388384
0.407127
0.368348
0.264348
0.298550
0.224072
0.237929
0.191507
0.194885
0.199036
0.168003
0.152996
0.115143
0.109794
0.197810
0.097524
0.141246
0.061226
0.209331
0.087298
0.054347
0.015015
0.038165
0.136818
0.117464
0.151222
0.035972
0.093446
0.060128
0.043499
0.093207
0.020311
0.119048
-0.013585
0.041431
0.000223
0.139511
0.009905
0.133739
0.089287
0.004620
-0.045990
0.040991
0.026444
0.077245
0.070811
0.060055
0.007145
0.081475
0.020001
0.116921
0.124584
0.091791
0.114498
0.117955
0.073136
0.014211
0.012518
0.097211
0.078695
0.051095
0.048151
0.024813
0.089380
0.056802
0.107186
0.075245
0.060772
0.074453
0.128730
0.043079
0.120235
0.086769
0.066101
0.133799
0.097883
0.112013
0.101310
0.087918
0.035819
-0.024652
0.121107
0.161558
0.149154
0.133472
0.122077
0.233025
0.188950
0.160029
0.262011
0.235564
0.202255
0.163337
0.280939
0.280454
0.250141
0.290627
0.312389
0.238331
0.294925
0.258193
0.281309
0.342951
0.254704
0.286513
0.236007
0.242087
0.292978
0.252987
0.225838
0.240998
0.170319
0.138681
0.146231
0.192745
0.195320
0.097925
0.097758
0.235985
0.120474
0.140622
0.117774
0.151586
0.140880
0.124670
0.103916
0.106324
0.132871
0.133105
0.122659
0.043268
0.087595
0.130269
0.048833
0.055619
0.016769
0.073492
0.138269
0.329583
0.679562
0.904368
1.283892
1.390675
1.423542
1.390378
1.047925
0.666914
0.306370
0.153454
-0.143054
-0.182891
-0.131921
-0.068253
0.019481
0.057165
0.142767
0.075948
0.097542
0.154264
0.174303
0.174975
0.069190
0.130188
0.141445
0.168108
0.165223
0.130313
0.244588
0.092137
0.237569
0.228119
0.243547
0.284157
0.203699
0.252369
0.337103
0.382929
0.288888
0.403492
0.398047
0.349155
0.388481
0.425870
0.476848
0.462666
0.529857
0.454927
0.554795
0.543763
0.616473
0.624141
0.698072
0.527461
0.619423
0.716888
0.663276
0.565294
0.603316
0.603793
0.523281
0.566730
0.552593
0.528998
0.555684
0.456796
0.578795
0.525537
0.483553
0.523056
0.457253
0.355585
0.414093
0.350683
0.416782
0.316522
0.370625
0.309430
0.372415
0.285203
0.257488
0.174066
0.209585
0.284273
0.192704
0.182630
0.196992
0.168920
0.176531
0.111364
0.139293
0.175850
0.106666
0.071155
0.093894
0.048688
0.136517
0.037730
0.065074
0.144124
0.049551
0.103562
0.122341
0.048124
0.066615
0.005087
0.092670
0.030702
0.083906
0.103263
0.103952
0.111165
0.054980
0.049132
0.093555
0.059754
0.071800
0.054534
0.094985
0.062720
0.018049
0.108845
0.086785
0.036327
0.088337
0.055779
0.030904
0.076139
0.128894
0.062435
0.089702
0.083515
0.050152
0.087733
0.093099
0.050704
0.029036
0.082118
0.084002
0.043542
0.036731
0.008723
0.105240
0.078202
0.023768
0.067207
0.027459
0.095923
-0.029800
0.057508
0.152002
0.080355
0.067188
0.145013
0.054205
0.122849
0.051393
0.134025
0.142884
0.114119
0.076654
0.187175
0.108177
0.165638
0.139611
0.171076
0.196294
0.176980
0.177193
0.235767
0.273708
0.162968
0.212531
0.257620
0.181594
0.273385
0.196840
0.194524
0.111753
0.068670
0.195559
0.200379
0.150573
0.116254
0.130241
0.163947
0.162560
0.195232
0.098438
0.115089
0.031360
0.081501
0.042939
0.106918
0.028236
-0.018428
0.058078
0.043403
0.113045
0.086928
0.119115
0.034534
0.065549
0.049906
0.037444
-0.082395
0.035187
0.004247
-0.058181
-0.005093
0.236561
0.411428
0.866848
1.052673
1.371474
1.403999
1.298944
0.964964
0.745646
0.274700
0.087112
-0.203290
-0.227019
-0.226917
-0.236746
-0.087145
-0.061097
-0.075458
0.050829
0.030187
-0.008387
0.020715
-0.015384
-0.005188
0.120290
0.008743
0.001683
0.015975
0.116427
0.073976
0.154078
0.018014
0.212849
0.179668
0.121848
0.149688
0.124509
0.240937
0.168292
0.248335
0.357964
0.228865
0.186523
0.307838
0.336428
0.354565
0.372468
0.455049
0.362906
0.532983
0.431130
0.471276
0.441841
0.480700
0.436855
0.476514
0.443849
0.519645
0.481739
0.569139
0.520869
0.498294
0.467734
0.421743
0.503409
0.447708
0.389718
0.345117
0.405132
0.393741
0.284476
0.314746
0.304085
0.308471
0.205653
0.259847
0.192853
0.123065
0.202686
0.126161
0.240496
0.040227
0.050587
0.032869
0.093596
0.079122
0.021644
0.100538
0.051181
0.013782
0.020857
-0.019218
0.012365
-0.071430
0.024771
-0.072422
-0.089630
-0.072225
0.050952
0.011255
0.065410
-0.068061
-0.066616
-0.064852
-0.031952
-0.042427
-0.162911
-0.032851
-0.046591
0.025783
-0.002896
-0.075554
-0.086670
-0.118798
-0.064423
-0.072597
-0.103142
-0.096453
-0.103794
-0.003049
-0.069877
-0.080005
-0.053821
-0.058729
-0.110292
-0.064557
-0.109733
0.012670
-0.094944
-0.060767
-0.130896
-0.020503
-0.084481
-0.073140
-0.053971
-0.073822
-0.070967
-0.060086
-0.033318
-0.091318
-0.151887
-0.148339
-0.109083
-0.039744
-0.035696
-0.093677
-0.098090
-0.099658
-0.071944
-0.021739
-0.104570
-0.043904
-0.021918
-0.099968
-0.005001
-0.056667
-0.054877
-0.054921
-0.039793
0.009459
0.032971
-0.001202
-0.034144
0.040744
0.095036
0.029733
-0.006540
0.101780
-0.012978
0.044367
0.123160
0.101172
0.129009
0.018773
0.064463
0.104812
0.055399
0.021685
0.108777
0.083196
0.097394
0.068127
0.053721
0.105299
0.037334
0.014773
-0.055284
-0.075252
-0.018710
-0.044339
0.009495
-0.007590
-0.080696
-0.017460
-0.054929
-0.069275
-0.038894
-0.195235
-0.076806
-0.029840
-0.051509
-0.131503
-0.206778
-0.115558
-0.099904
-0.164596
-0.015181
-0.193944
-0.127838
-0.095987
-0.043652
0.003430
0.274556
0.528172
0.875079
1.302095
1.350725
1.299032
1.051827
0.682588
0.379518
0.036875
-0.257766
-0.353550
-0.370968
-0.217169
-0.238156
-0.192333
-0.035410
-0.027905
-0.063858
-0.029476
-0.060833
0.025235
-0.067705
-0.111372
-0.040309
0.028570
-0.016345
-0.003446
0.086856
0.053216
0.004692
0.014052
0.097090
0.071514
0.106895
0.199839
0.094855
0.179804
0.215014
0.167453
0.179063
0.143657
0.216661
0.287666
0.277376
0.324412
0.357078
0.277421
0.408714
0.307082
0.393825
0.456088
0.422447
0.448963
0.473301
0.435618
0.510682
0.444125
0.466948
0.368562
0.470912
0.406985
0.465984
0.357968
0.348202
0.371027
0.362829
0.379240
0.336546
0.294492
0.282817
0.277590
0.169578
0.270585
0.211885
0.206932
0.103281
0.093075
0.079888
0.177086
0.094467
-0.018499
0.031371
0.016808
-0.028910
-0.003685
0.014124
0.095168
-0.054591
0.086013
-0.048245
0.008659
0.020837
-0.042554
0.022599
-0.061047
-0.034638
-0.031967
0.093337
-0.073694
-0.048023
0.026490
-0.041663
-0.026109
0.004853
-0.138914
-0.043233
0.012006
0.014166
-0.133361
-0.054391
-0.063535
0.000148
-0.032004
-0.091674
0.031525
-0.124904
-0.107427
-0.046645
-0.026093
-0.129362
-0.038501
-0.056253
-0.190625
-0.106084
-0.080467
-0.059920
-0.011529
0.015360
0.011989
-0.032768
0.005601
-0.057682
-0.021124
-0.023003
-0.029574
-0.064612
-0.015197
0.018059
-0.006552
-0.063558
-0.042053
-0.036600
-0.061810
-0.017377
-0.082836
-0.074466
-0.018089
0.028710
-0.115262
-0.022506
-0.025430
-0.016242
0.073928
-0.044793
0.007539
0.077934
0.020186
0.027770
0.099923
0.038787
0.156499
0.092152
0.127080
0.034865
0.190969
0.070411
0.184497
0.145035
0.137361
0.142762
0.126961
0.167763
0.129496
0.141110
0.163512
0.130379
0.149619
0.136053
0.205263
0.141992
-0.020885
0.101659
0.108112
0.069026
0.074720
-0.030878
0.058190
0.012369
0.019210
-0.020820
-0.005804
-0.019692
0.077510
0.045644
0.020331
0.053835
-0.006288
0.063038
-0.030791
-0.019360
0.018334
0.011503
0.001412
0.012134
0.014812
0.007578
0.016652
-0.025193
0.007645
0.100841
0.310483
0.616543
0.931911
1.252171
1.423716
1.373974
1.225527
0.956576
0.524884
0.135964
-0.031261
-0.211809
-0.291890
-0.222220
-0.113058
-0.097362
0.014932
0.042387
0.069482
0.049751
0.105596
0.076389
0.029413
0.095482
0.059301
0.060474
0.170480
0.109403
0.135855
0.090678
0.132446
0.120946
0.166581
0.180410
0.049876
0.168527
0.278506
0.285517
0.285268
0.257614
0.324110
0.305988
0.391366
0.348544
0.343366
0.405575
0.369899
0.484083
0.394872
0.489989
0.451416
0.463205
0.529528
0.480687
0.490312
0.491951
0.586314
0.499437
0.592709
0.590450
0.586238
0.463925
0.525947
0.505635
0.518435
0.496419
0.387227
0.426993
0.452685
0.356619
0.405167
0.326233
0.269119
0.238277
0.390115
0.299160
0.234928
0.177769
0.223354
0.250002
0.244472
0.228325
0.245365
0.235659
0.113691
0.064765
0.146899
0.153062
0.045993
0.109899
0.127581
0.064642
0.088719
0.021314
0.145497
-0.000733
0.096797
0.079132
0.003153
0.058712
0.011301
0.012947
0.029489
0.001722
0.078091
0.012286
0.061051
0.129160
0.084942
0.090950
0.109959
0.090984
0.088801
0.007548
0.009866
0.097220
0.037883
-0.010930
0.051539
-0.074113
0.077931
0.048295
0.040525
0.014647
0.098463
0.057965
0.010917
0.087749
0.060752
0.066146
0.046340
-0.012095
0.050005
0.006296
0.062817
0.001111
0.029714
0.075975
-0.003633
0.076833
0.137183
0.048319
0.035733
0.016615
0.071487
0.007391
0.091165
-0.049352
0.012556
0.028255
0.030474
0.055007
0.032347
0.003826
0.102396
0.091021
0.030798
0.067685
0.173705
0.071740
0.074834
0.078422
0.242811
0.088596
0.240965
0.214754
0.232194
0.223412
0.148371
0.240473
0.157791
0.185941
0.178608
0.198288
0.238691
0.231881
0.193051
0.238190
0.210524
0.272776
0.192865
0.095891
0.155324
0.157193
0.129952
0.111029
0.157777
0.151426
0.130008
0.215938
0.084097
0.035746
0.075138
0.040754
0.061194
0.012034
0.043957
-0.013392
-0.010446
0.088526
0.102528
0.051749
0.029364
0.075167
-0.020252
0.009611
0.004143
0.030846
-0.015758
0.032517
0.087981
0.306584
0.497944
0.814811
1.209281
1.451535
1.452665
1.308598
1.000143
0.692278
0.294075
-0.052610
-0.221698
-0.334851
-0.110853
-0.111396
-0.184887
0.001352
0.079758
0.094599
0.133888
0.014167
0.051602
0.029224
0.109978
0.041394
0.095365
0.066281
0.085231
0.061719
0.182969
0.144874
0.128972
0.097412
0.121854
0.211227
0.167568
0.201125
0.257430
0.206447
0.315897
0.288724
0.363068
0.289110
0.355176
0.401010
0.365951
0.372915
0.423808
0.482457
0.426253
0.593935
0.519586
0.493045
0.521285
0.460171
0.514159
0.516468
0.527426
0.484201
0.562870
0.602038
0.522069
0.524273
0.437781
0.358387
0.431777
0.485022
0.445681
0.425769
0.414339
0.306738
0.363005
0.375019
0.303708
0.394730
0.268636
0.237758
0.135725
0.105944
0.186095
0.127447
0.157321
0.161133
0.052027
0.167880
0.019283
0.002465
0.089770
0.131778
0.026826
0.099577
0.072963
-0.032701
0.041737
-0.031539
0.020674
-0.076438
-0.008252
0.017356
0.037175
0.031861
-0.034102
-0.058345
-0.027151
-0.021849
-0.058375
-0.088222
0.032156
-0.013055
0.021250
-0.006064
-0.077706
-0.007064
0.000618
-0.082629
0.025920
-0.011353
-0.015074
-0.066531
0.039791
0.050688
-0.034396
-0.003971
-0.029283
-0.062821
-0.023259
-0.036384
-0.065535
-0.114812
0.061554
-0.078717
-0.001259
-0.107796
0.026198
-0.050324
0.016997
-0.021187
-0.080331
-0.088366
0.030253
-0.013282
-0.090114
-0.031302
-0.034102
-0.104063
-0.044806
-0.090435
-0.095842
-0.054528
-0.096098
0.050870
-0.008855
-0.055687
-0.030457
0.041431
-0.002676
-0.001270
-0.010181
-0.025543
-0.007381
-0.045899
0.047085
-0.006004
0.016821
0.115307
0.066069
0.052393
0.129578
0.146046
0.173017
0.097267
0.052848
0.103469
0.139406
0.096412
0.132964
0.057059
0.157925
0.108137
0.054334
0.082886
0.100901
0.018036
0.043739
0.022378
0.071330
0.084229
0.041685
-0.020641
-0.029298
0.032887
-0.013627
-0.036230
-0.024663
-0.079690
-0.085439
-0.057619
-0.036183
-0.106031
0.008041
-0.042072
-0.050527
-0.044200
0.032680
-0.077926
-0.126898
-0.023952
-0.047800
-0.139303
-0.089742
-0.002643
0.105311
0.375890
0.672975
0.978943
1.256666
1.287044
1.199760
0.967368
0.614496
0.265677
0.020386
-0.211426
-0.341437
-0.370129
-0.209328
-0.228797
-0.130501
-0.154045
-0.083043
-0.144156
-0.068824
-0.110582
-0.023571
-0.065966
-0.009019
-0.014029
-0.065491
-0.066997
-0.005138
-0.037872
-0.002179
-0.009525
0.062608
-0.034835
0.110512
0.128516
0.030782
0.116328
0.083547
0.073903
0.216031
0.131815
0.168692
0.201364
0.220044
0.330604
0.230838
0.356129
0.319731
0.275653
0.375845
0.273461
0.401118
0.375347
0.580182
0.365876
0.414329
0.372898
0.373126
0.362461
0.447896
0.337350
0.352411
0.381767
0.362218
0.409605
0.409757
0.272517
0.300468
0.377036
0.293469
0.319955
0.266102
0.190813
0.128468
0.177240
0.134978
0.159739
0.071624
0.127560
0.034565
0.006484
0.023428
-0.008670
-0.029898
-0.020369
-0.048135
-0.008443
0.020289
-0.061841
-0.019693
-0.060097
-0.077566
-0.134343
-0.075480
-0.122796
-0.173249
-0.015294
-0.097437
-0.034162
-0.102473
-0.039666
-0.076979
-0.055570
-0.044140
-0.038130
-0.112097
-0.017053
-0.146938
-0.152417
-0.130849
-0.047830
-0.103453
-0.102971
-0.124065
-0.104105
-0.157804
-0.037462
-0.146278
-0.150316
-0.069468
-0.143732
-0.020535
-0.145943
-0.178815
-0.123662
-0.032811
-0.091781
-0.119311
-0.091974
-0.057947
-0.148313
-0.091300
-0.088070
-0.138608
-0.132486
0.041777
-0.044579
-0.085562
-0.155575
-0.071193
-0.057892
-0.031713
-0.050441
-0.085363
-0.145544
-0.113952
-0.069044
-0.081052
-0.144917
-0.065951
-0.106196
-0.092576
-0.100490
-0.001291
-0.081297
-0.066882
0.002754
0.011481
-0.003928
-0.023589
0.064976
-0.007591
0.084296
0.055297
0.046912
0.015222
0.053381
0.161287
0.113120
0.132740
0.040842
0.079229
0.093659
0.089841
0.107969
0.130651
0.085171
0.022269
0.080332
0.048780
0.099747
0.108500
0.078822
-0.004959
-0.029642
0.032707
-0.096139
0.052600
-0.003256
-0.048851
-0.099387
-0.038671
-0.018096
-0.085490
-0.124710
-0.050533
-0.069888
-0.115770
-0.081717
-0.097276
0.009621
-0.055250
-0.033848
-0.034731
0.013402
-0.126249
-0.065871
-0.045421
-0.090752
-0.101064
0.058168
0.267452
0.485668
0.886766
1.274718
1.412409
1.296803
1.077457
0.761470
0.383440
0.079990
-0.177547
-0.282380
-0.250902
-0.233055
-0.126886
-0.193002
-0.120333
-0.071938
-0.001267
-0.000063
-0.022273
-0.044149
-0.015703
-0.021634
-0.068172
0.030413
-0.013572
-0.018689
0.103825
0.034132
0.062694
0.055833
0.019937
0.148360
0.047882
0.201394
0.139918
0.151102
0.213004
0.242604
0.246994
0.329248
0.172395
0.219016
0.310303
0.315701
0.376687
0.309525
0.326698
0.464031
0.383094
0.451068
0.489334
0.450568
0.412112
0.424440
0.452541
0.414107
0.484970
0.460919
0.482510
0.480283
0.475261
0.381249
0.448430
0.454472
0.386368
0.330952
0.395494
0.385963
0.357959
0.333376
0.309512
0.283245
0.331200
0.281320
0.184063
0.220991
0.152724
0.093830
0.093907
0.094424
0.166529
0.104567
0.153636
0.119674
0.083689
0.089082
-0.021335
0.041472
0.059226
0.014652
0.013431
0.044106
0.018868
-0.021630
0.033262
0.025537
0.004999
0.009282
-0.033171
-0.064103
-0.057938
-0.022690
-0.022268
-0.030783
-0.026549
-0.005978
-0.049659
-0.017680
-0.061774
-0.042055
-0.023473
0.020745
0.002865
0.017445
-0.025551
-0.045240
0.020096
0.031156
-0.008156
0.091672
-0.051570
0.018354
0.067767
0.015112
0.055235
-0.021815
0.034004
0.159718
-0.026652
0.099271
0.022680
0.073112
-0.008891
-0.053255
-0.030276
0.055729
0.000326
-0.012912
0.045107
-0.002066
0.020006
0.011961
0.099707
-0.008074
0.021553
0.055790
0.050991
0.048386
0.018962
0.035180
0.082216
0.126591
-0.017664
0.020143
0.009243
0.053270
0.121189
0.169927
0.096434
0.148631
0.153026
0.173874
0.149877
0.163116
0.149481
0.116419
0.186553
0.224287
0.212325
0.277747
0.203261
0.243969
0.194898
0.243955
0.271906
0.203501
0.274050
0.175764
0.263759
0.164661
0.118189
0.200751
0.221372
0.148554
0.055932
0.131737
0.078299
0.101730
0.143281
0.090358
0.092368
0.150525
0.008055
0.093236
-0.068434
0.089194
0.096271
0.094822
0.040445
0.027996
0.017959
0.093977
0.073904
0.095572
0.071113
-0.006663
0.023862
0.038949
0.204733
0.342143
0.627622
0.850451
1.219871
1.422667
1.449226
1.298914
0.927255
0.563489
0.197394
0.021818
-0.182011
-0.189727
-0.137289
-0.087383
-0.022219
0.065441
0.060348
0.066544
0.119013
0.066344
0.026177
0.178581
0.168413
0.119452
0.068476
0.187100
0.198355
0.265856
0.116034
0.172996
0.202841
0.207181
0.235912
0.235708
0.285877
0.207731
0.314206
0.271478
0.244013
0.300316
0.329644
0.446478
0.395545
0.414661
0.469352
0.420440
0.462080
0.572350
0.514790
0.497940
0.529920
0.606209
0.717913
0.595273
0.611797
0.584226
0.553468
0.538695
0.561066
0.566461
0.599667
0.510651
0.535693
0.504822
0.536365
0.471403
0.421248
0.518834
0.504790
0.400454
0.418651
0.368474
0.417135
0.337939
0.348513
0.298665
0.299577
0.330525
0.261248
0.269320
0.277705
0.166241
0.177215
0.113482
0.208220
0.130021
0.121505
0.117687
0.140891
0.159592
0.120169
0.155215
0.147455
0.080823
-0.011040
