0.020972
0.020513
0.147867
0.037736
0.056626
-0.017553
0.013252
0.012285
-0.114692
0.054144
0.028743
-0.018133
0.021420
0.061256
0.000505
0.029045
-0.000730
-0.021319
-0.000229
-0.055990
0.086261
0.045112
-0.004438
0.000384
0.061962
-0.035538
0.026695
0.096011
0.067839
-0.017237
0.004193
0.038389
0.073995
-0.011275
0.033395
-0.016996
0.024949
0.127027
0.038300
0.037217
0.125366
0.140748
0.141364
0.098355
0.206281
0.128192
0.069858
0.188324
0.261340
0.214218
0.210801
0.172626
0.215347
0.253423
0.172472
0.230566
0.248806
0.172478
0.116855
0.146131
0.092536
0.109572
0.187374
0.186808
0.206482
0.038804
0.087287
0.110945
0.074857
0.089008
0.054269
0.110929
0.066308
0.053372
0.064075
0.120377
-0.052884
0.031201
0.111121
0.035364
-0.005192
0.052913
0.062459
0.020108
-0.011682
0.066156
0.129896
0.001843
0.048864
0.076673
0.109219
0.034578
0.034479
0.054626
0.042345
0.030516
0.004764
0.078219
0.083968
0.281158
0.673039
1.002785
1.211872
1.493683
1.486810
1.265386
1.004914
0.652870
0.387485
0.102376
-0.051431
-0.192343
-0.276284
-0.150495
-0.049160
-0.065093
0.013044
0.086846
0.008840
0.037854
0.056786
0.073714
0.046741
0.066703
0.019997
0.097049
0.024562
0.094261
0.092830
0.175570
0.144740
0.031022
0.016132
0.119213
0.095544
0.207164
0.114615
0.139317
0.092099
0.145004
0.236694
0.113670
0.126828
0.214537
0.227757
0.212789
0.172359
0.275371
0.301458
0.360197
0.283345
0.352850
0.332541
0.360279
0.375372
0.495812
0.515846
0.494233
0.500812
0.526971
0.533762
0.532623
0.565526
0.613773
0.544258
0.542415
0.660932
0.535817
0.522970
0.612853
0.570835
0.601634
0.571655
0.569839
0.532436
0.615800
0.504967
0.496931
0.467865
0.430596
0.481790
0.424118
0.452289
0.366895
0.389945
0.346728
0.395521
0.287459
0.256107
0.204706
0.280185
0.270811
0.233740
0.152229
0.150966
0.081523
0.184953
0.116629
0.228028
0.123384
0.130906
0.122963
0.160478
0.126581
0.089787
0.195216
0.098376
0.136363
0.093528
0.093561
0.141056
0.080344
0.094360
0.092674
0.159487
0.135692
0.145056
0.061299
0.050487
0.106731
0.099371
0.068198
0.074354
0.011348
0.019466
0.142669
0.085587
0.017367
0.058739
0.127012
0.085598
0.024232
0.065485
0.016997
0.107494
0.050332
0.067876
0.104502
0.077833
0.076497
0.106772
0.109098
0.089607
0.104123
0.027525
0.093999
0.092027
0.013252
0.045799
0.023914
0.029490
0.006524
0.105614
0.056821
0.074608
0.072064
0.067655
0.089086
0.101170
0.066590
0.031034
-0.017457
0.085172
0.090155
0.093027
0.082114
0.090856
0.126719
0.045308
0.022679
0.071642
0.078000
0.041873
0.022175
0.048604
0.099306
0.128286
0.075671
0.119807
0.008919
0.017890
0.089504
0.053944
0.036290
0.086091
0.055425
0.085364
0.085724
0.106767
0.041249
0.033411
0.107529
0.173555
0.132550
0.174532
0.173940
0.048300
0.146604
0.197909
0.149571
0.164797
0.208863
0.089995
0.169652
0.193556
0.178069
0.228288
0.236177
0.213660
0.227328
0.257185
0.175103
0.232745
0.228171
0.284476
0.283517
0.135761
0.184826
0.187974
0.197512
0.177185
0.121966
0.137561
0.105618
0.144270
0.091939
0.040675
0.137686
0.116485
0.026072
0.061832
0.048346
0.091086
0.055125
0.051196
0.092024
0.079642
0.067972
0.025541
0.061315
0.051703
0.084452
0.037851
-0.002430
0.090506
0.113208
0.075582
-0.009732
0.030420
0.050451
0.067997
0.067090
-0.072392
-0.041745
-0.069749
0.018952
0.007359
0.186097
0.382475
0.719079
1.117779
1.385057
1.467547
1.374047
1.191027
0.865367
0.558150
0.225658
0.110823
-0.250069
-0.365155
-0.207385
-0.169795
-0.087586
0.023837
-0.025893
0.053494
0.083241
0.036747
0.062572
0.087514
-0.025341
-0.048048
-0.005150
0.069743
0.048969
0.065564
0.072739
-0.005620
0.010269
0.109423
0.078663
0.164743
0.014079
0.037710
0.080093
0.067680
0.052599
0.162508
0.028518
0.074287
0.195130
0.189963
0.216420
0.137886
0.257201
0.261272
0.293401
0.188407
0.315240
0.225067
0.309913
0.313662
0.333612
0.290551
0.375852
0.368508
0.374132
0.420996
0.515180
0.420103
0.518779
0.491248
0.465080
0.417124
0.457304
0.568579
0.536208
0.515293
0.477862
0.466764
0.422508
0.520916
0.435713
0.404156
0.419861
0.489644
0.373413
0.430800
0.354556
0.375808
0.329494
0.264895
0.252135
0.238913
0.289262
0.195343
0.172499
0.154161
0.121481
0.196166
0.192000
0.056653
0.098492
0.128698
0.055481
0.019305
0.125644
0.115706
0.076065
0.009080
0.070588
-0.079694
-0.055415
0.035864
0.023288
0.000286
-0.002871
-0.054251
0.061973
-0.010309
-0.005432
-0.059096
-0.022863
-0.003109
0.003292
-0.010536
-0.004318
-0.134461
0.030572
0.026947
-0.080379
-0.043140
0.012234
-0.029145
-0.048454
0.007475
0.056899
-0.077981
-0.060966
-0.031517
-0.041189
-0.145980
0.050253
-0.074186
-0.050280
-0.035126
-0.098042
0.013182
-0.036876
0.012460
-0.053083
-0.003822
-0.036342
0.034335
-0.050671
-0.119056
-0.064153
0.009983
-0.005793
-0.088872
0.001958
-0.030138
-0.023114
-0.064534
-0.070251
0.117441
-0.012848
0.037494
0.008752
-0.089475
-0.102079
-0.016693
-0.071798
-0.126734
-0.031667
-0.092801
-0.068009
-0.074058
-0.059823
-0.058081
-0.041902
-0.025069
0.003160
-0.063606
-0.023530
0.006305
-0.015131
-0.087806
-0.031718
-0.112008
-0.073592
-0.031654
0.006264
-0.067717
0.006893
-0.037370
0.022094
0.029891
-0.015331
0.013249
0.060177
0.057725
0.024173
0.024151
0.033416
0.011146
0.039369
0.154191
0.032545
0.033680
0.047288
0.049207
0.130229
0.166612
0.079283
0.049467
0.193858
0.133192
0.113037
0.143742
0.134251
0.130570
0.075748
0.146129
0.154359
0.130192
0.049143
0.001051
0.010491
0.038344
0.132380
0.103579
-0.024250
0.021100
0.093796
-0.036816
0.063316
-0.009233
-0.048684
-0.068582
-0.008181
-0.040761
-0.044608
0.005564
-0.003464
-0.026238
-0.027988
-0.005783
0.011744
-0.028230
-0.112701
-0.013636
-0.064064
0.035872
-0.041837
-0.003105
-0.113265
-0.116102
-0.050992
-0.045136
-0.102398
-0.039140
-0.127916
-0.133047
-0.078706
0.195144
0.493448
0.826645
1.068492
1.309748
1.333199
1.211244
1.050097
0.602259
0.294544
0.083063
-0.201269
-0.270055
-0.353407
-0.302741
-0.216860
-0.183445
-0.079100
-0.050428
-0.029764
0.040554
-0.056889
-0.010150
-0.039400
0.039283
0.014228
-0.057352
-0.041988
0.024198
-0.028768
-0.150643
0.017599
0.015451
0.074867
0.026145
0.027230
-0.023366
-0.037799
0.056671
0.012609
0.078269
0.027386
0.112298
0.087485
0.073064
0.061140
0.166926
0.127803
0.161895
0.220902
0.250095
0.189576
0.337049
0.243952
0.261421
0.279848
0.335164
0.402963
0.306703
0.292588
0.426107
0.511519
0.455471
0.385941
0.468784
0.504683
0.485001
0.483609
0.481172
0.465157
0.529327
0.509789
0.434785
0.463756
0.405271
0.452400
0.465402
0.423514
0.404830
0.478539
0.369341
0.411505
0.380187
0.275017
0.272203
0.353598
0.244037
0.264587
0.259985
0.218689
0.124080
0.190750
0.220575
0.155431
0.143891
0.113681
0.124719
0.056357
0.059202
0.099816
0.088826
0.082372
0.081670
0.100741
0.007632
0.070216
0.033856
0.111029
0.024248
-0.035535
0.043145
0.004019
0.024043
0.021312
0.082376
0.033903
-0.061462
0.076439
0.032045
-0.020764
0.006001
0.046201
0.083147
0.011585
0.026937
0.057370
0.030438
0.078209
-0.027607
0.054909
0.061708
0.046311
0.006411
0.053796
0.028180
0.020721
-0.031328
0.115803
0.073651
0.092976
0.055606
0.042439
0.040949
0.071167
0.086672
0.062654
-0.007529
-0.025014
0.020713
0.033082
0.045716
-0.057066
0.054650
0.082205
0.020392
0.039200
0.071780
0.078203
0.017202
-0.015296
0.098663
0.047251
0.040133
0.098569
0.093865
0.085654
0.067323
0.071283
0.033396
0.056168
0.066777
0.153807
0.078356
0.065921
-0.022759
0.049746
-0.013265
0.093946
0.069722
0.055022
0.069312
0.117439
0.046434
0.050959
0.034993
0.022610
0.038397
-0.018926
0.082169
0.110258
0.094781
0.082918
0.057627
0.019440
0.071926
0.108751
0.189462
0.158746
0.148709
0.186383
0.161846
0.169090
0.272828
0.110122
0.211495
0.213035
0.192062
0.229730
0.238349
0.209266
0.235052
0.403660
0.310715
0.255034
0.203590
0.223028
0.200237
0.252214
0.308813
0.232852
0.240483
0.185868
0.177452
0.262355
0.206829
0.143928
0.119865
0.148506
0.035086
0.099727
0.159898
0.096134
0.058634
0.111467
0.010305
0.081458
0.129411
0.019364
0.043518
0.039137
0.065377
0.008834
0.030979
0.017638
-0.008192
0.092309
0.111839
0.052100
0.003875
0.057369
0.085556
0.073738
0.060647
0.004568
0.074741
0.080932
0.014005
0.038826
0.249940
0.344884
0.661899
1.061438
1.306959
1.478386
1.447690
1.287548
1.088422
0.649603
0.297103
0.061126
-0.162449
-0.197551
-0.115896
-0.202583
-0.104691
-0.018524
0.084531
0.089868
0.092223
0.020602
0.099912
0.104031
0.023548
0.105650
0.074225
0.122786
0.062552
0.123491
0.190812
0.058093
0.146216
0.092222
0.039443
0.112077
0.113836
0.155613
0.129869
0.200425
0.198677
0.197976
0.177602
0.165548
0.155918
0.213413
0.267752
0.195001
0.223748
0.223939
0.255247
0.335055
0.280756
0.333137
0.395918
0.476588
0.437608
0.457715
0.487700
0.488418
0.522513
0.538936
0.553412
0.551816
0.602831
0.546464
0.635100
0.551787
0.630864
0.635449
0.560647
0.593243
0.687224
0.559479
0.642763
0.480538
0.554514
0.528050
0.568365
0.365014
0.482412
0.435977
0.488907
0.455116
0.473079
0.371687
0.393146
0.318777
0.378451
0.335135
0.281761
0.279465
0.345659
0.247393
0.200471
0.225270
0.213578
0.153345
0.198309
0.197849
0.166067
0.152888
0.185852
0.137960
0.162925
0.292857
0.148318
0.018929
0.127465
0.112609
-0.005810
0.071975
0.079044
0.065452
0.076999
-0.007792
0.130533
0.040938
0.081314
0.119482
0.108334
0.141666
0.099943
0.120621
0.063248
0.068763
0.057593
0.069328
0.114722
0.053867
0.093947
0.108540
0.082834
0.141362
0.040165
0.028402
0.016769
0.064082
0.061885
0.091449
0.049285
0.102265
0.101715
0.018335
0.076696
0.036954
0.138993
0.041066
0.100422
0.082525
0.098308
0.021886
0.070311
0.042805
0.012390
0.006499
0.095273
0.066726
0.057338
0.054309
0.129290
-0.005032
0.125806
0.080230
0.049312
0.080383
0.022974
0.082697
0.031570
0.138331
0.076839
0.067256
0.134490
0.016180
0.124508
0.106511
0.025052
0.102306
0.104997
0.070288
0.093852
0.095001
0.101054
0.029107
0.054862
0.097611
0.041846
0.003781
0.091012
0.096830
0.147097
0.135976
0.067196
0.045375
0.132540
0.191398
0.051601
0.079260
0.123080
0.121150
0.102883
0.121023
0.062399
0.185461
0.096333
0.087172
0.186163
0.206022
0.144167
0.309032
0.236228
0.283620
0.231895
0.186319
0.153420
0.291204
0.147591
0.186731
0.181914
0.119464
0.190027
0.189873
0.135178
0.090637
0.086102
0.094024
0.140461
0.146287
0.140125
0.067973
0.079766
0.115780
-0.025735
0.059084
0.035865
0.044026
0.080419
0.015357
0.030433
0.054545
-0.025576
0.014678
0.028321
0.106353
-0.013075
0.030929
-0.035570
-0.002516
0.104962
0.108473
-0.057319
0.037746
0.037496
0.096441
-0.018589
0.018832
-0.107485
-0.130151
0.013245
0.236756
0.428714
0.760882
1.108999
1.291142
1.428461
1.268892
1.080115
0.803980
0.436794
0.018718
-0.106641
-0.268767
-0.235308
-0.331767
-0.256720
-0.148515
-0.001588
-0.032455
0.062820
-0.055081
-0.007290
-0.025821
0.040141
-0.012278
-0.059710
0.012491
-0.020530
0.023975
0.016715
0.060938
0.110550
0.010262
-0.099315
-0.003733
0.066896
-0.032651
-0.019857
0.043472
0.082050
0.012983
0.051066
0.085571
0.116890
0.160145
0.148008
0.192625
0.090640
0.117442
0.244629
0.205246
0.231147
0.162486
0.333161
0.261218
0.335837
0.404614
0.296722
0.389458
0.409073
0.367211
0.320792
0.408774
0.468980
0.421226
0.446099
0.517153
0.510645
0.503835
0.418713
0.437077
0.454642
0.445966
0.441006
0.410286
0.388650
0.442119
0.422828
0.385158
0.355564
0.342203
0.342891
0.361971
0.282287
0.224941
0.229660
0.254959
0.302756
0.212615
0.214173
0.067652
0.191297
0.150643
0.043541
0.134180
0.107288
0.031300
0.091327
0.001660
-0.012520
0.011741
-0.033493
0.046594
-0.017034
-0.055132
-0.091194
-0.024979
-0.066806
-0.035162
-0.048101
-0.164672
-0.011589
-0.040188
-0.031674
-0.082844
-0.091004
-0.074525
0.002277
0.030139
-0.046442
-0.053878
-0.102504
-0.055626
-0.017112
-0.112924
-0.074653
-0.093941
0.010778
-0.035705
-0.011769
-0.082106
-0.094717
-0.045132
-0.068493
-0.008772
-0.064209
-0.084891
-0.129420
0.011420
-0.054059
-0.131057
-0.158417
-0.108206
-0.042624
-0.101637
-0.047344
-0.092571
-0.181132
-0.071847
-0.066199
-0.048604
-0.131776
-0.128214
0.045821
-0.084549
-0.093420
-0.055850
-0.079646
-0.058589
-0.033337
-0.064718
-0.088196
-0.079443
-0.066388
-0.150898
-0.096691
-0.143705
-0.172545
-0.027943
-0.106136
-0.146070
-0.033052
-0.043040
0.034535
-0.029983
-0.103452
-0.082447
-0.193233
-0.118456
-0.129734
-0.106125
-0.158115
-0.104399
-0.101238
-0.102745
-0.084422
-0.092795
-0.025139
-0.079480
0.008791
-0.069006
-0.036655
-0.015289
-0.034083
-0.103024
0.007251
-0.045651
-0.001009
-0.039539
-0.050809
0.010389
0.003615
0.056513
0.031964
-0.023524
0.083209
0.084072
0.040361
0.120660
0.132647
0.044482
0.065876
0.135154
0.102736
0.097278
0.108268
0.113719
0.156062
0.076562
0.062044
0.076713
0.029470
-0.079950
0.018094
0.093285
-0.025384
-0.028435
0.058473
-0.029190
-0.082263
0.009358
-0.109652
-0.039681
-0.082037
-0.060039
-0.094990
-0.088205
-0.044753
-0.107059
-0.052880
-0.000998
-0.111094
-0.071306
-0.041796
-0.040640
-0.064861
-0.109131
-0.128192
-0.035362
0.000717
-0.048697
-0.114065
-0.079350
-0.066004
-0.118918
-0.183732
-0.090496
-0.131382
-0.046324
0.231704
0.492487
0.803427
1.135919
1.350760
1.383439
1.193668
0.986950
0.539843
0.262035
-0.001986
-0.204399
-0.326693
-0.389647
-0.345148
-0.279115
-0.180400
-0.101384
-0.058762
-0.080764
-0.040312
-0.127445
-0.029270
-0.116132
-0.050735
-0.019696
-0.131683
-0.065348
-0.025654
-0.016761
-0.071397
-0.077219
-0.059470
0.000070
0.040145
-0.073975
0.025951
-0.025111
-0.051282
0.024481
0.073048
-0.039297
0.013502
0.138734
0.020780
0.119952
0.130210
0.065674
0.111026
0.172223
0.214547
0.183271
0.151741
0.186701
0.264362
0.220649
0.322499
0.263946
0.422701
0.279827
0.378648
0.409476
0.387940
0.363092
0.477346
0.386115
0.420759
0.404216
0.442038
0.444479
0.454545
0.534211
0.434322
0.402965
0.398538
0.489648
0.448148
0.442183
0.425578
0.383213
0.342330
0.334343
0.292545
0.199995
0.292202
0.196668
0.242204
0.244545
0.216863
0.226513
0.238800
0.139555
-0.009130
0.066378
0.096480
0.073780
0.051993
-0.010335
0.043097
-0.046378
0.021254
0.037400
0.039477
0.075423
-0.014090
0.026257
-0.061987
-0.016893
-0.037105
0.032479
0.021432
-0.105059
0.006171
-0.185620
-0.035854
-0.023181
-0.016013
0.034024
-0.035495
-0.006206
-0.023311
0.034921
0.051134
0.026477
0.010726
0.012696
-0.026615
-0.015319
-0.016374
0.033378
0.027392
0.035960
-0.057106
0.025656
-0.118831
0.023998
-0.079893
0.000915
-0.071563
-0.057306
-0.077930
-0.025181
-0.052389
0.081958
-0.035654
-0.003266
-0.098718
0.006627
-0.056866
0.032585
-0.006899
-0.032003
-0.034889
0.022329
-0.048171
0.092233
-0.020427
0.064124
0.043349
0.029530
-0.021169
0.030918
-0.013896
-0.040853
0.001805
-0.014664
0.037995
-0.046915
0.004934
0.002459
0.049486
0.040950
-0.012009
-0.086413
-0.029585
-0.003969
0.084098
0.046894
0.040751
-0.004935
0.108379
-0.052403
0.000720
0.035246
-0.056712
-0.009263
-0.025137
-0.038218
-0.002143
0.032993
0.028038
0.000726
-0.007502
0.014270
0.007355
0.059704
0.065802
0.062039
0.160402
0.122165
0.130212
0.100786
0.192235
0.127281
0.180761
0.213171
0.152006
0.201606
0.151777
0.158772
0.162569
0.191500
0.218021
0.310733
0.138258
0.193872
0.069087
0.166533
0.223215
0.194283
0.082060
0.044541
0.069090
0.100544
0.060194
0.170776
0.108238
0.041407
0.027951
0.081384
0.067826
0.085764
0.030270
0.018610
0.038212
0.050294
0.014189
0.036819
0.022879
0.057980
-0.004106
0.030128
0.040387
0.058402
0.014104
0.010443
0.016685
0.087293
0.082890
0.090222
0.027978
0.081697
0.054707
0.023386
0.061198
-0.064328
-0.022424
-0.029738
0.200834
0.378377
0.725866
1.030158
1.335657
1.448288
1.397576
1.242109
0.896142
0.619257
0.317930
-0.009415
-0.233687
-0.238274
-0.215206
-0.177544
-0.049428
-0.043535
0.007553
0.070139
0.002063
0.023316
0.086014
0.039817
0.055027
0.044359
0.093831
0.062431
0.116952
0.104438
0.076432
0.086182
0.070835
0.062469
0.057016
0.100517
-0.005866
0.038473
0.128064
0.048848
0.125689
0.124334
0.137129
0.085442
0.125563
0.230331
0.244067
0.166797
0.249172
0.286251
0.253372
0.312661
0.296141
0.263622
0.330433
0.397736
0.347405
0.445751
0.419291
0.421038
0.430836
0.492865
0.526735
0.520142
0.483837
0.580665
0.579535
0.537637
0.581970
0.483690
0.483386
0.502891
0.580209
0.495466
0.544054
0.496809
0.500321
0.466527
0.509726
0.462696
0.400873
0.355527
0.463011
0.440663
0.394147
0.395626
0.337183
0.284762
0.347004
0.323291
0.199560
0.229556
0.225836
0.174511
0.140332
0.136281
0.177178
0.123678
0.082563
0.225135
0.143933
0.096095
0.091365
0.064768
0.037848
0.084222
-0.023572
0.086991
0.071982
0.110764
0.114566
0.030021
-0.000149
0.039044
0.087680
0.083764
0.030527
0.073798
-0.017718
0.073942
0.014774
0.045862
0.065610
0.028979
0.028658
-0.040323
0.147193
0.020741
0.011588
0.064115
-0.036947
-0.019572
-0.003569
0.061621
0.027241
0.100863
0.004969
-0.035701
-0.001369
0.062960
-0.048279
-0.054045
-0.018693
-0.018770
0.142285
-0.052494
0.007250
0.036490
0.038922
0.077043
0.082127
0.012254
0.036881
0.086029
0.024298
0.054542
0.042160
-0.013319
-0.020993
0.002248
0.087921
0.037191
0.068829
0.023329
-0.066290
0.057811
-0.020600
-0.053824
-0.008274
-0.024640
-0.001988
0.012921
0.015418
-0.071561
-0.062407
0.044503
0.017163
-0.033752
0.120859
0.005939
0.021749
-0.041915
0.117955
0.013855
0.077962
0.047412
0.063326
-0.015277
-0.013533
-0.042849
-0.033074
-0.014754
-0.056094
0.038508
0.040041
0.033041
-0.012358
0.094179
0.049475
0.107023
0.036354
0.085319
0.082949
0.140086
0.125905
0.189549
0.133627
0.141885
0.111898
0.124136
0.135274
0.107354
0.131933
0.148714
0.131367
0.203485
0.169240
0.042504
0.104581
0.126325
0.126272
0.141006
0.131850
0.112435
0.126433
0.107735
0.040802
0.067753
0.037655
-0.007514
0.045316
0.066584
0.072143
0.030356
0.014017
0.011197
0.015211
0.054148
0.015851
-0.007125
0.054152
-0.000291
-0.012302
-0.010160
0.047531
0.003135
-0.041261
-0.060842
0.012034
-0.025735
0.022011
0.014929
0.007823
-0.017759
-0.038805
-0.115965
-0.076633
-0.062441
-0.051290
0.189895
0.372465
0.831420
1.057041
1.335566
1.343504
1.246999
1.067120
0.643708
0.309063
0.000715
-0.174117
-0.274902
-0.327611
-0.357351
-0.334026
-0.120939
-0.114327
-0.107298
-0.099696
-0.060502
-0.038243
-0.028077
-0.063807
-0.007796
-0.119582
-0.065571
-0.028089
0.004514
-0.077705
-0.031404
-0.051169
-0.034835
-0.045806
-0.082681
-0.052329
-0.090706
0.093104
0.068167
-0.080506
-0.039436
-0.012515
-0.014916
0.096195
0.064891
0.088216
0.069149
0.141141
0.119126
0.144570
0.270135
0.129001
0.254031
0.272573
0.202667
0.223594
0.194601
0.326085
0.249875
0.245879
0.273121
0.393287
0.378650
0.374519
0.463833
0.436774
0.427360
0.426108
0.413321
0.418384
0.459665
0.397659
0.382969
0.454140
0.381116
0.474619
0.414908
0.376892
0.268279
0.363793
0.376366
0.332559
0.336957
0.278560
0.201438
0.168972
0.211064
0.183735
0.146719
0.136563
0.026475
0.067415
0.076535
0.029285
0.044511
0.008644
0.029282
0.002885
0.051809
0.018168
-0.040339
0.016109
-0.004962
-0.033596
-0.002481
-0.022585
0.041114
-0.114768
-0.029465
0.047223
-0.060797
-0.131248
0.005837
-0.056960
-0.072249
-0.132510
0.018204
-0.071536
-0.137453
-0.097631
-0.082166
-0.033230
-0.204248
-0.025992
-0.073425
-0.072527
-0.099582
-0.072029
-0.050054
-0.066681
-0.059772
-0.085818
-0.073465
-0.142974
-0.006775
-0.127336
-0.051199
-0.043379
-0.132004
-0.096960
0.000360
-0.052096
-0.112736
-0.082802
-0.032911
-0.102618
-0.074473
-0.082134
-0.109792
-0.182393
-0.110941
-0.023465
-0.037395
-0.100836
-0.111084
-0.142071
-0.114058
-0.128557
-0.073663
-0.144016
-0.152948
-0.143857
-0.145490
-0.060276
-0.059897
-0.141624
-0.152155
-0.150672
-0.103243
-0.116632
-0.066196
-0.098823
-0.066304
-0.020555
-0.174990
-0.120414
-0.077991
-0.048806
-0.132745
-0.071508
-0.077859
-0.123976
-0.070617
-0.122112
-0.078548
-0.081465
-0.196801
-0.113001
-0.045472
-0.063540
-0.025410
-0.008685
-0.050756
-0.032698
-0.086142
-0.091998
-0.061470
-0.053109
-0.003112
0.028521
-0.060939
0.038578
-0.001851
0.062527
0.028569
0.046731
0.065095
-0.003147
0.020968
0.114842
0.065195
0.102171
0.151796
0.083536
0.009738
0.074264
0.152927
0.012546
0.138815
0.057058
-0.013403
0.035325
0.019864
-0.057519
-0.096100
-0.069351
-0.014690
-0.019507
-0.023986
0.022149
-0.111313
-0.046835
-0.053662
-0.058862
-0.045656
-0.101578
-0.045811
-0.072067
-0.082862
-0.116885
-0.018382
-0.179002
-0.020327
-0.094911
-0.076787
-0.056147
-0.087068
-0.131431
-0.125393
-0.070998
-0.049117
-0.046126
0.036348
-0.132535
-0.131300
-0.134301
-0.159664
-0.136222
-0.035647
0.141222
0.427799
0.775508
1.188901
1.263596
1.316525
1.157115
0.848495
0.561008
0.259892
-0.049698
-0.315956
-0.383765
-0.479157
-0.359416
-0.342118
-0.123119
-0.095356
-0.081055
-0.040274
-0.020065
-0.056218
-0.047784
-0.108788
-0.006257
0.005950
-0.012553
0.025043
-0.093060
-0.099261
-0.026742
-0.048620
-0.064193
-0.044578
-0.068318
-0.111833
-0.006675
-0.020944
-0.021435
-0.038282
0.026074
0.084565
0.132068
0.058152
0.001703
0.156520
0.080751
0.133034
0.109014
0.118098
0.139581
0.174914
0.244408
0.298385
0.141735
0.255641
0.324721
0.338472
0.317582
0.400469
0.383381
0.376322
0.422267
0.455938
0.472678
0.499326
0.383743
0.483330
0.435895
0.454195
0.460799
0.445798
0.531509
0.458253
0.353060
0.424206
0.357515
0.415713
0.402448
0.362650
0.389973
0.340050
0.334682
0.240741
0.253145
0.299966
0.224492
0.224491
0.236290
0.155417
0.169624
0.152253
0.087138
0.103045
0.120279
0.139332
0.047480
0.021946
0.138495
-0.002509
0.063657
0.083163
0.038325
-0.034679
0.078601
0.033329
-0.045267
-0.006653
0.029659
-0.009457
0.039696
-0.016614
-0.032198
0.060770
0.038851
0.035607
0.001877
-0.004469
0.021903
0.075345
-0.045916
-0.037298
0.000322
0.006812
0.088066
0.013425
-0.037285
-0.055913
0.097685
-0.057527
-0.046288
-0.028962
-0.036606
-0.073648
0.036483
-0.043408
0.052040
-0.009885
-0.026247
0.047937
-0.044865
-0.004766
0.040727
0.051749
0.015947
0.057638
-0.038765
0.037405
0.099360
-0.049969
-0.024619
-0.085954
0.063251
0.015397
0.101621
0.046106
0.038427
0.083027
-0.027901
-0.000454
0.054373
-0.034195
0.024018
0.058337
0.001641
-0.009019
0.026743
-0.022899
0.111565
0.046063
0.027756
0.064781
0.004684
-0.007889
-0.009325
0.010627
-0.061731
0.051732
-0.019140
0.050817
0.048779
0.012471
-0.022372
0.024964
0.061219
0.090978
0.016554
0.055587
0.023903
-0.016797
0.096526
0.093548
0.113961
0.085790
-0.027915
0.169622
0.132583
0.102842
0.035720
0.146982
0.133984
0.093272
0.163124
0.084639
0.201235
0.218501
0.192158
0.197319
0.166072
0.190907
0.219560
0.167241
0.212879
0.177665
0.239102
0.173498
0.201249
0.248250
0.227712
0.197128
0.091099
0.092782
0.115394
0.162593
0.129912
0.146262
0.187822
0.059753
0.098102
0.053506
0.084141
0.023597
0.171465
0.016225
0.012126
-0.007576
-0.002232
0.050514
0.007486
0.102540
0.044779
0.097540
0.024869
0.083460
0.073499
0.077345
0.083240
-0.010334
0.072258
0.069259
0.026930
0.079224
-0.011592
0.019000
-0.040660
-0.091096
0.003205
0.111928
0.167453
0.424647
0.707892
1.129978
1.383865
1.500000
1.405156
1.180112
0.973922
0.529881
0.357013
0.026679
-0.154023
-0.216077
-0.267080
-0.152711
-0.067542
0.011854
-0.002829
0.083901
0.065001
0.087337
0.060598
0.084036
0.070154
0.062887
0.110299
0.040201
0.105856
0.036041
0.068153
-0.027681
0.017195
0.158545
0.103472
0.029454
0.145778
0.075848
0.062707
0.053941
0.140137
0.108100
0.076225
0.155829
0.172709
0.155449
0.258318
0.132434
0.321704
0.294223
0.263993
0.291698
0.329623
0.400183
0.325907
0.443042
0.403579
0.473612
0.465794
0.448767
0.485077
0.537463
0.616682
0.560871
0.549157
0.570898
0.591934
0.610633
0.541912
0.585181
0.568985
0.617080
0.589923
0.607161
