0.031028
0.051420
0.056557
0.007344
-0.049699
0.034468
0.040201
0.042521
-0.039337
0.020000
0.093487
-0.050871
0.038304
0.005498
-0.007912
0.018174
-0.041129
0.011559
0.027534
-0.030519
0.029513
0.040729
0.080271
-0.018877
0.050568
0.012894
0.014374
0.037229
0.011165
0.026383
0.092027
0.013855
0.059308
0.044797
0.057954
0.048323
0.026501
0.047981
0.105777
0.087572
0.004908
0.059989
0.072930
0.019965
0.085069
0.115947
0.133867
0.139303
0.122849
0.048131
0.214578
0.151342
0.118453
0.182595
0.208898
0.168880
0.197658
0.327198
0.191768
0.168329
0.197490
0.145735
0.155239
0.135230
0.166060
0.167990
0.206835
0.101256
0.146072
0.151977
0.049585
0.133668
0.012121
0.074059
0.105536
0.081148
-0.016602
0.097871
0.076917
0.164533
0.058331
0.031550
0.078415
0.019923
0.087063
0.099351
0.061882
0.081563
0.010320
0.047700
0.023003
0.050357
0.001993
0.026511
0.087329
0.065432
0.071142
0.056330
0.064319
0.009450
0.075988
0.048806
0.100975
-0.004417
-0.001833
0.004872
-0.071023
-0.033561
-0.050230
0.021805
0.247451
0.265420
0.697217
0.984735
1.197688
1.434510
1.481117
1.291899
1.034735
0.719083
0.404473
0.165813
-0.086928
-0.184568
-0.253243
-0.244902
-0.214502
-0.028282
0.063093
0.037812
0.024633
0.055963
0.058021
0.036157
0.104170
0.041879
0.118587
0.097936
0.149642
0.085609
0.084963
0.038051
0.102794
0.074196
0.069251
0.076475
0.084359
0.049738
0.016676
0.044895
0.044067
0.121616
0.112900
0.121055
0.104731
0.159167
0.122354
0.088473
0.198916
0.208124
0.180894
0.196459
0.178660
0.188318
0.160379
0.216206
0.234279
0.260418
0.229497
0.356365
0.269907
0.334289
0.392306
0.398408
0.415489
0.487750
0.447244
0.500176
0.489242
0.525064
0.493666
0.488701
0.520780
0.544681
0.499589
0.528478
0.605488
0.560695
0.565995
0.586424
0.591041
0.660336
0.525778
0.557319
0.482967
0.466275
0.536719
0.501206
0.468754
0.490472
0.357094
0.405459
0.351494
0.351910
0.368497
0.311412
0.303606
0.254695
0.345844
0.213266
0.298258
0.195690
0.292757
0.163135
0.165747
0.179858
0.189352
0.148966
0.138667
0.090899
0.156658
0.091401
0.080468
0.137422
0.061772
0.005308
0.093764
0.133993
0.057301
0.111052
0.078152
0.102321
0.026434
0.015227
0.093204
0.118672
0.057443
0.099617
0.093156
0.092669
0.079338
0.079185
0.152279
0.034061
0.050203
0.112487
0.085727
0.109631
0.057521
0.008748
0.103757
0.105329
0.109909
0.075423
0.070476
0.040779
0.111132
0.074652
0.059290
0.027562
0.083654
0.150164
0.070182
0.092612
0.131362
0.080702
0.060140
0.068974
0.191488
0.120116
0.005681
0.173500
0.150446
0.130902
0.109865
0.097587
0.037628
0.056429
0.031945
0.025745
0.110041
0.041612
0.127274
0.036600
0.074619
0.042963
0.022480
0.114307
0.129663
0.051725
0.051239
0.078016
0.066852
0.061586
0.126636
0.052276
0.052484
0.084167
0.064847
0.000982
0.058126
0.099355
0.021848
0.017352
0.019607
0.170233
0.027193
-0.003645
0.058035
0.098301
0.071095
0.060037
0.045512
0.056736
0.045291
0.073837
0.019095
0.020781
0.095918
-0.030048
0.079970
0.163114
0.040875
0.080037
0.078647
0.008024
0.119354
0.145507
0.119945
0.052243
0.136714
0.132314
0.037289
0.029688
0.157233
0.057523
0.121361
0.123157
0.262753
0.187058
0.188464
0.145953
0.258732
0.236145
0.168643
0.179719
0.165951
0.234997
0.195976
0.187302
0.190333
0.200909
0.158920
0.126072
0.247752
0.093974
0.229756
0.190064
0.042164
0.109958
0.120864
0.100881
0.119625
0.000751
0.072896
0.146266
0.121179
0.049944
-0.034008
0.023325
0.062890
0.079012
0.064322
0.119726
0.089143
0.046933
0.011762
0.015531
0.026621
0.060736
0.013829
0.082605
0.026896
0.004729
0.062238
0.024648
-0.004332
0.006175
0.004652
-0.004856
0.007643
-0.043832
0.033235
-0.021529
-0.039317
-0.060127
-0.050804
0.006927
0.076333
0.237376
0.452439
0.872753
1.116298
1.373464
1.408476
1.332813
1.072002
0.792588
0.513534
0.212925
-0.081010
-0.202847
-0.371407
-0.312855
-0.300197
-0.261288
-0.108365
-0.088113
-0.051248
-0.035718
0.009011
0.013034
-0.005295
-0.083924
-0.043442
0.054250
0.028473
-0.014786
0.026371
0.006292
0.001045
0.038122
0.036685
-0.004730
0.026300
0.029978
-0.034725
0.009408
-0.013374
0.010952
0.006005
0.000043
0.047165
0.067661
-0.013909
-0.061586
0.106804
-0.031516
0.093278
0.096701
-0.034670
0.114550
0.157015
0.173910
0.224955
0.141523
0.138219
0.232432
0.228574
0.290128
0.274933
0.329636
0.281308
0.304982
0.349997
0.360740
0.406626
0.425248
0.418033
0.430440
0.417927
0.477588
0.447691
0.447574
0.494852
0.483777
0.510577
0.593705
0.451933
0.436828
0.352850
0.438657
0.337328
0.385211
0.378551
0.354000
0.358873
0.358720
0.380145
0.361304
0.282590
0.281839
0.300492
0.178208
0.213372
0.256448
0.217599
0.160957
0.115012
0.115711
0.164942
0.023412
0.107222
0.071202
0.057994
-0.017833
0.104979
0.044103
0.041191
-0.023823
-0.009187
-0.013540
-0.020670
-0.143322
-0.001714
0.016824
-0.046214
0.000558
-0.026054
-0.124720
-0.033759
-0.045928
-0.000367
0.001981
-0.072609
-0.042313
-0.045325
-0.095376
-0.027900
-0.053969
-0.153899
-0.027469
-0.026056
-0.002311
-0.076629
0.011101
-0.074593
-0.031111
0.024763
-0.119799
-0.083578
-0.076996
-0.056225
-0.018239
-0.069765
-0.020951
-0.051287
-0.048928
-0.047239
-0.056260
-0.098286
-0.060699
-0.013418
-0.006630
-0.055388
-0.035934
-0.092258
-0.029120
-0.033568
-0.094829
-0.034630
-0.022811
-0.011906
-0.049575
-0.037412
-0.038049
0.002603
-0.015453
-0.068470
0.051772
-0.020821
-0.051798
-0.043542
-0.045196
-0.055574
-0.088910
-0.037173
-0.008041
-0.020145
-0.049086
-0.039827
-0.095870
-0.025064
-0.015128
-0.010983
-0.014924
-0.009364
-0.042582
-0.000757
0.021886
-0.010553
-0.078275
-0.015536
-0.011035
-0.154530
-0.038327
-0.115852
-0.051906
-0.058424
-0.056321
-0.012796
0.056622
0.015144
-0.023463
-0.054166
-0.058348
-0.001428
-0.038746
-0.063290
-0.031057
0.000775
-0.062372
-0.040998
-0.020906
-0.077567
-0.032584
-0.078542
0.038235
0.044185
-0.014747
-0.011976
0.147553
0.001403
0.049565
0.025052
0.050777
0.068081
0.039939
0.028750
0.063650
0.110136
0.192154
0.138083
0.126860
0.192651
0.148472
0.146243
0.139988
0.147673
0.058857
0.148221
0.085633
0.038546
0.082838
0.076624
0.096215
0.040525
0.034481
0.008199
0.063920
0.068258
0.064493
0.055424
0.001851
-0.062639
-0.149356
0.023875
-0.050644
-0.053483
0.060055
0.069136
-0.045113
-0.085304
-0.032644
-0.026985
-0.059881
-0.048711
0.043480
0.034278
0.026180
-0.045590
-0.020377
0.091600
-0.034308
-0.038194
-0.044899
0.004943
-0.073431
-0.018094
-0.066949
-0.015067
-0.136158
-0.084156
-0.065054
-0.155840
-0.064015
-0.032280
0.109592
0.305018
0.650698
0.996675
1.160084
1.350861
1.259316
1.195221
0.900546
0.633189
0.330416
0.076027
-0.162828
-0.239290
-0.247097
-0.381319
-0.252926
-0.205733
-0.076723
-0.037907
0.001115
-0.017717
0.017303
-0.040773
0.045772
0.070100
0.004882
0.075255
0.041782
-0.013017
0.017237
-0.020310
0.033281
0.038879
-0.029657
0.011414
-0.008909
0.054388
0.070648
0.014006
0.000485
-0.003516
0.123423
0.060466
0.029231
0.047645
0.055360
0.089475
0.096884
0.073282
0.078749
0.085551
0.150801
0.216420
0.197759
0.124391
0.153579
0.106907
0.260168
0.262584
0.273239
0.292463
0.299894
0.361441
0.334779
0.370832
0.373769
0.354547
0.387881
0.441120
0.437126
0.499376
0.476108
0.549274
0.509515
0.526385
0.483307
0.531823
0.575761
0.617725
0.527066
0.491558
0.459079
0.514453
0.493731
0.434601
0.482531
0.444964
0.345335
0.407741
0.340966
0.258256
0.337150
0.320614
0.275556
0.263265
0.185806
0.264204
0.182807
0.208075
0.270527
0.234378
0.133037
0.192346
0.159857
0.100724
0.072997
0.196085
0.108733
0.062409
0.039747
0.091587
0.077895
0.065030
0.113922
0.118427
0.077224
0.073305
0.090122
0.067773
0.153513
0.095015
-0.000060
0.113451
0.044821
-0.020918
0.126561
0.055578
0.088197
0.026308
0.126310
0.091300
0.047781
0.095785
0.094451
0.055147
-0.009248
0.086090
0.113353
0.033165
0.011199
0.010494
0.109083
0.047528
-0.005314
0.060928
0.090049
0.081248
0.128556
0.078409
0.084600
0.093814
0.022692
0.014447
0.061912
0.078336
0.094793
0.056518
0.077610
0.060663
0.023037
0.095043
0.108126
0.029618
0.105855
0.105785
0.113257
0.074792
0.024243
0.086050
0.063155
0.091189
0.037491
0.079058
0.081224
0.118658
0.024159
0.145706
0.095958
0.079632
0.037646
0.043006
0.038357
0.026851
0.118444
0.100561
-0.027382
0.134885
0.057480
0.050489
0.105693
0.134849
0.115863
0.101124
0.058436
0.037344
0.095152
0.075413
0.132420
0.058325
0.010625
0.094597
0.102287
0.129282
0.105596
0.082882
0.084700
0.021312
0.099467
0.141289
0.154093
0.114697
0.118120
0.090835
0.103165
0.091998
0.095941
0.141215
0.074336
0.118675
0.133458
0.215386
0.168741
0.181744
0.213902
0.143100
0.183775
0.204246
0.219912
0.153218
0.311989
0.269309
0.223589
0.203189
0.220509
0.283828
0.294063
0.230598
0.283122
0.286952
0.246245
0.247979
0.221775
0.182619
0.191663
0.205377
0.210103
0.138321
0.233880
0.190175
0.135590
0.126756
0.123048
0.063168
0.116483
0.155458
0.150184
0.113448
0.079357
0.055053
0.090372
0.184632
0.058799
0.118011
0.120759
0.120745
0.048983
0.109886
0.149918
0.095787
0.057347
0.094860
0.057375
0.081042
0.061570
0.100603
-0.009267
0.059117
0.104776
0.108416
0.117726
0.094974
0.173262
0.150595
-0.006770
0.074144
0.007806
-0.005706
0.115870
0.245864
0.545090
0.951031
1.167979
1.445465
1.500000
1.382774
1.136774
0.909434
0.539605
0.229237
0.068823
-0.092159
-0.255474
-0.208531
-0.163160
-0.035836
-0.127647
0.054732
0.142667
0.086584
0.081644
-0.028346
0.057913
0.116392
0.130054
0.042918
0.070659
0.049694
0.016759
0.057984
0.097297
0.122411
0.014261
0.074956
0.146002
0.074099
0.120846
0.082072
0.105283
0.128123
0.162120
0.097472
0.097437
0.090495
0.137596
0.122915
0.129585
0.216942
0.170939
0.217298
0.235059
0.251666
0.249136
0.223783
0.274218
0.216532
0.309694
0.288747
0.285244
0.348297
0.332221
0.332391
0.369448
0.315161
0.374542
0.386809
0.400213
0.452236
0.511174
0.445827
0.467033
0.535969
0.544968
0.576480
0.538709
0.614256
0.588893
0.483328
0.584395
0.568231
0.517826
0.537149
0.479512
0.523842
0.404414
0.536810
0.375179
0.433156
0.313045
0.382724
0.343772
0.389848
0.272633
0.375232
0.274986
0.277193
0.224208
0.280923
0.206004
0.224907
0.189271
0.198150
0.125071
0.158147
0.137849
0.044268
0.144905
0.082742
0.159225
0.123647
0.087426
0.098585
0.020952
0.023002
-0.009861
0.074525
0.098856
0.041989
0.013995
0.001156
0.006549
0.047330
0.018735
-0.006359
-0.035386
-0.008415
0.041454
0.006635
-0.047603
0.109836
-0.059195
0.012128
0.068685
0.033396
0.091119
0.093191
-0.053456
-0.052377
0.020094
0.010477
-0.016080
-0.073071
0.093838
-0.034321
0.031135
0.049092
0.055736
-0.010385
0.056147
0.032981
-0.025616
0.032027
0.062280
0.014213
-0.070230
0.013940
-0.011866
-0.008613
-0.027778
0.102641
0.036933
-0.075111
-0.013055
-0.066871
-0.058297
0.053188
0.028722
-0.025366
0.009394
0.102347
0.032855
-0.042882
0.035383
0.073439
-0.019050
-0.007381
-0.055391
-0.011942
-0.043914
-0.029324
0.056789
0.031163
0.041968
-0.056589
0.013771
-0.055623
0.023704
0.014969
0.057014
-0.011265
-0.044417
-0.028099
0.000104
-0.030070
-0.019017
0.039878
0.051092
-0.048428
-0.008864
-0.083631
0.010469
-0.019410
-0.015115
0.028564
-0.068109
-0.073351
-0.072776
0.018720
-0.026429
0.009309
-0.036946
-0.053062
0.037904
-0.041552
-0.013606
-0.092130
0.002873
0.091868
-0.039140
0.034711
-0.014101
0.036248
0.111847
0.108464
0.053093
0.134627
0.030321
0.014711
0.048985
0.087783
0.110051
0.144954
0.080527
0.040990
0.131660
0.201232
0.186646
0.184370
0.156669
0.087946
0.114794
0.117711
0.101232
0.179592
0.020538
0.114696
0.007337
0.009773
-0.025056
0.024112
-0.050324
-0.039856
0.041164
0.002576
0.009687
-0.017691
0.015312
0.029315
-0.079490
-0.098898
-0.061429
-0.006629
-0.040434
-0.006701
-0.047453
-0.060546
-0.094428
-0.052327
-0.044977
-0.067343
-0.100396
-0.032670
-0.126746
-0.076208
-0.053940
-0.092802
-0.052735
-0.044692
-0.025576
-0.032356
-0.053635
-0.124221
-0.090250
-0.172374
-0.221541
-0.170059
-0.048055
0.025701
0.262919
0.608247
0.946175
1.238468
1.364857
1.257910
1.079687
0.844624
0.576101
0.179354
-0.053279
-0.215129
-0.331440
-0.391834
-0.337076
-0.255337
-0.227570
-0.088586
-0.108412
-0.124419
-0.016058
-0.052972
-0.056646
-0.030447
-0.046565
-0.069756
0.020288
-0.088834
-0.050135
-0.087027
-0.051400
-0.074035
-0.073400
-0.128147
-0.134851
-0.099337
-0.067876
0.019490
-0.048019
-0.043195
-0.060609
-0.121440
-0.015384
-0.102784
-0.068481
0.013947
-0.000715
0.033721
0.029855
0.025142
0.005744
0.042869
0.102185
0.129297
0.127424
0.049518
0.105415
0.128568
0.175625
0.213108
0.196515
0.227858
0.267722
0.269226
0.244546
0.327759
0.319807
0.344551
0.379492
0.357177
0.334011
0.343874
0.445190
0.396509
0.378408
0.471927
0.427133
0.409500
0.485486
0.456294
0.363449
0.367364
0.313034
0.311583
0.364324
0.318236
0.320179
0.333955
0.261662
0.172764
0.269276
0.207625
0.208706
0.171866
0.207515
0.197314
0.098090
0.135318
0.094682
0.069558
0.064202
-0.019873
0.105018
0.156688
0.063886
0.008103
-0.006333
-0.017646
0.011590
-0.118038
-0.033864
-0.004928
0.027557
-0.081080
-0.046119
0.023233
0.010336
-0.043071
-0.081756
-0.011381
-0.115440
-0.082783
-0.013488
-0.054809
0.004943
-0.130916
-0.127276
-0.142431
-0.147917
-0.079571
-0.086719
-0.088200
-0.146991
-0.062178
-0.072262
-0.027527
-0.135645
-0.167114
-0.055555
-0.080115
-0.093564
-0.096865
-0.134102
-0.017045
-0.010522
-0.078111
-0.071435
-0.040334
-0.089948
-0.146709
-0.130193
-0.074194
-0.182517
-0.102998
-0.135219
-0.056740
-0.059208
-0.065806
0.003942
-0.054224
-0.049327
-0.058352
-0.109453
-0.052602
-0.074087
-0.042012
-0.051686
-0.034068
-0.096231
0.002150
-0.009248
-0.038654
-0.090726
-0.082736
-0.072558
-0.076252
-0.034709
-0.086268
-0.131569
0.047937
-0.062282
-0.056060
-0.065286
-0.003883
-0.014672
-0.056086
-0.042339
0.000242
-0.064014
-0.070326
-0.007009
-0.015467
-0.042353
0.053415
-0.035781
-0.075232
-0.038192
-0.083220
-0.061986
-0.059985
-0.075097
-0.041126
-0.067518
-0.090519
-0.014539
0.036689
-0.105347
-0.074820
-0.076430
-0.017096
-0.031351
-0.011309
-0.066423
-0.021357
-0.042365
-0.063178
-0.042223
0.032705
0.027461
-0.015199
0.010572
0.036262
0.002528
0.045277
0.069537
0.114288
0.036549
0.081588
0.095446
0.069389
0.087570
0.074078
0.088342
0.101091
0.063782
0.111537
0.147600
0.154458
0.111106
0.123111
0.133639
0.040518
0.086813
0.096064
0.044249
0.140986
0.114399
0.015244
0.117597
0.051598
0.053625
0.042348
-0.005857
-0.036114
0.060795
0.048431
0.013444
0.015675
-0.053365
-0.007962
0.065278
0.016956
-0.036565
0.030893
-0.030651
0.073242
0.125350
-0.048017
-0.018536
0.066961
-0.003350
0.025198
-0.032581
0.034001
0.018503
0.014497
0.020848
0.017569
-0.094176
0.055230
0.022215
0.019764
-0.000154
-0.110222
-0.153640
-0.156444
-0.153748
-0.011870
0.287151
0.538777
0.910941
1.098331
1.351876
1.398755
1.287649
1.018177
0.712564
0.411509
0.137439
-0.014199
-0.176356
-0.311490
-0.347921
-0.317016
-0.153665
-0.165074
-0.041602
0.029133
-0.019443
-0.063273
-0.076597
0.044221
0.045644
-0.011161
0.055961
0.032945
0.033662
0.039929
0.024213
0.028726
0.053978
0.050503
-0.006150
0.024599
-0.048161
0.032830
0.043205
-0.034127
0.062307
0.063857
-0.041863
0.096184
0.027792
0.103106
0.013142
0.095931
0.109468
0.094483
0.080756
0.058544
0.123123
0.124543
0.216384
0.208163
0.225113
0.165226
0.294569
0.307928
0.228773
0.294101
0.265132
0.329224
0.464566
0.417794
0.429017
0.502277
0.438414
0.459766
0.447463
0.481353
0.439852
0.528174
0.535750
0.529472
0.503340
0.486285
0.520776
0.536358
0.486107
0.514482
0.449297
0.454771
0.546855
0.463642
0.339633
0.449526
0.424415
0.342349
0.363440
0.283148
0.368546
0.306854
0.305789
0.356068
0.146260
0.206426
0.304056
0.214040
0.212852
0.139788
0.100878
0.205272
0.137709
0.140141
0.058086
0.111302
0.043804
0.079647
0.136705
0.058612
0.049368
0.054342
0.025029
0.013835
0.064944
0.056827
0.042339
0.087225
0.042136
-0.031355
0.011717
0.059640
0.057822
0.102109
0.035558
0.066264
0.019981
0.007189
0.109577
0.060103
-0.026149
0.043101
-0.063747
0.038645
0.000364
0.050231
0.096988
-0.045283
0.050085
0.057653
0.027722
0.059214
0.011815
0.085702
0.081805
0.053645
0.057297
0.007803
0.083286
0.087522
0.029522
0.012482
-0.005717
0.110244
0.098311
-0.021239
0.065732
0.051795
-0.020938
0.037441
0.020955
0.052578
0.060357
0.004036
0.101406
0.039063
0.009331
0.083948
0.048713
0.065677
0.122167
0.008803
0.014007
0.099215
0.068646
0.069525
0.038014
0.040491
-0.014788
0.092857
0.069816
0.133933
0.072295
-0.043527
0.075459
-0.017535
-0.011215
0.081089
0.064940
0.019707
0.054576
0.043790
0.049966
0.052588
0.060377
0.082147
0.025530
0.019797
-0.037682
0.021172
0.039653
0.010442
0.005375
-0.057766
0.061999
0.080305
0.098201
0.030514
0.055987
0.083096
0.031693
0.114855
0.088745
0.165290
0.050162
0.079445
0.025290
0.051125
0.119365
0.092501
0.074742
0.146058
0.081511
0.125906
0.173898
0.240682
0.099036
0.148927
0.155111
0.217889
0.161698
0.277867
0.190141
0.179442
0.171645
0.209183
0.125454
0.174195
0.242468
0.156876
0.236883
0.117426
0.197576
0.095073
0.103695
0.121613
0.096364
0.117673
0.012398
0.101601
0.134792
0.029248
0.050853
0.052714
0.032498
0.020878
0.062185
0.018383
0.020255
0.067069
0.002466
0.085975
-0.019150
-0.060454
0.043949
0.051494
0.007050
0.015167
-0.122815
-0.060458
0.035595
0.037707
0.058036
0.039867
0.062180
0.024407
0.004973
-0.011398
-0.030907
-0.010233
-0.095915
-0.055202
-0.114872
-0.121217
-0.052761
-0.034478
0.129735
0.398391
0.666074
0.970123
1.332665
1.485632
1.325030
1.164490
0.884093
0.549742
0.259606
0.045805
-0.234344
-0.318092
-0.309340
-0.293060
-0.155070
-0.137676
-0.033790
-0.007943
-0.030112
-0.000502
-0.043146
0.018430
0.031138
-0.001649
0.007802
0.017674
-0.018750
-0.003900
-0.086616
0.019358
0.032676
-0.070136
-0.027695
-0.045010
-0.050213
-0.010481
-0.054024
-0.042181
0.010676
0.034827
-0.005927
0.010791
0.051831
0.022916
0.031957
0.019924
0.042599
0.098957
0.020943
0.068177
0.036834
0.062579
0.076340
0.068421
0.151265
0.196398
0.122673
0.261099
0.234446
0.187851
0.281297
0.352691
0.302988
0.374844
0.286920
0.295417
0.367405
0.455634
0.379775
0.435893
0.407238
0.492618
0.433958
0.516456
0.450004
0.426694
0.429072
0.372131
0.396753
0.385208
0.437847
0.406892
0.403227
0.509631
0.445572
0.356150
0.333315
0.274509
0.265537
0.166466
0.238486
0.211032
0.236518
0.222719
0.250602
0.160521
0.063311
0.011342
0.102284
0.139767
0.119500
0.061477
0.005026
-0.033082
0.017660
0.090073
-0.039190
-0.072310
0.036898
-0.003499
0.001106
-0.000192
-0.050553
-0.004172
-0.091535
-0.126505
-0.059746
-0.018414
-0.038293
-0.136322
-0.030683
-0.087471
-0.021749
-0.088121
-0.033208
-0.137895
-0.029804
-0.062508
-0.148468
-0.076666
-0.012796
-0.064900
-0.025875
-0.042775
-0.005193
-0.125687
-0.043502
-0.092740
-0.016815
-0.056151
-0.041022
-0.078395
-0.034912
-0.047190
-0.072924
-0.046393
-0.056326
-0.145004
-0.084560
-0.143811
-0.174348
-0.049409
-0.111809
-0.060314
-0.080600
-0.091319
-0.090320
-0.108329
-0.097359
-0.012448
-0.064885
-0.066502
-0.091892
-0.048403
-0.076479
-0.060255
-0.022228
-0.126106
-0.085926
-0.045714
-0.145062
-0.140818
0.017476
-0.051280
-0.046363
-0.074699
-0.008382
0.009264
-0.110465
-0.081045
-0.051516
-0.111543
-0.084770
-0.186043
-0.137629
-0.083039
-0.096013
-0.136574
-0.057871
-0.102523
-0.065044
-0.034370
-0.068903
-0.112185
-0.037863
-0.072463
-0.087060
-0.111087
-0.099176
-0.079941
-0.105112
-0.131018
-0.009629
-0.058494
-0.051254
-0.093420
-0.054783
-0.135458
-0.182659
-0.050835
-0.062469
0.005742
-0.054839
-0.101717
-0.096480
-0.057046
-0.138390
-0.030555
-0.081722
-0.093762
0.014131
-0.070609
-0.022812
-0.043449
-0.096164
0.056377
0.019460
0.098489
0.078337
0.053468
0.143976
-0.025788
0.002748
0.062656
0.026236
0.110344
0.117344
0.018346
0.086400
0.014993
0.025733
-0.013993
0.031908
0.042589
0.003650
0.038947
0.032541
0.047883
-0.087815
-0.017307
-0.083291
-0.023331
-0.134102
-0.037012
0.028101
-0.102299
-0.103268
-0.124524
-0.076594
-0.104028
-0.095639
-0.095672
-0.124591
-0.034428
-0.080602
-0.043423
-0.159965
-0.052033
-0.062372
-0.039707
-0.177579
-0.011481
-0.118154
-0.091503
-0.118164
-0.125154
-0.081668
-0.151025
-0.098921
-0.049237
-0.167606
-0.115238
-0.195883
-0.124401
-0.198793
-0.136119
-0.069069
0.143226
0.493374
0.796768
1.038467
1.268197
1.317073
1.129013
0.936498
0.564888
0.282377
0.057213
-0.247119
-0.363495
-0.437522
-0.404572
-0.426340
-0.231939
-0.221237
-0.127276
-0.058692
-0.088388
-0.072286
-0.092979
-0.149044
-0.055971
-0.076443
-0.052709
-0.141797
-0.059219
-0.013928
-0.104225
-0.133305
-0.108585
-0.119549
-0.078808
-0.097680
-0.039857
-0.146998
-0.094247
-0.022496
-0.068125
-0.053683
0.033912
0.011362
-0.034846
-0.003549
-0.007672
0.046301
0.008324
0.079949
0.070183
-0.019264
0.059693
0.107791
0.053916
0.028485
0.050625
0.086212
0.191013
0.216173
0.201733
0.224978
0.311071
0.222452
0.305635
0.316498
0.360276
0.257783
0.310760
0.209043
0.406329
0.371807
0.392467
0.423116
0.406761
0.443039
0.480421
0.534760
0.446417
0.398001
0.434454
0.356260
0.407163
0.439902
0.361039
0.307302
0.389762
0.393810
0.366660
0.282174
0.205718
0.256308
0.300890
0.229473
0.193104
0.175013
0.120339
0.163682
0.127532
0.084995
0.124340
0.173461
0.076948
0.042531
0.063931
0.017402
0.003526
0.027820
0.011047
0.051226
0.064206
-0.033591
-0.066118
-0.010532
-0.018290
-0.034160
-0.040588
0.003910
-0.043037
0.005209
-0.072303
-0.023399
0.034547
-0.044251
0.013754
-0.046914
0.014373
-0.029139
-0.070897
-0.035842
0.007235
-0.004257
-0.025279
0.040729
0.018603
-0.016779
-0.005049
0.027463
0.009598
0.006431
-0.044633
-0.022511
-0.019202
-0.006821
-0.070026
-0.013919
-0.000962
0.025034
0.062517
-0.012232
0.012893
0.030629
0.001880
-0.140909
-0.016604
-0.005136
-0.068063
0.036020
0.006754
-0.035495
-0.019341
-0.009640
0.041231
-0.019387
-0.029420
0.031085
0.047127
0.028012
0.060160
-0.028638
0.068869
-0.045239
0.013321
-0.034800
0.074227
-0.038987
0.005616
0.016558
0.070934
0.072326
-0.024049
0.005635
-0.016120
0.007388
-0.014590
0.057137
0.046616
0.032566
0.082162
0.004926
-0.073516
0.008908
-0.053016
-0.028938
0.004373
0.046025
0.035196
0.102493
0.002818
-0.032081
-0.005355
-0.000520
0.062960
-0.014572
0.028816
0.033616
-0.030110
0.022403
0.022365
0.002969
0.027492
0.072560
-0.028047
0.084697
0.132721
0.029994
0.033143
0.079198
0.109702
0.106724
0.026515
0.105347
0.061004
0.073088
0.151492
0.129493
0.119312
0.223972
0.196226
0.196987
0.170770
0.196384
0.103699
0.192165
0.167030
0.226189
0.175494
0.264757
0.149928
0.196615
0.176613
0.249959
0.135359
0.169691
0.198783
0.181989
0.158345
0.133406
0.204258
0.115609
0.143465
0.079926
0.021211
0.066484
0.067137
0.096931
0.131316
0.010832
0.012298
0.118323
0.078600
-0.021470
0.064676
-0.015838
0.022446
-0.014982
0.078236
0.092855
0.057626
0.080111
0.086161
0.047815
0.100534
0.078793
0.059934
0.104253
0.024909
0.100298
0.036095
0.102355
0.009214
0.073509
0.110079
-0.022250
0.008050
-0.053458
-0.083064
-0.037340
0.243102
0.359915
0.748599
1.086517
1.396145
1.416442
1.416484
1.181593
0.890071
0.544908
0.336610
0.083652
-0.098989
-0.334981
-0.315326
-0.259404
-0.241163
-0.071393
-0.093957
0.048368
0.003198
0.069443
0.051414
0.123615
0.068835
0.051352
0.085565
0.048999
0.048968
0.012856
0.078593
0.057422
0.055276
0.036074
0.125339
-0.024839
0.075867
0.171679
0.086804
0.136882
0.129054
0.030522
0.113293
0.136067
0.122446
0.013344
0.133420
0.066934
0.144231
0.173847
0.129285
0.197008
0.163941
0.242202
0.201716
0.191507
0.278475
0.254248
0.162951
0.349273
0.193487
0.350240
0.363460
0.381385
0.443107
0.427411
0.464875
0.454895
0.473900
0.505766
0.454967
0.488782
0.558629
0.528274
0.495335
0.502829
0.572009
0.530180
0.584994
0.515513
0.575096
0.520157
