0.043490
-0.047893
0.036263
-0.006927
0.047776
0.013573
0.010999
-0.053396
0.012682
0.024424
0.023024
-0.017036
0.044416
-0.090793
-0.009739
-0.056712
-0.030908
0.008512
0.062034
0.026193
-0.010902
0.036927
0.069946
0.061077
-0.025621
0.082393
0.149026
0.087841
0.172464
0.125369
0.105913
0.114384
0.163361
0.199804
0.226870
0.127890
0.160298
0.175006
0.180254
0.209266
0.201739
0.215623
0.244021
0.197835
0.155477
0.252508
0.159004
0.252628
0.167494
0.159990
0.157703
0.142942
0.070911
0.117669
0.131050
0.132407
0.052334
0.152273
0.079606
-0.017530
0.054053
0.041866
0.076947
0.044401
0.014422
0.036026
-0.034768
0.068867
0.040682
0.013243
0.113436
0.050126
0.095489
0.280121
0.437695
0.774766
1.061835
1.251564
1.460929
1.400993
1.075871
0.814726
0.372023
0.035028
-0.180983
-0.173882
-0.067494
-0.113545
-0.053682
-0.001568
0.026355
0.048633
0.112749
0.000583
0.183418
0.135047
0.204443
0.158759
0.174445
0.147064
0.087143
0.189448
0.244741
0.239894
0.114581
0.260088
0.178727
0.270090
0.268978
0.342075
0.344060
0.373098
0.397630
0.384259
0.482885
0.429163
0.513871
0.519762
0.454948
0.545394
0.616028
0.518153
0.548693
0.571650
0.609238
0.620004
0.632581
0.526174
0.567468
0.509569
0.587053
0.563977
0.520349
0.633657
0.555639
0.633609
0.558240
0.419635
0.463278
0.468048
0.447992
0.395864
0.344537
0.383561
0.317641
0.397702
0.249502
0.341427
0.251027
0.322767
0.255149
0.124257
0.232185
0.156374
0.177346
0.104807
0.176376
0.123289
0.246926
0.186083
0.088237
0.128597
0.155501
0.163747
0.139461
0.080997
0.060095
0.227862
0.076942
0.115155
0.110482
0.091561
0.090072
0.101561
0.201467
0.032627
0.043012
0.068846
0.075172
0.108514
0.085302
0.058209
0.111360
0.109799
0.052656
0.078019
0.068329
0.096642
0.034937
0.141976
0.132802
0.030980
0.093619
0.109517
0.130312
0.059618
0.098138
0.020050
0.157563
0.086404
0.050208
0.083291
0.180383
0.090542
0.079251
0.091096
0.086789
0.007443
0.077460
0.048626
0.179441
0.160001
0.101649
0.071823
0.101816
0.089207
0.162871
0.102431
0.138155
0.049172
0.144374
0.216806
0.137363
0.135500
0.214199
0.155701
0.228255
0.193730
0.275558
0.184527
0.246872
0.224162
0.373726
0.318756
0.345465
0.250829
0.281378
0.309184
0.163276
0.239989
0.185388
0.183236
0.178722
0.212692
0.199981
0.143368
0.190119
0.118379
0.160597
0.168963
0.151998
0.058782
0.082444
0.135840
0.097063
0.079635
0.034481
0.008648
0.054420
0.157784
0.042674
0.051201
0.085867
0.040670
0.033809
0.030358
0.062159
0.162289
0.324197
0.530740
0.806355
1.167691
1.425175
1.462675
1.327469
1.072211
0.657835
0.276941
0.027092
-0.071212
-0.135208
-0.087992
-0.082781
0.073836
0.090298
0.084274
0.045232
0.078579
0.126634
0.070642
0.111066
0.164994
0.132426
0.247119
0.255122
0.119842
0.226579
0.246408
0.237204
0.200182
0.238714
0.238027
0.310594
0.342100
0.305018
0.333327
0.377195
0.295735
0.371354
0.450423
0.419591
0.430055
0.518193
0.466327
0.481557
0.471242
0.571355
0.579485
0.649422
0.607358
0.550102
0.527474
0.612444
0.586397
0.475653
0.530452
0.569464
0.483543
0.540957
0.510177
0.492180
0.478350
0.432126
0.443862
0.422216
0.316516
0.392512
0.333069
0.284604
0.290335
0.366265
0.181050
0.181211
0.244386
0.221298
0.098887
0.285409
0.192555
0.094089
0.119533
0.138976
0.093093
0.070944
0.132387
0.083176
0.072897
0.062206
0.018509
0.135675
0.071955
0.022899
0.086218
0.026912
-0.052076
0.074745
0.020941
0.059396
0.107199
-0.009288
0.044546
0.006021
-0.025535
0.027105
0.054439
0.039223
0.049494
-0.096104
0.034988
0.098430
0.062469
0.046337
0.077191
0.005611
-0.011026
0.107213
-0.027706
0.069608
0.014110
0.031167
0.038756
0.050475
0.042534
0.059113
-0.006808
-0.027264
0.101055
0.029849
-0.047886
0.095349
0.011460
-0.032919
-0.015176
-0.026625
0.036725
-0.005176
0.098115
0.060664
0.046872
0.047464
0.077870
0.081076
0.068271
-0.045204
0.037762
0.055238
0.087205
0.093648
0.022862
0.168792
0.126188
0.233918
0.135040
0.099237
0.113129
0.168354
0.157070
0.180649
0.218844
0.202260
0.203603
0.206870
0.200305
0.152259
0.146930
0.146819
0.153572
0.130146
0.163834
0.097515
0.126313
0.127547
0.112620
0.096697
0.015551
0.017096
0.015447
0.023267
-0.022721
0.027429
0.067008
0.050104
-0.003015
0.005320
0.063747
0.017674
-0.015685
0.040217
-0.072376
-0.010480
-0.076228
-0.067540
0.030722
0.111725
0.226987
0.456568
0.895497
1.194036
1.343960
1.348429
1.151178
0.899588
0.529614
0.156887
-0.091295
-0.221523
-0.296767
-0.229691
-0.150762
-0.041471
-0.039249
0.030639
-0.096221
-0.022735
0.043747
0.028771
0.071016
0.102553
0.123262
0.031502
0.044801
0.036764
0.056516
0.141862
0.194346
0.173850
0.228024
0.152337
0.223758
0.197124
0.250557
0.253077
0.210245
0.300245
0.297794
0.406170
0.284621
0.423833
0.324425
0.396105
0.385422
0.417930
0.559716
0.460215
0.405614
0.415724
0.507022
0.549269
0.529764
0.399864
0.481345
0.513028
0.459854
0.365186
0.420845
0.366447
0.447123
0.377822
0.388843
0.304576
0.328581
0.191402
0.296020
0.215723
0.294659
0.133585
0.184214
0.237386
0.228551
0.149213
0.107181
0.121680
0.004374
0.042004
0.085846
0.040607
0.018172
-0.048900
0.128799
0.082404
-0.042904
0.060788
-0.036554
-0.086163
-0.037205
-0.024985
-0.028589
-0.069463
-0.000715
-0.039107
0.042626
-0.054419
0.004158
0.068723
-0.042802
-0.047022
-0.046792
-0.012661
-0.027611
-0.034067
-0.107914
0.020620
0.001373
-0.010497
-0.098672
-0.176068
-0.076654
-0.034963
-0.046691
-0.046720
-0.073949
-0.052106
0.064773
-0.075056
-0.099608
-0.026446
-0.084276
-0.108850
0.012328
-0.089233
-0.125859
-0.011223
-0.047798
-0.054114
-0.040961
-0.023467
0.002722
-0.093290
-0.110041
0.003671
-0.024752
0.038212
-0.065389
-0.014049
-0.029531
-0.030396
-0.037902
0.075535
0.018278
-0.049468
0.044549
-0.054245
0.031937
0.061177
0.104055
0.018259
0.098501
0.100822
0.110627
0.035262
0.185309
0.165664
0.171355
0.161544
0.146829
0.154525
0.259227
0.146159
0.062470
0.189666
0.126223
0.075858
0.118387
0.020365
0.158488
0.103409
0.077864
0.052432
0.071036
-0.024872
-0.043816
-0.031581
0.057012
-0.040440
-0.029136
-0.094962
0.000619
0.026642
-0.050242
-0.114477
-0.062293
0.003201
0.059554
-0.044185
-0.099638
-0.057932
-0.103207
-0.094436
0.094159
0.284128
0.554203
0.822448
1.206133
1.331916
1.371990
1.099888
0.851742
0.465433
0.010475
-0.120330
-0.280375
-0.209621
-0.076453
-0.100763
-0.019959
-0.074996
-0.004671
0.006985
-0.036288
0.075521
-0.012996
0.014921
0.044426
0.049767
0.093879
0.110388
0.078390
0.107106
0.215131
0.198967
0.194908
0.182057
0.196805
0.263003
0.200893
0.352955
0.340028
0.282578
0.384134
0.491777
0.276792
0.366304
0.451276
0.441311
0.399100
0.475458
0.403453
0.492786
0.485008
0.477531
0.494140
0.591808
0.511374
0.418054
0.618845
0.547996
0.513011
0.477817
0.472805
0.521549
0.444177
0.484810
0.468676
0.338707
0.356438
0.336505
0.362386
0.311340
0.315813
0.232921
0.327577
0.299367
0.309269
0.199284
0.283304
0.151787
0.183173
0.147035
0.136663
0.160440
0.119763
0.061631
0.081324
0.030395
0.037557
0.011377
0.080365
0.036639
-0.010589
0.016221
0.112417
0.072081
0.048972
0.021731
0.036916
-0.058160
0.000233
-0.017754
0.072386
0.038024
0.026951
0.065949
0.018518
-0.015554
0.035093
0.007776
0.060423
0.097137
0.021056
0.018784
0.017910
0.024473
0.014591
0.102036
0.029510
-0.012969
0.010883
0.000931
0.086698
0.016284
0.036419
0.008934
0.070621
0.061683
0.064855
0.034992
0.008256
0.015521
0.073487
-0.010877
0.045718
0.060764
-0.021014
-0.031647
0.087225
0.046148
0.077390
0.043247
0.069207
0.041603
0.105636
0.043506
0.096587
0.134424
0.155450
0.043693
0.199720
0.210224
0.189956
0.165510
0.172943
0.176650
0.211281
0.235348
0.220320
0.235815
0.248747
0.249203
0.267729
0.235679
0.238724
0.286038
0.149142
0.228256
0.180531
0.205156
0.205956
0.157246
0.175600
0.218880
0.135544
0.150943
0.086332
0.164121
0.084141
0.172730
0.206405
0.124786
0.135212
0.034780
0.080935
0.017978
0.083375
0.042890
0.121421
0.131349
0.039330
0.013848
0.093515
0.046381
0.055938
0.066672
0.094078
0.223118
0.408977
0.672573
1.106816
1.321177
1.500000
1.366577
1.145722
0.812892
0.495423
0.181105
-0.080882
-0.133520
-0.083309
-0.101788
0.018495
0.063943
0.119070
0.049048
0.125017
0.194369
0.119016
0.128920
0.129039
0.227828
0.176193
0.218623
0.147455
0.148733
0.139683
0.259081
0.336815
0.330035
0.268352
0.258320
0.281983
0.359118
0.337833
0.331494
0.430477
0.511769
0.421181
0.451989
0.469484
0.523402
0.566784
0.548472
0.480178
0.551026
0.524137
0.639636
0.689505
0.571579
0.568210
0.618760
0.655822
0.565268
0.617589
0.618569
0.590083
0.627140
0.543038
0.521294
0.561226
0.514203
0.511179
0.467425
0.428743
0.439706
0.346216
0.448159
0.399845
0.371041
0.339157
0.249374
0.225739
0.202502
0.210890
0.213361
0.279921
0.191421
0.214745
0.154500
0.164779
0.161148
0.185510
0.160418
0.102518
0.254157
0.221025
0.197417
0.055901
0.123633
0.113931
0.144939
0.085544
0.051383
0.101695
0.177522
0.090154
0.029744
0.032493
0.063881
0.090701
0.207518
0.037296
0.038985
0.020759
0.133763
0.126899
0.132894
0.076725
0.126766
0.104168
0.181483
0.185357
0.086682
0.094509
-0.004738
0.086047
0.162456
0.019866
0.130377
0.104617
0.095121
0.057601
0.076742
0.154430
0.056550
0.073037
0.074004
0.094672
0.121415
0.078625
0.107533
0.042114
0.108142
0.062699
0.106860
0.110876
0.048337
0.059525
0.112644
0.164257
0.120264
0.183431
0.182901
0.148948
0.183107
0.101194
0.234323
0.215429
0.174877
0.189484
0.207440
0.214020
0.317462
0.227469
0.263249
0.191511
0.272368
0.270464
0.329822
0.256419
0.196708
0.314228
0.246316
0.317517
0.261426
0.229013
0.191895
0.200766
0.159941
0.138450
0.113107
0.038861
0.126075
0.156187
0.129736
0.071802
0.146332
0.108559
0.125866
0.145497
0.110688
0.157563
0.035247
-0.026103
0.104497
0.059294
0.023481
0.045090
0.103019
0.074006
0.045729
0.312435
0.444415
0.709630
1.081270
1.396481
1.465548
1.416897
1.124061
0.710282
0.377291
0.159042
-0.104843
-0.268726
-0.204731
-0.119577
0.052629
-0.004692
0.070547
0.066859
0.011821
0.087167
0.147415
0.042001
0.195327
0.106675
0.109194
0.117879
0.250382
0.208296
0.131614
0.239201
0.145166
0.229670
0.288513
0.228866
0.280603
0.300301
0.276761
0.345660
0.365086
0.370068
0.390254
0.470419
0.440949
0.501867
0.505417
0.538031
0.439861
0.491706
0.472400
0.576255
0.580438
0.566752
0.500990
0.548320
0.606546
0.573119
0.501070
0.493675
0.450410
0.568237
0.422491
0.387314
0.439247
0.493571
0.469796
0.406841
0.272167
0.313974
0.340251
0.303406
0.258466
0.202704
0.266057
0.262628
0.239735
0.145704
0.097354
0.053653
0.171032
0.110632
0.143649
0.139625
0.102479
0.121273
0.054298
0.010587
0.046914
0.085945
0.035906
-0.007133
-0.001490
-0.030599
0.014995
-0.056299
0.025614
-0.072790
-0.053897
-0.081904
-0.024774
-0.037681
-0.017289
-0.026926
-0.017875
0.019748
0.053143
0.006138
-0.051240
-0.125408
-0.110158
0.053392
-0.076851
0.046053
-0.103411
0.041599
-0.086704
-0.024189
-0.057290
-0.053974
-0.031270
-0.010550
0.034439
-0.034166
0.018392
0.070122
-0.055042
-0.052070
-0.022340
-0.020415
-0.034794
-0.023861
0.062727
0.020689
0.009711
0.008250
-0.029029
-0.049033
-0.039275
-0.038019
0.021389
0.028344
-0.044426
-0.099093
-0.041993
0.041688
0.007968
0.063204
0.103768
0.067223
0.083778
0.032975
0.081904
0.080984
0.022992
0.085943
0.123174
0.132392
0.095562
0.169783
0.148939
0.103378
0.196361
0.168406
0.145671
0.153525
0.179833
0.095963
0.066130
0.136701
0.131563
0.104201
0.037371
0.090659
0.069077
0.012636
0.013253
0.003147
0.045907
-0.052803
-0.053102
-0.019564
-0.110695
0.012103
-0.088312
-0.065282
-0.061002
-0.086897
-0.053382
-0.042749
-0.026971
0.058789
0.018156
-0.018146
-0.101802
0.099815
0.108002
0.448407
0.731437
0.993071
1.237060
1.378083
1.177748
0.895412
0.566334
0.139161
-0.186602
-0.214898
-0.255462
-0.284084
-0.199024
-0.092651
-0.082212
-0.022365
-0.015132
-0.078134
-0.016269
0.129038
0.019360
0.076744
-0.062326
0.041229
0.107489
0.057424
0.078588
0.062597
0.112551
0.130644
0.129382
0.143025
0.162010
0.231526
0.233867
0.274570
0.258486
0.291205
0.286089
0.285472
0.295218
0.306184
0.343755
0.377380
0.342103
0.516299
0.346434
0.494430
0.401006
0.368663
0.451073
0.431126
0.494876
0.434019
0.482129
0.402309
0.381384
0.402108
0.468503
0.409447
0.413230
0.410342
0.369307
0.396176
0.284854
0.236216
0.207392
0.228440
0.219477
0.248612
0.161665
0.186038
0.079200
0.118016
0.076695
0.118932
0.126087
0.047737
0.017326
0.086461
-0.047996
0.037034
-0.053448
0.001276
-0.034473
0.002845
-0.062453
-0.049405
0.003408
-0.023123
-0.105527
0.000047
-0.127059
-0.092855
-0.082597
-0.067940
-0.021486
0.008202
-0.113616
-0.053805
-0.007897
-0.148082
-0.087517
-0.098887
-0.088738
-0.070061
-0.071296
-0.076126
-0.136572
-0.058185
-0.180123
-0.116598
-0.072806
-0.161361
-0.205270
-0.085642
-0.074286
-0.092784
-0.087603
-0.043647
-0.138992
-0.120651
-0.012683
0.003361
-0.130850
-0.063512
-0.102231
-0.086852
-0.044766
-0.051514
-0.082085
-0.124270
-0.148133
-0.062242
-0.066906
-0.119719
-0.127146
-0.086204
-0.041369
-0.043827
-0.051525
0.047706
-0.086351
0.013787
0.008034
0.039810
0.017615
-0.027379
0.024327
-0.026761
0.057664
0.078295
0.113352
0.116305
0.089894
0.146099
0.066019
0.050885
0.218001
0.111703
0.094923
0.065021
0.088832
0.157346
0.041020
0.034506
0.020457
0.074542
-0.017351
0.011533
0.057369
0.015028
0.025562
-0.013463
-0.011125
-0.057309
-0.113716
-0.049076
-0.032179
-0.102258
-0.021405
-0.104169
-0.002625
-0.069096
-0.025740
-0.098778
-0.011495
-0.146654
-0.090402
-0.007157
-0.028220
0.052822
0.129950
0.187245
0.477340
0.851362
1.109282
1.380138
1.361659
1.191586
0.876145
0.522694
0.169717
-0.196849
-0.349559
-0.293546
-0.202497
-0.156238
-0.096189
-0.031690
-0.048789
-0.080709
-0.001968
-0.005560
0.062511
0.038089
0.021213
0.085838
0.146666
-0.007666
0.040249
0.097557
0.112705
0.103301
0.131266
0.194464
0.145879
0.145530
0.144157
0.267633
0.190848
0.281550
0.308940
0.324032
0.391977
0.405572
0.345726
0.410279
0.434765
0.379081
0.516167
0.401986
0.494912
0.427537
0.456365
0.452339
0.539243
0.547506
0.537432
0.401021
0.460088
0.492274
0.472071
0.438998
0.397060
0.407221
0.517053
0.385185
0.386012
0.372338
0.380138
0.327996
0.286161
0.238658
0.205866
0.271758
0.148493
0.133743
0.134113
0.106332
0.173881
0.140784
0.124137
0.115978
0.018030
0.050752
0.070720
0.005986
0.072492
0.070798
0.041062
0.009617
0.116062
-0.016892
0.030726
0.060559
0.025468
0.019324
0.013252
0.025148
0.023760
-0.065524
-0.002716
0.016024
0.063347
-0.004157
-0.002898
0.022633
0.043738
-0.037986
-0.040022
-0.044832
-0.050354
-0.057473
-0.070933
0.114798
-0.069682
0.027251
0.075432
0.007672
-0.036959
0.060017
-0.008911
0.109404
-0.006881
-0.020108
0.047934
0.028307
-0.034530
-0.013752
0.045897
0.022300
0.085393
0.026260
0.005165
0.054209
0.020080
-0.079152
-0.072209
0.006870
-0.038595
0.071845
0.029458
0.021706
-0.008794
0.056013
0.055837
0.100858
0.117473
0.084381
0.091147
0.088968
-0.019515
0.143151
0.169752
0.104410
0.102802
0.104936
0.182870
0.196789
0.172266
0.202022
0.191466
0.237931
0.184473
0.283906
0.221901
0.227392
0.249243
0.112596
0.104083
0.078064
0.084732
0.167263
0.146082
0.174255
0.121768
0.126949
0.102596
0.071331
0.082919
0.096126
0.008733
0.071778
0.042951
0.070148
0.077070
0.021819
0.033948
0.141787
0.032169
0.014543
-0.066386
0.062964
-0.059363
0.093553
0.066195
0.110256
0.335117
0.613052
1.015084
1.222385
1.437299
1.489997
1.249581
0.760088
0.515668
0.241513
-0.010113
-0.192643
-0.253819
-0.107115
-0.052633
-0.059025
0.015877
0.010248
-0.041851
0.166780
0.107072
0.071925
0.068205
0.184950
0.047312
0.134884
0.118465
0.106131
0.182602
0.218022
0.264550
0.243832
0.289336
0.292648
0.276644
0.335302
0.325040
0.322654
0.395844
0.368736
0.518615
0.417504
0.408677
0.428660
0.494270
0.534225
0.519401
0.525462
0.477559
0.562554
0.536333
0.608694
0.607101
0.570090
0.530648
0.596851
0.594028
0.584865
0.610749
0.476195
0.478833
0.514352
0.512805
0.463022
0.356830
0.435074
0.343028
0.461540
0.479931
0.389513
0.342375
0.235879
0.293525
0.353048
0.224178
0.234377
0.224828
0.138750
0.168594
0.148558
0.212801
0.187062
0.138359
0.073280
0.091763
0.063511
0.137831
0.022581
0.076282
0.123343
0.107594
0.080490
0.090909
0.100296
0.009756
0.076148
0.020846
0.031594
0.071560
0.116945
0.103029
0.175113
0.034402
0.064074
0.034334
0.032588
-0.024045
0.005840
0.086700
0.081153
-0.025695
0.009331
0.057537
0.039049
-0.032801
0.008445
0.036360
0.051722
0.014179
0.104443
0.103068
0.061934
0.021422
0.075793
0.114374
0.043899
0.041459
0.034667
0.090837
-0.065492
0.075234
0.041497
0.066820
0.060231
0.088805
-0.013452
0.022232
0.142652
0.063447
0.026384
-0.009146
0.222628
0.138236
0.130427
0.126010
0.076506
0.091674
0.072686
0.104672
0.082273
0.145637
0.188986
0.091802
0.212584
0.177477
0.188758
0.201908
0.213225
0.167326
0.223679
0.107440
0.260059
0.278548
0.225047
0.215091
0.110686
0.169419
0.113762
0.121624
0.208680
0.103973
0.201725
0.174152
0.085030
0.126844
0.092936
0.049342
-0.035005
0.038548
-0.023334
0.118508
0.000916
0.049187
-0.047746
-0.000002
0.063795
-0.040881
-0.008087
-0.004892
-0.013895
-0.036258
-0.017695
0.057563
-0.009862
0.182441
0.342220
0.596490
0.964762
1.266108
1.452226
1.344614
1.137275
0.689892
0.393293
0.063992
-0.131912
-0.212388
-0.237215
-0.065772
-0.068338
0.046333
0.030861
0.052189
0.009719
0.086609
0.025005
-0.061906
0.112178
0.004052
0.156394
-0.017705
0.129776
0.073447
0.116905
0.093818
0.153637
0.183223
0.226383
0.203867
0.208895
0.260712
0.292066
0.301801
0.286000
0.430039
0.319069
0.378891
0.369700
0.447939
0.410614
0.497668
0.488177
0.414948
0.596853
0.483835
0.577685
0.452743
0.492621
0.548035
0.469941
0.520849
0.414650
0.444796
0.454177
0.400117
0.432787
0.477560
0.398385
0.389516
0.467047
0.337054
0.287043
0.300228
0.339499
0.271658
0.230151
0.266588
0.202344
0.195100
0.168094
0.072174
0.106255
0.198169
0.085481
0.083898
0.079383
0.030926
0.025067
0.041289
-0.000822
-0.018848
0.022403
0.015186
-0.016726
-0.002419
-0.051305
-0.006872
-0.013086
-0.006776
-0.044950
0.005916
-0.031404
-0.071767
-0.089554
-0.037233
-0.058119
-0.062493
-0.101521
-0.165199
-0.013021
-0.096426
-0.013508
-0.044635
-0.075312
-0.063995
-0.073726
-0.056471
0.023141
0.016492
-0.106968
-0.022965
-0.085582
-0.048537
-0.049055
-0.085812
0.010856
-0.063648
-0.111671
-0.108016
-0.037026
-0.124008
-0.144564
-0.011052
-0.061253
-0.092378
-0.015722
-0.148212
-0.208511
-0.000813
-0.074118
-0.109924
-0.039406
-0.019451
-0.053916
-0.011065
-0.057077
-0.097750
-0.053320
0.083386
-0.009292
-0.064603
-0.103338
-0.060970
0.014138
0.023560
-0.008982
0.005072
0.080768
0.003335
0.068754
0.093877
0.138890
0.042016
0.078435
0.099338
0.033929
0.224218
0.076427
0.101187
0.039209
0.031004
0.025429
0.076982
0.156779
0.030618
0.087122
0.057507
0.068353
-0.064382
0.064209
-0.008634
-0.010327
-0.046249
-0.155296
-0.056059
0.009031
-0.129980
-0.087964
-0.101887
-0.104881
-0.124440
-0.121136
-0.109242
-0.107248
-0.116826
-0.125251
-0.152350
-0.142832
-0.035772
0.139115
0.275094
0.611617
0.905915
1.189589
1.329201
1.179301
0.936860
0.566633
0.272558
-0.105868
-0.252084
-0.324064
-0.365372
-0.354441
-0.188330
-0.131903
-0.085217
0.011608
-0.075237
-0.020915
-0.087193
0.055704
0.025757
-0.051514
0.008110
-0.005004
-0.020619
-0.030065
0.061803
0.052327
0.002227
0.094555
0.114508
0.079894
0.104170
0.186301
0.194075
0.201725
0.190692
0.271613
0.320114
0.291259
0.319609
0.407872
0.306798
0.418529
0.367117
0.383098
0.392412
0.341614
0.441134
0.396898
0.446172
0.405084
0.393039
0.337152
0.412203
0.442459
0.388140
0.311017
0.362178
0.398932
0.337553
0.308831
0.358222
0.333584
0.238415
0.202218
0.205542
0.201127
0.241833
0.171411
0.126080
0.067818
0.019125
0.029818
0.182499
0.057194
0.034309
0.045379
-0.010609
-0.038291
0.036949
-0.037227
0.026485
-0.131477
-0.010897
-0.053569
-0.119055
-0.103666
-0.100332
-0.106345
-0.017084
-0.135280
-0.122905
-0.128602
-0.025671
-0.185910
-0.105765
-0.119274
-0.063742
-0.161169
-0.217081
-0.110435
-0.093790
-0.116981
-0.068581
-0.044871
-0.051707
-0.066884
-0.061002
-0.186258
-0.066310
-0.058820
-0.071778
-0.007867
-0.117668
-0.045377
-0.104797
-0.078832
-0.069636
-0.028681
-0.121591
-0.018343
-0.060657
-0.189587
-0.042976
-0.064751
-0.111535
-0.078571
-0.071749
-0.209448
-0.134868
-0.087704
-0.047228
-0.041311
-0.106722
-0.154480
-0.035690
-0.041819
-0.107574
-0.076544
-0.092480
-0.062610
-0.033252
0.002325
-0.006817
-0.032219
-0.021560
0.017074
0.021345
0.022984
0.088162
0.011865
0.016626
0.160819
0.037211
0.181650
0.061050
0.166690
0.189527
0.200132
0.174511
0.071568
0.108376
0.035549
0.056910
0.078295
0.060152
0.016921
0.065112
0.090962
0.112484
0.017891
0.011604
-0.020556
-0.010238
-0.078362
0.029202
-0.058708
-0.014533
-0.071673
-0.076842
-0.040283
-0.023075
-0.049718
-0.073043
-0.034740
0.042448
0.012247
-0.057105
-0.057818
-0.024634
0.063831
0.166141
0.531203
0.671222
0.976083
1.267911
1.374404
1.279559
1.050511
0.466095
0.187637
-0.057140
-0.270316
-0.310783
-0.309067
-0.253412
-0.049808
-0.016426
-0.109292
-0.008278
-0.035140
-0.035776
0.091895
0.040628
0.045077
0.094031
0.050792
0.067417
0.083120
0.094104
0.019848
0.093426
0.212677
0.119114
0.207106
0.231627
0.250497
0.244040
0.245874
0.244277
0.344329
0.300685
0.321464
0.236051
0.384625
0.395123
0.408434
0.339540
0.420482
0.416421
0.452732
0.488546
0.449294
0.444210
0.623227
0.424790
0.502483
0.471198
0.507245
0.383378
0.519656
0.436272
0.443540
0.402562
0.404325
0.412438
0.340274
0.364083
0.316190
0.298537
0.310719
0.291129
0.275597
0.267474
0.191245
0.249803
0.203296
0.180866
0.066497
0.095962
0.236157
0.180711
0.038375
0.184043
0.074282
0.071792
0.017303
0.020577
0.086138
0.127275
0.022109
0.027163
-0.056632
-0.026061
0.019238
-0.036163
0.036693
0.051312
0.027583
-0.082163
0.013189
0.120844
0.027535
-0.031887
-0.019706
0.021897
0.003960
-0.027558
0.106643
0.038703
-0.029964
0.002256
0.131979
0.055115
0.097555
-0.003709
0.048547
0.057929
0.005380
0.020481
-0.033525
-0.026570
0.057335
0.001378
0.014953
0.053255
-0.005962
0.038626
0.016876
0.099955
0.026970
-0.022975
0.037210
0.021819
0.013958
0.092672
0.052934
0.078106
-0.015103
0.053889
0.023411
0.052255
0.137767
0.086102
0.082373
0.025782
0.068130
0.126355
0.130478
0.037985
0.172838
0.142995
0.157882
0.163236
0.180768
0.246318
0.155623
0.211020
0.264443
0.185241
0.170461
0.262179
0.198161
0.279395
0.108301
0.282895
0.227952
0.200738
0.180989
0.211654
0.168793
0.109163
0.091913
0.173331
0.140331
0.185503
0.128062
0.022586
0.016335
0.127499
0.019972
-0.000064
0.075576
0.107716
0.033672
0.061610
0.010776
0.086702
0.007936
0.099158
0.031407
0.078534
0.073853
0.011579
0.076415
0.249357
0.353246
0.544138
0.954241
1.174985
1.402057
1.448535
1.289397
0.961059
0.635660
0.234651
0.006419
-0.181331
-0.165010
-0.093104
-0.041973
0.136778
0.009431
0.118321
0.095565
0.120119
0.102020
0.055721
0.170712
0.153282
0.185269
0.190731
0.178085
0.153153
0.129000
0.217216
0.271827
0.293354
0.304680
0.281942
0.330890
0.342887
0.220779
0.337127
0.377895
0.440336
0.339104
0.398774
0.510030
0.504986
0.505255
0.450527
0.573286
0.581492
0.582605
0.533937
0.562035
0.566491
0.558487
0.642120
0.597831
0.526990
0.604499
0.539253
0.560892
0.596365
0.608984
0.448447
0.494654
0.445906
0.429290
0.501024
0.420565
0.414620
0.432064
0.359045
0.270128
0.356524
0.304702
0.400833
0.272897
0.296374
0.204042
0.207661
0.225294
0.215031
0.207232
0.214962
0.152354
0.136108
0.130887
0.100856
0.152508
0.122578
0.117889
