-0.003622
0.010428
0.022724
0.031226
0.071084
0.026739
0.057075
0.005284
-0.056539
0.029725
0.118183
-0.048320
0.007095
-0.062275
0.001608
0.049349
0.006977
0.019569
-0.017061
0.004758
-0.022090
0.066661
-0.016939
0.003766
0.014119
0.123316
0.077777
-0.036075
0.047692
0.085235
0.138526
0.158692
0.073870
0.085611
0.149989
0.121591
0.163702
0.126004
0.183514
0.109138
0.159020
0.150663
0.189342
0.269074
0.179175
0.169794
0.171673
0.169144
0.226438
0.224508
0.072348
0.170910
0.114184
0.102944
0.078638
0.115857
0.153302
0.119847
0.148244
0.095422
0.064672
0.079714
0.131924
0.079397
0.077111
0.054626
0.035710
0.042453
0.058148
0.041657
0.080445
0.105401
0.039386
0.044256
0.085087
0.020963
0.082724
0.133932
-0.097513
-0.006628
0.013727
0.065144
0.142222
0.360827
0.760136
1.045301
1.272969
1.500000
1.368581
1.126067
0.809359
0.427715
0.071202
-0.195204
-0.192821
-0.172681
-0.140863
-0.162360
0.093908
-0.033595
0.031759
0.079494
0.045087
0.089618
0.078596
0.065347
0.046243
0.092510
0.087752
0.148410
0.177165
0.180746
0.159508
0.205196
0.059187
0.152071
0.205400
0.194607
0.184301
0.275327
0.210519
0.258963
0.312426
0.319621
0.319596
0.351541
0.366989
0.377368
0.394410
0.476129
0.460454
0.523720
0.485697
0.446901
0.535778
0.486710
0.574727
0.568930
0.507843
0.550244
0.571860
0.647048
0.533793
0.507759
0.607700
0.603671
0.594537
0.508452
0.512919
0.498226
0.489757
0.519554
0.433481
0.446357
0.392609
0.363541
0.447112
0.407919
0.244892
0.338055
0.398220
0.342237
0.205844
0.261962
0.212507
0.273132
0.172005
0.186154
0.156478
0.147432
0.261795
0.138373
0.137232
0.137279
0.065625
0.103032
0.061085
0.089612
0.161745
0.124541
0.062754
0.086713
0.132077
0.077898
0.085105
0.120090
0.077263
0.058772
0.067856
0.096485
0.076513
0.075856
0.087165
0.127536
0.119768
0.035160
0.057230
0.055823
0.063285
0.117561
0.087212
0.017716
0.027528
0.105517
0.087929
0.089776
0.000327
0.088779
0.091642
0.134458
0.096772
0.064662
0.041351
0.122934
0.096582
0.172763
0.069023
0.044205
0.118823
0.144969
0.044167
-0.001768
0.121128
0.035953
0.079457
0.051190
0.045600
0.152594
0.011032
0.044967
0.145017
0.075898
0.081522
0.117264
0.072550
0.164694
0.076592
0.055826
0.040387
0.120490
0.114809
0.104992
0.209848
0.151657
0.157190
0.129787
0.143587
0.123792
0.172382
0.084378
0.249303
0.174438
0.207428
0.233236
0.133945
0.218915
0.268787
0.218341
0.241470
0.223862
0.283391
0.223212
0.199211
0.273011
0.210392
0.233052
0.151682
0.239701
0.161262
0.201615
0.176678
0.194400
0.166075
0.126086
0.190506
0.124200
0.161270
0.189575
0.043794
0.071542
0.121973
0.093454
0.094696
0.029381
0.055151
0.071730
0.080239
0.075578
0.076848
0.061604
0.116801
0.079893
0.057383
0.036322
0.071684
0.061989
0.046876
0.031688
-0.017673
0.133226
0.400764
0.562505
0.895137
1.202179
1.347411
1.452778
1.195294
0.874788
0.559411
0.179661
-0.013983
-0.168633
-0.186582
-0.184515
-0.041957
-0.042283
-0.043879
-0.012589
0.087680
0.102567
0.078473
0.084920
0.043269
0.071047
0.057348
0.110690
0.043789
0.162527
0.067908
0.132919
0.076704
0.166431
0.220107
0.152887
0.152461
0.221966
0.286471
0.221917
0.226501
0.245236
0.290615
0.273639
0.310084
0.329423
0.401083
0.338359
0.414439
0.522342
0.429830
0.466576
0.365976
0.509826
0.545163
0.444653
0.492203
0.537812
0.503293
0.566405
0.614828
0.554479
0.526924
0.571524
0.485160
0.492732
0.482408
0.554651
0.382475
0.512607
0.489338
0.426790
0.393696
0.378757
0.343329
0.336107
0.318019
0.306776
0.344957
0.243213
0.214396
0.251403
0.191989
0.295317
0.219117
0.158003
0.150341
0.084958
0.058806
0.118671
0.071670
0.077959
0.072177
0.152134
0.058127
0.081044
0.047926
0.074548
0.082325
0.009277
0.003649
-0.001816
0.078664
0.044866
0.031511
0.046167
0.027446
0.060674
0.049131
0.069434
0.058129
0.067366
-0.049337
-0.065933
-0.013766
0.015035
0.046899
-0.003143
0.044358
-0.012672
-0.012892
-0.052511
0.011953
-0.059787
0.021245
-0.033894
-0.035066
-0.016725
0.017168
-0.062725
0.003332
0.036355
-0.042714
-0.020497
0.053301
-0.021182
0.005732
-0.067303
-0.069147
-0.059258
-0.063513
-0.003404
-0.051071
-0.056234
-0.163430
0.015009
-0.062916
-0.054285
-0.038023
-0.042944
0.011266
-0.009728
0.004114
0.060951
0.015884
-0.075740
-0.063159
0.002781
-0.055896
-0.067767
0.091325
-0.021250
0.030617
0.111861
-0.013612
0.068645
0.040079
0.038869
0.028805
0.013680
0.044632
0.044339
0.132449
0.137449
0.130957
0.130629
0.156532
0.062919
0.180528
0.135588
0.157444
0.146270
0.208814
0.148069
0.199940
0.144132
0.100060
0.109299
0.077274
0.086193
0.037144
0.033903
0.012407
-0.008582
-0.002085
0.044998
0.045678
0.006881
0.009608
-0.013602
-0.007539
0.001886
0.009917
-0.083588
-0.050789
-0.015633
-0.118392
-0.074006
-0.037060
-0.002275
-0.010671
-0.064617
-0.025617
0.018292
-0.037533
0.012522
-0.042290
-0.095866
0.042208
0.084918
0.409863
0.719125
0.978885
1.300814
1.286873
1.233082
0.912000
0.609612
0.196109
-0.086167
-0.157564
-0.346815
-0.317991
-0.297289
-0.146585
-0.166084
-0.035160
-0.021218
-0.025819
-0.080242
-0.059931
-0.047213
-0.030891
0.042101
0.041462
0.061397
0.013786
0.033697
0.006409
0.100669
-0.001325
0.046534
0.050341
0.069274
0.148751
0.136714
0.138074
0.121584
0.251144
0.212331
0.135138
0.161634
0.286459
0.224520
0.332741
0.292325
0.347957
0.418407
0.440507
0.392752
0.389656
0.422109
0.345754
0.455983
0.430365
0.364057
0.505690
0.466174
0.431927
0.472948
0.488032
0.474176
0.418400
0.439079
0.452656
0.377572
0.404434
0.414002
0.305163
0.282302
0.315711
0.360412
0.323832
0.318237
0.281192
0.184650
0.209182
0.159505
0.180165
0.230372
0.166032
0.154581
0.134853
0.068421
0.058916
0.065252
0.046538
0.095651
0.072173
0.038889
0.002601
-0.022591
-0.005572
-0.015625
-0.034429
-0.008487
-0.006682
0.010670
-0.056016
-0.065147
-0.064748
-0.002184
-0.017484
-0.004678
-0.020584
0.012381
-0.060121
-0.109639
-0.021667
-0.072439
-0.061514
-0.012729
-0.096580
-0.081518
-0.085389
-0.073054
-0.052631
-0.074922
0.004443
0.044346
-0.039993
-0.060599
-0.022404
-0.089841
-0.048600
0.052189
-0.021086
0.002372
-0.006112
-0.013360
0.036875
-0.076918
-0.043351
-0.004399
-0.065761
0.001620
-0.031179
-0.026194
0.042244
0.024649
0.076563
0.017939
-0.033163
-0.063852
-0.078479
-0.041552
-0.081985
-0.007247
-0.010871
0.033519
-0.062513
0.025862
0.005369
-0.025287
-0.037529
-0.056552
-0.074307
-0.015611
0.039638
0.073069
0.074165
0.020856
0.029221
-0.022742
0.061024
0.113739
0.025036
0.007838
0.065266
0.130885
0.146137
0.160368
0.228688
0.166601
0.067648
0.127612
0.141342
0.045986
0.169019
0.207554
0.157121
0.172328
0.096181
0.167661
0.162729
0.134344
0.078753
0.076786
0.033098
0.105595
0.134036
0.154055
0.139838
0.070522
0.060814
0.110292
0.077438
0.011884
0.002320
0.016141
0.040739
0.034177
0.027120
0.007682
0.012078
-0.001918
0.028090
0.000664
0.021739
-0.047227
0.038123
0.066700
-0.059598
-0.076271
0.057158
0.025030
0.133224
0.341924
0.746807
0.998992
1.218197
1.399591
1.300510
1.127692
0.786148
0.456994
0.102485
-0.116983
-0.220676
-0.227868
-0.162685
-0.091998
-0.135496
0.064805
0.049265
0.030387
0.039878
0.031276
0.036853
0.098370
0.131876
0.108677
0.011051
0.105326
0.034018
0.007459
0.073914
0.068265
0.089928
0.125600
0.239377
0.135794
0.097967
0.209821
0.188241
0.207809
0.215382
0.286320
0.287861
0.226710
0.335879
0.302029
0.329510
0.405991
0.465115
0.434110
0.434609
0.426155
0.477901
0.478676
0.496892
0.528317
0.493772
0.559813
0.514777
0.570451
0.541233
0.467648
0.604136
0.544721
0.464002
0.557253
0.527803
0.478481
0.489629
0.508767
0.427303
0.439157
0.361685
0.381347
0.375690
0.301708
0.354936
0.344412
0.315846
0.229733
0.261994
0.257702
0.189591
0.188571
0.214028
0.204257
0.156358
0.089593
0.088714
0.113402
0.131946
0.098822
0.114423
0.024407
0.109672
0.069731
0.065992
0.080373
0.165575
-0.003694
0.028279
0.038241
0.004317
0.043215
0.042517
0.077868
0.083400
0.133733
0.200763
0.023179
0.046765
0.119866
0.014474
0.048125
0.043081
0.058171
0.051637
0.040214
0.062990
0.098223
0.112312
0.094861
0.072968
0.072090
0.047525
0.030601
0.024058
0.035694
0.111540
0.082397
0.094182
0.129102
0.069696
0.026340
0.096670
0.117676
0.048016
0.041783
0.090134
0.030097
0.089392
0.143182
0.007658
0.112765
0.075226
0.058431
0.147454
0.146085
0.041882
0.080756
0.080421
0.110288
0.093906
-0.026913
0.100076
0.095429
0.059873
0.041964
0.147356
0.112757
0.056227
0.086627
0.071074
0.122496
0.216491
0.069203
0.214543
0.161885
0.219505
0.161763
0.257767
0.244545
0.240199
0.232020
0.273326
0.245215
0.325420
0.201245
0.223290
0.219441
0.217772
0.217137
0.231001
0.248765
0.266408
0.284533
0.240480
0.236813
0.257512
0.169045
0.176894
0.142267
0.096157
0.119485
0.207441
0.189830
0.125722
0.096701
0.060135
0.031432
0.133465
0.117613
0.070635
0.095419
0.113840
0.155757
0.062224
0.106013
0.118993
0.129423
0.103215
0.157574
0.095193
0.015460
0.042870
0.008333
0.055663
0.170952
0.312649
0.574877
0.877501
1.176389
1.408646
1.496117
1.276777
1.009104
0.700793
0.305464
0.050614
-0.120382
-0.200667
-0.173439
-0.057606
-0.043012
0.050207
0.055603
0.057435
0.080593
0.122371
0.123008
0.083674
0.092985
0.112733
0.124967
0.103815
0.151634
0.128476
0.103878
0.208274
0.226802
0.171023
0.247355
0.150137
0.229387
0.255254
0.305305
0.380305
0.283025
0.246275
0.280125
0.389650
0.331808
0.417681
0.373606
0.421942
0.398825
0.459068
0.466458
0.511496
0.512056
0.603490
0.541700
0.593141
0.688893
0.618264
0.474417
0.653563
0.586676
0.567664
0.562408
0.582411
0.523443
0.529495
0.629835
0.616498
0.543837
0.609260
0.492458
0.422019
0.389845
0.416273
0.373568
0.327937
0.335691
0.325740
0.292988
0.258716
0.278468
0.257912
0.210651
0.208155
0.266756
0.178100
0.185649
0.189956
0.151431
0.110935
0.141992
0.128659
0.150166
0.027550
0.092671
0.104328
0.031753
0.169327
0.089300
0.066771
0.095630
0.022109
0.094139
0.125913
0.048252
0.082324
0.105002
0.058502
-0.016076
-0.025024
0.160899
0.052855
0.073937
0.127723
-0.031011
0.102817
0.022910
0.090640
0.015842
-0.048414
0.002452
0.018273
0.058726
0.125097
0.066954
0.007351
0.060380
0.032318
-0.014620
0.029988
0.058420
0.083558
0.036745
0.056852
0.008205
-0.009316
0.077476
0.001748
0.020072
0.037092
-0.044875
0.013496
0.076876
0.063319
-0.048284
-0.090311
-0.031785
0.046274
0.042424
0.049305
0.019963
0.083634
0.060309
0.028720
-0.091579
-0.000455
0.019986
0.012889
0.085728
0.027662
0.022052
0.005208
0.038868
0.123406
0.052275
0.048217
0.064223
0.177928
0.091539
0.178052
0.128761
0.099429
0.141421
0.165956
0.243093
0.195794
0.202850
0.195687
0.166287
0.137921
0.104502
0.162748
0.103310
0.182616
0.164699
0.159719
0.102637
0.145208
0.165541
0.156719
0.108311
0.131537
0.094198
0.052713
0.043578
0.001946
0.054426
0.002057
-0.045303
0.061962
-0.038745
-0.073570
-0.010317
0.098923
0.035574
-0.011880
-0.018401
-0.057930
0.029967
0.037460
-0.021408
-0.012458
0.010508
-0.035150
0.015420
-0.043728
-0.033283
0.024014
0.151958
0.349002
0.712850
1.011267
1.208901
1.351119
1.296643
0.993764
0.645124
0.296292
-0.022751
-0.232266
-0.284036
-0.242496
-0.196650
-0.167000
-0.113800
-0.036821
-0.058936
-0.035650
-0.044637
-0.049803
0.010805
0.061406
0.036439
0.000581
0.074730
-0.030504
0.005839
0.018502
0.042939
0.037442
0.108960
0.068285
0.105355
0.154231
0.164311
0.141434
0.180726
0.129993
0.210182
0.150365
0.247427
0.256878
0.204914
0.302125
0.289214
0.270164
0.291812
0.298171
0.343703
0.369839
0.418242
0.485595
0.426228
0.365205
0.503388
0.415769
0.477904
0.471585
0.478005
0.385161
0.477843
0.411162
0.417717
0.490046
0.393522
0.376333
0.399501
0.373200
0.307342
0.302546
0.256199
0.298677
0.323355
0.197939
0.182828
0.143972
0.098234
0.099130
0.111063
0.133883
0.171313
0.093034
0.085661
0.054327
0.063670
-0.065446
0.050847
-0.029010
0.025123
0.036133
-0.031837
-0.093635
-0.102800
0.013480
-0.048525
-0.030937
-0.005555
0.035715
-0.004718
-0.012305
0.048209
-0.070556
-0.066075
-0.130778
-0.073474
-0.101642
-0.028290
-0.123570
-0.076962
-0.047324
-0.053849
-0.169378
-0.042091
-0.026566
-0.032842
-0.103899
-0.006230
-0.115072
-0.099535
-0.090451
-0.057230
-0.109488
-0.065234
-0.007656
-0.109488
-0.081582
-0.109935
-0.063448
-0.046255
-0.039154
-0.025564
-0.039454
-0.133706
-0.141742
-0.098832
-0.127202
-0.093226
-0.079714
0.037207
-0.048453
-0.079204
0.002076
-0.079495
-0.052364
-0.097268
-0.056282
-0.049831
-0.096843
-0.118199
-0.088942
-0.076297
-0.005448
-0.044554
-0.123835
-0.099999
-0.067720
-0.056453
-0.035448
-0.012093
-0.061869
-0.079364
-0.069508
0.067454
0.024395
-0.082307
-0.030581
0.025952
-0.032474
0.048911
0.055718
-0.012760
0.122126
0.039231
0.123212
0.052111
0.080725
0.105348
0.043728
0.128216
0.143888
0.077232
0.086893
0.022880
0.090373
0.106671
0.040311
0.089745
0.048092
0.014131
-0.035699
0.046370
-0.035702
0.003215
0.042252
-0.054748
-0.070189
-0.058045
-0.090735
-0.092320
-0.045508
-0.052497
-0.031625
-0.011979
-0.057527
-0.068066
-0.109893
-0.089359
-0.080117
-0.028200
-0.148798
-0.076545
-0.078561
-0.032640
-0.106462
-0.105385
-0.021211
0.251092
0.540249
0.881639
1.124066
1.337578
1.314081
1.032500
0.886337
0.373645
0.175886
-0.132196
-0.318098
-0.329304
-0.280306
-0.224197
-0.157796
-0.137168
-0.057267
-0.060601
-0.094796
-0.045858
-0.063926
-0.027284
-0.026740
-0.041054
-0.038169
-0.049809
0.005006
-0.004632
-0.031120
-0.025778
0.026217
0.081054
0.141926
0.086738
0.102475
0.146362
0.132023
0.146569
0.137164
0.157192
0.125334
0.247736
0.228956
0.240164
0.270726
0.264319
0.326244
0.293563
0.335704
0.442242
0.400547
0.430286
0.444064
0.463500
0.426468
0.410493
0.407712
0.452196
0.418276
0.462798
0.431083
0.449284
0.493877
0.423444
0.438174
0.353774
0.354150
0.375011
0.389305
0.411994
0.361890
0.324199
0.253122
0.197567
0.248079
0.136181
0.156422
0.121129
0.211540
0.148791
0.180311
0.044652
0.074925
0.093477
0.028541
0.020297
0.042384
0.019527
-0.004676
0.114009
-0.062786
-0.039904
0.011441
-0.025340
0.081861
-0.013162
0.063261
-0.005444
-0.056310
-0.071339
0.058825
-0.066323
0.003606
-0.009603
-0.035589
-0.054899
0.039012
-0.010719
-0.031880
-0.116622
-0.014412
-0.040724
-0.083249
-0.023171
-0.069443
-0.071233
-0.057308
-0.006965
0.030389
0.029809
0.088953
-0.043038
0.037032
-0.062979
-0.099358
-0.004846
0.021054
-0.060093
-0.020567
-0.081010
-0.018594
-0.021864
-0.037612
-0.006756
-0.020303
-0.017242
0.018127
-0.044157
0.007057
0.022187
0.040559
0.068119
0.032977
-0.014106
0.010517
0.021604
-0.065482
-0.005359
-0.081050
-0.008243
-0.008095
0.012630
0.036761
0.040164
0.033118
-0.016279
0.078980
-0.014792
0.007239
-0.006134
0.040157
0.042925
0.111069
0.066873
0.038025
0.119044
0.078080
0.088772
0.123859
0.156094
0.225090
0.105251
0.138555
0.175625
0.147964
0.212392
0.136298
0.185400
0.187901
0.105482
0.187469
0.172024
0.191017
0.185243
0.166975
0.094379
0.020662
0.147825
0.131541
0.083124
0.025660
0.058662
0.033831
0.006860
0.159694
0.066023
0.029356
0.064171
0.071457
-0.004242
-0.026579
-0.073339
0.097613
0.027482
0.052676
0.006993
0.054867
0.027466
0.078069
0.044433
-0.029667
0.013449
-0.029677
0.073564
0.045453
0.004065
0.232797
0.509398
0.785466
1.101513
1.293787
1.454469
1.236756
1.015114
0.599471
0.240163
0.060107
-0.084460
-0.229096
-0.178450
-0.162172
-0.125070
-0.084545
-0.034086
0.010270
0.037474
0.017545
0.005353
0.045208
-0.034733
0.085570
0.055907
0.099635
0.048250
0.090067
0.017687
0.077295
0.116303
0.084473
0.115164
0.180221
0.225971
0.129517
0.283492
0.268055
0.252617
0.325841
0.293537
0.242648
0.262467
0.320940
0.323556
0.392636
0.371876
0.424178
0.450258
0.465576
0.404828
0.455622
0.511845
0.478560
0.520532
0.502352
0.516858
0.537775
0.519325
0.438498
0.519749
0.518648
0.458740
0.469069
0.466682
0.504558
0.421785
0.431712
0.444455
0.483706
0.423038
0.372654
0.393771
0.357576
0.241597
0.329798
0.275715
0.317541
0.382445
0.215551
0.242146
0.182753
0.233341
0.163845
0.192390
0.080424
0.106417
0.103666
0.154622
0.127463
0.068950
0.086524
0.002727
0.113166
0.144472
0.013171
0.160009
0.083624
0.090789
0.021723
0.104179
0.110200
0.030435
0.059655
0.079349
0.070732
0.094159
0.045194
0.003116
0.049400
0.112685
0.140184
0.016758
0.024477
0.071352
0.060156
0.051022
0.119607
-0.021245
-0.002641
0.044725
0.007471
0.056961
0.046732
-0.045035
-0.033814
0.051653
0.029585
0.027624
0.037907
0.137510
0.070344
0.026640
-0.000734
0.118046
0.063093
0.055617
0.087082
0.022911
0.075847
0.106011
0.001496
-0.045109
0.065514
0.019449
0.088686
0.069168
0.067187
0.020705
0.060649
0.069687
0.010864
0.091420
0.078558
0.073116
0.073186
0.060196
0.068723
0.043385
0.048756
0.145100
0.025906
0.131929
0.120898
0.087530
0.053173
0.036883
0.111930
0.175288
0.133546
0.160590
0.189860
0.172941
0.261438
0.158022
0.215318
0.271429
0.113483
0.210863
0.208241
0.207772
0.235911
0.152201
0.140315
0.129246
0.119537
0.120203
0.100362
0.160672
0.049804
0.086597
0.160035
0.050482
0.067964
0.071029
0.077252
0.062124
0.022021
0.000544
0.045451
0.053859
0.022138
-0.005188
0.038615
0.026833
0.017157
0.010155
0.020231
0.030089
-0.003294
0.057329
-0.051388
-0.008346
-0.022093
-0.036285
0.008962
0.108270
0.383363
0.692068
0.956149
1.208217
1.389984
1.293227
1.040476
0.756518
0.388015
0.119448
-0.155718
-0.213509
-0.214563
-0.231924
-0.211520
-0.082800
0.035737
-0.015990
0.018660
0.068449
0.070340
0.045072
0.036675
0.050500
0.070460
-0.011609
0.017779
0.024656
0.077400
0.129422
0.019059
0.081466
0.062661
0.061590
0.138894
0.164988
0.207970
0.188597
0.229638
0.225989
0.247166
0.245136
0.301648
0.269170
0.285131
0.294590
0.300547
0.340292
0.393976
0.324903
0.398037
0.434044
0.473547
0.426267
0.468181
0.413225
0.482043
0.516841
0.456915
0.422908
0.467754
0.483635
0.417547
0.425773
0.596906
0.430168
0.390810
0.436713
0.401579
0.330742
0.389459
0.380601
0.327688
0.243703
0.211794
0.272830
0.270148
0.192493
0.200845
0.174471
0.093679
0.087693
0.146587
0.123292
0.059025
0.048540
-0.006617
0.068143
0.053797
0.000050
0.004370
0.010687
-0.057932
-0.087114
-0.038911
-0.027506
-0.044967
-0.004905
0.043307
-0.007313
-0.026092
0.032628
-0.101076
-0.070198
-0.060593
-0.036036
-0.113300
-0.038980
-0.104479
-0.083372
-0.083271
-0.009136
-0.092843
-0.096133
-0.055931
0.038130
-0.061929
0.028460
-0.064154
0.013328
-0.022354
-0.127231
-0.081691
-0.046779
-0.080984
-0.075299
-0.039974
-0.000514
0.004698
-0.030088
-0.091427
-0.054026
0.060447
-0.041062
-0.065808
-0.024612
-0.059200
-0.098220
-0.020959
0.012591
-0.106732
-0.033310
-0.131817
-0.064249
-0.080703
-0.072014
-0.057374
-0.083204
0.021908
-0.056922
-0.100943
-0.106902
-0.084710
-0.075250
-0.006899
-0.078727
0.012463
-0.081013
-0.022367
-0.056695
-0.061260
-0.011261
0.017090
-0.034909
-0.016822
-0.016909
0.009986
-0.016478
-0.059309
0.036675
0.050381
0.022679
0.128020
0.105276
0.007591
0.100794
0.132392
0.122242
0.091321
0.115468
0.058431
0.030345
0.110065
0.003186
-0.008314
-0.003646
-0.013948
0.060404
-0.004894
-0.065706
-0.048833
0.045723
-0.063963
-0.008033
-0.061322
-0.027987
-0.068175
-0.092216
-0.102793
-0.129714
-0.050810
-0.065959
-0.116347
-0.105582
-0.109684
-0.081245
-0.087895
-0.177915
-0.045878
-0.110914
-0.059977
-0.142367
-0.109088
-0.092065
-0.148726
-0.069584
-0.010295
0.208752
0.464826
0.782577
1.070628
1.217130
1.256666
1.044317
0.803917
0.448687
0.188148
-0.097641
-0.413070
-0.233687
-0.373969
-0.212958
-0.131683
-0.131762
-0.152808
-0.053389
-0.116353
-0.023408
-0.047580
-0.026480
-0.107117
-0.112423
-0.120870
-0.090353
-0.078419
-0.099592
0.006549
0.058682
-0.032096
-0.026833
-0.026582
0.086936
0.026137
0.057649
0.152010
0.117558
0.148888
0.130872
0.134762
0.121123
0.156785
0.145000
0.217080
0.254458
0.274688
0.266961
0.290539
0.308791
0.341508
0.374014
0.384432
0.381850
0.418538
0.379312
0.494252
0.361033
0.444560
0.398786
0.448231
0.399399
0.366727
0.422870
0.314065
0.306923
0.372898
0.227310
0.340213
0.274910
0.202591
0.213601
0.240678
0.204645
0.203176
0.218142
0.113599
0.171437
0.097199
0.029788
0.115965
0.089728
0.048639
0.001403
-0.011073
-0.084336
0.007941
-0.045878
0.004288
0.048865
-0.089517
-0.103958
-0.081834
0.019454
-0.096056
-0.064249
-0.100909
-0.111853
-0.054667
-0.073900
-0.069863
0.024918
-0.073450
-0.087245
-0.073965
-0.177125
-0.084518
-0.114154
-0.097341
-0.094745
-0.102211
-0.034532
-0.210122
-0.060807
-0.031447
-0.090571
-0.065244
-0.068646
-0.056946
-0.125996
-0.032218
-0.059212
-0.062038
-0.092760
-0.070449
-0.014986
-0.067310
-0.067181
-0.144942
-0.081674
-0.056272
-0.092446
-0.029560
-0.074165
-0.026277
-0.099019
-0.055442
-0.060454
-0.039923
-0.010685
-0.031847
-0.084055
-0.043002
-0.078485
-0.125341
-0.128433
-0.085689
-0.100257
-0.011709
-0.043872
-0.011044
-0.100899
-0.058123
-0.045551
-0.005864
-0.026192
-0.026086
0.007305
-0.031009
-0.051596
-0.046042
-0.001501
0.012921
0.033439
0.078796
-0.003693
0.032911
0.023032
0.084674
0.089431
0.132847
0.106172
0.102370
0.031821
0.058871
0.113485
0.177881
0.044344
0.129303
0.193118
0.132039
0.117840
0.162760
0.112909
0.115996
0.001048
0.101820
0.020923
0.092260
0.015974
0.041871
0.026613
0.051210
-0.049672
0.009763
-0.048710
0.013974
-0.006529
-0.076182
-0.035664
-0.073906
-0.042829
0.037979
-0.024425
-0.021309
-0.046905
-0.084854
0.007000
0.005709
0.027129
-0.048003
-0.042774
0.023293
-0.042390
-0.030378
-0.021237
0.215518
0.420055
0.590677
1.047896
1.148877
1.393821
1.155864
0.989154
0.727837
0.242560
0.008066
-0.175718
-0.275163
-0.299017
-0.170798
-0.101031
-0.069689
-0.011950
-0.058923
-0.012671
-0.002829
0.048018
0.004973
-0.045217
0.010428
0.004843
-0.046521
-0.016884
-0.024212
0.058263
0.069374
0.096460
0.128983
0.093968
0.118544
0.084462
0.178644
0.103567
0.176806
0.159591
0.238270
0.182624
0.240004
0.254147
0.310293
0.373829
0.388827
0.432910
0.487974
0.431061
0.359102
0.354938
0.506131
0.416927
0.474375
0.430771
0.471423
0.503388
0.574251
0.465498
0.488125
0.494605
0.414028
0.465836
0.500663
0.493426
0.433365
0.427397
0.512620
0.360186
0.434904
0.383577
0.414756
0.299059
0.328356
0.288340
0.260434
0.285035
0.223855
0.175408
0.266718
0.181606
0.167988
0.171736
0.116346
0.207426
0.176328
0.118979
0.108111
0.100819
0.069097
0.064493
-0.003601
0.109205
0.087031
0.021906
0.052737
-0.001648
0.021960
0.061937
-0.014156
-0.014947
-0.035127
0.004063
0.080739
0.024807
0.064048
0.004930
0.009263
0.024245
0.074553
0.092347
0.095369
-0.040308
0.020182
0.109490
0.069329
-0.015535
-0.029161
0.072827
0.077609
0.023793
0.067907
0.014668
0.044481
0.076684
0.095022
0.068735
0.050472
0.013626
-0.021320
0.070283
0.063838
0.015762
0.089416
0.061140
0.052353
0.010528
0.053820
0.023572
0.067360
0.078111
0.066124
0.039170
0.100818
0.129953
0.016486
0.111042
0.062805
0.096611
0.117510
0.037929
-0.010316
0.045291
0.084654
0.081400
0.078373
0.062545
0.071333
0.120409
0.137354
0.087014
0.073261
0.102240
0.100081
0.119632
0.147730
0.183630
0.207097
0.150138
0.142409
0.243539
0.167722
0.165091
0.315176
0.201893
0.246122
0.264600
0.278722
0.217971
0.149753
0.229831
0.279778
0.258327
0.188470
0.307182
0.200254
0.225088
0.186583
0.220919
0.093006
0.133697
0.119130
0.194411
0.073799
0.117724
0.093884
0.090350
0.090340
0.195529
0.185193
0.068881
0.015599
-0.008592
0.089176
0.116190
0.049507
0.094820
0.071982
0.049338
0.106802
0.059979
0.059995
0.085613
0.110385
-0.007493
0.047990
0.088591
0.368634
0.625662
0.991220
1.253309
1.395764
1.301135
1.214497
0.964569
0.513403
0.169478
-0.074891
-0.107248
-0.179636
-0.127684
-0.063605
-0.002125
0.024969
0.049020
0.105838
0.160343
0.118636
0.079210
0.113956
0.082951
0.093762
0.179433
