0.010276
0.000097
-0.053834
0.045167
0.058935
0.023692
0.008627
-0.046267
0.032354
-0.041079
0.041883
-0.047112
0.008276
0.043691
-0.001821
-0.088447
0.012367
0.034013
-0.048699
0.019865
-0.031995
0.015599
0.035028
0.022293
-0.014178
-0.001589
0.015681
0.026291
0.047148
0.001239
0.077412
0.074976
0.015012
0.060907
0.066948
0.082867
0.012523
0.112089
0.087092
0.160604
0.145178
0.155554
0.157691
0.133112
0.201605
0.144191
0.175013
0.143983
0.131390
0.271298
0.230272
0.201308
0.230242
0.174277
0.213756
0.218655
0.177183
0.182873
0.174845
0.117996
0.188516
0.099768
0.034530
0.059676
0.162474
0.166719
0.191710
0.003774
0.039155
0.076472
0.046482
0.087136
0.029066
0.085706
0.058141
0.075919
0.059787
0.015526
0.140050
0.045728
0.104056
0.013085
0.032018
-0.037628
0.055836
0.058213
0.133602
-0.023075
0.073138
-0.004020
0.068446
0.052518
0.014406
-0.000036
-0.012564
-0.052789
0.045781
0.224987
0.579551
0.835089
1.225141
1.470194
1.451225
1.390612
1.043546
0.783822
0.425901
0.033535
-0.104257
-0.220379
-0.197734
-0.225735
-0.099252
-0.039191
0.030526
0.052299
-0.029113
0.144785
0.073762
0.072268
0.051012
0.129069
0.060950
0.069098
0.080365
0.040120
0.096966
0.026963
0.002049
0.121191
0.119523
0.123904
0.183238
0.143129
0.058845
0.156416
0.149473
0.091518
0.206082
0.189484
0.201296
0.195938
0.209917
0.155735
0.287169
0.270904
0.328283
0.363177
0.397779
0.353113
0.353921
0.362084
0.456492
0.402272
0.442303
0.466630
0.496714
0.544808
0.451634
0.563071
0.583690
0.559671
0.629184
0.602154
0.588329
0.631346
0.542632
0.601538
0.639356
0.577351
0.613685
0.576405
0.553367
0.521152
0.539669
0.449182
0.549976
0.464416
0.441521
0.476568
0.452969
0.369462
0.329726
0.292966
0.328471
0.278962
0.336141
0.250217
0.278034
0.239309
0.134804
0.237162
0.171123
0.160129
0.188782
0.097761
0.090847
0.092221
0.154325
0.119638
0.088467
0.139334
0.037414
0.107430
0.208928
0.105510
0.082322
0.206523
0.039646
0.114429
0.080106
0.156480
0.127830
0.101735
0.117024
0.075296
0.118502
0.124397
0.048328
0.006428
0.098619
0.016623
0.082637
0.129771
0.089335
0.134873
0.115774
0.067538
0.079111
0.098460
0.136173
0.105252
0.179722
0.080228
0.063197
0.125584
0.185960
0.111609
0.036968
0.116978
0.090157
0.102298
0.068637
-0.002659
0.128902
0.040221
0.204343
0.052392
0.024531
0.089272
0.066971
0.127826
0.118436
0.075950
0.160735
0.068712
0.085013
0.113960
0.005082
0.058311
0.139884
0.121823
0.110700
0.010752
0.107622
0.095589
0.117262
0.093875
0.067117
0.100947
0.109583
0.121833
0.113479
0.124047
0.077595
0.095875
0.102312
-0.069595
0.110764
-0.006761
0.107340
0.130765
0.083316
0.111357
0.125740
0.057482
0.072782
0.158086
0.201339
0.163111
0.204996
0.190102
0.159933
0.154377
0.209540
0.198990
0.237305
0.245230
0.294670
0.255899
0.245470
0.192111
0.156029
0.234412
0.301156
0.280251
0.273300
0.223100
0.269984
0.215977
0.189726
0.261957
0.163030
0.110918
0.148233
0.111563
0.092702
0.143964
0.081004
0.139396
0.127654
0.150294
0.121675
0.064163
0.137095
-0.030653
0.101867
0.148859
0.045825
0.052823
0.095987
0.094808
-0.027853
0.003438
0.081881
-0.033523
0.078748
0.047346
-0.009684
0.057069
0.085181
0.044000
0.100707
0.041370
0.015496
-0.038009
0.018036
-0.054197
-0.052015
-0.076753
0.006567
0.138611
0.482140
0.753774
1.155655
1.385179
1.468388
1.386790
1.173273
0.823766
0.456731
0.164890
-0.119126
-0.198225
-0.267952
-0.333702
-0.236700
-0.124382
-0.032346
0.017437
-0.029868
-0.016449
0.004574
0.119193
0.029456
0.062301
-0.057693
0.120770
0.024119
0.025706
-0.005858
-0.014941
-0.006461
0.034790
0.041855
0.075310
0.096935
0.114386
0.097104
0.071540
0.194175
0.100969
0.069415
0.096620
0.199571
0.148807
0.151530
0.147965
0.283542
0.258991
0.250806
0.194050
0.329303
0.274474
0.326848
0.281560
0.308207
0.434659
0.408333
0.432760
0.474086
0.392846
0.510937
0.533930
0.449372
0.502593
0.477636
0.500450
0.524391
0.512087
0.548470
0.515659
0.511076
0.480389
0.554559
0.404459
0.459588
0.422990
0.465590
0.496515
0.359209
0.410420
0.350262
0.334518
0.309176
0.322437
0.315940
0.180576
0.252276
0.252798
0.159794
0.068642
0.089697
0.134204
0.089993
0.181753
0.024272
0.064115
0.002818
0.076335
0.035520
0.076778
-0.007073
-0.010077
0.052491
0.059173
-0.034282
-0.019459
0.044790
0.053909
0.092075
-0.002599
-0.031738
0.024732
-0.017282
-0.079894
0.024847
-0.085881
-0.070932
-0.040590
-0.020323
-0.017499
0.083672
-0.003749
-0.059197
0.082543
0.003221
0.006601
-0.054338
-0.060319
-0.010648
-0.026490
0.005116
-0.052408
-0.120749
-0.010412
0.014112
-0.053164
-0.008321
0.027897
-0.061468
-0.090173
0.003677
-0.079815
0.016340
-0.001959
-0.084832
-0.047017
-0.067779
0.012464
-0.021776
-0.086601
-0.045509
-0.031499
-0.043902
0.032538
-0.028898
-0.088759
-0.020678
-0.074980
-0.085675
0.008075
-0.095468
-0.007648
-0.081536
0.005114
-0.020631
0.028687
-0.024781
0.004267
0.012165
-0.020334
-0.106801
-0.035094
-0.026073
-0.035111
-0.103022
-0.044697
-0.028041
0.011407
-0.044488
-0.022057
-0.031449
-0.031744
-0.040714
-0.050418
-0.054673
-0.013126
-0.023127
0.035970
0.002011
-0.069577
-0.045724
0.058374
0.089705
-0.003341
0.048467
0.027720
0.024518
0.074091
0.124867
0.037101
0.058350
0.079275
0.089101
0.002264
0.180746
0.197515
0.167243
0.172990
0.084904
0.183544
0.146675
0.068138
0.088073
0.147018
0.137700
0.107543
0.024149
0.065293
0.040885
0.087446
0.027108
-0.005916
-0.017768
0.007065
0.060421
-0.038976
0.071583
-0.056146
0.006493
0.012830
-0.079645
-0.036260
-0.007682
0.006677
-0.070617
-0.163446
-0.135970
-0.005341
-0.016676
-0.066773
0.029974
-0.087213
-0.027142
-0.009017
0.036744
-0.053908
-0.060449
-0.107007
-0.134198
-0.064794
-0.075069
-0.167315
-0.000201
0.087602
0.388535
0.676828
0.956857
1.278504
1.390153
1.238340
1.079145
0.834502
0.495993
0.174409
-0.100873
-0.297246
-0.314080
-0.285872
-0.243976
-0.152703
-0.144495
-0.148789
-0.085718
-0.030830
-0.077317
-0.052559
-0.000782
-0.052723
0.004457
-0.013535
-0.059143
0.038669
-0.054557
-0.020559
-0.008406
0.050862
0.018291
-0.009707
-0.006881
0.024131
-0.031270
-0.019941
0.056773
0.032952
0.110027
0.017624
0.085889
0.135284
0.119142
0.142991
0.093063
0.217108
0.182095
0.155655
0.210495
0.219566
0.254567
0.348090
0.300738
0.405575
0.437127
0.386120
0.375607
0.447395
0.334166
0.554867
0.376598
0.372961
0.496242
0.469581
0.491079
0.439308
0.484524
0.540423
0.446451
0.540040
0.521184
0.448068
0.392108
0.399058
0.396916
0.307497
0.330617
0.353031
0.324220
0.354428
0.320666
0.265400
0.248375
0.207682
0.225270
0.256437
0.136082
0.218961
0.160881
0.079029
0.126370
0.141602
0.140375
0.100961
0.104749
0.076125
0.038146
0.080741
0.038044
0.074310
0.056082
-0.007658
0.093854
0.047516
0.064727
0.011671
0.024243
0.006279
0.014925
-0.011688
0.011272
0.080196
0.002059
-0.032696
-0.000880
0.029508
-0.020607
-0.011125
0.091861
0.012225
0.030688
0.002520
0.115551
-0.040558
0.029955
0.012630
-0.048351
0.073832
0.074355
0.022258
-0.012611
0.026903
0.027486
0.024586
0.083731
-0.010574
0.088172
0.007540
-0.020066
-0.038625
0.032878
0.054742
0.052590
0.090221
0.056609
-0.027224
-0.011771
0.084395
0.001576
0.139397
0.030668
0.025148
0.072689
0.029417
-0.044384
0.103619
0.042371
0.013131
0.124308
0.016640
-0.040471
0.065455
0.071940
0.055123
-0.121704
0.074182
0.050583
0.030614
0.036191
0.055715
-0.031477
0.115006
0.110086
0.115358
0.004906
0.096640
0.021415
0.045673
0.108960
0.045645
-0.011777
0.060629
0.122810
0.091278
0.013745
0.045335
-0.042538
0.058733
0.144363
0.106348
0.020737
0.134466
0.204155
0.108171
0.217522
0.154842
0.213374
0.129039
0.220748
0.245948
0.227049
0.246394
0.212166
0.239984
0.091780
0.171467
0.253886
0.266232
0.270978
0.252924
0.194210
0.205143
0.212677
0.123090
0.184968
0.150877
0.211691
0.133885
0.182455
0.085243
0.113897
0.155562
0.185673
0.090859
0.076839
0.077470
0.092561
0.056597
0.148104
0.010011
0.059932
0.035058
0.067972
0.079919
0.049947
0.070007
0.067198
0.003980
0.093021
0.121594
0.051218
0.038623
0.058546
0.101976
0.049919
0.012718
0.087502
0.048069
0.034575
-0.041603
0.054865
0.173129
0.299712
0.588830
0.996437
1.280388
1.478559
1.443374
1.300354
1.097572
0.680634
0.398816
0.069231
-0.194688
-0.201207
-0.221139
-0.219269
-0.112612
-0.046956
0.058997
0.025536
0.034804
0.135485
0.131456
0.017608
0.048683
0.127916
0.183812
0.099630
0.063161
0.029614
0.057355
0.105594
0.130153
0.114667
0.100036
0.125506
0.113543
0.144717
0.210388
0.107707
0.246917
0.248251
0.226434
0.239172
0.159020
0.188514
0.219875
0.282993
0.268387
0.360305
0.317805
0.333698
0.346280
0.363580
0.429295
0.445413
0.400257
0.495511
0.547494
0.427934
0.497989
0.578482
0.538868
0.535797
0.588010
0.569930
0.563656
0.613811
0.581639
0.594135
0.507750
0.611532
0.580336
0.586173
0.543877
0.534335
0.599565
0.553341
0.510133
0.501845
0.469209
0.498064
0.464824
0.348272
0.509717
0.395596
0.298658
0.378615
0.262727
0.301955
0.261192
0.243660
0.232810
0.253120
0.263836
0.163000
0.142592
0.214164
0.154535
0.095415
0.182324
0.215020
0.051555
0.065224
0.217676
0.077764
0.071912
0.090290
0.144764
0.180588
0.126766
0.183021
0.073026
0.090913
0.088664
0.197982
0.109973
0.096566
0.114949
0.023347
0.082276
0.095257
0.032793
0.126386
0.110521
0.089250
0.058047
0.103966
0.060446
0.091409
0.138373
0.170764
0.134983
0.118222
0.096070
0.095101
0.095453
0.100314
0.068409
0.088283
0.070937
0.066291
0.058702
0.115564
0.072677
0.011016
0.018724
-0.001107
0.061664
0.013167
0.099334
0.100813
0.085611
0.056916
0.083170
0.072442
0.085207
0.087496
0.080136
0.090596
0.058820
0.036735
0.003588
0.060676
0.050458
0.184377
0.116420
0.051246
0.075540
0.048368
0.118355
0.022992
0.065783
0.064959
0.108039
0.068750
0.108146
0.119927
0.059114
0.074731
0.131173
0.006540
0.017083
0.006691
0.101009
0.121611
0.112387
0.112137
0.116112
0.102485
0.113827
0.135056
0.119081
0.046699
0.101243
0.144841
0.172762
0.093623
0.159283
0.166979
0.178978
0.246890
0.138289
0.203446
0.096628
0.202175
0.167392
0.279899
0.304545
0.191501
0.121007
0.205697
0.216057
0.277977
0.225735
0.183612
0.184886
0.209350
0.239993
0.138735
0.105121
0.114124
0.118614
0.113973
0.056444
0.118703
0.094777
0.009038
0.013815
0.127127
0.023796
0.008693
0.019341
0.161294
0.061461
0.005643
0.013681
0.069371
0.061650
-0.028167
0.002151
0.001342
0.040792
-0.044648
-0.005182
-0.015279
0.035513
0.015048
-0.036803
0.050924
-0.058276
-0.012056
0.025461
0.052063
0.171674
0.186511
0.581250
0.869665
1.184813
1.371198
1.427438
1.350684
1.083876
0.760305
0.341608
0.123234
-0.114476
-0.224211
-0.355649
-0.323675
-0.225307
-0.005000
-0.010178
0.069104
0.066838
-0.047039
0.100354
-0.013549
-0.012349
0.083633
-0.003193
-0.002848
-0.106771
-0.014087
-0.022270
0.068161
-0.009154
-0.057730
0.004829
0.001009
0.057400
0.028159
0.152605
0.106385
0.044452
0.078490
0.117455
0.139352
0.098865
0.099447
0.158969
0.125538
0.267353
0.231851
0.200223
0.239231
0.276762
0.289950
0.220339
0.299795
0.369227
0.369112
0.387198
0.367796
0.420217
0.488226
0.475440
0.394035
0.500784
0.411462
0.467198
0.495537
0.427894
0.472760
0.472801
0.490860
0.424012
0.526244
0.513322
0.434522
0.410789
0.427624
0.389382
0.392625
0.392770
0.257581
0.377237
0.215730
0.321276
0.279260
0.310981
0.199638
0.221108
0.107161
0.189923
0.119734
0.042581
0.059741
0.045920
0.053183
0.132843
0.006302
0.166615
0.044429
0.010972
-0.003267
0.099948
-0.019502
0.025866
0.059046
-0.041714
-0.071852
-0.070363
-0.094066
-0.060309
-0.110862
0.035779
-0.080207
0.011188
0.011135
-0.143656
-0.064802
-0.025184
-0.058290
-0.016481
0.026450
-0.029947
-0.010981
-0.072702
-0.089829
-0.088871
-0.035413
-0.122315
-0.009179
-0.020441
-0.066895
-0.049267
-0.066591
0.000204
-0.197549
-0.068974
-0.081298
-0.021665
-0.096445
0.015804
-0.007605
-0.077874
-0.055786
-0.116452
-0.045346
-0.092180
-0.101717
-0.128014
-0.124797
0.036880
-0.051291
-0.031667
-0.057146
-0.046627
-0.025931
-0.139772
-0.064963
-0.104122
-0.079096
-0.055593
-0.085283
-0.123872
-0.177554
-0.034913
-0.132339
-0.090285
-0.003156
-0.065316
-0.091469
-0.085660
-0.055511
-0.136834
-0.027822
-0.037678
-0.044166
-0.143251
-0.086167
-0.020347
-0.073989
-0.025833
-0.115674
-0.088228
-0.043815
-0.032276
-0.106914
-0.096982
-0.068651
0.011300
-0.009171
0.046212
-0.074958
-0.073794
-0.037549
-0.001188
-0.027967
-0.075366
0.022045
0.039804
0.044209
0.024461
0.034624
0.063246
0.016806
0.123140
0.039725
0.121474
0.065516
0.030944
0.093197
0.037974
0.079866
0.052296
0.074060
0.013633
0.044501
0.118003
0.071824
0.036457
0.012792
-0.002544
0.002278
0.011985
0.018609
0.037085
-0.010557
-0.014687
-0.057729
-0.018040
0.004560
0.002956
-0.117566
-0.064429
-0.005677
-0.060648
-0.090097
-0.004166
-0.104939
-0.076339
-0.095555
-0.037473
-0.098999
-0.128611
-0.120599
-0.154481
-0.104240
0.025857
-0.068080
-0.071922
-0.029396
-0.019835
-0.160896
-0.109631
-0.198699
-0.072640
0.182352
0.385264
0.651744
1.015177
1.283895
1.303908
1.298620
1.030235
0.707590
0.397849
0.047381
-0.182151
-0.281668
-0.389239
-0.373671
-0.338967
-0.187625
-0.197044
-0.113604
-0.121160
-0.164914
-0.064648
-0.098205
-0.064477
-0.004277
-0.010378
-0.090593
-0.031195
-0.102804
-0.124759
-0.076187
-0.041426
-0.005330
-0.071445
-0.055159
-0.038254
-0.039044
-0.050905
-0.003338
0.062299
-0.007259
-0.006180
-0.000604
-0.004489
0.070703
0.069467
0.093567
0.072317
0.089247
0.146770
0.197971
0.201646
0.225530
0.173760
0.173472
0.301807
0.285607
0.403715
0.431530
0.346406
0.396857
0.333850
0.370497
0.378062
0.429217
0.441165
0.465125
0.370697
0.471795
0.409803
0.459462
0.366034
0.320574
0.500801
0.420627
0.420932
0.426193
0.394367
0.389638
0.374978
0.327649
0.304359
0.274792
0.298805
0.215217
0.225769
0.237643
0.178108
0.113848
0.156284
0.129103
0.158669
0.104154
0.082897
0.083585
0.045548
0.002628
0.044505
0.024149
0.060651
0.087556
-0.027941
-0.026546
0.042902
0.000825
-0.066333
0.067587
0.027241
0.018173
0.016832
-0.008408
-0.002775
-0.077948
-0.016155
-0.036941
-0.046112
-0.002088
-0.002560
-0.054843
-0.048413
-0.054618
-0.084301
0.065875
-0.046591
-0.034925
-0.087124
-0.018566
-0.031890
-0.009374
-0.087576
0.093959
-0.034969
0.045216
-0.050277
-0.049395
-0.067689
0.001228
0.017930
-0.046805
-0.012683
-0.042238
-0.039826
0.049904
-0.034314
0.012690
-0.049548
-0.065405
0.004657
-0.084561
-0.065001
-0.080574
-0.044470
-0.039045
-0.064423
-0.052919
-0.014166
-0.047862
-0.021259
-0.092977
-0.027419
-0.026518
0.008742
0.011539
0.049294
-0.031067
0.089219
-0.040476
-0.000448
-0.020949
0.039748
0.025237
-0.033064
-0.002823
0.001684
0.016268
-0.022218
-0.046185
0.068532
0.024331
0.099878
-0.022128
0.016466
-0.021488
-0.038874
0.016575
0.001826
-0.031079
0.057809
0.050184
0.036572
0.006020
0.068727
0.100084
0.074523
0.064251
0.044301
0.074035
0.060428
0.123371
0.102991
0.079306
0.216042
0.211890
0.171892
0.153013
0.206712
0.207439
0.274611
0.177544
0.168273
0.161922
0.162734
0.220073
0.154224
0.146294
0.198167
0.146821
0.095199
0.175187
0.110949
0.129989
0.043893
0.116021
0.086034
0.044034
0.003924
0.035430
0.086127
0.025742
0.019905
0.015594
0.026850
0.035222
0.097457
0.085213
0.019621
0.035271
0.057937
-0.013475
0.027998
-0.005254
0.033381
-0.013818
-0.106399
-0.009103
0.053847
-0.019608
-0.010916
-0.032385
0.033411
-0.060384
-0.079650
-0.060336
0.025359
0.098059
0.396328
0.659703
1.088719
1.240469
1.412039
1.426925
1.113704
0.795351
0.595936
0.268770
-0.019000
-0.149744
-0.254190
-0.307014
-0.215479
-0.073015
-0.033771
-0.058611
0.011875
0.035110
0.064584
0.073755
0.025443
0.071252
0.061930
0.052414
0.021320
0.080799
-0.009907
0.057508
0.082786
0.070675
0.105137
0.087427
0.143908
0.085040
0.131581
0.051859
0.111080
0.122355
0.139183
0.081698
0.149686
0.184947
0.177249
0.240736
0.201746
0.259988
0.285515
0.288288
0.304790
0.430931
0.292752
0.260533
0.427820
0.338840
0.361429
0.404185
0.397030
0.518110
0.503797
0.509286
0.493086
0.580837
0.424383
0.597317
0.590601
0.534311
0.486575
0.535313
0.574558
0.611013
0.508687
0.510400
0.601665
0.426800
0.523605
0.420580
0.510469
0.403624
0.389996
0.401349
0.424677
0.311163
0.316260
0.316462
0.278886
0.194425
0.226970
0.182528
0.314113
0.232904
0.248473
0.217662
0.200068
0.160057
0.142484
0.106197
0.141235
0.037922
0.089297
0.055358
0.080075
0.068076
0.040152
0.015365
0.018448
0.023121
0.106845
0.053073
0.064744
0.055849
0.019618
0.047176
0.092465
0.000414
0.017068
0.007733
0.043243
0.107505
0.044624
0.062185
0.069589
0.078173
0.019916
0.123766
0.111803
0.031609
0.031180
-0.001350
0.081539
0.116792
0.066782
0.069818
0.043032
0.064544
0.049993
-0.039459
-0.010406
0.101753
0.056136
0.031342
0.011255
0.053758
0.062141
0.122482
0.093595
0.011295
-0.012200
0.003456
0.053156
0.003067
0.059469
0.021936
-0.020894
0.029002
0.025884
0.037609
0.025596
-0.036380
0.054371
0.049591
-0.015285
0.051715
0.043688
-0.004474
-0.014970
0.035578
0.048680
0.123869
0.021312
-0.000332
-0.023336
-0.019380
0.100495
0.020882
-0.040552
0.051177
0.077884
0.010570
-0.006533
0.000663
0.011155
-0.019900
-0.031310
0.080179
-0.004385
-0.058537
0.072904
0.038016
0.129704
0.066451
0.104722
0.086334
0.083092
0.098165
0.091530
0.162372
0.076666
0.175527
0.112053
0.183248
0.273399
0.228141
0.237029
0.100181
0.171165
0.236398
0.136381
0.247088
0.113335
0.230430
0.198174
0.133047
0.137907
0.132439
0.161858
0.073950
0.084368
0.056724
0.017364
0.041444
0.058257
0.150453
0.013014
0.041868
-0.000517
0.037788
0.033117
0.052570
-0.055094
-0.032991
0.026342
0.088464
-0.039579
-0.082759
0.115139
0.019639
-0.000941
0.029796
-0.040526
-0.018749
-0.024021
-0.075403
0.077659
0.025948
0.023828
0.028405
-0.085249
-0.079467
-0.077548
-0.082400
-0.058658
0.048403
0.280824
0.637215
0.888623
1.209435
1.462038
1.385278
1.270573
0.874613
0.544208
0.267016
-0.065676
-0.216726
-0.348838
-0.390207
-0.284218
-0.226981
-0.064425
-0.067629
-0.003024
-0.017127
-0.033936
-0.087039
-0.087015
0.037114
-0.047134
0.047060
-0.039715
-0.059970
-0.029410
0.059117
0.018972
0.062598
0.018856
-0.018399
-0.022881
0.048509
0.022718
0.087302
-0.016776
-0.002776
0.005933
0.022439
0.120780
0.076173
0.144097
0.115159
0.107279
0.138080
0.150259
0.171222
0.153613
0.262076
0.278952
0.305152
0.227537
0.282891
0.342908
0.293312
0.345252
0.333250
0.473736
0.455927
0.353438
0.404255
0.396660
0.490982
0.420469
0.474957
0.477601
0.386547
0.456389
0.482064
0.446347
0.475580
0.395808
0.490223
0.355124
0.346420
0.300696
0.271589
0.307217
0.223276
0.222759
0.184695
0.185048
0.242818
0.174760
0.169865
0.151632
0.129132
0.065091
0.149885
0.054645
0.062876
0.008195
0.024397
0.024671
-0.000961
-0.103034
0.003360
0.014715
-0.019394
0.002913
-0.094297
-0.025569
-0.035897
-0.043002
-0.118308
-0.043038
-0.053580
-0.016418
-0.039858
-0.092941
-0.100810
-0.100010
-0.031674
-0.120494
-0.080179
-0.090757
-0.101438
-0.141868
-0.088064
-0.126417
-0.034990
-0.059005
-0.086101
-0.100425
-0.045375
-0.076755
-0.087584
-0.107318
-0.045802
-0.016584
-0.090136
-0.173484
-0.153280
-0.073294
-0.132256
-0.093716
-0.007436
-0.119556
-0.115348
-0.127582
-0.158934
-0.012953
-0.070160
-0.055473
-0.065742
-0.090301
-0.084379
-0.092958
-0.117422
-0.083725
-0.058618
-0.093261
-0.110869
-0.172707
-0.131284
-0.133236
-0.006171
-0.175088
-0.097152
-0.136948
-0.142843
-0.074349
-0.043655
-0.099039
-0.153822
-0.039960
-0.176845
-0.129480
-0.133643
-0.099382
-0.110834
-0.131279
-0.077029
-0.109647
-0.131305
-0.084860
-0.129087
-0.103338
-0.133587
-0.064937
-0.058914
-0.024366
-0.060033
-0.087480
-0.042904
-0.082024
0.013406
-0.135382
-0.102610
-0.070121
0.005218
-0.032331
-0.041661
0.044205
-0.090544
0.069658
0.027520
0.046176
0.003748
0.048217
0.056970
0.017623
-0.006518
0.057069
0.133888
0.169495
0.145296
0.043237
0.156886
0.070798
0.069407
-0.012284
0.070866
0.072710
0.026835
0.013340
0.022869
-0.030079
-0.034930
-0.032176
-0.061511
-0.047881
-0.003626
-0.116760
-0.090362
-0.121523
-0.116853
-0.052159
-0.123216
-0.036428
-0.131383
-0.190635
-0.110341
-0.069901
-0.091719
-0.190638
-0.121606
-0.104419
-0.129116
-0.065373
-0.064233
-0.100656
-0.098014
-0.147552
-0.100753
-0.119582
-0.184926
-0.076422
-0.174996
-0.214070
-0.126497
0.144039
0.451097
0.778482
1.098393
1.314027
1.284526
1.204184
0.880704
0.566930
0.299164
0.038280
-0.170949
-0.286944
-0.416766
-0.328724
-0.223358
-0.268272
-0.182262
-0.148933
-0.085181
-0.066289
-0.108937
-0.131794
-0.026661
-0.081431
-0.101086
-0.038185
-0.108371
-0.059190
-0.060949
-0.096039
-0.066338
-0.103346
-0.083853
-0.031550
-0.041147
-0.121083
0.039509
-0.045008
0.031271
-0.043503
-0.016101
-0.092483
0.021906
0.061784
0.094163
0.169016
0.108571
0.113043
0.131542
0.248127
0.129735
0.198987
0.174998
0.240339
0.305533
0.266856
0.357037
0.358467
0.290348
0.447650
0.475398
0.446895
0.464271
0.429766
0.484943
0.475338
0.468238
0.501162
0.458577
0.432413
0.418685
0.461862
0.481600
0.430424
0.330020
0.463275
0.362268
0.322472
0.283946
0.263203
0.305692
0.291014
0.247856
0.246321
0.247152
0.245417
0.174932
0.171533
0.103336
0.151947
0.048707
0.137760
0.004245
0.100026
0.061730
0.037794
0.045326
0.008691
0.023357
-0.028843
-0.040169
0.045542
0.086302
-0.008351
0.014002
-0.026809
-0.020715
0.081926
-0.015122
-0.026178
-0.034060
-0.076947
0.022606
-0.033990
-0.037433
-0.024082
-0.008151
-0.018293
-0.067664
-0.010471
-0.060408
0.005161
-0.059663
-0.005016
-0.001952
-0.046295
-0.129907
-0.017229
-0.005989
-0.023662
-0.005177
0.020048
-0.052167
-0.028105
-0.000688
-0.042526
0.016138
-0.056053
0.009777
-0.007413
0.056074
0.051524
-0.044444
0.001852
-0.030581
-0.034327
-0.104869
-0.021287
-0.062872
-0.034844
-0.064601
-0.006191
-0.107390
0.040635
0.082930
0.008174
-0.014177
-0.100796
-0.107570
-0.010213
-0.018640
-0.035951
-0.004378
-0.045883
-0.029958
0.057160
0.018215
0.007396
-0.059292
0.015591
-0.002934
-0.007849
-0.034363
0.062176
-0.027662
0.101314
0.002013
0.051072
0.028761
-0.011496
-0.007869
0.047938
0.030050
0.072120
0.046076
0.035491
0.030904
0.078219
0.021328
0.054413
0.040170
0.049396
0.037339
0.015153
0.124512
0.055281
0.036695
0.080494
0.131282
0.101100
0.178119
0.233122
0.122084
0.267489
0.252252
0.134519
0.116675
0.180093
0.261906
0.227091
0.120464
0.183416
0.240021
0.064421
0.176063
0.198671
0.120890
0.179928
0.106922
0.064997
0.000017
0.097821
0.095297
0.085230
0.101860
0.026981
0.081377
0.023240
0.102004
0.100012
0.145730
0.047888
0.067775
0.100741
0.019557
0.045327
0.056488
0.028692
-0.024865
-0.035979
0.040454
0.082758
0.032542
-0.003797
0.029242
0.012990
0.059217
0.068151
-0.020269
0.022975
-0.002759
-0.021907
0.089126
0.223103
0.476090
0.788786
1.165723
1.447638
1.500000
1.398250
1.196507
0.817404
0.472362
0.213200
-0.031317
-0.234129
-0.220851
-0.242830
-0.096411
-0.043285
-0.002581
0.072025
-0.009492
0.091366
0.026168
0.041172
0.070296
0.091943
0.121213
0.046011
0.107997
0.012783
0.055108
0.155504
0.036801
0.048558
0.118184
0.098437
0.113507
0.089633
0.102248
0.210837
0.096697
0.176788
0.132398
0.103119
0.184792
0.202662
0.224911
0.211210
0.107973
0.246829
0.273697
0.267512
0.294234
0.329785
0.331850
0.429387
0.397933
0.434237
0.441662
0.470555
0.401687
0.483667
0.481868
0.544092
0.512567
0.557333
0.613670
0.556543
0.607750
0.646321
0.649931
0.545721
0.549070
0.561959
0.551669
0.513726
0.496493
0.557625
0.481288
0.461735
0.460713
0.390979
0.469317
0.399327
0.362207
0.279099
0.273798
0.382667
0.333610
0.321997
0.268220
0.224025
0.175889
0.202441
0.209522
0.244834
0.220865
0.224542
0.094378
0.045608
0.092627
0.171693
0.198744
0.156971
0.031689
0.139917
0.109979
0.129747
0.113089
0.094507
0.152232
-0.014816
0.077038
0.148409
0.091474
0.125872
