0.072271
0.003928
-0.102261
0.056656
0.040943
-0.002517
0.058315
0.029690
0.008713
0.016927
-0.000301
0.029646
0.002362
0.056873
0.063284
0.074998
0.082697
-0.021584
-0.056936
0.080601
0.035632
0.021708
0.024068
0.015551
0.015945
0.032444
0.109835
0.124758
0.110060
0.073002
0.140178
0.087812
0.072827
0.162262
0.200018
0.144308
0.137512
0.170496
0.198106
0.158898
0.223302
0.131983
0.170364
0.200903
0.173825
0.193963
0.156568
0.203857
0.159438
0.282292
0.184524
0.135007
0.122129
0.089797
0.078544
0.167675
0.107898
0.061627
0.076222
0.128007
0.083129
0.050120
0.006728
0.016360
0.017228
0.054708
0.030902
0.095210
0.021670
0.071501
0.046847
0.062637
0.004387
0.156046
0.086295
0.026328
0.032418
0.070903
0.076309
0.156002
0.252695
0.547170
0.918746
1.252358
1.398518
1.443238
1.265289
0.951666
0.615689
0.245554
-0.025406
-0.166496
-0.203433
-0.126372
-0.121791
-0.100258
0.037027
0.014925
0.075867
0.068224
0.111492
0.068827
0.157954
0.009046
0.157119
0.051535
0.244080
0.119978
0.124155
0.241428
0.183648
0.184415
0.164680
0.207529
0.179867
0.245712
0.266699
0.230803
0.271251
0.353411
0.281248
0.322796
0.399138
0.380653
0.418763
0.393056
0.435836
0.453910
0.578540
0.569011
0.644066
0.570526
0.509791
0.586850
0.571056
0.619656
0.554835
0.560311
0.611330
0.597638
0.687267
0.658985
0.538912
0.558913
0.629928
0.483165
0.489318
0.543547
0.446202
0.409788
0.460427
0.415463
0.407939
0.433513
0.365842
0.357791
0.324062
0.270497
0.313314
0.235956
0.219105
0.238459
0.256380
0.148221
0.229556
0.144801
0.102250
0.185925
0.155682
0.285121
0.101179
0.127162
0.155638
0.110340
0.146831
0.180780
0.119277
0.134823
0.015586
0.148406
0.210260
-0.009155
0.062577
0.095299
0.082973
0.124438
0.106059
0.173149
0.109965
0.043528
0.041299
0.026173
0.108695
0.069830
0.058986
0.035578
0.173493
0.048422
0.074401
0.034108
0.119709
0.073376
0.134067
0.159132
0.088031
0.085071
0.093314
0.187805
0.050342
0.106562
0.052584
0.088095
0.056927
0.103755
0.082369
0.033159
0.118911
0.132895
0.110234
0.085071
0.082735
0.051024
0.146295
0.118552
0.109725
0.111113
0.086400
0.124738
0.023685
0.093667
0.124766
0.081072
0.065154
0.121699
0.151788
0.150205
0.074199
0.063836
0.188091
0.149368
0.158735
0.177862
0.206607
0.196392
0.145395
0.263920
0.187114
0.228739
0.225756
0.268339
0.269155
0.214148
0.259408
0.247639
0.252603
0.259521
0.319417
0.222592
0.324501
0.225142
0.161244
0.272294
0.286640
0.173233
0.180185
0.161133
0.126012
0.177975
0.101560
0.118422
0.200947
0.085793
0.097824
0.113598
0.095497
0.135186
0.093889
0.099834
0.123193
0.106197
0.064523
0.059197
0.012947
0.167280
0.065916
0.079215
0.030826
-0.017216
0.079156
0.011251
0.066227
0.306291
0.592362
0.876561
1.114298
1.358059
1.374957
1.306363
1.040726
0.773065
0.303404
0.091781
-0.068355
-0.189459
-0.185783
-0.088214
-0.071517
-0.022640
0.068545
0.018393
0.102792
0.066147
0.108889
0.070623
0.138242
0.066408
0.126834
0.186888
0.204937
0.076769
0.170044
0.138819
0.103092
0.177475
0.188171
0.203752
0.195823
0.296285
0.295495
0.353302
0.289833
0.276952
0.356665
0.360380
0.364605
0.418673
0.397020
0.364722
0.426978
0.422627
0.500156
0.554076
0.548149
0.613513
0.555963
0.593062
0.503441
0.584425
0.574966
0.584508
0.556808
0.547575
0.530330
0.555151
0.512365
0.518001
0.493913
0.509197
0.447995
0.406377
0.470637
0.402937
0.440183
0.357225
0.312166
0.324226
0.277377
0.311945
0.275285
0.263771
0.083927
0.207725
0.160319
0.268050
0.081710
0.091832
0.182750
0.236111
0.091097
0.102297
0.109416
0.114075
0.003691
0.119477
0.002855
0.045147
0.102075
0.114114
0.010636
0.080080
0.017849
-0.015249
0.009399
0.056106
0.023786
-0.004943
0.005782
-0.034370
0.041563
-0.072670
0.068099
0.059017
0.096563
0.037404
-0.004322
0.015791
0.044843
-0.040073
0.003979
0.008934
-0.093651
-0.014210
0.052977
0.036145
0.049129
0.075032
0.062216
0.017078
-0.077768
0.050929
-0.049856
-0.047883
0.011314
-0.017039
-0.075210
0.004804
0.018381
0.004707
-0.008812
-0.071271
-0.066648
0.004230
0.004810
-0.019204
0.000315
0.002751
-0.032967
-0.009564
-0.064787
-0.055831
0.048935
-0.068064
-0.023874
-0.040327
-0.035027
0.098779
-0.086877
0.022189
0.033190
0.172191
0.019967
-0.036795
0.049394
0.016227
0.127296
0.085499
0.104354
0.029765
0.098379
0.120692
0.208424
0.162495
0.127086
0.138515
0.174222
0.194777
0.126124
0.095393
0.147164
0.170299
0.123455
0.161799
0.163809
0.089727
0.042672
0.079678
0.057232
0.001893
0.076848
0.002953
0.021793
0.037573
0.022153
-0.045814
0.028488
-0.021579
-0.004864
0.010116
-0.000831
-0.043578
0.030264
-0.073665
-0.109370
0.021338
0.085092
-0.159960
-0.046834
0.003432
-0.042593
-0.065654
-0.100075
0.041527
0.087183
0.327441
0.680126
0.940271
1.288878
1.307688
1.286582
1.083270
0.763007
0.366953
-0.024551
-0.209344
-0.377806
-0.265209
-0.241333
-0.240435
-0.118799
-0.109188
-0.044093
0.062586
-0.041707
-0.015402
0.036126
-0.001190
-0.054735
0.016439
0.035291
-0.027613
0.058142
0.109114
0.037436
0.049835
0.129225
0.044521
0.070562
0.159461
0.133749
0.173957
0.224494
0.176285
0.213396
0.193947
0.232548
0.148021
0.316332
0.396710
0.334217
0.298465
0.321260
0.401883
0.509565
0.473222
0.457533
0.452268
0.499603
0.513571
0.442087
0.454682
0.488107
0.537633
0.402401
0.397001
0.500313
0.438912
0.395146
0.446015
0.432918
0.372331
0.332281
0.295907
0.302240
0.353919
0.268695
0.198222
0.248980
0.285934
0.260257
0.152709
0.143313
0.122901
0.177458
0.085526
0.046978
0.109728
0.075279
0.106451
0.010512
0.096399
-0.019274
0.007156
0.041998
-0.001865
0.070051
-0.012030
0.020240
0.026109
-0.059056
-0.110880
-0.001476
-0.027403
0.002608
-0.022672
-0.023202
-0.047740
-0.047676
-0.111712
-0.034040
-0.044628
0.009592
-0.083602
0.007089
-0.061475
-0.015471
-0.041798
-0.028255
-0.007574
-0.065500
-0.007373
-0.003209
-0.020068
0.028723
-0.007455
-0.066960
-0.027946
-0.047021
-0.011277
-0.014009
0.035706
-0.003423
0.048388
-0.143889
-0.050221
-0.013161
0.001907
-0.116142
-0.035763
-0.122305
-0.061493
0.007282
0.053064
-0.077050
0.006836
-0.060657
-0.065799
-0.048472
-0.047445
-0.122928
0.038355
-0.113296
-0.072742
-0.029681
-0.026303
0.108772
0.027729
-0.029747
-0.033533
0.021732
-0.016888
0.047971
0.032365
0.140480
0.052704
0.040414
0.145348
0.040082
0.093433
0.082594
0.148249
0.143496
0.110523
0.151259
0.155762
0.179319
0.162090
0.203571
0.238877
0.208348
0.172900
0.116597
0.137275
0.131264
0.181226
0.118806
0.153232
0.059700
0.076045
0.001364
0.048212
0.111207
-0.035061
0.046421
0.077963
0.018902
-0.004484
0.007254
-0.009556
0.046250
0.071058
-0.053375
0.053179
0.053818
0.010221
-0.016864
0.006296
-0.086884
0.004697
0.029321
-0.039138
0.029818
0.031697
0.102723
0.173922
0.288714
0.562023
0.960687
1.216703
1.431460
1.382047
1.204665
0.918319
0.517919
0.065256
-0.060957
-0.189990
-0.200190
-0.157339
-0.173397
-0.064466
-0.029423
0.071109
-0.047631
0.041209
0.084539
0.041752
-0.026989
0.030690
0.021955
0.074744
0.030585
0.055893
0.090368
0.085086
0.112285
0.175074
0.148015
0.208470
0.142292
0.207282
0.292619
0.204800
0.212035
0.268876
0.342615
0.251970
0.348333
0.347497
0.337787
0.348903
0.453471
0.365558
0.469968
0.486290
0.465596
0.565132
0.417942
0.483526
0.574306
0.533678
0.550636
0.518375
0.568666
0.533513
0.556213
0.498446
0.514701
0.507477
0.516511
0.462923
0.401787
0.450211
0.420466
0.403027
0.360887
0.353143
0.372910
0.398518
0.284153
0.321795
0.346231
0.187857
0.139785
0.126290
0.150857
0.186926
0.209716
0.237838
0.180811
0.159827
0.079118
0.186233
0.138384
0.114497
0.142873
0.042883
0.139003
0.107911
0.092852
0.023924
0.008234
0.030203
0.099477
0.130680
0.124298
0.033929
0.090396
-0.010059
-0.039566
0.129302
0.103803
0.045928
0.052933
0.017920
-0.008855
0.085970
0.005026
0.036556
0.022043
0.005464
0.041586
0.040361
0.082112
0.115588
0.106339
0.179243
0.031273
0.112044
0.041615
0.061210
0.092273
0.077956
0.039170
0.189963
0.095821
0.151901
0.075041
0.165116
0.116410
0.068885
0.072575
0.068711
-0.009126
0.104323
0.095508
0.143842
0.065120
0.014162
0.123734
0.119621
0.105012
0.073143
0.142392
0.178192
0.120872
0.102131
0.018585
0.127256
0.104057
0.050030
0.103610
0.102354
0.177767
0.190246
0.086403
0.149237
0.137107
0.192403
0.202524
0.218767
0.199540
0.239209
0.182121
0.281649
0.254768
0.233871
0.235866
0.265216
0.273444
0.278353
0.271216
0.301155
0.272138
0.276110
0.240131
0.205334
0.232196
0.066245
0.140520
0.228959
0.157040
0.097580
0.177288
0.139785
0.157303
0.147585
0.078080
0.113255
0.061636
0.193734
0.186685
0.025647
0.159127
0.147500
0.072972
0.121983
0.112461
0.208479
0.075078
0.110410
0.099485
0.037549
0.056590
0.107104
0.126892
0.351417
0.607490
0.986613
1.265680
1.454331
1.500000
1.319632
1.073640
0.680840
0.319760
0.045349
-0.147901
-0.123658
-0.141629
-0.023044
0.019376
0.036904
0.100544
0.069894
0.138920
0.153036
0.106618
0.082508
0.056378
0.134563
0.178395
0.220589
0.099883
0.107005
0.118762
0.203246
0.163756
0.234362
0.306518
0.219380
0.228096
0.261162
0.352491
0.292525
0.376245
0.213805
0.403783
0.395427
0.446068
0.489501
0.432946
0.514487
0.486208
0.544680
0.568968
0.567031
0.596527
0.469315
0.584725
0.508706
0.495783
0.619033
0.700652
0.593333
0.593627
0.614678
0.660719
0.614809
0.665082
0.544034
0.533010
0.542937
0.524166
0.518535
0.455215
0.437545
0.408644
0.335529
0.464954
0.320717
0.315602
0.307038
0.292276
0.253802
0.261677
0.290636
0.235047
0.236667
0.262328
0.208182
0.130724
0.176850
0.153086
0.044954
0.093066
0.117731
0.028164
0.163949
0.100388
0.132688
0.047784
0.034566
0.086753
0.077632
0.070514
0.049606
0.116592
0.103711
0.072687
0.044955
0.094694
-0.008020
0.069911
0.109311
0.129719
0.048369
0.102574
0.052129
-0.007429
0.106347
0.073837
0.094605
0.053035
0.045166
0.043829
0.026080
0.052494
0.005627
0.023600
0.056633
0.101044
0.091544
0.027054
0.117259
0.078682
0.049609
0.146137
0.136188
0.053458
0.032263
0.044056
0.033727
0.085055
0.053115
-0.039340
0.079537
0.060587
0.108693
0.077113
0.066907
0.002065
0.039056
0.019344
0.005168
0.091196
0.049209
0.091970
0.103823
0.068260
0.057180
0.078074
0.149709
0.070343
0.184997
0.082899
0.104473
0.127076
0.065740
0.105211
0.131876
0.216486
0.166081
0.159146
0.178171
0.204181
0.181697
0.229063
0.146056
0.138957
0.126134
0.275271
0.174690
0.180190
0.202059
0.178859
0.089473
0.195988
0.161225
0.262771
0.112384
0.205843
0.164861
0.149180
0.066959
0.097914
0.089306
0.088866
0.109184
0.020813
0.087335
0.002629
-0.044114
0.004919
-0.025431
0.026064
0.053730
0.040377
0.004605
-0.002725
0.020175
-0.002882
-0.005846
0.019925
0.031531
-0.010583
0.034883
0.145123
0.490964
0.684784
1.030097
1.335234
1.413939
1.326216
1.055652
0.779645
0.308119
0.027549
-0.176201
-0.261650
-0.273348
-0.164143
-0.065736
-0.092960
0.008214
-0.011195
0.040389
0.087421
0.030499
-0.003607
-0.020750
0.000982
0.026265
-0.012303
0.032893
0.068902
0.011713
0.041820
0.089202
0.086499
0.092986
0.162752
0.185139
0.159853
0.187084
0.205421
0.203518
0.305333
0.336530
0.272001
0.193719
0.292874
0.325959
0.380407
0.318285
0.378554
0.404088
0.443196
0.482503
0.452449
0.453513
0.421955
0.470664
0.505537
0.506522
0.507392
0.489867
0.423780
0.560846
0.477011
0.427462
0.465566
0.418435
0.452312
0.364040
0.335426
0.356298
0.371924
0.333127
0.283746
0.252522
0.265933
0.234806
0.145264
0.248911
0.157364
0.112549
0.144773
0.119605
0.141610
0.098823
0.052108
0.060105
0.001135
0.118922
0.019660
0.065243
0.037489
-0.034991
0.059314
0.040107
-0.012571
-0.055199
-0.173856
0.009464
-0.015271
0.018038
0.020665
0.005386
0.061919
-0.071445
-0.073581
-0.070448
-0.123894
-0.080385
-0.131673
-0.031826
-0.114226
-0.046810
-0.113936
-0.047489
-0.020021
-0.082210
-0.092962
-0.139557
-0.010877
0.001359
-0.035425
-0.068243
-0.041695
-0.006707
-0.044397
-0.115650
-0.070611
-0.057526
-0.101983
-0.078388
-0.117958
-0.009513
-0.183719
-0.082247
-0.068355
-0.078777
-0.125013
-0.098333
-0.091799
-0.072367
-0.036041
-0.093453
-0.066914
-0.072694
-0.048034
-0.082449
-0.016184
-0.014189
-0.140031
0.023262
-0.122275
-0.077488
-0.066571
0.006429
-0.078756
-0.072776
-0.058598
-0.074466
-0.038721
-0.002193
-0.051290
0.029698
0.036350
0.026876
-0.001207
0.034483
-0.022735
0.041667
0.110832
0.034003
0.087287
0.122672
0.057437
0.140007
0.010522
0.107934
0.092351
0.138985
0.077270
0.178789
0.083259
0.087993
0.043185
0.018514
0.036192
-0.015327
-0.002190
-0.002784
-0.057135
-0.009355
-0.041340
-0.109035
-0.023844
-0.118455
-0.082557
-0.088482
-0.095479
-0.066111
-0.052764
-0.064746
-0.118568
-0.060687
-0.163229
-0.055485
-0.034411
-0.073368
-0.121498
-0.095925
-0.080931
-0.159175
-0.080605
0.111011
0.275029
0.654363
0.900892
1.161013
1.347467
1.347594
0.948779
0.717214
0.341728
-0.048289
-0.246061
-0.302679
-0.315633
-0.264600
-0.201032
-0.124106
-0.064023
-0.084264
-0.071655
-0.082016
-0.055015
-0.074997
-0.088273
-0.043187
-0.029014
0.021620
-0.060371
0.019564
-0.001330
0.018643
-0.042830
-0.004152
0.067333
0.072846
0.049943
0.094979
0.214029
0.052644
0.135854
0.188295
0.225497
0.216784
0.216632
0.301116
0.263064
0.341810
0.275752
0.337840
0.424155
0.348481
0.380528
0.427556
0.430712
0.483581
0.417510
0.439325
0.417313
0.418079
0.446252
0.406030
0.425537
0.428808
0.463757
0.416809
0.324472
0.394027
0.355940
0.274183
0.299212
0.305137
0.182474
0.339551
0.206446
0.188272
0.207501
0.158967
0.215264
0.083041
0.090007
0.164099
0.093806
0.102997
0.145980
0.063278
0.043251
0.104729
0.061022
0.004406
0.005221
0.030987
-0.032761
-0.033095
0.009924
0.061287
-0.014830
-0.099158
-0.083384
-0.107320
-0.001144
-0.070904
-0.062876
-0.032145
-0.033401
-0.088857
-0.070080
-0.032128
0.019537
-0.073172
-0.025056
-0.015105
-0.029398
-0.103250
-0.116709
-0.008535
-0.027973
-0.047178
-0.057268
-0.130582
-0.011745
-0.067093
-0.011664
-0.141419
-0.098113
-0.076843
0.016611
-0.066290
-0.080941
-0.060252
0.060161
-0.048932
-0.034425
-0.105566
0.004220
0.010868
-0.064527
-0.119278
-0.016715
-0.015718
0.010219
0.023362
-0.048881
0.015528
-0.064542
-0.103160
0.003926
-0.053256
-0.049691
-0.006864
-0.092757
-0.100756
0.034169
-0.043026
0.008747
0.053094
0.015900
0.008071
0.008957
0.001029
0.035020
0.017903
0.051304
0.048050
0.125099
0.068026
0.111069
0.121656
0.114631
0.112537
0.104261
0.129694
0.198871
0.173980
0.192380
0.086226
0.110826
0.075621
0.207849
0.198928
0.090946
0.164949
0.193865
0.173374
0.073092
0.104689
0.083526
0.082490
0.109963
-0.020142
0.041172
0.043692
0.075824
0.055517
-0.013048
0.032453
0.005001
-0.069877
0.057232
0.084698
0.043974
-0.002557
-0.029988
0.013429
0.057192
0.008017
0.037107
-0.017886
0.000737
-0.035995
-0.049710
0.013488
0.112829
0.357804
0.517035
0.958477
1.286203
1.377062
1.432441
1.141439
0.914596
0.564100
0.176686
-0.144495
-0.204535
-0.299431
-0.213260
-0.158994
-0.131127
0.046712
0.074039
0.044664
0.006572
0.081998
0.029251
0.150534
0.043856
0.065966
0.025705
0.079883
0.180402
0.048246
0.083632
0.166406
0.125528
0.127318
0.194198
0.127727
0.168645
0.200347
0.268956
0.322082
0.185960
0.292128
0.310029
0.362787
0.311967
0.434402
0.386133
0.370290
0.464449
0.469099
0.473005
0.568137
0.431368
0.571569
0.502815
0.560924
0.571064
0.567757
0.533158
0.545191
0.571914
0.540780
0.444432
0.601730
0.485282
0.528790
0.494652
0.471361
0.429814
0.366687
0.423524
0.408653
0.413757
0.401557
0.346420
0.373418
0.320519
0.262953
0.187377
0.235494
0.236302
0.094425
0.200429
0.202943
0.169432
0.148912
0.182859
0.102303
0.064567
0.064226
0.052688
0.030220
0.097863
0.012472
-0.041491
0.077845
0.035396
0.073290
0.080895
0.111064
0.076910
0.051789
0.101983
0.010413
0.064896
0.098429
0.145681
0.067316
0.116248
0.041439
0.090070
0.037726
0.021470
0.088292
0.083676
-0.044907
0.082054
-0.010865
-0.036679
0.072203
-0.034061
0.073915
0.077168
0.024378
0.112762
0.086237
0.081907
0.075780
0.034019
-0.000805
-0.016951
-0.010558
0.015247
-0.031800
0.065394
0.101592
0.032097
0.081206
0.027581
0.113135
0.044725
0.073598
0.015659
0.053601
-0.005850
0.098417
-0.006739
0.025037
0.087260
0.134930
0.084217
0.134040
0.006590
0.035473
0.134740
0.127657
0.117514
0.062793
0.055514
0.115997
0.138140
0.077296
0.055207
0.208951
0.194958
0.131194
0.089096
0.121281
0.230275
0.130793
0.209617
0.242902
0.207461
0.219929
0.223350
0.145678
0.145646
0.203555
0.249577
0.218681
0.216641
0.137237
0.150648
0.237544
0.058751
0.072398
0.119723
0.130645
0.073077
0.185751
0.054325
0.047554
0.103224
0.115702
0.044655
0.029189
0.064755
-0.016445
0.026780
-0.013936
0.018912
0.101789
0.013228
0.059373
-0.009727
0.003452
0.066845
0.011939
0.074531
-0.030859
-0.034201
0.101855
0.329399
0.519897
0.831271
1.220066
1.357064
1.475330
1.242051
1.017140
0.682798
0.290503
0.009124
-0.074390
-0.185560
-0.193517
-0.084664
-0.075265
-0.020499
-0.042430
0.045507
0.085885
-0.028798
-0.020548
0.084665
0.151758
0.094344
0.030666
0.126094
0.092066
0.037461
0.047224
0.092864
0.112365
0.114834
0.169559
0.183710
0.136331
0.207953
0.187105
0.269189
0.282786
0.219164
0.397534
0.360812
0.334421
0.422389
0.384190
0.372590
0.426176
0.424273
0.509494
0.479838
0.444466
0.429049
0.557156
0.575601
0.532837
0.648774
0.418306
0.542781
0.485075
0.473429
0.506482
0.473183
0.443545
0.460767
0.422176
0.430265
0.515626
0.386653
0.356436
0.394155
0.405839
0.276960
0.325509
0.258243
0.229197
0.258676
0.294683
0.212308
0.135903
0.182892
0.169134
0.065540
0.044885
0.079757
0.028722
0.138708
0.001537
0.009972
0.023236
0.026003
0.021354
0.040851
0.007987
0.043731
0.038485
0.032743
0.022820
0.019909
0.064567
0.085730
0.026055
-0.004184
0.077371
-0.034989
0.033557
-0.119403
-0.062229
0.042881
-0.051779
-0.056825
-0.107080
0.000949
-0.023557
0.000759
-0.013109
-0.015762
-0.076568
-0.076422
-0.017119
0.108444
0.012702
-0.013592
-0.052559
-0.056722
-0.095864
0.000193
-0.060914
-0.106025
-0.015750
-0.046107
-0.063162
0.003673
-0.048150
-0.081729
-0.075349
-0.069603
-0.049039
-0.043809
-0.035872
0.011403
-0.088159
0.033348
-0.056521
-0.142175
0.021711
-0.044774
-0.076507
-0.068205
-0.052124
-0.010471
-0.034437
-0.049075
-0.040135
-0.027017
0.005922
-0.007427
-0.034612
0.005302
0.009694
0.100876
0.091636
-0.021924
-0.005121
0.100296
0.125870
0.141744
0.114144
0.097508
0.120525
0.092186
0.082235
0.066557
0.159997
0.143389
0.171314
0.082206
0.122356
0.035467
0.144739
0.065746
0.057149
0.052085
0.091617
0.070565
-0.034007
0.088651
-0.004017
0.079793
-0.013063
-0.071425
-0.125819
-0.035218
-0.036865
-0.035553
-0.114606
-0.092132
-0.059738
-0.118382
-0.034739
-0.064778
-0.070669
-0.010504
-0.073840
-0.048431
-0.115381
-0.157321
-0.131668
-0.047260
-0.144438
-0.032569
0.155683
0.318208
0.691954
0.942706
1.206819
1.402413
1.198753
1.039529
0.724759
0.292665
-0.023251
-0.233456
-0.377931
-0.319550
-0.252180
-0.171234
-0.155139
-0.115373
-0.150140
-0.105174
-0.026295
-0.016664
-0.103520
-0.031737
-0.013315
-0.079013
-0.047143
0.026144
0.027398
0.021867
0.003627
0.029677
0.089785
0.045204
0.054032
0.032298
0.113193
0.067299
0.127541
0.126059
0.169736
0.231424
0.191741
0.268880
0.222970
0.272585
0.335148
0.310914
0.360095
0.324027
0.410671
0.411124
0.386071
0.369929
0.514982
0.412035
0.435423
0.363392
0.435954
0.464207
0.375771
0.449976
0.259060
0.308923
0.392711
0.410954
0.288183
0.320388
0.240734
0.242427
0.282102
0.254578
0.249822
0.125390
0.131023
0.250412
0.113777
0.087343
0.097400
0.060181
0.088162
0.086984
0.059409
0.051305
-0.039887
0.010946
-0.024518
-0.138021
0.004178
-0.085663
-0.021305
0.023337
-0.056811
-0.086371
-0.088343
-0.076454
0.006631
-0.014806
-0.074236
-0.117727
-0.076670
-0.067757
-0.072031
-0.156976
-0.067324
-0.068984
-0.103563
-0.191385
-0.161860
-0.083472
-0.077349
-0.080141
-0.122712
-0.067733
-0.068487
-0.032507
-0.041730
-0.088391
-0.045958
-0.137235
-0.053559
-0.080350
-0.091292
-0.145263
-0.039944
-0.089636
-0.043810
-0.086962
-0.119544
-0.073651
-0.086860
-0.149913
-0.071608
-0.072854
-0.141980
-0.020063
-0.098036
0.004445
-0.006062
-0.139436
-0.192911
-0.125526
-0.101552
-0.119865
-0.098720
-0.140323
-0.049418
-0.105167
-0.111432
-0.118863
-0.056800
0.025386
-0.204207
-0.079326
-0.090314
-0.016718
-0.070223
-0.092395
0.055271
-0.001045
-0.012229
-0.036770
-0.033177
0.051140
0.053089
0.050151
0.023488
0.043660
0.024814
0.075642
0.129437
0.106251
0.103475
0.068045
0.110849
0.102833
0.177045
0.097666
0.156282
0.148402
0.057769
0.016766
0.090969
0.111144
0.030743
0.039498
0.009463
-0.044877
-0.035609
0.018968
-0.088794
0.008365
-0.099221
-0.075634
-0.013719
0.045333
-0.063904
-0.050866
-0.114480
-0.144203
-0.027747
-0.029861
-0.045479
-0.054319
-0.087156
-0.010179
-0.061408
-0.131456
-0.110128
-0.149537
0.023910
0.043282
0.267124
0.519844
0.891486
1.184146
1.400788
1.386737
1.058437
0.837393
0.399490
0.042067
-0.172315
-0.255153
-0.247532
-0.251711
-0.112007
-0.113597
-0.079809
-0.041670
-0.105368
0.020017
-0.015617
0.006235
-0.106262
-0.063914
0.009448
-0.144534
-0.017134
0.106513
0.062256
-0.040183
-0.011020
0.091526
0.092481
0.129710
0.093200
0.053322
0.133294
0.144081
0.266100
0.239475
0.262230
0.304964
0.244139
0.315413
0.287950
0.383099
0.379863
0.388876
0.466699
0.453296
0.513079
0.422819
0.443693
0.566036
0.480240
0.531373
0.432014
0.464453
0.468990
0.471558
0.495231
0.305799
0.438810
0.544420
0.427757
0.372730
0.400450
0.455883
0.411365
0.398531
0.350633
0.308560
0.282795
0.360971
0.285539
0.273712
0.138996
0.212044
0.159570
0.132813
0.186457
0.102732
0.113879
0.100642
0.101438
-0.002913
0.027818
0.122035
0.069792
0.094981
0.077130
0.020827
0.033416
0.052350
-0.007759
0.018579
-0.077131
0.001919
-0.041780
-0.065031
0.066177
0.080409
0.029979
-0.018223
0.088216
0.050351
-0.009334
0.000132
0.020311
0.053958
-0.025759
0.019182
0.005379
-0.041437
0.060569
-0.013879
0.010926
0.023657
0.020713
0.002028
-0.007707
-0.009349
0.029439
-0.049075
0.025476
0.093962
-0.018467
0.007862
0.085306
0.082739
0.049249
0.024158
0.010084
0.023992
0.025058
-0.007025
-0.038326
0.061133
0.125514
-0.007802
0.042074
0.022254
0.059632
-0.080589
-0.014586
0.043893
0.067902
0.009125
0.034407
-0.015921
0.126687
-0.000551
0.078102
0.028065
0.118111
0.091035
0.055093
0.017610
0.150961
0.082030
0.107211
0.131367
0.110611
0.195674
0.133209
0.170199
0.234232
0.191810
0.153923
0.248991
0.201543
0.216466
0.235554
0.192375
0.306598
0.315764
0.168330
0.154079
0.198100
0.168702
0.165399
0.213371
0.198172
0.163367
0.213023
0.147224
0.114028
0.102857
0.153617
0.066050
0.047835
0.035050
0.082465
0.014538
-0.020291
0.139800
0.018770
0.025219
0.034091
0.010583
-0.002325
-0.006903
-0.056965
0.059278
0.006995
0.075288
0.074349
0.003174
0.052247
0.048406
0.148665
0.383021
0.542836
0.942812
1.295341
1.451103
1.470912
1.296986
0.923582
0.578148
0.177735
-0.107169
-0.133840
-0.188023
-0.210590
-0.090025
-0.060251
0.046589
0.096755
0.030720
-0.016362
0.064353
0.063472
0.105561
0.079852
0.093668
0.128597
0.089706
0.148540
0.187530
0.127457
0.237507
0.196856
0.242309
0.148698
0.233394
0.232348
0.285159
0.305576
0.282602
0.388747
0.400666
0.372084
0.412103
0.323412
0.402333
0.526158
0.468741
0.495572
0.537765
0.511545
0.536011
0.541912
0.518238
0.574609
0.587278
0.566504
0.611468
0.554463
0.554616
0.626415
0.597914
0.596235
0.566961
0.586163
0.543710
0.515682
0.505251
0.435145
0.460446
0.367351
0.532043
0.355839
0.360182
0.351278
0.408528
0.349563
0.298326
0.278231
0.190102
0.220218
0.295372
0.156941
0.257425
0.174778
0.098221
0.155369
0.154117
0.088093
0.126466
0.122623
0.149467
0.122907
0.122128
0.128510
0.045659
0.099831
