0.061241
0.109053
-0.008609
0.120293
-0.033739
-0.013469
0.039046
0.044797
-0.015167
-0.012514
0.016724
-0.012950
0.072212
0.052998
0.064466
0.028072
0.079569
0.054284
0.006877
0.106667
0.087623
0.056032
0.010006
0.124070
0.117884
0.176144
0.118034
0.135410
0.212844
0.137491
0.169851
0.111277
0.228406
0.198590
0.206492
0.249920
0.176382
0.168562
0.168271
0.162854
0.295685
0.197750
0.118110
0.224361
0.170594
0.217630
0.123259
0.040715
0.112270
0.164193
0.033325
0.054806
0.056870
0.047253
0.002739
0.018661
0.025651
0.032218
0.041419
0.104108
0.086594
0.008837
0.082993
0.151038
0.180960
0.420818
0.812656
1.104715
1.353060
1.498434
1.357199
1.074984
0.671072
0.363665
0.087669
-0.046502
-0.168748
-0.111329
-0.037596
0.053916
0.070344
0.172773
0.101813
0.118607
0.126555
0.123583
0.229044
0.254203
0.058708
0.230215
0.278381
0.292623
0.221168
0.307389
0.302415
0.330928
0.406493
0.399633
0.403337
0.356802
0.408860
0.453283
0.378498
0.568260
0.546828
0.582793
0.576353
0.561358
0.571409
0.594469
0.581681
0.608540
0.676029
0.588387
0.586623
0.709555
0.630868
0.570192
0.619626
0.534772
0.645119
0.503449
0.535184
0.500324
0.487937
0.415812
0.403049
0.378436
0.342972
0.338493
0.280080
0.422732
0.322878
0.246290
0.288889
0.297715
0.262363
0.230283
0.258881
0.214667
0.195116
0.085109
0.091489
0.109390
0.108158
0.076632
0.126366
0.096307
0.138300
0.039356
0.162134
0.144679
0.115863
0.094785
0.100854
0.122526
0.109072
0.178258
-0.017686
0.067557
0.028507
0.125246
0.050699
0.054839
0.104730
0.095144
0.146777
0.065550
-0.053592
0.115736
0.094521
0.100898
0.036631
0.055527
0.100510
0.165890
0.144971
0.105810
0.107309
0.070991
0.078644
0.106401
0.177374
0.070353
0.047652
0.150606
0.076743
0.078587
0.131710
0.134366
0.121861
0.147748
0.107578
0.115029
0.198947
0.180732
0.180611
0.187856
0.235351
0.200269
0.188398
0.246599
0.298952
0.275885
0.268814
0.289716
0.272825
0.269187
0.284441
0.265558
0.249882
0.268308
0.204237
0.287793
0.150865
0.205262
0.231563
0.169588
0.217263
0.215040
0.131936
0.129627
0.093912
0.168176
0.154792
0.125178
0.146335
0.115949
0.121727
0.189899
0.098837
0.073979
0.183654
0.098303
0.172944
0.167918
0.189336
0.406768
0.752798
1.077500
1.306543
1.431133
1.500000
1.242522
0.854898
0.553030
0.101388
-0.048117
0.024176
-0.117570
0.001800
0.068861
0.120765
0.175874
0.193364
0.122266
0.152884
0.215146
0.183314
0.147937
0.210259
0.200524
0.289389
0.174862
0.295815
0.321075
0.313922
0.350850
0.397183
0.419613
0.514457
0.378407
0.478950
0.439412
0.418798
0.485830
0.482368
0.612679
0.534644
0.631560
0.537252
0.603241
0.602427
0.636211
0.586104
0.666332
0.559539
0.588561
0.527425
0.573729
0.541820
0.489168
0.485121
0.512903
0.524006
0.476207
0.473511
0.425940
0.415421
0.425376
0.372582
0.313772
0.307159
0.293412
0.284938
0.240273
0.224318
0.193494
0.225349
0.191417
0.219553
0.177135
0.206178
0.135953
0.080694
0.146874
0.163190
0.099165
0.149015
0.091818
0.089370
0.096841
0.116831
0.122592
0.081526
0.059427
0.044298
0.065876
0.079224
0.066078
0.036532
0.050378
0.018532
0.024406
0.048735
0.013673
-0.005825
0.006891
0.033282
-0.024629
0.037629
0.045711
-0.006172
0.077309
0.059837
0.011230
-0.013635
0.078076
0.078836
0.117928
0.068776
0.002582
0.005817
0.037273
0.118869
0.003754
0.007585
0.036734
-0.010526
0.050294
-0.017508
-0.030110
0.125332
0.113011
0.064791
0.043626
0.050509
0.147743
0.041383
0.142409
0.174313
0.183817
0.167680
0.191025
0.279800
0.242891
0.242545
0.148378
0.101348
0.196086
0.300807
0.240566
0.261543
0.275086
0.156145
0.055620
0.214005
0.253035
0.148257
0.150384
0.163631
0.122102
0.077924
0.076109
0.103684
0.109377
0.054761
0.089246
-0.012187
0.165032
-0.024318
0.110231
0.045450
0.060734
0.036456
0.036565
-0.029986
0.054278
0.065491
0.351147
0.518029
0.817102
1.087850
1.271415
1.370726
1.290016
0.981608
0.554829
0.231932
-0.120302
-0.048964
-0.163735
-0.119122
-0.144801
0.083773
0.064580
0.108817
0.036466
0.102834
0.093248
0.212974
0.174604
0.136376
0.212626
0.118510
0.192028
0.288602
0.221528
0.206350
0.205076
0.361581
0.228293
0.327969
0.385298
0.355419
0.360120
0.384386
0.409612
0.391260
0.386110
0.434976
0.459152
0.563642
0.516329
0.479531
0.488993
0.591000
0.409118
0.521233
0.474235
0.577735
0.476762
0.448261
0.418025
0.460033
0.421003
0.538374
0.407896
0.325894
0.349878
0.347753
0.238734
0.225287
0.257949
0.259217
0.198456
0.244243
0.111249
0.250819
0.117895
0.213232
0.145614
0.132697
0.025628
0.068459
0.070108
0.096772
0.045023
0.024500
-0.019660
0.032429
0.063244
0.007778
0.022205
-0.065822
-0.026046
0.040724
0.066092
0.012889
0.012402
0.070049
-0.029106
-0.058389
-0.033194
-0.037579
0.056936
-0.114744
-0.069825
-0.060180
-0.073939
0.044515
-0.093795
-0.072778
0.099210
0.003418
-0.129131
-0.111889
-0.055640
-0.012836
-0.050751
-0.097303
-0.032404
-0.056875
-0.001081
-0.076538
-0.030679
-0.006004
-0.068014
-0.021431
-0.004866
0.032720
-0.056087
-0.000426
-0.001187
-0.008679
0.056813
-0.011232
0.014171
0.014716
0.043728
0.106929
0.139929
0.062125
0.055833
0.070726
0.134800
0.104240
0.030133
0.127925
0.058534
0.100139
0.145041
0.177009
0.144865
0.103482
0.076049
0.081778
0.130345
0.041825
0.109897
0.036863
0.073261
0.108305
-0.037330
0.060234
0.025787
-0.039235
0.072713
0.030818
-0.020925
-0.049513
0.004485
0.009507
-0.018837
0.007418
0.030104
-0.055169
-0.010938
-0.089580
-0.038127
-0.027144
0.114168
0.356791
0.554050
0.923542
1.204788
1.319247
1.219400
1.093819
0.708140
0.346505
0.046060
-0.097992
-0.207286
-0.177794
-0.086732
-0.056387
-0.079034
0.040006
0.013843
0.024559
0.132588
0.049732
0.036414
0.089123
0.107084
0.086350
0.193663
0.148143
0.155472
0.161572
0.225811
0.198308
0.306527
0.191845
0.305755
0.315964
0.354677
0.361613
0.398078
0.354095
0.381706
0.435420
0.470280
0.512896
0.452809
0.497248
0.489285
0.416378
0.451268
0.484980
0.441315
0.441767
0.565743
0.402988
0.487541
0.391254
0.439555
0.368723
0.389108
0.380546
0.315283
0.363497
0.239923
0.240300
0.233391
0.271740
0.183599
0.123895
0.158878
0.183946
0.142906
0.177829
0.187433
0.163449
0.064848
0.177523
0.141547
0.093748
0.096718
-0.001719
0.009754
0.031949
0.046594
0.003797
0.003571
0.017325
0.004014
-0.093286
-0.037723
-0.063910
0.020723
0.051604
-0.036019
-0.031379
0.002722
-0.006285
-0.067757
0.003705
-0.025369
-0.069788
-0.022296
-0.035200
0.035507
0.020432
-0.129097
0.035948
-0.001964
-0.004097
-0.085306
-0.046019
-0.112956
-0.014950
-0.030319
0.040453
-0.040331
0.005729
-0.009353
-0.035783
0.006996
-0.006068
-0.076120
-0.050166
0.007824
0.009927
0.032906
-0.018515
0.121811
0.013691
0.068379
0.062178
0.064294
0.033082
0.055099
0.185622
0.042169
0.208065
0.169415
0.138320
0.142347
0.173773
0.248607
0.153524
0.210877
0.165298
0.158157
0.172572
0.207627
0.250570
0.172806
0.152875
0.200902
0.170861
0.190047
0.111054
0.096249
0.110280
0.045333
0.137853
0.085782
0.033985
0.000425
0.049609
0.127070
0.050831
0.061030
-0.011567
0.061700
0.100065
0.067550
0.140580
0.099699
0.045840
0.271673
0.311194
0.538971
0.802475
1.235608
1.272107
1.390506
1.191535
0.906805
0.588268
0.250570
-0.072346
-0.021298
-0.087178
-0.059862
0.010926
0.025607
0.070153
0.074243
0.033219
0.103543
0.135476
0.114934
0.167938
0.175572
0.149597
0.251731
0.234508
0.255501
0.271940
0.335984
0.341018
0.316848
0.358820
0.406724
0.408543
0.434622
0.410310
0.409520
0.481458
0.418985
0.470175
0.523098
0.574867
0.561946
0.657376
0.621437
0.542546
0.613218
0.546955
0.631981
0.629000
0.567201
0.586173
0.488657
0.609400
0.524104
0.451271
0.458271
0.476071
0.491314
0.471467
0.442649
0.484358
0.334378
0.410124
0.360103
0.276666
0.268991
0.186706
0.297986
0.221163
0.222624
0.243192
0.209118
0.196326
0.134002
0.100889
0.217847
0.187996
0.240309
0.129155
0.200797
0.037031
0.160122
0.176830
0.066581
0.120666
0.061306
0.156542
0.092390
0.122043
0.081655
0.099333
0.092664
0.060987
0.030275
0.083854
0.159088
0.123450
0.148844
0.131675
0.030108
0.105531
0.100403
0.150060
0.092817
-0.022869
-0.000409
0.030114
0.100543
-0.018939
0.095723
0.055058
0.112083
0.110768
0.161613
0.164897
0.168366
0.125822
0.133195
0.130134
0.156099
0.208879
0.112604
0.114984
0.115251
0.124411
0.126421
0.244179
0.138102
0.220354
0.198942
0.296056
0.239768
0.284779
0.148370
0.243746
0.238007
0.239209
0.289317
0.308068
0.284953
0.210999
0.265425
0.212940
0.339717
0.271446
0.261179
0.272864
0.283586
0.232287
0.229117
0.206655
0.304864
0.213065
0.158854
0.113120
0.243388
0.152659
0.188015
0.092863
0.176764
0.295577
0.106931
0.176063
0.090150
0.057043
0.096093
0.063320
-0.002472
0.132982
0.171722
0.317250
0.452889
0.775212
1.134418
1.369162
1.491819
1.415554
1.154780
0.850997
0.404489
0.171858
0.029219
-0.083582
-0.048004
0.054607
0.102761
0.145588
0.111658
0.255818
0.162540
0.181772
0.279236
0.150867
0.171615
0.371629
0.286179
0.278710
0.277273
0.335974
0.226155
0.392914
0.368685
0.385374
0.410748
0.470989
0.410180
0.512146
0.494761
0.556047
0.487180
0.550270
0.481694
0.536249
0.610887
0.528782
0.685969
0.625623
0.695618
0.634807
0.656185
0.693993
0.591691
0.576876
0.603424
0.581343
0.561914
0.586805
0.531476
0.474753
0.546907
0.467244
0.471861
0.470812
0.468474
0.392240
0.408778
0.377605
0.394527
0.350849
0.280889
0.304677
0.380005
0.193177
0.205457
0.236773
0.177247
0.197509
0.151963
0.153947
0.197431
0.154443
0.156760
0.110544
0.161768
0.164279
0.159093
0.037936
0.150449
0.083724
0.092320
0.075252
0.100943
0.037521
0.112511
0.061932
0.120465
0.127155
0.110315
0.050388
0.041716
0.229673
0.120157
0.066680
0.010024
0.079195
0.099842
0.110837
0.039343
0.112221
0.011533
0.034804
0.015889
0.055415
0.088968
0.103197
0.053317
0.119554
0.041457
0.109284
0.070426
0.150128
0.056103
0.125592
0.180070
0.115284
0.110258
0.117026
0.124371
0.053014
0.180337
0.150727
0.159985
0.186948
0.215897
0.182855
0.211998
0.139284
0.197662
0.148229
0.244264
0.214260
0.255709
0.280118
0.259053
0.233230
0.202329
0.187373
0.236769
0.150824
0.213743
0.122885
0.257305
0.139046
0.220418
0.180205
0.102296
0.205077
0.199749
0.142112
0.083332
0.159258
0.025616
0.127799
0.022938
0.061970
0.070899
0.083243
0.105302
0.023567
-0.020344
0.000640
0.089849
0.193873
0.430460
0.662967
0.911323
1.335765
1.431632
1.401602
1.189676
0.854901
0.471563
0.165536
-0.056319
-0.078713
-0.157738
-0.084548
0.008136
0.026551
0.092939
0.104430
0.078942
0.108878
0.192530
0.179261
0.172478
0.202350
0.157674
0.180371
0.251981
0.292888
0.133900
0.241870
0.242946
0.249302
0.366407
0.334849
0.430425
0.384664
0.446400
0.408853
0.466082
0.414996
0.443866
0.474141
0.526048
0.590703
0.510104
0.592272
0.604852
0.610269
0.533904
0.466367
0.542976
0.498997
0.487138
0.473458
0.513700
0.384720
0.471796
0.361321
0.397542
0.412565
0.320674
0.311242
0.286262
0.286555
0.253058
0.288423
0.213699
0.184304
0.231849
0.100011
0.182639
0.113850
0.214255
0.069075
0.093391
0.167004
0.028471
0.103500
0.102357
-0.035726
0.003775
0.029075
-0.045505
0.002157
-0.001192
-0.032067
0.041959
0.058874
-0.051654
-0.087150
-0.029755
0.001949
-0.033227
-0.039636
0.018403
-0.003776
0.017568
-0.059795
-0.012358
-0.066982
0.014910
-0.062983
0.083894
-0.119286
-0.089886
-0.073302
-0.014059
-0.037483
0.014732
0.033256
-0.007962
-0.103900
-0.021809
-0.058941
-0.074977
-0.008480
-0.069474
-0.087450
-0.049264
-0.101254
-0.079805
-0.024160
-0.038544
-0.142504
0.002221
-0.047106
-0.070222
-0.053554
-0.000223
0.081618
0.050757
-0.008119
0.008673
0.090284
0.074689
0.130086
0.050468
0.100512
0.019255
0.126057
0.089593
0.055902
0.155646
0.177377
0.177024
0.180229
0.106293
0.059256
0.118764
0.069165
0.144173
0.084583
0.009116
0.012414
-0.000315
-0.011753
-0.036245
0.015876
0.016857
-0.001826
0.098527
-0.067626
-0.016260
-0.061140
-0.035308
-0.089066
-0.011607
-0.119027
-0.006005
0.017491
-0.070627
0.006702
0.170677
0.336681
0.621945
0.992425
1.188733
1.410668
1.242662
0.874687
0.539640
0.206132
-0.000883
-0.201517
-0.257663
-0.093847
-0.156745
-0.071988
0.047124
-0.022938
0.001494
0.025781
-0.003066
0.066836
0.056606
0.044150
0.069091
0.154498
0.091428
0.097835
0.119834
0.169379
0.198924
0.242665
0.248183
0.259763
0.321896
0.267807
0.260781
0.393389
0.342546
0.411731
0.307172
0.327126
0.397514
0.385434
0.402765
0.448311
0.420932
0.522515
0.526486
0.467122
0.482295
0.435362
0.386279
0.458177
0.356202
0.426086
0.347950
0.379573
0.393897
0.341306
0.339428
0.269848
0.254810
0.244406
0.197513
0.215846
0.179721
0.197711
0.169390
0.204800
0.066685
0.081107
0.137568
0.067245
0.053371
0.083195
0.071612
0.054530
-0.021001
0.013456
-0.084925
-0.072455
-0.072630
0.043934
-0.059839
-0.022207
-0.207700
-0.124574
-0.081872
-0.043024
-0.036427
-0.093331
-0.099209
-0.073804
-0.067820
-0.019776
0.021503
-0.025548
-0.112755
-0.067993
-0.023926
-0.084246
-0.109921
-0.231676
-0.082240
-0.137673
-0.103687
-0.045424
-0.039325
-0.034524
0.016021
-0.131371
-0.042526
-0.011780
-0.052065
-0.048306
-0.126948
-0.035297
-0.081863
-0.039546
-0.049629
-0.000857
-0.090266
0.005981
-0.079505
-0.040116
-0.054896
-0.011118
0.030219
0.024984
-0.029082
0.052459
0.072238
0.031383
0.076774
0.071243
0.070192
0.097843
0.106840
0.167980
0.158324
0.068178
0.094322
0.124344
0.200331
0.049152
0.101300
0.126521
0.035866
0.061442
0.096257
0.059302
0.079955
0.016876
0.076145
0.071687
0.027415
0.046996
-0.044418
-0.012848
-0.062891
-0.002766
-0.103458
-0.079092
-0.013761
-0.103788
0.011904
-0.005187
-0.104590
0.002207
-0.013789
0.004849
0.049553
0.195334
0.514127
0.868113
1.109227
1.349311
1.271313
1.012061
0.712611
0.358264
0.004801
-0.174009
-0.186358
-0.146701
-0.144089
-0.128484
-0.075217
0.008705
0.062228
0.042495
0.120931
0.073716
0.165188
0.056047
0.092794
0.163101
0.153996
0.062750
0.149853
0.133245
0.162088
0.172282
0.233510
0.264408
0.280003
0.285270
0.255046
0.371871
0.400226
0.369302
0.448495
0.453082
0.442293
0.456133
0.495413
0.584856
0.478983
0.538956
0.580060
0.504959
0.504897
0.515251
0.471207
0.479893
0.531885
0.414137
0.375201
0.481903
0.402324
0.406861
0.358406
0.363866
0.311020
0.283513
0.290119
0.301928
0.242800
0.188088
0.155829
0.128613
0.207289
0.138827
0.171771
0.148792
0.098670
0.126241
0.100656
0.051573
0.036770
0.082747
0.079821
0.040458
-0.043334
-0.042827
-0.016194
-0.060304
0.001299
0.056173
-0.006921
0.025166
0.046708
0.005119
-0.015739
0.014328
0.036049
-0.001872
-0.010057
0.039643
0.070205
0.038603
0.014919
-0.019179
0.010441
-0.027348
0.002781
0.029388
0.016334
0.010019
-0.014031
0.053971
0.077854
0.079950
0.018507
-0.017204
-0.035296
-0.011292
-0.035791
0.007113
0.049603
0.034625
0.041381
-0.032008
0.058205
0.094770
0.060298
0.110320
0.113638
0.001234
0.140020
0.140733
0.101355
0.104703
0.082623
0.147509
0.092784
0.091163
0.099814
0.144420
0.208149
0.249125
0.176706
0.205310
0.209702
0.270545
0.180491
0.220105
0.333293
0.196981
0.189299
0.231731
0.215787
0.229027
0.149225
0.161033
0.076267
0.102869
0.068336
0.076335
0.187755
0.056524
-0.026755
0.124654
0.061616
-0.039511
0.117211
0.023200
-0.047062
0.068809
0.065257
0.038760
-0.023898
0.131148
0.168422
0.251479
0.517335
0.774520
1.175485
1.333700
1.428839
1.239326
0.880288
0.563253
0.264021
0.010104
-0.102225
-0.107334
-0.103627
-0.031969
0.079080
0.011585
0.074326
0.081144
0.137479
0.144685
0.092448
0.177526
0.119229
0.222222
0.162462
0.186299
0.280722
0.284387
0.307604
0.271825
0.300799
0.336234
0.316650
0.378337
0.424839
0.435263
0.418356
0.466723
0.405843
0.543141
0.516622
0.504889
0.538287
0.611241
0.562753
0.607135
0.537107
0.672010
0.526648
0.598509
0.522107
0.595232
0.527607
0.495597
0.512542
0.446659
0.526838
0.436620
0.509340
0.394248
0.369752
0.406027
0.323996
0.354519
0.303829
0.250495
0.337133
0.225931
0.133938
0.342879
0.221457
0.135962
0.313586
0.124116
0.193171
0.193573
-0.058069
0.163500
0.104710
0.133965
0.098045
0.148237
0.172237
0.095971
0.092196
0.019185
0.053015
0.040352
0.050304
0.024132
0.037206
0.061300
0.028907
0.013403
-0.035225
0.037297
0.065294
0.102667
0.005729
0.060797
-0.013787
0.057176
-0.045907
0.053027
0.046737
0.044742
0.067522
0.060176
0.053331
0.034791
-0.042816
-0.071026
0.092449
0.059188
0.072708
0.068246
0.035167
0.065306
-0.000715
0.075651
0.056636
0.029125
0.046886
-0.004415
-0.023330
0.078335
0.106291
0.146409
0.068766
0.134130
0.056993
0.129327
0.219117
0.139059
0.200260
0.148900
0.208431
0.195329
0.189982
0.230117
0.186811
0.258344
0.234549
0.179058
0.222994
0.173719
0.150573
0.228993
0.166847
0.183065
0.108390
0.125872
0.207100
0.191786
0.113758
0.116678
0.094960
0.095809
0.097824
0.098775
0.061172
0.123384
-0.099228
0.043801
0.100208
0.066876
0.069872
0.043378
0.027461
0.044404
0.141985
0.216283
0.427171
0.638299
1.014742
1.275611
1.335015
1.355629
1.082230
0.737975
0.305150
0.039805
-0.005249
-0.165646
-0.119957
-0.027379
-0.022838
0.081521
-0.046265
0.084251
0.103211
0.168111
0.111252
0.201901
0.150832
0.212052
0.134842
0.224589
0.186654
0.259629
0.213891
0.286820
0.295937
0.377013
0.312160
0.295083
0.378942
0.418474
0.452518
0.431230
0.447312
0.485143
0.442478
0.481996
0.488619
0.568228
0.450797
0.509566
0.549596
0.511254
0.591206
0.604766
0.552395
0.538539
0.562900
0.405000
0.483552
0.429971
0.415151
0.447713
0.381240
0.339785
0.483136
0.316293
0.289168
0.223859
0.228936
0.288429
0.246893
0.275144
0.170701
0.148328
0.158992
0.192192
0.207005
0.129835
0.160847
0.074520
-0.014820
0.112453
0.088390
-0.001196
0.066392
0.068087
0.049170
0.063911
0.037442
0.062079
-0.079814
-0.057679
0.021623
-0.061549
0.010219
-0.042866
-0.056186
-0.117659
-0.028772
-0.114685
-0.029467
-0.052886
-0.009236
-0.045393
-0.015588
-0.045160
0.020205
-0.002802
-0.021646
-0.021590
-0.010112
0.007562
0.012581
-0.049689
0.005348
-0.028260
0.011905
-0.074333
0.117758
-0.008588
-0.028632
-0.069600
-0.058823
-0.020273
-0.022044
-0.075338
-0.037488
-0.012812
-0.005838
-0.011978
0.016500
0.102325
0.041091
0.029174
0.061916
-0.017244
0.150347
0.051039
0.177150
0.078642
0.150243
0.063649
0.083217
0.164575
0.152235
0.092591
0.167286
0.025802
0.048790
0.082996
0.152906
0.039149
0.094272
0.065619
0.044900
0.075693
0.040335
0.069189
0.011475
0.022752
-0.044264
-0.077447
-0.037165
-0.035179
-0.010597
-0.013327
-0.007512
-0.095236
-0.029437
0.031524
-0.009745
0.008038
-0.077884
-0.017736
-0.011391
0.087213
0.303809
0.397407
0.707824
1.116289
1.295526
1.375289
1.142245
0.747604
0.363929
0.077682
-0.204791
-0.319424
-0.253015
-0.237627
-0.175997
-0.082981
-0.132227
0.039936
-0.015467
0.021744
-0.030067
0.109941
0.062095
0.061386
0.082252
0.031098
0.052791
0.138359
0.163734
0.127505
0.188128
0.193633
0.199227
0.275053
0.297107
0.295356
0.237217
0.359528
0.296694
0.292910
0.410909
0.354926
0.483816
0.485395
0.419425
0.449589
0.400553
0.408592
0.471143
0.382833
0.434333
0.398058
0.472414
0.458043
0.369303
0.342902
0.390731
0.347868
0.352950
0.330863
0.310073
0.240867
0.197796
0.153840
0.189167
0.136059
0.160537
0.193336
0.067864
0.117708
0.066280
0.070010
0.010000
0.083563
0.039993
-0.047304
0.016072
-0.008594
-0.067955
-0.044672
0.013435
0.017011
0.003914
-0.008482
-0.079541
-0.087632
-0.016808
-0.051706
-0.045545
-0.069509
-0.072298
-0.145252
-0.034569
-0.173960
-0.147943
-0.078541
-0.156659
-0.189470
-0.015678
-0.147484
-0.142170
-0.164142
-0.080514
-0.111406
-0.063829
-0.182770
-0.078671
-0.059815
-0.095215
-0.089830
-0.104985
0.000513
-0.145716
-0.108276
-0.135106
-0.068110
-0.168760
-0.184503
-0.095099
-0.133837
-0.051484
-0.060093
-0.070397
-0.074225
-0.073956
-0.100138
-0.063462
-0.084356
-0.048351
-0.035923
-0.055168
-0.013735
0.028015
0.047434
0.076482
0.001221
0.034671
0.061988
0.060006
0.123257
0.157395
0.150868
0.105369
0.113964
0.101968
0.123809
0.066262
0.076234
0.051925
0.041737
0.046178
0.017370
0.042840
0.003728
0.014598
0.013150
-0.061725
-0.045269
-0.131492
-0.123566
-0.054546
-0.062020
-0.023123
-0.047150
-0.061126
-0.080651
-0.131106
-0.088980
-0.054655
-0.130358
-0.070642
0.005865
0.012108
0.436996
0.680610
0.877974
1.245004
1.191913
1.204799
0.912569
0.504384
0.181096
-0.087049
-0.239393
-0.264122
-0.187807
-0.089915
-0.072810
-0.088778
-0.055393
-0.042453
-0.103504
-0.024689
0.005266
0.049622
0.133107
0.102260
0.151001
0.042954
0.131641
0.244389
0.152614
0.109849
0.211404
0.321072
0.190045
0.302930
0.323619
0.409720
0.391671
0.372302
0.398689
0.352611
0.416598
0.387158
0.376471
0.461579
0.461241
0.563900
0.488961
0.568376
0.504974
0.502047
0.454977
0.510708
0.393334
0.389825
0.458645
0.400436
0.405203
0.443583
0.333632
0.339860
0.399098
0.275189
0.243582
0.288194
0.168403
0.149267
0.260741
0.154743
0.110005
0.141194
0.196815
0.051737
0.033953
0.047521
0.051535
0.053626
0.051463
0.062264
0.010466
0.020576
0.071985
0.013255
-0.066533
0.022802
-0.109497
-0.059552
-0.113033
-0.013186
0.013364
-0.039516
-0.035605
-0.159130
-0.080382
-0.139691
-0.033088
-0.084528
-0.023595
-0.019987
0.012802
-0.024307
-0.003227
-0.038621
-0.039968
-0.020127
0.007284
-0.020862
-0.107880
0.003118
0.021438
0.031878
-0.109024
-0.058736
-0.064454
-0.004550
-0.044613
-0.097256
-0.069934
0.010697
-0.036954
-0.009617
0.057781
0.038868
0.026956
-0.035772
-0.017310
0.047310
0.029481
0.003078
0.109529
0.007334
0.040334
0.099044
0.115718
0.120037
0.187855
0.098669
0.137928
0.164819
0.106725
0.118935
0.190894
0.102768
0.170468
0.217765
0.123764
0.156518
0.089693
0.191402
0.165617
0.143211
0.155310
0.161727
0.021047
0.102009
0.145632
0.093477
0.093961
0.073581
0.136493
0.039334
0.050612
0.055776
-0.016756
-0.069223
0.090369
-0.095663
0.014069
0.026675
-0.003983
0.028228
0.006540
0.195461
0.360378
0.648228
0.904887
1.232830
1.441549
1.329324
1.198924
0.794939
0.335400
0.129908
-0.101737
-0.270739
-0.143266
-0.088535
0.058758
0.109208
0.109943
0.076135
0.075464
0.059912
0.099986
0.096747
0.136203
0.234569
0.182180
0.185081
0.257560
0.274919
0.290332
0.214904
0.297378
0.354409
0.335118
0.270829
0.381468
0.374914
0.421789
0.554168
0.471928
0.499936
0.503238
0.467346
0.540589
0.613304
0.537467
0.604167
0.588166
0.583964
0.566429
0.607313
0.533919
0.548984
0.538822
0.621318
0.543900
0.483373
0.510825
0.469129
0.455296
0.369754
0.495263
0.394436
0.410323
0.311069
0.258653
0.303256
0.277915
0.203385
0.244130
0.283414
0.129928
0.219987
0.176457
0.299055
0.145353
0.275405
0.061544
0.142361
0.150880
0.059403
0.119496
0.041606
0.128784
0.074253
0.099650
0.163037
0.078429
0.090313
0.145075
0.026448
0.053177
0.020818
0.074951
0.029175
0.096586
0.017373
0.004483
-0.007684
0.043029
0.000393
0.042550
0.038136
0.048957
0.075395
0.092284
0.151205
0.093286
0.054231
-0.025949
0.039445
0.087006
0.015036
0.001217
0.079956
0.035680
0.101495
0.057671
0.078922
0.031258
0.053439
0.067361
0.066863
-0.019455
0.050532
0.091868
0.018321
0.093787
0.155199
0.143368
0.186753
0.169061
0.106190
0.209329
0.187324
0.107561
0.191377
0.249188
0.244833
0.233902
0.277772
0.286618
0.310140
0.236347
0.329747
0.321297
0.282091
0.243126
0.253790
0.240552
0.232785
0.204243
0.193404
0.117531
0.248473
0.158655
0.199966
0.140493
0.105125
0.082365
0.047224
0.126934
0.121636
0.071249
0.045571
0.099966
0.037542
0.161430
0.026742
0.076797
0.010335
0.174114
0.238182
0.329585
0.626764
0.920398
1.173329
1.293094
1.436975
1.346988
1.028868
0.717268
0.287266
0.048343
-0.062018
-0.087989
-0.058413
0.056206
0.141375
0.111938
0.087222
0.176682
0.107432
0.216308
0.136803
