0.052162
0.039113
-0.065729
0.058215
-0.040543
-0.053999
-0.009319
-0.000234
-0.097157
0.007035
0.019650
0.026030
0.032409
0.028562
0.027592
-0.024218
0.019519
-0.027084
-0.001665
0.092311
0.054979
0.017565
0.094130
0.082779
0.054291
0.153998
0.097705
0.135231
0.118910
0.087284
0.178585
0.200513
0.151223
0.215083
0.165223
0.152433
0.230708
0.228739
0.156196
0.207376
0.228834
0.212359
0.219171
0.233252
0.201328
0.169673
0.154043
0.144587
0.049744
0.174497
0.030539
0.182715
0.065152
0.111555
0.140205
0.051310
0.094200
0.133188
0.110875
0.137237
-0.007373
0.036995
0.009525
0.114847
-0.044282
0.069138
0.058202
0.030059
0.063483
0.167203
0.220383
0.435657
0.744909
1.030057
1.325888
1.500000
1.377768
1.150180
0.749650
0.387209
0.053802
-0.083239
-0.181429
-0.022553
-0.091524
0.057317
-0.038063
0.122163
0.117050
0.030622
0.095099
0.123869
0.211070
0.147592
0.146328
0.221186
0.123932
0.245505
0.105489
0.183814
0.254083
0.242753
0.215382
0.316103
0.339422
0.339799
0.422980
0.354157
0.467287
0.406092
0.475616
0.412502
0.503174
0.466238
0.502973
0.661133
0.659923
0.632693
0.526256
0.571020
0.697456
0.605720
0.625396
0.672595
0.596684
0.620400
0.610290
0.492145
0.581745
0.550805
0.589642
0.418429
0.569196
0.411140
0.422197
0.449790
0.476524
0.373303
0.409835
0.449660
0.307464
0.371718
0.314055
0.302227
0.290894
0.222818
0.286819
0.268566
0.208382
0.175693
0.199883
0.172198
0.203011
0.099449
0.185810
0.304488
0.153480
0.095814
0.102153
0.038656
0.120846
0.088512
0.207942
0.083923
0.009383
0.128307
0.136463
0.092814
0.088156
0.094539
0.106369
0.077281
0.013538
0.110199
0.098866
0.131901
0.066795
0.084798
0.139147
0.088905
0.045180
0.069326
0.006485
0.060309
0.096981
0.093433
0.056120
0.013774
0.045487
0.095641
-0.001688
0.114696
0.055115
0.074712
0.144021
0.088345
0.131344
0.077443
0.052960
0.150192
0.109252
0.198203
0.115418
0.058940
0.114702
0.135236
0.109431
0.104929
0.136234
0.185289
0.093883
0.227309
0.088204
0.176877
0.216534
0.181979
0.166760
0.190548
0.277063
0.187883
0.226769
0.248766
0.302729
0.332938
0.220803
0.281585
0.183873
0.287073
0.255355
0.165106
0.290703
0.312942
0.266270
0.283428
0.221085
0.184336
0.153040
0.153891
0.258840
0.120425
0.116460
0.195422
0.152199
0.057059
0.111091
0.101123
0.083649
0.043313
0.035870
0.122392
0.207648
0.094370
0.080484
0.083961
0.042547
0.093060
0.104428
0.275257
0.333178
0.650509
0.956674
1.280989
1.468879
1.447671
1.345338
0.868357
0.626213
0.257559
0.030224
-0.198024
-0.188761
-0.037639
0.018508
0.062216
0.103881
0.137201
0.115000
0.126893
0.130468
0.161092
0.191057
0.139019
0.170810
0.240652
0.175864
0.312471
0.158497
0.257790
0.231879
0.323771
0.333955
0.418218
0.374601
0.387009
0.317504
0.393760
0.425342
0.420648
0.533448
0.508847
0.518508
0.572477
0.521026
0.546666
0.604311
0.562011
0.513196
0.612503
0.558547
0.692405
0.600362
0.616622
0.589480
0.587835
0.567571
0.515755
0.498493
0.519222
0.517300
0.463117
0.502060
0.460416
0.397158
0.372145
0.363796
0.334668
0.358996
0.257191
0.284317
0.399694
0.200417
0.209879
0.212292
0.267396
0.165494
0.179933
0.172638
0.190631
0.149380
0.076352
0.155003
0.100199
0.117386
0.122674
0.104121
0.033223
0.100803
0.110676
0.038663
0.115083
0.035291
0.026019
0.096839
-0.001134
0.031960
-0.062287
0.018433
0.036503
0.075615
-0.055118
-0.021150
0.082305
0.015331
-0.006850
0.023787
-0.025022
-0.007916
0.064642
-0.002914
0.066662
-0.035820
-0.003757
-0.019568
0.005742
0.039969
-0.108606
0.032641
0.040316
0.073707
-0.020753
0.010240
0.060868
-0.008112
-0.010488
-0.007968
0.011671
0.007057
0.054069
0.078450
-0.030615
-0.030413
-0.003296
0.124549
0.046007
-0.004438
0.050248
0.069996
0.114629
-0.043492
0.084986
0.204484
0.164726
0.113063
0.162649
0.060735
0.108458
0.110852
0.188088
0.137459
0.243535
0.238644
0.169629
0.235631
0.135650
0.245536
0.154894
0.138599
0.052754
0.140964
0.149836
0.037604
0.058691
0.124753
0.114294
0.148474
0.113064
0.121123
0.025275
0.065415
0.081980
0.065948
0.017047
0.073218
-0.061455
-0.031368
-0.040378
-0.045564
-0.051024
-0.021105
0.036116
0.038234
-0.002253
0.095595
-0.017600
0.113617
0.239349
0.308879
0.658857
1.003794
1.392074
1.373738
1.272472
1.078363
0.714587
0.320057
0.002877
-0.175790
-0.286251
-0.169566
-0.182075
-0.160554
0.017167
0.005774
-0.056657
0.064102
0.032479
0.029434
0.096704
0.054522
0.040727
0.054067
0.154065
0.106434
0.110527
0.122397
0.170914
0.187629
0.260446
0.260474
0.201292
0.267693
0.173033
0.306710
0.224912
0.386584
0.261357
0.406415
0.376474
0.381096
0.475417
0.391807
0.378762
0.505524
0.550562
0.519770
0.469000
0.534064
0.515014
0.464294
0.451587
0.447711
0.532608
0.389321
0.454778
0.320243
0.499570
0.396492
0.357132
0.401262
0.288122
0.286670
0.339723
0.306152
0.273492
0.207027
0.210921
0.172230
0.194081
0.125860
0.198182
0.176673
0.115412
0.097562
0.039616
-0.051847
0.088075
0.027595
-0.011344
0.008531
0.059459
-0.043899
0.004288
-0.008160
-0.087692
-0.013961
-0.008057
-0.012773
-0.028528
-0.053705
-0.074760
-0.018706
-0.007885
-0.021030
0.024116
-0.068907
-0.160543
-0.014131
-0.095542
-0.061813
0.028242
0.036200
-0.040054
-0.049462
-0.109204
-0.157331
0.031628
-0.025709
-0.098706
-0.029559
-0.085396
-0.074078
0.005695
-0.123917
-0.045355
-0.066177
-0.043189
-0.033750
-0.106809
-0.030316
-0.074918
0.003597
-0.005465
-0.079758
-0.047772
-0.145473
-0.071176
0.022948
-0.054120
0.001142
-0.001518
-0.018856
-0.012836
-0.082786
0.013617
0.040560
-0.035867
0.049405
0.061299
0.079455
0.048049
0.088905
0.074192
-0.005956
0.135646
0.007618
0.148889
0.137445
0.216030
0.077481
0.101274
0.112978
0.230400
0.122009
0.112889
0.123127
0.125053
0.111049
0.154225
0.121531
0.057826
0.056285
0.136284
0.035396
0.063085
0.030181
-0.019783
-0.029031
-0.090757
0.006840
-0.036506
-0.000664
0.027627
0.035393
-0.009191
-0.010491
-0.056457
-0.007201
0.040221
-0.090219
0.002685
-0.003636
-0.013218
-0.021232
0.270828
0.496628
0.916831
1.118227
1.374957
1.378900
1.205613
0.958312
0.564551
0.191210
-0.080666
-0.258496
-0.211304
-0.124222
-0.157041
-0.052448
0.001593
0.032291
0.018465
-0.065791
0.074625
0.038641
0.014300
0.098928
0.157363
0.101125
0.099292
0.177414
0.113786
0.088917
0.170423
0.224942
0.218723
0.302263
0.262550
0.261175
0.295306
0.371138
0.364564
0.437913
0.484717
0.359720
0.519899
0.438146
0.437182
0.455846
0.457549
0.504015
0.502534
0.512493
0.587284
0.476904
0.568652
0.430120
0.538948
0.529146
0.520768
0.533116
0.441484
0.494967
0.367498
0.483548
0.413079
0.362341
0.344441
0.414241
0.241072
0.299590
0.305528
0.269253
0.233313
0.210937
0.253055
0.266698
0.215995
0.175055
0.133761
0.125421
0.166496
0.121017
0.213191
0.151558
0.029049
0.050996
0.031239
0.063381
0.019248
-0.011119
0.046114
0.083851
0.101397
0.029645
-0.029194
0.036036
-0.017180
-0.015712
0.049845
0.030602
-0.040421
0.014815
0.099375
-0.014901
0.066120
0.014833
0.068977
0.038418
0.008110
0.037730
-0.001505
0.027983
0.074652
0.076194
0.085896
0.101076
0.108219
-0.040413
0.077473
0.033667
-0.019456
0.010931
-0.057612
0.014989
-0.000881
-0.019511
0.086853
0.049344
0.066930
-0.001132
0.017052
0.014600
0.078111
0.095121
0.075961
0.025161
0.081424
0.170315
0.106633
0.115839
0.157354
0.069275
0.099019
0.081214
0.107634
0.146569
0.183873
0.134075
0.214486
0.124922
0.202971
0.236345
0.228205
0.243670
0.211520
0.240415
0.223486
0.262350
0.225106
0.158890
0.140712
0.252283
0.272329
0.156106
0.225295
0.228670
0.051583
0.104315
0.181645
0.174716
0.117883
0.185917
0.066854
0.117267
0.122506
0.120054
0.049125
0.097768
0.106948
0.062545
0.109905
0.075847
-0.003856
0.077193
0.045933
0.043656
0.040588
0.079088
0.101426
0.178265
0.455283
0.788836
1.121791
1.393366
1.427184
1.412902
1.218644
0.711040
0.398959
0.155439
-0.083851
-0.055399
-0.122323
-0.024008
0.057892
0.090961
0.030098
0.102071
0.048700
0.163163
0.179348
0.127244
0.191780
0.032015
0.162348
0.161154
0.216721
0.165389
0.244085
0.270052
0.196320
0.288285
0.371300
0.404421
0.394443
0.254735
0.387899
0.496623
0.437811
0.587398
0.474236
0.456271
0.530007
0.581759
0.544475
0.637224
0.623691
0.565373
0.638048
0.570630
0.550281
0.629216
0.642243
0.579585
0.536576
0.621226
0.519399
0.592466
0.553921
0.523865
0.602399
0.489451
0.471835
0.445683
0.422751
0.424813
0.437909
0.345822
0.409229
0.427301
0.365729
0.314511
0.335705
0.241764
0.285331
0.157574
0.188082
0.198228
0.178115
0.122129
0.189374
0.175343
0.159461
0.142485
0.191993
0.113226
0.153338
0.119301
0.137122
0.002731
0.022755
0.141912
0.201558
0.137264
0.044010
0.086857
0.012266
0.092709
0.190888
0.151365
0.096205
0.031914
0.069566
0.143141
0.178292
0.166196
0.119506
0.031243
0.100348
0.119812
0.096820
0.186578
0.074394
0.026971
0.081274
0.050921
0.134823
0.092169
0.054736
0.095812
0.160092
0.153163
0.108496
0.101418
0.104478
0.062734
0.156130
0.093066
0.075370
0.045900
0.113815
0.111942
0.088635
0.065091
0.124231
0.066924
0.184403
0.113450
0.074118
0.106559
0.173919
0.184226
0.081504
0.173601
0.151868
0.164362
0.277518
0.206639
0.241202
0.176260
0.217447
0.254763
0.225086
0.394680
0.367347
0.253991
0.303574
0.301880
0.299506
0.243082
0.280946
0.248039
0.253090
0.201061
0.201954
0.265567
0.174557
0.162624
0.133158
0.156686
0.115725
0.145632
0.045920
0.073351
0.184394
0.031265
0.038483
0.107468
0.070031
0.110835
0.135192
0.062826
0.087507
0.067181
0.095790
0.061837
0.228026
0.412082
0.649509
0.982196
1.325754
1.431652
1.493932
1.313850
0.939010
0.551972
0.229671
-0.006283
-0.140158
-0.187330
-0.088253
-0.011832
0.085920
0.126673
0.158871
0.069544
0.163972
0.096941
0.109455
0.182047
0.121073
0.119935
0.180443
0.132483
0.274876
0.214071
0.157547
0.267758
0.303255
0.417592
0.217060
0.336178
0.358241
0.299569
0.370938
0.454412
0.487151
0.529548
0.563631
0.535891
0.513012
0.507041
0.536663
0.586840
0.491494
0.495880
0.507984
0.549533
0.490024
0.558384
0.620637
0.696603
0.622543
0.569972
0.618708
0.654285
0.547890
0.490006
0.525359
0.384523
0.437148
0.473950
0.428026
0.351587
0.375747
0.337724
0.270597
0.283960
0.261128
0.221751
0.265003
0.169852
0.168919
0.235616
0.123902
0.158463
0.104455
0.140475
0.087494
0.136678
0.060574
0.093943
0.073328
0.091526
0.056137
0.053538
0.056056
0.054026
0.037247
-0.013792
0.092647
0.024319
0.011567
-0.002404
-0.003458
-0.005099
0.073436
0.000274
0.020908
-0.037936
0.019313
0.019888
0.094261
0.021404
-0.004169
0.053702
0.033637
0.003651
0.080925
-0.030995
0.052357
-0.071757
0.021305
-0.028732
0.073326
0.023523
-0.001875
-0.011859
0.090390
0.059799
-0.034444
0.005935
0.019293
-0.073065
-0.015699
0.065864
0.026786
0.061105
0.159675
0.057231
0.113965
-0.051780
-0.033825
0.001019
0.019051
0.005998
-0.000395
-0.011272
0.115208
-0.003019
0.085495
0.060021
0.173399
0.086665
0.107806
0.050166
0.137924
0.150196
0.192667
0.146440
0.141750
0.145307
0.171329
0.223135
0.217441
0.182750
0.132221
0.141996
0.178528
0.182364
0.045432
0.077115
-0.007671
0.063127
0.055861
0.113651
0.083088
0.096174
-0.013668
-0.016714
0.000182
0.077428
0.031770
-0.071788
0.010954
0.071515
-0.059489
-0.005678
0.025918
-0.007408
-0.052897
0.004395
-0.064821
0.085836
0.154879
0.465449
0.725758
0.957094
1.346835
1.431788
1.206620
1.039911
0.681727
0.312140
-0.012057
-0.213066
-0.264131
-0.183070
-0.145326
-0.124967
-0.140380
0.002662
0.083857
0.001467
-0.024167
0.086309
-0.038615
0.043205
-0.000176
0.010170
0.080970
0.093914
0.115205
0.170603
0.197871
0.194246
0.162462
0.128198
0.157420
0.238420
0.279084
0.326135
0.249967
0.307449
0.407640
0.360394
0.414287
0.369629
0.328671
0.444296
0.429788
0.428931
0.505083
0.477462
0.550459
0.428222
0.465844
0.447073
0.471400
0.396628
0.498110
0.428514
0.486256
0.404637
0.359179
0.384019
0.519726
0.373782
0.342240
0.258055
0.306559
0.268175
0.257532
0.150866
0.143023
0.194716
0.151543
0.127536
0.162558
0.084912
0.085236
-0.055524
0.113245
0.013745
-0.055984
0.048501
0.007090
-0.055222
0.040201
0.019801
0.045836
-0.057047
-0.064862
-0.077177
-0.078708
-0.080856
-0.102574
-0.066975
-0.099147
-0.041123
-0.115741
-0.153175
-0.074225
-0.144895
-0.133220
-0.094715
-0.114133
-0.022687
-0.113987
-0.064960
-0.076087
-0.061781
-0.094471
-0.088517
-0.087195
-0.061687
-0.027733
0.009081
-0.035129
-0.128033
-0.039696
-0.116445
-0.109563
-0.069960
-0.012063
-0.081902
-0.143374
-0.027205
-0.041336
-0.037509
-0.091104
-0.059251
-0.061209
-0.049800
-0.182172
-0.059151
-0.053387
-0.000542
-0.040942
-0.072028
-0.077309
0.023765
-0.064358
-0.024703
-0.032843
-0.008132
0.031764
0.065469
0.124198
0.055678
0.066599
0.039751
0.125557
0.013664
0.031907
0.072736
0.069008
0.081769
0.085303
0.159817
0.095209
0.078517
0.096147
0.084040
0.063605
0.080622
0.087306
0.020743
0.073261
0.005913
0.018636
-0.025955
0.010894
-0.018324
0.053155
0.024148
0.004671
-0.136022
-0.013430
-0.031896
-0.089390
-0.012081
-0.039440
-0.112878
-0.003632
-0.095592
-0.014605
-0.010479
-0.047340
-0.039673
-0.120665
0.054866
0.199514
0.398741
0.794882
1.138735
1.271874
1.314337
1.151108
0.790324
0.413039
0.006350
-0.190239
-0.218753
-0.341941
-0.277650
-0.149848
-0.046532
-0.107146
-0.127221
-0.075108
-0.070611
0.120116
0.064898
0.026815
0.018557
0.042521
0.091641
0.053208
0.086240
0.141432
0.099437
0.081744
0.159836
0.109462
0.249497
0.225373
0.260018
0.229779
0.268499
0.218378
0.342615
0.390920
0.460752
0.294277
0.411608
0.351767
0.413991
0.496032
0.431910
0.547701
0.529226
0.503632
0.475823
0.535559
0.439984
0.438640
0.437901
0.376135
0.394967
0.537736
0.462697
0.431966
0.427924
0.384129
0.266642
0.319395
0.374285
0.277065
0.240111
0.157807
0.181175
0.181311
0.222026
0.216533
0.095389
0.165481
0.162575
0.100431
0.178349
0.060788
0.124805
0.059091
0.019088
0.006000
0.031684
0.007234
0.048004
0.002291
0.003506
0.012179
-0.012367
-0.031895
-0.117446
-0.005881
0.011450
-0.039058
0.073229
-0.124816
0.011914
-0.013547
-0.005122
-0.025605
-0.066008
-0.055863
-0.013529
0.003706
0.049573
-0.070586
-0.053294
0.063931
0.006429
0.038803
-0.120407
0.065648
-0.032692
-0.083746
0.000435
-0.084945
-0.036302
-0.054457
-0.053895
-0.014154
-0.042770
-0.004926
0.038018
-0.005289
-0.055288
0.021068
-0.094845
-0.040586
-0.089610
-0.058867
-0.052961
-0.026494
-0.007534
-0.022336
0.018490
-0.018432
0.004118
0.030105
-0.003207
-0.020956
0.177512
0.009731
0.065949
-0.016543
0.066083
0.107813
0.082271
0.133865
0.107073
0.158744
0.175555
0.138376
0.194857
0.209630
0.203638
0.185747
0.148325
0.189453
0.123940
0.180456
0.177497
0.109417
0.190480
0.149600
0.141221
0.110331
0.116542
0.160990
0.020457
0.023808
0.000224
0.069073
0.073531
-0.048281
-0.081251
0.068595
-0.053196
0.007692
-0.009414
0.031671
0.038069
0.052928
0.027048
-0.020346
0.104298
0.018895
0.213043
0.375099
0.685758
1.063745
1.378952
1.392480
1.346443
1.094566
0.774596
0.344499
0.041819
-0.149778
-0.185431
-0.133679
-0.014997
-0.092945
-0.030138
0.119247
0.107621
0.119572
-0.024958
0.121594
0.151912
0.111596
0.226422
0.229974
0.104472
0.100560
0.248769
0.145046
0.172787
0.247110
0.336637
0.325416
0.216364
0.318399
0.350483
0.371931
0.367234
0.354079
0.436065
0.394072
0.437242
0.452691
0.487391
0.447237
0.587318
0.530225
0.491346
0.554434
0.526554
0.501925
0.650064
0.572906
0.598597
0.524303
0.607867
0.526390
0.557674
0.591635
0.538479
0.496685
0.491102
0.447782
0.484208
0.334062
0.355351
0.406252
0.342675
0.299459
0.350507
0.258377
0.239716
0.265452
0.179459
0.160066
0.171022
0.218089
0.147085
0.153340
0.081680
0.106226
0.219679
0.111929
0.154041
0.070224
0.107646
0.095268
0.089224
-0.006367
0.045212
0.056225
0.125397
0.064415
0.160513
0.004879
0.034117
0.095681
0.098087
0.018538
0.106270
0.039511
0.035979
0.025462
0.048239
0.139098
0.056641
0.075401
0.009494
0.090184
0.081456
-0.043981
0.113219
0.016236
0.111824
-0.017218
0.139192
0.009813
0.084480
0.064700
0.025498
-0.037302
0.091037
0.003302
0.022860
0.035608
0.015697
0.082159
0.107790
0.034512
0.065666
0.018440
0.110467
-0.013021
0.129334
0.117731
0.037881
0.090779
0.119798
0.135396
0.113763
0.151480
0.179491
0.116620
0.145182
0.163283
0.070566
0.214813
0.197327
0.161215
0.300875
0.261452
0.172966
0.266720
0.190296
0.261149
0.274182
0.229200
0.170839
0.232002
0.194474
0.238275
0.206578
0.174437
0.264708
0.135548
0.184568
0.140058
0.095883
0.156312
0.111216
0.157148
0.048802
0.115281
0.010574
0.013115
0.100324
0.126667
0.035689
0.022188
0.057998
0.084816
0.123618
0.080297
0.055221
0.025526
0.144894
0.146833
0.210981
0.610071
0.983280
1.244901
1.411013
1.436861
1.275181
1.022745
0.625591
0.266582
-0.004380
-0.108775
-0.151992
-0.130716
0.038269
-0.019383
0.062666
0.037044
0.085953
0.038263
0.164317
0.065824
0.174751
0.109245
0.240842
0.169158
0.221114
0.142919
0.189285
0.139679
0.230361
0.270865
0.330151
0.236654
0.253980
0.351889
0.314666
0.345080
0.373801
0.458342
0.444628
0.430039
0.512582
0.413361
0.513474
0.505197
0.527508
0.568163
0.568794
0.524693
0.480447
0.473942
0.542782
0.527612
0.563388
0.640104
0.484584
0.435683
0.492533
0.456685
0.530966
0.477618
0.447052
0.392079
0.403070
0.339082
0.375998
0.356194
0.246086
0.333212
0.231812
0.222973
0.186985
0.176090
0.131617
0.139126
0.068549
0.167301
0.068784
0.127945
0.154501
0.127224
0.062883
0.027514
-0.022504
0.013745
-0.055191
-0.002922
0.031022
0.032700
-0.011730
0.056641
-0.016902
-0.040853
-0.033308
-0.011517
0.046539
-0.006102
0.029779
-0.054624
-0.045725
0.070364
-0.042191
-0.024582
-0.031014
0.018763
-0.006708
0.021114
-0.055935
-0.102795
0.021085
-0.021793
-0.066589
0.021520
-0.006804
0.050849
0.004814
-0.110525
-0.038541
0.022814
0.017407
-0.046969
-0.077036
-0.044245
-0.053318
-0.026648
-0.022104
0.108738
-0.008169
-0.095340
0.021715
0.014731
-0.033615
-0.025249
0.029940
-0.024200
0.027865
0.022457
0.020650
-0.027188
0.055479
0.143143
0.014393
0.020856
0.034706
0.142156
0.037043
0.116608
0.129476
0.111438
0.037630
0.132879
0.171655
0.068445
0.191984
0.207850
0.160078
0.202824
0.100990
0.108278
0.086652
0.110718
0.160700
-0.001409
0.100309
-0.013590
0.040420
0.042428
-0.044569
-0.030473
-0.032421
-0.042486
0.033157
-0.099352
-0.034870
-0.029158
-0.042795
-0.059691
-0.051022
-0.082941
-0.104301
-0.072369
-0.044061
-0.070292
-0.073292
-0.079575
-0.003270
0.129138
0.431650
0.747546
0.857415
1.258199
1.372565
1.303569
1.023215
0.653823
0.215450
-0.059119
-0.224270
-0.264730
-0.252760
-0.209656
-0.057851
-0.092195
-0.054056
-0.058177
0.026213
0.034369
-0.056112
0.025511
0.037459
0.034362
-0.001577
0.062922
0.102494
0.122633
0.086668
0.129198
0.053899
0.129547
0.123165
0.120036
0.173268
0.179693
0.279454
0.296099
0.345413
0.271431
0.335447
0.375489
0.376386
0.331001
0.383563
0.327806
0.357003
0.444916
0.405447
0.543804
0.432339
0.497130
0.458104
0.504763
0.470845
0.427198
0.409880
0.405751
0.378732
0.489474
0.395016
0.346617
0.272924
0.300745
0.276177
0.277133
0.178380
0.289534
0.149743
0.176651
0.178049
0.195913
0.129220
0.161958
0.021959
0.034084
0.100228
0.041118
0.040943
-0.080841
-0.014801
-0.023962
0.084566
-0.028226
-0.077186
-0.109430
-0.034276
-0.149249
-0.087226
-0.077450
-0.188925
0.047845
-0.106534
-0.068355
-0.080551
-0.157104
-0.067805
-0.138261
-0.020301
-0.084475
-0.034525
-0.172449
-0.103924
-0.131008
-0.075618
-0.091472
-0.103189
-0.158253
-0.054221
-0.075786
-0.176604
-0.116505
-0.115437
-0.048237
-0.069333
-0.042825
0.027397
-0.154168
-0.117836
-0.109413
-0.057747
-0.130870
-0.176591
-0.079326
-0.105322
-0.180640
-0.149545
-0.193942
-0.101019
-0.074295
-0.030190
-0.201847
-0.163995
-0.039657
-0.081432
-0.169720
0.014276
-0.094741
0.021670
-0.012279
-0.023549
0.053280
-0.007792
-0.058650
-0.007445
0.086359
-0.015606
0.070385
0.042941
0.012592
0.053599
0.107876
0.051678
0.098475
0.118722
0.063808
0.108810
0.048252
0.116667
0.088877
0.054815
0.059443
0.033240
0.043977
-0.018765
-0.044607
-0.020840
-0.063357
-0.011272
-0.107130
-0.111030
-0.033485
-0.106399
-0.096461
-0.088789
-0.140285
-0.044896
-0.127336
-0.044490
-0.110383
-0.093201
-0.002292
-0.131783
-0.166083
-0.114666
-0.092640
0.003532
0.207236
0.484559
0.724719
1.066509
1.291449
1.303937
1.145105
0.808360
0.400951
0.083840
-0.282419
-0.323676
-0.283529
-0.235072
-0.212429
-0.146570
-0.054796
-0.064876
-0.005881
-0.018044
0.008553
-0.045949
-0.096682
0.090870
0.016086
0.057790
0.006369
0.060265
0.025017
0.054068
0.103898
0.213277
0.140438
0.104880
0.186262
0.227784
0.276569
0.294210
0.247384
0.268646
0.276351
0.217136
0.329792
0.508999
0.387905
0.443070
0.474159
0.419335
0.459506
0.492772
0.489662
0.442698
0.569338
0.371970
0.454609
0.396871
0.387731
0.407840
0.445484
0.394398
0.432542
0.328140
0.418136
0.336129
0.282484
0.255639
0.245185
0.349174
0.281689
0.135836
0.152597
0.144002
0.152363
0.194315
0.158701
0.080660
0.039829
0.132394
0.034817
0.064965
0.010987
0.036631
0.015164
0.025361
-0.010336
0.123572
0.014700
-0.007849
-0.055517
0.008287
0.034596
-0.037002
0.010306
-0.071515
-0.120592
0.016325
-0.111253
0.028950
0.035454
-0.028822
-0.039721
-0.148700
-0.064816
0.064991
-0.010151
-0.025072
-0.073872
-0.022318
-0.002299
-0.082346
-0.100650
0.053568
-0.067710
-0.002944
-0.012629
0.010297
-0.004760
-0.056419
-0.033275
-0.036466
0.023843
-0.017796
-0.108828
0.026687
0.068761
-0.010470
0.020799
0.025545
0.004427
-0.023169
0.065135
0.012108
0.032328
0.063407
0.099181
-0.009809
0.085402
0.090903
0.049350
0.085053
0.109007
0.086112
0.044298
0.165578
0.114637
0.204874
0.166322
0.117222
0.139231
0.189720
0.110228
0.210459
0.158093
0.149132
0.200663
0.077640
0.158160
0.164140
0.245097
0.179299
0.114174
0.091023
0.090793
0.087621
0.090236
0.082828
0.055988
0.105204
0.051999
0.040414
0.029268
-0.007548
0.026847
0.051746
0.003030
0.089566
-0.046326
0.062573
-0.002851
0.023864
-0.010101
0.002860
0.022021
-0.003496
0.042164
0.057225
0.041826
0.261311
0.395569
0.720247
1.052908
1.305763
1.456424
1.346229
1.090357
0.787184
0.353543
-0.054890
-0.203138
-0.199419
-0.191011
-0.110551
-0.138083
0.002336
-0.005150
0.035000
0.122878
0.117833
0.081615
0.184217
0.103078
0.075641
0.143776
0.248857
0.154848
0.249924
0.159356
0.189354
0.239830
0.215005
0.187697
0.320769
0.319984
0.366713
0.407159
0.352903
0.454759
0.375485
0.426548
0.478572
0.476479
0.527138
0.536853
0.559384
0.527164
0.571298
0.492844
0.626409
0.674592
0.621068
0.613455
0.543992
0.538365
0.541758
0.579186
0.551578
0.478476
0.558548
0.428874
0.503800
0.480217
0.405398
0.404914
0.368202
0.312003
0.411395
0.283341
0.298089
0.302848
0.294321
0.293313
0.166088
0.253143
0.180371
0.194106
0.210992
0.099751
0.205572
0.130649
0.144807
0.101485
0.115333
0.055414
0.215129
0.141065
0.150415
0.033096
0.044322
0.024989
0.089776
0.090589
-0.002310
0.106556
0.001698
0.112932
0.127891
0.202682
0.100888
0.101017
0.111846
-0.022198
0.062278
0.104949
0.066500
0.157726
0.037718
0.084113
0.074844
0.147281
0.013464
0.037625
0.094078
0.198268
0.035191
0.024999
0.009230
0.076760
0.169109
0.069085
0.082969
0.018309
0.021761
0.097017
0.111441
0.020109
0.025162
0.147629
0.113513
0.048746
0.100043
0.093585
0.102251
0.086481
0.113323
0.109265
0.116022
0.150110
0.172905
0.070391
0.147663
0.140449
0.204287
0.151192
0.225631
0.248805
0.223717
0.264672
0.175383
0.199343
0.304965
0.258696
0.222444
0.235215
0.233132
0.205435
0.243413
0.250362
0.302753
0.238013
0.190060
0.277096
0.241545
0.181196
0.170308
0.230838
0.141111
0.103329
0.120015
0.171510
-0.032083
0.134645
0.073987
0.086280
0.105471
0.019031
0.049611
0.084691
