0.073551
-0.034566
0.060272
-0.068526
-0.025362
0.040163
-0.062234
0.026919
-0.019694
-0.006114
0.021261
-0.013749
0.035814
0.050151
0.013589
0.032087
0.021941
0.022591
-0.067573
0.080273
0.050551
0.049876
-0.013315
-0.001924
0.124514
0.040147
0.116440
0.073097
0.045259
0.064222
0.131435
0.068782
0.062720
0.234275
0.130833
0.200409
0.225209
0.197281
0.202603
0.228097
0.208310
0.216671
0.186198
0.227897
0.209281
0.229432
0.169300
0.117552
0.125179
0.152958
0.135651
0.089309
0.112495
0.049731
0.049147
0.148485
0.087571
0.018156
0.105371
0.013055
0.073182
0.093845
0.078811
0.112244
0.126920
-0.075766
0.137367
0.070575
0.006274
-0.028570
-0.005839
-0.014962
0.077144
0.190698
0.440129
0.868365
1.115125
1.337937
1.447159
1.357185
1.125630
0.798690
0.369518
0.086482
-0.159884
-0.173846
-0.095431
-0.098523
0.075900
-0.027784
-0.018039
0.051953
-0.002533
0.145416
0.095149
0.075510
0.144588
0.180066
0.166383
0.174758
0.133523
0.145673
0.200906
0.254338
0.262806
0.251821
0.260027
0.274105
0.334851
0.310295
0.289653
0.410087
0.376535
0.429240
0.415205
0.434484
0.440580
0.488807
0.503481
0.606658
0.639793
0.572044
0.623770
0.478376
0.622677
0.557239
0.564900
0.677510
0.582270
0.661786
0.562780
0.591091
0.545136
0.520764
0.544157
0.492345
0.534520
0.468495
0.398802
0.476168
0.353611
0.427517
0.329156
0.332578
0.476106
0.362586
0.318499
0.253370
0.239857
0.298237
0.177843
0.229601
0.208502
0.209590
0.211858
0.174064
0.171583
0.113846
0.232444
0.241777
0.161660
0.156539
0.165435
0.129980
0.122747
0.075174
0.020613
0.050975
0.124937
0.106878
0.099431
0.061631
0.158571
0.135361
0.062871
0.117448
0.059457
0.081139
0.078393
0.159676
0.090109
0.069267
0.068473
0.076907
0.052766
0.131153
0.027363
0.036689
0.049296
0.065580
0.127791
0.073769
0.086847
0.090378
0.050428
0.114138
0.127142
0.081818
0.126667
0.079202
0.044672
0.095902
0.134320
0.117067
0.006926
0.088526
0.142542
0.083890
0.125107
0.015060
0.082356
0.161909
0.134356
-0.007480
0.051320
0.122760
0.106050
0.119862
0.113311
0.171635
0.238491
0.183008
0.165074
0.242000
0.209783
0.166526
0.143972
0.199173
0.158602
0.254324
0.249800
0.267327
0.197545
0.299163
0.296534
0.207969
0.254976
0.288123
0.130342
0.254843
0.219919
0.241221
0.248683
0.138766
0.170433
0.177021
0.108204
0.121842
0.104171
0.152533
0.132845
0.140328
0.194703
0.026240
0.161653
0.107516
0.097427
0.049176
0.049494
0.071718
0.126747
0.066916
0.208613
0.037517
0.104130
0.116728
0.074939
0.106860
0.268131
0.480149
0.816027
1.247174
1.407848
1.500000
1.263109
1.038131
0.672253
0.324948
0.020491
-0.156029
-0.129126
-0.039839
-0.017900
0.028740
0.097791
0.085892
0.041224
0.080377
0.178944
0.133539
0.075770
0.191299
0.153876
0.122114
0.191849
0.165427
0.132486
0.236360
0.220796
0.233732
0.203499
0.235776
0.270693
0.254580
0.392362
0.384404
0.371570
0.418510
0.402422
0.451337
0.466502
0.462692
0.486881
0.473792
0.518122
0.494010
0.558693
0.633887
0.558477
0.580869
0.531723
0.546543
0.539908
0.526363
0.534081
0.604222
0.642003
0.465160
0.476926
0.534439
0.458933
0.501829
0.365396
0.352955
0.437366
0.470059
0.321567
0.332832
0.290024
0.304751
0.302085
0.262926
0.228120
0.351860
0.275283
0.137868
0.254492
0.252521
0.071797
0.149844
0.128853
0.083014
0.141849
0.070103
0.137033
0.056883
0.073612
0.067241
0.042540
0.056687
0.055435
0.114838
0.043582
0.039853
0.008000
0.088770
0.037143
0.071823
0.111800
0.063457
0.019975
0.033455
0.037229
0.065664
0.024524
0.027074
0.034968
0.085919
0.078014
0.150953
-0.010409
0.075381
0.028904
0.095091
-0.034115
-0.008895
0.008788
-0.053644
0.037795
0.076153
0.028411
0.018362
0.040059
0.047900
0.025030
0.124199
0.028983
0.071559
0.061843
-0.003334
-0.065423
0.023943
0.008367
0.021690
-0.014688
-0.042417
-0.068269
0.010946
0.020192
0.097576
0.051332
0.003994
0.005949
0.010779
0.126243
0.051889
0.004950
0.096786
0.094212
0.084015
0.141964
0.152702
0.112091
0.208342
0.074613
0.118208
0.086593
0.208332
0.147287
0.200421
0.140931
0.136888
0.171622
0.147583
0.159169
0.166552
0.167042
0.104948
0.118954
0.093355
0.063256
0.099894
0.081056
0.063666
-0.001304
0.048633
0.023271
0.027475
-0.028024
-0.002952
-0.013492
0.012768
-0.060477
-0.017019
0.018340
-0.055141
-0.051238
0.038622
-0.023008
-0.045835
0.008319
-0.020946
0.040252
0.246252
0.511701
0.886282
1.168582
1.304350
1.320313
1.192822
0.929082
0.528854
0.190713
-0.055189
-0.266068
-0.209449
-0.219823
-0.132522
-0.063890
-0.028690
0.000317
0.002406
0.038701
0.078072
-0.048512
0.067604
-0.009973
0.128096
0.059382
0.010932
0.119535
0.104556
0.133242
0.107043
0.106062
0.128385
0.219193
0.149555
0.205104
0.220982
0.265284
0.291799
0.362623
0.288158
0.400149
0.327185
0.339590
0.381723
0.484421
0.489843
0.432602
0.443702
0.454887
0.430988
0.449718
0.488124
0.526552
0.474180
0.464346
0.412813
0.476683
0.399177
0.495310
0.415886
0.346686
0.354457
0.399814
0.407510
0.297310
0.272276
0.280533
0.235846
0.277924
0.224457
0.242079
0.238997
0.215389
0.175777
0.116262
0.147718
0.110714
0.052877
0.088803
0.088768
0.077193
0.009625
0.029613
-0.071248
0.138099
0.022805
-0.059771
0.005379
-0.038297
0.059498
-0.028439
-0.037491
-0.069153
0.028634
0.009147
-0.039062
-0.049224
-0.113755
-0.072642
-0.040269
-0.089658
-0.079609
-0.057753
0.044768
-0.057171
-0.168650
-0.024331
-0.012734
-0.059220
-0.102564
-0.078983
-0.034278
-0.058388
-0.065096
-0.118622
-0.038227
-0.009645
0.014729
-0.010877
-0.065744
-0.002877
-0.070081
0.008586
0.014561
-0.089332
-0.023825
-0.039290
-0.024514
-0.075575
-0.055336
0.003294
-0.016815
-0.061480
-0.037710
-0.045905
-0.001927
0.007386
-0.033131
-0.040374
0.019581
-0.070638
-0.065253
-0.019396
-0.067470
0.001002
0.030336
-0.006344
-0.000967
0.006747
0.085194
0.024444
0.076291
0.096928
0.081190
0.101758
0.095109
0.104045
0.182542
0.077405
0.117114
0.044866
0.102808
0.129245
0.153314
0.131219
0.195445
0.046504
0.101335
-0.032914
0.093976
0.017577
0.043411
0.037026
0.021609
0.016710
0.011312
0.061717
-0.001820
0.016868
-0.083466
-0.011214
0.073759
0.003927
-0.007049
0.018995
-0.034490
-0.008348
-0.087964
-0.015676
-0.039849
-0.026329
-0.087965
0.008505
0.147807
0.331614
0.581020
0.896814
1.143157
1.381417
1.335220
1.153401
0.834501
0.439859
0.140499
-0.103434
-0.177792
-0.299347
-0.027303
-0.126950
-0.048893
-0.014075
-0.050265
0.020945
-0.045024
-0.001894
-0.009823
0.084711
0.133973
0.126709
0.134140
0.111379
0.147745
0.046348
0.083686
0.104465
0.196606
0.184675
0.127702
0.264649
0.280301
0.200623
0.321261
0.306203
0.272895
0.323333
0.414010
0.426943
0.462394
0.430645
0.386564
0.499829
0.469118
0.458704
0.495649
0.439502
0.456020
0.520278
0.430643
0.526576
0.574477
0.508101
0.529281
0.500157
0.446306
0.430826
0.408853
0.423746
0.360300
0.345776
0.359260
0.361250
0.402666
0.306491
0.328971
0.234449
0.286783
0.246090
0.179342
0.167198
0.193664
0.159634
0.155659
0.133931
0.079681
0.091141
0.048567
0.040587
0.138327
0.080512
0.055364
0.105781
0.170392
0.071793
-0.094046
0.038398
-0.012526
-0.007306
-0.001806
0.062005
0.017596
0.034104
0.115714
0.003255
0.078746
0.016422
-0.008685
0.134199
0.052493
0.034557
0.067501
0.075490
0.025713
-0.013235
0.009813
0.059921
-0.031060
0.027204
0.084982
0.036354
0.079146
0.038731
0.032198
0.068025
0.055750
0.024597
-0.022765
0.052356
0.014935
0.020787
0.123572
0.017880
0.032218
0.067185
0.076458
0.021062
0.052300
0.085502
0.031077
0.010917
-0.002830
0.114926
0.100152
0.028600
0.033170
0.081647
0.061277
0.039651
0.038810
0.065136
0.102378
0.096401
0.103694
0.104709
0.101394
0.202860
0.149671
0.145777
0.217940
0.197226
0.179265
0.314308
0.206283
0.265080
0.231743
0.175882
0.257541
0.321961
0.213695
0.238190
0.227499
0.286316
0.207342
0.234167
0.148927
0.225036
0.084258
0.161903
0.188496
0.108184
0.145046
0.151943
0.105813
0.150460
0.154283
0.120645
0.147868
0.081990
0.051651
0.084992
0.168305
0.118602
0.026611
0.085010
0.038877
0.061637
0.122664
0.017228
0.154753
0.169675
0.402476
0.714510
1.086109
1.348227
1.411617
1.414337
1.208899
0.757432
0.471406
0.056579
-0.055871
-0.177885
-0.057321
-0.030411
0.039968
0.061852
0.077679
0.035129
0.167568
0.106560
0.085679
0.110330
0.217387
0.252465
0.102560
0.091296
0.102328
0.244164
0.229842
0.213839
0.261290
0.313832
0.116714
0.278281
0.252059
0.282903
0.271690
0.369512
0.381989
0.366468
0.415396
0.502640
0.426950
0.452974
0.476258
0.540531
0.647659
0.525367
0.619347
0.576537
0.578723
0.629484
0.581139
0.544678
0.629306
0.643515
0.630464
0.596419
0.523073
0.549814
0.575054
0.517090
0.449527
0.399982
0.389975
0.431479
0.447009
0.385349
0.437841
0.374363
0.350849
0.369784
0.373934
0.347939
0.246702
0.217034
0.264082
0.241611
0.148960
0.181653
0.168346
0.179232
0.241915
0.189420
0.142964
0.129109
0.218963
0.148171
0.198254
0.101506
0.195272
0.176049
0.132717
0.105867
0.097694
0.123653
0.105349
0.053459
0.022793
0.119421
0.182132
0.102507
0.143128
0.122077
0.108253
0.146838
0.060455
0.105727
0.102428
0.094818
0.105976
0.044047
0.088411
-0.002519
0.051607
0.000287
0.066315
0.116430
0.047306
0.119788
0.136860
0.105840
0.116203
0.061723
0.103334
0.112061
0.085974
0.106222
0.070017
0.106009
0.041998
0.129678
0.097937
0.072107
0.107490
0.118957
0.122310
0.039217
0.058012
0.106004
0.159652
0.108432
0.192242
0.105426
0.140025
0.153054
0.214803
0.159679
0.162760
0.243613
0.160290
0.158826
0.200105
0.234818
0.234502
0.150550
0.217451
0.232437
0.268977
0.274329
0.231362
0.296084
0.334219
0.313366
0.242674
0.287110
0.239302
0.115056
0.269531
0.145666
0.197261
0.166518
0.160630
0.127580
0.183034
0.083299
0.103260
0.136219
0.078667
0.158281
0.211142
0.062341
0.119020
0.180421
0.048201
0.062226
0.044503
0.041904
0.001039
0.030317
0.046733
0.036195
0.062103
0.130426
0.203447
0.456275
0.738692
1.059389
1.390421
1.426157
1.357699
1.100263
0.764425
0.381689
0.090674
-0.101955
-0.226566
-0.086917
0.039511
-0.061847
0.098727
0.062113
0.122950
0.075649
0.065088
0.023478
0.132357
0.082835
0.067471
0.174994
0.154633
0.144112
0.204814
0.200952
0.214254
0.213428
0.233616
0.308261
0.234640
0.328522
0.394677
0.375301
0.310601
0.333000
0.340021
0.411802
0.433635
0.350989
0.402126
0.521423
0.440040
0.579388
0.542232
0.551424
0.497013
0.598615
0.567754
0.577873
0.564849
0.559197
0.579463
0.518011
0.477694
0.524028
0.580858
0.452486
0.486563
0.409664
0.502864
0.563844
0.389089
0.338316
0.411230
0.360932
0.368802
0.226271
0.235704
0.227885
0.234791
0.291571
0.203978
0.192383
0.125158
0.111125
0.123719
0.155706
0.066269
0.001433
0.068546
0.087910
0.059538
0.074742
0.024118
0.055167
0.143468
-0.016988
0.034245
0.023676
-0.055193
-0.011373
0.022519
0.032630
0.049849
-0.068285
-0.023133
-0.022478
-0.046074
0.012359
-0.072719
-0.101464
0.113055
-0.056054
0.026166
-0.059446
0.009240
-0.064383
-0.028953
-0.036774
-0.086841
0.043587
-0.012156
-0.053094
-0.010168
-0.058957
0.017677
-0.020291
-0.059581
-0.002770
-0.046993
0.028599
0.009517
-0.032618
-0.083350
0.056589
-0.115721
-0.048105
-0.050124
-0.105813
0.015994
-0.038418
0.032533
0.018815
0.034544
0.064256
0.011966
0.050701
0.118162
-0.059119
0.096010
0.043562
0.018311
0.037292
0.127683
0.100547
0.036425
0.085928
0.083964
0.091910
0.150118
0.128634
0.065962
0.164582
0.177179
0.189729
0.159285
0.142460
0.107892
0.105622
0.146426
0.051863
0.131275
0.090676
0.134391
0.044145
0.013236
0.033961
-0.027791
0.134523
-0.063494
-0.061019
-0.030316
0.016576
-0.081188
-0.023451
-0.005479
-0.042708
-0.059310
-0.087013
0.015233
-0.030878
-0.004827
-0.046176
-0.077565
-0.082509
-0.061443
-0.168253
-0.084464
-0.007345
-0.053155
0.134443
0.441605
0.726396
1.041766
1.281564
1.280798
1.207390
0.928396
0.560711
0.260374
-0.053501
-0.230876
-0.294038
-0.224304
-0.205368
-0.108437
-0.037790
0.018512
-0.031361
-0.035269
0.028189
-0.040169
-0.009031
-0.002356
-0.014212
0.052173
0.073517
-0.001455
0.016882
0.102071
0.086932
0.125221
0.195269
0.060735
0.161891
0.099228
0.133457
0.235694
0.188040
0.243464
0.317500
0.294441
0.213124
0.347534
0.292346
0.390696
0.374714
0.328680
0.432620
0.367153
0.444407
0.441260
0.438939
0.441116
0.454159
0.421950
0.495126
0.413429
0.396274
0.392709
0.435468
0.376406
0.216392
0.361876
0.304190
0.228158
0.271016
0.293953
0.272590
0.204368
0.257879
0.190583
0.171222
0.168216
0.114126
0.087097
0.135604
0.055043
0.037902
0.026655
0.061788
0.047459
0.071800
0.008768
0.064303
0.037804
-0.063063
-0.071022
-0.037500
-0.141314
0.024994
-0.018207
-0.072727
-0.090306
-0.057206
-0.072290
-0.132535
-0.126380
-0.066107
-0.054382
-0.028420
-0.069247
-0.165766
-0.179003
-0.172232
-0.103069
-0.084497
-0.185995
-0.063567
-0.083882
-0.118524
-0.094295
-0.055790
-0.116785
-0.047570
-0.030279
-0.113380
-0.050476
-0.068831
-0.042825
-0.160578
-0.119147
-0.096735
-0.089274
0.000945
-0.107552
-0.057495
-0.098188
-0.150413
-0.122923
-0.101820
-0.085956
-0.070290
-0.047851
-0.056272
-0.095332
0.038569
-0.056605
-0.093182
0.038899
-0.013946
-0.067144
-0.080473
-0.093735
-0.012718
-0.011597
-0.032443
-0.029955
0.083873
0.022119
0.068994
-0.007627
0.114441
0.017430
0.121038
0.026150
0.067063
0.079570
0.120981
0.127694
0.162250
0.080543
0.111267
0.066579
0.144917
0.079794
0.072415
0.178393
-0.041996
0.065488
0.000601
0.006809
0.050739
-0.001994
-0.035127
-0.038324
-0.019654
0.059588
0.000863
-0.086981
-0.058813
0.008547
-0.028338
-0.065676
0.008600
-0.086636
-0.020375
0.012274
-0.053596
-0.067470
-0.103504
-0.105195
-0.084848
-0.096101
0.083416
0.164988
0.480887
0.760555
1.080188
1.321343
1.335605
1.163402
0.795492
0.430372
0.159062
-0.081680
-0.252812
-0.259440
-0.307973
-0.143842
-0.002352
-0.041222
-0.069187
-0.000086
0.044551
0.005721
-0.048626
-0.034388
0.063719
0.060165
0.109368
0.109349
0.080218
0.078289
0.109470
0.086595
0.159457
0.196461
0.156891
0.229824
0.181875
0.282850
0.178331
0.268652
0.283015
0.318319
0.290700
0.391267
0.361890
0.365460
0.303555
0.404893
0.345573
0.486085
0.519176
0.510898
0.390938
0.486956
0.448866
0.617151
0.474002
0.553281
0.498270
0.482684
0.452253
0.432090
0.427681
0.361021
0.486402
0.349901
0.392059
0.308104
0.289429
0.237792
0.223304
0.308750
0.306671
0.166220
0.252715
0.140467
0.120586
0.145195
0.118052
0.045271
0.127008
0.101322
0.116601
0.035581
0.034173
0.023513
0.033385
0.002272
0.033110
0.035680
-0.033603
0.017958
0.010908
-0.024959
-0.017040
-0.023048
0.018841
-0.045994
0.074863
-0.013546
-0.038571
-0.019361
0.011253
-0.037169
-0.005353
0.040823
0.042018
-0.021648
-0.070347
0.058466
0.000649
-0.059723
0.036480
0.015599
0.023542
0.056260
0.017427
0.034589
-0.018840
0.012168
-0.006369
-0.048113
-0.030214
-0.047293
0.009149
-0.006747
0.056808
-0.034978
-0.024152
0.077907
-0.063744
0.037830
-0.000137
0.012915
0.094783
0.009290
0.075212
0.039840
0.004252
0.020748
0.035519
-0.000098
0.070735
0.113011
0.049853
0.095434
0.089870
0.118941
0.038665
0.140880
0.096769
0.202998
0.053115
0.104662
0.180032
0.162682
0.201930
0.123167
0.132482
0.206797
0.120099
0.225735
0.118065
0.250491
0.163148
0.225768
0.138662
0.183053
0.174310
0.131489
0.106314
0.111769
0.141337
0.177353
0.136724
0.047501
0.092390
0.061441
0.035667
0.139826
0.059757
0.031837
0.052598
0.122455
0.012091
0.018795
0.062329
0.087243
0.052633
0.110694
0.073352
-0.003689
0.017100
-0.021110
0.033796
0.140362
0.306946
0.576590
0.881729
1.278910
1.426464
1.297195
1.206955
0.888044
0.526920
0.129770
-0.106581
-0.159496
-0.208495
-0.118237
-0.020976
-0.005492
0.020077
0.051802
0.017903
0.149858
0.117591
0.164740
0.157430
0.061088
0.086675
0.110349
0.138043
0.159186
0.150073
0.181132
0.215920
0.213561
0.235378
0.298545
0.266026
0.349632
0.300845
0.330480
0.335617
0.345415
0.368340
0.391929
0.343558
0.429813
0.437948
0.533448
0.498447
0.556385
0.568379
0.500229
0.559246
0.509182
0.563477
0.550393
0.567048
0.610437
0.571752
0.541723
0.569430
0.525589
0.515981
0.571051
0.434903
0.425374
0.437213
0.442698
0.365792
0.419326
0.344574
0.352155
0.317038
0.336871
0.352420
0.222746
0.263804
0.225851
0.210474
0.305724
0.092082
0.113002
0.168936
0.194252
0.058703
0.182499
0.144429
0.194473
0.031011
0.063616
0.113354
0.185836
0.063837
0.070337
0.069975
0.083233
0.105766
0.123544
0.048249
0.027031
0.052946
-0.051512
0.119721
0.056990
-0.012348
-0.031767
0.107888
0.072373
0.022867
0.047128
-0.000323
-0.007069
0.035939
0.014109
0.084010
0.107151
-0.006968
0.001323
0.122396
-0.036696
0.033937
0.065206
-0.025736
-0.010137
-0.037817
0.057605
0.080313
0.085727
0.004189
0.065232
0.057729
0.032102
0.029952
-0.018223
0.070768
0.043105
-0.025279
0.035223
0.054768
0.016500
0.097869
0.121255
0.058767
0.064415
0.120372
0.088457
0.042958
0.111551
0.092075
0.091768
0.065435
0.149339
0.123760
0.079091
0.136173
0.159246
0.091282
0.134108
0.161815
0.197563
0.078260
0.126355
0.202706
0.209956
0.189147
0.120487
0.192948
0.232535
0.191876
0.161777
0.146005
0.164764
0.150050
0.133256
0.055665
0.087502
0.079678
0.080297
0.078255
0.081377
-0.001991
0.037683
0.013076
0.058154
0.008644
-0.026240
-0.047042
0.044432
0.037001
-0.034196
0.175374
-0.028289
0.003351
-0.054583
-0.011881
0.073878
0.078456
0.341137
0.678907
0.963274
1.274281
1.396743
1.363818
1.067964
0.818868
0.360593
0.086238
-0.078253
-0.115889
-0.167825
-0.172700
-0.032078
-0.089901
0.003430
-0.016698
0.082000
0.048015
0.039673
0.029514
0.070730
0.103771
0.078242
0.107252
0.046056
0.138432
0.154389
0.192051
0.164168
0.163029
0.266394
0.235996
0.280013
0.217793
0.284255
0.358452
0.350257
0.244527
0.340133
0.351477
0.404039
0.378378
0.344242
0.367094
0.518272
0.525012
0.459226
0.462091
0.470439
0.493351
0.461614
0.521801
0.505652
0.477228
0.428623
0.411704
0.421164
0.449555
0.378104
0.388242
0.462725
0.414098
0.385716
0.314217
0.328653
0.275958
0.253093
0.289567
0.205230
0.183543
0.244105
0.233664
0.174881
0.135676
0.109585
0.116921
0.121542
0.034166
0.069763
0.064639
0.066321
-0.012640
0.039548
-0.034988
0.061296
-0.036912
-0.072956
0.007753
0.033025
-0.096393
-0.042106
0.022832
-0.044171
-0.008994
-0.051931
-0.078139
0.001082
-0.067494
-0.065060
0.038979
-0.042389
-0.006886
-0.053115
-0.037583
-0.145222
-0.030860
-0.107712
-0.087286
-0.143805
0.010494
-0.011595
-0.027312
0.006174
-0.020309
-0.060004
-0.084915
-0.108201
0.013091
-0.027501
0.034536
-0.115630
-0.037415
0.008971
-0.106171
-0.061178
-0.098429
0.006619
0.034625
-0.026357
-0.000345
-0.050154
-0.063162
-0.092938
-0.013281
-0.027690
-0.076477
-0.112603
-0.065577
0.042642
-0.030056
-0.050299
-0.044870
0.011254
-0.062868
-0.099447
0.059012
0.031459
0.050914
0.055192
0.122157
-0.039649
0.086435
0.068007
0.057399
0.083323
0.060658
0.073650
0.143847
0.143435
0.145209
0.109573
0.054270
0.084361
0.052149
0.016450
0.058757
0.053006
0.003542
0.002219
-0.032716
-0.017653
-0.000786
-0.040190
-0.018508
-0.073670
-0.022615
-0.092588
-0.088987
-0.103485
-0.042787
-0.099151
-0.050832
-0.078214
-0.095121
-0.067191
-0.147606
-0.054607
-0.053175
-0.173402
-0.075062
-0.155411
0.013552
0.107486
0.285889
0.537594
0.935467
1.133611
1.407381
1.167540
0.946032
0.649991
0.234314
-0.079129
-0.277252
-0.404287
-0.398745
-0.204634
-0.123876
-0.219986
-0.081209
-0.127179
-0.005793
-0.045458
-0.008160
-0.028725
-0.088371
0.045760
0.046370
0.036368
0.009272
-0.008890
0.072650
0.005664
0.056644
0.103031
0.090712
0.079499
0.093448
0.213152
0.128225
0.186486
0.283583
0.279919
0.257557
0.259172
0.266153
0.245607
0.351095
0.406414
0.429878
0.429972
0.397712
0.378140
0.359437
0.350479
0.394334
0.376609
0.339856
0.477210
0.396060
0.327742
0.337490
0.467603
0.411047
0.274972
0.268062
0.314600
0.257972
0.265062
0.243996
0.217357
0.215842
0.117719
0.115860
0.180913
0.138424
0.044372
0.130739
0.109649
-0.013629
0.041659
-0.011143
0.021986
-0.013338
0.017128
0.012123
-0.006011
-0.091180
-0.040334
-0.070464
-0.055150
-0.104666
0.003066
-0.122284
-0.031529
-0.110960
-0.105867
-0.150693
-0.066433
-0.113440
-0.119210
-0.179198
-0.065025
-0.093968
-0.092472
-0.172024
-0.158329
-0.018635
-0.047083
-0.146715
-0.129969
-0.104383
-0.067313
-0.109366
-0.012029
-0.163674
-0.114400
-0.149177
-0.068973
-0.015036
-0.134871
-0.099898
-0.119813
-0.036579
-0.150979
-0.034094
-0.068782
-0.088075
-0.092427
-0.055463
-0.101373
-0.070529
-0.084439
-0.089988
-0.137255
-0.125272
0.019198
-0.091735
-0.122376
-0.127897
-0.040239
0.007652
-0.024010
-0.023636
-0.015439
0.018795
-0.127825
-0.056261
-0.070235
0.041059
-0.007301
-0.030707
0.030821
0.018277
0.020816
0.000475
0.090190
0.087072
0.084859
-0.016787
0.100439
-0.009826
0.085748
0.074290
0.094342
0.119069
0.051223
0.181402
0.136026
0.028054
0.048381
0.127511
0.075042
0.033405
-0.105967
0.005139
-0.026239
0.040462
0.014684
0.027085
-0.009603
-0.063140
-0.019094
-0.047337
-0.092355
-0.024451
-0.061822
-0.055252
0.014992
-0.016998
0.017883
-0.079664
-0.028908
-0.020749
-0.069822
0.004561
0.030023
0.155527
0.402398
0.771826
1.065883
1.231120
1.370130
1.218516
0.945907
0.612625
0.232551
-0.080942
-0.197288
-0.270138
-0.185695
-0.203895
-0.118063
-0.010662
-0.008532
-0.011763
-0.040279
-0.006461
0.065036
-0.024761
0.081371
0.073510
0.090092
0.070156
0.126563
0.049978
0.065912
0.097867
0.197095
0.181921
0.182089
0.280169
0.190916
0.188505
0.282668
0.220559
0.351649
0.289125
0.350146
0.303998
0.427400
0.403157
0.425485
0.452538
0.504782
0.432433
0.494203
0.543650
0.431691
0.477680
0.481120
0.504872
0.511312
0.526083
0.502692
0.515280
0.505687
0.455946
0.490383
0.384958
0.481817
0.379039
0.315596
0.291378
0.377281
0.254289
0.270781
0.213839
0.314302
0.262286
0.243523
0.181966
0.167267
0.179130
0.163571
0.130777
0.170958
0.218392
0.128120
0.110021
0.068512
0.052383
0.143269
0.059050
0.068822
0.070280
0.060105
0.076076
0.139245
0.122497
0.046916
0.010272
-0.060074
0.046948
0.030031
-0.038125
0.000229
0.075687
-0.050286
0.050583
-0.000036
-0.054718
0.041192
-0.018807
0.029570
0.059061
0.057589
0.028780
-0.041171
0.039906
-0.066574
0.007790
0.066702
0.087146
0.025818
0.000047
0.041113
-0.022158
0.026135
0.024677
0.054009
0.062402
0.038725
0.001358
0.007969
0.034136
0.040780
0.056157
0.070442
0.098326
-0.054514
0.032096
-0.052423
0.056851
0.064725
0.033059
-0.002340
0.075668
0.054746
-0.004492
0.004437
0.126920
0.139324
0.021081
0.118563
0.181862
0.101990
0.076394
0.133249
0.103098
0.112852
0.186662
0.223278
0.221030
0.182820
0.211859
0.210514
0.221198
0.273839
0.184574
0.212737
0.177334
0.240994
0.193596
0.256565
0.189901
0.149916
0.217195
0.159060
0.152587
0.079974
0.177067
0.148229
0.091758
0.114164
0.111599
0.124905
0.156859
0.056927
0.073578
0.046399
0.002162
0.083279
0.094314
0.075170
0.020280
0.141812
0.110358
-0.019198
0.053130
0.088083
0.158277
0.356470
0.526685
0.795630
1.231482
1.354592
1.444127
1.249305
1.049790
0.561866
0.261885
-0.056044
-0.125585
-0.216288
-0.176376
-0.015146
0.047861
0.075051
0.024068
0.113009
0.147159
0.077231
0.165955
0.101220
0.146916
0.175235
0.054667
0.182465
0.163529
0.223459
0.191160
0.216301
0.246326
0.347205
0.301384
0.317957
0.275738
0.361247
0.368098
0.360783
0.434158
0.353862
0.377753
0.442428
0.454463
0.513901
0.549429
0.534551
0.535986
0.483283
0.574120
0.570763
0.643761
0.644363
0.531817
0.645274
0.598865
0.584156
0.547046
0.637320
0.527760
0.542393
0.412404
0.457678
0.505566
0.426709
0.478756
0.421118
0.380636
0.435854
0.340722
0.339550
0.347676
0.280030
0.309691
0.300746
0.307138
0.324911
0.256638
0.269688
0.166421
0.257761
0.208758
0.115732
0.059785
0.154361
0.170957
0.074043
0.160942
0.104981
