0.032679
-0.002688
-0.004072
0.048816
0.020590
-0.023514
0.091046
-0.035809
0.045169
-0.002659
0.016325
-0.004026
-0.035577
0.000307
-0.021115
0.032918
0.006886
0.074619
0.021303
0.021002
0.018754
0.001860
0.121953
0.050231
0.075559
0.061875
0.113114
0.154164
0.066916
0.171268
0.209881
0.117723
0.196377
0.221036
0.120862
0.131116
0.269796
0.221699
0.147414
0.124445
0.205886
0.200339
0.157186
0.202190
0.185366
0.171102
0.213347
0.150272
0.159450
0.195640
0.215986
0.115849
0.104299
0.110919
0.082915
0.162495
0.054565
0.051103
0.066768
0.070936
0.164580
0.063436
0.004202
0.099634
0.068019
0.088814
0.086457
0.025274
0.036248
0.038954
0.091843
0.082887
0.028758
0.011973
0.043311
0.004763
0.136717
0.121701
0.456269
0.635711
1.021952
1.268823
1.369035
1.337205
1.143717
0.820587
0.427954
0.205913
-0.097565
-0.245266
-0.149652
-0.111305
-0.046512
-0.008943
0.130388
0.003345
0.121180
0.105687
0.146184
0.153705
0.186409
0.148072
0.068728
0.123219
0.148109
0.141237
0.166173
0.176156
0.107876
0.215881
0.178022
0.221699
0.197964
0.168392
0.284526
0.297737
0.297087
0.335499
0.354061
0.363242
0.405898
0.498329
0.406847
0.436770
0.457824
0.475316
0.519057
0.534827
0.521953
0.563663
0.541219
0.494563
0.526229
0.662751
0.588324
0.577389
0.604265
0.528713
0.561421
0.573319
0.540670
0.489068
0.498097
0.509788
0.433626
0.391066
0.430977
0.412065
0.398915
0.435860
0.322997
0.342871
0.255428
0.284473
0.221050
0.339790
0.276179
0.268047
0.171813
0.167601
0.147469
0.205317
0.170025
0.134356
0.167702
0.091021
0.156184
0.173303
0.163782
0.039227
0.196710
0.120917
0.137452
0.071492
0.026816
0.066330
0.101290
0.145450
0.119373
0.104933
0.048808
0.045531
0.016134
0.077303
0.129659
0.046928
0.101952
-0.025275
0.028082
0.144892
0.045371
0.104770
0.154158
0.068629
0.068829
0.107442
0.079958
0.063312
0.122838
0.142970
0.072311
0.069216
0.068837
0.106912
0.061505
0.128453
0.106169
0.199769
0.020699
0.129483
0.100210
0.116482
0.048423
0.140723
0.122963
0.065263
0.041833
0.086808
0.093811
0.057214
0.101309
0.115403
0.023708
0.066218
0.117174
0.166430
0.160553
0.130221
0.167144
0.082481
0.148512
0.141394
0.113568
0.209801
0.187454
0.072195
0.149621
0.194526
0.258104
0.256228
0.225687
0.241939
0.236888
0.243775
0.239993
0.205249
0.271724
0.246880
0.270610
0.262696
0.240098
0.343382
0.225671
0.218667
0.256033
0.186625
0.213962
0.219000
0.097502
0.152798
0.197536
0.104554
0.074378
0.066419
0.171680
0.047413
0.122619
0.077633
0.056863
0.134913
0.106935
0.129165
0.063169
0.068088
0.115515
0.052618
0.106760
0.081491
0.081230
0.123716
0.093061
0.077069
0.144811
0.248962
0.532250
0.789038
1.095778
1.342290
1.348319
1.311139
1.002910
0.667777
0.255068
-0.045105
-0.141021
-0.109887
-0.071581
-0.084350
-0.005328
0.032274
-0.002561
0.081873
0.029386
0.138138
0.065223
0.055580
0.169540
0.094773
0.098741
0.079536
0.160948
0.177248
0.139052
0.187435
0.155908
0.127085
0.281793
0.245743
0.183766
0.228114
0.300934
0.297714
0.277077
0.370664
0.360801
0.364537
0.443692
0.369450
0.490454
0.366445
0.529818
0.546058
0.537316
0.505995
0.490942
0.513090
0.541954
0.516477
0.485566
0.500972
0.504278
0.525989
0.439317
0.539976
0.481002
0.464751
0.474327
0.383757
0.471949
0.435280
0.407368
0.458411
0.408784
0.351088
0.391138
0.310166
0.280954
0.314018
0.298029
0.237725
0.211898
0.211967
0.182475
0.162562
0.128167
0.064558
0.109004
0.149111
0.130750
0.126695
-0.012946
0.075947
0.095995
0.035533
0.066733
0.003856
0.032360
0.090943
0.008954
0.065715
0.067061
0.071773
0.092853
0.035296
0.090526
-0.009958
0.125817
-0.010970
0.004545
0.059630
-0.025036
-0.008347
0.131374
-0.037042
0.021709
0.099381
-0.079517
0.004050
-0.016191
0.087416
0.111706
0.100185
-0.052293
0.003698
-0.046251
-0.049726
-0.064389
0.064421
0.010693
0.057343
0.044615
-0.013865
-0.051055
0.029702
-0.003501
0.016336
-0.018055
-0.035250
0.092008
0.025919
-0.038178
0.076060
-0.057430
-0.046735
0.006296
-0.013482
-0.029557
-0.004241
0.035865
0.035427
-0.032596
-0.012624
0.051466
-0.017299
0.083998
0.023993
0.015309
0.026658
0.030405
-0.018556
0.063818
0.105641
0.168575
0.040689
0.124635
0.056319
0.166021
0.130192
0.193603
0.193693
0.143535
0.198654
0.128818
0.099330
0.210630
0.153170
0.222522
0.033959
0.111304
0.110218
0.055728
0.152966
0.094799
0.165561
0.094575
0.073199
0.069955
0.138742
0.008472
0.022011
-0.021966
0.011665
0.018057
-0.008516
-0.014488
-0.065425
0.020407
0.082692
0.040215
-0.025158
0.001106
-0.005217
-0.042843
-0.014974
-0.017942
-0.087177
-0.003911
0.012161
0.099989
0.274990
0.535372
0.807595
1.172957
1.287645
1.273238
1.092151
0.741343
0.307683
0.061377
-0.163471
-0.278758
-0.295159
-0.234956
-0.127925
-0.046672
-0.138707
0.002279
0.005644
0.017666
0.058842
-0.004260
0.046043
-0.016560
0.014635
0.026669
-0.024298
0.063826
0.109868
0.079540
0.033364
0.136618
0.092272
0.155862
0.180640
0.078116
0.174427
0.212059
0.180773
0.240146
0.232207
0.216024
0.287385
0.304287
0.329784
0.284023
0.368159
0.345646
0.382889
0.416792
0.420440
0.405908
0.457872
0.390092
0.406504
0.441793
0.411876
0.412601
0.445797
0.500828
0.454216
0.507717
0.418417
0.402425
0.327121
0.414135
0.271891
0.335835
0.353033
0.345178
0.266352
0.304412
0.175034
0.207901
0.247509
0.101403
0.188434
0.132530
0.170602
0.067237
0.068447
0.036733
0.085798
0.110747
-0.004436
0.042930
0.050992
-0.038414
0.000377
-0.005827
-0.013790
-0.054075
-0.022769
0.051733
-0.047463
-0.024865
0.012105
-0.135682
-0.007623
0.031384
-0.006628
-0.056344
-0.077791
-0.088765
-0.120653
-0.032271
-0.014309
-0.104840
-0.055761
0.060512
-0.030871
-0.070663
-0.076968
-0.090889
0.056742
-0.029241
-0.089950
-0.098601
-0.002293
-0.119067
-0.025139
0.049567
-0.065714
-0.110072
-0.014211
-0.043428
-0.043070
-0.023125
-0.036526
0.014295
-0.066099
-0.071915
-0.019930
-0.012747
-0.017529
0.009913
-0.114216
-0.043260
-0.100092
-0.048189
-0.076071
-0.064368
0.014999
-0.081522
0.022883
0.015050
-0.054021
0.040351
-0.025948
-0.038051
0.047092
-0.047782
0.001449
-0.022856
0.008502
0.037927
0.071670
0.036476
0.060477
0.082967
0.118158
0.125141
0.116865
0.124160
0.170730
0.136049
0.173314
0.189525
0.206454
0.125206
0.070814
0.080663
0.159843
0.126706
0.090693
0.102035
0.116638
0.128843
0.166457
0.133978
0.076970
0.096638
0.029548
0.059617
0.029445
0.038841
0.074314
0.027349
0.090595
-0.004820
0.008847
-0.037101
-0.006476
0.004990
0.006036
0.013482
0.021749
-0.034292
-0.028040
0.023176
-0.034629
-0.122983
-0.063047
-0.032673
0.029540
0.219815
0.546883
0.717938
1.035152
1.304524
1.348560
1.258189
0.968851
0.598924
0.182109
-0.108674
-0.213932
-0.203333
-0.213311
-0.110165
-0.019698
-0.039111
0.064148
0.071691
-0.073013
0.001768
-0.001470
0.033650
0.041958
0.149329
0.090713
0.081913
0.046471
0.093486
0.135253
0.126157
0.103837
0.103084
0.127303
0.245979
0.195244
0.205264
0.236841
0.240138
0.239408
0.291648
0.281403
0.329738
0.382815
0.354440
0.416114
0.533442
0.444512
0.425420
0.528590
0.434644
0.464176
0.518847
0.520078
0.519094
0.559510
0.414194
0.528225
0.543535
0.483182
0.470719
0.473951
0.476330
0.402829
0.442487
0.467536
0.461854
0.363240
0.405674
0.404132
0.216966
0.358293
0.331424
0.293984
0.262511
0.268472
0.255594
0.214974
0.248151
0.200300
0.163340
0.178532
0.123009
0.184589
0.165478
0.103327
0.129638
0.067263
0.082225
0.163629
0.033213
0.064208
0.035116
0.104332
0.055159
0.012291
0.124602
0.079274
0.093313
0.045649
0.090581
0.016553
0.091757
0.101789
0.011349
0.051629
0.023714
0.074810
0.032286
0.042482
0.049886
0.071328
-0.014140
0.065842
0.047573
0.032495
0.012038
-0.068969
-0.013353
0.016112
0.051425
0.024893
0.075388
-0.030587
0.080621
0.125759
0.076944
0.060538
0.108329
0.018346
-0.043560
0.075233
0.060551
0.090564
0.017468
0.092214
0.048967
0.048868
0.087580
0.088651
0.051852
0.066575
0.086552
0.000306
0.121585
0.039984
0.077699
0.102007
0.075804
0.122071
0.097916
0.129267
0.092711
0.100609
0.108708
0.160527
0.181873
0.144295
0.210929
0.144555
0.188487
0.202461
0.166731
0.140584
0.210813
0.147278
0.205581
0.316750
0.269797
0.240180
0.286684
0.272769
0.250195
0.266813
0.193353
0.252771
0.263672
0.138831
0.214940
0.172441
0.106678
0.161965
0.135932
0.191397
0.146404
0.146782
0.114354
0.085395
0.170343
0.034501
0.099599
0.117772
-0.013147
0.095184
0.062357
0.080022
0.098658
0.032752
0.082481
0.088592
0.112068
0.114371
0.028763
0.032864
0.093596
0.213526
0.403985
0.711512
1.070036
1.369587
1.500000
1.383449
1.147979
0.700130
0.429937
0.214080
-0.044208
-0.194188
-0.150584
-0.103844
-0.027009
-0.017817
0.056925
0.125055
0.113327
0.108936
0.138617
0.049055
0.163164
0.093928
0.160537
0.165063
0.183058
0.239934
0.228279
0.254828
0.223802
0.161833
0.280479
0.250589
0.194374
0.283641
0.342525
0.290534
0.283633
0.362829
0.367594
0.463314
0.470697
0.432112
0.503195
0.464195
0.517027
0.477027
0.493515
0.533736
0.630154
0.498118
0.557600
0.521625
0.578926
0.638297
0.593078
0.560476
0.615152
0.567898
0.571707
0.639408
0.567277
0.484241
0.502730
0.472633
0.487028
0.439157
0.405514
0.366256
0.416382
0.332267
0.309518
0.341051
0.291801
0.315038
0.211987
0.251558
0.227556
0.169627
0.156695
0.198626
0.148975
0.135050
0.165737
0.130154
0.200987
0.196099
0.127635
0.190110
0.073723
0.046170
0.118044
0.101241
0.108366
0.096617
0.155358
0.123785
0.119460
0.122306
-0.003535
0.104435
0.117062
0.054513
0.032561
0.072807
0.025406
0.140999
0.066819
0.087869
0.063719
0.080746
0.125897
0.087171
0.060725
-0.013459
0.040242
0.120111
0.139013
0.158562
-0.035702
0.078640
0.052315
0.076625
0.097207
0.030464
0.134788
0.069078
0.016332
0.094924
0.112264
0.044064
0.034813
0.029469
0.035220
0.060978
0.086494
0.080611
0.026282
0.106291
-0.011612
0.118206
0.049597
0.073638
0.149955
0.059567
0.020281
-0.052610
0.113316
0.192445
0.157886
0.095862
0.138956
0.042764
0.114455
0.076872
0.122399
0.141893
0.120530
0.172974
0.119680
0.226568
0.208141
0.182644
0.217743
0.162070
0.217670
0.303855
0.223033
0.221229
0.151829
0.258406
0.180551
0.274054
0.210218
0.242728
0.102812
0.153184
0.178002
0.076110
0.102349
0.139393
0.133448
0.128822
0.094521
0.042128
0.152750
0.120252
0.077578
0.082249
0.043915
0.130652
0.061933
0.011739
0.071293
-0.020788
0.040782
0.054888
0.037692
0.051744
0.065698
0.019373
-0.061793
-0.047119
0.119872
0.298801
0.480855
0.825215
1.195911
1.294482
1.319082
1.249470
0.960021
0.611953
0.257613
-0.035670
-0.190581
-0.224941
-0.168855
-0.098200
-0.043036
-0.005303
0.089158
0.044930
0.054010
0.048045
0.037773
0.010219
0.047709
-0.012578
0.109835
0.065588
0.124006
0.121082
0.094640
0.127878
0.125616
0.110127
0.209111
0.241662
0.181377
0.245931
0.287059
0.250069
0.248319
0.174846
0.354828
0.388106
0.369543
0.350097
0.432351
0.403563
0.402953
0.470577
0.461225
0.444936
0.495062
0.497794
0.447643
0.549342
0.549617
0.446527
0.461533
0.563876
0.541172
0.430492
0.445852
0.507858
0.417829
0.398467
0.291008
0.435903
0.352508
0.385852
0.407647
0.347364
0.291337
0.316550
0.275381
0.281565
0.135791
0.207369
0.123797
0.141315
0.129484
0.158704
0.056312
0.146420
0.055719
0.081672
0.037505
0.042987
0.014795
0.027739
-0.058500
0.025160
-0.023454
0.028906
-0.029438
0.022421
0.005774
-0.025239
-0.032424
-0.105640
-0.000429
-0.018428
-0.055867
0.007139
-0.039397
-0.014322
-0.014786
-0.065083
-0.071777
0.014402
0.015150
-0.048080
-0.043055
-0.057755
-0.069996
-0.055779
-0.094678
-0.090711
-0.088164
-0.030416
-0.052989
-0.146335
-0.042380
-0.074288
-0.067346
-0.117808
-0.012224
-0.027431
-0.003840
-0.132421
-0.034381
-0.072071
-0.084844
-0.061336
-0.047408
-0.046883
-0.034569
-0.047120
-0.077490
-0.071476
-0.063877
-0.146935
-0.064760
-0.028273
-0.010694
-0.016540
-0.046009
0.009097
0.008624
-0.001577
-0.080062
0.045494
-0.021055
0.001291
-0.074873
0.056088
0.066230
0.045825
0.046158
0.081034
-0.055211
0.064704
0.057617
0.083098
0.084906
0.142008
0.070425
0.190561
0.116803
0.079141
0.125956
0.137060
0.135656
-0.007505
0.169802
0.095655
0.062086
0.109893
0.095691
0.007019
0.047277
0.005121
0.061429
0.060746
0.004146
-0.040605
-0.019384
-0.092994
-0.067805
0.007988
-0.124325
-0.087532
-0.075245
0.001913
-0.115267
-0.119209
-0.044768
0.025810
-0.044734
-0.110132
-0.090646
-0.085102
-0.152292
-0.140974
-0.102416
-0.032505
0.050141
0.304201
0.572573
0.887344
1.234201
1.301669
1.182860
0.955573
0.685164
0.384186
-0.028887
-0.306176
-0.288831
-0.377599
-0.213970
-0.135360
-0.131396
-0.058648
-0.075555
-0.000594
-0.018415
-0.043782
0.030867
-0.053723
-0.015302
-0.004440
-0.057098
0.048643
0.082039
0.011695
0.006042
-0.055421
0.091365
0.048907
-0.027989
0.101427
0.093667
0.105837
0.184208
0.159150
0.221480
0.185679
0.287983
0.336139
0.277380
0.313786
0.317779
0.346224
0.344742
0.301308
0.313643
0.477579
0.429838
0.457029
0.381149
0.406595
0.492966
0.307418
0.439432
0.412796
0.392640
0.402911
0.410350
0.421257
0.341726
0.260601
0.327974
0.295924
0.296211
0.242389
0.242072
0.214902
0.216303
0.259604
0.131291
0.077343
0.176161
0.069760
0.086960
0.122130
0.000325
0.050066
0.083085
0.113032
0.028606
-0.066142
-0.005237
-0.087167
-0.074995
-0.096698
-0.060751
-0.000160
-0.030878
-0.093283
-0.029997
0.002827
-0.016093
-0.085653
-0.036903
-0.112548
-0.115609
-0.055989
-0.071657
0.041659
-0.063187
-0.084486
-0.011696
-0.047944
-0.139047
-0.045636
-0.035269
-0.056603
-0.054648
-0.080745
-0.052832
-0.056451
-0.059060
-0.040401
-0.111970
-0.041876
-0.081470
-0.048595
-0.035564
-0.092476
0.024423
-0.037206
-0.020356
0.006264
-0.000712
-0.046002
-0.027753
-0.032568
-0.061044
-0.039476
-0.063441
-0.028150
-0.031699
-0.039149
-0.051670
-0.028261
-0.033112
-0.007511
-0.010099
-0.060391
-0.050906
-0.093457
-0.102601
-0.069156
-0.033707
0.065126
-0.026542
-0.047906
-0.005540
-0.015261
-0.026947
0.011927
0.020070
0.052361
0.138388
-0.007010
0.026627
0.099567
0.040447
0.131210
0.079481
0.094383
0.077196
0.154585
0.148721
0.104311
0.096675
0.269244
0.059667
0.128233
0.148627
0.108511
0.078426
0.033398
0.056400
0.086176
0.011532
0.055627
0.109421
0.066715
-0.022704
0.022620
-0.002651
0.046902
-0.004673
0.113094
-0.046312
-0.055919
-0.064718
0.040895
-0.004815
-0.066230
-0.000154
-0.075768
-0.009286
-0.032339
0.022487
-0.041494
-0.064106
-0.047726
0.017540
0.137713
0.209454
0.426109
0.825203
1.138555
1.276372
1.330549
1.152046
0.874011
0.483586
0.186758
0.004508
-0.142889
-0.270043
-0.202184
-0.157766
-0.002486
-0.042225
-0.066265
-0.023745
0.009120
0.030971
0.016680
0.055585
0.067950
0.021284
0.160477
0.122403
0.063321
0.031635
0.089925
0.146841
0.156608
0.127262
0.140036
0.185127
0.142554
0.249712
0.247926
0.232551
0.244931
0.292907
0.324919
0.370973
0.352258
0.403953
0.314261
0.384048
0.315496
0.393171
0.415069
0.555303
0.408051
0.525030
0.563462
0.498105
0.485641
0.482290
0.599914
0.518423
0.515827
0.482411
0.531842
0.516616
0.479761
0.519331
0.390006
0.428792
0.452139
0.403999
0.292796
0.351713
0.298670
0.318839
0.211999
0.250906
0.287566
0.308793
0.206219
0.156528
0.193085
0.160452
0.102107
0.057535
0.148648
0.132004
0.122573
0.114430
0.003418
0.003279
0.073306
0.125728
0.007737
0.101605
0.103104
0.129770
0.052696
0.010328
0.054235
0.044957
0.078163
0.019072
-0.027902
-0.008223
0.026292
0.052080
-0.077909
0.041472
0.016063
0.015165
-0.017790
0.060558
0.044873
-0.008617
0.063009
0.016357
0.166407
0.049486
0.002764
0.046300
0.025430
0.109440
-0.012290
-0.037197
-0.050883
0.033298
-0.010446
0.069919
0.086308
0.050154
-0.042321
0.014468
-0.003769
-0.060000
0.105730
0.072854
0.062082
0.002241
0.114114
0.029643
0.037441
0.057162
-0.016324
0.026097
0.078574
0.043964
0.031198
0.045181
0.073073
0.094150
0.051965
0.067716
0.097375
0.053898
0.126288
0.127338
0.088711
0.112192
0.155968
0.159447
0.148992
0.182892
0.219131
0.230462
0.204069
0.176535
0.206906
0.117823
0.267320
0.180761
0.241291
0.159042
0.173447
0.221807
0.285359
0.251673
0.163276
0.136603
0.187031
0.157910
0.145732
0.159554
0.051060
0.139950
0.133111
0.169143
0.127381
0.131759
0.064301
0.132023
0.046400
0.093436
0.076200
0.072959
0.111974
0.044967
0.023121
0.058039
0.075539
0.003507
0.088377
-0.012782
0.033670
0.105561
0.031314
0.015856
0.233663
0.497642
0.661523
1.019510
1.335257
1.422474
1.237743
1.099554
0.772218
0.434516
0.143847
-0.102561
-0.186919
-0.246708
-0.136921
-0.006853
-0.006158
0.065242
0.120908
0.108796
0.091006
0.153737
-0.010300
0.040378
0.096148
0.145780
0.030082
0.161848
0.080259
0.154253
0.087553
0.156438
0.193929
0.150525
0.169575
0.194379
0.246749
0.264529
0.247806
0.293966
0.335684
0.416569
0.395162
0.412434
0.446227
0.421798
0.405721
0.469903
0.417749
0.429779
0.630092
0.445595
0.541584
0.522840
0.585100
0.450695
0.519326
0.541953
0.436334
0.463055
0.447544
0.649089
0.480444
0.532429
0.468816
0.357074
0.448559
0.409498
0.373145
0.285706
0.421730
0.329822
0.276519
0.269280
0.232665
0.312639
0.303516
0.255869
0.266474
0.145010
0.168084
0.115336
0.092548
0.157256
0.148558
0.204232
0.083798
0.010137
0.108782
0.070838
0.030489
0.012189
0.056977
0.050112
0.075611
-0.043442
0.046617
0.028592
-0.041063
0.003176
0.066326
-0.001462
0.030678
0.027673
0.040255
-0.006229
-0.005326
0.046619
0.040951
-0.013510
-0.018457
0.085924
0.042054
-0.012660
-0.035162
-0.008935
-0.031422
0.003391
0.030389
0.033474
0.003637
0.074814
0.076872
0.017347
0.027425
-0.037533
0.056061
0.004000
0.021948
0.092059
-0.061888
0.069292
0.001450
-0.043894
0.056810
0.015565
-0.033655
0.062361
-0.017272
-0.000866
0.006335
-0.110914
0.063872
0.010597
-0.005878
0.029094
0.005801
0.023458
0.050599
-0.057016
-0.008681
0.000347
0.018579
0.061947
0.024764
0.071081
0.081126
0.065871
0.001074
0.023674
0.125589
0.171112
0.168499
0.089076
0.111284
0.262934
0.141132
0.162935
0.229131
0.117051
0.148471
0.083945
0.085250
0.153494
0.118322
0.118069
0.153149
0.110540
0.109633
0.130822
-0.026057
0.017246
0.012816
0.090038
0.065718
0.039283
0.035406
0.024598
0.017203
-0.004385
-0.003166
-0.062206
-0.010808
-0.012721
-0.077456
-0.055522
-0.032590
-0.026014
-0.043950
-0.077207
-0.078015
-0.056446
-0.090522
-0.086769
-0.115865
0.015332
0.175206
0.436782
0.707923
1.141117
1.347657
1.346967
1.131355
0.820177
0.443295
0.218693
-0.075524
-0.241936
-0.340164
-0.264657
-0.178385
-0.120111
-0.038859
-0.060221
-0.039256
-0.021100
-0.019676
-0.019072
-0.036305
-0.102956
-0.006952
0.010811
-0.034203
-0.045775
0.064566
0.058399
0.053716
0.051133
0.072834
0.065735
0.131662
0.145839
0.126256
0.214451
0.165604
0.229320
0.254047
0.280767
0.263087
0.268388
0.332868
0.312468
0.347006
0.313511
0.319360
0.354262
0.383781
0.433124
0.368609
0.415431
0.428570
0.402703
0.419537
0.502826
0.364157
0.329998
0.428723
0.461503
0.430416
0.435010
0.311506
0.313453
0.255111
0.332209
0.233036
0.211893
0.232671
0.179959
0.242859
0.205400
0.135501
0.153737
0.147963
0.132484
0.059391
0.083276
0.116471
0.019334
-0.042103
-0.033226
-0.014546
-0.006354
-0.035011
-0.043251
-0.022752
-0.043585
-0.006171
-0.044411
0.007973
-0.055698
-0.080324
-0.055776
0.027655
-0.080615
-0.039529
-0.038899
-0.096018
-0.087758
-0.097030
-0.066998
-0.162046
-0.103840
-0.085473
-0.085186
-0.077973
-0.069527
-0.068311
-0.093581
-0.169114
-0.099083
-0.089071
-0.106970
-0.120895
-0.117992
-0.086068
-0.004329
-0.117442
-0.057796
-0.085034
-0.145052
-0.142022
-0.086636
-0.061047
-0.077539
-0.154267
-0.090000
-0.056861
-0.053421
-0.067222
-0.119435
-0.081594
-0.093225
-0.174794
-0.050202
-0.092704
-0.115558
-0.079710
-0.105072
-0.095571
-0.099685
-0.113979
-0.058792
-0.072513
-0.075512
-0.059441
-0.074081
-0.025150
-0.098950
-0.052828
-0.001477
-0.113890
-0.034466
-0.112322
-0.065406
-0.005551
0.031781
0.053462
-0.015166
0.105565
0.065674
0.085842
0.144255
0.109452
0.104188
0.064712
0.096825
0.095682
0.122059
0.032122
-0.020185
0.047771
0.028965
0.039500
0.009415
-0.073073
0.034000
-0.031964
0.001469
-0.001314
0.034199
0.045792
-0.072556
-0.081049
-0.062915
-0.054667
-0.055707
0.029769
-0.112753
-0.078166
-0.111960
-0.132453
-0.114244
-0.054076
-0.102427
-0.048904
-0.098562
-0.045368
-0.137375
-0.081008
-0.127705
-0.110696
0.144007
0.261033
0.635610
0.864652
1.126677
1.303850
1.165322
0.899342
0.581885
0.242250
-0.042695
-0.260105
-0.297335
-0.368357
-0.318804
-0.238146
-0.146174
-0.090461
-0.062772
-0.138732
-0.044656
-0.043541
-0.010660
-0.025715
-0.005412
-0.036900
-0.049302
-0.012667
0.022032
0.017645
0.000030
0.058538
0.082956
0.023180
0.109697
0.173942
0.199728
0.165405
0.118673
0.148255
0.226516
0.275115
0.253128
0.278872
0.199409
0.270669
0.252442
0.347321
0.353322
0.402850
0.377156
0.416333
0.421441
0.362521
0.428289
0.438117
0.469033
0.424345
0.400720
0.425175
0.399905
0.438222
0.364960
0.362325
0.407539
0.394593
0.352340
0.306836
0.284720
0.281046
0.359972
0.215038
0.232555
0.185142
0.230099
0.165108
0.111700
0.139494
0.080690
0.108408
0.139317
0.159437
0.043249
0.032684
0.058819
0.044488
-0.008511
0.002730
0.054777
0.054412
-0.048396
0.019356
0.048439
-0.038386
-0.018341
-0.010051
-0.092920
-0.024967
-0.063658
-0.048153
-0.067304
-0.054235
-0.006216
-0.044744
-0.017164
0.018350
-0.013554
-0.084969
0.047424
0.017722
0.042479
0.046866
-0.024278
0.006772
0.030635
0.028839
0.007762
-0.080429
0.028315
0.002867
-0.031380
-0.093440
-0.125978
-0.004416
-0.015047
-0.052914
-0.006671
-0.014561
-0.013368
0.029336
0.020438
-0.022254
-0.073966
-0.127323
-0.083093
0.040157
-0.047225
-0.028627
-0.047815
-0.031724
-0.011376
0.023678
0.014504
-0.010117
-0.107360
0.006583
-0.016781
-0.030338
0.023451
0.005125
-0.059715
0.009924
0.054152
0.037294
0.074464
0.023036
0.024505
0.031537
0.116484
0.060594
0.202334
0.100102
0.101086
0.075710
0.140079
0.218949
0.182336
0.102601
0.201338
0.243855
0.304844
0.209253
0.171850
0.133472
0.195557
0.197109
0.162590
0.159613
0.185119
0.111129
0.137403
0.048599
0.101574
0.061182
0.090574
0.080954
0.129146
0.073393
-0.002115
0.044120
0.079449
0.019990
0.075327
0.019318
-0.005651
-0.017176
-0.043739
-0.016407
0.017635
-0.006335
0.039065
0.006473
0.036554
0.007098
-0.000651
0.133278
0.331478
0.546859
0.862186
1.212143
1.314428
1.344905
1.168502
0.939610
0.527026
0.153221
-0.004193
-0.120347
-0.253931
-0.140939
-0.078381
-0.045566
0.004902
0.067950
0.129540
0.050319
0.159334
0.088551
0.098278
-0.012975
0.024973
0.138180
0.106920
0.134591
0.117969
0.112419
0.130361
0.189498
0.135286
0.252079
0.272600
0.208932
0.370778
0.253295
0.252876
0.241560
0.320689
0.320791
0.336535
0.354321
0.432244
0.468555
0.476854
0.487189
0.568815
0.520732
0.406680
0.513971
0.449553
0.563171
0.541907
0.504196
0.575135
0.592425
0.629417
0.494250
0.490935
0.492742
0.550449
0.500797
0.530622
0.458274
0.432733
0.402672
0.421745
0.383937
0.417156
0.372952
0.356218
0.269466
0.362109
0.275363
0.248904
0.219447
0.253447
0.250168
0.237878
0.221356
0.162547
0.132847
0.106886
0.153860
0.094128
0.077529
0.099779
0.074683
0.082394
0.039648
0.120322
0.117233
0.119183
0.147283
0.139600
0.076262
0.104351
0.071256
0.124457
0.024886
-0.064806
0.051238
0.109317
0.142159
0.077219
0.090538
0.005607
0.061933
0.091627
0.087785
0.077623
0.038019
0.082411
0.098917
-0.048873
0.073362
0.060215
0.078313
0.146155
0.120406
-0.004915
0.094455
0.047048
0.062209
0.021015
0.028203
0.047151
0.113663
0.139439
0.015697
0.056169
0.043513
0.018518
0.061590
0.041305
0.055158
0.086619
0.033534
0.057175
0.050968
0.037428
0.102666
0.081909
0.035306
0.086772
0.148471
0.144043
0.082680
0.092198
0.027434
0.088600
0.092789
0.176234
0.170383
0.136556
0.171383
0.166886
0.146629
0.202554
0.258902
