0.046042
0.039191
-0.051469
0.034602
-0.007362
-0.007837
0.006853
-0.010292
-0.038597
-0.021647
-0.003343
0.007954
0.061609
-0.031412
0.052819
-0.090101
-0.037224
-0.008686
-0.066067
0.082207
0.043174
-0.059019
0.020230
0.030807
0.030465
0.002773
0.084733
0.009463
0.050650
0.071389
0.016615
0.030051
0.168583
0.095494
0.119168
0.168647
0.185466
0.081171
0.136195
0.179873
0.182740
0.202977
0.214867
0.177527
0.186903
0.222548
0.159615
0.244827
0.209061
0.266368
0.196853
0.145852
0.193889
0.243654
0.149587
0.155993
0.157510
0.138007
0.091751
0.163611
0.083685
0.044990
0.098444
0.158853
0.044810
0.063132
0.071725
0.064221
0.123025
0.029791
-0.017326
0.043547
0.126085
0.037416
0.081999
0.023235
0.044332
0.093062
0.063393
0.100173
0.027469
-0.004877
0.058328
-0.008304
0.080971
0.039593
0.039948
-0.009337
0.014113
0.078965
0.244929
0.353825
0.702164
1.105959
1.250591
1.469034
1.407941
1.279384
0.883515
0.626050
0.277119
-0.017899
-0.185949
-0.206378
-0.276262
-0.160720
0.017534
0.081941
0.096444
0.037658
0.059596
0.124291
0.121175
0.086646
0.057736
0.129435
0.029959
0.061313
0.080755
0.164805
0.108755
0.040074
0.082769
0.160744
0.052556
0.177243
0.076595
0.121025
0.206154
0.155913
0.212630
0.222012
0.221829
0.253870
0.340286
0.275811
0.323563
0.254148
0.358574
0.394061
0.386556
0.366340
0.479617
0.393256
0.459698
0.417865
0.522535
0.511573
0.575119
0.555615
0.663427
0.485096
0.640359
0.581110
0.614239
0.576755
0.544269
0.601127
0.624147
0.494646
0.628998
0.585660
0.433896
0.485945
0.556274
0.438729
0.519856
0.468727
0.423143
0.433995
0.407674
0.371469
0.353489
0.285699
0.355702
0.357545
0.259218
0.290300
0.206468
0.196160
0.191589
0.206151
0.159964
0.170693
0.193129
0.133343
0.075340
0.185629
0.129522
0.135706
0.114261
0.097289
0.127461
0.100128
0.087239
0.150665
0.114030
0.126479
0.127415
0.089041
0.132125
0.159152
0.056995
0.106347
0.075404
0.032179
0.061160
0.082034
0.070533
0.036321
0.112348
0.086556
0.086284
0.091808
0.096945
0.086238
0.150090
0.127244
0.077368
0.116946
0.050737
0.047507
0.137948
0.082220
0.032672
0.165108
0.015946
0.133175
0.079443
0.102840
0.118426
0.094433
0.060882
0.117519
0.154696
0.094087
0.055899
0.022052
0.099355
0.114437
0.054987
0.072793
0.034263
0.160983
0.071795
0.038460
0.063914
0.064393
0.036866
0.069470
0.093489
0.113222
0.050869
0.091727
0.181764
0.028570
-0.016863
0.063247
0.087325
0.049787
0.085250
0.050861
0.080029
0.143267
0.099846
0.120554
0.201360
0.110186
0.085703
0.217688
0.152384
0.079940
0.175114
0.132144
0.160994
0.151125
0.152064
0.241111
0.167847
0.192961
0.217259
0.245951
0.183630
0.190639
0.220133
0.291283
0.270825
0.266217
0.241932
0.275057
0.196045
0.281853
0.342570
0.253876
0.122986
0.119294
0.184418
0.146733
0.095617
0.110441
0.113678
0.062944
0.215693
0.158744
0.033437
0.063386
0.095072
-0.014962
-0.014768
0.037817
0.119623
-0.019557
0.089964
0.089564
0.051067
0.066336
0.010893
0.117465
0.015793
0.064268
0.023143
0.011151
0.083303
0.112887
0.065880
0.041639
0.016820
0.054530
0.193493
0.380558
0.689212
0.995046
1.294930
1.420895
1.382558
1.334948
1.053453
0.602638
0.304270
-0.008005
-0.168815
-0.197840
-0.224842
-0.247907
-0.057878
-0.017768
0.110430
0.098392
0.039207
0.133016
0.081020
0.072908
0.019770
-0.030015
0.027182
0.065628
0.075658
-0.018758
0.212221
0.031965
0.177095
0.119729
0.058236
0.014593
0.151200
0.154569
0.126600
0.062174
0.218478
0.138058
0.205919
0.221224
0.202466
0.277569
0.305994
0.172537
0.333553
0.334765
0.369111
0.371789
0.453771
0.412439
0.428942
0.416806
0.471057
0.462256
0.460063
0.470760
0.445017
0.523653
0.558917
0.555463
0.509938
0.494182
0.541276
0.510801
0.569799
0.538755
0.512423
0.460496
0.464593
0.370129
0.511066
0.472152
0.370772
0.403779
0.388397
0.350506
0.315335
0.290345
0.244942
0.236668
0.209735
0.290335
0.259354
0.171302
0.166019
0.182866
0.154543
0.064628
0.111140
0.096004
0.105293
0.092348
0.028612
0.007903
0.064428
0.021809
0.022367
0.006230
0.072927
0.069736
0.044919
-0.026474
-0.046272
0.023651
0.016923
0.028800
-0.011038
-0.019632
0.008118
-0.017301
0.050407
0.012445
-0.088563
0.030886
0.019586
-0.061444
0.038475
-0.105484
0.035038
0.003651
-0.020507
-0.058507
-0.074801
-0.009090
0.032940
-0.029581
0.008067
-0.039893
0.042290
-0.103973
-0.019570
0.055888
-0.024472
-0.025028
-0.010834
0.004938
0.001257
0.021708
-0.051418
0.004998
-0.115610
-0.006984
-0.004602
0.078595
-0.000787
-0.073956
-0.009324
-0.071018
-0.073375
-0.041459
-0.054609
-0.083040
-0.084972
-0.041060
0.008142
-0.068046
-0.050684
-0.006245
0.017818
-0.032876
0.012144
-0.075413
0.005259
-0.025206
-0.016495
-0.055634
0.067578
0.012477
-0.016519
-0.059410
-0.055198
-0.010787
-0.064084
0.005587
-0.005554
-0.012412
0.031515
0.045952
-0.051191
-0.015315
0.076729
0.099496
0.086830
0.078660
0.048658
0.114341
0.170363
0.080607
0.156018
0.167550
0.111389
0.215887
0.122579
0.138238
0.227469
0.098903
0.120433
0.063159
0.109075
0.114248
0.056631
0.142118
0.083568
0.091291
0.064984
0.031866
0.000618
0.049049
-0.036123
0.039788
0.027476
0.006365
-0.057003
-0.022184
-0.098861
-0.095537
-0.076316
-0.081320
-0.071342
-0.073883
-0.042215
-0.040983
-0.076434
0.006224
-0.016442
-0.071068
-0.099292
-0.027518
-0.039325
-0.103027
-0.103028
-0.144369
-0.152274
-0.061859
0.018127
0.197816
0.517856
0.873060
1.115527
1.394254
1.345625
1.251189
0.866079
0.623113
0.180761
-0.102468
-0.295902
-0.404293
-0.404354
-0.260481
-0.108498
-0.121765
-0.045008
0.027967
-0.003814
-0.051532
-0.066650
-0.030361
-0.069779
-0.124096
0.046703
-0.074718
-0.074433
-0.038260
-0.065164
-0.019832
-0.011817
-0.019113
0.095170
-0.013641
-0.034669
0.044386
0.156971
0.069198
0.083623
0.118454
0.151762
0.098175
0.159345
0.125830
0.194517
0.159042
0.299851
0.297836
0.305324
0.233580
0.322173
0.345213
0.341579
0.297339
0.454518
0.373294
0.444347
0.465752
0.399107
0.481566
0.454706
0.441754
0.496954
0.468883
0.495015
0.484009
0.414112
0.460604
0.431809
0.370920
0.357259
0.413136
0.445716
0.415015
0.401697
0.424563
0.321759
0.335741
0.263383
0.242209
0.250903
0.197212
0.210178
0.132724
0.215637
0.045258
0.149224
0.117040
0.106492
0.095127
0.095971
0.049515
0.050765
0.043367
0.028011
0.050708
0.000261
0.033434
0.014493
-0.023511
-0.007742
-0.050950
-0.115025
0.023706
0.108786
0.004724
-0.062078
0.016781
0.007493
-0.039807
-0.033432
-0.007949
-0.003069
-0.018056
0.010985
-0.070906
-0.015113
0.115614
-0.016012
-0.009900
0.009833
0.040648
-0.028274
-0.060323
0.017355
-0.067997
0.071467
0.009109
-0.025624
0.107362
0.060647
0.024278
0.052471
-0.080595
0.089086
0.064119
-0.042544
0.012084
-0.052400
0.022112
0.024159
-0.120377
0.032465
0.024367
-0.015079
0.009432
0.004191
0.057706
-0.002267
-0.004533
0.032301
-0.033121
0.073186
0.101809
0.018446
0.040488
0.083310
-0.004182
0.064222
-0.019729
0.012525
-0.038153
-0.026997
0.015509
-0.049634
0.045622
-0.014359
0.102471
0.101086
0.008624
0.048693
0.018945
0.037130
0.009793
0.036422
0.017425
-0.048908
0.048058
0.000947
0.021475
0.075541
0.075308
0.113857
0.098223
0.093203
0.107105
0.227234
0.172904
0.119239
0.170325
0.223359
0.112409
0.161251
0.307072
0.306746
0.217371
0.196525
0.223731
0.220329
0.144157
0.212173
0.215602
0.119876
0.100849
0.173665
0.162352
0.090518
0.108154
0.127872
0.101634
0.118602
0.101361
0.057538
-0.009620
0.102992
0.027856
0.027681
0.007545
-0.003409
0.011191
0.017033
0.094779
0.014857
0.088567
0.033374
0.021002
-0.007603
0.090067
0.087286
0.020248
0.089708
0.048067
0.058228
-0.044998
0.052209
0.066598
0.185418
0.388862
0.701346
0.880462
1.184444
1.355507
1.454926
1.206764
0.988082
0.694866
0.362752
0.039703
-0.064776
-0.265129
-0.163043
-0.115868
-0.076992
0.021728
0.013621
0.019044
0.033623
0.099354
0.065527
0.112909
0.009001
0.104124
0.113648
0.079298
0.128579
0.072249
0.154198
0.125960
0.121920
0.089906
0.186480
0.230206
0.095058
0.187373
0.117563
0.194646
0.191293
0.213609
0.179377
0.300340
0.253991
0.314723
0.321741
0.263474
0.377512
0.346414
0.367482
0.421971
0.481949
0.456187
0.485188
0.411385
0.499574
0.582143
0.628659
0.535381
0.520961
0.620054
0.562095
0.617552
0.571142
0.573385
0.585837
0.671713
0.597318
0.554057
0.505755
0.557416
0.544262
0.468384
0.457101
0.433552
0.447194
0.365902
0.462409
0.409537
0.319692
0.379671
0.326903
0.367182
0.302020
0.353699
0.287867
0.261692
0.250195
0.210558
0.178343
0.220372
0.181260
0.124280
0.165812
0.175845
0.113908
0.094325
0.122948
0.129914
0.118952
0.127930
0.083034
0.117150
0.176470
0.167494
0.131749
0.093369
0.169232
0.061644
0.096416
0.065412
0.016072
0.083110
0.109521
0.032564
0.131259
0.074518
0.077824
0.042124
0.154793
0.146882
0.047803
0.039951
0.129187
0.102815
0.051817
0.041869
0.120989
0.112366
0.114938
0.112617
0.154368
0.088565
0.087199
0.110924
0.047854
0.004030
0.176237
0.152548
0.092779
0.080018
0.053639
0.074881
0.086689
0.104284
0.049832
0.079838
0.082694
0.124746
0.024539
0.079474
0.123083
0.076647
0.041380
0.072692
0.095982
0.139667
0.097002
0.018871
0.042544
0.074816
0.088143
0.018991
0.063375
0.098260
0.111286
0.153573
0.053239
0.157928
0.165296
0.028770
0.110732
0.055760
0.108341
0.053857
0.095986
0.114501
0.153244
0.166542
0.121156
0.167376
0.146775
0.165692
0.147435
0.248982
0.222534
0.236282
0.180281
0.190989
0.247421
0.266941
0.218468
0.222606
0.303021
0.278013
0.257386
0.243810
0.315006
0.201575
0.156207
0.257380
0.214722
0.195303
0.235433
0.133838
0.200127
0.226847
0.177184
0.172924
0.097170
0.098531
0.112568
0.199698
0.107078
0.104590
0.158879
0.180941
0.068293
0.111107
0.144855
0.182279
0.056827
0.092986
0.018988
0.022025
0.108148
0.036732
0.126438
0.112010
0.082343
0.092903
0.100314
0.074764
0.041731
0.050150
-0.004733
-0.040249
0.031575
0.305571
0.486303
0.937637
1.246635
1.373673
1.381385
1.369621
1.003894
0.735590
0.402898
0.025562
-0.120071
-0.213785
-0.274520
-0.142570
-0.037701
-0.000172
0.031416
0.063341
0.060328
0.052722
0.170609
0.031484
0.076953
0.042955
0.111480
0.004035
0.066034
0.049402
0.050107
0.140783
0.109818
0.073117
0.089814
0.058225
0.072155
0.097368
0.063633
0.107174
0.210569
0.160460
0.195474
0.268777
0.268312
0.257165
0.294586
0.300391
0.327395
0.366904
0.384767
0.408190
0.354416
0.470967
0.369070
0.420232
0.438105
0.535303
0.566907
0.422890
0.504424
0.569861
0.538499
0.594277
0.564411
0.537211
0.568172
0.575825
0.557797
0.532463
0.472556
0.534558
0.461163
0.478231
0.507937
0.426712
0.344322
0.311215
0.335448
0.346126
0.374448
0.316039
0.296062
0.215907
0.236145
0.228037
0.258332
0.226318
0.123850
0.105631
0.191013
0.126467
0.158103
0.066707
0.076854
0.072734
0.062641
0.038134
0.087304
0.032551
0.053542
-0.022455
0.000597
0.075211
-0.043861
0.061921
-0.027827
0.042135
0.074278
-0.019531
0.025052
0.034444
-0.044064
-0.023421
-0.045769
-0.097959
0.064894
-0.087509
0.058158
0.065431
-0.028717
0.025364
-0.041874
-0.037947
0.015639
0.061084
0.039551
-0.006998
0.012320
-0.018383
-0.073913
-0.016311
0.016981
-0.000904
-0.058205
-0.019370
-0.082500
-0.025356
0.015545
-0.007124
-0.060640
-0.016497
-0.082612
0.032320
-0.079612
0.069456
-0.024400
-0.079850
-0.056275
0.030382
-0.085633
-0.047601
0.003225
0.033589
-0.040104
0.007957
-0.103846
0.008509
0.042504
-0.031755
-0.023818
-0.047691
-0.030660
-0.082982
-0.128351
-0.057045
0.004109
-0.110458
0.008794
-0.130264
-0.012395
-0.038735
-0.112500
-0.044819
0.021080
-0.071402
-0.064008
-0.043024
0.014686
-0.002378
0.053716
0.008122
0.060426
-0.003016
0.049470
0.097278
0.072075
0.061904
0.006215
0.108491
0.154896
0.089188
0.095149
0.106543
0.152250
0.199789
0.121084
0.105547
0.143839
0.194143
0.135742
0.084570
0.140724
0.046046
0.083600
0.053785
0.090232
0.046481
0.040160
0.016424
-0.014537
-0.043489
0.131464
-0.022392
-0.036217
0.049174
-0.028204
0.054543
-0.118522
-0.080643
-0.041278
-0.094608
-0.013845
-0.099492
-0.050654
-0.029793
-0.080470
-0.054135
-0.098018
-0.010118
-0.096321
-0.065439
-0.078007
-0.080652
-0.156959
-0.086586
-0.101831
-0.139568
-0.037826
0.194337
0.434311
0.765017
1.027880
1.193508
1.357509
1.242342
0.993908
0.663185
0.286472
-0.072941
-0.386809
-0.363028
-0.372846
-0.337451
-0.227325
-0.263574
-0.159905
-0.061022
-0.105891
-0.060282
-0.075833
-0.099891
-0.085107
-0.037699
-0.132796
-0.019392
-0.064439
-0.062505
-0.038288
-0.095242
0.037063
-0.019419
-0.044463
0.043058
-0.032052
0.069133
0.044685
0.031913
0.020468
0.088853
0.049653
0.044584
0.148286
0.081769
0.087215
0.231822
0.145588
0.160479
0.203199
0.219512
0.259354
0.338373
0.314312
0.329673
0.348121
0.353401
0.339394
0.381799
0.397032
0.460257
0.497532
0.547661
0.377086
0.473304
0.481194
0.421993
0.445834
0.486751
0.396604
0.315690
0.345081
0.394450
0.331524
0.356203
0.402667
0.349154
0.268135
0.222444
0.333669
0.198598
0.261512
0.064224
0.151838
0.142395
0.096845
0.062446
0.066574
0.070408
0.055563
0.092268
0.037873
0.118087
0.086813
-0.059926
0.001326
-0.113828
-0.047251
-0.037516
-0.035884
-0.043405
-0.134429
0.019677
-0.070812
-0.016733
-0.057819
-0.005160
-0.076429
-0.062220
-0.088031
-0.066513
-0.041383
-0.045264
-0.037606
-0.047913
-0.075510
-0.094685
-0.106514
-0.097291
-0.083876
-0.007774
-0.048282
0.019025
-0.121508
-0.109603
-0.048868
-0.118739
-0.102114
-0.032695
-0.012942
0.034847
-0.100030
0.013876
-0.058303
-0.085524
-0.067254
-0.095470
-0.091404
-0.023899
-0.046289
-0.035710
-0.064068
-0.098514
-0.062749
-0.119569
-0.127858
-0.048876
-0.046049
-0.049018
-0.090046
-0.097065
-0.104056
-0.188321
-0.094189
-0.003829
-0.056914
-0.065303
-0.026985
-0.083613
-0.101224
0.002108
-0.047532
-0.012293
-0.035817
-0.114295
0.040304
0.003728
0.007725
-0.024674
-0.067527
-0.031179
-0.127178
-0.085393
-0.055591
0.053564
0.015449
-0.050611
-0.021862
-0.094243
-0.012929
-0.002179
0.077322
0.049159
0.005100
0.069219
-0.028892
0.111791
0.123088
0.088435
0.078962
0.096784
0.124740
0.169882
0.093754
0.100006
0.126677
0.142289
0.173234
0.088508
0.122799
0.132262
0.140960
0.094752
0.058937
0.071526
0.080413
0.127699
0.023011
0.088751
0.033584
0.106794
0.115499
-0.015314
-0.014354
-0.055916
-0.020762
-0.031714
-0.043798
-0.085658
-0.048823
-0.064693
-0.036694
-0.051280
0.034783
-0.143653
0.008006
-0.059016
-0.001094
-0.074448
-0.020061
-0.000746
0.020495
-0.125952
-0.042499
-0.022844
-0.081262
-0.073643
-0.002397
0.202632
0.449244
0.730614
1.067835
1.310921
1.336649
1.289586
1.070801
0.583223
0.316262
0.109784
-0.194448
-0.339730
-0.380029
-0.228159
-0.224340
-0.095525
-0.043125
0.013591
-0.039261
-0.002485
-0.029985
-0.038614
0.010972
0.029045
0.003966
0.091616
0.010790
0.104402
0.070584
0.044197
0.069587
0.082531
0.071171
0.018077
0.080128
0.136307
0.065989
0.126414
0.135883
0.166323
0.204632
0.210177
0.166599
0.182304
0.216595
0.237763
0.290766
0.364234
0.355938
0.360714
0.353509
0.380745
0.477888
0.405004
0.378432
0.488518
0.534209
0.474067
0.465375
0.477083
0.551383
0.507247
0.487330
0.524858
0.527696
0.538819
0.483706
0.474538
0.509109
0.546066
0.462764
0.503533
0.415588
0.501974
0.320557
0.384212
0.373491
0.360696
0.301541
0.335086
0.284484
0.251870
0.200673
0.250232
0.266516
0.271144
0.251047
0.183584
0.098503
0.065634
0.120370
0.115607
0.116390
0.095396
0.032450
0.076688
0.037211
0.061503
0.017143
0.087974
-0.008281
0.043617
0.054000
-0.001873
0.013682
0.062133
0.112276
0.050173
-0.043653
0.045549
0.019541
0.049615
0.057957
0.017298
0.009219
0.064929
0.093185
0.063918
0.064868
0.004186
0.100982
0.033919
-0.054643
0.014090
0.079234
0.062703
0.057005
0.155356
-0.018872
0.029379
-0.017106
0.067121
0.003247
0.032985
-0.037395
0.006703
0.077219
0.068631
-0.011788
0.030946
0.000007
0.009218
0.026330
0.032275
0.031241
-0.059218
0.078158
0.074913
0.084389
0.030844
0.008587
0.123480
-0.013259
0.018565
0.030591
0.058888
0.017586
0.026675
-0.004691
0.061733
0.013191
0.074197
0.031537
0.062836
0.054286
0.036979
0.035714
0.036173
0.070946
0.158136
0.052302
0.107518
0.029319
0.097327
0.074817
0.101540
0.107483
0.082409
0.144113
0.083865
0.144622
0.103699
0.105419
0.065489
0.153792
0.247366
0.195547
0.141691
0.134554
0.196621
0.221498
0.231054
0.195349
0.257054
0.240028
0.266659
0.251987
0.178817
0.209434
0.260612
0.228954
0.218907
0.137025
0.140704
0.157571
0.214297
0.094780
0.073377
0.098065
0.068485
0.050048
0.094473
0.070269
0.038917
0.033670
0.043531
0.024609
0.099769
0.052902
0.063187
0.008260
0.052134
0.067563
0.035190
0.003870
0.083959
0.049549
0.045772
0.047537
0.055076
0.011975
0.095910
-0.048402
0.004167
-0.005451
0.036017
0.055795
0.302397
0.429678
0.799695
1.104100
1.374665
1.405101
1.393118
1.168726
0.782419
0.430969
0.130170
-0.071476
-0.175711
-0.234680
-0.201430
-0.237827
-0.146244
-0.011936
0.027275
0.000355
0.019703
-0.017694
0.096437
0.052836
0.019408
0.039190
0.071312
0.039237
0.043296
0.138606
0.080318
0.045109
0.139567
0.078016
0.132882
0.087691
0.173050
0.130457
0.192512
0.128632
0.137348
0.123107
0.215744
0.202783
0.149461
0.256315
0.281218
0.347820
0.347945
0.325319
0.304442
0.275085
0.426345
0.401776
0.393370
0.365164
0.471579
0.527384
0.488596
0.555014
0.547442
0.463836
0.608396
0.560841
0.597158
0.534799
0.490664
0.497786
0.437333
0.502357
0.484832
0.451586
0.443703
0.466257
0.427517
0.431857
0.361937
0.312945
0.374775
0.286694
0.330551
0.243222
0.258463
0.194277
0.200683
0.253207
0.179246
0.178851
0.114153
0.178751
0.170716
0.088766
0.060722
0.085575
0.058172
0.178393
0.013877
0.052201
0.077189
0.000509
0.041553
0.088020
-0.026770
0.035456
-0.010590
-0.000441
0.053447
-0.022532
-0.100087
0.011186
0.030069
-0.026948
-0.047884
-0.101036
-0.024839
0.076618
-0.033681
0.016551
-0.091397
-0.020213
0.091255
-0.096199
0.008425
-0.053508
-0.057321
0.046248
-0.090714
-0.037802
-0.045260
-0.102499
-0.078871
-0.054434
-0.024565
-0.005247
0.031383
-0.052008
0.001759
-0.011921
-0.023532
-0.013513
-0.039029
-0.044874
0.070669
0.044921
-0.016910
-0.068060
-0.055190
0.006527
-0.001822
-0.083513
-0.057657
-0.005602
0.009051
-0.048088
-0.033664
-0.044197
-0.100228
-0.029503
0.029510
-0.005914
-0.063247
0.008214
-0.071626
0.018596
-0.097628
-0.050513
0.022594
-0.011100
-0.046515
-0.070456
0.012818
-0.008192
-0.032915
-0.134578
-0.026047
0.053567
-0.042921
-0.030772
0.041792
-0.002661
-0.047683
0.085342
-0.001797
0.049635
0.030949
0.027344
0.046631
0.020945
0.118190
0.125562
0.141653
0.051412
0.073647
0.123381
0.157429
0.105583
0.097083
0.111130
0.196822
0.151855
0.138793
0.077366
0.075283
0.083311
0.035850
0.014596
-0.001223
0.037019
0.014613
-0.015451
0.025827
0.008956
-0.015036
-0.064476
-0.095181
0.041612
-0.102015
-0.054236
-0.021778
-0.079564
-0.101271
-0.092404
-0.166781
-0.082241
-0.103026
-0.104294
-0.126907
-0.056612
-0.034076
-0.102503
-0.073591
-0.130369
-0.078748
-0.088691
-0.137399
-0.040657
-0.092280
-0.119704
0.108685
0.319731
0.597850
0.937010
1.252621
1.299247
1.209895
1.014355
0.758897
0.335141
-0.009261
-0.251803
-0.405836
-0.447547
-0.365424
-0.151285
-0.191810
-0.139923
-0.060495
-0.047104
-0.063003
-0.093485
-0.072612
-0.100005
-0.052287
-0.098197
-0.064215
-0.121092
-0.068404
-0.041651
-0.141886
-0.082870
-0.101267
-0.052603
-0.028141
0.040195
0.010547
-0.008146
0.055695
-0.039211
0.019952
0.035043
0.022145
0.110625
0.088590
0.078864
0.206313
0.166770
0.166998
0.142417
0.209589
0.220324
0.298742
0.282577
0.253294
0.298495
0.194848
0.357790
0.368183
0.405824
0.402821
0.406100
0.412942
0.368502
0.369743
0.474461
0.368671
0.367536
0.318718
0.351007
0.426693
0.267681
0.322635
0.381800
0.401065
0.295109
0.331997
0.274588
0.250468
0.217619
0.252320
0.102311
0.204243
0.213936
0.050095
0.137965
0.108897
0.031272
0.088937
0.054432
-0.071316
0.041571
-0.063972
-0.086738
-0.016380
-0.072466
0.000924
-0.043333
-0.067627
-0.105534
-0.012442
-0.063691
-0.072054
0.004126
-0.076276
-0.041801
-0.097252
-0.063123
-0.095108
-0.117312
-0.028654
-0.147441
-0.103223
-0.063393
-0.046705
-0.066077
-0.041721
-0.010706
-0.100641
-0.099527
-0.106444
-0.078079
-0.128724
-0.106012
-0.092849
-0.095585
-0.093722
-0.089832
-0.164094
-0.020473
-0.074093
-0.095367
-0.082225
-0.116272
0.025212
-0.110435
-0.147609
-0.115934
-0.075347
-0.054127
-0.116013
-0.054787
-0.101225
-0.114150
-0.052826
-0.143130
-0.153831
-0.088821
-0.057534
-0.078366
-0.132520
-0.050341
-0.066168
-0.114090
-0.170530
-0.112487
-0.065126
-0.075553
-0.097104
-0.091424
-0.048684
-0.089912
-0.047313
-0.006018
-0.106548
-0.114879
-0.067166
-0.112123
-0.052877
-0.137626
-0.078030
-0.156260
0.006675
-0.032017
-0.066907
-0.114813
0.018508
-0.011690
-0.012895
-0.016223
0.011088
-0.026037
-0.054083
0.047922
-0.026409
0.067267
0.030328
0.039207
0.086826
-0.001647
0.016894
0.098621
0.111025
0.059999
0.048760
0.115437
0.054933
0.104873
0.131126
0.094745
0.101801
0.114284
0.096062
0.032767
0.029492
-0.011481
0.028417
0.144600
-0.030518
-0.019834
0.029947
0.071722
-0.028717
-0.006895
-0.048308
-0.056659
0.010273
-0.042796
-0.149763
-0.032735
-0.059617
-0.016236
-0.047745
-0.110246
-0.034241
-0.089030
-0.062720
-0.038437
-0.031225
-0.016016
-0.031321
-0.018229
-0.053800
-0.047053
-0.068040
-0.105235
-0.087201
-0.010123
0.061548
0.344170
0.672824
1.025934
1.264589
1.366633
1.318062
1.123591
0.775960
0.480691
0.100597
-0.229937
-0.308894
-0.294233
-0.299822
-0.243998
-0.074853
-0.150346
-0.095348
-0.056816
-0.053996
-0.043524
-0.099527
-0.072383
-0.003069
-0.083817
-0.053722
0.043775
0.073429
-0.029251
-0.016373
-0.123352
0.022142
0.013629
0.062135
0.132467
0.046202
0.057383
0.098598
0.135022
0.122702
0.069034
0.160509
0.159822
0.119473
0.246248
0.248082
0.314055
0.271047
0.321005
0.394673
0.304648
0.301137
0.392060
0.371461
0.439040
0.290085
0.341868
0.462442
0.479720
0.414214
0.503982
0.489855
0.535355
0.548219
0.480054
0.552027
0.491136
0.568380
0.516901
0.466614
0.494561
0.493466
0.383936
0.407767
0.488026
0.405228
0.307326
0.385257
0.273483
0.357824
0.320133
0.252839
0.260771
0.206611
0.198069
0.154787
0.213207
0.200113
0.192295
0.202931
0.152943
0.147291
0.073791
0.103771
0.109662
0.065280
0.064280
0.029791
0.078209
0.037806
0.069613
0.066801
0.022860
-0.031570
0.131643
0.092386
0.021332
0.000111
-0.000101
0.072307
0.012267
0.028955
0.021296
-0.021736
0.000011
0.132744
0.036500
0.087350
-0.008907
0.034540
-0.068643
0.052233
0.137837
0.048129
0.050861
0.030908
0.046635
0.005011
-0.015820
0.064707
0.015965
0.054585
0.017301
-0.004232
-0.027910
0.041404
0.098722
-0.002046
0.030023
0.015358
-0.014253
0.012126
0.014998
0.100671
0.011505
-0.036349
0.161722
-0.001030
0.087824
0.012482
0.066179
0.015404
0.001279
0.138300
0.083053
0.019166
0.051780
0.050581
0.043372
0.044260
0.079574
0.011816
0.047274
0.035801
0.055345
0.146304
0.101606
0.200140
0.099625
0.134021
0.003423
0.060135
0.081516
0.134956
0.041279
-0.034416
0.093100
0.103206
0.040393
0.095471
0.205905
0.144501
0.153279
0.075559
0.176921
0.164827
0.226833
0.202136
0.231720
0.167043
0.242084
0.184941
0.282571
0.239845
0.198230
0.319533
0.263982
0.236153
0.225918
0.200051
0.146294
0.148354
0.257360
0.217819
0.133173
0.152249
0.185412
0.098020
0.154277
0.165428
0.170940
0.173492
0.110246
0.144496
0.032795
0.150305
0.148545
0.039588
0.050880
0.173312
0.045417
0.062882
0.124555
0.068329
0.054581
0.057886
0.123715
0.066846
0.182550
0.002664
0.029147
0.115724
0.049189
0.055922
-0.005834
-0.027704
0.056460
0.180816
0.384712
0.675065
1.035407
1.349788
1.500000
1.357968
1.203639
0.897859
0.478653
0.255350
-0.072548
-0.211984
-0.301661
-0.239327
-0.051774
-0.000963
-0.067153
0.054142
0.182646
0.137601
0.067048
0.063390
0.090304
0.057224
-0.023250
0.092758
0.087116
0.116847
