0.004038
0.001846
-0.021260
0.016406
-0.021607
-0.015242
0.047158
0.012110
-0.030286
-0.002945
0.051710
-0.013953
-0.020060
-0.014505
0.055545
-0.046210
0.060313
0.022093
0.014756
-0.002324
-0.040161
0.006474
-0.053526
0.003486
-0.014946
0.036084
0.120449
-0.036963
0.070053
0.086933
0.019460
0.008392
0.059072
0.004915
0.011957
0.068577
0.054631
0.007170
0.020131
0.097984
0.101480
0.126784
0.094654
0.184255
0.095495
0.138608
0.160547
0.223996
0.158699
0.161687
0.170431
0.207242
0.217760
0.245719
0.194196
0.221555
0.233621
0.213038
0.203936
0.205326
0.230991
0.300476
0.209424
0.197902
0.200788
0.081628
0.178477
0.076543
0.122345
0.176174
0.104509
0.107137
0.126775
0.043036
0.024104
0.082762
0.052014
-0.019556
0.060515
0.189810
0.094122
0.097212
0.121831
0.107729
0.080999
0.119375
0.048695
0.063644
-0.007511
0.056967
0.032260
0.100946
0.035548
-0.007090
0.117310
0.061854
0.015040
0.055554
0.014859
0.159987
0.053983
-0.063841
0.019460
-0.012513
0.059371
0.045936
0.231806
0.376230
0.773469
1.124208
1.409498
1.479719
1.479605
1.325925
1.032162
0.667278
0.315945
0.094416
-0.095570
-0.236764
-0.253813
-0.230857
-0.113777
-0.034224
0.056166
-0.109743
0.041069
0.137679
0.110658
0.077907
-0.042740
0.060858
0.093350
0.070506
0.067505
0.066913
0.162603
0.078327
0.039516
0.042067
0.160290
0.108192
0.134062
0.100495
0.122453
0.176506
0.149930
0.086267
0.115093
0.115627
0.133872
0.185816
0.192622
0.106134
0.188049
0.223570
0.169954
0.185553
0.251060
0.246324
0.359968
0.275430
0.321676
0.371887
0.373320
0.376697
0.421136
0.458830
0.378494
0.363770
0.471819
0.445372
0.482428
0.638792
0.535464
0.575891
0.561818
0.657711
0.630248
0.611217
0.608526
0.601751
0.581413
0.596263
0.525647
0.615348
0.578776
0.658621
0.556408
0.512049
0.581092
0.501001
0.464610
0.507317
0.412139
0.432479
0.426757
0.401763
0.322135
0.401992
0.269551
0.299994
0.239466
0.340009
0.212144
0.287935
0.222882
0.201571
0.195228
0.263168
0.126066
0.156896
0.141704
0.236921
0.137176
0.137771
0.149853
0.098189
0.179232
0.086419
0.131308
0.103658
0.030133
0.079101
0.105263
0.050306
0.166611
0.076471
0.200585
0.137297
0.101587
0.161252
0.089110
0.091378
0.005908
0.193886
0.070822
0.057112
0.100335
0.113946
0.141958
0.010113
0.085923
0.045127
0.080760
0.011123
0.125429
0.075014
0.110144
0.100832
0.137180
0.019996
0.079246
0.105771
0.146337
0.136566
0.119455
0.075533
0.160077
0.186595
-0.005635
0.059509
0.050439
0.041424
0.103920
0.039906
0.076634
0.051221
0.061269
0.128521
0.092632
0.076580
0.060971
0.080401
0.060407
0.005789
0.093031
-0.026130
0.068407
0.144152
0.077116
0.206628
0.166052
-0.001059
0.064090
0.074391
0.090446
0.106793
0.108004
0.044676
0.066858
-0.081786
0.090514
0.094066
0.024052
0.016960
0.043181
0.134743
0.107584
0.129201
0.171867
0.089036
0.093906
0.020976
0.119087
0.106644
0.010388
0.049426
0.092177
0.113252
0.040209
0.011692
0.054581
0.143684
0.099777
0.107174
0.064952
0.128576
0.115346
0.025026
0.187490
0.063551
0.103322
0.177070
0.233061
0.208593
0.143996
0.217675
0.233423
0.201755
0.182524
0.191515
0.221117
0.285550
0.213919
0.263284
0.259652
0.236200
0.217318
0.208524
0.214805
0.206763
0.154488
0.105183
0.115589
0.124395
0.105937
0.028915
0.027250
0.089297
0.074565
0.138011
0.097216
0.013690
0.036919
0.091527
-0.042987
0.157449
0.042159
0.010933
0.069538
-0.034611
-0.016082
0.007522
0.050593
0.042490
0.054135
0.038868
0.116058
0.041187
0.123249
0.024979
0.017790
0.016951
0.019016
0.079086
0.090984
0.028417
-0.037481
-0.111386
-0.075223
-0.080594
-0.067115
-0.049689
0.145113
0.521993
0.839627
1.137976
1.409558
1.500000
1.477408
1.180907
0.779608
0.495337
0.190790
-0.048549
-0.263725
-0.351426
-0.291546
-0.240679
-0.181098
-0.159754
0.055087
0.038891
-0.078085
0.049298
0.008640
0.006394
0.021751
-0.000822
-0.015054
0.001011
-0.004280
-0.010207
0.031946
0.012796
-0.027732
0.106021
0.049252
-0.019385
0.055076
0.000130
0.089336
-0.001013
0.026967
0.064652
0.061755
-0.043840
0.071019
0.108079
0.065517
0.079869
0.076406
0.117790
0.123861
0.176001
0.210164
0.121602
0.241016
0.194099
0.160732
0.271589
0.170196
0.351495
0.244544
0.328788
0.323987
0.365637
0.451444
0.426853
0.428197
0.490377
0.418271
0.439246
0.549095
0.480608
0.502521
0.410593
0.515851
0.523417
0.468655
0.459417
0.455436
0.477976
0.502633
0.429274
0.390544
0.368641
0.406246
0.405558
0.404209
0.341139
0.342787
0.271398
0.336389
0.330843
0.236706
0.208142
0.145414
0.186766
0.207331
0.180022
0.154525
0.056075
0.034893
0.030296
0.046195
-0.031193
0.096553
0.094939
0.056103
0.093440
0.021144
0.014247
-0.045541
0.028083
-0.006138
-0.012451
-0.041342
0.023327
-0.003935
0.018669
0.024660
-0.015658
-0.068042
-0.074130
-0.080430
-0.012228
0.006262
-0.004014
0.003917
-0.050607
-0.087688
-0.093742
-0.028860
-0.024233
-0.071559
-0.028119
-0.102063
-0.012159
0.022100
-0.052762
-0.040276
-0.112211
-0.037205
-0.079539
-0.022657
-0.020966
-0.012152
-0.038893
-0.010505
-0.039998
-0.030666
0.003530
-0.057865
-0.084836
-0.057516
-0.017255
-0.064598
-0.030466
-0.026178
-0.076832
-0.057165
-0.069788
-0.004581
0.011372
-0.042199
-0.019854
-0.026451
-0.078265
-0.068782
-0.058397
-0.032746
-0.075564
-0.023717
-0.033865
-0.072901
-0.005017
-0.033644
-0.020657
-0.060973
-0.042167
-0.061633
-0.049430
-0.078455
-0.052030
-0.018730
-0.104099
-0.033707
0.006563
-0.053551
-0.068272
-0.079658
-0.156299
-0.063880
-0.039107
-0.021887
-0.053723
-0.008302
-0.063288
-0.039072
-0.049035
-0.054642
0.000000
0.000000
0.000000
0.000000
0.000000
0.000000
0.000000
0.000000
0.000000
0.000000
0.000000
0.000000
0.000000
0.000000
0.000000
0.000000
0.000000
0.000000
0.000000
0.000000
0.000000
0.000000
0.000000
0.000000
0.000000
0.000000
0.000000
0.000000
0.000000
0.000000
0.000000
0.000000
0.100749
0.154128
0.056470
0.093680
0.115434
0.112746
0.051885
0.099572
-0.063760
0.005717
-0.004993
-0.001569
-0.007784
-0.035963
0.013986
0.020015
0.050614
-0.017339
0.004372
-0.029898
-0.072743
-0.057076
0.039287
-0.059185
-0.076070
-0.011319
-0.125795
-0.068894
-0.023784
-0.035198
-0.035734
-0.103899
-0.023663
-0.012437
-0.124974
-0.104457
-0.086444
-0.083980
-0.020461
-0.048994
-0.039727
0.005363
-0.062504
-0.135340
-0.081908
-0.103192
0.051181
0.234556
0.564255
0.871667
1.189433
1.408343
1.477337
1.310752
1.045931
0.698149
0.348885
0.109610
-0.080791
-0.238016
-0.306274
-0.437354
-0.257028
-0.174806
-0.091146
-0.063206
-0.029567
-0.006929
-0.016325
-0.026123
-0.047086
0.061555
-0.042106
0.070853
0.016385
-0.059741
-0.012036
0.042411
-0.036147
-0.047503
0.067593
0.019233
0.033965
0.007727
-0.031244
0.034291
-0.053069
0.000068
0.026301
0.042695
0.087873
-0.012793
0.089158
0.107671
0.192370
0.082484
0.078682
0.130507
0.132896
0.174230
0.215946
0.249006
0.258540
0.246077
0.216654
0.269415
0.315891
0.355040
0.331104
0.376997
0.392815
0.431335
0.420652
0.499495
0.398780
0.433750
0.503181
0.540148
0.582283
0.541358
0.498753
0.479369
0.579657
0.541227
0.584813
0.480731
0.546188
0.469181
0.466153
0.543823
0.398416
0.507041
0.442006
0.383299
0.353334
0.397513
0.303314
0.340596
0.272411
0.296194
0.287123
0.273698
0.194950
0.174443
0.189220
0.151002
0.146432
0.152732
0.128394
0.129825
0.069704
0.138394
0.068439
0.080203
0.089604
0.091975
0.092372
0.049860
0.045466
0.109796
0.139257
0.055899
0.030031
0.029041
0.009430
0.038209
0.120730
0.066117
0.072499
0.054419
0.071056
0.030714
0.142570
0.047281
0.040441
0.097414
0.090228
0.029611
0.049677
0.037113
0.016703
0.096675
0.007891
0.019917
0.052653
0.108156
0.046846
0.089724
0.069740
0.001746
0.046523
0.141271
-0.034749
0.073086
0.079254
0.055839
0.103109
0.054320
0.039882
0.042241
0.046943
0.025153
0.054516
0.026835
0.013834
0.011900
0.046730
0.121464
0.126822
0.039836
0.058102
0.105949
0.084648
0.013856
0.117100
0.105666
0.171630
0.006155
0.132083
0.108325
0.053304
0.079495
0.128921
0.049683
0.072694
0.122331
0.145629
0.013491
0.161325
0.068667
0.144548
0.090096
0.108858
0.039265
0.082177
0.022707
0.049602
0.043906
0.082063
0.085388
0.078088
0.060158
0.183256
0.095026
-0.018229
0.149808
0.010777
0.164297
0.038236
0.068727
0.120198
0.079566
0.165262
0.087566
0.149663
0.039467
0.077051
0.049532
0.147384
0.152480
0.187644
0.187948
0.224173
0.210926
0.180130
0.213512
0.259671
0.328765
0.220713
0.254325
0.267767
0.213179
0.320173
0.288166
0.219555
0.207257
0.292108
0.224803
0.227389
0.179123
0.286241
0.200535
0.285667
0.185569
0.229085
0.094554
0.178257
0.171158
0.143771
0.241771
0.109234
0.207222
0.055417
0.174391
0.101350
0.033165
0.181593
0.014785
-0.001219
0.107550
-0.006675
0.146026
0.167929
0.133181
0.078428
0.092405
0.000000
0.000000
0.000000
0.000000
0.000000
0.000000
0.000000
0.000000
0.000000
0.000000
0.000000
0.000000
0.000000
0.000000
0.000000
0.000000
0.000000
0.000000
0.000000
0.000000
0.000000
0.000000
0.000000
0.000000
0.000000
0.000000
0.000000
0.000000
0.438111
0.125390
-0.055740
-0.183705
-0.297682
-0.117962
-0.213015
-0.125247
0.084713
0.033150
0.149119
0.060807
0.126085
0.069377
0.034645
0.053099
0.083768
0.154901
0.123893
0.032468
0.124177
0.109958
0.099335
0.104513
0.149209
0.139909
0.093821
0.113950
0.063064
0.056961
0.093426
0.107522
0.120948
0.026842
0.103918
0.090225
0.085626
0.148913
0.178953
0.185789
0.230634
0.204737
0.210959
0.335461
0.245166
0.336646
0.326986
0.383854
0.349726
0.383593
0.441298
0.438714
0.444987
0.425361
0.514585
0.533660
0.555265
0.531089
0.558832
0.580107
0.509759
0.582314
0.620683
0.577545
0.588000
0.695952
0.536991
0.488454
0.554243
0.533295
0.581901
0.503196
0.533590
0.549995
0.606607
0.489231
0.420502
0.442347
0.361074
0.417704
0.362683
0.308428
0.372451
0.308908
0.199613
0.279921
0.298997
0.188918
0.250180
0.286142
0.120341
0.174823
0.166949
0.179756
0.094834
0.178497
0.085078
0.177369
0.065403
0.130697
0.138694
0.096641
0.096861
0.120775
0.047917
0.073217
0.091398
0.121759
0.037795
0.098079
0.079701
0.075248
0.088115
0.078598
0.108817
0.005855
-0.000888
0.006382
0.037501
0.030362
0.055643
0.037381
-0.031130
0.101018
0.064599
0.064056
0.060414
0.075240
0.017902
0.051060
0.040517
0.107620
0.097444
0.025443
0.037841
-0.004942
0.015981
0.098254
0.014811
0.040973
-0.044657
0.103966
0.069803
0.115657
0.051511
-0.042640
0.019850
0.032202
0.026164
0.111457
-0.001339
0.095991
0.022017
0.039114
-0.020721
0.105536
-0.009275
-0.032181
0.049679
0.137957
0.081011
0.006737
0.029003
0.078057
0.091037
-0.005238
0.091433
0.020568
0.005273
0.053595
-0.031662
0.132728
-0.025591
0.055861
0.013042
-0.029546
0.076625
0.018930
0.027373
0.046861
0.046399
0.020932
-0.069247
0.032363
0.052244
0.010062
-0.029219
0.022415
-0.031204
-0.099834
0.012442
0.017238
0.071075
-0.020622
0.083883
0.017580
0.072739
0.039777
0.010030
0.061533
0.102681
0.043308
-0.000429
0.025039
0.100384
0.029569
0.087165
0.085993
0.085461
0.146375
0.109801
0.122233
0.171810
0.190819
0.223343
0.140590
0.126732
0.107474
0.177441
0.093673
0.163542
0.190695
0.180684
0.082156
0.130470
0.142528
0.112214
0.089897
0.119291
0.073012
0.115241
0.000009
-0.033474
0.049540
0.063480
-0.028434
0.016540
0.021198
0.014781
-0.070636
-0.002416
-0.042894
-0.064657
-0.081933
0.067132
-0.085425
-0.008406
0.011933
-0.015211
-0.003918
-0.089836
0.019989
-0.031827
-0.013369
0.045664
-0.058692
-0.031617
-0.019557
-0.061399
-0.069644
-0.079322
-0.010533
-0.106524
-0.062517
-0.120736
-0.098031
-0.219511
-0.104939
-0.056920
0.357665
0.626818
1.048551
1.256731
1.418694
1.372508
1.149178
0.905430
0.543340
0.177334
-0.108486
-0.196858
-0.345097
-0.334762
-0.345456
-0.286941
-0.132840
-0.142893
-0.154767
-0.088724
-0.008412
-0.058481
0.014906
-0.071706
-0.006099
-0.019218
-0.024683
-0.012824
-0.052173
-0.062664
-0.047676
-0.008584
-0.056555
-0.026680
0.026552
-0.102447
-0.082763
-0.028090
-0.013364
-0.011532
-0.049495
0.016375
0.065251
0.010542
0.003437
0.049395
0.045005
0.017615
0.060945
0.037494
0.016844
0.118427
0.045044
0.210325
0.191035
0.160190
0.144210
0.240838
0.237906
0.279883
0.294088
0.305784
0.227609
0.364577
0.422770
0.395351
0.349747
0.328949
0.358907
0.487842
0.440818
0.425964
0.386415
0.456748
0.477435
0.532451
0.404776
0.349705
0.481835
0.481954
0.382381
0.390031
0.382468
0.334123
0.363943
0.312162
0.300216
0.238344
0.278472
0.253802
0.201742
0.228429
0.207708
0.162796
0.154004
0.124077
0.100404
0.010703
0.056069
0.016725
0.030467
0.018656
0.002558
-0.043467
-0.016420
-0.007039
-0.008145
-0.051506
-0.061375
-0.034497
-0.064585
-0.012060
-0.101333
0.004599
-0.114995
-0.109277
-0.095432
-0.088938
-0.105268
-0.073149
-0.037288
-0.086692
-0.122100
-0.050860
-0.053452
-0.082380
-0.031786
-0.045071
-0.107194
-0.050525
0.013544
-0.021419
-0.090463
-0.061582
-0.085560
-0.044589
-0.136240
-0.039879
-0.017069
-0.122596
-0.077768
-0.070869
-0.164603
-0.065211
-0.052185
-0.111997
-0.078369
-0.060775
0.025820
-0.078008
-0.125732
-0.096060
-0.125410
-0.049518
-0.040271
-0.057640
-0.081741
-0.022855
-0.098069
-0.035496
-0.029236
-0.114978
-0.103584
-0.066410
-0.088244
-0.041686
-0.111106
-0.022780
-0.014397
-0.098628
-0.062549
-0.124281
-0.069670
-0.120002
0.000001
-0.046271
-0.038091
0.004511
-0.112762
-0.109001
-0.027646
-0.095940
-0.048265
-0.025526
-0.140627
0.016771
-0.093488
-0.093949
-0.073223
-0.007569
-0.104732
-0.108310
-0.056720
-0.154630
-0.109253
-0.056852
-0.103051
-0.082740
-0.076452
-0.056724
0.030408
-0.109561
-0.035213
-0.045990
-0.075498
0.001065
0.010758
-0.090247
-0.049926
-0.032816
0.022027
0.043132
0.019106
-0.005015
0.081385
0.030060
0.007529
-0.008197
0.098909
0.079858
0.110811
0.157137
0.133120
0.095271
0.139812
0.110645
0.134304
0.069319
0.090269
0.133945
0.136776
0.095262
0.058379
0.099864
0.081160
0.074327
0.003489
0.059596
-0.011731
0.033966
0.033517
-0.057981
0.010028
-0.063445
-0.005547
-0.025119
-0.080214
-0.040305
-0.014381
-0.099234
0.045824
-0.002163
-0.092640
-0.051180
-0.007346
-0.015349
-0.080142
-0.104602
-0.031527
-0.036337
0.019521
-0.065033
-0.056732
-0.061004
0.038038
-0.059511
-0.086756
0.000000
0.000000
0.000000
0.000000
0.000000
0.000000
0.000000
0.000000
0.000000
0.000000
0.000000
0.000000
0.000000
0.000000
0.000000
0.000000
0.000000
0.000000
0.000000
0.000000
0.000000
0.000000
0.000000
0.000000
0.000000
0.000000
0.000000
0.000000
0.000000
0.000000
0.000000
0.000000
0.000000
0.000000
0.000000
0.000000
0.000000
0.000000
0.000000
0.000000
0.000000
0.000000
0.000000
0.000000
0.000000
0.000000
0.000000
0.000000
0.088737
0.021854
0.023506
-0.014112
0.010711
0.052224
0.058693
0.038759
0.093140
0.193117
0.102195
0.104032
0.129205
0.192161
0.194915
0.168556
0.209776
0.071516
0.196232
0.250367
0.247358
0.308543
0.253275
0.414531
0.456788
0.411361
0.423510
0.471549
0.471920
0.456044
0.487195
0.498675
0.521282
0.563492
0.532954
0.482315
0.532972
0.456584
0.538424
0.475905
0.524344
0.502905
0.545676
0.532283
0.415279
0.431055
0.489493
0.426989
0.381139
0.319599
0.389153
0.285907
0.354933
0.266712
0.322237
0.255394
0.248242
0.257358
0.278380
0.191326
0.168363
0.065487
0.171837
0.178057
0.110361
0.109395
0.090914
0.103865
0.134446
0.037906
-0.004897
-0.041820
0.035689
0.082182
0.021190
0.108106
-0.021389
-0.006013
0.046474
0.007336
0.041528
0.112814
-0.015389
0.023302
0.023238
0.075960
-0.005079
0.011739
-0.029644
-0.017105
-0.061744
0.021616
-0.011871
0.028908
-0.017732
0.071339
0.047654
0.055651
0.125529
0.130126
0.040225
0.013269
-0.033264
0.037769
-0.023285
0.097153
-0.084436
0.050348
0.052446
0.025369
0.003311
0.023167
-0.030351
0.025176
-0.003804
0.081352
0.069334
0.060542
0.079607
0.062168
-0.038277
0.051229
-0.003087
0.012671
0.056073
0.020422
0.047574
0.034008
0.031350
0.085291
-0.046670
0.040805
0.052635
0.047280
0.069387
0.031539
0.024021
0.109424
0.084382
0.067813
0.057519
0.080922
-0.013247
-0.014970
0.049523
0.062857
0.084716
0.112065
0.040110
0.052868
0.063955
0.012249
0.081784
-0.030221
0.022886
0.034933
0.024942
0.082965
-0.027498
0.003866
0.081220
0.150415
0.025892
0.071773
0.098613
0.142518
0.116798
0.025940
0.102650
0.050111
0.076966
0.137532
-0.002277
0.135222
0.198185
0.021957
0.182695
0.148804
0.144806
0.121366
0.173574
0.190772
0.197090
0.267146
0.236446
0.222153
0.209884
0.237561
0.202890
0.322972
0.245162
0.255670
0.245855
0.179304
0.239497
0.178962
0.147947
0.140630
0.172247
0.223958
0.204925
0.093035
0.067380
0.077658
0.136736
0.047383
0.133260
0.081125
0.107760
0.034729
0.070832
0.073945
0.055819
0.057125
0.072086
0.076369
0.006755
0.082691
0.082364
0.017776
-0.017062
0.026017
0.017538
0.014552
-0.002678
0.055732
0.082114
0.015388
-0.070171
-0.017486
0.072345
0.012833
-0.040737
0.071990
0.025339
0.017566
-0.105641
-0.071962
-0.035270
0.114558
0.176539
0.481237
0.841351
1.237339
1.431977
1.494101
1.400711
1.163270
0.825471
0.470167
0.197052
-0.028668
-0.244163
-0.309983
-0.258212
-0.219778
-0.171659
-0.122310
-0.063462
0.041201
-0.025559
0.024886
0.042545
0.046154
-0.023633
0.009979
-0.008996
0.094451
0.115832
0.067451
0.104388
0.104409
-0.005847
-0.024181
0.063216
0.017472
0.038664
0.058403
0.087873
0.104454
0.056500
0.090712
0.038875
0.146426
0.148910
0.054859
0.110799
0.147371
0.094193
0.055160
0.075983
0.203686
0.139225
0.228434
0.214555
0.179657
0.363265
0.275926
0.260450
0.270484
0.398761
0.323600
0.391374
0.382285
0.427688
0.523232
0.419400
0.449457
0.458328
0.579060
0.513018
0.447715
0.503560
0.486616
0.503543
0.551344
0.476712
0.537294
0.561160
0.442955
0.511996
0.430797
0.433473
0.457411
0.451615
0.408966
0.398103
0.382158
0.344158
0.289090
0.332102
0.243303
0.219946
0.343297
0.202814
0.177385
0.143210
0.207766
0.060042
0.149427
0.106764
0.064397
0.172150
0.054490
0.058936
-0.014274
0.011752
-0.046005
0.011548
0.072834
-0.007768
0.038704
0.067283
-0.030650
-0.045453
-0.042495
-0.058881
-0.029821
-0.015078
-0.062078
-0.088416
-0.080470
0.020365
-0.052992
0.028293
0.002340
-0.049721
-0.006060
-0.036425
-0.028187
-0.042211
-0.049079
-0.003215
-0.035729
-0.038529
0.008974
0.023701
-0.091795
-0.023547
-0.091689
0.065356
0.011868
-0.023333
-0.053027
-0.058335
-0.003057
0.015074
-0.113814
-0.022222
-0.046555
-0.010722
-0.006620
-0.048251
-0.007531
-0.107440
-0.037650
-0.105934
-0.056699
-0.074239
-0.114190
-0.016176
-0.121233
-0.134457
-0.018251
-0.031544
-0.059596
-0.072505
0.036492
-0.047504
-0.113417
-0.054723
-0.088882
-0.098812
-0.107675
-0.128296
-0.021738
-0.017676
-0.039579
-0.050018
-0.009470
-0.060918
-0.062443
-0.173299
-0.043547
-0.152116
0.007540
-0.071623
-0.080944
-0.054228
-0.020867
-0.106719
-0.076221
-0.119956
-0.111322
-0.005944
-0.110912
-0.081358
0.010003
-0.037022
-0.071590
-0.065966
-0.101455
-0.085371
-0.010171
-0.037869
-0.009393
-0.021089
0.055863
-0.046199
0.012691
-0.101350
-0.089042
-0.071227
-0.037456
0.011178
0.003782
0.021485
-0.020442
0.040966
0.049644
0.087114
0.080129
0.057011
0.075434
0.110657
0.028966
0.053163
0.023080
0.073930
0.057745
0.142102
0.038959
0.060438
0.137198
0.006588
0.101207
0.005121
0.044927
0.033135
-0.002999
-0.004679
-0.007027
-0.113046
-0.011741
-0.061362
-0.065108
-0.099659
-0.037591
-0.054001
-0.095672
-0.148010
-0.045344
-0.003460
-0.152976
-0.086115
-0.086380
-0.118251
-0.088048
-0.192226
-0.063626
-0.006029
-0.083351
-0.096559
-0.092699
-0.082529
-0.082079
-0.107272
-0.090692
-0.094316
-0.115521
-0.126230
-0.079989
-0.169500
-0.139894
-0.207179
-0.287629
-0.288890
-0.071739
0.211563
0.447531
0.798638
1.108290
1.226292
1.375090
1.168528
0.904350
0.529540
0.288100
0.043289
-0.208964
-0.407221
-0.470501
-0.327799
-0.387162
-0.298576
-0.169726
-0.165773
-0.038099
-0.066778
-0.065157
-0.105811
-0.152650
-0.115991
-0.066001
-0.128220
-0.156757
-0.108500
-0.090023
-0.035053
-0.069215
-0.072258
-0.141302
-0.108337
-0.076971
-0.027566
-0.079331
-0.128606
-0.069369
-0.097299
-0.046716
-0.059628
0.017998
0.038993
0.058928
-0.000597
0.027079
0.000717
0.086042
0.045600
0.067014
0.052529
0.006473
0.186726
0.062811
0.114682
0.107418
0.283524
0.198267
0.263023
0.266872
0.263928
0.330866
0.233377
0.328062
0.333347
0.371279
0.386617
0.332600
0.334225
0.343173
0.503016
0.414337
0.421064
0.454943
0.475107
0.495015
0.455711
0.379697
0.430419
0.333383
0.338993
0.322780
0.284502
0.337561
0.274641
0.259352
0.228733
0.198647
0.190414
0.190714
0.072253
0.159102
0.096617
0.065355
0.149514
0.036303
0.136756
0.134718
0.075080
0.109437
-0.006251
-0.010085
0.010073
-0.091509
-0.049519
0.043098
-0.027007
-0.090250
-0.026401
0.061460
-0.052830
-0.075748
-0.025511
0.013167
-0.098730
-0.145600
-0.047408
-0.092474
-0.051730
-0.114144
-0.007447
-0.077947
-0.041519
-0.116024
-0.057917
-0.044977
-0.103166
-0.029655
0.066157
-0.140174
-0.097469
-0.091299
-0.046754
-0.014713
-0.086812
-0.007113
-0.150011
-0.088245
-0.033771
-0.000988
-0.099237
-0.021132
-0.073925
-0.067470
-0.078149
-0.054479
-0.032441
-0.099965
-0.018898
-0.088635
0.033135
-0.048810
0.065385
-0.024968
-0.076789
-0.029968
-0.117141
-0.091936
-0.063866
-0.063812
0.005422
-0.032179
-0.066530
-0.082727
-0.008108
-0.019794
-0.110279
-0.045232
-0.019001
0.031017
-0.056432
0.010586
-0.043059
0.036853
-0.019285
-0.014949
-0.095071
-0.072500
-0.053144
-0.069888
0.014175
-0.055214
0.007288
-0.047917
-0.131494
0.008850
-0.007258
-0.016877
-0.046428
-0.030849
0.007707
-0.029964
-0.080803
-0.031436
-0.049167
-0.016175
-0.005144
-0.111177
0.016578
-0.094674
-0.023574
-0.011028
0.000742
-0.057918
0.002856
0.069710
0.026242
-0.039045
0.050049
-0.068930
0.062108
-0.017636
0.028626
0.062784
0.067597
0.125340
0.120269
0.044970
0.119978
0.084913
0.197117
0.157429
0.161347
0.147730
0.192360
0.103900
0.187199
0.167603
0.204169
0.112177
0.152907
0.119876
0.148428
0.167500
0.128070
0.075964
0.056596
0.000475
0.036430
0.082947
0.101438
0.039241
-0.013513
0.038648
0.040766
0.025632
0.042832
-0.097868
-0.015990
0.009028
0.007949
-0.008128
0.046968
-0.037225
0.041627
0.024170
-0.010536
0.032218
-0.029998
0.113575
-0.036138
-0.013978
0.058900
-0.003531
-0.008778
-0.025253
-0.041014
-0.043695
0.022729
-0.009702
-0.051695
0.059063
-0.092927
-0.090835
0.021755
0.098720
0.310721
0.698283
1.007920
1.381453
1.472598
1.456040
1.234526
0.951644
0.674959
0.348517
0.066307
-0.110926
-0.300563
-0.316555
-0.382554
-0.329357
-0.073443
-0.035675
-0.004875
-0.029529
0.049659
-0.012309
0.013027
0.030002
0.068759
0.064153
0.033155
-0.001992
0.066622
0.135680
0.019264
0.068983
0.085720
0.075750
0.121328
0.085700
0.012342
0.047024
0.059996
0.094145
0.031337
0.127987
0.178217
0.121241
0.131520
0.152187
0.174096
0.184665
0.248029
0.185461
0.116536
0.173937
0.239313
0.246521
0.252592
0.319579
0.267518
0.380702
0.264725
0.392696
0.393061
0.414610
0.458014
0.532629
0.540650
0.482627
0.496218
0.480874
0.575076
0.607299
0.537025
0.577450
0.566622
0.530243
0.573070
0.597531
0.612918
0.698645
0.499329
0.539297
0.494464
0.525999
0.459907
0.476478
0.437617
0.523377
0.416978
0.420489
0.375899
0.382299
0.376282
0.249994
0.322747
0.333914
0.361134
0.331994
0.233039
0.211670
0.160885
0.197540
0.190595
0.153957
0.164942
0.146199
0.073092
0.122716
0.116058
0.146805
0.173506
0.003228
0.092056
0.094649
0.119748
0.121451
0.010651
0.085284
0.074885
0.007436
-0.037588
0.087207
0.108692
0.021826
0.079424
0.023442
0.096636
0.054227
0.119875
0.065088
0.012204
0.074700
0.027511
0.110091
0.090826
0.053140
0.113314
0.171364
-0.009296
0.091000
0.013206
0.086902
0.134719
0.086037
0.051939
0.069282
0.018205
0.069035
0.088938
0.077798
0.054592
0.118274
0.110104
0.062963
0.071726
0.090082
0.031373
0.007691
0.045111
0.068618
-0.012426
0.096056
0.023568
0.109424
0.094177
0.131805
0.107287
0.129962
0.037262
0.049045
0.059973
-0.017414
0.047316
