0.010674
-0.050158
0.014395
-0.032329
-0.008032
-0.019020
0.017520
0.085931
-0.064510
0.027258
-0.008878
-0.069264
0.044153
0.055409
0.024916
0.003123
-0.055902
0.079259
0.041589
-0.042092
0.023617
0.032417
0.046877
0.143053
0.063257
0.051556
0.037914
0.112825
0.044298
0.070807
0.066270
0.114233
0.147962
0.138802
0.250498
0.143244
0.131090
0.092193
0.184320
0.136441
0.164771
0.206523
0.180349
0.143541
0.182613
0.139952
0.152484
0.194932
0.146098
0.120248
0.141872
0.205510
0.097278
0.146170
0.080354
0.126124
0.103326
0.061778
0.116809
0.057657
0.094894
0.076924
0.063096
0.043364
0.098032
0.017050
0.063266
-0.000757
-0.006228
0.046625
0.034663
0.067128
0.117898
0.059058
0.044338
-0.051842
0.033193
0.012216
0.041142
0.073451
0.068068
0.259457
0.518367
0.813497
1.113649
1.352808
1.377582
1.263836
0.918836
0.706169
0.243199
0.081241
-0.144583
-0.186009
-0.182444
-0.099448
-0.060139
-0.003567
0.059992
0.011018
0.126903
0.167084
0.088363
0.112446
0.119553
0.113201
0.103807
0.105545
0.108231
0.182974
0.151606
0.169460
0.231989
0.198952
0.274766
0.129595
0.201239
0.221928
0.259831
0.286550
0.235131
0.318150
0.281921
0.356363
0.408315
0.372372
0.421594
0.431503
0.466037
0.463512
0.408577
0.419322
0.551359
0.581023
0.460209
0.603004
0.573435
0.586578
0.581402
0.564179
0.557149
0.623186
0.494547
0.608793
0.557217
0.514155
0.508672
0.487962
0.596852
0.494103
0.475730
0.417129
0.471420
0.440348
0.366049
0.381245
0.313762
0.367000
0.195297
0.288688
0.203112
0.209185
0.281607
0.157489
0.168518
0.195644
0.221646
0.175264
0.175277
0.180848
0.163402
0.140547
0.140432
0.135037
0.160527
0.077865
0.118657
0.183369
0.107480
0.128231
0.083980
0.098044
0.142906
0.083419
0.063228
0.069553
0.063572
0.084666
0.051070
0.056303
0.053422
0.050852
0.121164
0.104140
0.152579
0.098527
0.130836
0.128869
0.109664
0.114074
0.126602
0.056204
0.062415
0.057675
0.148625
0.046435
0.101096
0.117278
0.091374
0.168338
-0.015561
0.030560
0.060490
0.068344
0.083703
0.082518
0.096442
0.050996
0.058741
0.133499
0.167152
0.071890
0.128896
0.084978
0.092123
0.058575
0.131332
0.128110
0.104815
0.048218
0.194000
0.128230
0.137175
0.112345
0.060550
0.072064
0.148746
0.110977
0.141117
0.105490
0.059866
0.093048
0.157629
0.112820
0.165116
0.207542
0.178290
0.173220
0.198311
0.194006
0.280203
0.249535
0.230639
0.241128
0.265166
0.205871
0.227122
0.291991
0.278393
0.272138
0.249683
0.210340
0.258085
0.229563
0.213633
0.217311
0.107677
0.144083
0.162253
0.124659
0.174853
0.177173
0.178646
0.205402
0.124451
0.157930
0.085369
0.120181
0.135916
0.022736
0.056459
0.092860
0.103070
0.036816
0.040146
0.082525
0.117934
0.123734
0.029329
0.000075
0.061107
0.038723
-0.003472
0.011519
0.105018
0.253681
0.430118
0.707656
0.986422
1.304096
1.440689
1.281841
1.176465
0.791922
0.441616
0.139685
-0.154174
-0.202210
-0.178791
-0.116168
-0.021655
-0.018735
0.060696
-0.035601
0.069382
0.138238
0.138112
0.108634
0.045279
0.051487
0.175206
0.102604
0.127130
0.136911
0.143956
0.072877
0.104374
0.150948
0.164484
0.138725
0.213348
0.212689
0.231685
0.284934
0.236656
0.298632
0.352093
0.298698
0.363204
0.264637
0.417324
0.409032
0.453613
0.393538
0.451693
0.443862
0.432290
0.523501
0.491027
0.492186
0.516965
0.580233
0.585226
0.591679
0.480519
0.593830
0.514125
0.510793
0.509965
0.544163
0.487269
0.484850
0.458486
0.380860
0.445926
0.414514
0.381190
0.335190
0.380080
0.283790
0.318068
0.305049
0.228574
0.257991
0.129280
0.226070
0.132974
0.111170
0.116720
0.158631
0.092035
0.139792
0.152778
0.159416
0.122307
0.119914
0.018642
0.162906
0.018638
0.061354
0.134795
0.136761
0.148175
0.020038
0.019857
0.029673
-0.023229
0.034701
0.073554
0.010004
0.054227
0.073817
0.062773
0.002032
0.017694
-0.046825
-0.032920
0.078838
0.024810
-0.066288
-0.022909
-0.029456
0.018336
0.025817
0.032794
-0.001317
-0.062026
0.041154
-0.042214
-0.032703
-0.014763
-0.011750
-0.032399
0.022464
-0.034493
-0.002429
-0.000649
-0.011277
0.030068
-0.021126
0.026626
-0.116508
-0.073695
0.004867
-0.075615
0.004199
0.016532
0.051847
0.009189
-0.007999
0.028808
0.024434
-0.080249
0.001464
-0.016759
0.057835
-0.026337
-0.026294
-0.045244
-0.000255
0.022414
0.013462
0.021357
0.014217
0.027041
0.018374
0.027237
-0.028121
0.104370
0.056275
0.059870
0.058315
-0.019613
0.095996
0.088453
0.098008
0.095458
0.086746
0.138866
0.102818
0.139305
0.124314
0.080621
0.148577
0.203529
0.246015
0.128275
0.135567
0.167873
0.067720
0.007592
0.133800
0.077860
0.081643
0.067379
0.064437
0.083401
-0.075518
0.007600
0.064940
-0.028681
-0.036340
-0.021804
-0.037851
-0.020719
-0.055067
-0.051571
-0.014194
-0.016972
0.017266
-0.076016
-0.071540
-0.109161
-0.046905
-0.003680
-0.075231
-0.111244
-0.120313
-0.023104
0.078709
0.261220
0.578524
0.843041
1.121151
1.219207
1.312360
1.058324
0.810308
0.395949
0.099837
-0.181485
-0.266243
-0.225022
-0.234923
-0.196063
-0.110520
-0.165168
-0.098204
-0.012105
-0.001717
0.010906
-0.006850
-0.024892
0.043395
-0.014390
-0.025631
0.006693
0.082209
0.028216
0.090351
0.096149
0.046056
0.060807
0.113039
0.138268
0.154720
0.167282
0.112335
0.145325
0.183259
0.121888
0.269503
0.236763
0.256960
0.309004
0.180469
0.245786
0.332979
0.355729
0.380104
0.301729
0.395238
0.404910
0.456068
0.444556
0.378993
0.509616
0.438766
0.453084
0.416403
0.378697
0.377746
0.423594
0.437390
0.392852
0.468342
0.411404
0.364069
0.347839
0.321875
0.371059
0.264609
0.315180
0.215381
0.164187
0.207908
0.227423
0.194255
0.188277
0.115514
0.110613
0.114041
0.062024
0.074465
0.083016
0.121234
0.002978
0.017823
0.037846
0.022130
0.018534
-0.022129
0.032289
-0.023065
-0.021313
-0.016009
0.025070
0.033677
0.007059
-0.087300
-0.028504
-0.083279
-0.073090
0.027563
-0.045022
-0.058174
-0.060519
-0.006685
-0.084311
-0.064458
-0.025975
-0.025054
-0.008311
-0.095456
-0.079721
-0.056133
-0.032337
-0.052233
-0.025653
-0.025076
-0.058869
0.009360
0.023811
-0.056369
-0.076186
0.000673
0.004104
-0.065534
-0.042370
0.014489
0.002912
-0.051391
0.032201
-0.011876
-0.040749
-0.031501
0.036502
-0.057583
-0.034246
-0.012563
-0.049605
-0.066196
-0.095253
-0.009422
-0.025234
-0.075192
-0.032221
-0.018419
-0.095172
0.039387
0.007977
-0.077442
-0.022452
0.011856
0.025654
-0.008100
0.028287
0.036340
-0.006214
0.055313
0.078073
-0.032566
0.032827
0.128392
0.157951
0.074108
0.112654
0.105312
0.094922
0.112524
0.169107
0.217172
0.166887
0.192183
0.192811
0.115851
0.138964
0.135478
0.197210
0.126628
0.162792
0.123163
0.094550
0.144128
0.061206
0.104064
0.135835
0.067357
-0.003814
0.102161
0.032851
-0.003312
-0.004613
0.041555
0.031499
-0.057599
-0.036955
0.034060
0.080930
0.034499
0.041618
0.004767
0.039478
0.004538
0.050244
-0.007477
0.002187
0.040009
-0.004943
0.009925
0.034477
-0.010762
-0.004332
0.104356
0.235605
0.570656
0.789292
1.124128
1.313277
1.331074
1.181244
0.904677
0.523886
0.250337
-0.027918
-0.256012
-0.218628
-0.190838
-0.194196
-0.145293
-0.048238
0.012857
-0.001499
-0.027941
0.022951
0.097775
0.091720
0.038087
0.030867
-0.004970
0.102723
-0.035882
0.162472
0.165977
0.082675
0.083156
0.107125
0.099151
0.067368
0.196732
0.168698
0.185439
0.258267
0.322586
0.216080
0.324732
0.286191
0.282380
0.349618
0.385846
0.348110
0.393874
0.454134
0.464856
0.419132
0.441923
0.462176
0.514145
0.478583
0.554180
0.491575
0.484135
0.455670
0.546693
0.575113
0.535324
0.469629
0.523149
0.494629
0.442392
0.449693
0.476921
0.434152
0.364157
0.335024
0.417031
0.384241
0.318940
0.302053
0.271701
0.313417
0.257252
0.168948
0.215636
0.251224
0.210884
0.172657
0.190640
0.168083
0.120691
0.086703
0.146165
0.156459
0.111007
0.051052
0.037733
0.121726
0.113763
0.030229
0.145625
0.127838
0.040515
0.062426
0.052971
0.082559
-0.004264
0.067195
0.052685
0.062451
0.089677
0.078862
0.053277
0.030896
0.047162
0.017017
0.125293
0.037309
0.083619
0.045143
0.047903
0.054789
0.072120
0.088278
0.098941
0.135450
0.093835
0.161153
0.053765
0.116758
0.055012
0.032339
0.069089
0.088822
0.112503
0.025961
0.020560
0.100559
0.028645
0.127750
0.088208
0.084892
0.019177
0.029569
0.107025
0.071700
0.141314
0.098390
0.036436
0.103784
-0.017079
0.119956
0.155864
0.107033
0.068398
0.015965
0.031406
0.115809
0.104003
0.066402
0.121318
0.084555
0.104237
0.125143
0.092839
0.164519
0.236599
0.175074
0.134216
0.165007
0.161970
0.063626
0.173799
0.288487
0.217917
0.238800
0.220526
0.275866
0.254563
0.249842
0.288672
0.226315
0.259664
0.252474
0.214643
0.235365
0.267024
0.210694
0.215702
0.216561
0.191758
0.247967
0.149678
0.157198
0.090699
0.175296
0.092286
0.126957
0.118296
0.167901
0.091566
0.060795
0.072443
0.105393
0.165606
-0.014809
0.084845
0.095566
0.095583
0.118057
0.136074
0.082097
0.112006
0.063717
0.120891
0.060005
0.050150
0.079997
0.060416
0.251521
0.485798
0.817974
1.123830
1.359031
1.500000
1.291597
1.163606
0.770581
0.412335
0.128770
-0.029900
-0.173242
-0.220137
-0.163893
-0.026565
-0.034048
0.146982
0.127294
0.089736
0.183351
0.108457
0.108206
0.169892
0.198879
0.125374
0.161961
0.156801
0.136352
0.143745
0.130096
0.234987
0.152594
0.197896
0.279689
0.190672
0.270944
0.289766
0.285671
0.245864
0.291684
0.298733
0.381271
0.414869
0.391754
0.412744
0.423984
0.516839
0.505871
0.502803
0.468275
0.488605
0.555992
0.517830
0.598992
0.642144
0.584365
0.581667
0.585736
0.529353
0.594291
0.534018
0.545377
0.547936
0.607170
0.577026
0.492396
0.540582
0.485593
0.477977
0.459545
0.461591
0.364103
0.350188
0.300832
0.357395
0.327248
0.274715
0.307419
0.275024
0.184358
0.240026
0.193815
0.286078
0.181464
0.174145
0.202665
0.146723
0.146771
0.058495
0.185871
0.075853
0.153269
0.037344
0.028644
0.059894
0.097984
0.042547
0.050219
0.090303
0.080363
0.057175
0.105588
0.083136
0.077914
0.082403
0.009205
0.076173
0.020879
0.069723
0.089454
0.140796
0.132193
0.121537
0.052042
0.101974
0.032095
0.060723
0.037512
0.057583
0.043574
0.112724
0.041992
0.104012
0.118367
0.019974
0.118021
0.029074
0.093084
-0.030278
0.102273
0.085934
0.025827
0.000452
-0.032785
0.042382
0.000780
0.019580
0.016615
0.080729
-0.006933
0.097661
0.039451
0.040490
0.025751
-0.041510
0.046097
0.058913
0.030263
0.068720
0.065372
-0.008549
-0.040786
0.056598
0.009470
0.044688
-0.051226
0.071864
0.015827
0.085988
0.029089
0.053825
0.112023
0.179156
0.187856
0.081574
0.113061
0.092751
0.067546
0.189372
0.127689
0.165235
0.143018
0.163397
0.214678
0.239383
0.204698
0.162039
0.138261
0.194333
0.148131
0.161199
0.193151
0.161121
0.129319
0.111744
0.129773
0.049015
0.169720
0.068042
0.071836
0.077441
0.052296
0.001942
0.031043
0.078733
0.042694
0.051102
-0.028720
0.016881
0.023512
0.047436
0.026833
0.052058
0.055398
-0.001292
-0.023096
-0.017624
0.041377
0.022531
-0.000082
-0.008388
-0.027677
0.050513
0.073719
0.285380
0.592606
0.891037
1.284863
1.266952
1.288384
1.053492
0.699842
0.421393
0.073880
-0.095272
-0.310502
-0.270453
-0.188167
-0.102406
-0.091474
-0.069950
-0.032292
-0.044111
-0.007734
-0.033638
0.017547
0.043063
0.040149
-0.007438
0.072303
-0.016865
-0.004209
-0.022913
0.076674
-0.003846
0.099292
0.160852
0.172605
0.063718
0.128949
0.197376
0.101769
0.144953
0.222513
0.278942
0.210063
0.277375
0.292821
0.321094
0.305029
0.312054
0.384970
0.380857
0.394691
0.431309
0.410047
0.395209
0.438383
0.443467
0.440873
0.422183
0.484526
0.405587
0.428855
0.395701
0.444739
0.321726
0.393722
0.347370
0.404521
0.323711
0.365041
0.288703
0.372946
0.346649
0.320928
0.198845
0.200226
0.264788
0.261998
0.193728
0.164567
0.175491
0.151958
0.034450
0.088776
0.027284
0.117855
0.028978
-0.024710
0.049448
0.000926
0.038418
-0.014810
0.009871
-0.035131
-0.070840
0.042578
-0.036310
-0.030437
-0.012396
0.015174
-0.068785
-0.043868
-0.103727
-0.056010
-0.061724
0.004556
-0.046370
-0.152930
-0.085777
-0.054562
-0.068906
-0.039658
-0.108349
-0.194559
-0.115910
-0.134449
-0.131350
-0.116298
-0.069225
-0.078511
-0.026321
-0.029577
-0.058678
-0.098667
-0.114709
-0.033592
-0.054805
-0.040517
-0.061257
-0.028357
-0.050195
-0.090461
-0.058754
-0.144666
-0.031379
-0.001302
-0.037008
-0.072745
-0.100669
-0.025808
-0.053971
-0.005038
-0.098052
-0.080695
-0.056249
-0.096761
-0.052050
-0.023578
-0.054335
-0.065229
-0.075931
-0.102309
-0.035454
0.049378
-0.093486
-0.081473
0.003834
-0.104801
-0.037302
-0.042322
-0.021502
-0.012217
-0.049933
0.012526
0.055627
-0.033672
-0.016084
0.017690
-0.000572
0.105810
-0.042374
0.007076
0.084059
0.145121
0.107253
0.060480
0.059054
0.129787
0.164129
0.046191
0.071374
0.048904
0.091810
0.072643
0.057771
0.103432
0.103494
0.019038
0.035191
0.044217
0.073951
0.025187
0.007389
-0.015727
-0.015524
-0.086345
-0.015925
-0.063127
-0.049996
-0.008722
-0.075927
-0.087367
-0.022643
-0.009229
-0.031733
-0.099984
-0.119529
-0.093192
-0.126827
-0.131193
-0.116150
-0.032239
-0.066448
-0.100023
0.007767
0.022099
0.075421
0.446225
0.764230
1.009936
1.278619
1.269024
1.094471
0.752080
0.441622
0.106907
-0.073399
-0.257699
-0.286921
-0.263990
-0.201606
-0.136772
-0.109881
-0.078429
0.004573
-0.048905
-0.019923
-0.045033
0.008140
-0.128410
0.010324
-0.025774
-0.082061
-0.018219
-0.075950
0.032987
0.054577
-0.000363
0.049682
0.117938
0.133696
0.056398
0.162484
0.157252
0.068281
0.215202
0.180530
0.213219
0.240390
0.228109
0.327025
0.238211
0.280053
0.321348
0.226739
0.350592
0.381714
0.415576
0.420501
0.374146
0.336412
0.410706
0.419292
0.448264
0.436691
0.396422
0.417028
0.448638
0.374409
0.449412
0.370648
0.342444
0.368222
0.344646
0.326296
0.296304
0.280364
0.218650
0.257583
0.257174
0.251087
0.271954
0.130221
0.162797
0.123255
0.114378
0.082251
0.111657
0.006943
0.018596
0.005080
0.084998
0.017672
-0.004516
-0.028984
-0.040083
0.016782
0.035960
0.015130
-0.048180
-0.044623
-0.032622
0.007122
-0.032843
0.034355
-0.101915
-0.018614
0.008328
0.061205
-0.020039
-0.001705
-0.041295
-0.005327
-0.034303
-0.047008
-0.027263
-0.090074
-0.089681
0.035779
-0.074970
-0.021584
-0.058105
-0.016626
0.010645
-0.031081
-0.054101
-0.056546
-0.038439
-0.085658
-0.080243
0.021123
0.010488
-0.060808
-0.059653
0.017919
-0.061961
-0.025533
-0.046649
-0.031736
0.033968
-0.037485
-0.024005
-0.015794
0.000235
-0.028856
0.002405
0.013905
0.005932
-0.015044
-0.022049
0.004366
-0.014164
-0.018184
-0.022644
0.061084
-0.039962
0.072968
-0.019128
0.011078
0.047354
0.013174
0.012540
0.008591
0.095251
-0.013580
0.075215
0.030875
0.041545
-0.026624
0.123829
0.055422
0.096848
0.135105
0.067120
0.076035
0.117990
0.077856
0.184579
0.132595
0.157639
0.124393
0.154772
0.084462
0.087549
0.143617
0.104902
0.225852
0.157486
0.119892
0.138039
0.082054
0.117421
0.110883
0.185206
0.036532
0.050582
0.062943
0.069211
-0.004002
0.071037
0.038734
0.083852
-0.077051
0.023619
-0.030699
0.000639
0.065009
0.011504
-0.008869
0.055034
0.025803
0.047595
0.048539
0.037883
0.016429
0.099434
-0.031101
-0.035145
0.042156
0.008657
0.285060
0.463014
0.741923
1.068480
1.205059
1.369520
1.214483
0.950692
0.657115
0.314081
0.084693
-0.184059
-0.294227
-0.133790
-0.180534
-0.048655
-0.043509
-0.024179
0.086525
0.126215
0.059777
0.066728
0.062505
0.032941
-0.024650
0.045763
-0.016460
0.021859
0.090263
0.122825
0.072558
0.101853
0.073942
0.160739
0.183152
0.165092
0.145876
0.200767
0.194134
0.172640
0.317911
0.242243
0.260787
0.382635
0.348295
0.344266
0.373719
0.374280
0.475002
0.400351
0.409299
0.522772
0.419500
0.482545
0.456934
0.479614
0.524353
0.519193
0.499802
0.523594
0.441397
0.554154
0.520322
0.450464
0.514577
0.505832
0.424678
0.455644
0.406646
0.392529
0.395919
0.329727
0.366231
0.288115
0.326744
0.304375
0.246872
0.209920
0.250391
0.238763
0.318144
0.091221
0.168691
0.133753
0.140883
0.163528
0.128694
0.132495
0.082100
0.115747
0.086141
0.097538
0.045106
0.071551
0.083059
0.058704
0.059319
0.100634
-0.011935
0.073644
0.011941
0.012002
-0.006697
-0.025632
0.018746
0.091577
0.019553
0.070076
0.109563
0.137270
0.124659
0.032917
0.047197
0.046517
0.022237
0.084399
-0.006415
-0.024658
-0.020680
0.196659
0.024114
0.090426
0.030047
0.099892
0.086127
0.071229
-0.001785
-0.052848
0.048071
-0.052025
0.024445
-0.031615
0.029882
0.041202
0.122930
0.075133
0.050957
0.059594
0.043156
-0.003895
-0.010577
0.116306
0.047305
-0.055822
0.080324
0.046435
-0.022560
0.015331
0.090786
0.083446
0.058271
0.060157
0.051177
0.069785
0.049404
0.026520
0.080021
0.119790
0.080219
0.098967
0.105325
0.071831
0.132463
0.090823
0.077506
0.101107
0.187628
0.174137
0.196742
0.197158
0.173608
0.182650
0.242471
0.196530
0.162039
0.122501
0.185648
0.158214
0.228554
0.130533
0.252964
0.119949
0.231819
0.131524
0.172498
0.152294
0.141335
0.103835
0.146510
0.091765
0.107266
0.050782
0.091258
0.061657
0.015900
-0.010302
0.063383
-0.025979
0.041344
0.094292
-0.011898
0.052279
0.066382
0.078195
0.022671
0.064101
0.086371
0.024044
-0.015045
0.050405
0.005361
-0.020512
0.042865
0.091343
0.262807
0.323056
0.710979
1.032568
1.312421
1.317221
1.293313
1.138034
0.749782
0.403837
0.088571
-0.184866
-0.222942
-0.132950
-0.156903
-0.101407
0.017878
-0.070297
-0.016529
0.044603
0.038417
-0.038390
0.066009
0.075546
0.057129
0.149423
0.090460
0.090414
0.057976
0.065837
0.061434
0.060676
0.126268
0.145610
0.115265
0.147454
0.132791
0.188562
0.207441
0.124582
0.207132
0.185363
0.270954
0.293350
0.331480
0.348387
0.396373
0.354708
0.382049
0.390231
0.434514
0.440173
0.442788
0.450762
0.443470
0.421946
0.412782
0.498299
0.460482
0.465417
0.470352
0.502664
0.512463
0.431746
0.474512
0.437048
0.449220
0.367447
0.431128
0.285241
0.366430
0.256216
0.279506
0.339104
0.264807
0.258181
0.296686
0.192226
0.258174
0.296228
0.172877
0.081844
0.078187
0.113198
0.082598
0.058857
0.108378
0.038395
-0.011107
0.006572
0.047297
0.010096
0.048079
0.069528
0.040935
-0.028376
-0.025308
0.030507
-0.030227
0.018241
-0.021253
-0.020134
0.041347
-0.095341
-0.047009
0.029496
-0.061689
-0.046399
-0.036234
-0.024474
-0.018082
-0.077334
-0.040411
-0.058068
0.001387
-0.034186
-0.038477
-0.066903
-0.001822
-0.041690
-0.036227
-0.009516
-0.024285
-0.016086
-0.021137
-0.006411
-0.046176
-0.014295
-0.088760
-0.024823
-0.008688
-0.047065
-0.066775
-0.071296
0.029943
-0.058712
-0.113791
-0.020166
-0.002321
-0.096956
-0.025420
-0.056053
-0.002447
-0.038357
0.002247
0.047786
-0.022224
-0.010526
-0.050836
-0.120334
-0.018444
-0.022539
-0.096123
-0.055753
-0.006183
-0.035267
-0.064408
-0.059602
0.022276
0.007685
-0.003927
0.009057
0.018130
-0.021636
0.039937
0.085651
0.061800
0.039623
0.014095
0.077571
0.041226
0.082239
0.072867
0.027023
0.115885
0.018420
0.159798
0.085594
0.096773
0.057696
0.028056
0.005199
0.036074
0.015736
0.066386
0.005158
0.068618
-0.018212
-0.017197
0.006091
-0.016762
-0.033781
-0.060838
-0.041057
-0.076415
-0.068214
-0.139756
-0.120812
0.030821
-0.164837
-0.104517
-0.027854
-0.086208
-0.120374
-0.058571
-0.090141
-0.114116
-0.016013
-0.131641
-0.107249
-0.075573
-0.149538
-0.102137
-0.168760
0.017797
0.213864
0.473324
0.817295
1.191900
1.229735
1.226919
0.993648
0.715473
0.380692
-0.004244
-0.186248
-0.334104
-0.279308
-0.342365
-0.173925
-0.250199
-0.051113
-0.080442
-0.148240
-0.043489
-0.058608
-0.120170
-0.096545
-0.131288
-0.097473
-0.123948
-0.093380
-0.034598
-0.006753
0.051114
-0.021852
-0.029743
0.006059
0.019573
0.036074
0.069044
0.122997
0.148366
0.114295
0.180316
0.111489
0.209561
0.126335
0.251804
0.226634
0.238749
0.238114
0.321858
0.360762
0.323462
0.360765
0.308403
0.393478
0.347329
0.407691
0.418730
0.439366
0.367859
0.490470
0.383395
0.384611
0.333681
0.428261
0.343931
0.318729
0.372285
0.226791
0.290984
0.324198
0.304194
0.266472
0.309012
0.256194
0.202169
0.217438
0.141068
0.144312
0.045239
0.072324
0.099575
0.144590
0.076922
0.056369
-0.007593
0.020617
-0.045294
-0.028272
-0.033098
-0.017146
-0.114690
-0.129005
-0.038733
-0.001589
-0.071534
-0.105546
-0.177053
0.001862
-0.144759
-0.116517
-0.127985
-0.005330
-0.067349
-0.052572
-0.124241
-0.112490
-0.090648
-0.070895
-0.100941
-0.088100
-0.080750
-0.102782
-0.080260
-0.079786
-0.137228
-0.094762
-0.096236
-0.129467
-0.094813
-0.118064
-0.065921
-0.150775
-0.102874
-0.026111
-0.104290
-0.099290
-0.092910
-0.092867
-0.009475
-0.122098
-0.126428
-0.090133
-0.081326
-0.038427
-0.099408
-0.096626
-0.068690
-0.101855
-0.150008
-0.090787
-0.085824
-0.139811
-0.069976
-0.113722
-0.017133
-0.146184
-0.131470
-0.086342
-0.069753
-0.054478
-0.127062
-0.142054
-0.081557
-0.062547
-0.103207
-0.082152
-0.054048
-0.044267
-0.035783
-0.036304
-0.089572
0.017796
0.017751
-0.055958
-0.054596
0.025739
0.085288
0.045084
0.034466
0.154450
0.045096
0.045701
0.068321
0.078498
0.168514
0.042900
0.141356
0.122616
0.147337
0.135435
0.121466
0.131313
0.103395
0.078943
0.122473
0.090102
0.009334
0.005530
-0.029060
-0.061798
0.019882
-0.025805
0.049614
0.000147
-0.022735
-0.052335
-0.013978
-0.059478
-0.047729
-0.018966
-0.000163
-0.068333
-0.099050
0.006543
-0.023637
-0.003223
-0.061683
-0.008011
-0.050156
0.015667
-0.046659
-0.042197
-0.090649
-0.071925
0.047059
0.174884
0.419183
0.763833
1.067576
1.247686
1.243570
1.135759
0.909827
0.477587
0.206220
-0.093371
-0.207078
-0.334439
-0.297599
-0.112286
-0.120028
-0.076702
-0.075417
-0.055155
-0.012081
0.056380
-0.010067
0.035196
0.060659
0.001110
0.055935
0.024264
0.013791
0.084923
0.017634
0.037139
0.136994
0.136744
0.110133
0.145094
0.100103
0.121957
0.168159
0.124757
0.142105
0.268593
0.261075
0.281653
0.335232
0.217421
0.358168
0.351038
0.312702
0.431199
0.425214
0.450450
0.453695
0.508115
0.445624
0.401511
0.478368
0.488192
0.455304
0.437447
0.526575
0.467115
0.473600
0.385172
0.353541
0.474296
0.471216
0.350284
0.429631
0.355323
0.401189
0.372361
0.303408
0.204754
0.241106
0.303325
0.332091
0.193977
0.241540
0.176678
0.225284
0.255060
0.176574
0.096328
0.124519
0.135308
0.078026
0.103106
0.089911
0.110933
0.114936
0.043873
0.096530
0.008727
0.017426
0.019547
-0.000159
-0.019688
0.065667
0.066859
0.035667
0.061789
0.001613
0.021375
0.028951
0.018030
0.054873
0.044546
-0.024785
0.017010
-0.002584
0.030760
-0.035338
-0.004175
-0.002112
0.054705
0.062934
0.044570
0.008723
-0.009404
-0.050609
0.068413
0.015106
0.075766
0.135234
0.088882
0.060171
0.060390
-0.002665
-0.016909
0.096344
-0.026442
0.011555
0.068242
0.119108
0.042335
0.044106
0.017982
0.040986
0.004733
-0.000465
0.092020
0.099913
0.004517
0.069541
0.055009
0.061923
0.050606
-0.054718
0.027848
0.043436
0.066527
0.067378
0.105819
0.055041
0.027902
0.054345
0.145897
0.108495
0.066967
0.094082
0.074283
0.143323
0.086912
0.125492
0.083387
0.098674
0.144159
0.169568
0.219965
0.208981
0.163102
0.197631
0.223434
0.207187
0.223122
0.218470
0.324560
0.159410
0.199971
0.230251
0.251903
0.188102
0.147448
0.174743
0.177159
0.227117
0.208350
0.117687
0.129542
0.081866
0.167948
0.136090
0.132918
0.072792
0.098053
0.094266
0.019497
0.067637
0.074999
0.005355
0.050038
-0.009835
0.116601
0.083960
0.064117
0.007694
0.110307
0.121435
0.071400
0.072276
0.024155
0.037736
0.019314
0.090047
0.273288
0.477298
0.746489
1.053563
1.275651
1.382011
1.299395
1.090436
0.790174
0.363547
0.122372
-0.198192
-0.242365
-0.109154
-0.166931
-0.086760
0.015159
0.036915
0.143584
0.057748
0.011258
0.086906
0.158852
0.090832
0.101770
0.127238
0.123196
0.189206
0.126540
0.089998
0.120331
0.189541
0.162387
0.257956
0.243687
0.236387
0.218397
0.263344
0.337773
0.277347
0.385750
0.355804
0.347621
0.355333
0.352779
0.405339
0.447417
0.410749
0.440567
0.379198
0.503821
0.546537
0.509324
0.492367
0.554171
0.594719
0.561254
0.513108
0.562450
0.582684
0.637248
0.562147
