-0.021575
-0.024407
0.045529
-0.002705
0.021280
-0.025183
-0.018731
-0.097754
-0.071699
-0.034242
0.020569
-0.043562
0.015575
0.094473
0.074249
0.017620
0.045067
0.099556
-0.009500
0.085236
0.059978
0.060229
0.067340
-0.020212
0.029418
-0.061852
-0.038366
-0.016392
-0.037937
0.078671
0.014446
0.033933
0.035184
0.020325
0.048697
0.086175
0.114283
0.062908
0.111420
0.174103
0.103545
0.148492
0.174666
0.162091
0.161874
0.110491
0.095356
0.200352
0.200286
0.228932
0.151475
0.141878
0.157252
0.147917
0.246827
0.200990
0.192573
0.175652
0.134430
0.144528
0.009896
0.149372
0.159095
0.187314
0.145346
0.146811
0.123865
0.173997
0.026028
0.063293
0.104162
0.136950
0.067879
0.099658
0.034424
0.077554
0.031877
0.036117
0.081483
0.118095
0.034873
0.135046
0.011024
0.068721
0.090578
0.082478
0.070251
0.041112
0.051299
0.171880
0.005974
-0.010801
-0.085814
-0.039333
0.001215
0.226826
0.428895
0.795918
1.083011
1.320669
1.471155
1.417393
1.183318
0.879417
0.498087
0.228145
-0.032436
-0.166793
-0.183541
-0.242154
-0.176343
-0.092040
-0.023426
0.004649
-0.035979
0.037616
0.037149
0.126027
-0.005433
0.015472
0.086766
0.086492
0.069757
0.098900
0.074926
0.080411
0.203387
0.080215
0.159987
0.196946
0.082750
0.178975
0.131036
0.125062
0.114681
0.228328
0.189199
0.209924
0.277330
0.248648
0.293361
0.225106
0.238121
0.257276
0.358265
0.314743
0.327062
0.356778
0.460042
0.402406
0.413549
0.441351
0.474698
0.567660
0.506853
0.516846
0.601954
0.567042
0.605890
0.522358
0.520880
0.610906
0.672096
0.644918
0.635819
0.553934
0.575544
0.555557
0.565855
0.598385
0.508909
0.483436
0.495443
0.487485
0.455131
0.453292
0.360088
0.435291
0.342655
0.390942
0.360428
0.281827
0.270915
0.269897
0.343385
0.240624
0.276487
0.269008
0.181626
0.151676
0.213098
0.175783
0.102704
0.052518
0.106153
0.125231
0.231241
0.152645
0.033430
0.152661
0.090754
0.136480
0.010354
0.044977
0.202079
0.109861
0.129231
0.134844
0.120156
0.195848
0.170850
0.099916
0.104200
0.071393
0.059771
0.104110
0.043415
0.064972
0.118265
0.105939
0.170108
0.058694
0.115602
0.025464
0.111326
0.141382
0.009183
0.100708
0.048620
0.051279
0.136560
0.106504
0.161424
0.074264
0.023388
0.129507
0.056228
0.052693
0.040706
0.165538
0.053848
0.060879
0.144266
0.042048
0.056321
0.119885
0.032070
0.054620
0.206194
0.013202
0.061760
0.109127
0.117064
0.051175
0.064519
0.032158
0.052768
0.036192
0.057710
0.089591
0.012743
0.063088
0.041967
0.105005
0.123828
0.043111
0.117062
0.091235
0.093641
0.119725
0.072212
0.036033
0.075403
0.154329
0.066961
0.055039
0.059881
0.058502
0.083614
0.106132
0.076369
0.077056
0.131073
0.159697
0.123971
0.171805
0.071723
0.132401
0.153410
0.102722
0.207211
0.192253
0.259960
0.225059
0.206190
0.200437
0.265511
0.281189
0.203684
0.225362
0.269266
0.219418
0.202084
0.193416
0.302028
0.153163
0.237472
0.239743
0.193630
0.165402
0.226985
0.165086
0.218753
0.169354
0.139589
0.067706
0.142804
-0.035378
0.029733
0.037261
0.028138
0.075712
0.134106
0.033815
0.130299
0.082234
0.128330
-0.066887
0.078764
-0.020165
-0.013153
0.052531
0.026910
0.043780
0.074786
0.116194
0.037781
0.094335
-0.002374
0.034582
0.076985
-0.094739
-0.018721
-0.002843
0.084075
0.106364
0.430664
0.765386
1.090362
1.303440
1.473311
1.325069
1.140709
0.837937
0.340482
0.243612
-0.068177
-0.232757
-0.284336
-0.227957
-0.208208
-0.129679
-0.058641
0.003845
-0.025748
-0.025762
0.124538
-0.020283
0.115104
0.010515
0.055684
-0.002656
0.033124
0.044346
-0.021006
0.056465
0.036371
0.085478
0.131614
0.081995
0.083568
0.068381
0.098548
0.177788
0.139940
0.120197
0.132168
0.206581
0.080963
0.078212
0.207837
0.204976
0.254124
0.231276
0.241661
0.282229
0.380868
0.288178
0.395170
0.326676
0.308929
0.408950
0.375384
0.402752
0.357515
0.372245
0.451287
0.465236
0.476506
0.489053
0.505449
0.468324
0.549240
0.539790
0.567530
0.517820
0.435754
0.459048
0.519741
0.503745
0.475148
0.396178
0.308266
0.381459
0.464085
0.387204
0.385642
0.317251
0.312705
0.276705
0.198534
0.234393
0.167517
0.131476
0.154429
0.204221
0.173380
0.079373
0.047158
0.112878
0.121276
0.150797
0.085138
0.005682
0.006692
0.081450
0.048718
0.115512
0.107691
0.035491
0.016320
-0.011182
-0.004738
-0.021419
0.006280
-0.031208
-0.012590
0.003321
0.004610
-0.014592
0.050179
-0.074016
-0.051132
0.049571
0.001237
0.017302
-0.015458
-0.005173
0.022627
-0.090541
-0.061062
0.032641
-0.057359
-0.075190
-0.018505
-0.077259
0.031416
0.014521
-0.029064
-0.011247
0.024764
0.002731
-0.072499
-0.000844
-0.047193
-0.011160
-0.048395
0.065885
-0.100431
0.010089
-0.049367
-0.046632
0.009294
-0.071936
-0.058478
-0.048907
-0.071376
-0.092020
-0.049780
-0.026695
0.017934
-0.025313
-0.022084
-0.049547
-0.026287
-0.075852
0.089485
-0.076565
-0.054297
-0.041193
-0.065409
-0.032508
0.015503
-0.062344
-0.044987
0.009374
-0.004731
-0.017973
-0.043211
-0.161772
0.054434
-0.040058
0.017932
-0.008980
-0.055324
-0.110085
-0.038303
0.005945
-0.052904
-0.006184
-0.009589
-0.059911
-0.046789
0.020899
0.017242
0.047257
-0.026449
0.052552
0.052969
0.111647
0.044869
0.036257
-0.003875
0.042414
0.100936
0.140458
0.104885
0.120268
0.143160
0.091329
0.137635
0.164075
0.174317
0.168390
0.126576
0.123263
0.087366
0.097482
0.128121
0.062333
0.043231
0.045607
0.081867
0.052535
0.045818
0.025876
-0.043246
-0.017944
0.006836
-0.024424
0.017953
-0.044093
-0.039846
0.024254
-0.025753
-0.026588
-0.019220
0.003759
-0.039472
0.013979
0.018175
-0.044605
0.039055
0.016106
-0.014369
-0.028942
-0.001930
-0.052550
-0.085148
-0.053798
-0.077519
-0.030129
-0.074266
-0.058482
-0.101532
0.100105
0.351828
0.720068
1.057649
1.224508
1.275357
1.315455
1.137621
0.753995
0.409543
0.038969
-0.109284
-0.297994
-0.354264
-0.349632
-0.313409
-0.195151
-0.134480
-0.059633
-0.096677
0.033762
-0.002092
-0.033305
0.004944
0.018524
-0.027595
-0.041111
-0.089891
-0.047332
-0.051397
0.091838
-0.033013
0.053059
0.015487
0.028815
0.035753
-0.017250
-0.045317
0.013898
0.057016
0.013720
0.123156
0.095572
0.043553
0.113632
0.074633
0.106114
0.128224
0.157608
0.221239
0.090328
0.251563
0.315629
0.323651
0.313291
0.322275
0.299816
0.429021
0.449982
0.469586
0.387883
0.433848
0.475340
0.441450
0.516197
0.495368
0.496482
0.516667
0.463069
0.455994
0.448687
0.491553
0.515536
0.460966
0.437285
0.439454
0.338116
0.431805
0.357636
0.351681
0.300270
0.291051
0.278817
0.261995
0.303451
0.204701
0.203624
0.259344
0.175849
0.233197
0.119749
0.157884
0.176535
0.102197
0.138121
-0.006240
0.040835
0.031031
0.027176
0.056983
0.057516
0.107812
0.038798
0.038136
0.013203
0.010002
0.039451
-0.000085
0.084305
0.055674
-0.072377
0.046103
-0.028044
0.042096
-0.029279
0.088537
-0.050384
-0.021510
-0.006521
0.055363
0.025387
0.061507
0.008457
-0.038144
-0.069399
-0.020924
0.017441
-0.013230
-0.073805
0.048145
0.059474
0.004048
-0.066761
0.054138
-0.056489
0.044644
-0.017983
-0.068320
0.036305
0.042164
0.036300
-0.026879
0.081171
-0.012171
0.040194
0.009196
0.028417
-0.021225
0.044986
-0.035349
-0.001683
0.031243
-0.024039
0.018974
-0.000712
-0.035346
0.017487
0.054329
0.047295
0.009906
0.074346
-0.012306
-0.018333
0.018248
-0.038826
0.009737
0.022921
0.034634
0.050497
0.080922
0.001675
0.043476
0.048820
0.022749
0.111287
0.052488
0.031378
0.027339
0.002043
-0.000367
-0.011514
0.014645
0.057197
0.046651
0.029154
0.140780
0.072650
0.097515
0.017386
0.068050
0.051079
0.052695
0.106533
0.110129
0.099905
0.189145
0.140755
0.104451
0.247269
0.139859
0.213305
0.209821
0.120614
0.293041
0.185256
0.239033
0.203730
0.218201
0.270207
0.151809
0.239871
0.125976
0.196954
0.149594
0.169606
0.127264
0.153662
0.211809
0.078396
0.095743
0.067641
0.085399
0.107307
0.048786
0.012143
0.107195
0.124136
0.082894
0.004478
0.033900
0.012846
0.153545
0.079812
0.009346
0.066853
0.073861
0.053273
0.030197
-0.033975
0.119054
0.092497
0.016967
0.006645
0.076542
0.082039
0.060237
0.013036
0.038036
0.023771
0.079183
0.197567
0.435510
0.763023
1.116359
1.327730
1.459780
1.500000
1.193509
0.892088
0.592465
0.280330
-0.072411
-0.152286
-0.343213
-0.292443
-0.152532
0.010996
-0.029286
-0.046657
0.002704
0.028040
0.060077
0.146925
0.020552
0.088330
0.103299
0.056501
0.090074
-0.012100
0.113995
0.154449
0.167900
0.116601
0.114779
0.147124
0.234465
0.176063
0.219304
0.157756
0.191726
0.171632
0.203664
0.124336
0.232638
0.299661
0.233039
0.285189
0.370662
0.322391
0.379215
0.255254
0.306920
0.379441
0.346856
0.465841
0.478088
0.422892
0.444027
0.477859
0.550039
0.476363
0.538569
0.534238
0.585980
0.536706
0.598174
0.586427
0.524471
0.597920
0.566199
0.599038
0.625589
0.529700
0.565581
0.487985
0.446471
0.481321
0.520743
0.451159
0.451057
0.427852
0.420397
0.403587
0.415196
0.430863
0.387448
0.314006
0.266303
0.278302
0.331160
0.250818
0.155077
0.339435
0.284068
0.178615
0.221781
0.178458
0.200666
0.072688
0.156597
0.110018
0.159138
0.174444
0.121138
0.158809
0.166779
0.087818
0.108335
0.052869
0.183345
0.114842
0.135496
0.091533
0.095774
0.178868
0.168970
0.083774
0.134012
0.060500
0.104540
0.071320
0.040720
0.092832
0.078408
0.108457
0.135276
0.062474
0.142002
0.038710
0.090582
0.109777
0.122278
0.148339
0.056915
0.105510
0.065413
0.031724
0.084780
0.064286
0.114651
0.049404
0.098978
0.115647
0.143342
0.108414
0.102033
-0.003477
0.023118
0.086951
0.109054
-0.021022
0.055066
0.086562
0.116212
0.032320
0.036010
0.067486
0.041502
0.108852
0.084630
0.045937
0.087306
0.116899
0.072354
0.081865
0.077426
0.121505
0.073934
0.067237
0.111195
0.100472
0.124915
0.141853
0.042431
0.103516
0.075715
0.120581
0.055123
0.020756
0.045531
0.144626
0.077115
0.037297
0.077793
0.156965
0.123908
0.054536
0.135901
0.052648
0.203143
0.162090
0.112926
0.127064
0.238050
0.143651
0.176068
0.258031
0.256501
0.247350
0.215002
0.137557
0.197295
0.159905
0.216792
0.247203
0.257908
0.227370
0.296454
0.264752
0.116459
0.244991
0.220517
0.201540
0.137352
0.246966
0.148668
0.197670
0.090033
0.126200
0.077576
0.120171
0.078393
0.119227
0.094704
0.040207
0.111609
0.054063
0.002968
0.025809
0.115830
0.070168
0.119201
0.069418
0.086886
0.105409
0.092943
0.065210
-0.047740
0.147265
0.010896
0.053257
0.037583
0.022299
0.033647
0.024091
0.088964
-0.089315
-0.051275
0.012911
-0.006133
0.192659
0.401289
0.707615
1.068466
1.302494
1.408719
1.433889
1.134439
0.877267
0.480618
0.208144
-0.071795
-0.180347
-0.264005
-0.191542
-0.178737
-0.127699
-0.054016
0.020572
0.025174
0.029013
-0.048550
-0.020168
-0.015675
-0.003371
-0.005647
0.000774
-0.046281
0.099930
0.009849
-0.054145
0.033038
0.109756
-0.013190
-0.018113
0.028841
0.048046
0.145004
0.159987
0.074250
0.089611
0.174695
0.107021
0.146847
0.128991
0.164229
0.175471
0.177456
0.214840
0.227886
0.279064
0.257397
0.210296
0.261051
0.292694
0.334869
0.394571
0.374959
0.435557
0.363460
0.459053
0.417647
0.484833
0.532878
0.518439
0.479129
0.499837
0.459498
0.450864
0.444475
0.425474
0.463320
0.468549
0.464936
0.466903
0.439224
0.402673
0.364957
0.363941
0.339586
0.358598
0.297180
0.255597
0.203849
0.265794
0.244588
0.237999
0.127811
0.157230
0.198117
0.109281
0.135420
0.197634
0.125272
0.106434
0.075280
0.028523
0.025552
0.005410
0.051181
0.020963
-0.009961
0.031705
0.006104
-0.036813
0.058601
-0.038258
-0.044226
-0.018423
0.005572
-0.123402
-0.018357
-0.026340
-0.024469
-0.116314
-0.012465
-0.070749
-0.021525
-0.078801
-0.008548
-0.017251
-0.022996
-0.037866
-0.060277
-0.004352
-0.005238
-0.024968
0.001179
-0.071802
-0.128704
-0.016040
0.001005
-0.142821
-0.084820
-0.087282
0.010494
-0.053670
-0.064428
-0.021620
-0.060460
-0.056453
-0.108710
-0.070744
-0.066117
-0.072199
-0.074489
-0.112140
-0.056456
-0.127077
0.100277
-0.072856
-0.008840
-0.006906
-0.112400
-0.069633
-0.028317
-0.060984
-0.038381
-0.090787
-0.164661
-0.059253
-0.119429
-0.115401
-0.084737
-0.066172
-0.026921
-0.058828
-0.064824
-0.034565
-0.227872
-0.022120
-0.025836
-0.059278
-0.031539
-0.098910
-0.095441
-0.094453
-0.056480
-0.086032
-0.091893
-0.024881
-0.079240
-0.078752
-0.049300
-0.097303
-0.088231
-0.082625
-0.078121
0.033371
-0.046823
-0.053207
-0.077967
-0.081208
0.012083
0.025108
0.024931
0.054863
0.013956
0.079950
0.018617
0.096865
0.121860
0.083709
0.111918
0.096715
0.051677
0.029997
0.080423
0.120582
0.127908
0.099758
0.076482
0.023413
0.068237
0.001231
0.043073
-0.067772
0.084968
-0.021057
-0.016291
-0.056720
-0.078271
-0.024449
-0.066117
-0.105971
-0.019224
-0.084803
-0.068479
-0.080496
-0.085843
-0.137088
-0.057703
-0.036963
-0.060077
-0.032174
0.008628
-0.019736
-0.138898
-0.094768
-0.102366
-0.114017
0.031126
-0.095972
0.005708
-0.183589
-0.121128
-0.133882
-0.185585
-0.137753
-0.008218
-0.005959
0.337970
0.601978
1.028747
1.243972
1.344230
1.192384
1.031849
0.683901
0.400637
-0.003341
-0.201997
-0.333507
-0.394848
-0.369467
-0.333348
-0.162418
-0.146312
-0.012850
-0.116881
-0.063307
-0.089575
-0.087761
-0.039319
-0.058957
-0.085746
-0.085361
-0.063987
-0.020370
-0.013390
0.001323
-0.059386
-0.089132
-0.065638
-0.067087
-0.042506
0.031614
-0.045758
0.007482
0.042229
0.016669
0.068672
0.050364
0.051978
0.014678
0.056199
0.103618
0.032092
0.144796
0.229344
0.249874
0.233095
0.252310
0.171968
0.169657
0.227902
0.298216
0.373873
0.382132
0.353623
0.404739
0.320235
0.412888
0.370306
0.372487
0.455324
0.504660
0.437877
0.396536
0.467734
0.404604
0.487629
0.391337
0.365680
0.448618
0.375699
0.414046
0.329744
0.376887
0.353820
0.306586
0.277015
0.232282
0.195719
0.168346
0.192109
0.127607
0.168047
0.115417
0.127596
0.096546
0.068424
0.073158
0.068093
0.077084
0.027514
0.007429
-0.009826
0.032627
0.062130
0.058211
0.021072
-0.004234
-0.093190
0.050377
-0.072016
0.036026
-0.097748
-0.040863
-0.064284
-0.155859
-0.085217
0.011820
-0.019916
-0.016056
0.035860
-0.135896
-0.095538
-0.062775
-0.033094
-0.029962
-0.024767
-0.035543
-0.046448
-0.038644
-0.073567
-0.048010
-0.072226
0.012351
-0.052758
-0.082204
-0.164829
-0.015691
0.001107
-0.059041
-0.092349
-0.100897
-0.046739
-0.041518
-0.112419
-0.039238
-0.055129
0.030401
-0.056483
-0.014034
-0.009257
-0.027083
-0.008249
-0.000065
-0.057118
-0.042046
-0.056857
-0.099759
-0.030466
-0.009728
-0.008335
-0.020931
-0.051753
0.019182
-0.060865
0.017318
0.014221
-0.050445
-0.003512
0.002297
0.005906
-0.044794
-0.072350
0.004925
-0.007987
-0.010217
-0.047225
0.022555
-0.008251
0.013940
-0.032797
0.082277
-0.012209
-0.083451
0.002143
-0.084499
-0.018490
0.000790
0.009343
0.072139
0.027968
0.040062
0.019511
0.095667
0.034466
0.020830
0.125379
0.021628
0.090475
0.091449
0.107467
0.114367
0.094878
0.114082
0.175254
0.223575
0.108483
0.191801
0.216449
0.212188
0.131665
0.077535
0.169007
0.153189
0.190182
0.146964
0.110048
0.208000
0.130280
0.128628
0.117680
0.044345
0.147408
-0.011466
0.089908
0.062399
0.074829
0.055261
0.042751
0.002562
-0.001714
-0.083179
0.025271
0.063429
0.039955
0.001509
-0.005964
0.013994
0.001474
0.031398
-0.061161
0.016222
0.071309
-0.004431
0.099949
0.012202
-0.003400
0.019277
0.047793
-0.002230
0.036616
-0.002847
-0.071205
-0.027745
-0.024360
0.074119
0.422381
0.728221
1.044448
1.220458
1.468568
1.436526
1.161144
0.857457
0.541618
0.142218
-0.161876
-0.209992
-0.324026
-0.271800
-0.081934
-0.029333
-0.120172
0.041001
0.020128
0.064632
0.044785
0.036035
0.081939
0.078564
0.042342
0.093158
0.064619
0.020928
0.061957
0.030263
0.076764
0.099365
0.134369
0.075958
0.168980
0.082037
0.015111
0.115161
0.171788
0.122763
0.231271
0.143079
0.115201
0.211394
0.248521
0.212199
0.207308
0.259299
0.232350
0.335572
0.309851
0.391991
0.408024
0.370530
0.411132
0.362008
0.385248
0.436807
0.474787
0.467641
0.499963
0.564548
0.492074
0.497040
0.488884
0.560159
0.635073
0.517908
0.552447
0.478010
0.611493
0.570767
0.491583
0.499464
0.439884
0.491344
0.483426
0.441130
0.430999
0.367846
0.383490
0.345991
0.372954
0.281852
0.303647
0.226739
0.229091
0.277844
0.188732
0.158744
0.208818
0.131679
0.177175
0.084678
0.118903
0.149472
0.198708
0.129391
0.103507
0.104426
0.108085
0.131285
0.008400
0.156152
0.090273
0.001010
0.088220
0.063630
0.069868
0.001999
0.058882
0.055838
0.014843
0.021740
0.021523
0.044068
0.081893
0.049666
-0.067917
-0.025371
0.077686
0.006334
0.071998
0.075410
0.022207
-0.014892
0.097734
0.087283
-0.006790
0.107937
0.001168
0.104807
-0.005025
0.052383
-0.013320
-0.028627
-0.027501
-0.013791
0.074385
0.119708
0.014359
0.088917
0.068799
0.078310
0.084560
0.077509
0.098477
0.041318
0.009457
-0.009597
0.020631
0.070165
0.001377
-0.016738
0.081637
0.025768
0.019819
-0.004397
-0.012717
0.023217
0.059144
0.081841
0.052298
-0.026811
0.070963
0.024993
0.015813
-0.019160
0.004511
0.058886
0.055472
-0.000251
0.118572
0.082650
0.092392
-0.032525
0.005111
0.011131
0.002788
-0.037011
0.062110
0.004377
0.084695
0.091345
-0.038231
-0.019978
0.036279
0.011615
0.069921
0.031637
0.099889
0.096895
0.125033
0.070887
0.097348
0.147094
0.166816
0.156744
0.106239
0.198689
0.175501
0.137454
0.199235
0.195087
0.182929
0.172009
0.186395
0.217176
0.102900
0.217200
0.102987
0.275189
0.127867
0.113631
0.091996
0.104871
0.172862
0.177230
0.069483
0.049119
-0.032552
0.068328
0.150698
0.042881
-0.025438
0.005381
0.027662
0.034913
0.006891
-0.001381
0.012202
-0.031084
-0.022119
0.006150
-0.041940
0.005788
0.007555
-0.030478
0.056177
0.028276
-0.018745
0.016845
-0.007873
0.039935
-0.001296
-0.020898
-0.020640
-0.023365
-0.010940
0.142720
0.411689
0.765027
1.047208
1.229748
1.413208
1.360539
1.093289
0.853366
0.459141
0.138904
-0.088507
-0.298997
-0.202594
-0.294764
-0.255019
-0.157952
-0.093513
-0.147394
-0.041106
-0.011645
-0.045377
0.045553
-0.019710
0.015726
-0.014058
-0.006120
0.006516
-0.000506
0.116546
-0.065617
-0.012276
0.080415
0.007117
0.019133
-0.001534
-0.055066
-0.035596
0.037828
0.061719
0.034096
0.070134
0.139406
0.148700
0.070586
0.047163
0.178188
0.199547
0.156261
0.245046
0.201091
0.183771
0.290776
0.238292
0.335447
0.258558
0.366546
0.388376
0.371169
0.360176
0.391611
0.538962
0.430903
0.450738
0.487337
0.403029
0.506637
0.422035
0.473992
0.492516
0.489502
0.539486
0.451693
0.464083
0.502562
0.358995
0.396617
0.445115
0.331246
0.272902
0.305716
0.279452
0.248966
0.266156
0.266218
0.272432
0.169202
0.160754
0.102140
0.137659
0.075513
0.142233
0.179715
0.032473
0.106145
0.034134
0.061464
-0.006332
0.021173
-0.088075
-0.012297
0.042638
-0.075764
-0.026349
0.009794
-0.023622
-0.147921
-0.074493
-0.042660
-0.028110
-0.017951
-0.027485
0.000508
-0.073836
-0.032758
-0.099283
-0.068560
-0.072421
-0.075241
-0.076174
-0.061273
-0.075112
-0.107547
-0.047119
-0.016366
-0.045881
-0.126834
-0.118844
0.016539
-0.042335
-0.133821
-0.083437
-0.091086
-0.021584
-0.033229
-0.096698
-0.052492
-0.068537
-0.023142
-0.057642
-0.177786
-0.151423
-0.023254
-0.056732
-0.028820
-0.106507
-0.126152
-0.086489
0.003115
-0.150330
-0.062464
-0.034992
-0.158777
-0.020854
-0.098497
-0.148395
-0.087602
-0.065685
-0.068269
-0.111813
-0.140455
-0.068187
-0.086794
-0.141432
-0.084800
-0.114544
-0.090632
-0.128077
-0.038823
-0.089096
-0.055670
-0.048032
-0.127356
-0.142269
-0.119593
-0.079103
-0.154913
-0.100508
-0.110107
-0.109012
-0.087475
-0.060854
-0.111573
-0.062286
-0.078338
-0.068718
0.026600
-0.053859
-0.061881
0.015998
0.059058
-0.075114
-0.023951
-0.010542
0.025684
-0.001225
0.022896
-0.020750
-0.005482
0.075598
0.070174
0.038434
0.023746
0.083349
0.050263
0.137633
0.018489
0.087042
0.016364
0.066415
0.072827
0.029595
0.050662
0.008496
-0.024579
0.036217
0.037692
-0.056645
0.010383
0.048463
-0.058260
-0.069657
-0.060176
-0.094591
-0.074223
-0.008862
-0.037963
-0.056538
-0.080925
-0.060885
-0.052718
-0.089130
-0.110816
-0.105217
-0.087482
-0.111672
-0.045961
-0.097548
-0.038786
-0.112821
-0.067922
-0.044027
-0.084151
-0.083053
-0.048442
-0.141530
-0.115500
-0.106372
-0.163141
-0.062878
0.062619
0.309113
0.555932
0.996843
1.175731
1.246082
1.281781
0.943667
0.662076
0.408585
0.020825
-0.089830
-0.291765
-0.410568
-0.441847
-0.320549
-0.238369
-0.214557
-0.119577
-0.193091
-0.142781
-0.155030
-0.088443
-0.001489
-0.028881
-0.142539
-0.124110
-0.093452
-0.072029
-0.084880
-0.070563
-0.068393
-0.012669
-0.011332
-0.087145
-0.014362
-0.077453
-0.066268
-0.045528
0.034857
0.006100
0.028948
0.032310
0.038211
0.049764
0.116211
0.117441
0.182226
0.211774
0.127385
0.163281
0.124694
0.166095
0.343572
0.247061
0.307418
0.367793
0.253562
0.240978
0.403378
0.368959
0.419843
0.318500
0.288216
0.476687
0.412891
0.474502
0.500685
0.369818
0.369658
0.403993
0.399311
0.440428
0.460618
0.381047
0.365937
0.272945
0.289059
0.358259
0.314064
0.322379
0.280347
0.234890
0.221778
0.142790
0.168017
0.136953
0.132617
0.102962
0.172130
0.100581
0.117519
0.058639
0.064614
0.060874
-0.008791
-0.029531
-0.065613
0.016139
0.026579
0.027486
-0.010638
0.002335
-0.035321
-0.059258
-0.012008
-0.007841
-0.031981
-0.020270
-0.087820
-0.094665
0.048072
-0.046648
-0.048503
-0.034361
-0.042423
-0.033995
-0.121374
-0.038376
-0.070106
-0.105275
-0.028839
-0.064778
-0.049942
-0.080378
-0.037385
-0.012276
-0.016278
-0.033356
0.030841
-0.010612
-0.071383
-0.057351
-0.101425
-0.066585
-0.084112
-0.072673
-0.032881
-0.060794
-0.099765
-0.027338
0.030141
-0.091781
-0.017245
-0.083918
-0.055353
-0.014467
-0.094259
-0.051082
-0.085464
-0.036567
-0.052203
-0.025638
-0.026807
-0.035247
-0.025374
-0.071191
-0.069495
0.088797
0.019868
-0.036121
0.066512
-0.020055
0.072638
-0.042287
-0.068353
-0.104057
-0.072513
-0.019008
0.002531
-0.053397
-0.071403
-0.036077
0.008846
0.009648
-0.030924
-0.032997
0.003612
-0.009815
-0.035281
-0.008171
-0.069279
0.029374
-0.032438
-0.001369
0.029527
0.052992
-0.024821
0.083032
0.004322
0.044437
0.071414
0.030206
0.069855
0.071588
0.082607
0.135576
0.022026
0.166165
0.089195
0.125210
0.078868
0.196173
0.150174
0.157236
0.253705
0.199314
0.164212
0.139009
0.177516
0.114419
0.104909
0.149952
0.152716
0.178596
0.110929
0.057680
0.205195
0.007761
0.120815
0.052177
0.136298
0.038692
0.114360
0.074458
-0.001481
0.006974
0.026760
-0.017850
0.005345
0.030729
0.042698
0.050492
0.061896
0.060629
0.085032
0.018446
-0.021234
-0.043536
0.021081
0.010245
-0.055424
0.026734
0.012758
-0.032501
-0.087338
0.003130
0.013885
-0.014953
0.042673
0.166127
0.443080
0.819312
1.085101
1.239741
1.364133
1.260475
1.035173
0.765275
0.567180
0.154685
0.033316
-0.242153
-0.255634
-0.278285
-0.147459
-0.131221
0.019860
0.005106
-0.020827
0.050882
0.104102
0.079714
0.037093
0.077909
0.084416
0.038565
0.054104
0.045263
0.138362
0.037609
0.071510
0.058266
0.046678
0.071492
0.164266
0.139884
0.100906
0.171771
0.184684
0.121598
0.139526
0.153966
0.158940
0.173644
0.226169
0.251294
0.312997
0.271542
0.362728
0.416042
0.293538
0.371541
0.399373
0.402486
0.372622
0.400384
0.467794
0.404870
0.473177
0.532470
0.521936
0.562857
0.627414
0.570150
0.523291
0.509212
0.570095
0.527224
0.540369
0.513701
0.576183
0.505359
0.547388
0.523433
0.500088
0.455330
0.401936
0.485683
0.449898
0.370045
0.373308
0.281935
0.329769
0.336529
0.230582
0.222149
0.271648
0.279518
0.229576
0.168361
0.218853
0.200048
0.160866
0.209804
0.091304
0.215712
0.208860
0.146214
0.159671
0.116279
0.179293
-0.004504
0.151962
0.117810
0.063616
0.072640
0.074151
-0.017152
0.119843
0.074180
0.106967
0.041318
0.175957
0.067440
0.086289
0.019165
0.091068
0.054034
0.089952
0.053483
0.026614
0.059579
0.065410
0.042289
0.060718
0.068987
0.080424
0.064213
0.044671
0.079644
0.158485
0.125716
0.048325
0.070796
0.075972
0.115438
0.109571
0.083934
0.038400
0.052109
0.135709
0.069066
0.022451
0.069877
0.106217
-0.028235
0.015367
0.038882
0.052878
0.139415
0.079105
0.093603
0.094758
0.055959
