-0.060869
-0.036307
0.040282
0.007217
0.005677
0.000712
-0.080279
-0.016473
-0.001116
0.032043
-0.005488
0.042690
0.038106
0.029735
0.013378
0.070830
-0.022064
0.110046
0.131476
0.097990
0.133518
0.107179
0.137137
0.114831
0.094648
0.156381
0.142621
0.169203
0.254261
0.126355
0.133976
0.144747
0.209725
0.261009
0.200363
0.313975
0.202547
0.239431
0.167041
0.194401
0.213791
0.196502
0.124396
0.125477
0.186667
0.185149
0.137189
0.107855
0.119651
0.001849
0.024568
0.119370
0.029260
0.117899
0.012602
0.027294
0.020292
0.075310
0.015430
0.056709
0.036644
0.170139
0.068086
0.084102
0.270392
0.409584
0.782077
1.107805
1.304789
1.419530
1.418200
1.129032
0.700123
0.312225
0.032352
-0.015541
-0.128899
-0.031190
-0.030322
-0.007042
0.065649
0.056673
0.077417
0.140679
0.099978
0.138623
0.103777
0.197158
0.242927
0.212977
0.201739
0.225227
0.269893
0.295854
0.305419
0.365493
0.340027
0.287904
0.442331
0.480021
0.455714
0.511707
0.504452
0.446500
0.550993
0.551606
0.531289
0.537895
0.517781
0.546566
0.605048
0.574868
0.696731
0.586548
0.515184
0.546533
0.541997
0.539732
0.533177
0.610821
0.526706
0.529466
0.531018
0.458085
0.505267
0.463656
0.520825
0.360087
0.396076
0.401309
0.449178
0.272181
0.331552
0.305918
0.222663
0.168041
0.235496
0.189174
0.134863
0.160523
0.139936
0.208635
0.289178
0.097256
0.162477
0.148967
0.068364
0.130079
0.056220
0.134183
0.115698
0.094092
0.098341
0.080810
0.095408
0.123349
0.030679
0.083217
0.016549
0.073021
0.121488
0.004576
0.107298
0.080428
0.025131
0.143863
0.105933
0.073862
-0.010118
0.115883
0.020677
0.064039
0.154768
0.148944
0.093358
0.117731
0.050817
0.119046
0.081586
0.123030
0.107696
0.132351
0.053026
0.099855
0.140265
0.188424
0.208447
0.067806
0.133509
0.194061
0.113413
0.124580
0.109859
0.125485
0.256576
0.110174
0.176864
0.248245
0.181153
0.122707
0.210167
0.264732
0.233151
0.280019
0.282101
0.240696
0.303403
0.293666
0.225504
0.271118
0.321786
0.237941
0.234829
0.311035
0.272089
0.203268
0.214238
0.165333
0.157579
0.184271
0.250469
0.082214
0.127771
0.083353
0.151626
0.178033
0.095305
0.117695
0.124099
0.111234
0.097625
0.091861
0.121728
0.025740
0.083631
0.154632
0.223465
0.398540
0.683431
1.004325
1.304767
1.421300
1.469772
1.177194
0.865889
0.463305
0.207232
0.038063
-0.164592
-0.051297
0.063588
0.031662
0.120906
0.083015
0.196844
0.194107
0.212775
0.195935
0.147956
0.193345
0.193625
0.232118
0.340708
0.284086
0.312345
0.290066
0.441813
0.380407
0.470650
0.469153
0.410374
0.477182
0.491001
0.422621
0.514771
0.489525
0.543454
0.658333
0.518737
0.605512
0.576395
0.645396
0.628632
0.624900
0.516965
0.564450
0.562593
0.597287
0.603686
0.560643
0.456475
0.560784
0.559844
0.556448
0.484763
0.448448
0.460534
0.451512
0.507770
0.437322
0.325678
0.395416
0.295028
0.353661
0.294666
0.215840
0.201536
0.264050
0.181161
0.270693
0.135844
0.226135
0.118619
0.188226
0.159166
0.108266
0.164564
0.048168
0.148897
0.026435
0.147488
0.116045
0.057588
0.073263
-0.001185
0.034885
0.072310
0.055209
-0.022539
0.024717
0.044480
0.043320
0.082761
0.109762
0.107821
-0.025573
0.081926
0.080975
0.050507
0.087620
0.030711
0.011581
0.073041
-0.007503
0.074699
0.029329
-0.034890
0.128146
0.017563
0.020254
0.034819
0.080118
0.085963
-0.018493
0.072387
0.014226
0.035377
0.102592
0.046745
0.026066
0.100852
0.072524
0.145809
0.054765
0.123416
0.089603
0.094357
0.111425
0.088856
0.082095
0.185284
0.175149
0.144963
0.185151
0.153737
0.178569
0.121906
0.232447
0.166082
0.220468
0.234732
0.189730
0.245899
0.092473
0.197946
0.243155
0.242224
0.129353
0.101672
0.086727
0.129048
0.075108
0.097836
0.099399
0.070418
0.124068
0.015407
0.075928
0.071171
-0.005487
0.074241
0.016944
-0.040483
0.017081
0.041617
0.063028
0.082256
-0.006754
0.113260
0.284877
0.415203
0.665426
1.114744
1.358358
1.363899
1.195630
1.027101
0.559615
0.210880
-0.046834
-0.149172
-0.031309
-0.126605
-0.066883
0.005186
-0.021583
0.029235
0.057677
0.153975
0.094035
0.128530
0.097513
0.076678
0.103519
0.086233
0.205973
0.240469
0.281448
0.181798
0.366643
0.239901
0.206484
0.364117
0.408005
0.338590
0.331017
0.455580
0.427103
0.485403
0.459848
0.470515
0.343184
0.550495
0.547898
0.533494
0.457041
0.468971
0.484375
0.427425
0.483300
0.496197
0.533533
0.420913
0.432385
0.422740
0.391329
0.383942
0.436797
0.371364
0.324485
0.409115
0.320852
0.349792
0.210274
0.250840
0.124682
0.175709
0.244486
0.200748
0.095174
0.102566
0.140578
0.104488
0.166732
0.076031
0.052810
0.015970
0.007496
0.042468
-0.070260
0.070305
0.012916
0.031125
-0.082711
0.013976
0.067110
-0.014692
-0.011712
-0.072933
-0.079601
0.007427
-0.051871
-0.044438
-0.056230
-0.041299
-0.008866
-0.090480
-0.042870
-0.015045
-0.043901
-0.051555
-0.025375
-0.047373
-0.051487
-0.032518
-0.009152
0.003174
-0.058976
-0.049848
-0.051218
0.000528
0.017434
0.011473
-0.024806
-0.028256
-0.037427
-0.037209
0.033710
-0.076462
-0.036795
-0.006221
-0.029169
-0.037958
0.004038
0.008744
0.048954
0.053060
0.004696
0.010818
0.102989
-0.013181
0.062223
0.084226
0.155717
0.087588
0.146764
0.148308
0.198474
0.220336
0.136576
0.061244
0.154553
0.180441
0.070861
0.138358
0.149847
0.165545
0.078026
0.147267
0.057463
0.144244
0.026798
0.102141
0.052866
0.166404
-0.010305
-0.016242
-0.025436
0.055698
0.000071
-0.044515
-0.046734
-0.059031
-0.053601
0.017327
0.018948
-0.072525
-0.015111
0.029227
0.023242
-0.019401
0.092851
0.322653
0.580919
0.957359
1.252474
1.351939
1.304469
1.007532
0.651592
0.368338
0.048715
-0.193829
-0.223366
-0.166445
-0.072110
-0.173270
-0.095051
-0.024564
0.019707
0.042775
-0.009493
0.060535
0.125638
0.070826
0.176056
0.105280
0.106775
0.132553
0.216951
0.164675
0.147379
0.174700
0.227645
0.245771
0.274589
0.337179
0.341030
0.382441
0.402734
0.363621
0.465294
0.449465
0.470788
0.501070
0.483457
0.407603
0.460778
0.490257
0.595149
0.494435
0.444579
0.423762
0.383628
0.489132
0.457866
0.449808
0.379942
0.436040
0.458545
0.410240
0.347309
0.317498
0.353195
0.384020
0.227441
0.305161
0.181040
0.239192
0.187479
0.149968
0.130592
0.167762
0.171561
0.078884
0.127980
0.043093
0.104240
0.112107
0.018281
0.083505
0.022879
0.061281
0.015342
-0.038899
-0.015065
-0.023869
-0.040563
-0.010667
-0.025712
-0.008169
0.051404
-0.091817
0.013337
-0.017361
-0.026291
0.008948
-0.016848
-0.028600
-0.028845
0.005246
0.055171
0.004483
-0.071760
0.071214
0.083360
0.004260
-0.010891
0.011549
-0.080034
0.073220
0.011371
0.034895
-0.112010
-0.047573
-0.050395
0.041081
0.079058
0.075774
-0.040272
-0.015474
0.010561
0.015898
0.003329
-0.001227
-0.016828
-0.020277
0.055157
0.010916
0.120918
0.152328
0.020017
0.097001
0.075955
0.089435
0.068315
0.105355
0.109606
0.196683
0.158043
0.135961
0.142636
0.164115
0.180300
0.173882
0.241426
0.156932
0.226607
0.196350
0.193243
0.131068
0.192618
0.104942
0.085811
0.138376
0.139199
0.111289
0.116962
0.056594
0.148909
0.057682
0.190280
0.067757
-0.027897
0.068358
0.065803
0.013538
0.103893
-0.065910
-0.006202
0.019526
0.034287
0.000738
0.173599
0.294538
0.525037
0.800057
1.202148
1.410791
1.438992
1.234705
0.918578
0.521740
0.223648
-0.012662
-0.114873
-0.103626
-0.019240
0.001229
0.051473
0.110466
0.082870
0.160858
0.072589
0.079617
0.046367
0.059685
0.085115
0.182904
0.255751
0.247856
0.238130
0.281900
0.312379
0.277108
0.312951
0.286702
0.371448
0.413137
0.437043
0.525154
0.445860
0.520679
0.481543
0.465873
0.581309
0.558555
0.434092
0.597915
0.579661
0.618472
0.469568
0.557203
0.525930
0.496173
0.538450
0.581376
0.528785
0.558116
0.482920
0.525240
0.466138
0.488270
0.496811
0.499410
0.400958
0.400216
0.318570
0.318298
0.430112
0.324969
0.298201
0.273820
0.192208
0.273549
0.219936
0.236470
0.192904
0.175658
0.153679
0.066959
0.132250
0.148871
0.039222
0.021976
0.148441
0.099436
0.144571
0.105987
0.079567
0.079553
0.113457
0.139848
0.066757
0.080148
0.110889
0.070742
0.109811
0.107540
0.048181
0.083875
0.074784
0.062551
0.012674
0.070495
0.081387
0.017952
0.120249
0.074138
0.129245
0.080956
0.076759
0.116544
0.123705
0.148882
0.110448
0.073166
0.153170
0.057938
0.133180
0.042405
0.142075
0.082854
0.068808
0.145198
0.039448
0.029467
0.092122
0.034309
0.130484
0.046962
0.069875
0.117230
0.126454
0.243316
0.162122
0.242418
0.209251
0.219952
0.207691
0.304499
0.289195
0.333685
0.281355
0.299793
0.265373
0.296093
0.295759
0.280271
0.275755
0.259103
0.208200
0.201548
0.245524
0.240360
0.275489
0.176784
0.181629
0.240085
0.156122
0.105468
0.130789
0.187230
0.110301
0.139819
0.138367
0.104437
0.049736
0.192020
0.011879
0.007005
0.099238
0.131446
0.048353
0.089661
0.170597
0.256530
0.505696
0.821353
1.077852
1.322297
1.470819
1.463863
1.127285
0.805781
0.433168
0.163277
0.001456
-0.084882
-0.030955
0.034636
0.080959
0.157751
0.173693
0.161992
0.204933
0.176022
0.166865
0.286251
0.250369
0.212872
0.220705
0.272888
0.303835
0.321935
0.362945
0.328452
0.354860
0.440902
0.439101
0.460546
0.459949
0.408989
0.550268
0.449603
0.577810
0.544677
0.643896
0.628537
0.647897
0.568759
0.700784
0.705193
0.639141
0.654150
0.610862
0.654507
0.606034
0.607165
0.650722
0.506452
0.604995
0.608808
0.544574
0.541307
0.497538
0.523196
0.484892
0.391216
0.377232
0.497145
0.315600
0.320557
0.352930
0.337835
0.289397
0.309981
0.230337
0.206529
0.194305
0.208397
0.127806
0.139549
0.187802
0.138860
0.107163
0.274471
0.067627
0.077832
0.165023
0.114621
0.130849
0.122617
0.078744
0.182132
0.057513
0.110724
0.124979
0.083736
0.113780
0.038693
0.034247
0.085029
0.012659
0.051489
0.045237
0.117674
0.105838
0.055151
0.059959
0.096546
0.153644
0.144034
0.080254
0.163400
0.101592
0.011590
0.007911
0.123185
0.004113
-0.031694
0.081679
0.031649
0.018565
0.109827
0.144219
0.076216
0.157610
0.108774
0.052176
0.096547
0.145744
0.133300
0.089207
0.158820
0.064751
0.160502
0.187573
0.051554
0.208359
0.157141
0.173983
0.240641
0.298246
0.235343
0.212747
0.238877
0.265678
0.233342
0.196947
0.305880
0.277012
0.162163
0.172793
0.243746
0.211056
0.185484
0.197971
0.198261
0.116723
0.064961
0.163363
0.098555
0.106176
0.094210
0.122378
0.049787
0.097504
0.057760
0.069819
0.036206
0.026044
0.017472
0.049269
0.086224
-0.026901
0.150948
0.103499
0.181974
0.320229
0.596943
0.907829
1.233393
1.349721
1.391183
1.232258
0.904255
0.538209
0.183255
-0.017325
-0.167118
-0.118099
-0.068818
0.016489
0.003701
0.034989
0.079049
0.075811
0.056680
0.127578
0.088680
0.210136
0.145876
0.170989
0.209288
0.247289
0.193118
0.336414
0.226697
0.275441
0.376114
0.369877
0.302103
0.361118
0.398419
0.384164
0.466089
0.507042
0.468872
0.481690
0.476031
0.614396
0.459308
0.472693
0.516116
0.556055
0.557039
0.573685
0.510167
0.440276
0.491763
0.521149
0.554020
0.410555
0.452604
0.392515
0.338530
0.376327
0.409173
0.327562
0.356348
0.391111
0.281586
0.192997
0.295495
0.221098
0.268527
0.246193
0.195012
0.145955
0.061456
0.235178
0.128284
0.137437
0.138155
0.070537
0.026429
-0.042234
0.018129
-0.005461
0.001992
-0.026954
0.050254
0.081538
0.022489
-0.062227
0.048281
-0.040070
0.043848
0.040079
-0.002036
-0.093251
-0.112660
-0.032944
-0.105873
-0.012696
-0.137890
-0.101431
-0.046183
-0.005371
-0.004239
-0.029192
-0.089145
0.008807
-0.025286
-0.051460
0.063556
-0.118423
-0.038951
-0.049958
-0.029899
-0.094088
-0.083572
-0.038087
-0.062741
-0.055494
-0.103288
-0.055412
0.005255
0.055002
-0.019268
0.010094
-0.085204
0.003047
-0.017026
-0.084097
0.055317
0.000338
0.031320
-0.037012
0.098782
0.068219
0.120441
0.069354
0.076954
0.098203
0.098133
0.109118
0.074639
0.086549
0.112481
0.151264
0.128754
0.137884
0.110476
0.007320
0.110729
0.142901
0.079697
0.068514
0.103058
0.043983
0.078532
-0.022435
-0.019281
-0.009774
0.028096
-0.006203
0.010723
-0.061623
-0.009926
-0.114849
-0.070770
-0.092197
0.004481
0.031262
-0.129463
-0.075367
-0.141352
-0.085228
-0.029374
0.252843
0.407165
0.623764
1.016195
1.285060
1.290520
1.262348
0.958527
0.530338
0.186776
-0.073231
-0.259759
-0.205603
-0.190677
-0.136330
-0.051084
-0.054789
-0.025964
0.059237
-0.024974
0.021584
-0.013337
0.078053
-0.011931
0.144759
0.090491
0.149354
0.161861
0.188045
0.119828
0.230006
0.229714
0.264706
0.299909
0.280225
0.271063
0.319245
0.281472
0.323819
0.340299
0.335387
0.437566
0.406828
0.397163
0.469643
0.469200
0.447522
0.487810
0.406836
0.414352
0.515396
0.408999
0.467747
0.412495
0.364608
0.364008
0.426941
0.370598
0.381447
0.311726
0.221304
0.301466
0.194745
0.252333
0.239029
0.188517
0.239448
0.152682
0.191615
0.152909
0.132201
0.079250
0.045732
0.180894
-0.011186
0.097392
-0.065356
-0.024751
-0.072190
-0.045011
-0.097817
-0.023531
-0.012248
-0.057308
0.002364
-0.075108
-0.087199
-0.035443
-0.092022
-0.083639
-0.092047
-0.141187
-0.018192
-0.079167
-0.042903
-0.075562
-0.075425
0.028395
-0.151486
-0.041675
-0.130706
-0.143967
-0.031108
-0.214972
-0.019477
-0.152718
-0.053947
-0.042901
-0.050795
-0.091571
-0.017641
-0.063676
-0.090797
-0.041308
-0.093325
-0.088905
-0.082778
-0.064037
-0.041642
-0.039440
-0.092360
-0.049872
-0.108795
-0.102303
0.026111
0.051568
-0.075237
-0.012964
-0.014870
0.002682
0.025258
0.020723
0.061208
-0.038734
0.043726
0.139128
0.056362
0.098054
0.049102
0.073105
0.094148
0.181757
0.148508
0.043111
0.058262
0.121339
0.065877
0.087156
0.132220
0.140383
0.122220
0.127336
0.075089
0.071950
0.011112
-0.002803
-0.027267
-0.109679
-0.014606
0.011851
0.014229
-0.113771
-0.059205
-0.160547
-0.101987
-0.097248
-0.024985
-0.038484
0.029051
-0.065596
-0.019229
-0.072908
0.071169
0.314284
0.565336
0.893970
1.174113
1.268257
1.345836
1.059097
0.791300
0.278928
0.063286
-0.097362
-0.205195
-0.224445
-0.127499
-0.076075
-0.088429
-0.059165
0.034492
0.082012
0.025319
0.025150
0.069757
0.113930
0.107888
0.095139
0.202925
0.145264
0.178209
0.156219
0.271953
0.248219
0.268394
0.314036
0.278317
0.390505
0.342217
0.344585
0.444880
0.382538
0.392347
0.384195
0.486659
0.493451
0.451665
0.481778
0.503835
0.502172
0.543914
0.512054
0.445545
0.563843
0.476196
0.411712
0.469510
0.563137
0.542915
0.416684
0.441188
0.347834
0.367225
0.357075
0.300740
0.315410
0.242365
0.264729
0.249821
0.168267
0.227975
0.130597
0.216409
0.186420
0.100673
0.158106
0.131895
0.084064
0.088078
0.072178
0.066436
0.081077
0.056610
0.037687
0.004704
-0.049306
0.019444
0.096838
0.027413
0.021139
-0.020330
0.061319
-0.066221
0.084428
-0.033251
-0.041063
0.056834
0.076374
-0.019968
0.084930
-0.000501
-0.012628
0.019240
0.079126
0.047480
-0.047410
0.040686
0.086291
-0.061289
0.027333
0.043932
-0.060001
0.000755
0.025592
-0.018010
-0.032339
0.065195
-0.027645
-0.015602
-0.016440
-0.024410
-0.001250
-0.024039
0.027876
0.020606
-0.005008
0.000089
0.063527
0.081416
0.075259
0.108796
0.094426
0.116809
0.056581
0.112027
0.106280
0.154535
0.195397
0.195965
0.104690
0.213874
0.193685
0.114090
0.219250
0.213617
0.156899
0.206024
0.207148
0.255209
0.143597
0.136397
0.148153
0.110830
0.142788
0.162387
0.174404
0.124210
0.170716
0.155848
0.074213
0.059701
0.055608
-0.024974
0.039290
-0.023072
0.058307
0.002471
0.100984
0.012254
0.076005
0.057308
-0.081626
0.054987
0.064464
0.167930
0.243864
0.508142
0.858505
1.139513
1.359821
1.434301
1.282952
0.982531
0.579393
0.169743
-0.060669
-0.147753
-0.099726
-0.092351
0.037131
0.005779
0.072219
0.053710
0.131835
0.080356
0.140183
0.093034
0.252755
0.177245
0.228548
0.139933
0.189887
0.244350
0.264289
0.264247
0.310994
0.381498
0.332349
0.425987
0.349538
0.398255
0.441503
0.410187
0.434738
0.506766
0.512933
0.571521
0.557548
0.531836
0.609395
0.591190
0.538624
0.555355
0.570986
0.542693
0.611671
0.616566
0.545820
0.601562
0.540474
0.545574
0.468159
0.521160
0.472315
0.433010
0.455597
0.330165
0.381067
0.378587
0.315701
0.406414
0.319379
0.269696
0.288193
0.245707
0.216740
0.191192
0.114779
0.237190
0.148329
0.107501
0.149216
0.217540
0.138000
0.206935
0.050120
0.107659
0.084339
0.090453
0.023023
0.088904
0.111529
0.053021
0.077487
0.027975
-0.028461
-0.063898
0.043132
-0.011404
0.160742
0.003991
0.063018
0.123634
0.048309
0.048937
-0.016497
0.023859
0.087842
0.064457
0.055147
0.063064
0.036950
0.085927
0.021687
0.073215
0.057858
-0.004391
0.038710
0.060102
0.113647
-0.009648
0.012868
0.037751
0.027365
-0.044453
0.073379
0.007848
0.018029
0.142865
0.091113
0.098020
0.133714
0.127163
0.128415
0.103961
0.087151
0.200212
0.130073
0.138306
0.109980
0.085375
0.182297
0.251199
0.250002
0.189150
0.262328
0.215667
0.183618
0.198740
0.177115
0.282176
0.261737
0.147509
0.145534
0.134081
0.180428
0.206318
0.158143
0.123821
0.140332
0.113461
0.206992
0.108034
0.124742
0.074193
0.132064
0.074407
0.096382
0.066616
-0.012158
0.018819
0.013391
0.095400
-0.001438
0.015971
0.002557
0.110039
0.284721
0.516391
0.694735
1.105520
1.285773
1.360879
1.367814
1.169180
0.773486
0.368731
0.063581
-0.095865
-0.149209
-0.038437
-0.044898
0.040055
0.043875
0.028356
0.035204
0.043300
0.153618
0.263742
0.199474
0.135236
0.065166
0.169799
0.144374
0.286682
0.225505
0.232423
0.241970
0.330958
0.376241
0.329841
0.308092
0.402241
0.343653
0.423889
0.448528
0.501420
0.453883
0.508642
0.591510
0.447657
0.415867
0.540908
0.502108
0.507569
0.629836
0.484276
0.478793
0.499291
0.549800
0.554953
0.542643
0.456696
0.510168
0.555900
0.520489
0.444398
0.345457
0.399970
0.382105
0.318410
0.249825
0.332113
0.115907
0.223064
0.212838
0.238454
0.097637
0.139386
0.205099
0.061439
0.124100
0.089304
0.047459
0.089986
0.075634
0.029956
0.163813
0.062966
0.008583
0.020360
-0.001345
0.009230
-0.014075
0.021292
0.008372
-0.036660
0.000556
-0.073990
-0.059055
0.035388
-0.084724
0.055535
-0.035453
-0.039251
0.001911
0.058148
0.030997
-0.082577
-0.020556
-0.079332
0.032595
0.036397
0.028418
-0.001997
-0.102690
0.008149
-0.016993
-0.064044
-0.003738
-0.069805
-0.000090
-0.075328
-0.020037
-0.073485
0.007561
0.002302
-0.039845
-0.060474
0.000648
-0.024665
0.057260
-0.061351
0.013718
0.035671
0.064382
0.064371
-0.028037
-0.034929
0.059309
0.011944
0.108338
0.122953
0.007821
0.080617
0.033079
0.209398
0.145131
0.115105
0.079111
0.111079
0.151746
0.202424
0.246786
0.172456
0.034962
0.073926
0.029204
0.115368
0.020436
0.062958
-0.003587
0.058473
-0.007234
0.044435
-0.012348
-0.003202
0.013003
0.032274
-0.048379
-0.032216
-0.050383
-0.042253
-0.036822
-0.139140
0.018923
-0.031744
-0.050145
-0.054673
0.009707
0.260245
0.438875
0.820694
1.054442
1.290933
1.291268
1.085730
0.809805
0.376717
0.114996
-0.138365
-0.347950
-0.179593
-0.180236
-0.138559
-0.146479
-0.042222
-0.008677
-0.055732
-0.020677
0.023451
0.077317
0.067709
0.055119
0.066672
0.035651
0.012278
0.160024
0.197212
0.165587
0.180889
0.226389
0.229424
0.230498
0.211618
0.345718
0.301285
0.345013
0.328015
0.357557
0.369581
0.361744
0.546993
0.435340
0.486255
0.373647
0.375715
0.513535
0.470159
0.451290
0.473863
0.506770
0.511739
0.463517
0.325604
0.391559
0.372675
0.380199
0.172888
0.305050
0.266178
0.307280
0.278665
0.259824
0.262724
0.155684
0.141583
0.172696
0.151637
0.133954
0.121183
0.080092
0.038797
0.000269
0.070041
0.055469
0.059357
0.051535
0.020093
-0.040694
-0.003299
-0.128246
-0.029823
-0.116607
-0.029627
-0.078274
-0.155622
-0.134277
-0.089149
-0.016879
-0.110714
-0.111689
-0.107402
-0.060295
-0.021731
-0.040764
-0.093909
-0.134319
-0.130366
-0.148848
-0.103450
-0.087742
-0.094264
-0.039122
-0.123692
-0.086802
-0.077481
-0.128064
-0.098983
-0.023677
-0.206521
-0.040528
-0.048718
-0.115517
-0.091072
-0.131271
-0.149815
-0.090326
-0.114684
-0.105809
-0.085488
-0.120398
-0.087487
-0.114466
-0.080279
-0.115112
0.018025
-0.057808
0.042860
0.004018
0.017830
0.017313
-0.046625
0.035200
0.009013
0.139461
0.083574
0.138135
0.060970
0.122269
0.061060
0.094235
0.050217
0.057992
0.136338
0.090407
0.011231
0.019141
0.096581
0.032279
0.021314
-0.035826
0.133780
-0.022631
0.074385
-0.098922
-0.033324
-0.009457
-0.080115
-0.026914
-0.079481
-0.099221
-0.047911
-0.033633
-0.154551
-0.099557
-0.059193
-0.134547
-0.051804
0.007970
-0.039358
0.007619
0.130870
0.244442
0.663253
0.877863
1.160324
1.283909
1.222551
0.921859
0.539732
0.203557
-0.076461
-0.256195
-0.259574
-0.160179
-0.103391
-0.011570
-0.065375
-0.104613
0.019543
0.028288
0.086664
-0.016691
-0.003804
0.029673
0.067386
0.123610
0.024288
0.099788
0.169600
0.237999
0.093172
0.181350
0.199495
0.258160
0.234304
0.239022
0.258040
0.333515
0.392052
0.338433
0.327349
0.312476
0.409177
0.459320
0.487448
0.467895
0.505571
0.406506
0.496626
0.415375
0.456947
0.395552
0.340215
0.448952
0.368097
0.399724
0.326913
0.267041
0.366673
0.274837
0.341861
0.302288
0.220752
0.260594
0.230386
0.274666
0.143246
0.186114
0.103582
0.250341
0.100873
0.117647
0.123237
0.088677
0.054929
0.007907
0.057528
0.036461
0.025629
0.031166
-0.036124
-0.025920
-0.039148
-0.056561
-0.002702
-0.032237
-0.073601
0.023297
-0.107904
-0.062904
-0.043477
-0.025245
-0.091304
0.015266
-0.025118
-0.097685
-0.017238
-0.093953
-0.079235
-0.091581
-0.017262
-0.153782
-0.112377
-0.032061
-0.047083
-0.040975
-0.023867
-0.044131
0.017120
-0.066957
-0.088673
-0.034668
0.004990
-0.069095
-0.031266
0.022917
-0.007756
0.000148
-0.088969
0.003384
-0.053971
0.038860
0.026576
-0.044078
-0.046604
0.000431
0.044092
0.052466
0.100447
0.017358
0.069015
0.034161
0.058360
0.182955
0.075861
0.185219
0.095437
0.188968
0.146110
0.132688
0.180237
0.214403
0.100612
0.195366
0.181141
0.160703
0.189835
0.120189
0.119267
0.146437
0.148063
0.130219
0.079932
0.122891
0.184762
-0.009099
-0.011836
0.103291
0.108155
-0.005945
0.012124
0.092472
0.069842
-0.032493
0.096455
-0.009105
0.120559
-0.079139
-0.004827
0.000543
0.017573
0.028176
0.154879
0.271356
0.593328
0.920432
1.145992
1.346118
1.364026
1.141018
0.843730
0.408981
0.074081
-0.125426
-0.128165
-0.060154
-0.065987
0.009754
0.046176
0.036487
0.083964
0.179658
0.114080
0.214030
0.149380
0.202316
0.146682
0.122306
0.288521
0.193277
0.232598
0.171579
0.256039
0.216132
0.304204
0.328521
0.367500
0.406050
0.490391
0.436576
0.519469
0.443937
0.580793
0.527820
0.521096
0.556874
0.543711
0.451987
0.521067
0.625897
0.568949
0.534358
0.561659
0.604444
0.570011
0.644312
0.544070
0.569209
0.456086
0.508953
0.521280
0.410896
0.438538
0.318955
0.386880
0.360386
0.231676
0.367622
0.357316
0.265730
0.252474
0.285657
0.205220
0.330903
0.160701
0.092993
0.248775
0.041395
0.250948
0.133516
0.125227
0.158563
0.074406
0.117780
0.135224
0.045188
0.205240
0.033145
0.118851
0.082657
0.064481
0.045151
0.127349
0.047835
0.035995
0.022547
0.026964
-0.047529
0.055121
0.054421
0.052631
0.096339
0.113190
0.025010
0.043156
0.152597
0.082465
0.106165
0.100235
0.090818
0.129689
0.104156
0.093252
0.070430
0.035760
0.038255
0.012204
0.044726
0.014879
0.128664
0.122130
0.133883
0.077227
0.165624
0.113986
0.077697
0.117505
0.082755
0.120968
0.084418
0.061867
0.207585
0.194454
0.114908
0.116016
0.166641
0.219441
0.218181
0.203047
0.216075
0.223674
0.212912
0.276033
0.171409
0.243627
0.322471
0.217467
0.191984
0.232931
0.183523
0.169632
0.273485
0.207515
0.238752
0.128581
0.192352
0.133248
0.169579
0.155185
0.065185
0.109371
0.186075
0.147549
0.150807
0.074756
0.100122
0.163073
0.027203
0.073973
0.017031
0.039867
0.101965
0.093859
0.152546
0.136146
0.354379
0.616688
0.894428
1.144178
1.350901
1.500000
1.373547
1.050220
0.667363
0.307936
0.045374
0.043439
-0.049912
-0.062054
0.093112
0.138569
0.172582
0.144038
0.173747
0.098746
0.196683
0.288399
