0.041477
0.028312
0.000161
-0.056597
-0.023998
-0.046920
0.090845
-0.009813
-0.037987
0.033172
0.052900
0.049497
-0.000096
0.053614
0.004026
0.105479
-0.005011
0.060368
-0.005424
0.054629
0.001487
0.026690
0.054587
0.037616
0.005612
0.087548
0.056720
0.040594
0.097086
0.027567
0.039951
0.088586
0.119999
0.012712
0.085343
0.145435
0.098543
0.164857
0.111061
0.175300
0.155783
0.197274
0.199472
0.166742
0.125557
0.217504
0.214205
0.200688
0.160480
0.248032
0.192372
0.196326
0.227621
0.216025
0.204029
0.172848
0.198810
0.166203
0.086676
0.104054
0.110178
0.109520
0.070842
0.050405
0.050994
0.018143
0.106239
0.063236
0.043394
-0.002098
-0.037268
-0.040752
0.040433
-0.015614
0.081998
0.125355
0.020682
0.059219
0.081808
0.078932
0.038369
0.099403
0.044953
-0.013244
0.067583
-0.020686
0.053555
0.075611
0.084511
0.231243
0.553749
0.940650
1.186541
1.290032
1.397695
1.278343
1.122882
0.772664
0.402738
0.168762
-0.104039
-0.186075
-0.217118
-0.145639
-0.045220
-0.004388
0.026359
0.068773
0.062487
0.034991
-0.000707
0.077448
0.137523
0.005971
0.102365
0.101402
0.087440
0.110641
0.098994
0.085618
0.099384
0.119393
0.051290
0.168017
0.102140
0.237232
0.228487
0.158407
0.166435
0.234718
0.211141
0.214214
0.299673
0.330764
0.295531
0.360905
0.320468
0.467192
0.361655
0.454432
0.425940
0.504865
0.466384
0.623158
0.548587
0.535887
0.526893
0.597153
0.613839
0.578139
0.536521
0.556531
0.607347
0.561839
0.628555
0.597980
0.563625
0.620142
0.552792
0.552235
0.482174
0.458152
0.520375
0.462309
0.444613
0.424426
0.419670
0.430082
0.361407
0.330430
0.344235
0.417812
0.275972
0.300505
0.284753
0.240029
0.271393
0.266212
0.217315
0.140540
0.211580
0.178380
0.211235
0.090557
0.146438
0.185815
0.185679
0.072647
0.099681
0.078180
0.032490
0.071394
0.178496
0.091433
0.055161
0.045552
0.084748
0.127565
0.114864
0.120029
0.037457
0.107305
0.080403
0.067806
0.084440
0.012399
0.092019
0.034348
0.120310
0.063503
0.106052
0.102287
0.133068
0.112354
0.077299
0.089733
0.171945
0.118288
0.129685
0.046024
0.130163
0.074638
0.010907
0.180482
0.060299
0.145165
0.055576
0.063007
0.152925
0.062666
0.099355
0.092780
0.088210
0.002199
0.131972
0.154634
0.079476
0.016552
0.011486
0.025684
0.093661
0.060119
0.131192
0.126834
0.052852
0.191294
0.142263
0.126789
0.058674
0.108713
0.030808
0.110902
0.084743
0.050359
0.110471
0.166159
0.146053
0.206679
0.053954
0.066169
0.076217
0.109064
0.107137
0.059117
0.113556
0.122761
0.181852
0.175709
0.205944
0.173076
0.227305
0.192605
0.133374
0.227624
0.208799
0.192823
0.196996
0.296724
0.150193
0.230976
0.235861
0.231169
0.243454
0.232101
0.254944
0.187680
0.280292
0.149771
0.217192
0.176316
0.129196
0.184512
0.229193
0.153070
0.131048
0.087943
0.059498
-0.009340
0.091847
0.093948
0.094937
0.129502
0.082863
0.074728
0.099751
-0.011017
0.065199
0.020782
0.083342
0.050518
0.117252
0.045291
0.027566
0.043642
0.028875
0.040258
0.021551
0.113507
0.064383
0.072024
-0.002470
-0.065195
-0.016912
0.191051
0.437593
0.757649
1.014570
1.371946
1.397829
1.409992
1.197941
0.843422
0.533317
0.177556
-0.048539
-0.303516
-0.279663
-0.144040
-0.116846
-0.098680
0.088717
-0.005454
0.046429
0.062616
-0.003529
-0.013409
0.018631
0.069617
0.102922
0.096726
0.082989
0.091566
0.061972
0.067753
0.157818
0.086899
0.127708
0.145074
0.101746
0.118541
0.156115
0.196938
0.121202
0.185993
0.205490
0.205497
0.176200
0.226227
0.253675
0.319506
0.288250
0.295161
0.292943
0.358882
0.314017
0.538568
0.394167
0.480821
0.411604
0.478079
0.486766
0.483629
0.442168
0.424247
0.571482
0.519319
0.538496
0.466974
0.587329
0.508345
0.531396
0.543379
0.499359
0.415284
0.496252
0.420115
0.452372
0.414480
0.463397
0.419835
0.348055
0.313347
0.262071
0.310886
0.296979
0.234501
0.240320
0.226234
0.210585
0.105674
0.135739
0.091020
0.088243
0.152370
0.034981
0.065373
0.063683
0.060335
0.076575
0.085705
0.099462
-0.013323
0.046618
0.007056
-0.021739
0.002644
0.001107
0.026142
-0.048357
0.008472
0.021399
-0.008998
-0.074302
-0.123632
0.018783
-0.021083
0.004973
-0.011185
-0.011104
-0.023349
-0.058644
-0.061409
-0.026050
0.006022
-0.050466
-0.024243
0.014856
-0.034798
0.002434
-0.050701
0.047454
-0.019898
0.039031
-0.003937
-0.081393
-0.010871
-0.073956
0.021062
-0.029691
-0.035518
0.019720
-0.037605
0.021644
-0.008769
-0.053100
0.025842
0.015830
-0.031034
-0.082425
0.049046
-0.037494
-0.044958
-0.014502
-0.055317
0.021091
-0.006857
0.028421
0.021413
0.022004
-0.011473
-0.008331
-0.026480
-0.023128
-0.005667
0.025262
-0.023643
-0.078819
-0.069564
0.013307
0.073500
-0.013642
0.002336
0.007058
-0.028171
-0.036961
0.056521
-0.055609
-0.030255
0.079760
0.076655
-0.068542
-0.010260
0.051258
0.020336
-0.055000
0.033651
0.117605
0.070852
0.045705
0.148877
0.141860
0.111095
0.212313
0.110366
0.127028
0.074939
0.107017
0.250004
0.064316
0.131149
0.138104
0.226300
0.166813
0.051647
0.078375
0.164632
0.143342
0.058302
0.031578
0.046333
0.136484
0.034799
-0.026926
-0.012988
-0.044608
0.010158
-0.089377
-0.055387
0.014948
-0.070614
-0.013046
-0.156341
-0.029411
-0.043894
-0.069618
-0.050950
-0.107396
-0.099993
-0.047233
-0.060874
0.005075
-0.066995
-0.127255
-0.065976
-0.070976
-0.127987
-0.086075
0.007053
0.196407
0.487132
0.811830
1.059666
1.405023
1.355264
1.146705
0.907329
0.605561
0.203443
-0.056797
-0.215593
-0.352321
-0.328274
-0.176767
-0.184252
-0.160862
-0.031346
0.026526
-0.071362
-0.040386
-0.027983
-0.100220
-0.045459
-0.060086
0.002441
-0.007784
-0.047180
-0.008559
0.019246
0.006637
-0.054346
-0.003205
0.030780
-0.003408
-0.031017
0.026577
0.070661
0.156256
0.155971
0.076802
0.055139
0.117353
0.093189
0.223685
0.164039
0.243642
0.260645
0.281277
0.280413
0.291200
0.381825
0.282878
0.395907
0.447743
0.414783
0.405540
0.417061
0.409877
0.433116
0.515965
0.513970
0.496531
0.485342
0.502367
0.421792
0.517617
0.502327
0.502889
0.374840
0.424292
0.390518
0.374983
0.390594
0.306740
0.335577
0.258081
0.278513
0.338124
0.256155
0.222979
0.194138
0.145945
0.144761
0.138342
0.192443
0.162189
0.132608
0.081715
0.100815
0.179731
0.062927
0.028088
-0.007088
-0.012366
-0.008702
-0.033637
0.051494
-0.040280
-0.002369
0.032981
0.003142
0.007242
-0.019117
-0.129718
-0.030385
-0.071829
0.018951
-0.046627
-0.030429
-0.026581
0.016322
-0.022389
-0.012880
0.021129
-0.005150
0.071371
-0.021694
0.040685
-0.086867
-0.047760
-0.079696
-0.041876
-0.022882
-0.039149
0.023886
-0.074938
-0.024025
-0.009696
-0.023989
-0.033269
0.029110
-0.066695
-0.010335
0.007760
-0.019989
-0.043734
0.024050
0.089315
0.028118
-0.034585
0.009234
-0.037957
-0.060183
-0.027972
0.076569
-0.022989
0.011397
-0.041539
0.094808
0.027704
-0.024234
-0.064759
-0.057916
-0.024726
0.040816
-0.087648
0.097741
-0.003461
0.000979
0.025768
0.009535
0.025368
-0.043412
0.008351
-0.002197
-0.037731
0.102574
-0.011307
-0.032277
-0.002555
0.000544
0.047838
0.053111
0.084068
0.062577
0.071749
0.093318
0.105299
0.152798
0.102029
0.207424
0.154910
0.079610
0.141965
0.137373
0.195313
0.153339
0.243999
0.229382
0.207052
0.171573
0.176484
0.207201
0.242508
0.272949
0.255547
0.162558
0.174819
0.193064
0.136818
0.122664
0.130905
0.150847
0.178447
0.096006
0.149973
0.062270
0.116488
0.045506
0.070107
0.026698
0.088793
0.062074
0.073755
0.100155
0.060591
0.122525
0.035323
0.058298
0.047828
-0.005200
0.083501
0.008282
0.129047
0.044257
0.067312
0.131645
0.019140
0.059818
-0.009683
-0.035667
-0.024636
0.077221
0.225197
0.494477
0.795857
1.107015
1.343594
1.500000
1.388230
1.125501
0.772216
0.470491
0.147513
-0.088677
-0.306546
-0.211908
-0.159282
-0.117880
-0.089279
-0.024611
0.028066
0.098051
0.071593
0.132231
0.088464
0.109003
0.058121
-0.016258
0.079120
0.064314
0.057073
0.158171
0.094503
0.072940
0.121600
0.117792
0.099468
0.140419
0.174309
0.141963
0.158873
0.231268
0.260723
0.217048
0.222686
0.208431
0.267726
0.264906
0.327693
0.363321
0.335495
0.310558
0.453315
0.480913
0.457721
0.456671
0.473858
0.510735
0.497805
0.471540
0.474716
0.614464
0.530599
0.588144
0.610649
0.582917
0.554747
0.547062
0.636050
0.463889
0.512757
0.520365
0.465438
0.505845
0.608422
0.478844
0.523308
0.406945
0.520725
0.435633
0.388788
0.384139
0.342227
0.280891
0.326744
0.295524
0.286059
0.269107
0.175696
0.208583
0.172949
0.223705
0.175488
0.153376
0.217308
0.125723
0.168776
0.072322
0.231195
0.123585
0.125098
0.091912
0.173992
0.078163
0.098172
0.038912
0.107497
0.143410
0.074156
0.122639
0.100348
0.032220
0.089178
0.074541
0.131758
0.116428
0.100079
0.120664
0.050825
0.128238
0.195829
0.163623
0.020232
0.129298
0.031685
0.024970
0.048588
0.131065
0.073293
0.048625
0.051884
0.115061
0.100167
0.063749
0.064546
0.071174
0.069091
0.068216
0.009901
0.140992
0.074054
0.096026
0.057521
0.139342
0.042012
0.023696
0.102009
0.121948
0.031559
0.110860
0.101951
0.095043
0.071533
0.077222
0.132807
0.102523
0.064526
0.067693
0.078826
0.078597
0.103218
0.057989
0.147021
0.113151
0.096269
0.160060
0.003651
0.146448
0.127254
0.026445
0.122467
0.124184
0.207197
0.106982
0.193790
0.108217
0.167990
0.176898
0.206126
0.163200
0.186542
0.189024
0.173823
0.157187
0.295401
0.202279
0.143655
0.247693
0.289539
0.191635
0.183630
0.206539
0.275985
0.199453
0.264725
0.195004
0.205562
0.286747
0.172070
0.256628
0.218607
0.207956
0.227882
0.283339
0.199989
0.144325
0.222369
0.205548
0.083661
0.141710
0.095171
0.149738
0.144312
0.199841
0.124167
0.109619
0.159286
0.062409
0.044566
0.132381
0.086513
0.050656
0.083975
0.095323
0.061445
0.049500
0.106619
0.048704
0.117880
0.010745
0.038342
0.054465
0.110029
0.045160
-0.044983
0.014921
0.135019
0.364022
0.774889
1.075965
1.342596
1.479794
1.449485
1.272550
0.905144
0.505379
0.207350
0.040220
-0.100857
-0.272819
-0.158191
-0.092681
-0.050887
0.023701
0.132874
0.099041
0.124817
0.086206
0.073975
0.128198
0.029495
0.029636
0.091573
0.046920
0.136256
0.107675
0.103003
0.083423
0.119905
0.160922
0.115981
0.100024
0.171445
0.152812
0.119575
0.209544
0.168815
0.209348
0.236683
0.266239
0.267895
0.322165
0.347341
0.389914
0.293466
0.394968
0.361829
0.437117
0.404942
0.414122
0.462796
0.388190
0.484781
0.481329
0.557059
0.556019
0.428319
0.507168
0.599981
0.536000
0.662996
0.573913
0.562193
0.500922
0.527270
0.409496
0.463479
0.421460
0.468044
0.487749
0.454119
0.430038
0.310160
0.433079
0.349548
0.360583
0.311962
0.279457
0.247099
0.188663
0.215578
0.270854
0.258116
0.112875
0.197617
0.183609
0.129658
0.123911
0.065868
0.184894
0.046884
0.101574
0.117233
0.072067
0.026675
-0.017014
0.075577
0.056831
0.001411
0.040189
0.065860
0.114471
0.001243
-0.004208
0.001592
-0.003534
0.002321
0.039541
0.032045
0.030271
-0.055964
-0.047294
0.045701
-0.030393
0.007983
-0.044166
-0.065557
0.026977
-0.021906
0.039219
0.028522
0.018889
0.035324
0.023803
-0.011202
-0.012157
-0.070796
-0.013139
-0.058412
0.020940
-0.023881
-0.021609
0.004858
0.036333
0.025637
0.022282
0.064008
-0.026086
-0.027372
-0.011630
-0.033210
-0.042425
-0.031080
-0.043776
-0.076519
-0.028150
0.013594
0.025019
-0.018286
-0.106454
-0.004387
-0.009296
-0.027445
-0.006166
-0.096454
0.063484
-0.074169
-0.093561
-0.029877
-0.025303
-0.038890
-0.002270
0.013268
-0.079419
0.049704
-0.012333
0.037266
-0.019757
-0.033763
0.004569
0.010669
0.023678
0.050457
-0.025159
0.016802
0.028505
-0.001877
0.059202
0.011845
0.030491
0.070394
0.153616
0.150199
0.112795
0.091039
0.098360
0.057102
0.095987
0.155368
0.089205
0.177160
0.109004
0.155241
0.098101
0.089537
0.180050
0.037677
0.043735
0.075756
0.067260
0.046464
0.037346
-0.015377
-0.051607
-0.051143
-0.009636
-0.036443
-0.048768
-0.051446
-0.067835
-0.078243
0.018564
-0.024672
-0.045936
-0.018836
-0.018983
-0.096251
0.014629
-0.039842
-0.090369
-0.090915
-0.050124
-0.061444
-0.028857
-0.074236
-0.121237
-0.141037
-0.090092
-0.082303
-0.081724
0.008225
0.146089
0.398426
0.782863
1.143505
1.329600
1.330692
1.228556
0.937558
0.528010
0.212500
-0.130654
-0.275062
-0.342703
-0.327434
-0.253806
-0.190838
-0.115130
-0.046999
-0.120239
-0.081807
-0.037098
-0.017440
-0.057632
-0.072391
-0.135971
-0.012484
-0.036515
-0.029017
-0.022967
-0.082861
0.010192
-0.056706
-0.059021
0.001980
-0.006392
-0.026286
0.059484
0.028888
0.123688
0.082423
0.046426
0.144174
0.164542
0.093998
0.167615
0.126325
0.164291
0.154283
0.285465
0.212552
0.309220
0.302738
0.334143
0.278349
0.417886
0.330379
0.321553
0.376751
0.402046
0.462680
0.490592
0.476283
0.441432
0.395457
0.450567
0.432083
0.382793
0.463475
0.381600
0.419318
0.357834
0.465260
0.346253
0.301715
0.374497
0.311605
0.251823
0.228050
0.229647
0.275377
0.238529
0.115983
0.160618
0.094498
0.108422
0.027515
0.035769
0.120592
0.050394
0.027296
0.065543
0.027127
-0.036072
0.068351
0.019586
-0.005622
-0.034209
0.041611
0.002036
0.011542
-0.051012
-0.071058
-0.068800
-0.084195
-0.056302
-0.101520
-0.019202
-0.099792
-0.070189
-0.009283
-0.136954
-0.095707
-0.021991
-0.041816
-0.063883
-0.083588
-0.096010
-0.040182
-0.012307
-0.023785
-0.101422
-0.048077
-0.011678
-0.019188
-0.063384
-0.118365
-0.035817
-0.120869
-0.070244
-0.036577
-0.104844
-0.109238
-0.036196
-0.059428
-0.117673
0.011287
0.010208
0.016942
-0.062670
-0.115835
-0.132967
-0.073566
0.035633
-0.137550
-0.089532
-0.095513
-0.065918
-0.123683
-0.119363
-0.036934
-0.079492
-0.130683
-0.028427
-0.072976
-0.090187
0.075390
-0.187937
-0.087008
-0.108793
-0.052248
-0.081243
-0.001135
-0.063763
-0.099066
-0.016715
-0.022863
-0.071182
-0.128187
-0.050132
-0.061929
-0.055497
-0.000144
-0.034149
0.024230
-0.108013
0.053779
-0.016167
0.009447
-0.035124
0.026446
-0.032508
-0.038471
0.051136
0.054797
0.096551
0.058903
0.072383
0.099481
0.132941
0.088659
0.117814
0.159618
0.125817
0.142468
0.115829
0.118084
0.143573
0.114017
0.165479
0.082033
0.118864
0.087946
0.097018
0.049842
0.036060
0.032792
-0.052119
-0.003421
-0.014367
-0.042705
0.059762
-0.051207
-0.022417
-0.072033
-0.075074
-0.115322
-0.015773
-0.018762
-0.030190
0.010515
-0.080402
0.011913
-0.004774
0.009011
-0.097235
-0.048738
-0.093017
-0.030077
-0.029848
-0.039581
-0.071121
-0.074110
-0.057860
-0.007839
0.082349
0.384901
0.670657
0.994381
1.194523
1.400279
1.307495
1.066895
0.828585
0.380964
-0.020861
-0.130485
-0.254368
-0.305435
-0.287305
-0.179358
-0.184730
-0.081368
-0.018721
0.023942
-0.036453
-0.048371
0.010358
0.056376
0.007063
0.048032
0.048230
0.066149
-0.009381
0.054126
-0.046475
0.040250
0.048841
0.090565
0.064049
0.016882
0.062414
0.068582
0.140966
0.075227
0.179651
0.153129
0.237911
0.209924
0.228350
0.245654
0.181633
0.330974
0.350050
0.294704
0.351684
0.348615
0.357090
0.475296
0.336594
0.440737
0.503162
0.473241
0.522941
0.578548
0.506094
0.500887
0.506722
0.467449
0.449372
0.491090
0.537051
0.474952
0.524514
0.453173
0.505917
0.400780
0.395277
0.426939
0.343758
0.388094
0.351217
0.329460
0.353272
0.310883
0.290005
0.251493
0.223630
0.203819
0.203343
0.255638
0.182920
0.142835
0.157419
0.142316
0.090483
0.166517
0.124100
0.037287
0.021115
0.034556
0.097822
0.025299
0.127151
0.060615
0.045200
0.069054
0.104495
0.019271
-0.053005
0.064085
0.081515
0.025768
0.101805
0.059692
0.053681
0.004700
-0.033757
-0.111462
0.032123
-0.024165
0.068424
0.045988
-0.018740
-0.007141
-0.064473
0.122989
-0.001232
0.105489
0.038833
0.039438
-0.045087
0.041650
0.039826
0.083564
0.062210
0.040121
0.060997
-0.016651
0.043319
0.091494
-0.001682
-0.012260
0.015980
0.017416
0.031483
0.095167
0.132974
0.083200
0.043668
0.051795
-0.056069
-0.007083
0.083688
0.051847
0.001351
0.083933
0.049410
0.036754
-0.002184
0.061938
0.057392
0.005373
0.052406
0.012351
0.003107
0.035739
0.018544
0.035292
0.067344
0.051596
-0.002443
0.053514
0.045400
0.147326
-0.028518
0.120945
0.107783
0.068305
0.072235
0.022205
0.077261
0.080522
0.145514
0.143033
0.132213
0.153958
0.084325
0.056861
0.193619
0.178527
0.173302
0.209890
0.196455
0.249764
0.195121
0.161865
0.203430
0.251941
0.225343
0.227158
0.294712
0.180367
0.235811
0.183155
0.168677
0.151646
0.122771
0.108169
0.093857
0.167365
0.116800
0.108310
0.074561
0.058164
0.059361
0.118067
0.138421
0.090641
0.078461
0.026577
0.023697
0.052263
0.009475
-0.006863
0.092433
-0.031979
0.042360
-0.029006
0.024432
0.002169
0.057151
0.064717
0.054473
0.122806
0.032882
0.003738
0.025583
0.007211
-0.008316
0.301070
0.518947
0.979656
1.257396
1.408589
1.359012
1.211600
0.957734
0.614663
0.285830
-0.048665
-0.182421
-0.200575
-0.228098
-0.163818
-0.098668
-0.040105
0.016680
0.031026
0.037470
0.032956
0.082021
0.050255
0.051171
0.103870
0.032569
0.031591
0.026169
0.076150
0.086065
0.064604
0.066721
0.060894
0.189672
0.063674
0.089870
0.182820
0.165812
0.092965
0.204573
0.140067
0.221443
0.231538
0.289560
0.363149
0.232058
0.273944
0.357927
0.313661
0.306911
0.390937
0.374583
0.448638
0.377261
0.433194
0.425487
0.471319
0.504496
0.522760
0.518546
0.525296
0.507968
0.619713
0.524438
0.561106
0.517174
0.528239
0.554541
0.489916
0.475010
0.493294
0.515112
0.501497
0.459229
0.427341
0.409964
0.388959
0.322593
0.276765
0.248990
0.226251
0.231831
0.232001
0.297754
0.292496
0.190228
0.227899
0.227286
0.128394
0.070780
0.072121
0.046936
0.072295
0.086169
0.107914
0.098654
0.053083
0.032152
-0.007931
0.141403
-0.054721
0.061488
0.049463
0.018273
0.031754
0.015325
0.043561
0.043860
-0.037625
0.006104
0.059714
0.021318
0.040574
-0.022560
0.055218
0.056569
0.026691
-0.005908
-0.063771
0.042827
-0.028767
0.008351
-0.055964
-0.007055
-0.038817
-0.046150
-0.023675
-0.002735
-0.046644
-0.031943
0.048553
-0.036133
0.037441
-0.044359
0.013831
-0.066357
-0.068648
-0.050382
-0.021315
-0.050923
-0.009567
0.031361
0.001582
-0.005651
-0.000916
0.010225
0.042409
-0.084416
-0.089182
0.001106
-0.055944
-0.033335
-0.008102
0.052586
-0.026662
0.061743
-0.002044
0.015755
-0.017252
0.004086
-0.078196
0.008787
-0.074280
-0.021123
-0.045034
-0.003520
-0.040799
-0.045816
-0.025785
0.006948
-0.080011
-0.028035
-0.044384
0.040148
-0.086038
-0.006586
0.113191
-0.085434
0.015318
-0.009518
0.024386
0.000690
0.044430
0.059299
0.071924
0.070242
0.071026
0.102543
0.082810
0.106493
0.193885
0.070038
0.130116
0.137194
0.111029
0.291758
0.050677
0.126537
0.157596
0.088864
0.131135
0.131414
0.109041
0.115174
0.009239
0.045933
-0.023779
0.087469
0.026115
-0.032242
-0.040360
-0.031730
-0.029438
-0.041682
-0.008862
-0.058082
-0.006297
-0.098177
0.020680
-0.031017
-0.068161
-0.035100
-0.009653
-0.098241
-0.107897
-0.089155
-0.118756
-0.088636
-0.024384
-0.036217
-0.083759
-0.074032
-0.206904
0.050465
0.101897
0.382387
0.757878
1.133259
1.337208
1.353323
1.212752
0.923605
0.669886
0.306500
-0.057815
-0.283377
-0.333308
-0.420995
-0.324211
-0.222744
-0.179313
-0.114457
-0.033246
-0.080901
-0.106656
-0.111655
-0.087415
-0.046745
-0.063275
-0.104149
-0.002415
-0.026094
0.043383
0.012430
0.002616
-0.005508
-0.025218
-0.078630
-0.049440
0.023293
0.007245
0.001730
0.069293
-0.019806
0.071916
0.037224
0.200437
0.077085
0.116558
0.176894
0.134577
0.193877
0.302829
0.224959
0.284221
0.296068
0.216343
0.332148
0.351222
0.308383
0.372555
0.358985
0.379805
0.380392
0.365635
0.441539
0.387565
0.437663
0.369664
0.482261
0.484027
0.497579
0.380123
0.372528
0.455846
0.322225
0.321784
0.259233
0.322513
0.363580
0.213688
0.121606
0.167994
0.233094
0.162231
0.121866
0.016310
0.106646
0.051802
0.082027
0.018414
0.034938
0.013680
-0.002242
0.043457
-0.097569
0.006514
-0.046547
-0.067565
-0.036456
-0.089443
-0.015148
-0.002310
-0.054789
-0.102173
-0.040093
-0.121123
-0.085195
-0.076417
-0.038062
-0.014282
-0.098936
-0.128172
-0.143229
-0.108439
-0.078209
-0.107638
-0.108416
-0.060742
-0.082467
-0.132157
-0.054414
-0.082417
-0.082319
-0.047934
-0.137639
-0.135007
-0.125843
-0.094874
-0.118547
-0.074287
-0.092064
-0.050454
-0.107551
-0.077586
-0.100020
-0.081119
-0.133016
-0.120748
-0.049162
-0.068353
-0.106647
-0.151810
-0.037690
-0.135691
-0.124548
-0.116943
-0.136056
-0.139068
-0.055056
-0.096821
-0.132828
-0.172094
-0.032306
-0.030837
-0.067201
-0.076569
-0.084219
-0.054495
-0.087121
-0.078977
-0.104094
-0.125667
-0.085191
-0.064321
-0.095488
-0.080633
-0.063328
-0.217230
-0.131013
-0.073552
-0.034346
-0.028971
-0.110747
-0.077734
-0.021161
-0.134160
-0.059362
-0.026651
-0.052453
-0.020950
-0.022911
0.032720
0.020811
-0.009564
0.015285
0.024085
0.066850
0.025141
0.087616
0.083901
-0.024788
0.047961
0.168725
0.136284
-0.035907
0.149377
0.094076
0.087748
0.092021
0.063751
0.062443
0.041433
0.108532
0.054366
0.026856
-0.040497
-0.053907
-0.045260
-0.040572
0.076412
-0.040314
-0.017108
-0.031452
-0.061288
-0.040056
-0.026757
-0.049247
-0.099718
-0.059217
0.002034
-0.069329
-0.098899
-0.062469
-0.066539
-0.110012
-0.066853
-0.022129
-0.037851
-0.074707
-0.030070
-0.124863
-0.020147
-0.005813
-0.058497
-0.184062
-0.088629
-0.075352
0.074011
0.296152
0.614849
0.869042
1.198414
1.349859
1.391341
1.094776
0.724445
0.373569
0.118319
-0.106229
-0.251551
-0.423897
-0.345530
-0.238178
-0.114083
-0.078097
-0.099655
-0.093806
-0.031333
-0.085028
0.028480
-0.039615
-0.059359
-0.008002
-0.009672
-0.050304
-0.045368
-0.034660
-0.025487
0.003030
0.040459
-0.004599
-0.037622
0.041765
0.062684
0.084517
0.057917
0.098691
0.100862
0.131436
0.095834
0.212965
0.190182
0.188015
0.182386
0.319237
0.181062
0.279915
0.319518
0.318548
0.310389
0.346723
0.358795
0.369786
0.355340
0.423005
0.477469
0.469147
0.445163
0.399542
0.507254
0.532033
0.449482
0.484455
0.438169
0.520685
0.439291
0.394855
0.502530
0.429834
0.424318
0.316368
0.415244
0.357394
0.398804
0.376926
0.340152
0.291397
0.269296
0.238698
0.204721
0.148998
0.116006
0.254681
0.167886
0.171816
0.022380
0.167659
0.068515
0.130948
0.088822
0.062823
0.029939
0.092534
0.050192
0.082184
0.005799
0.001078
0.005374
-0.037384
0.057964
0.018909
0.016677
0.054987
-0.016967
0.044461
0.002330
0.040402
-0.000691
0.135647
-0.022842
-0.019344
-0.050195
-0.017264
-0.012100
-0.006713
0.077466
0.000723
0.056691
-0.017590
-0.001320
0.061828
0.016397
-0.007348
0.103129
0.012594
0.033487
0.017402
0.064616
0.089648
0.040373
0.049138
0.010052
0.006043
0.034756
-0.030643
-0.041950
-0.006579
0.012771
0.032666
0.036004
0.065807
-0.019192
-0.005468
0.026096
-0.004552
-0.109245
0.056880
0.050957
0.086182
0.047641
0.011146
0.002531
0.042024
0.000167
0.030978
0.120935
-0.002980
0.083511
0.083750
-0.042881
0.057316
-0.044550
0.013970
0.059571
0.029550
-0.018986
0.032869
-0.036745
0.121054
0.001090
0.001711
0.036661
0.157769
0.105041
0.058618
0.131635
0.107369
0.186580
0.161851
0.100140
0.187716
0.116355
0.174584
0.174578
0.200693
0.189157
0.185903
0.184324
0.221760
0.253303
0.247067
0.220681
0.188845
0.178036
0.230161
0.206961
0.263507
0.164565
0.092747
0.225172
0.116276
0.102662
0.187760
0.127777
0.155475
0.119860
0.054861
0.090698
0.105877
0.121967
0.099224
0.045500
0.000265
0.153496
0.016000
0.162856
0.013913
0.081766
0.116989
0.058663
0.093012
-0.038625
0.116407
0.066592
0.038274
0.118527
0.023708
0.039443
-0.020382
0.092642
0.028794
0.105234
0.350941
0.568201
0.927476
1.271707
1.460979
1.407104
1.261327
0.943954
0.664278
0.219834
0.064274
-0.161929
-0.184826
-0.229906
-0.113771
-0.060966
-0.001422
0.030458
0.050839
0.053089
0.073984
0.073902
0.187866
0.046988
0.007204
0.139094
0.068988
0.122922
0.123499
0.123009
0.104051
0.084905
0.144603
0.240574
0.169580
0.217611
0.234761
0.184188
0.281563
0.165775
0.235030
0.245453
0.258473
0.202821
0.262044
0.318373
0.249538
0.247899
0.348526
0.382787
0.444361
0.477939
0.355507
0.453653
0.520775
0.456210
0.578164
0.528121
0.550223
0.534043
0.484273
0.544856
0.581186
0.596674
0.596816
0.567312
0.560367
