-0.069602
-0.000661
-0.050082
-0.049776
-0.012850
0.041609
0.053965
-0.090546
-0.047883
0.036339
0.053320
0.009620
-0.005425
0.046091
0.041137
-0.051518
0.038258
0.059063
-0.011822
-0.009218
0.060475
0.058238
0.077661
0.043262
0.028439
0.130591
0.168344
0.021096
0.126379
0.117764
0.182614
0.140657
0.132424
0.115553
0.217360
0.114588
0.186884
0.134858
0.244266
0.261911
0.132142
0.281337
0.210933
0.256195
0.243646
0.224570
0.111896
0.198900
0.155484
0.125077
0.145117
0.178736
0.092393
0.092448
0.111260
0.055496
-0.005367
0.149597
0.061754
0.088013
0.111822
-0.011969
0.114823
0.070438
0.085091
0.095623
0.029544
0.035364
0.130577
-0.008553
0.023183
0.028259
0.084742
0.126102
0.244640
0.444706
0.751028
1.085751
1.285804
1.403463
1.405346
1.143836
0.799847
0.329817
0.037889
-0.090899
-0.119311
-0.110253
-0.071417
-0.021522
0.046637
0.042130
0.065365
0.120530
0.135320
0.076299
0.066187
0.127185
0.089316
0.216680
0.128200
0.153584
0.186082
0.202926
0.162437
0.277326
0.231447
0.356366
0.190812
0.168402
0.254047
0.362420
0.402208
0.352137
0.356756
0.472604
0.469070
0.476322
0.510214
0.510530
0.499466
0.451119
0.481127
0.619674
0.587149
0.515992
0.577390
0.640822
0.563046
0.540392
0.583322
0.605869
0.540442
0.549994
0.580307
0.514003
0.565342
0.493679
0.498762
0.540297
0.380468
0.467828
0.402466
0.390231
0.421818
0.327014
0.375117
0.242090
0.296722
0.252293
0.181653
0.261836
0.211675
0.193969
0.151896
0.128317
0.204882
0.185589
0.053921
0.189703
0.188413
0.137579
0.084213
0.096462
0.094134
0.035371
0.097128
0.135007
0.149590
0.121848
0.173977
0.006196
0.056697
0.066690
0.123767
0.084793
0.095022
0.039669
0.083709
0.076687
0.120736
0.138529
0.037786
0.093971
0.059246
0.030078
0.084747
0.083203
0.090467
0.073438
0.057642
0.086467
0.121816
0.131602
0.120411
0.096815
0.109031
0.104641
0.166367
0.053195
0.022621
0.084769
0.011620
0.078351
0.045177
0.061117
0.162334
0.126214
0.102048
0.143986
0.078870
0.083246
0.036410
0.138079
-0.001412
0.113549
0.077754
0.136811
0.179166
0.152421
0.088329
0.094636
0.132343
0.204225
0.159609
0.201516
0.180290
0.249568
0.209862
0.266841
0.258675
0.173606
0.266097
0.330019
0.288669
0.299734
0.271110
0.228080
0.276283
0.253004
0.245557
0.276955
0.271459
0.257214
0.205865
0.213238
0.145025
0.212333
0.204816
0.210519
0.151170
0.142294
0.193670
0.157632
0.180423
0.180098
0.161966
0.247336
0.158173
0.079718
0.105952
0.132991
0.094423
0.043654
0.046107
-0.000228
0.042790
0.103726
-0.008332
0.096816
0.186816
0.236489
0.346611
0.724001
1.018065
1.333144
1.478846
1.450263
1.168589
0.931044
0.462913
0.177736
0.037305
-0.210705
-0.124043
-0.162356
-0.023273
-0.012307
0.021734
0.037255
0.098971
0.096448
0.081730
0.113515
0.147883
0.110445
0.083155
0.139156
0.157937
0.118271
0.173975
0.216321
0.150255
0.252823
0.341626
0.367741
0.351815
0.261074
0.231564
0.349904
0.344798
0.437595
0.435669
0.451576
0.410996
0.538803
0.559220
0.556120
0.519349
0.468797
0.552699
0.578705
0.541382
0.586102
0.604977
0.621891
0.517861
0.582477
0.567028
0.520238
0.593304
0.560414
0.520838
0.443527
0.472492
0.478980
0.425981
0.422590
0.360233
0.313808
0.360856
0.354851
0.303576
0.294181
0.284434
0.305003
0.229955
0.204282
0.159962
0.263636
0.136641
0.077112
0.174602
0.185158
0.160026
0.106171
0.070328
0.132117
0.052964
-0.012925
0.150288
-0.003522
0.008610
0.037264
-0.016097
0.056200
0.024080
0.066994
-0.016392
0.054158
-0.022133
0.029304
-0.007291
0.039976
0.071044
-0.021881
0.103001
0.008787
0.039430
0.046818
0.023170
0.145266
0.034294
0.094003
-0.003457
0.063679
0.016649
-0.042164
0.137607
0.004665
0.009287
0.060210
0.025804
0.006138
0.046673
-0.016014
0.084903
-0.016926
-0.003848
0.057303
0.019151
-0.004245
0.004357
-0.000048
-0.029178
-0.019297
-0.033688
0.070357
0.053532
0.081132
-0.069901
0.009519
0.012002
0.010604
-0.016190
0.045713
0.042901
0.006461
0.075139
0.080794
0.007109
0.054459
0.028162
0.134678
0.107698
0.110387
0.119012
0.040085
0.093523
0.075413
0.159018
0.121697
0.164660
0.118489
0.250687
0.059670
0.226526
0.141220
0.161938
0.111688
0.143343
0.065910
0.148966
0.031572
0.081948
0.159021
0.104737
-0.012332
0.122963
0.086189
0.009128
0.018446
0.024384
0.018055
0.016871
0.054065
0.012257
-0.050132
0.008284
-0.048676
-0.095927
-0.115255
0.009869
0.024116
-0.083056
-0.115589
-0.005373
-0.017968
0.083874
0.213772
0.439328
0.792424
1.071383
1.343859
1.347787
1.268708
0.966371
0.610854
0.243072
-0.103522
-0.222870
-0.277561
-0.153909
-0.160980
-0.048782
-0.083448
-0.038336
0.007008
-0.005366
0.035790
0.004216
0.061907
-0.022857
0.136240
0.082800
0.133420
0.100615
0.160757
0.091184
0.013466
0.130376
0.078161
0.200687
0.192445
0.250020
0.118831
0.304868
0.280234
0.301513
0.383680
0.331330
0.333956
0.333984
0.369676
0.347565
0.339445
0.435966
0.441570
0.450137
0.434824
0.462775
0.478746
0.538141
0.489942
0.563790
0.501183
0.517430
0.364626
0.454155
0.411910
0.433640
0.366795
0.394782
0.370489
0.281103
0.273514
0.230715
0.332738
0.236852
0.195340
0.250036
0.209533
0.215763
0.050648
0.199039
0.043710
0.082864
0.118325
0.081606
0.073932
0.147222
0.117774
0.001431
-0.017118
0.046034
0.002219
0.021898
-0.023517
-0.095407
0.026995
-0.027234
-0.055326
0.000053
-0.043023
-0.041999
-0.024784
-0.118080
-0.063316
-0.117215
-0.013118
0.048363
-0.081708
0.038296
-0.129911
-0.087205
-0.018544
-0.035610
-0.035402
-0.045756
0.010531
-0.012296
-0.092748
-0.010397
-0.034422
-0.010052
-0.016612
-0.111593
0.015214
0.005808
-0.100442
-0.010246
-0.048420
-0.104035
0.026461
-0.038101
-0.102918
-0.040850
-0.088899
-0.102363
-0.062576
-0.100752
-0.069073
-0.060220
0.001632
-0.062602
0.047541
-0.024144
-0.018735
-0.049357
-0.058705
-0.044515
-0.091127
0.025431
0.076802
0.024700
-0.009948
0.024554
0.010151
0.012247
-0.032656
0.000503
0.035126
0.140335
0.094992
0.084125
0.089423
0.088794
0.132050
0.183208
0.101514
0.127449
0.062135
0.150945
0.102586
0.132792
0.071326
0.156029
0.128384
0.167566
0.086931
0.122971
0.080746
0.010095
0.111032
0.042454
0.056863
0.106525
-0.013998
-0.070353
0.056953
-0.024265
0.019551
0.012355
0.006610
-0.020913
-0.025988
-0.010658
-0.105573
0.084341
-0.001249
-0.077373
0.037160
-0.066397
-0.050125
0.007645
0.067659
0.125718
0.358513
0.596476
0.965891
1.238920
1.397525
1.222836
1.059606
0.765172
0.372010
0.015128
-0.187006
-0.248045
-0.209437
-0.224282
-0.106549
-0.006899
-0.030650
0.068560
0.073447
0.033912
0.096654
0.050141
0.030142
-0.081980
0.076009
0.068976
0.130066
0.000001
0.138371
0.139774
0.170391
0.121696
0.205937
0.286743
0.163224
0.320390
0.264087
0.216936
0.271973
0.348117
0.409586
0.404029
0.338459
0.308144
0.379234
0.421409
0.416129
0.374831
0.415968
0.530096
0.572956
0.540012
0.465875
0.509629
0.450712
0.574591
0.574198
0.587577
0.515598
0.536151
0.446271
0.480730
0.531869
0.405249
0.474138
0.334607
0.393233
0.390510
0.367816
0.331243
0.327287
0.277003
0.313178
0.211418
0.213062
0.204868
0.129462
0.278133
0.197526
0.134949
0.095589
0.067159
0.096912
0.148682
0.037518
0.167894
0.074194
0.060293
0.025725
0.054118
0.139105
-0.022583
0.057592
0.013237
0.024041
0.035244
-0.038875
-0.016203
0.044340
0.023610
-0.023242
-0.001675
0.118201
0.023727
0.084476
0.063716
-0.003300
0.066364
0.068666
0.026806
0.098247
0.119708
0.084405
0.120758
0.071474
0.081172
0.035832
0.001985
0.056756
0.098910
0.156188
0.020891
0.121416
0.042328
0.039520
0.044430
0.061152
0.001528
-0.009717
-0.035029
-0.040869
0.064168
0.066482
0.052485
0.046250
-0.031682
-0.029881
0.095631
0.077533
0.052134
0.088587
0.119982
0.016061
0.099007
0.056371
0.065215
0.207484
0.092847
0.199746
0.143107
0.063035
0.187788
0.131833
0.211635
0.144858
0.180821
0.166920
0.245365
0.189161
0.173362
0.210689
0.263261
0.158601
0.209795
0.235114
0.222222
0.293450
0.183982
0.151576
0.098458
0.178749
0.160860
0.142662
0.149201
0.207741
0.100813
0.115304
0.132292
0.115321
0.243561
0.192211
0.057562
0.020306
0.121694
0.057602
0.087942
0.060934
0.171941
0.071576
-0.009552
0.069116
0.116990
0.095693
0.080094
0.058649
0.117227
0.224994
0.340702
0.646570
0.916789
1.330675
1.402784
1.385344
1.270959
0.941920
0.651329
0.274504
-0.033105
-0.112952
-0.101575
-0.185512
0.039415
-0.083432
0.095739
0.067909
0.150742
0.085572
0.147737
0.101796
0.268553
0.156178
0.173854
0.154439
0.149348
0.268064
0.171747
0.247905
0.216249
0.207636
0.225755
0.225203
0.386414
0.263962
0.336390
0.391873
0.423685
0.340383
0.458608
0.457266
0.464769
0.479526
0.425008
0.540903
0.511070
0.523307
0.539470
0.603053
0.646172
0.570500
0.577786
0.611894
0.660759
0.555252
0.577333
0.589707
0.609069
0.555163
0.589943
0.513923
0.568017
0.617538
0.526143
0.488353
0.489036
0.389430
0.462389
0.527569
0.320017
0.371459
0.297899
0.267434
0.347829
0.268117
0.351669
0.290342
0.230736
0.268499
0.109416
0.180210
0.134714
0.146357
0.147390
0.149649
0.133628
0.068210
0.173376
0.133699
0.101414
0.102862
0.118123
0.088607
0.108737
0.115988
0.039483
0.071398
0.132862
0.093727
0.079692
0.102642
0.144997
0.070499
0.034756
0.081634
0.134987
0.140516
0.076959
0.050452
0.082717
0.089626
0.132746
0.041975
0.083054
0.106160
0.037073
0.039522
0.077059
0.030480
0.198172
0.089710
0.120963
0.056276
0.146382
0.015407
0.109033
0.040718
0.110265
0.131826
0.089488
0.034008
0.026405
0.043109
0.091346
0.093211
0.062269
0.006740
0.065556
0.110803
0.044093
0.121884
0.012426
0.129630
0.102636
0.123210
0.071108
0.210131
0.117880
0.160879
0.139827
0.197062
0.211694
0.225266
0.221516
0.256855
0.179488
0.339027
0.230763
0.215121
0.298420
0.248650
0.236630
0.352929
0.181833
0.191710
0.194335
0.191697
0.271547
0.216517
0.187275
0.137550
0.186304
0.148626
0.149657
0.177424
0.088968
0.120082
0.175471
0.110876
0.056212
0.051213
0.040924
0.029932
0.070222
0.139758
0.056942
0.169821
0.031854
0.061983
0.063430
0.104395
-0.012406
0.072569
0.015969
-0.020177
0.151628
0.266212
0.513325
0.771978
1.253662
1.336942
1.390423
1.321489
1.031006
0.709841
0.306034
0.069163
-0.108240
-0.150282
-0.177716
-0.043066
-0.121251
0.041365
0.053019
0.065389
0.069286
0.104198
0.036327
0.021187
-0.000877
0.075340
0.163147
0.128272
0.255434
0.123772
0.135611
0.204545
0.133095
0.342649
0.271698
0.165478
0.253829
0.275842
0.333702
0.318945
0.364276
0.371156
0.407372
0.365464
0.413278
0.325119
0.421952
0.517339
0.497289
0.515775
0.532160
0.522481
0.529920
0.497593
0.445832
0.526474
0.612706
0.538068
0.468563
0.465411
0.454373
0.570837
0.471692
0.451207
0.402313
0.459210
0.390295
0.422117
0.379888
0.317054
0.367236
0.323591
0.231998
0.293647
0.191532
0.168805
0.145486
0.198406
0.199453
0.097284
0.100112
0.143922
0.149793
0.216909
0.107920
0.095479
0.117045
0.050779
0.126331
0.131869
0.046229
0.047913
0.049715
0.083549
0.008158
0.020775
-0.023297
-0.019973
-0.064527
-0.003698
-0.040333
-0.016723
0.081877
-0.097763
0.000365
-0.046114
0.094163
-0.036060
-0.049343
-0.022760
-0.171722
-0.081271
0.046912
-0.026610
-0.038231
-0.062270
-0.031617
-0.016274
-0.064085
-0.073413
-0.088975
-0.001678
-0.039413
-0.041906
0.071340
-0.041439
-0.052174
0.120026
-0.025973
-0.020705
-0.030831
0.022361
-0.095045
-0.023373
-0.080791
-0.052498
-0.093760
-0.028967
0.033363
-0.031682
-0.039652
-0.026469
-0.031677
0.032033
0.006003
-0.030283
-0.096001
0.010776
0.042678
-0.042653
0.056148
-0.027232
0.018769
0.108423
0.188960
0.077587
-0.039506
0.062918
0.134312
0.122390
0.055330
0.143736
0.054530
0.103243
0.110953
0.210718
0.114867
0.145573
0.190315
0.065914
0.077499
0.041063
0.047930
0.032610
0.104002
0.051860
0.014999
0.061548
-0.068023
-0.044411
-0.048167
-0.093082
-0.091826
-0.047958
-0.046346
0.004664
-0.029727
-0.058058
-0.039349
-0.065962
-0.066254
-0.044347
-0.091357
-0.071178
-0.011677
-0.058803
-0.005870
0.005521
0.039757
0.238908
0.592551
0.883752
1.174652
1.345805
1.225300
1.061866
0.832385
0.259856
0.022278
-0.259999
-0.265741
-0.316191
-0.326793
-0.090680
-0.042881
-0.066020
-0.028165
0.015790
0.026290
0.037596
0.028641
-0.046192
-0.015973
0.012601
-0.040770
0.030861
0.048027
0.012335
0.099221
0.169677
0.071485
0.134240
0.189377
0.129792
0.203763
0.242772
0.244977
0.229551
0.275243
0.213259
0.223980
0.409493
0.293739
0.385520
0.386779
0.329726
0.358216
0.428753
0.364317
0.399661
0.362641
0.428614
0.430000
0.413819
0.426145
0.401157
0.376567
0.309563
0.433346
0.363925
0.388881
0.334339
0.365844
0.366029
0.324225
0.274295
0.344359
0.291169
0.227946
0.299981
0.143820
0.162292
0.166564
0.171586
0.150667
0.090260
0.022041
0.085516
0.116916
0.157794
0.014572
0.027859
-0.049943
-0.042910
-0.051046
0.003428
-0.049043
-0.096722
-0.021992
-0.079514
-0.105109
-0.040231
-0.126849
-0.057768
-0.059643
-0.079017
-0.085450
-0.049660
-0.093550
-0.115926
-0.096498
-0.014845
-0.120651
0.004541
-0.081934
-0.130925
-0.188714
-0.017126
-0.077359
-0.050022
-0.088397
-0.010355
-0.041170
-0.119782
-0.056627
0.010856
-0.156766
-0.046534
-0.071828
-0.020580
0.006938
-0.079446
-0.120259
-0.036386
-0.051254
-0.086765
-0.092104
-0.019409
-0.107977
-0.018953
-0.185939
-0.028131
-0.080106
-0.045118
-0.055160
-0.069255
-0.083919
-0.035645
-0.101917
-0.084766
-0.084718
-0.137364
-0.089154
-0.092603
-0.022487
-0.018579
0.015650
-0.024596
0.003591
-0.042689
0.010779
0.067519
0.064343
0.114222
0.063129
0.127107
0.018911
0.142031
0.154865
0.059445
0.132513
0.137048
0.116372
0.063567
0.105080
0.156881
0.130397
0.059677
0.116383
0.089823
0.089833
-0.004615
0.013468
0.020942
0.008930
-0.046599
-0.035985
-0.084537
-0.004277
-0.061329
0.079134
-0.051721
-0.032812
-0.131633
-0.086661
-0.081405
-0.024754
-0.062400
0.006595
-0.025669
-0.035733
-0.061681
-0.142568
-0.145245
-0.018729
-0.038494
0.205706
0.444733
0.788449
1.143590
1.278931
1.378193
1.125774
0.824301
0.422213
0.203739
-0.067983
-0.175963
-0.287563
-0.185277
-0.175459
-0.126759
-0.064225
-0.006725
0.044584
0.029579
0.036603
0.022054
0.082503
0.057062
0.085920
0.104101
0.063429
0.089735
0.171757
0.037480
0.107111
0.242611
0.106915
0.162447
0.112049
0.213960
0.261844
0.345656
0.292949
0.310447
0.308502
0.270640
0.388534
0.391528
0.342426
0.416346
0.417660
0.519190
0.453697
0.544409
0.428327
0.603957
0.472814
0.596469
0.533944
0.435122
0.541353
0.422901
0.420290
0.481572
0.476416
0.486568
0.433368
0.309659
0.453600
0.392026
0.413746
0.268902
0.252142
0.210986
0.277578
0.255396
0.203028
0.268708
0.250708
0.209553
0.157517
0.188325
0.058555
0.104212
0.065623
0.131395
0.092129
0.054571
-0.030133
0.028332
0.026845
0.057542
-0.105047
0.006208
0.121040
0.048246
0.012090
0.010551
-0.019826
-0.023906
-0.019166
0.084467
0.044550
-0.086711
-0.061922
-0.018672
-0.066307
0.037759
0.060518
-0.003423
0.005451
0.057591
-0.010895
0.007684
-0.011674
0.055616
0.039684
0.012938
0.031538
0.013711
0.037376
0.100180
0.013713
0.026114
-0.013546
-0.014980
0.058766
0.094705
-0.004924
0.011124
0.038065
-0.062546
-0.017529
0.016457
0.017711
0.101731
0.041740
0.153015
0.044494
0.016079
0.008233
0.064544
-0.014986
0.083163
-0.020815
-0.012150
0.018733
0.071863
-0.000444
0.116759
0.170321
-0.000765
0.072394
0.145310
0.240951
0.129690
0.072466
0.120256
0.149289
0.135047
0.217323
0.186138
0.269057
0.262658
0.150530
0.204702
0.201898
0.240541
0.196131
0.123659
0.131237
0.212318
0.107549
0.103935
0.108764
0.143783
0.188309
0.163533
0.217943
0.118525
0.055846
0.061520
0.155412
0.099400
0.115862
0.093044
0.068727
0.151403
0.076076
0.035682
0.042383
0.179871
0.004658
-0.021466
0.010633
-0.067809
0.044140
0.092341
0.070194
0.013049
0.041031
0.285116
0.514871
0.790683
1.144081
1.309220
1.463401
1.312183
1.040898
0.685386
0.306060
-0.003975
-0.152261
-0.245963
-0.106568
-0.046652
0.029746
0.104475
0.103226
0.038847
0.130652
0.046760
0.002222
0.095062
0.117767
0.077845
0.133858
0.184164
0.183549
0.108701
0.224076
0.186314
0.240422
0.184074
0.200652
0.244970
0.291252
0.228747
0.286550
0.402753
0.418048
0.323853
0.367945
0.398718
0.566940
0.398300
0.428370
0.581250
0.486584
0.531860
0.572994
0.529436
0.566902
0.591926
0.594458
0.544222
0.574175
0.555969
0.562758
0.512069
0.487722
0.537585
0.561462
0.569324
0.471185
0.519043
0.434058
0.473989
0.359624
0.375378
0.321373
0.340002
0.315704
0.317606
0.269373
0.198092
0.158143
0.268159
0.189120
0.250389
0.144094
0.230255
0.169416
0.158275
0.085450
0.089019
0.173608
0.075761
0.127054
0.088370
0.098830
0.072173
0.049099
0.081677
-0.023639
0.032945
-0.005141
0.045180
0.015039
0.034481
-0.002252
0.026834
0.119232
0.021339
0.104220
0.029556
0.050053
0.028790
0.027589
0.057319
-0.000059
0.075334
-0.006045
0.013618
0.047851
0.043922
-0.014194
0.015838
0.071737
0.041334
0.014462
0.014781
0.004112
-0.061779
0.010721
-0.001807
-0.042148
-0.059895
-0.027860
0.068630
0.034931
-0.081442
0.109791
-0.008244
-0.013408
0.059679
0.066414
0.023561
-0.025371
0.004861
0.020715
0.071980
-0.003375
0.112611
0.042779
0.049715
0.122248
0.031929
0.137920
0.044298
0.117977
0.104195
0.047426
0.089142
0.076926
0.114655
0.156999
0.146102
0.177166
0.143377
0.246779
0.168075
0.244586
0.172517
0.209604
0.163499
0.134962
0.254762
0.185503
0.181628
0.053402
0.135635
0.162799
0.190481
0.195216
0.078819
0.074337
0.022537
0.103853
0.114421
0.041831
0.063687
-0.009900
0.040963
0.087815
0.021904
-0.035543
-0.006392
0.049987
-0.063806
-0.002629
0.011343
-0.019494
0.028592
0.034414
-0.052018
0.027394
0.039302
0.126053
0.239453
0.563524
0.923063
1.224774
1.341896
1.363214
1.090466
0.774275
0.430252
0.131708
-0.064854
-0.284520
-0.255346
-0.209401
0.082687
-0.040188
-0.031435
-0.026726
0.031252
-0.020255
-0.030975
0.045577
0.072361
-0.009097
0.071844
0.051630
0.077154
0.019019
0.122654
0.106887
0.189600
0.207100
0.173712
0.163635
0.173856
0.192782
0.234088
0.264284
0.239740
0.299102
0.331416
0.293363
0.373705
0.411063
0.383573
0.357759
0.433647
0.450489
0.506639
0.506727
0.470415
0.532454
0.452234
0.427296
0.493252
0.422604
0.522679
0.375658
0.434379
0.437591
0.509448
0.464530
0.375008
0.409204
0.368483
0.277032
0.349383
0.344025
0.287103
0.268696
0.261970
0.291418
0.192862
0.206878
0.108612
0.143446
0.113526
0.130231
0.114168
0.048699
0.055245
0.001670
0.025575
0.046095
0.063918
0.011045
0.011805
-0.057385
-0.007844
-0.109309
-0.009150
0.018238
-0.009968
-0.023450
-0.035209
-0.066897
0.036954
-0.002181
-0.059871
-0.114920
-0.070028
-0.041139
-0.145886
-0.167833
-0.083910
-0.138005
-0.042384
-0.124233
0.050279
-0.009213
-0.066487
-0.034661
-0.076632
-0.077834
-0.090518
-0.085529
-0.028706
-0.113019
-0.055658
-0.118204
-0.033071
-0.053428
-0.093941
-0.129432
-0.082463
-0.104601
-0.126340
-0.071227
-0.113797
-0.069532
-0.129133
-0.079788
-0.110493
-0.050234
-0.088564
0.025239
-0.104135
-0.067243
-0.140583
-0.083648
-0.011029
-0.020449
-0.091417
-0.088589
-0.111723
-0.060415
-0.051841
-0.062726
-0.017473
-0.040678
-0.004142
0.091566
-0.012008
0.020597
0.097133
0.070148
0.119384
0.079834
0.132522
0.092196
0.013432
0.074926
0.111376
0.113153
0.082608
0.064124
0.100791
-0.015777
0.090897
0.094685
0.053804
0.002101
0.021748
-0.025601
0.024769
0.008618
-0.072220
-0.074789
-0.107649
-0.039232
-0.032796
-0.100191
-0.023077
-0.082483
-0.039848
-0.085539
-0.098573
-0.076204
-0.030525
-0.049236
-0.130397
-0.098757
-0.056751
-0.124895
-0.062931
-0.126556
0.052402
0.088710
0.347973
0.722103
1.126627
1.231424
1.345357
1.076472
0.851192
0.468621
0.161279
-0.191803
-0.212597
-0.298239
-0.226172
-0.234325
-0.165807
-0.182498
-0.083230
0.021934
-0.063235
-0.050658
-0.022207
-0.002831
0.021476
-0.035805
0.030998
0.032721
-0.036824
-0.094372
-0.000108
0.045507
0.043380
0.114153
0.106324
0.104561
0.126410
0.159764
0.235820
0.236225
0.224694
0.194276
0.235736
0.309906
0.329911
0.391322
0.362788
0.248032
0.396158
0.357203
0.431572
0.360504
0.420160
0.416177
0.466187
0.419286
0.376767
0.450656
0.440683
0.437673
0.374020
0.351767
0.431714
0.368192
0.351427
0.296149
0.334749
0.284803
0.218610
0.269221
0.241487
0.112567
0.159669
0.160568
0.112344
0.139732
0.087058
0.072287
0.119540
0.039799
0.082830
0.027549
0.012583
0.014736
-0.083506
-0.093839
-0.027198
-0.011679
-0.107665
-0.029480
-0.051207
-0.030557
-0.035102
-0.053607
-0.089790
-0.118332
-0.004519
-0.074102
-0.055667
-0.086903
-0.045461
-0.128998
-0.004608
-0.022006
-0.103088
-0.170328
-0.062950
-0.096065
-0.128664
-0.057967
-0.077832
-0.076470
-0.148827
-0.094696
-0.082253
-0.191668
-0.067427
-0.130147
-0.027059
-0.095598
-0.121214
-0.149641
-0.065894
-0.115379
-0.079389
-0.104029
-0.104028
-0.069947
-0.039955
-0.106794
-0.070327
-0.024116
-0.101635
-0.170013
-0.110049
-0.120695
-0.051395
-0.037378
-0.047339
-0.050134
-0.060198
-0.063461
-0.020812
-0.080061
-0.001127
0.035977
-0.031292
0.050834
0.058680
-0.025045
-0.082622
-0.059057
-0.054041
0.055713
0.028337
0.064399
0.050014
0.112269
0.169242
0.070818
0.145364
0.085256
0.146165
0.099721
0.148148
0.133871
0.111674
0.248734
0.103424
0.115784
0.101131
0.001687
-0.003233
0.063325
0.078099
0.034427
0.053248
-0.010377
0.057424
-0.000133
0.031704
-0.016512
-0.057475
0.011280
-0.028980
-0.112282
-0.013298
0.013712
-0.002819
-0.028885
-0.053403
-0.009962
-0.028358
-0.055915
-0.075323
-0.034583
-0.017159
-0.017204
0.066837
0.323813
0.683264
1.004269
1.248659
1.352719
1.286925
0.988515
0.659387
0.277966
-0.058046
-0.235754
-0.177990
-0.163780
-0.197629
-0.090435
-0.072610
-0.046598
-0.008624
0.008083
0.099607
0.060493
0.054889
0.158136
0.036535
0.052497
0.118948
0.099997
0.135614
0.136977
0.059995
0.070108
0.138364
0.175292
0.242375
0.298640
0.242179
0.326133
0.265950
0.288076
0.309943
0.311551
0.406492
0.371301
0.360625
0.417157
0.402935
0.437929
0.572874
0.556720
0.486818
0.427713
0.563615
0.528368
0.520685
0.565346
0.524450
0.554860
0.471498
0.475746
0.441861
0.465050
0.415959
0.445430
0.421120
0.360181
0.331049
0.375218
0.329374
0.333399
0.318903
0.275993
0.268025
0.303829
0.268205
0.215840
0.281009
0.199389
0.163908
0.161624
0.093854
0.209547
0.144327
0.084869
0.099258
0.127941
0.070035
0.126493
-0.028764
0.068231
0.024834
0.028486
0.114541
0.063054
0.103949
0.046163
0.000275
0.063112
0.018041
0.051035
0.080769
0.078630
-0.003571
0.036349
0.058882
0.051626
0.062494
0.068879
0.067215
0.030376
0.049456
0.088950
0.047882
0.064946
0.000098
0.038592
0.026683
0.027825
0.011634
0.037810
0.021747
-0.027922
0.026642
0.025132
0.005129
0.056472
0.054846
0.066498
0.038883
0.118995
-0.030102
0.099432
0.075419
0.140795
0.004732
0.016307
0.005887
-0.020637
0.065106
0.061411
0.076440
0.040181
0.036235
0.106250
0.060547
0.103526
0.120311
0.079811
0.205881
0.110621
0.214906
0.104182
0.154774
0.093122
0.214684
0.196720
0.296498
0.289786
0.184492
0.225299
0.159300
0.250607
0.304889
0.161054
0.210841
0.180758
0.275124
0.237049
0.220703
0.222261
0.197257
0.183685
0.182488
0.176671
0.172320
0.097361
0.116217
0.121404
0.132456
0.045255
0.124773
0.126656
0.107401
0.103961
0.076205
0.132099
0.051581
0.102844
-0.028383
0.152660
0.084292
0.049286
0.087974
0.018333
0.026348
0.062310
0.090234
0.241327
0.432212
0.644241
0.932509
1.219368
1.495037
1.500000
1.256596
0.961425
0.551345
0.199754
0.007425
-0.142340
-0.209921
-0.097553
-0.052123
0.013044
0.160574
0.081027
0.036151
0.110126
0.133973
0.113405
0.150546
0.102046
0.107829
0.137448
0.125792
0.183620
0.147787
0.178886
0.138814
0.239080
0.318281
0.332576
0.344278
0.301795
0.344349
0.347606
0.337895
0.438869
0.398993
0.434223
0.362878
0.489565
0.572308
0.537203
0.491068
0.536400
0.561033
0.627685
0.564809
0.616697
0.645956
0.613505
0.542570
0.561506
0.577829
