0.039093
-0.011275
0.073579
0.044708
0.004271
-0.035707
-0.001605
-0.027269
0.039045
0.026961
-0.010463
0.009895
0.078005
0.032378
-0.000030
-0.035898
0.034778
0.024437
0.022339
0.047051
0.043248
0.131739
0.032142
0.097264
0.032750
0.104467
0.048764
0.147245
0.036662
0.106255
0.191048
0.197454
0.157166
0.159183
0.156089
0.299751
0.224465
0.180338
0.235440
0.161114
0.142978
0.242277
0.194753
0.233019
0.183401
0.211024
0.107764
0.145366
0.115760
0.083646
0.147516
0.102696
0.005167
0.124748
0.001811
0.066249
0.061260
0.156962
0.077894
0.054091
0.065483
0.015312
0.079831
0.027521
0.040958
0.120212
-0.019013
-0.006811
0.058476
0.020733
-0.012252
0.125497
0.333039
0.465088
0.804597
1.055546
1.307437
1.451454
1.383762
1.079562
0.693510
0.441601
0.022545
-0.111193
-0.190884
-0.100101
-0.021392
0.011973
0.035949
-0.008825
0.087058
0.086401
0.148513
0.145650
0.147723
0.097909
0.142285
0.104227
0.211955
0.174554
0.169006
0.208517
0.236115
0.362931
0.215961
0.244613
0.177612
0.397596
0.321276
0.372990
0.334524
0.395963
0.426291
0.408216
0.505778
0.436975
0.469418
0.523808
0.583610
0.541406
0.551466
0.607012
0.635713
0.640348
0.540317
0.607577
0.591274
0.604474
0.525180
0.586011
0.508816
0.437739
0.445839
0.562287
0.534074
0.440835
0.400392
0.450432
0.425054
0.404355
0.344185
0.354567
0.375555
0.402499
0.371997
0.323649
0.279156
0.288757
0.236165
0.260022
0.140167
0.287336
0.154437
0.196640
0.169311
0.199349
0.105565
0.120549
0.104990
0.118454
0.178794
0.161800
0.062544
0.105209
0.098690
0.087849
0.112036
0.164036
0.098649
0.130255
0.129430
0.125051
0.111508
0.133919
0.138754
0.153697
0.042337
0.086252
0.125168
0.059472
0.062030
0.052291
-0.025065
0.086966
0.079918
0.076323
0.056233
0.138148
0.171102
0.094703
0.092799
0.178994
0.117032
0.043544
0.041383
0.002266
0.082668
0.053224
0.087001
0.046085
0.079083
0.041740
0.101038
0.038545
0.128882
0.109799
0.064487
0.139539
0.116105
0.137633
0.120476
0.171219
0.055668
0.148445
0.170050
0.146667
0.176886
0.110542
0.160571
0.159732
0.159882
0.198001
0.217267
0.242121
0.252189
0.184460
0.291413
0.258716
0.242339
0.299189
0.251929
0.310818
0.196994
0.246771
0.219998
0.270821
0.228308
0.205353
0.247825
0.210934
0.227315
0.242110
0.198813
0.132814
0.205268
0.142376
0.086335
0.198645
0.145652
0.121162
0.049977
0.102074
0.089916
0.116921
0.020372
0.120803
0.088715
0.068951
0.068103
0.167064
0.077418
0.049498
0.065095
0.059398
0.224436
0.418476
0.680385
0.872691
1.250516
1.430550
1.334725
1.214583
0.888282
0.480865
0.137624
-0.065948
-0.103842
-0.224530
-0.136494
-0.038323
0.063655
0.122038
0.064688
0.038627
0.156086
0.141990
0.107240
0.107817
0.134315
0.190793
0.164834
0.227042
0.192533
0.247091
0.182881
0.263002
0.289048
0.245468
0.312395
0.359694
0.299987
0.368988
0.436960
0.457902
0.416369
0.389031
0.469689
0.386305
0.604801
0.490150
0.550624
0.519875
0.526629
0.547370
0.571478
0.496687
0.583678
0.621853
0.596905
0.514255
0.486337
0.567608
0.533850
0.535953
0.537543
0.539709
0.423356
0.437459
0.489063
0.460212
0.393917
0.438416
0.405590
0.358248
0.288637
0.341335
0.257290
0.254267
0.254302
0.176169
0.164791
0.106810
0.218948
0.196691
0.138743
0.095384
0.092586
0.133978
0.177498
0.126554
0.092086
0.119951
0.019663
0.072429
0.108698
0.058967
0.041161
-0.009719
0.029272
0.016266
0.030834
0.038294
0.054898
0.144945
0.031391
0.013080
0.019184
0.024858
0.027049
-0.067294
-0.020585
0.077639
0.121827
0.017338
0.018640
0.021280
0.023616
-0.012052
0.034834
-0.013137
0.039570
0.018319
-0.013886
-0.029149
0.038450
0.064021
0.001392
-0.014454
0.029428
0.031222
-0.022238
-0.031646
-0.013992
0.005029
0.030057
-0.007113
0.010227
0.048025
0.022671
0.054563
0.006558
0.033197
0.104889
0.057268
0.036595
0.018036
0.072352
0.077259
0.040704
0.119433
0.041663
0.127460
0.025276
0.122879
0.149929
0.170138
0.122058
0.084252
0.160496
0.071499
0.163440
0.180243
0.163098
0.108435
0.249685
0.143522
0.166279
0.106554
0.201861
0.071406
0.087998
0.106027
0.148608
0.148555
0.025520
0.026623
0.033860
0.117276
0.110685
0.036363
0.059939
0.006793
0.008378
-0.000304
-0.013327
0.027800
0.081427
-0.012255
-0.079355
-0.062126
-0.106847
0.004071
0.066081
-0.054311
-0.051660
0.063687
0.098409
0.277482
0.453125
0.866383
1.127453
1.310775
1.374494
1.173777
0.000000
0.000000
0.000000
0.000000
0.000000
0.000000
0.000000
0.000000
0.000000
0.000000
0.000000
0.000000
0.000000
0.000000
0.000000
0.000000
0.000000
0.000000
0.000000
0.000000
0.000000
0.000000
0.000000
0.000000
0.000000
0.000000
0.000000
0.000000
0.000000
0.000000
0.000000
0.000000
0.000000
0.000000
0.000000
0.000000
0.400889
0.316819
0.382812
0.464034
0.415305
0.465892
0.462690
0.505189
0.362286
0.486218
0.499861
0.454627
0.455275
0.613570
0.469332
0.366819
0.471392
0.457361
0.352898
0.410329
0.416495
0.421555
0.289828
0.333085
0.274396
0.280876
0.241617
0.227406
0.143075
0.196469
0.066317
0.108445
0.122709
0.131136
0.051882
0.089093
0.074562
0.012750
-0.040670
-0.027109
0.028479
-0.067441
-0.080735
-0.001735
0.054565
-0.083138
0.004319
-0.130441
0.002786
0.014411
0.058668
-0.008294
-0.047485
0.022483
-0.032980
-0.112349
-0.107090
-0.005508
0.000071
-0.094100
-0.013238
-0.053315
-0.021505
-0.038036
-0.080914
-0.002109
-0.009460
-0.059981
0.001974
-0.115560
-0.076938
-0.035525
-0.073309
0.074840
-0.083330
0.015931
-0.116695
-0.016469
0.003786
-0.027590
-0.037788
-0.026250
0.048920
-0.107855
-0.085886
-0.058505
-0.061659
-0.052498
-0.026821
-0.080181
-0.013209
-0.039157
-0.032773
0.033183
-0.061694
0.081998
-0.012273
-0.071501
0.056772
-0.041406
-0.035588
0.001998
0.058591
0.092262
0.121223
0.058588
0.099346
-0.038305
0.097789
0.196620
0.102172
0.146567
0.155095
0.119754
0.075380
0.211066
0.100849
0.146381
0.131331
0.160375
0.129426
0.036758
0.082166
0.118142
0.060297
0.093922
0.061421
0.070931
-0.004383
0.048156
0.015805
0.014844
0.036459
-0.029927
0.040492
0.006693
0.006691
-0.072682
-0.056367
-0.059844
-0.062796
0.046936
0.000941
-0.040373
0.006882
0.020335
-0.078465
-0.064103
0.064930
0.152822
0.380976
0.725161
1.037417
1.274495
1.391351
1.202342
0.987884
0.644084
0.255347
0.016419
-0.172157
-0.203337
-0.274470
-0.130637
-0.058046
-0.001919
-0.039203
-0.014435
-0.071786
0.035414
0.057541
0.054734
0.066175
0.095764
0.134316
0.070408
0.073953
0.147168
0.174533
0.175849
0.163668
0.165410
0.249679
0.134818
0.220834
0.314162
0.189612
0.313646
0.398679
0.339287
0.320445
0.389000
0.409133
0.348807
0.441829
0.432404
0.445823
0.540463
0.451739
0.520135
0.499324
0.426511
0.516030
0.404035
0.538020
0.519404
0.422821
0.469447
0.500836
0.445686
0.421963
0.466691
0.422902
0.370481
0.207230
0.392420
0.354343
0.332962
0.274425
0.288073
0.282101
0.221117
0.224225
0.234116
0.213568
0.126011
0.122973
0.147580
0.093834
0.146915
0.068803
0.046667
0.067853
0.095019
0.009277
0.101492
0.051227
0.076245
0.124697
0.000119
0.110410
0.088774
0.049852
0.047594
-0.051826
-0.022325
0.068480
0.050054
0.029905
0.001738
0.065322
-0.072349
0.003771
0.052728
0.023132
0.016897
-0.014019
0.050514
-0.044902
0.055114
0.025101
0.095092
0.017694
-0.022703
0.073916
0.039199
-0.002977
0.038967
0.055979
0.003489
-0.003810
0.030133
0.087970
0.015089
0.047784
0.041143
0.109358
0.039037
0.093900
-0.020891
0.050376
0.042457
0.021353
0.103789
0.054490
0.013373
0.058638
0.038027
0.140297
0.032381
0.091179
0.138568
0.140405
0.053471
0.153198
0.131071
0.109412
0.000000
0.000000
0.000000
0.000000
0.000000
0.000000
0.000000
0.000000
0.000000
0.000000
0.000000
0.000000
0.000000
0.000000
0.000000
0.000000
0.000000
0.000000
0.000000
0.000000
0.000000
0.000000
0.000000
0.000000
0.000000
0.000000
0.000000
0.000000
0.000000
0.000000
0.000000
0.000000
0.000000
0.000000
0.000000
0.000000
0.000000
0.000000
0.000000
0.000000
0.000000
0.000000
0.000000
0.000000
0.000000
0.000000
0.000000
0.000000
0.000000
0.000000
1.397024
1.174351
0.799178
0.419834
0.216878
-0.062729
-0.016731
-0.124059
-0.127144
0.039904
0.015875
0.039072
0.089789
0.084440
0.228395
0.136508
0.267939
0.097304
0.135032
0.182468
0.227081
0.226180
0.242216
0.220897
0.161893
0.236211
0.263630
0.315299
0.284560
0.374302
0.288970
0.279631
0.307006
0.445686
0.519249
0.436754
0.492410
0.503172
0.474114
0.497780
0.546427
0.491412
0.608995
0.584821
0.655425
0.619503
0.640734
0.586801
0.574788
0.562976
0.576798
0.625866
0.602602
0.625407
0.560685
0.526914
0.520588
0.559823
0.400550
0.499656
0.439183
0.340913
0.470074
0.360029
0.381019
0.401974
0.309332
0.338358
0.279056
0.298427
0.222715
0.298211
0.269072
0.162833
0.305167
0.127337
0.104646
0.137666
0.104528
0.122817
0.132913
0.220430
0.050138
0.154722
0.160108
0.122408
0.105061
0.085396
0.130660
0.125424
0.090848
0.027269
0.130286
0.078105
0.114045
0.038149
0.039355
0.095573
0.086771
0.142469
0.138987
0.077430
0.017428
0.082572
0.146238
0.127766
0.087951
0.139077
0.137606
0.108183
0.019166
0.058593
0.108948
0.066271
0.040076
0.054689
0.077223
0.125214
0.015317
0.109789
0.106044
0.150509
0.119555
0.113258
0.148889
0.101820
0.045212
0.067751
0.061333
0.063711
0.052903
0.105126
0.046324
0.068319
0.036700
0.202428
0.121510
0.072197
0.174799
0.148290
0.169651
0.105424
0.080684
0.114929
0.138387
0.245411
0.178725
0.298869
0.239160
0.253481
0.284780
0.299952
0.343819
0.238585
0.270317
0.246613
0.269820
0.291126
0.290455
0.319848
0.215848
0.287934
0.276764
0.242610
0.206032
0.163768
0.127889
0.113184
0.139354
0.194636
0.134915
0.110161
0.072078
0.050962
0.038841
0.169592
0.134425
0.128623
0.123437
0.169275
0.096661
0.044426
0.004429
0.045045
0.130792
0.023477
0.138516
0.335221
0.673855
0.939039
1.264287
1.442508
1.424535
1.195326
0.940165
0.573559
0.219954
-0.009626
-0.132151
-0.115902
-0.100392
-0.043549
0.012367
0.086460
0.143776
0.097215
0.038112
0.097769
-0.009269
0.136671
0.128907
0.122858
0.195422
0.218641
0.173422
0.228842
0.226078
0.158085
0.238057
0.241041
0.234722
0.342545
0.324275
0.269171
0.373875
0.367918
0.348151
0.348892
0.481524
0.461754
0.395314
0.454364
0.498650
0.484143
0.457414
0.550528
0.590588
0.555723
0.586634
0.535871
0.581707
0.530766
0.517952
0.584195
0.518310
0.484030
0.505613
0.493006
0.466903
0.383952
0.475321
0.373710
0.427740
0.386426
0.326926
0.324356
0.236848
0.187616
0.284947
0.240343
0.307753
0.254825
0.235881
0.118967
0.157836
0.173172
0.141190
0.106944
0.073095
0.063995
0.039081
0.119489
0.005232
0.159086
0.100851
0.054839
0.019983
0.087523
0.076013
0.083415
-0.026733
0.122458
0.016830
0.016315
0.064072
-0.032260
0.003358
0.022189
0.084085
0.022806
0.048756
0.023219
0.007624
-0.052428
-0.086671
-0.051524
0.052083
-0.010573
0.048824
-0.023850
-0.031707
-0.034279
-0.010313
0.025735
0.001980
-0.096281
-0.023591
-0.019024
-0.001824
-0.006144
0.072573
0.023349
-0.018937
0.050741
-0.009391
-0.006688
0.001794
-0.003085
0.147368
-0.096647
0.061089
-0.015418
-0.002501
-0.111747
-0.014362
0.018485
0.025005
-0.018390
0.037572
0.000972
0.074559
0.018308
0.073620
0.003979
0.075680
0.016426
0.108707
0.091424
0.098935
0.073129
0.142362
0.072137
0.070804
0.129530
0.206374
0.221036
0.151812
0.112113
0.151294
0.128295
0.108762
0.013377
0.120570
0.048341
0.095438
-0.026336
-0.031740
0.031088
0.037579
0.039177
-0.005161
0.088235
-0.030559
0.007314
0.002278
-0.050794
-0.094862
0.002732
-0.009601
-0.068223
-0.017765
-0.051176
-0.012641
-0.024515
-0.055669
-0.069900
-0.026534
-0.016704
-0.021461
0.167748
0.441749
0.666958
1.068747
1.235993
1.320009
1.170520
0.867285
0.666868
0.218821
-0.140401
-0.175618
-0.258883
-0.284110
-0.183866
-0.206229
-0.046629
-0.051568
-0.004921
-0.030571
-0.047958
0.000584
0.023847
-0.075299
0.114410
0.032286
-0.002721
0.095553
0.054398
0.115090
0.147015
0.074780
0.125310
0.139856
0.205589
0.215712
0.199912
0.242341
0.267954
0.304072
0.290175
0.273607
0.362319
0.337327
0.327495
0.400588
0.493606
0.458090
0.475041
0.460499
0.440992
0.469978
0.413228
0.431233
0.430174
0.448363
0.390134
0.398373
0.328040
0.414701
0.399469
0.359343
0.372400
0.225053
0.268874
0.266435
0.223986
0.224966
0.237438
0.116391
0.069256
0.167272
0.121508
0.165496
0.206698
0.090619
0.028306
0.158057
0.042163
0.046588
0.035144
0.002871
-0.076633
-0.060436
0.012398
-0.104715
0.030868
-0.010087
-0.096054
0.024925
0.011238
-0.127170
-0.129716
0.004618
-0.118970
-0.023997
-0.071461
-0.042977
0.003525
-0.079551
-0.092942
-0.041362
-0.082678
-0.078704
-0.054882
-0.029510
-0.031072
-0.082847
0.004088
-0.048396
-0.134414
-0.071175
-0.125882
-0.104229
-0.148026
-0.061822
0.005353
-0.106611
-0.085896
-0.045728
-0.066904
0.013198
-0.107225
-0.087646
-0.081731
-0.076801
-0.129323
-0.053993
-0.054520
-0.097426
-0.086926
-0.042844
0.007076
-0.082153
-0.045453
-0.033070
-0.013269
-0.099281
0.030171
-0.012133
-0.030590
-0.038365
-0.027621
-0.009926
-0.024743
-0.139703
0.057801
0.043201
0.040071
0.060243
0.029244
0.099763
0.133095
0.069534
0.166420
0.016105
0.133601
0.139187
0.083443
0.130173
0.118126
0.038038
0.192101
0.118307
0.045821
0.114307
0.097456
0.068111
0.069846
-0.009205
0.028211
-0.025424
0.016410
-0.038727
-0.037215
0.003795
-0.026420
-0.009300
-0.148749
-0.085653
-0.051238
-0.087667
-0.030825
-0.021175
-0.071708
-0.140259
-0.054377
-0.044937
-0.034165
-0.137585
-0.081702
0.004575
0.111752
0.271823
0.628432
0.899909
1.147358
1.306874
1.214118
1.026758
0.603326
0.271372
-0.021863
-0.225293
-0.295317
-0.253825
-0.183426
-0.102107
-0.076121
-0.061772
-0.008474
-0.051767
0.038334
0.022575
-0.018330
0.024022
0.023760
0.040047
0.024829
0.022338
0.055177
0.101228
0.111540
0.154666
0.164951
0.128130
0.142290
0.261795
0.247109
0.349175
0.217470
0.353356
0.289228
0.351223
0.304312
0.331731
0.342861
0.413703
0.488480
0.533415
0.535146
0.499847
0.481513
0.412649
0.420238
0.477925
0.535739
0.383015
0.328141
0.449337
0.479252
0.432968
0.431117
0.485339
0.415295
0.398219
0.371621
0.362061
0.277151
0.258175
0.284528
0.344386
0.226187
0.237068
0.215819
0.280813
0.081081
0.227775
0.204681
0.109062
0.078531
0.097016
0.108135
0.036087
0.094363
0.051762
0.047172
-0.023375
0.065396
0.024445
0.013821
0.049365
0.044222
0.004243
0.001710
0.021300
0.021233
0.031037
-0.010782
-0.055916
-0.026939
-0.044931
0.009854
0.036627
-0.009383
-0.034164
-0.019990
-0.023305
-0.007819
-0.027101
0.020245
-0.051974
0.084129
0.019209
-0.048602
0.052657
-0.089894
0.059314
0.042255
0.027939
0.003662
-0.079837
0.021828
-0.058933
0.071342
0.007104
0.035635
-0.036289
0.002381
-0.008288
0.010294
-0.046915
-0.046321
-0.028495
0.020003
-0.030571
0.032067
0.032974
0.097078
0.014549
-0.003997
0.094693
0.017024
-0.017770
0.085383
0.070921
0.050306
0.080936
0.083752
0.045923
0.133098
0.138290
0.115051
0.084261
0.108841
0.152631
0.150436
0.161580
0.241777
0.143313
0.204126
0.228215
0.216446
0.195623
0.180019
0.225446
0.224805
0.157628
0.094476
0.162848
0.114084
0.084473
0.091537
0.056291
0.069272
0.013045
0.084402
0.138699
0.122907
0.092202
0.102496
0.004239
0.080937
0.049246
0.032694
0.021083
0.022774
0.119043
-0.032691
0.101026
0.034856
0.093457
0.026479
0.076742
0.175280
0.244651
0.591814
0.892282
1.238586
1.423013
1.338077
1.199522
0.878629
0.465489
0.118470
-0.072672
-0.145369
-0.173898
-0.107359
-0.008336
-0.052836
0.156005
0.061797
0.057123
0.121794
0.022748
0.093975
0.068112
0.149782
0.109488
0.105058
0.151581
0.210737
0.190680
0.125050
0.158408
0.281287
0.245807
0.221489
0.000000
0.000000
0.000000
0.000000
0.000000
0.000000
0.000000
0.000000
0.000000
0.000000
0.000000
0.000000
0.000000
0.000000
0.000000
0.000000
0.000000
0.000000
0.000000
0.000000
0.000000
0.000000
0.000000
0.000000
0.000000
0.000000
0.000000
0.000000
0.000000
0.000000
0.000000
0.000000
0.000000
0.000000
0.000000
0.000000
0.000000
0.000000
0.000000
0.000000
0.000000
0.000000
0.000000
0.000000
0.000000
0.000000
0.000000
0.000000
0.000000
0.000000
0.000000
0.000000
0.000000
0.000000
0.000000
0.000000
0.060359
0.073340
0.162424
0.034331
0.075661
0.063822
0.029480
0.129899
0.058100
0.101309
0.014913
0.004493
0.042616
0.047823
-0.010512
0.093159
0.088063
0.070378
0.038190
0.060963
0.047976
0.069733
0.042562
-0.005465
0.047162
0.029809
0.000157
0.018292
0.044792
0.075137
0.070160
-0.042231
0.051722
0.002728
0.074439
0.044959
0.026507
0.017102
0.017990
0.080972
0.032853
0.004392
0.048907
0.087953
0.025930
0.049984
0.063239
0.050215
-0.009533
0.118912
0.042948
0.075188
0.090172
0.062928
-0.000971
0.124809
0.064283
0.193505
0.066617
0.199101
0.101297
0.214802
0.203801
0.165890
0.170694
0.146535
0.252788
0.229360
0.217246
0.104119
0.260391
0.221976
0.217620
0.179844
0.115068
0.160447
0.113488
0.190150
0.088761
0.093044
0.084002
0.111771
0.146165
0.124502
0.056894
0.048384
0.023064
-0.039800
-0.014994
0.025483
0.036013
0.071889
0.023922
0.067770
0.033070
0.010439
0.046095
-0.028900
0.032506
0.027740
0.031229
0.114956
0.209095
0.487579
0.790205
1.087109
1.330710
1.371648
1.272601
1.025566
0.583227
0.259427
-0.009238
-0.116078
-0.134296
-0.173484
-0.148858
-0.087426
0.059353
0.033861
0.150707
0.008317
0.081612
0.071249
0.146753
0.134105
0.161273
0.095424
0.105850
0.196052
0.017778
0.077947
0.163713
0.121008
0.162217
0.203251
0.314577
0.160403
0.319142
0.319663
0.350049
0.356026
0.370842
0.445169
0.408523
0.394042
0.380033
0.492729
0.427266
0.496939
0.520232
0.581445
0.580303
0.572491
0.555523
0.436812
0.437023
0.440214
0.527442
0.464015
0.494694
0.455393
0.428217
0.437840
0.375573
0.354956
0.393186
0.360398
0.282704
0.266939
0.258773
0.231723
0.307766
0.309097
0.196141
0.196391
0.104469
0.108944
0.176697
0.132575
0.148633
0.000642
0.051653
0.043736
-0.009780
0.031515
-0.037072
-0.018589
-0.024733
0.016929
0.030139
0.014783
-0.033952
0.003579
-0.008181
0.042565
-0.007989
-0.014396
-0.007553
0.070352
0.031233
-0.091844
-0.035277
-0.096378
-0.007365
-0.071982
-0.039339
-0.031523
-0.037702
0.007184
-0.039310
-0.066101
0.043449
0.032685
-0.043602
-0.016129
-0.105428
-0.118235
-0.033764
-0.015987
-0.066578
-0.080735
-0.018262
-0.030439
-0.077131
-0.035981
-0.096148
-0.059949
-0.062273
-0.109699
-0.020797
-0.040684
-0.114948
-0.020153
-0.057464
-0.021252
-0.017174
-0.043417
-0.051406
0.036720
-0.057114
-0.100528
0.029169
-0.100133
-0.065175
0.077944
0.020374
-0.096483
0.033332
0.079685
0.022815
-0.049053
0.058174
0.087190
0.139123
-0.000096
0.117777
0.112093
0.142257
0.055441
0.030905
0.010447
0.126542
0.132592
0.122463
0.172828
0.134898
0.045790
0.006327
0.058806
0.083001
0.075928
0.059430
0.013924
0.006009
-0.097446
-0.034750
-0.008177
-0.082127
-0.106158
-0.151841
-0.022395
-0.074054
0.014566
-0.070377
-0.008665
-0.100368
-0.042220
-0.081881
-0.175388
-0.135656
0.007049
-0.037271
-0.064644
0.118063
0.333679
0.628540
0.918566
1.190195
1.240339
1.194913
1.026056
0.597677
0.203921
-0.019312
-0.253398
-0.384671
-0.339787
-0.219860
-0.140521
-0.110412
-0.132343
-0.027080
-0.071772
0.014991
-0.054026
0.036857
0.050703
0.001470
-0.003385
-0.075192
0.070786
0.039625
0.033378
0.056892
0.058079
0.069288
0.089548
0.169847
0.176628
0.189380
0.144876
0.170567
0.191459
0.180037
0.270098
0.291174
0.273317
0.299328
0.301812
0.318318
0.356479
0.413380
0.393010
0.416593
0.427666
0.395971
0.432292
0.427164
0.457038
0.397859
0.431131
0.389797
0.384849
0.341099
0.285045
0.258255
0.307828
0.286985
0.289636
0.221388
0.283486
0.284704
0.226912
0.146604
0.188363
0.091359
0.144438
0.079731
0.134523
0.089157
0.054258
0.011817
0.022674
-0.015754
-0.042403
-0.116033
-0.050243
-0.065034
-0.108978
-0.148878
0.029309
0.001387
-0.168716
0.042163
-0.044159
-0.047884
-0.142411
-0.010836
-0.031775
-0.071753
-0.016867
-0.163037
-0.089190
-0.069660
-0.143362
-0.047769
-0.053629
-0.140395
-0.132137
-0.038685
-0.094507
-0.149322
-0.122505
-0.156358
0.011533
-0.049308
-0.133092
-0.060208
-0.092308
-0.164401
-0.192967
-0.113556
-0.158030
-0.096141
-0.024818
-0.092356
-0.056139
-0.093421
-0.138423
-0.118855
-0.207705
-0.160335
-0.104854
-0.035918
-0.074105
-0.094549
-0.039719
-0.045277
-0.154920
-0.029834
-0.049673
-0.035327
-0.029027
0.008829
-0.103669
-0.023088
-0.056788
-0.021940
0.015286
-0.056801
-0.109879
-0.008804
0.015392
-0.019478
0.025705
0.031208
0.070896
0.116176
0.150388
0.074196
0.001465
0.129939
0.128050
0.112740
0.098866
0.018873
0.085312
0.215823
0.117681
0.091340
0.025174
0.044464
0.067547
0.044503
-0.020343
0.004593
-0.047799
0.019374
-0.007565
-0.038993
0.023514
-0.036355
-0.031049
-0.038659
-0.071889
-0.128220
-0.053522
-0.034609
-0.099169
-0.036490
-0.088675
0.013479
-0.134050
-0.042938
0.012378
0.061879
0.247830
0.513978
0.819224
1.157632
1.294207
1.322837
1.113642
0.712201
0.293642
0.069939
-0.154923
-0.221721
-0.289930
-0.194184
-0.151615
-0.010317
-0.112373
0.021217
0.043531
0.000885
0.024162
0.024693
-0.019890
-0.006717
0.054730
0.120714
0.036923
0.029969
0.027251
0.044440
0.123949
0.248804
0.171883
0.193091
0.106563
0.150379
0.298731
0.212076
0.347367
0.237574
0.225904
0.311735
0.336857
0.395709
0.405965
0.337787
0.438005
0.366657
0.501813
0.382025
0.421128
0.485046
0.420798
0.503202
0.390346
0.496830
0.448635
0.442109
0.442637
0.406855
0.351947
0.425162
0.481560
0.393589
0.350069
0.407076
0.383537
0.193538
0.207309
0.348142
0.219861
0.218802
0.181506
0.247230
0.146394
0.146422
0.114910
0.081272
0.092297
0.137549
0.051740
0.068120
-0.017665
0.017182
0.092947
-0.026598
0.016803
-0.042982
0.007070
-0.001816
0.015053
-0.023178
-0.083730
0.010313
-0.000172
-0.015608
-0.028842
0.072838
-0.021463
-0.032759
-0.008081
0.009042
-0.010089
-0.018254
0.062224
-0.063244
0.015998
0.012134
-0.005052
0.042715
0.021686
0.036976
0.035474
0.048838
-0.012580
-0.028595
0.076416
-0.066856
-0.012916
-0.003558
0.066230
0.025954
0.013505
0.009829
0.005030
-0.085109
0.059843
0.098537
0.030379
-0.050406
-0.111253
0.053217
0.053946
-0.002146
0.009252
-0.004293
0.036485
0.042731
-0.054166
0.080920
0.063029
0.044913
0.019112
0.104176
0.113104
0.128195
0.113462
0.144837
0.188726
0.186958
0.103367
0.095531
0.130033
0.118474
0.139773
0.165083
0.225930
0.219227
0.249791
0.234973
0.279522
0.338707
0.241165
0.177468
0.177271
0.156937
0.269234
0.082801
0.088563
0.162986
0.199908
0.108004
0.097926
0.136820
0.109991
0.109423
0.140540
0.130013
0.013974
0.107576
-0.004781
-0.049923
0.102236
0.107241
-0.040854
0.028303
0.032457
0.012358
0.034323
-0.013604
0.056522
0.133512
0.317931
0.531633
0.831788
1.183816
1.426986
1.500000
1.230707
1.039708
0.542801
0.247081
-0.007163
-0.146128
-0.117018
-0.135578
-0.007673
0.057740
0.119037
0.077946
0.145422
0.085139
0.134916
0.123633
0.106294
0.122762
0.146532
0.159569
0.168666
0.139555
0.182300
0.308478
0.292224
0.232459
0.298417
0.186164
0.323660
0.415979
0.359701
0.468947
0.364011
0.345676
0.385414
0.381550
0.429415
0.439978
0.440208
0.558155
0.620464
0.556637
0.487776
0.524877
0.529788
0.468781
0.509746
0.598025
0.555282
0.500656
0.481551
0.530460
0.559988
0.546221
0.492215
0.546406
0.470898
0.406645
0.362836
0.436158
0.485505
0.325592
0.354991
0.311646
0.436301
0.250191
0.285577
0.289385
0.240714
0.236927
0.296738
0.146225
0.124075
0.222584
0.154711
0.194416
0.115887
-0.004322
0.114756
0.189798
0.177532
0.039595
0.073407
0.090209
0.106829
0.096950
0.127987
0.108392
0.078605
0.111417
0.080518
0.115134
0.052905
0.104826
0.014714
0.023483
0.097301
0.092718
0.204357
0.134630
0.079107
0.091133
0.068310
0.059550
0.089439
0.067197
0.013696
0.139383
0.015975
0.111421
0.028218
0.077617
0.063303
0.173914
