0.002692
-0.014435
0.024974
0.012715
-0.017385
0.013590
0.056158
0.058793
0.000235
-0.004865
-0.145091
0.022690
0.046149
-0.009126
-0.006970
0.029401
-0.054960
0.040564
0.016362
0.034417
0.065416
-0.013231
0.049279
0.059003
0.013015
0.020922
0.057441
0.089143
0.024913
0.116612
0.129802
0.025822
0.090158
0.161858
0.161380
0.150328
0.213507
0.115555
0.106226
0.182653
0.227758
0.156274
0.182836
0.207922
0.192692
0.187472
0.163019
0.178626
0.113823
0.132107
0.183636
0.123180
0.122325
0.146681
0.110808
0.094929
0.127953
0.119468
0.069203
0.091517
0.141390
0.138122
0.063599
0.029595
0.077990
0.065979
0.057989
0.095819
0.029979
-0.006652
0.088762
0.065684
-0.005159
0.059416
0.023679
-0.040578
0.045831
0.001140
0.058435
0.119249
0.288907
0.519331
0.784362
1.071362
1.190242
1.299816
1.117852
0.826437
0.537654
0.267776
-0.118142
-0.156000
-0.179075
-0.089173
-0.030788
-0.034175
0.094260
0.067305
0.078666
0.068884
0.119358
0.041521
0.137529
0.137537
0.135378
0.094222
0.103220
0.186494
0.181493
0.180259
0.177344
0.172973
0.153139
0.226343
0.212365
0.242951
0.181049
0.219966
0.276010
0.347393
0.361618
0.293265
0.348784
0.361064
0.380624
0.342524
0.480653
0.428459
0.496919
0.476719
0.473166
0.518647
0.551237
0.498768
0.584183
0.534123
0.597180
0.615520
0.536114
0.525855
0.513835
0.550419
0.542503
0.431804
0.472503
0.445579
0.503823
0.458528
0.411426
0.408082
0.375925
0.421516
0.296100
0.347796
0.300841
0.368624
0.229966
0.210870
0.236293
0.209326
0.223898
0.203715
0.150506
0.230348
0.115801
0.246515
0.162926
0.182294
0.144890
0.190030
0.176739
0.196326
0.104784
0.129598
0.137686
0.182670
0.066053
0.128184
0.117189
0.153470
0.118473
0.180619
0.128279
0.053787
0.117593
0.102652
0.126532
0.096937
0.093450
0.162055
0.064855
0.054337
0.122819
0.059816
0.175450
0.016417
0.050027
0.127931
0.148363
0.086970
0.106963
0.095630
0.078540
0.080081
0.093805
0.130235
0.006210
0.108023
0.072337
0.035804
0.158333
0.111195
0.157817
0.124795
0.097619
0.130267
0.150842
0.152064
0.108204
0.154436
0.087769
0.112417
0.187555
0.067932
0.030485
0.109987
0.122017
0.101774
0.125548
0.094839
0.120139
0.080619
0.072897
0.091841
0.166707
0.124996
0.172551
0.156919
0.176535
0.179616
0.209736
0.164022
0.095501
0.229217
0.238806
0.242464
0.323577
0.270195
0.240811
0.249745
0.339858
0.286911
0.255378
0.277766
0.280880
0.239207
0.268468
0.265901
0.301717
0.225824
0.321389
0.282237
0.142420
0.226544
0.230019
0.179491
0.228837
0.105454
0.137363
0.207833
0.085381
0.159209
0.128678
0.075646
0.187422
0.143586
0.082376
0.160561
0.095776
0.114803
0.170064
0.126520
0.114357
0.134865
0.138557
0.041473
0.077451
0.068936
0.029823
0.122875
0.174660
0.300667
0.506007
0.789526
1.021241
1.269138
1.298499
1.239480
1.055715
0.654146
0.455212
0.117735
-0.027642
-0.059786
-0.084964
0.008447
-0.016058
0.008836
0.107216
0.146767
0.146079
0.085837
0.090929
0.159930
0.102976
0.151203
0.124417
0.173077
0.105660
0.249905
0.150755
0.132471
0.215770
0.199436
0.287784
0.220672
0.288048
0.190054
0.263144
0.294199
0.296393
0.311726
0.329163
0.312674
0.381984
0.365034
0.423559
0.482983
0.473932
0.511241
0.521615
0.459507
0.494476
0.518161
0.498958
0.520761
0.545688
0.517120
0.529645
0.646923
0.533994
0.477258
0.470963
0.563511
0.490636
0.471494
0.485948
0.443381
0.492621
0.494980
0.384281
0.393701
0.356410
0.414901
0.312503
0.368606
0.284586
0.300229
0.288352
0.258414
0.317854
0.248716
0.194227
0.202164
0.198271
0.198945
0.159599
0.219251
0.167511
0.170735
0.169817
0.130832
0.147833
0.122879
0.078159
0.089597
0.086354
0.102243
0.126714
0.100713
0.053374
0.087160
0.071794
0.027520
0.080940
0.039739
0.148196
0.101721
0.089105
0.093184
0.117960
0.071734
0.126869
0.065253
0.113016
0.025938
0.124571
0.034790
0.081983
0.131442
0.041048
0.077670
0.057573
0.086135
0.099286
0.107638
0.126172
0.060263
0.095367
-0.004765
0.072546
0.096476
0.110567
0.108556
0.099786
-0.024867
0.070284
0.100247
0.103879
0.044131
-0.002099
0.105442
0.082844
0.100992
0.060627
0.055466
0.108023
0.081527
0.115156
0.080486
0.110852
0.022995
0.065646
0.062401
0.108998
0.047251
0.068128
0.093909
0.116461
0.112997
0.188279
0.156756
0.092338
0.135456
0.109324
0.247753
0.180375
0.214892
0.233702
0.196334
0.159809
0.156398
0.262499
0.171709
0.235446
0.172392
0.196536
0.231403
0.250478
0.242633
0.238938
0.210958
0.208236
0.155571
0.177958
0.116006
0.119111
0.109046
0.152788
0.169345
0.135124
0.130360
0.110276
0.115415
0.133874
0.116346
0.048590
0.097690
0.083477
0.122398
0.079644
0.093125
0.048236
-0.022507
0.086526
0.051097
0.097530
0.171069
0.074024
0.017288
0.072443
0.057501
0.223484
0.465683
0.610334
0.936499
1.117172
1.243308
1.256947
1.059740
0.765313
0.331873
0.126559
-0.085419
-0.110809
-0.202357
-0.123325
-0.091095
0.049661
0.081644
0.046820
0.034441
0.086194
0.066198
0.123112
0.049692
0.115892
0.102756
0.073546
0.159425
0.125046
0.145355
0.175451
0.099653
0.216207
0.287805
0.231003
0.242329
0.228730
0.230402
0.286885
0.185570
0.333460
0.246337
0.302942
0.387517
0.363967
0.385859
0.371124
0.424979
0.394081
0.382313
0.393379
0.453902
0.487083
0.458993
0.549746
0.501038
0.513555
0.491572
0.503601
0.479781
0.474739
0.578559
0.501740
0.450013
0.524410
0.439337
0.471648
0.404916
0.452392
0.419381
0.410735
0.339303
0.316565
0.371862
0.310100
0.337753
0.284006
0.283352
0.225714
0.250064
0.227368
0.243851
0.161136
0.145222
0.226049
0.191650
0.146789
0.166338
0.150896
0.154838
0.095121
0.088928
0.084032
0.164147
0.097666
0.055084
0.070008
0.078066
0.096839
0.097351
0.063799
0.106588
0.097145
0.025469
0.097051
0.089863
0.069706
0.085085
0.075499
0.060959
0.100841
0.057358
0.038726
0.092635
0.152247
0.029800
0.128975
0.119266
0.074208
0.052687
0.094829
0.041580
0.128520
0.035525
0.082067
0.118246
0.123384
-0.001812
0.124196
0.056599
0.049318
0.045268
0.160928
0.109879
0.104844
0.092374
0.117482
0.104729
0.100568
0.121890
0.088995
0.043902
0.093138
0.076245
0.059466
0.080933
0.131238
0.092232
0.111092
0.131054
0.105439
0.116981
0.086247
0.067201
0.038057
0.105742
0.094468
0.154895
0.090554
0.151785
0.221487
0.088857
0.210302
0.152514
0.140491
0.188953
0.199411
0.191364
0.175088
0.190731
0.172685
0.222063
0.267378
0.231948
0.240237
0.302066
0.223344
0.310482
0.224792
0.194307
0.237931
0.231261
0.181467
0.179243
0.203891
0.213613
0.156919
0.139338
0.142126
0.132006
0.186851
0.180779
0.156346
0.122619
0.153627
0.187902
0.099297
0.062311
0.168790
0.126402
0.120765
0.174369
0.136407
0.152265
0.053288
0.045597
0.107822
0.096012
0.092640
0.126376
0.145908
0.279583
0.447228
0.630370
0.905824
1.235509
1.301501
1.369442
1.173917
0.887670
0.563991
0.312063
0.062434
-0.018897
-0.036206
-0.018499
-0.011734
0.040832
0.112609
0.020786
0.139356
0.155579
0.165947
0.130745
0.155401
0.158155
0.174103
0.224169
0.202807
0.182955
0.235882
0.216463
0.222171
0.241394
0.150808
0.368885
0.260088
0.308572
0.339443
0.387095
0.342731
0.365858
0.389383
0.416885
0.375466
0.481314
0.549132
0.433858
0.417293
0.516843
0.550248
0.596745
0.491260
0.553043
0.586016
0.573706
0.593917
0.642376
0.604607
0.556775
0.697157
0.596026
0.651961
0.634093
0.648981
0.598532
0.570630
0.573968
0.557842
0.480601
0.536439
0.550229
0.415141
0.494583
0.448647
0.469294
0.447751
0.426763
0.423866
0.384311
0.351648
0.267848
0.309242
0.308808
0.277761
0.308297
0.274542
0.269986
0.211964
0.108458
0.219504
0.252631
0.237993
0.181303
0.204682
0.306161
0.299289
0.220410
0.175622
0.214026
0.152442
0.176506
0.210727
0.188888
0.141824
0.209013
0.283407
0.244184
0.197454
0.183440
0.179363
0.164204
0.260952
0.157350
0.237413
0.138619
0.258873
0.232216
0.321271
0.178696
0.258799
0.238465
0.236652
0.199362
0.223024
0.198866
0.211414
0.212694
0.244842
0.230532
0.184893
0.238395
0.256467
0.191662
0.288498
0.220067
0.162669
0.225653
0.263339
0.182365
0.204906
0.171452
0.211379
0.248364
0.210869
0.255904
0.240542
0.230073
0.246342
0.275479
0.177233
0.263188
0.175283
0.228464
0.203299
0.242107
0.194036
0.240859
0.236919
0.281778
0.293139
0.262644
0.293778
0.309700
0.292631
0.346697
0.301854
0.343992
0.338933
0.368488
0.330766
0.444389
0.400532
0.353883
0.444120
0.354806
0.362136
0.389147
0.401943
0.422172
0.354045
0.380459
0.335653
0.367820
0.338649
0.285722
0.264896
0.393422
0.274383
0.248042
0.297010
0.285249
0.198955
0.298871
0.241507
0.287382
0.228347
0.241665
0.239193
0.240345
0.230872
0.252413
0.152820
0.216481
0.252755
0.254473
0.304301
0.274152
0.282786
0.196635
0.217398
0.259858
0.260616
0.485658
0.669498
1.000886
1.271031
1.409568
1.468342
1.252361
1.043038
0.749851
0.416143
0.221081
0.061923
0.014115
0.000048
0.151313
0.170921
0.215113
0.241240
0.231768
0.370432
0.283858
0.253265
0.269365
0.216777
0.269473
0.267265
0.276541
0.294286
0.249567
0.316633
0.300840
0.344460
0.318408
0.305297
0.386280
0.418534
0.439273
0.444600
0.485918
0.420301
0.466741
0.464582
0.492780
0.598241
0.541228
0.490662
0.585926
0.557566
0.654754
0.604336
0.654018
0.696150
0.654823
0.683655
0.691432
0.660415
0.684248
0.631499
0.694236
0.666062
0.610178
0.688852
0.605201
0.597126
0.691521
0.623852
0.598723
0.511802
0.629663
0.614264
0.628600
0.548998
0.533645
0.511625
0.462223
0.455350
0.474712
0.471510
0.413659
0.333031
0.371377
0.357152
0.345508
0.323486
0.327723
0.351380
0.252472
0.295249
0.265911
0.301656
0.274108
0.289294
0.268743
0.281941
0.276015
0.259224
0.271869
0.253853
0.251547
0.221661
0.274327
0.216627
0.241522
0.220792
0.275762
0.201750
0.245799
0.222128
0.274497
0.227251
0.247063
0.303239
0.295323
0.230631
0.289944
0.162933
0.245365
0.248375
0.199648
0.237148
0.213613
0.194209
0.257541
0.176038
0.201518
0.182267
0.267840
0.273665
0.196445
0.177921
0.266543
0.219773
0.197467
0.236830
0.287020
0.271300
0.233260
0.283524
0.177823
0.258856
0.212650
0.207117
0.263171
0.227536
0.247294
0.234490
0.262175
0.207501
0.219122
0.191025
0.247643
0.266501
0.260015
0.247092
0.206794
0.217682
0.210490
0.236613
0.307086
0.331862
0.294105
0.203732
0.326536
0.247294
0.330903
0.303484
0.369648
0.312159
0.321502
0.384778
0.372036
0.392337
0.328617
0.382601
0.392025
0.388496
0.390997
0.337218
0.329679
0.313444
0.411825
0.314952
0.339842
0.289753
0.314595
0.278324
0.248307
0.231508
0.240486
0.179625
0.176133
0.241184
0.202577
0.204413
0.245032
0.243958
0.187841
0.221095
0.192468
0.283042
0.223439
0.222455
0.165733
0.251921
0.215589
0.214341
0.191695
0.208340
0.163809
0.166407
0.222464
0.353736
0.588595
0.831861
1.131819
1.270979
1.398642
1.284022
1.090282
0.750325
0.490113
0.155892
0.109329
-0.011214
0.008108
0.013847
0.072396
0.120659
0.155317
0.160119
0.130783
0.266527
0.239833
0.183915
0.240339
0.234785
0.172134
0.268672
0.171402
0.199069
0.310875
0.206116
0.319561
0.261373
0.299109
0.333025
0.289114
0.332874
0.395079
0.406836
0.371077
0.359487
0.431263
0.442426
0.509283
0.405437
0.383045
0.505735
0.546265
0.428262
0.523712
0.558229
0.565400
0.637826
0.623094
0.663107
0.631737
0.631898
0.612837
0.642730
0.547678
0.600341
0.577881
0.627540
0.521442
0.537203
0.625384
0.512371
0.491954
0.450673
0.484428
0.486919
0.469217
0.419697
0.395322
0.379756
0.429335
0.392845
0.269853
0.355272
0.262186
0.331221
0.316037
0.285641
0.302221
0.212663
0.210727
0.252383
0.184504
0.172211
0.190436
0.247435
0.216704
0.174885
0.205358
0.155826
0.259073
0.138625
0.154145
0.121394
0.247594
0.210853
0.163286
0.133546
0.221600
0.151508
0.179625
0.068228
0.251642
0.167476
0.088076
0.167302
0.170989
0.228310
0.139907
0.118002
0.189799
0.108746
0.168578
0.227796
0.165001
0.154258
0.189897
0.152497
0.060671
0.121787
0.117413
0.141034
0.182755
0.163193
0.222827
0.130956
0.163946
0.147072
0.192747
0.086211
0.150353
0.046488
0.179926
0.140324
0.180016
0.121569
0.114618
0.092878
0.130517
0.077588
0.158201
0.178504
0.143072
0.260705
0.214459
0.126549
0.162852
0.230625
0.171005
0.148561
0.249298
0.254368
0.210256
0.126204
0.164346
0.264190
0.161966
0.169822
0.216995
0.229111
0.175563
0.214946
0.335946
0.306179
0.252403
0.321822
0.292254
0.324703
0.271706
0.271095
0.327295
0.326855
0.241364
0.296973
0.258622
0.277824
0.255678
0.257551
0.230708
0.196770
0.202944
0.213627
0.227182
0.171875
0.170826
0.123500
0.124537
0.161402
0.165275
0.169131
0.181227
0.170615
0.128098
0.150390
0.168802
0.127796
0.166402
0.159465
0.134241
0.165625
0.133559
0.137035
0.097999
0.162482
0.157495
0.186559
0.208552
0.386514
0.703489
1.002047
1.318539
1.360694
1.310070
1.115108
0.806321
0.516246
0.195762
0.025522
-0.003149
-0.070567
-0.068528
0.025343
0.078341
0.114451
0.124954
0.153578
0.178264
0.192247
0.229360
0.165174
0.242424
0.220368
0.193083
0.163607
0.171565
0.277559
0.289231
0.252429
0.214135
0.271910
0.276140
0.263423
0.376702
0.284767
0.317286
0.344322
0.387439
0.440027
0.367673
0.504859
0.404929
0.433681
0.465613
0.473788
0.552305
0.495747
0.608533
0.557715
0.579033
0.588327
0.655823
0.646343
0.573658
0.608505
0.609499
0.588719
0.601466
0.640962
0.595346
0.606882
0.615786
0.535240
0.488696
0.532041
0.457808
0.494327
0.474071
0.404199
0.411930
0.417266
0.421320
0.362136
0.345956
0.358795
0.376924
0.324628
0.341446
0.338025
0.272294
0.337951
0.270909
0.312001
0.260573
0.317379
0.136863
0.221460
0.254792
0.287914
0.216740
0.159785
0.205443
0.178598
0.133822
0.240290
0.161467
0.283925
0.224183
0.101303
0.221108
0.206322
0.102602
0.213917
0.176035
0.229571
0.135527
0.174613
0.174526
0.213639
0.277476
0.233519
0.138730
0.208807
0.206262
0.171647
0.222459
0.141352
0.167278
0.169399
0.240551
0.170187
0.184375
0.099856
0.186012
0.228113
0.212017
0.265734
0.184185
0.157896
0.221893
0.222603
0.133036
0.170257
0.239983
0.220427
0.255947
0.204248
0.200948
0.165660
0.203122
0.255981
0.198368
0.239288
0.254122
0.237802
0.217932
0.267903
0.219597
0.268741
0.228003
0.202117
0.195675
0.273649
0.188158
0.214290
0.213040
0.235591
0.204112
0.266352
0.256570
0.312549
0.282297
0.327758
0.339331
0.333689
0.390365
0.427615
0.374360
0.361434
0.358699
0.402089
0.341699
0.358738
0.366687
0.385877
0.330421
0.362387
0.415731
0.347883
0.380501
0.314926
0.263251
0.259733
0.323546
0.279982
0.216785
0.297906
0.318066
0.243465
0.278849
0.239419
0.244634
0.241067
0.209432
0.247768
0.204703
0.208187
0.249971
0.219833
0.210993
0.170611
0.266474
0.273552
0.185062
0.313917
0.236765
0.198111
0.261318
0.249650
0.419718
0.639525
1.009560
1.287975
1.442057
1.357330
1.293821
1.032788
0.606494
0.355398
0.224232
0.039216
0.070864
0.106619
0.115855
0.206498
0.202729
0.272297
0.258896
0.243677
0.246087
0.347791
0.257707
0.246516
0.261934
0.290951
0.319506
0.248564
0.318891
0.349335
0.377089
0.335166
0.375692
0.324471
0.385761
0.406571
0.444663
0.380297
0.359642
0.491843
0.530274
0.478476
0.468630
0.575589
0.518728
0.581307
0.650616
0.616015
0.660017
0.598196
0.644607
0.619810
0.662552
0.686494
0.684990
0.734307
0.648634
0.749906
0.756847
0.732889
0.707966
0.657114
0.700373
0.643921
0.703904
0.694646
0.579480
0.660596
0.587605
0.641358
0.493717
0.610836
0.613151
0.510440
0.440890
0.460962
0.475280
0.494671
0.478774
0.375888
0.420439
0.340653
0.400531
0.371021
0.338158
0.323866
0.336840
0.340283
0.370577
0.335554
0.315280
0.339724
0.307386
0.409665
0.265081
0.245183
0.287008
0.230595
0.330753
0.338659
0.284366
0.246892
0.250496
0.259112
0.227130
0.305923
0.328837
0.269211
0.252160
0.367955
0.308588
0.260407
0.269531
0.332005
0.310287
0.259226
0.269252
0.274392
0.256876
0.258043
0.269739
0.329600
0.205576
0.301259
0.306742
0.186641
0.353453
0.271582
0.290223
0.291002
0.249941
0.351618
0.218053
0.299774
0.289631
0.300981
0.236519
0.246846
0.174645
0.315959
0.196598
0.318457
0.249317
0.269802
0.234618
0.267158
0.321196
0.300494
0.275024
0.241937
0.397936
0.303613
0.265369
0.349934
0.342792
0.298019
0.306363
0.330169
0.269116
0.306421
0.355990
0.289995
0.305305
0.361500
0.361371
0.385005
0.367757
0.432333
0.468977
0.419927
0.427424
0.424963
0.459613
0.370417
0.456194
0.464748
0.428373
0.365475
0.379961
0.441270
0.394509
0.410391
0.366176
0.339842
0.342380
0.421895
0.382627
0.315907
0.329719
0.310646
0.361601
0.324397
0.254650
0.344962
0.348014
0.315967
0.271456
0.270984
0.305949
0.310104
0.254766
0.324177
0.333412
0.237780
0.291908
0.274913
0.222577
0.221946
0.298184
0.282858
0.368221
0.469076
0.639300
0.967385
1.304593
1.479374
1.500000
1.373977
1.079259
0.777217
0.467009
0.317151
0.116756
-0.001046
0.154696
0.108907
0.143439
0.197180
0.233202
0.300309
0.291679
0.318044
0.390732
0.283427
0.267682
0.340308
0.340022
0.370705
0.277499
0.330817
0.397613
0.270506
0.352200
0.361613
0.395349
0.390583
0.373057
0.390058
0.423240
0.443718
0.458459
0.489076
0.466414
0.500828
0.557109
0.599548
0.551348
0.640485
0.598503
0.619471
0.591267
0.592039
0.646491
0.650200
0.632112
0.713531
0.670305
0.702885
0.709675
0.666226
0.680618
0.726917
0.700371
0.616199
0.630499
0.656386
0.589807
0.583956
0.595176
0.593180
0.533185
0.554150
0.551993
0.536730
0.520673
0.452647
0.490425
0.453188
0.399686
0.482253
0.430788
0.361448
0.466502
0.297066
0.346628
0.307550
0.323914
0.273361
0.310542
0.299154
0.415133
0.269908
0.312336
0.301249
0.321642
0.242657
0.211841
0.206382
0.237267
0.269524
0.230389
0.253909
0.246267
0.227656
0.228868
0.214090
0.244377
0.249059
0.239669
0.273520
0.264494
0.215473
0.184316
0.283568
0.225343
0.220076
0.162880
0.266648
0.238894
0.288335
0.163258
0.236117
0.182063
0.200673
0.223630
0.313657
0.194300
0.249334
0.315182
0.182155
0.186615
0.240771
0.213837
0.274373
0.173685
0.268980
0.169886
0.297710
0.241151
0.243910
0.188750
0.168986
0.202672
0.238822
0.219721
0.194708
0.169325
0.213147
0.270783
0.201738
0.241241
0.178427
0.237890
0.222077
0.190231
0.247667
0.295557
0.268303
0.311615
0.300553
0.277980
0.264281
0.344091
0.256295
0.304926
0.292842
0.312081
0.271277
0.336841
0.333477
0.282538
0.344302
0.380156
0.374304
0.354067
0.323651
0.333000
0.323845
0.264258
0.317402
0.313388
0.317392
0.322402
0.389960
0.357006
0.306564
0.276512
0.260716
0.237846
0.228979
0.210167
0.237823
0.161192
0.265162
0.188884
0.198264
0.180023
0.219191
0.242578
0.172869
0.122855
0.208922
0.117784
0.170026
0.171597
0.242434
0.231107
0.174449
0.157824
0.139927
0.161308
0.199167
0.374885
0.600009
0.800556
1.113481
1.238635
1.389017
1.266103
1.167660
0.778298
0.409353
0.246655
0.052608
-0.011430
-0.052630
-0.005158
0.068171
0.164886
0.146449
0.204634
0.161992
0.133395
0.208410
0.229375
0.253294
0.268793
0.213831
0.190547
0.228515
0.228783
0.230901
0.214556
0.259047
0.353148
0.310857
0.235566
0.336926
0.341255
0.325237
0.382599
0.329527
0.414374
0.422949
0.443130
0.440478
0.461863
0.498303
0.443336
0.618035
0.519568
0.543704
0.589819
0.543844
0.616600
0.610457
0.595595
0.656099
0.639895
0.649584
0.591750
0.546320
0.575941
0.549163
0.645137
0.637039
0.595623
0.551243
0.547220
0.517094
0.542592
0.576555
0.530254
0.468824
0.462149
0.429167
0.469384
0.357670
0.382815
0.345221
0.303281
0.322512
0.298256
0.322905
0.303821
0.234733
0.300822
0.236893
0.240516
0.213285
0.218825
0.230185
0.146288
0.211817
0.235956
0.152277
0.218176
0.242302
0.156881
0.157069
0.208385
0.153741
0.154402
0.214858
0.188059
0.182460
0.139576
0.183110
0.120529
0.214893
0.220378
0.120301
0.171451
0.120341
0.165421
0.152551
0.183039
0.134087
0.179459
0.164970
0.178801
0.175969
0.137833
0.195928
0.182691
0.214919
0.252772
0.148489
0.194465
0.232310
0.125810
0.193066
0.226423
0.092045
0.156480
0.185789
0.181802
0.175229
0.153117
0.224291
0.157890
0.152563
0.099349
0.101727
0.181480
0.148206
0.199497
0.149769
0.151567
0.177924
0.179517
0.200930
0.204026
0.235448
0.185889
0.185076
0.212488
0.192706
0.189841
0.180721
0.246917
0.218957
0.221382
0.190981
0.328298
0.267091
0.293961
0.272137
0.280428
0.211767
0.341821
0.324065
0.335271
0.272433
0.306208
0.387700
0.347832
0.385648
0.338701
0.311706
0.227181
0.338986
0.308137
0.343578
0.246293
0.269554
0.320977
0.288692
0.263431
0.196712
0.218355
0.255850
0.209822
0.246439
0.198161
0.250061
0.248360
0.196769
0.164778
0.279715
0.177808
0.197385
0.237139
0.158003
0.255684
0.258507
0.124072
0.215645
0.195714
0.216114
0.149518
0.224760
0.229745
0.253318
0.475365
0.759810
0.973746
1.352894
1.347706
1.345500
1.142937
0.847370
0.535425
0.255586
0.028807
-0.054791
-0.000598
0.017337
0.091646
0.178924
0.195041
0.207484
0.274760
0.208181
0.217009
0.248919
0.243811
0.254934
0.228525
0.242234
0.248815
0.340949
0.252307
0.272681
0.263382
0.342040
0.332145
0.355143
0.357992
0.381678
0.378212
0.385491
0.410333
0.407917
0.457762
0.507587
0.466695
0.556022
0.516268
0.473274
0.541859
0.548263
0.623860
0.659014
0.608670
0.683312
0.648497
0.729913
0.661637
0.688676
0.712129
0.604120
0.593994
0.641824
0.624198
0.674091
0.595077
0.674398
0.596848
0.602226
0.619883
0.559445
0.511430
0.583208
0.503541
0.538622
0.442210
0.466494
0.499408
0.377417
0.428759
0.466029
0.379780
0.404819
0.349272
0.286570
0.274922
0.339360
0.386607
0.309078
0.292025
0.311599
0.233988
0.285585
0.282204
0.216420
0.307656
0.265280
0.286400
0.255168
0.284295
0.248420
0.231430
0.264658
0.237399
0.186186
0.218728
0.270872
0.280933
0.248554
0.290551
0.326340
0.265501
0.323762
0.250810
0.246870
0.269678
0.243495
0.215222
0.172480
0.241396
0.192527
0.230486
0.287350
0.321244
0.205291
0.221994
0.317554
0.232060
0.314724
0.265754
0.179011
0.322463
0.318723
0.333136
0.236751
0.273482
0.250754
0.275227
0.269337
0.303859
0.274477
0.223062
0.250555
0.265211
0.337324
0.281268
0.312023
0.258272
0.341120
0.217664
0.280563
0.249371
0.282344
0.322309
0.283283
0.258464
0.277753
0.324017
0.240134
0.238036
0.275722
0.352099
0.339906
0.390895
0.400923
0.369169
0.367256
0.389977
0.354578
0.382406
0.457293
0.396274
0.399217
0.461475
0.453431
0.452851
0.382410
0.390075
0.404383
0.416267
0.387672
0.411449
0.453885
0.389191
0.286738
0.472981
0.419150
0.306101
0.375086
0.325484
0.292297
0.316458
0.358222
0.309654
0.354170
0.305436
0.252191
0.267692
0.250438
0.300864
0.333768
0.248465
0.323558
0.257306
0.263542
0.309717
0.296818
0.248298
0.246298
0.247228
0.282416
0.259776
0.332487
0.430761
0.595963
0.783071
1.064592
1.331739
1.373197
1.485558
1.408853
1.061354
0.764549
0.421382
0.323954
0.112926
0.070361
0.075179
0.184145
0.260517
0.244967
0.302797
0.249014
0.332122
0.263290
0.377053
0.301513
0.332947
0.335420
0.304873
0.293684
0.405958
0.328189
0.306133
0.383139
0.372936
0.351871
0.438754
0.388360
0.463160
0.497862
0.504589
0.469762
0.456403
0.619911
0.533063
0.596950
0.593791
0.553528
0.601447
0.624255
0.604886
0.665571
0.706356
0.693667
0.734007
0.666289
0.695391
0.632907
0.737914
0.765017
0.789525
0.756585
0.756684
0.730508
0.726785
0.636073
0.729283
0.684042
0.689670
0.737926
0.718733
0.658626
0.611752
0.618769
0.589708
0.552114
0.550154
0.606368
0.540096
0.507790
0.502570
0.483949
0.433281
0.460836
0.472379
0.451848
0.470235
0.417818
0.390697
0.396547
0.368112
0.326612
0.373197
0.352866
0.313669
0.328043
0.336532
0.306234
0.327764
