0.053832
0.055257
-0.010206
0.020501
0.027532
-0.038538
0.024571
0.029526
0.000951
-0.064839
-0.035956
0.070322
-0.028102
-0.001237
0.026328
0.032850
0.058969
-0.012276
-0.034505
-0.055988
0.046025
0.026239
0.080728
0.086619
0.113026
0.075250
0.088436
0.072151
0.091401
0.138417
0.260483
0.146835
0.133732
0.160951
0.263322
0.261951
0.230038
0.289994
0.200344
0.149607
0.241173
0.104504
0.274432
0.200877
0.166498
0.157581
0.115281
0.104904
0.117735
0.143794
0.150584
0.073116
0.086735
0.129473
0.116086
0.080903
0.081504
0.053683
0.059296
0.042095
0.066534
-0.019886
0.092365
0.147309
-0.026107
-0.025454
0.053189
0.097899
0.013840
0.063952
0.277486
0.427851
0.696104
1.078744
1.302239
1.469966
1.312270
0.994812
0.791177
0.383406
0.068244
-0.069943
-0.109853
-0.090062
-0.069534
0.075796
0.131127
0.168681
0.062026
0.187380
0.123424
0.152866
0.125602
0.099883
0.196887
0.148519
0.184757
0.208523
0.134548
0.232029
0.299478
0.208985
0.222289
0.337504
0.391756
0.349885
0.382168
0.406655
0.429854
0.505794
0.469358
0.509494
0.476967
0.569788
0.506431
0.501003
0.553021
0.511621
0.587461
0.622195
0.555559
0.618649
0.604158
0.621637
0.671249
0.555393
0.594396
0.535839
0.548009
0.516494
0.531529
0.505039
0.467952
0.499433
0.511125
0.411549
0.385244
0.404140
0.376921
0.418188
0.348111
0.282170
0.309420
0.343739
0.294910
0.320506
0.302807
0.210786
0.243962
0.230933
0.173096
0.213961
0.186770
0.130045
0.170100
0.131772
0.158795
0.112052
0.036273
0.066394
0.087034
0.208885
0.178036
0.099350
0.099174
0.081473
0.121025
0.090812
0.117464
0.135711
0.087165
0.140966
0.066416
0.074567
0.037164
0.126265
0.069835
0.155234
0.129457
0.157313
0.222789
0.145214
0.117815
0.131121
0.172535
0.041627
0.136728
0.025395
0.131471
0.121946
0.018738
0.112310
0.142863
0.134111
0.049140
0.189728
0.176806
0.068876
0.062499
0.040107
0.094905
0.115818
0.020494
0.077691
0.084699
0.057359
0.077224
0.153346
0.199524
0.155986
0.240288
0.167414
0.181904
0.209999
0.153709
0.190968
0.224417
0.252947
0.304464
0.284388
0.263310
0.245955
0.265508
0.273457
0.267140
0.293106
0.295433
0.321615
0.329347
0.303329
0.285206
0.310919
0.267821
0.210445
0.337021
0.247800
0.212243
0.174299
0.188525
0.127514
0.128574
0.162756
0.099098
0.179825
0.085171
0.127124
0.090308
0.240036
0.059540
0.092477
0.139652
0.014522
0.077007
0.160989
0.110490
0.055064
0.068846
0.198128
0.320094
0.588970
0.972333
1.304367
1.488448
1.500000
1.332645
0.932260
0.620240
0.224243
0.054578
-0.156973
-0.100471
-0.036990
0.046075
0.060168
0.067712
0.127473
0.178185
0.124567
0.181848
0.153425
0.092602
0.174822
0.164536
0.204575
0.202492
0.216176
0.181836
0.230689
0.238337
0.290009
0.351273
0.378816
0.363460
0.330092
0.412131
0.310403
0.409298
0.415747
0.485063
0.469797
0.490862
0.595962
0.594349
0.530177
0.536861
0.524090
0.567722
0.550299
0.635906
0.640310
0.604787
0.653161
0.635300
0.586682
0.605676
0.529460
0.512520
0.477444
0.498023
0.427255
0.460836
0.445300
0.388340
0.449715
0.474956
0.413078
0.363141
0.278487
0.287964
0.311612
0.226247
0.283044
0.173757
0.230504
0.115327
0.186643
0.141460
0.238759
0.052104
0.157065
0.105723
0.140390
0.114811
0.089027
0.051477
0.060589
0.022536
-0.014688
0.045558
0.017907
0.039096
0.059664
0.056055
0.040760
0.022304
0.004693
0.022340
-0.016562
0.030208
0.078527
0.064399
0.032969
0.041594
0.026292
0.018346
0.158776
0.107317
-0.008918
-0.025198
0.034800
-0.017062
-0.060036
-0.012918
0.018004
-0.034786
0.089670
-0.002378
0.042671
0.026251
-0.027246
0.045142
-0.004298
0.069210
0.006582
0.023384
-0.024481
0.035497
0.054694
0.105912
0.060243
0.011366
0.015351
0.075290
-0.010065
0.110728
0.090386
0.037323
-0.001181
0.113857
0.034653
0.086982
0.086997
0.115729
0.115138
0.201568
0.149990
0.027916
0.148403
0.205156
0.076626
0.148314
0.271600
0.210913
0.169966
0.212841
0.099568
0.148823
0.158592
0.111518
0.140470
0.233877
0.064880
0.077650
0.136866
0.054409
0.028273
-0.060665
0.118423
0.014641
0.045873
0.055544
0.011769
-0.016967
-0.039573
0.043199
-0.038209
0.043558
0.042036
-0.044935
-0.003000
0.009557
-0.027074
-0.036257
0.011218
-0.022757
0.201021
0.416998
0.690876
0.977742
1.268998
1.436783
1.318074
1.086216
0.750529
0.288358
-0.039589
-0.234855
-0.157289
-0.221566
-0.155597
-0.061546
0.039113
-0.000406
0.019050
0.025644
0.044381
0.012648
0.020899
0.121962
0.153570
0.096155
0.074354
0.141122
0.080300
0.142314
0.213879
0.242598
0.199610
0.140225
0.233836
0.256235
0.340783
0.308572
0.326898
0.313237
0.374109
0.425304
0.346160
0.371097
0.398979
0.430469
0.360008
0.425368
0.478441
0.486207
0.481957
0.433398
0.506889
0.511791
0.460567
0.436500
0.406782
0.474595
0.380128
0.344492
0.399259
0.466617
0.387554
0.354602
0.296935
0.381653
0.248479
0.232306
0.277618
0.263386
0.259622
0.129990
0.175534
0.105851
0.190012
0.192167
-0.003472
0.019902
0.081573
0.098348
0.018960
-0.019361
0.000226
-0.048059
0.038271
-0.103408
0.026122
0.006825
-0.029100
0.007685
-0.019611
-0.031722
-0.051404
0.038554
0.108102
-0.006914
0.009948
-0.000168
-0.071686
-0.100690
-0.127776
0.052008
0.001325
-0.026195
-0.116705
-0.070755
0.002767
-0.077849
-0.044636
-0.053008
-0.074816
-0.018388
-0.085613
-0.092513
-0.102273
-0.020030
-0.129989
-0.060808
-0.072598
-0.102167
0.020032
0.014057
-0.065541
0.034477
-0.089380
-0.061451
-0.078819
-0.028721
-0.018738
-0.012588
0.063855
0.034624
-0.035616
-0.071068
-0.091351
0.013962
0.020115
-0.094640
-0.010175
-0.041569
0.048358
-0.010860
0.018581
0.097103
0.043886
0.084475
0.019831
0.015697
0.029496
0.079838
0.088900
0.154052
0.110222
0.168691
0.206690
0.138065
0.185463
0.107518
0.125753
0.077192
0.115281
0.093977
0.056591
0.050455
0.186821
0.076656
0.101764
0.094188
0.154961
0.040999
0.069161
0.022335
-0.059773
-0.047879
-0.090824
0.000769
0.045759
-0.006237
-0.017542
0.004169
-0.026848
-0.067047
0.023958
0.015407
-0.056370
-0.082783
-0.018067
0.014024
0.261921
0.445131
0.791709
1.097826
1.427081
1.333039
1.172475
0.874482
0.412787
0.055283
-0.097439
-0.270863
-0.247796
-0.178631
-0.177847
-0.100391
-0.004803
0.007932
0.049842
0.065067
0.005369
0.026357
-0.001829
0.077082
0.069246
0.125566
0.028438
0.124469
0.111841
0.211936
0.165108
0.213694
0.203188
0.260185
0.267612
0.365033
0.269311
0.248124
0.350755
0.347485
0.382915
0.290645
0.482816
0.467491
0.437411
0.558236
0.421491
0.481165
0.572693
0.485893
0.483687
0.531044
0.472649
0.559111
0.573092
0.607302
0.505416
0.423390
0.451717
0.457171
0.368491
0.347148
0.447855
0.318681
0.313798
0.345076
0.265279
0.312175
0.276412
0.217852
0.281381
0.251499
0.300442
0.210500
0.221091
0.130987
0.152185
0.102163
0.141274
0.095957
0.092988
0.036722
0.059780
0.103960
0.074937
0.011257
0.087429
0.139213
-0.005332
0.030983
0.012757
0.002585
0.021765
-0.058256
-0.040537
0.024278
-0.035953
0.040909
0.026810
-0.038567
0.019887
0.016378
0.092960
-0.023302
-0.019102
0.010731
0.040576
-0.007368
-0.019840
0.015292
0.104182
0.045337
0.062731
0.005028
0.096506
-0.022143
0.071494
0.049991
0.006491
0.061784
0.032865
-0.011073
-0.071027
0.055701
0.003341
-0.012140
0.006977
0.080087
0.008031
0.050986
0.052624
0.070539
0.058349
0.091317
-0.005007
0.044812
0.125999
0.140092
0.141787
0.157698
0.168769
0.040823
0.117870
0.211314
0.087623
0.105195
0.291544
0.141287
0.262090
0.246781
0.156780
0.238534
0.267329
0.305759
0.279248
0.282875
0.140899
0.198573
0.283963
0.162154
0.239472
0.231586
0.117441
0.175190
0.158354
0.087888
0.170072
0.052135
0.119476
0.077011
0.104527
0.139050
0.097762
0.045665
0.054102
0.147086
0.127081
0.110144
0.023849
0.087173
0.054901
0.137885
-0.006514
0.056958
0.049783
0.074251
0.094680
0.199390
0.419080
0.861993
1.084148
1.292941
1.388431
1.342455
1.143378
0.750337
0.460019
-0.023098
-0.000179
-0.143904
-0.154690
-0.017032
-0.028294
0.056620
0.067940
0.126750
0.109969
0.150917
0.114353
0.109539
0.130433
0.103456
0.175098
0.245938
0.295354
0.130402
0.208688
0.182434
0.322256
0.256227
0.252789
0.375381
0.354303
0.401813
0.367851
0.441754
0.421760
0.452761
0.512612
0.422079
0.518377
0.549949
0.627682
0.524398
0.639201
0.560763
0.576630
0.662399
0.547744
0.577261
0.583732
0.625171
0.546896
0.626931
0.555273
0.549546
0.583015
0.558497
0.494601
0.527015
0.442150
0.511871
0.445227
0.425642
0.458824
0.396058
0.331549
0.365841
0.346881
0.196562
0.303469
0.341895
0.293417
0.260954
0.180515
0.182072
0.233595
0.162287
0.137517
0.199367
0.140984
0.143751
0.089691
0.200696
0.097179
0.143342
0.107500
0.081146
0.045498
0.083826
0.122194
0.119378
0.178012
0.076100
0.064212
0.079708
0.122383
0.116435
0.159818
0.101271
0.053278
0.107978
0.055034
0.135671
0.103022
0.080454
0.058672
0.117525
0.105153
0.107354
0.110839
0.117182
0.018960
0.110624
0.050705
0.077568
0.053351
0.071334
-0.009009
0.088210
0.095682
0.010299
0.164966
0.189540
0.081962
0.095083
0.140668
0.131743
0.155351
0.055549
0.125878
0.063968
0.120354
0.184774
0.200714
0.095972
0.219930
0.196797
0.242265
0.132212
0.213834
0.270623
0.209001
0.176778
0.242493
0.220029
0.243655
0.228486
0.179006
0.279611
0.318984
0.267723
0.242971
0.380837
0.235111
0.333052
0.274346
0.224763
0.227675
0.195097
0.159893
0.223232
0.228122
0.243086
0.200925
0.146796
0.169194
0.157537
0.176496
0.167754
0.127708
0.103502
0.089403
0.125791
0.032966
0.121813
0.135929
0.128843
0.068022
0.135499
0.136404
0.010453
0.003969
0.200546
0.168959
0.324527
0.660032
0.934929
1.311307
1.396021
1.491617
1.261677
0.952987
0.608472
0.156839
-0.040675
-0.045257
-0.129801
-0.147139
0.018344
0.048805
0.071721
0.165283
0.068569
0.159335
0.166606
0.115222
0.138382
0.145815
0.153099
0.155934
0.239204
0.274255
0.173406
0.261879
0.268347
0.287421
0.366872
0.301103
0.283045
0.360621
0.331977
0.416753
0.424852
0.370896
0.490790
0.507943
0.454101
0.489217
0.517233
0.508385
0.481549
0.555163
0.548956
0.547221
0.639687
0.559486
0.601800
0.619204
0.660760
0.538690
0.612112
0.602717
0.549540
0.488461
0.562814
0.553170
0.480924
0.432170
0.389058
0.476274
0.406590
0.324771
0.329431
0.322776
0.326710
0.245505
0.214308
0.275855
0.246302
0.235745
0.182621
0.178340
0.115172
0.143074
0.161194
0.175843
0.106091
0.016364
0.071438
0.056889
0.053446
0.058311
0.035566
0.081432
-0.018759
0.025946
0.108231
0.077097
0.039360
0.011016
0.085116
0.031328
0.037129
0.048665
-0.007290
0.041365
0.001972
0.061703
-0.009980
0.015397
0.000018
-0.027273
-0.023838
-0.024188
-0.109474
0.070862
0.031427
0.089432
0.100373
-0.003068
0.077763
0.067492
-0.030541
0.031989
0.050349
-0.025196
0.009334
-0.013072
0.016934
0.042957
0.017088
-0.015216
-0.012693
-0.001198
-0.010927
-0.042743
-0.031448
0.041664
0.083080
0.109505
0.064047
-0.020814
0.004895
0.088734
0.086440
0.088609
0.146548
0.087728
0.131977
0.125211
0.177295
0.127925
0.045461
0.110369
0.166541
0.123756
0.160652
0.179118
0.148572
0.114384
0.180624
0.225536
0.118890
0.135355
0.086749
0.125206
0.028960
0.104637
0.015981
0.076779
-0.007698
0.069934
-0.036285
0.045721
0.015851
0.021705
0.027830
0.112671
0.070464
-0.061724
-0.059882
0.013946
-0.054079
-0.033122
-0.072351
0.013104
-0.007966
-0.073158
-0.005430
-0.094910
0.024696
0.097611
0.409510
0.599964
0.934132
1.289441
1.410382
1.314902
1.004136
0.634722
0.234401
-0.005506
-0.182086
-0.329529
-0.202234
-0.121199
0.010431
-0.094415
0.008925
-0.054945
0.056664
-0.002713
0.012795
0.006283
0.060582
0.023268
0.017883
0.075661
0.035457
0.110438
0.026684
0.175279
0.160899
0.138662
0.237478
0.220271
0.306812
0.237102
0.241443
0.282539
0.309610
0.300550
0.366386
0.324007
0.329390
0.441060
0.412377
0.385908
0.478822
0.429201
0.498646
0.523327
0.450623
0.461381
0.526710
0.400275
0.460492
0.420690
0.443188
0.427112
0.417970
0.361381
0.394031
0.373362
0.349855
0.281046
0.265660
0.290885
0.260684
0.188402
0.189200
0.174677
0.200120
0.187167
0.101491
0.139579
0.121433
0.022456
0.052650
0.006130
0.015756
0.091180
-0.060141
0.030280
0.060713
0.089011
-0.052228
-0.002909
-0.026160
-0.019008
-0.050227
-0.097176
-0.052544
-0.030676
-0.106934
-0.071382
-0.056682
-0.104310
0.022168
-0.103170
-0.237968
-0.053009
-0.137382
-0.024578
-0.098118
-0.094578
-0.020686
-0.033129
-0.094000
-0.004433
-0.023319
-0.032880
-0.032179
-0.081196
-0.033241
-0.035232
-0.107905
-0.124607
-0.112394
-0.094343
0.016712
-0.029605
0.055258
-0.045352
-0.068859
-0.087771
-0.180209
-0.092224
-0.160896
-0.120293
-0.112836
-0.182410
-0.056000
-0.067137
-0.101563
-0.117276
-0.102133
-0.068710
-0.079232
-0.038830
-0.111989
-0.057984
0.024284
-0.036247
-0.053685
0.061345
0.078609
0.093184
0.060623
0.042103
0.102716
0.046531
0.073496
0.081939
0.129880
0.110269
0.096901
0.089165
0.048528
0.136355
0.094815
-0.001514
0.098405
0.088152
0.101791
0.038353
0.025028
0.022622
0.030655
0.005071
-0.077769
-0.028179
0.033939
0.021422
-0.112212
-0.070367
-0.018559
-0.120393
-0.066515
-0.063776
-0.144645
-0.103876
-0.005854
-0.080512
-0.121861
-0.106691
-0.105368
-0.131442
0.033733
0.176073
0.428068
0.752114
1.152174
1.332770
1.340440
1.173654
0.899989
0.461967
0.071721
-0.120321
-0.290091
-0.342941
-0.217517
-0.203540
-0.110580
-0.087259
0.014471
0.021425
0.089315
-0.082831
0.044462
-0.045512
0.084288
0.040543
-0.000780
0.095777
0.091400
0.104002
0.098588
0.152209
0.053661
0.207243
0.214596
0.283429
0.191002
0.214717
0.293491
0.316162
0.292155
0.313693
0.435098
0.349909
0.352577
0.362976
0.508239
0.358375
0.504426
0.438555
0.382504
0.405958
0.378569
0.408134
0.471701
0.574180
0.427827
0.365397
0.496726
0.362083
0.450021
0.346303
0.314209
0.374446
0.373773
0.350421
0.320239
0.266770
0.220761
0.222251
0.199874
0.136114
0.108366
0.028691
0.130858
0.153316
0.183416
0.144176
0.037155
0.110388
-0.025644
0.042217
0.034605
0.024161
-0.032540
0.022819
-0.000003
-0.063150
0.073818
0.016121
-0.009217
0.000480
0.088485
-0.027630
-0.074164
-0.069548
-0.046401
-0.020861
-0.044078
-0.030680
-0.024282
0.007569
-0.068103
-0.084357
-0.071906
-0.005631
-0.020933
0.062592
-0.055814
-0.001534
0.006324
-0.044410
-0.064585
-0.069329
-0.083835
0.014988
-0.029324
-0.075336
-0.028405
-0.036875
-0.051409
-0.018871
0.027802
-0.059175
-0.050448
-0.090514
0.054707
-0.020759
-0.058847
-0.006465
0.007694
-0.077262
0.003906
0.105745
-0.010829
-0.076870
-0.014164
-0.008513
0.073979
0.032865
0.021217
0.060745
0.036095
0.121674
0.033296
0.064311
0.112368
0.125921
0.103956
0.130384
0.030639
0.279186
0.158575
0.081653
0.144442
0.274547
0.140301
0.144884
0.059737
0.218610
0.114694
0.113537
0.125817
0.103013
0.096444
0.122485
0.094262
0.128301
0.101441
0.024283
0.167290
0.037010
0.051545
0.069137
-0.025418
0.023351
0.113433
0.030174
0.018341
-0.045415
0.028077
0.049438
0.072926
0.040428
0.014974
-0.060623
-0.048775
0.033470
0.231785
0.409389
0.699958
1.032927
1.372701
1.397284
1.257365
1.089947
0.747360
0.333113
-0.015617
-0.203021
-0.156950
-0.167566
-0.076216
-0.030007
0.034338
0.059726
0.081261
0.066490
0.059784
0.107434
0.083470
0.092903
0.171656
0.048610
0.048693
0.065281
0.193872
0.241678
0.227457
0.226372
0.275904
0.326770
0.265493
0.345384
0.283749
0.352172
0.338990
0.355806
0.425488
0.367602
0.439803
0.535348
0.413533
0.549403
0.500611
0.536605
0.501111
0.539444
0.522620
0.538708
0.637457
0.583553
0.599063
0.585621
0.571442
0.581960
0.560767
0.481285
0.509343
0.469580
0.513262
0.290084
0.358302
0.444005
0.372128
0.382687
0.307357
0.372131
0.247544
0.289693
0.182696
0.248001
0.280206
0.241678
0.151129
0.170549
0.099801
0.097492
0.137040
0.037390
0.067760
0.055830
0.124893
0.052267
0.072485
0.096683
0.046868
0.075342
0.117603
0.106467
-0.003809
0.081471
-0.052002
0.053825
0.081395
0.075443
0.025958
0.104491
0.031640
0.007662
0.048957
0.052982
0.029331
0.007698
-0.000365
0.009694
0.082282
0.120129
-0.047721
0.030956
0.023950
0.051907
0.076275
-0.042820
0.028758
0.086550
0.021338
0.028019
0.013451
0.056658
0.103439
0.132218
0.119912
0.116188
0.067438
0.049546
0.023008
0.033780
0.040206
0.045277
0.052224
0.141314
0.090327
0.099184
0.080614
0.116032
0.141065
0.120212
0.129150
0.088530
0.151804
0.179554
0.155998
0.125391
0.125484
0.180306
0.178029
0.139097
0.287273
0.226636
0.219451
0.268813
0.263626
0.274642
0.279510
0.263874
0.237430
0.305530
0.161598
0.246053
0.167756
0.132836
0.176627
0.156063
0.170672
0.123457
0.108341
0.156833
0.167057
0.182840
0.070514
0.110887
0.106658
0.071951
0.061537
0.072507
0.009320
0.048582
0.038545
0.012168
0.094965
0.037728
-0.031485
0.035062
-0.027837
0.124437
0.294915
0.523373
0.951732
1.172349
1.424947
1.439475
1.207861
0.919161
0.538660
0.222507
-0.040959
-0.205030
-0.198899
-0.123094
0.014951
0.004953
0.001182
0.013976
0.080842
0.021166
0.088060
0.173613
0.024793
0.063145
0.106166
0.044574
0.052266
0.121185
0.314190
0.152236
0.223775
0.235163
0.201455
0.261493
0.292278
0.373544
0.371027
0.396497
0.435329
0.410178
0.409999
0.385841
0.516081
0.492773
0.444172
0.479008
0.508762
0.567213
0.535165
0.510807
0.551297
0.446589
0.578305
0.410547
0.515952
0.481901
0.525628
0.607786
0.429184
0.467312
0.478735
0.375026
0.445468
0.440226
0.445462
0.371463
0.326501
0.303575
0.309052
0.306123
0.291991
0.194498
0.160843
0.243402
0.126005
0.153128
0.121585
0.144507
0.146783
0.160095
0.037390
0.101467
0.160359
0.032187
0.015699
0.097177
0.002825
-0.023464
0.069422
0.034491
0.071159
0.071536
0.010179
0.032946
-0.056746
0.056818
0.005134
0.007844
-0.017399
0.021681
-0.047682
-0.031199
-0.022425
-0.049648
-0.017881
0.108499
0.082640
-0.025721
-0.013099
-0.001778
0.033614
0.009574
-0.007793
0.021536
-0.016690
-0.083699
0.005971
-0.008005
-0.163631
0.034754
0.017122
0.058683
-0.031975
0.058600
0.051299
0.015097
-0.077101
-0.030493
0.009195
-0.030399
-0.097510
0.045049
0.036482
0.048497
0.029545
-0.019471
0.156241
-0.016067
0.031768
-0.029456
0.020349
0.041634
0.083984
0.160169
0.106916
-0.001856
0.040927
0.059196
0.113539
0.064641
0.154816
0.196286
0.146574
0.111309
0.094934
0.193621
0.093980
0.209400
0.097699
0.095575
0.102417
0.069810
0.118363
0.110349
0.065838
0.061323
-0.002010
-0.003022
0.047853
0.037223
0.028176
0.039775
-0.003403
-0.021987
-0.021848
-0.079590
-0.000076
-0.080494
-0.040676
-0.066594
-0.054508
-0.041626
-0.110119
-0.050613
-0.054457
0.001299
-0.032241
0.082800
0.414273
0.759063
1.012319
1.216337
1.372451
1.311722
1.079735
0.606323
0.248761
-0.031980
-0.171908
-0.310807
-0.277803
-0.185730
-0.132184
-0.072393
-0.090678
0.005332
0.018664
0.037998
0.000923
-0.009530
-0.030023
0.081129
0.057504
0.048693
0.106833
0.094318
0.184951
0.080956
0.183302
0.145429
0.157692
0.170324
0.282971
0.218720
0.194448
0.364389
0.298260
0.341916
0.341394
0.370101
0.412354
0.351442
0.421068
0.409667
0.447105
0.370257
0.394870
0.393914
0.444182
0.447858
0.392451
0.406967
0.467144
0.430163
0.487506
0.323259
0.435121
0.223633
0.354001
0.296876
0.403140
0.240393
0.281672
0.241878
0.295557
0.186646
0.189627
0.165008
0.083698
0.144820
0.127185
0.133403
0.105811
0.095116
0.014729
0.021694
-0.020991
-0.054667
-0.072777
-0.077857
0.025284
-0.054381
-0.050524
-0.054157
-0.003522
-0.115015
-0.083730
-0.059667
-0.017537
-0.106106
-0.048154
-0.126294
-0.138183
-0.113730
-0.089042
-0.102966
-0.122300
-0.131515
-0.124081
-0.139033
-0.117294
-0.099436
-0.174731
-0.088462
-0.136732
-0.214358
-0.097940
-0.035408
-0.098920
-0.195892
-0.119822
-0.154253
-0.150786
-0.137230
-0.073637
-0.115103
-0.162286
-0.081350
-0.123753
-0.016617
-0.083466
-0.129828
-0.146648
-0.124580
-0.128121
-0.077930
-0.032388
-0.093429
-0.059727
-0.119212
-0.136682
-0.032263
0.000078
-0.055931
-0.032132
-0.070735
-0.081092
-0.007416
-0.009477
-0.039935
-0.018636
-0.109261
-0.009659
0.040280
0.051524
0.062362
0.111783
0.002336
0.054812
0.069089
0.071338
0.089232
0.118639
0.052814
0.139027
0.048008
0.030702
0.043778
0.049207
0.017469
0.010506
-0.017955
0.051014
-0.029315
0.084961
0.024003
-0.104928
-0.068976
-0.041036
-0.000509
-0.173808
-0.123537
-0.119825
-0.077515
-0.146550
-0.092202
-0.102177
-0.034548
-0.032449
-0.052795
-0.109844
-0.098863
-0.054641
-0.085442
-0.059652
0.119635
0.439192
0.743399
1.092416
1.233467
1.279540
1.075888
0.725570
0.459152
0.128741
-0.162401
-0.304548
-0.380039
-0.296916
-0.136493
-0.090766
-0.015805
-0.122450
-0.017682
-0.084669
0.023320
0.013826
-0.050987
-0.014604
-0.027145
-0.068796
0.068920
-0.019835
0.073745
0.022216
0.053679
0.129151
0.044515
0.162747
0.173557
0.245740
0.244245
0.212848
0.319561
0.294721
0.330834
0.286387
0.325211
0.408027
0.354868
0.404294
0.473759
0.327539
0.533743
0.513904
0.391961
0.445618
0.473865
0.450547
0.521824
0.480278
0.428487
0.418464
0.374160
0.458114
0.391170
0.374396
0.327150
0.288410
0.333912
0.247396
0.209431
0.273947
0.313411
0.217835
0.163010
0.172150
0.090586
0.166236
0.150495
0.029323
0.099654
0.076727
0.031355
-0.023958
-0.026048
0.041992
0.028577
-0.050310
-0.059398
-0.005448
-0.016915
-0.005683
-0.033267
-0.033930
-0.102254
-0.016808
-0.000282
-0.055171
-0.095367
0.021149
-0.044479
-0.094594
-0.029802
-0.004808
-0.012493
-0.034998
-0.042308
-0.055898
0.024264
0.007641
-0.027229
-0.024701
0.044681
-0.029808
-0.051167
0.041366
-0.008097
0.021446
-0.030212
-0.028378
-0.077073
-0.052520
0.005427
-0.022561
0.017730
-0.065773
0.023147
0.009732
-0.066638
0.049693
-0.055175
-0.117227
-0.099186
-0.095274
0.038515
-0.053818
0.012953
0.022532
-0.038419
0.036847
0.097424
-0.114691
-0.006149
0.031916
0.046760
0.075177
0.021406
0.060544
0.067028
0.123068
0.090189
0.126143
0.197752
0.116577
0.133466
0.170993
0.122055
0.282943
0.130517
0.178242
0.174365
0.101694
0.190265
0.135512
0.131149
0.020126
0.108268
0.145239
0.108343
0.168151
0.070800
0.159245
0.095514
0.155562
0.065203
0.006209
0.030414
0.095426
-0.005653
0.035528
-0.000930
0.062327
0.013945
0.059469
0.083080
0.068275
0.037859
-0.003671
0.010060
-0.005979
0.040578
0.207907
0.453384
0.695805
1.137027
1.266831
1.425755
1.388911
1.125623
0.759564
0.374550
0.074548
-0.250260
-0.092843
-0.106202
-0.090897
-0.090360
0.081264
0.057042
0.083641
0.040230
0.040031
0.043660
0.116168
0.111756
0.102406
0.086290
0.080440
0.170382
0.174364
0.147971
0.201870
0.263066
0.268589
0.284937
0.235905
0.279258
0.295507
0.352989
0.346714
0.386299
0.418316
0.433744
0.447702
0.435239
0.487627
0.574037
0.515413
0.555274
0.506538
0.490585
0.635779
0.611999
0.623228
0.563504
0.550084
0.554831
0.583894
0.531776
0.529945
0.542693
0.514948
0.444378
0.500030
0.430172
0.462668
0.386432
0.482893
0.392035
0.413448
0.289413
0.296412
0.284915
0.257202
0.279115
0.243996
0.201287
0.276464
0.158968
0.152314
0.197536
0.109220
0.110672
0.178431
0.055862
0.122824
0.059296
0.052473
0.154432
0.128604
0.096043
0.090380
0.021468
0.035809
0.047708
0.065199
0.071610
0.064501
0.041483
0.065448
0.103146
0.072312
0.030473
0.115237
0.105666
0.074781
0.090758
-0.009345
0.083122
0.096718
0.010967
0.077635
0.095102
0.107881
0.091687
0.062756
0.211782
0.115203
-0.017189
0.047212
0.105203
0.130125
0.132962
0.048478
0.070654
0.058360
0.096011
0.025169
0.079686
0.041363
0.088823
0.006528
0.012402
0.019521
0.010765
0.079141
0.033274
0.063061
0.007562
0.184914
0.111860
0.129503
0.105541
0.153114
0.128086
0.063960
0.122329
0.183215
0.178034
0.175683
0.238119
0.219661
0.171415
0.295500
0.212320
0.199560
0.260686
0.276561
0.237603
0.204859
0.196233
0.243377
0.241644
0.266366
0.145154
0.222526
0.213042
0.129142
0.086644
0.083574
0.153369
0.145021
0.127550
0.119270
0.155679
0.134387
0.049200
0.066152
0.085162
0.054552
0.052288
