0.041846
-0.013649
0.013084
-0.005399
-0.008206
0.055790
-0.029467
0.039387
0.019846
0.064753
0.069956
-0.024310
0.092639
-0.006048
-0.092773
0.010971
0.037639
-0.010502
0.031642
0.045689
0.068780
0.113997
0.069798
0.039750
0.080106
0.098944
0.072734
0.084000
0.156965
0.066286
0.195486
0.144296
0.143527
0.233630
0.147041
0.116607
0.163507
0.272586
0.241219
0.267462
0.202770
0.193188
0.256768
0.205466
0.165284
0.263655
0.242979
0.061221
0.133474
0.054271
0.085918
0.151921
0.165711
0.223588
0.014474
0.061069
0.116057
0.070392
0.072416
0.036754
0.026374
0.049290
0.028996
0.084437
0.011187
0.054006
0.044319
0.009726
-0.023252
0.028068
0.097951
0.216855
0.443393
0.756598
1.086068
1.364971
1.408237
1.391231
1.128597
0.782488
0.364189
-0.038061
-0.164091
-0.144661
-0.154552
0.075737
-0.024669
0.009083
0.145486
0.101543
0.131591
0.092244
0.019269
0.156126
0.141089
0.150570
0.177901
0.136959
0.242574
0.215255
0.178794
0.215246
0.185102
0.244176
0.321653
0.333198
0.295873
0.450666
0.411484
0.353593
0.413028
0.414363
0.525296
0.466549
0.483398
0.485789
0.601954
0.526214
0.581475
0.638906
0.683511
0.579689
0.608056
0.671242
0.579302
0.559736
0.633331
0.577896
0.562991
0.604203
0.589494
0.496115
0.601788
0.522468
0.454913
0.519642
0.479900
0.419207
0.402157
0.369100
0.464224
0.352337
0.359316
0.260552
0.301834
0.302249
0.226225
0.094538
0.245737
0.217210
0.207922
0.201384
0.187789
0.157418
0.174565
0.170141
0.160381
0.070027
0.183159
0.209657
0.089553
0.147451
0.103646
0.125477
0.099178
0.073176
0.078112
0.048196
0.044780
0.147948
0.003151
0.057166
0.090883
0.070718
0.067954
0.065455
-0.073097
0.071208
0.059266
0.076713
0.153150
0.078391
0.126774
0.077195
0.121712
0.069874
0.130641
0.118694
0.082389
0.080865
0.097932
0.023608
0.133572
0.093224
0.161411
0.148746
0.101451
0.114782
0.110517
0.125756
0.159273
0.057482
0.134426
0.088773
0.046952
0.069837
0.071823
0.124791
0.160050
0.127959
0.084742
0.192811
0.177999
0.151511
0.233923
0.114881
0.197283
0.204504
0.251007
0.272392
0.253748
0.278439
0.199864
0.269163
0.300451
0.229704
0.272139
0.224160
0.267073
0.280414
0.284837
0.212858
0.241046
0.245735
0.227726
0.218389
0.257099
0.229356
0.238690
0.267208
0.181440
0.213947
0.145139
0.073211
0.173228
0.197359
0.150295
0.118035
0.153645
0.151434
0.089969
0.073970
0.162525
0.054217
0.036565
0.090728
0.165694
0.087178
0.097590
0.204485
0.168645
0.299668
0.512991
0.870154
1.242144
1.467208
1.500000
1.351600
1.100475
0.720576
0.391307
0.068421
-0.078056
-0.129848
-0.089652
-0.066552
-0.034336
0.030948
0.154084
0.055602
0.129841
0.092834
0.075331
0.079380
0.061539
0.198567
0.127601
0.178356
0.259588
0.248231
0.219459
0.231074
0.277818
0.241041
0.280676
0.394689
0.362295
0.419675
0.441370
0.450285
0.436892
0.462677
0.538379
0.474743
0.513983
0.548919
0.555405
0.533125
0.554296
0.642107
0.629747
0.601974
0.591781
0.663687
0.588884
0.559862
0.613990
0.579542
0.577860
0.585124
0.549969
0.506013
0.531413
0.486992
0.470204
0.468219
0.476696
0.394653
0.483401
0.374412
0.313598
0.335525
0.328915
0.274442
0.259487
0.315998
0.140205
0.200068
0.116748
0.108690
0.161290
0.078746
0.220221
0.136897
0.073226
0.079413
0.044815
0.091843
0.147842
0.079005
0.100965
0.055836
0.092065
0.020034
0.117435
0.052095
0.153503
0.134378
-0.006673
0.084808
0.048201
0.042936
0.064314
0.087747
-0.048473
0.005002
0.084253
-0.005956
0.012665
-0.045365
0.069613
0.050897
0.013878
0.108476
0.054325
0.005377
0.044111
0.110441
0.079364
0.000012
-0.025494
0.007327
0.037560
-0.038061
-0.027241
-0.001891
-0.033263
0.015172
0.053954
0.014731
0.045293
0.026753
0.029259
-0.007939
-0.025465
0.042956
0.005017
0.019643
-0.046883
0.072778
0.011321
0.096405
-0.010200
0.123900
0.141137
0.062814
0.007191
0.136775
0.042625
0.123253
0.053136
0.181399
0.138116
0.216490
0.227907
0.170709
0.211986
0.180149
0.180762
0.253148
0.162932
0.176468
0.163634
0.139316
0.210220
0.129911
0.209458
0.138140
0.011528
0.061757
0.067063
0.046347
0.021741
0.075341
-0.002173
0.033577
0.019703
0.025447
0.052623
0.097814
0.031860
-0.041157
-0.023370
-0.011965
0.062087
-0.023346
0.012060
-0.020038
0.052878
-0.058177
0.053418
0.306659
0.497040
0.771734
1.151104
1.406424
1.346995
1.269041
0.992528
0.597747
0.232203
0.025812
-0.248268
-0.250150
-0.136362
-0.074925
-0.020364
0.080788
-0.046611
-0.027910
0.005076
0.038330
0.010246
0.065959
0.126251
0.058138
0.144676
0.118644
0.009759
0.185376
0.093941
0.166084
0.117126
0.207809
0.285331
0.234159
0.295135
0.259983
0.252550
0.318548
0.346944
0.360145
0.357771
0.368246
0.399688
0.485974
0.521002
0.482270
0.488342
0.536316
0.457819
0.430799
0.450440
0.537190
0.503249
0.547748
0.546315
0.450752
0.561418
0.381388
0.449808
0.435555
0.387223
0.464282
0.374886
0.367040
0.359164
0.327595
0.261261
0.233655
0.192371
0.160283
0.197866
0.108681
0.202162
0.131132
0.114526
0.118435
0.090837
0.056885
0.064990
0.064377
0.115127
0.024833
0.105188
0.042478
0.069558
0.019151
-0.052178
0.026106
0.012013
-0.113166
0.041040
0.067424
-0.104938
-0.006459
-0.031528
-0.003204
-0.096370
-0.115426
-0.057396
-0.039425
-0.048713
-0.015015
-0.046293
-0.049223
-0.030624
0.002081
-0.051207
-0.020513
0.051554
-0.008478
-0.088556
-0.065553
-0.025758
-0.050621
-0.063383
-0.060622
-0.082011
-0.032398
-0.007234
-0.105358
-0.004316
-0.020330
-0.145918
-0.033505
-0.089457
-0.052036
-0.071707
-0.061608
-0.057767
0.031861
0.057824
-0.069312
0.003926
-0.100230
-0.115456
0.042990
-0.017695
-0.014335
0.010939
-0.070278
-0.054952
-0.005020
0.003889
0.006320
0.085568
-0.002474
0.047076
0.111724
0.072345
0.163200
0.079096
0.156948
0.048924
0.184312
0.133774
0.140297
0.129873
0.123948
0.104955
0.195693
0.158938
0.094262
0.164460
0.127319
0.094458
0.147642
-0.038197
0.066701
-0.002449
0.135843
0.035493
0.074455
-0.008108
-0.005284
0.035232
-0.061783
0.029416
-0.025521
-0.061097
-0.065086
-0.041419
0.056253
-0.027978
0.025141
0.024631
0.013679
-0.005806
-0.031239
0.055023
0.208832
0.493204
0.869528
1.049884
1.366663
1.281237
1.230089
0.919008
0.553557
0.207967
-0.050755
-0.184000
-0.207758
-0.190547
-0.195712
-0.072231
-0.022288
0.055461
-0.112282
-0.033079
0.088603
0.046555
0.043170
0.136257
0.066171
0.136911
0.121882
0.152679
0.087530
0.157365
0.119265
0.144895
0.235361
0.195140
0.307126
0.283997
0.328212
0.345563
0.334508
0.383083
0.322369
0.378703
0.423317
0.392634
0.476716
0.392342
0.449131
0.407627
0.480363
0.515591
0.528398
0.605893
0.545609
0.560428
0.507333
0.463419
0.540902
0.599984
0.442704
0.503993
0.442908
0.450112
0.385050
0.415511
0.338587
0.342708
0.320229
0.292247
0.308424
0.328202
0.325612
0.291052
0.245199
0.115655
0.221977
0.135627
0.072587
0.195221
0.140758
0.151530
0.102898
0.057081
0.071922
0.045229
0.119598
0.078865
0.075984
0.059427
0.126682
0.021915
0.044959
-0.057630
0.007509
0.087354
0.053244
-0.046435
0.092373
0.080428
0.043805
0.083839
0.071083
0.039108
-0.008960
-0.011968
0.025369
0.042107
0.013233
0.108198
0.069401
0.056508
0.052984
0.010468
0.022219
0.004612
0.043085
0.017026
-0.041685
-0.073371
-0.004349
0.049824
-0.032364
-0.012361
0.020509
0.034516
0.008456
-0.008524
0.075897
-0.001878
0.109811
0.082280
0.132773
0.025354
0.062766
0.058193
-0.005693
0.013068
0.065517
0.083845
0.130751
0.064857
0.019679
0.010943
0.094665
0.087273
0.136410
0.123241
0.120175
0.083421
0.183036
0.191136
0.204170
0.226714
0.201590
0.287121
0.285306
0.117156
0.336054
0.113113
0.176355
0.207785
0.266900
0.212986
0.195148
0.217024
0.226085
0.233061
0.250061
0.154456
0.179382
0.130946
0.143460
0.082907
0.171750
0.082349
0.089744
0.098695
0.106159
0.125160
0.072824
0.098594
0.030779
0.064293
0.083670
0.129762
0.039334
0.011987
0.100910
0.071533
0.101701
0.131225
0.374862
0.633668
1.083792
1.294726
1.485120
1.432511
1.311327
0.947489
0.540937
0.221425
-0.037031
-0.105558
-0.130199
-0.067171
0.060133
0.083921
0.118358
0.083451
0.151340
0.059538
0.155218
0.084396
0.152967
0.095079
0.180637
0.199680
0.201242
0.204380
0.221827
0.289594
0.164608
0.262269
0.267303
0.355355
0.297497
0.344854
0.443272
0.466341
0.463003
0.448623
0.476693
0.480615
0.504865
0.613560
0.598313
0.562940
0.620077
0.596124
0.656505
0.687675
0.575881
0.637792
0.643542
0.619233
0.596408
0.497467
0.642487
0.617692
0.610236
0.588118
0.548699
0.561990
0.533797
0.437040
0.506071
0.478246
0.522206
0.405242
0.431726
0.412105
0.431564
0.360130
0.328167
0.281645
0.365750
0.273757
0.239694
0.290365
0.237209
0.232549
0.213487
0.131851
0.150181
0.179885
0.221224
0.135579
0.157462
0.063528
0.075320
0.064350
0.143237
0.178072
0.132960
0.081846
0.135813
0.150855
0.136021
0.073100
0.108217
0.089458
0.066277
0.037096
0.141334
0.091478
0.087600
0.088416
0.038582
0.134817
0.074416
0.109878
0.048872
0.066832
0.138773
0.049723
0.137433
0.063208
0.002835
0.006627
0.087149
0.161138
0.080115
-0.002127
0.081660
0.063140
0.054118
0.102149
0.081342
0.109918
0.049941
0.076630
0.118488
0.048924
0.104486
0.115753
0.085881
0.132474
0.127973
0.156740
0.197432
0.139492
0.155184
0.170604
0.139023
0.168289
0.227330
0.225158
0.253004
0.207814
0.146759
0.229909
0.181153
0.298433
0.243311
0.347600
0.352431
0.260495
0.301025
0.249928
0.268372
0.321623
0.306423
0.224688
0.227442
0.210659
0.257962
0.198462
0.147016
0.187171
0.231644
0.200648
0.198354
0.194716
0.164434
0.145885
0.137642
0.108306
0.082649
0.113259
0.052601
0.133889
0.075155
0.068326
0.103409
0.052611
0.047287
0.059690
0.108110
0.196791
0.163394
0.148215
0.465548
0.802028
1.116606
1.332947
1.470689
1.412829
1.281123
0.888890
0.577247
0.156837
-0.136474
-0.095478
-0.194719
-0.066397
-0.108374
0.078316
0.075803
0.087310
0.162635
0.143695
0.162265
0.177800
0.132847
0.160718
0.178654
0.198373
0.129721
0.156448
0.162726
0.264566
0.266715
0.258924
0.324494
0.302818
0.283662
0.327272
0.372146
0.403838
0.409978
0.432192
0.443290
0.402194
0.478182
0.570000
0.507727
0.523842
0.556818
0.544171
0.552711
0.667958
0.582610
0.667809
0.624316
0.649217
0.476570
0.598805
0.549196
0.544048
0.531393
0.502001
0.534859
0.405295
0.471698
0.439105
0.406227
0.393083
0.453410
0.294723
0.358795
0.292312
0.299687
0.244509
0.294936
0.239919
0.235185
0.163127
0.127859
0.180357
0.167856
0.128389
0.250424
0.079389
0.084573
0.093249
0.104235
0.005310
0.119585
0.062097
0.110563
0.047430
0.031460
0.174668
0.002630
0.094159
-0.035982
-0.051761
0.037133
-0.059796
0.000736
-0.007286
0.039496
-0.066354
-0.013030
0.035482
-0.045834
-0.001077
-0.052551
0.025475
0.009777
0.020872
-0.015201
0.050652
0.058855
-0.026362
-0.022775
0.022062
-0.041811
0.056267
0.047056
-0.045019
-0.025346
0.010670
0.017279
-0.029240
-0.037120
-0.084783
-0.016254
0.000816
-0.028694
0.010147
0.061347
0.027026
0.003021
0.034665
0.071278
-0.026430
-0.042472
-0.020316
-0.056125
0.027150
0.065667
0.025258
0.064839
0.006694
0.013867
0.124525
0.102197
0.072683
0.179845
0.095539
0.199106
0.130531
0.183152
0.150848
0.192643
0.166380
0.169633
0.117904
0.099360
0.118511
0.254869
0.038089
0.200395
0.058778
0.124180
0.056282
0.115384
0.043267
0.078974
0.052432
-0.014821
0.056196
0.030097
0.034953
-0.003374
-0.046228
0.032459
0.018653
-0.019778
-0.028566
0.043713
0.002977
0.057740
0.016791
-0.026477
-0.094330
0.016361
-0.090799
-0.035404
0.077727
0.368995
0.572836
1.005313
1.215883
1.423989
1.355493
1.142186
0.722652
0.348615
0.068778
-0.154573
-0.163447
-0.295509
-0.213958
-0.145413
-0.048968
-0.103721
-0.039892
-0.032149
-0.019789
0.092290
0.009933
0.027686
0.018630
0.047853
0.046394
0.165679
0.052142
0.028985
0.156578
0.149732
0.194687
0.232479
0.127341
0.206723
0.199351
0.230610
0.263743
0.301465
0.339216
0.370105
0.305347
0.384909
0.333670
0.445221
0.480602
0.426110
0.508231
0.465268
0.446367
0.380416
0.511025
0.430605
0.529612
0.441669
0.494461
0.466427
0.468595
0.324205
0.478055
0.442750
0.389552
0.389064
0.348920
0.275609
0.306536
0.260984
0.239791
0.220644
0.210160
0.129218
0.115082
0.113647
0.194980
0.104449
0.139066
0.106929
0.014696
0.114280
0.110639
0.067572
-0.101399
-0.050123
-0.014052
-0.127912
-0.069446
-0.094098
-0.063222
-0.034650
-0.077314
-0.088527
-0.132512
-0.072964
-0.103636
-0.043107
-0.106633
-0.151569
-0.090145
-0.101215
-0.100896
-0.109293
-0.065119
-0.102715
-0.013767
-0.074875
-0.019357
-0.105571
-0.033570
-0.117521
-0.032188
-0.102069
-0.113615
-0.129856
-0.064027
-0.062561
-0.102159
-0.147161
-0.069797
-0.108800
-0.002808
-0.000911
-0.153085
-0.100397
-0.113599
0.016328
-0.059900
-0.042147
-0.022748
-0.063174
-0.117093
-0.086001
-0.005665
-0.132515
-0.026413
-0.074373
-0.017029
0.003973
-0.032503
-0.091888
-0.045332
-0.015725
-0.054385
0.069172
-0.054709
-0.056556
0.098455
-0.000267
0.047552
0.025015
0.073130
0.052352
0.151370
0.153153
0.099313
0.173960
0.094892
0.099207
0.169178
0.099261
0.064805
0.097167
-0.022238
0.148578
0.182976
0.125047
0.068473
0.092107
0.045912
0.031690
0.075874
-0.034794
-0.065296
-0.009800
-0.074152
-0.034264
0.026927
-0.028106
-0.038123
-0.069030
-0.038327
-0.127769
-0.057945
-0.101868
-0.009597
-0.045312
-0.179186
-0.103265
-0.131260
-0.080174
0.131961
0.276988
0.671825
0.986749
1.225178
1.250929
1.347014
1.079114
0.679261
0.288573
0.015752
-0.315251
-0.279515
-0.237374
-0.220951
-0.088141
-0.018185
-0.069485
-0.000180
-0.018073
-0.054237
-0.021002
0.009711
-0.005450
0.041905
0.002266
0.067723
0.057946
0.150673
0.082646
0.129698
0.070297
0.159896
0.188117
0.191100
0.219939
0.232409
0.204654
0.229691
0.279003
0.300496
0.370522
0.330392
0.407932
0.367116
0.399008
0.470597
0.471906
0.474529
0.399869
0.457045
0.534194
0.438129
0.453804
0.417962
0.388930
0.515538
0.489221
0.446851
0.461162
0.432332
0.398544
0.420085
0.403185
0.402162
0.266391
0.347514
0.242412
0.330996
0.323846
0.265387
0.215016
0.233409
0.192518
0.096223
0.208812
0.134427
0.079916
0.172259
0.096664
0.028061
0.015229
0.075679
0.097297
-0.004774
-0.030884
-0.009520
0.067667
0.035824
0.023315
-0.032724
-0.053435
-0.067252
-0.078041
-0.053033
-0.057505
-0.005603
0.033985
-0.037576
0.046110
-0.038401
0.005002
0.013027
-0.025102
-0.078872
-0.095045
0.045063
0.019961
-0.001278
-0.051070
-0.031928
-0.058899
0.004186
-0.077656
0.029189
-0.012740
-0.071645
-0.124297
-0.017314
0.032111
-0.047439
-0.023720
-0.016386
0.005752
0.014511
-0.049053
-0.007279
-0.015358
-0.063727
-0.095510
-0.055069
0.007111
-0.032917
0.063809
-0.027938
0.067961
-0.044599
-0.077504
-0.036821
0.039756
0.111586
0.034196
0.036702
0.071142
-0.030055
0.085242
0.114698
0.125170
0.209400
0.143555
0.135300
0.180737
0.157545
0.186224
0.208757
0.168763
0.187192
0.215448
0.191384
0.151928
0.206622
0.215882
0.235028
0.108428
0.147164
0.190794
0.132528
0.166450
0.099319
0.097582
0.091148
0.100426
0.080296
0.092533
0.062885
0.036812
0.051470
0.012204
0.106935
-0.011897
0.016923
0.049042
0.000669
0.030647
-0.014191
0.054951
0.006631
-0.045884
-0.015136
0.080408
0.224170
0.472538
0.702073
1.099994
1.350012
1.424554
1.419129
1.100984
0.593549
0.441038
0.039589
-0.073258
-0.120706
-0.177099
-0.073536
-0.030089
0.017305
0.003526
-0.014709
0.014589
0.047577
0.031054
-0.003929
0.056932
0.096358
0.216119
0.103145
0.131608
0.135791
0.131996
0.194659
0.244186
0.250933
0.245394
0.259764
0.330336
0.343105
0.350003
0.318920
0.408776
0.431436
0.412990
0.449888
0.454423
0.488545
0.454975
0.547336
0.532204
0.528894
0.505862
0.603513
0.625341
0.566683
0.572036
0.564968
0.550607
0.622731
0.494529
0.553305
0.548644
0.602311
0.500015
0.526015
0.449958
0.425224
0.438184
0.396095
0.386420
0.342336
0.385008
0.304211
0.294715
0.210920
0.225453
0.216198
0.291673
0.288835
0.172073
0.201720
0.154379
0.120361
0.134315
0.054346
0.117857
0.102212
0.170297
0.195325
0.041073
0.079501
0.146445
0.017931
0.041237
0.065057
0.096410
0.038051
0.075884
0.057564
-0.030098
0.071008
0.097782
0.067906
0.008685
0.127813
0.100499
0.044198
0.097085
-0.007030
0.121101
0.014710
-0.031200
0.013371
0.076138
-0.064670
0.017565
-0.004903
0.063412
0.071931
0.002216
0.065187
0.021252
0.081950
0.110556
-0.015587
0.099425
0.114221
0.023483
0.051221
0.025281
0.023231
-0.061432
0.049443
0.002346
0.063518
0.011603
0.162113
0.075961
0.008594
0.027683
0.055172
0.070464
0.083027
0.118625
0.168973
0.055701
0.106021
0.136519
0.149358
0.248349
0.184360
0.157222
0.107588
0.229428
0.220393
0.291613
0.239817
0.207849
0.253361
0.227331
0.171648
0.242346
0.200262
0.155651
0.076647
0.227714
0.191370
0.151767
0.187797
0.170091
0.081595
0.138437
0.198909
0.091353
0.050737
0.056519
0.106854
0.109423
0.073389
0.104207
0.135129
0.016628
0.002614
0.042282
0.068820
0.077010
0.025377
0.066986
-0.044421
0.019559
-0.035251
0.067143
0.257344
0.484901
0.823202
1.179511
1.371387
1.436080
1.321428
1.109363
0.684269
0.262287
-0.024525
-0.230555
-0.213994
-0.086931
-0.042184
0.026415
-0.083215
-0.052534
0.041758
0.075163
0.116291
0.094867
0.081261
0.113282
0.126636
0.127176
0.171364
0.121601
0.065475
0.150787
0.203812
0.165964
0.223343
0.258326
0.220397
0.170066
0.361595
0.297521
0.380711
0.480099
0.343722
0.450574
0.421898
0.500733
0.472016
0.537424
0.594994
0.494848
0.539254
0.538911
0.560814
0.555586
0.551260
0.510701
0.558557
0.483680
0.544984
0.527677
0.521044
0.454603
0.454241
0.441073
0.526479
0.486792
0.454309
0.324015
0.436409
0.316060
0.421123
0.185721
0.230684
0.281834
0.303338
0.188919
0.190322
0.135558
0.140613
0.126047
0.154132
0.169636
0.039456
0.063016
0.107568
0.009524
0.033587
0.063441
0.045794
-0.028046
0.033671
-0.067345
-0.001491
0.036964
0.002713
-0.035378
0.030998
-0.029371
-0.065305
0.023289
0.028581
0.043111
-0.076711
-0.001585
-0.008206
-0.038145
-0.043610
-0.049132
0.053717
0.024996
-0.019748
-0.013786
-0.097958
-0.006251
-0.044966
-0.026512
0.036386
0.046844
-0.068024
-0.029251
-0.049184
-0.075821
-0.026937
-0.047462
-0.068456
-0.048059
-0.050132
0.039835
-0.004207
-0.059825
-0.009527
0.013800
-0.054378
0.026093
-0.089916
0.007789
-0.048546
0.016670
0.095464
-0.028847
0.010766
-0.005556
-0.048019
-0.008775
0.012993
0.008716
-0.031089
0.047079
0.076360
0.075011
0.117924
0.006674
0.098151
0.098518
0.060427
0.221503
0.154046
0.172999
0.146316
0.132807
0.121572
-0.009487
0.099453
0.132747
0.079583
0.097285
0.017237
0.052656
0.005947
0.065706
0.048605
0.076341
-0.006189
0.057863
-0.062463
0.015344
0.041395
-0.050488
0.007350
-0.035261
-0.071962
-0.068508
-0.045006
-0.078957
-0.087559
-0.106351
-0.070914
-0.140656
-0.025962
-0.062146
-0.053687
-0.001479
0.179837
0.522761
0.702810
1.014211
1.350746
1.324654
1.197020
0.889388
0.603888
0.145634
-0.098003
-0.287857
-0.282301
-0.260405
-0.227260
-0.090650
-0.103858
-0.055660
-0.029819
0.015659
-0.001896
-0.085498
-0.008884
0.000382
0.023663
-0.102924
-0.005511
0.053657
0.099811
0.053285
0.056037
0.003748
0.085532
0.157421
0.138466
0.188724
0.205589
0.288411
0.201305
0.325552
0.383076
0.329962
0.424530
0.295172
0.418652
0.392222
0.375796
0.413635
0.451822
0.368476
0.506886
0.413214
0.480415
0.448633
0.380151
0.552228
0.388324
0.416324
0.384540
0.380653
0.407084
0.386742
0.376561
0.415492
0.233375
0.281367
0.306120
0.249356
0.210270
0.233116
0.170142
0.112763
0.098997
0.062348
0.056317
0.056489
0.099630
0.056215
-0.031210
0.030000
-0.002491
-0.015994
-0.053525
-0.048053
-0.018770
-0.055158
-0.034849
-0.020888
0.015562
-0.086400
-0.075647
-0.030598
-0.109142
-0.168684
-0.082447
-0.090798
-0.186921
-0.134695
-0.144351
-0.135569
-0.110381
-0.099662
-0.015504
-0.074794
-0.091551
-0.111102
-0.095051
-0.106562
-0.089213
-0.107722
-0.062539
-0.130181
-0.066000
-0.126862
-0.120499
-0.146112
-0.133474
-0.118155
-0.089993
-0.083900
-0.065785
-0.077074
-0.099352
-0.082019
-0.178811
-0.108954
-0.054251
-0.159021
-0.109246
-0.096928
-0.052452
-0.067070
-0.056044
-0.110127
-0.118637
-0.083993
-0.010284
-0.109453
0.019481
0.005013
-0.036077
-0.015507
-0.017308
-0.006607
-0.083557
-0.045790
-0.028072
0.040092
0.042711
0.073816
0.021024
0.089548
0.068018
0.177480
0.171993
0.113856
0.089120
0.066503
0.074306
0.020906
0.041752
0.051574
0.025268
0.029648
0.016921
-0.006985
-0.039974
-0.053058
0.006816
0.025354
0.023889
0.009697
-0.065824
-0.011467
-0.064139
-0.021338
-0.082359
-0.033121
-0.029567
-0.091181
-0.125276
0.029854
0.024561
-0.063738
-0.080005
-0.162171
-0.145341
-0.038901
-0.035312
0.020839
0.222062
0.564143
0.731359
1.140717
1.206910
1.354053
1.211029
0.828975
0.433792
0.071992
-0.137197
-0.306616
-0.266146
-0.219170
-0.237239
-0.143787
-0.142691
-0.044803
-0.023799
-0.062977
-0.005453
-0.028912
-0.041936
0.024598
0.031219
0.035710
0.059587
0.091438
0.017174
0.160986
0.129148
0.096993
0.170451
0.214963
0.194387
0.209710
0.200752
0.252588
0.322870
0.302471
0.269751
0.244306
0.347531
0.324648
0.449603
0.393510
0.503420
0.394487
0.430270
0.518329
0.532363
0.471425
0.470620
0.449605
0.449349
0.473204
0.437175
0.396496
0.315926
0.418004
0.472574
0.363012
0.380890
0.318330
0.344527
0.293788
0.329403
0.290519
0.222237
0.243170
0.206618
0.138898
0.175703
0.231127
0.151781
0.142786
0.058647
0.156345
0.185626
0.059826
0.006434
0.048589
0.074148
-0.051603
-0.010077
-0.037377
0.022089
-0.116300
-0.022958
0.007279
-0.000061
0.005252
-0.012620
0.073828
-0.033801
-0.051951
-0.051415
0.022754
0.057783
0.025358
-0.058260
-0.034793
-0.002783
-0.011404
-0.012603
-0.010619
-0.085215
0.039100
0.055663
-0.041153
-0.054100
-0.022644
0.000104
-0.017542
-0.020258
0.019599
-0.019362
0.041500
-0.015678
-0.110941
0.093223
0.001167
-0.016007
-0.007798
0.037562
0.062812
0.020665
-0.107935
0.008279
-0.065843
0.025191
-0.009368
-0.037258
-0.072138
-0.004150
-0.037506
0.095832
0.107948
0.049813
0.071905
0.128209
0.001831
0.143679
0.090327
0.060887
0.111251
0.183118
0.085943
0.083830
0.168950
0.175148
0.172824
0.122974
0.192193
0.215993
0.172204
0.179670
0.208023
0.297035
0.206924
0.207765
0.178930
0.185998
0.128349
0.091809
0.133756
0.179308
0.111806
0.164679
0.178563
0.081042
0.038626
0.061693
-0.054022
0.053314
0.076461
0.036345
0.024805
0.073691
0.006636
0.059360
0.094021
0.035470
-0.057944
0.032155
0.061700
0.038776
0.085758
0.056668
0.166529
0.342734
0.568844
0.891729
1.340595
1.487751
1.491800
1.242085
0.935900
0.662972
0.256044
0.006177
-0.185888
-0.259908
-0.072228
-0.048959
0.023386
0.032620
0.097666
0.065101
0.008347
0.090289
0.092485
0.227072
0.145984
0.162851
0.187414
0.118997
0.147985
0.101914
0.172558
0.239910
0.281859
0.241906
0.326625
0.388663
0.255369
0.380002
0.363943
0.324227
0.370169
0.480444
0.477247
0.521415
0.566589
0.542446
0.572421
0.548915
0.638375
0.604168
0.570361
0.654956
0.622734
0.716124
0.591203
0.583302
0.512310
0.588456
0.603793
0.578005
0.604447
0.556211
0.452755
0.482750
0.456720
0.497864
0.438108
0.440876
0.410296
0.494862
0.282708
0.270588
0.258496
0.345607
0.297802
0.229307
0.238778
0.218150
0.203049
0.174316
0.173547
0.166950
0.210868
0.205908
0.156874
0.139438
0.125875
-0.012837
0.065841
0.148178
0.108436
0.060457
0.106667
0.071915
0.078899
0.139949
0.139380
0.031181
0.087055
0.063964
0.077633
0.133516
0.102009
0.098989
0.014001
0.144228
0.023302
0.083513
0.026282
0.046795
0.098968
0.040704
0.062717
0.072767
0.124751
0.045340
-0.071522
0.106558
0.090935
0.059486
0.085906
0.089595
0.126757
0.047590
0.120503
0.101810
0.102921
0.041876
0.042211
0.015944
0.137174
0.053287
0.085379
0.034497
0.136155
0.114382
0.068578
0.091728
0.084073
0.123509
0.104756
0.064262
0.101126
0.194844
0.070042
0.280001
0.209449
0.184063
0.174769
0.156786
0.244131
