-0.059057
0.025263
0.007555
-0.003061
-0.008321
0.018737
0.005571
0.002090
0.018376
-0.012800
0.016966
-0.055190
-0.025778
0.056928
0.001705
0.080924
0.005081
0.007157
-0.020726
-0.047478
0.030943
-0.010602
-0.040394
0.062511
0.005348
0.032173
0.027738
0.083272
0.079302
0.076172
0.058667
0.142626
0.047386
0.111856
0.125187
0.128682
0.205342
0.112753
0.107329
0.101754
0.187459
0.267930
0.184014
0.233164
0.183951
0.203786
0.260765
0.206987
0.143389
0.147805
0.229225
0.191470
0.165442
0.165417
0.185298
0.167466
0.106354
0.105138
0.110145
0.135937
0.085325
0.150426
0.119755
0.103459
0.115098
0.077767
0.038314
0.119187
0.090344
0.096795
0.060397
0.067726
0.050341
0.109677
0.066925
0.002843
0.010708
0.073747
0.053024
0.062862
0.005415
-0.032436
0.015108
0.024113
-0.013758
0.096107
0.241561
0.534170
0.806236
1.036367
1.263905
1.422683
1.413289
1.096315
0.684583
0.384108
0.107780
-0.065432
-0.175465
-0.235721
-0.189322
-0.087078
-0.035263
0.001597
0.018302
0.145597
0.037771
0.048618
0.122154
0.043956
0.162027
0.096401
0.103865
0.097119
0.048593
0.142456
0.105816
0.233675
0.175014
0.142700
0.158771
0.163652
0.131596
0.174306
0.133298
0.236460
0.262541
0.305118
0.289499
0.279080
0.275262
0.308194
0.284769
0.373522
0.365872
0.481679
0.530899
0.439169
0.526954
0.512152
0.502810
0.546914
0.498158
0.556683
0.498929
0.505210
0.595385
0.554061
0.524662
0.535039
0.578069
0.580516
0.568062
0.537249
0.548765
0.574424
0.500006
0.498568
0.477336
0.334021
0.472251
0.366710
0.468540
0.426245
0.421704
0.266670
0.297788
0.334993
0.289915
0.299047
0.305550
0.246101
0.247471
0.207313
0.210479
0.202314
0.185154
0.169904
0.224522
0.097551
0.225831
-0.021516
0.144339
0.128212
0.115388
0.073787
0.053946
0.126956
0.057658
0.123544
0.080594
0.055723
0.087416
0.104284
0.088685
0.125251
0.015070
0.105938
0.112192
0.055561
-0.000805
0.080372
0.074348
0.081762
0.131387
0.116937
0.054642
0.078819
0.045105
0.089834
0.053120
0.122021
0.045779
0.122246
0.096450
0.160829
0.160436
0.100787
-0.017162
0.008867
0.080473
0.053509
0.151750
0.136368
0.060168
0.016527
0.036021
0.045207
0.168624
0.063995
0.125849
0.117745
0.027850
0.085727
0.110952
0.078581
0.019270
0.063908
0.086142
0.075577
0.129671
0.026557
0.081992
0.021184
0.114802
0.067742
0.044829
0.027297
0.090453
0.127675
0.107693
0.078986
0.066734
0.110549
0.075218
0.071665
0.108378
0.148978
0.103160
0.178270
0.218633
0.180656
0.172193
0.142864
0.174934
0.310599
0.330339
0.120708
0.209616
0.190351
0.279886
0.210736
0.254212
0.256504
0.292911
0.181667
0.187393
0.187451
0.221218
0.177086
0.172594
0.164774
0.181356
0.154170
0.234078
0.086664
0.089024
0.152783
0.199915
0.097089
0.123512
0.112513
0.153272
0.110939
0.056728
0.121669
0.136788
0.041202
0.123931
0.035017
0.116483
0.088766
0.027514
0.094203
0.064345
0.106562
0.092507
0.011895
0.075438
0.045018
-0.003494
0.056863
0.043165
0.183678
0.372326
0.633474
0.962902
1.252754
1.429520
1.443156
1.101659
0.970007
0.553309
0.167554
-0.138482
-0.244563
-0.302743
-0.132524
-0.075814
0.028874
-0.005618
0.064267
0.045761
0.082797
0.043690
0.079581
0.145477
0.085387
0.102445
0.095884
0.164015
0.049010
0.093211
0.073883
0.103587
0.092893
0.106612
0.120568
0.227948
0.196739
0.186613
0.169022
0.151730
0.187193
0.247757
0.208743
0.253730
0.282413
0.318634
0.330768
0.341447
0.379027
0.397834
0.399941
0.419341
0.390488
0.414789
0.445926
0.407703
0.498163
0.461626
0.490928
0.511637
0.556061
0.497064
0.520576
0.493233
0.529974
0.544998
0.382052
0.394719
0.433918
0.413729
0.444927
0.387768
0.364549
0.425758
0.377965
0.345854
0.286113
0.304281
0.313048
0.370448
0.243879
0.315797
0.226349
0.144583
0.163165
0.149851
0.180583
0.050139
0.174578
0.119572
0.041438
0.057073
0.069385
0.045028
0.148573
0.044080
0.080470
-0.021588
0.059628
-0.011916
0.125493
-0.030916
-0.003018
0.008585
0.078877
0.024703
-0.015214
-0.060604
-0.073923
-0.076661
0.050312
0.004611
0.037747
-0.044520
-0.135667
-0.115480
0.021029
-0.062043
-0.010229
-0.035900
-0.051153
0.032529
-0.022247
0.005585
0.025484
0.017002
0.033215
0.018131
0.030748
0.059423
-0.074128
0.034129
-0.047763
0.020205
-0.008311
-0.084011
0.045072
-0.046986
-0.030062
0.014486
-0.029991
0.011622
0.011570
0.015802
-0.034323
-0.015196
-0.018755
-0.054951
0.005238
0.031096
-0.095743
0.096862
-0.093750
-0.029716
-0.087913
-0.097094
0.049738
0.059121
0.001207
-0.006937
0.014332
-0.042571
-0.055520
-0.005434
0.076069
0.001772
0.010569
-0.014467
0.065735
-0.020319
0.055486
-0.096913
0.028839
0.090494
0.068612
0.040574
0.096648
0.163024
0.071810
0.119289
0.085445
0.024986
0.096169
0.140554
0.077906
0.092083
0.125542
0.087372
0.171129
0.109625
0.149975
0.153996
0.138682
0.198439
0.128037
0.049915
0.086738
0.094840
0.082072
0.077796
0.107632
0.053545
0.059567
0.117768
0.006948
-0.029291
-0.048530
0.077105
0.011321
-0.020880
-0.001026
-0.010267
-0.041921
-0.157953
-0.085460
-0.044659
-0.012657
-0.034858
-0.051885
-0.014284
-0.098438
-0.017975
-0.045104
-0.040852
-0.101388
-0.055389
-0.040933
0.018160
0.162110
0.464460
0.786696
1.131490
1.324303
1.232513
1.148876
0.880135
0.497910
0.141963
-0.049035
-0.278417
-0.256162
-0.285531
-0.224906
-0.107227
-0.162669
-0.016908
-0.033892
-0.007428
0.034089
-0.044864
-0.057753
-0.032079
0.017470
-0.057856
-0.004071
0.004075
-0.040135
0.111168
-0.051617
-0.048784
0.010152
0.030475
0.019497
0.107520
0.069878
0.022038
0.046822
0.092208
0.126833
0.132152
0.185186
0.238824
0.172720
0.237736
0.306350
0.298792
0.277812
0.337654
0.299626
0.404266
0.378144
0.323866
0.404459
0.365128
0.365120
0.414206
0.497012
0.345243
0.498394
0.456796
0.535624
0.431503
0.485624
0.467627
0.418998
0.439049
0.462329
0.384020
0.393589
0.379580
0.385002
0.300894
0.373629
0.351811
0.249532
0.248406
0.225232
0.193296
0.181417
0.221562
0.157868
0.124378
0.056291
0.068354
0.141884
0.114384
0.039418
0.060801
0.107494
0.028690
-0.021551
0.009748
0.084723
0.059335
0.008553
0.006767
-0.077740
0.009070
-0.001831
-0.023298
-0.062872
-0.020753
-0.007025
-0.059326
-0.060608
0.020993
0.032786
-0.088115
-0.011604
-0.029732
-0.082020
-0.062965
-0.048490
0.004215
-0.025588
-0.089456
-0.052711
-0.101536
-0.043338
-0.001366
-0.106476
-0.042658
-0.021813
-0.093741
-0.059216
-0.069934
-0.006983
-0.021459
-0.009637
-0.033063
-0.039683
-0.041416
-0.078102
0.013288
-0.008664
-0.024284
-0.064471
-0.007430
-0.011310
0.047663
-0.073106
0.046847
0.014733
0.025581
-0.051098
-0.031986
0.027928
-0.014123
-0.043950
0.018627
-0.009938
0.027719
-0.021563
0.094830
-0.004403
-0.008070
-0.029356
-0.011029
0.040663
-0.058095
-0.016639
0.000933
0.022765
0.025449
-0.077238
0.007152
0.049538
0.123767
0.048684
0.098897
0.093908
0.023317
0.055953
0.156802
0.053966
0.127690
0.167097
0.138424
0.137370
0.140073
0.166502
0.167499
0.157487
0.191064
0.195717
0.187118
0.134269
0.216841
0.180909
0.066149
0.225620
0.159375
0.161307
0.143775
0.213513
0.106848
0.135440
0.108373
0.145436
-0.006453
0.003862
0.025620
0.066417
0.041336
0.050612
0.060557
0.051034
0.031509
-0.025532
0.037261
0.024527
0.107706
0.022963
0.086489
0.012670
0.044632
0.028523
0.061254
-0.000572
0.062487
0.031081
-0.103396
-0.008013
-0.019556
0.042916
0.338911
0.470549
0.744982
1.113587
1.370041
1.500000
1.354628
1.003604
0.621730
0.302650
0.052727
-0.131762
-0.221081
-0.298619
-0.151265
-0.123059
0.014275
0.038114
0.088758
0.069587
0.070513
0.015378
0.060640
0.012616
0.087420
0.048303
0.074861
0.092832
0.099375
0.102544
0.059139
0.072247
0.120164
0.161122
0.137683
0.106694
0.191628
0.234060
0.191942
0.222697
0.197141
0.197497
0.320231
0.259520
0.270222
0.278653
0.321815
0.315663
0.443397
0.371749
0.360254
0.378599
0.456972
0.501659
0.488660
0.569162
0.548380
0.619688
0.602325
0.561317
0.482666
0.609899
0.605229
0.613028
0.514475
0.542912
0.567355
0.539983
0.514467
0.552289
0.483643
0.501422
0.389266
0.434758
0.415260
0.475337
0.390494
0.380423
0.338964
0.346845
0.303616
0.282716
0.261187
0.292478
0.252186
0.141090
0.266157
0.183632
0.179321
0.268814
0.197812
0.227515
0.158074
0.153268
0.095364
0.115306
0.036887
0.079917
0.076327
0.083959
0.059743
0.051737
0.047287
0.137758
0.096387
0.083567
-0.002743
0.102399
0.108234
0.091338
0.061575
0.126809
0.046384
0.076413
0.047026
0.024300
0.055213
0.130614
0.043068
0.132906
0.095323
0.070346
0.072615
0.052148
0.114247
0.028985
0.148843
0.153551
0.076667
0.052802
0.082958
0.093518
0.099217
0.057220
0.066026
0.050337
0.144734
0.063763
0.107190
0.087950
0.067885
0.127688
0.155711
0.088722
0.073134
0.167712
0.052623
0.146324
0.125641
0.081366
0.137718
0.142180
0.168946
0.124404
0.169564
-0.007138
0.095552
0.143020
0.093718
0.109015
0.055944
0.108465
0.066885
0.079726
0.098299
0.136463
0.147720
0.124554
0.102094
0.153434
0.173311
0.215214
0.168837
0.158272
0.185339
0.083032
0.100464
0.183097
0.170516
0.213668
0.167540
0.255870
0.279349
0.271500
0.290273
0.275374
0.289472
0.235370
0.233675
0.267274
0.244438
0.273174
0.257988
0.213696
0.215236
0.209657
0.188635
0.231101
0.215867
0.258559
0.071595
0.176113
0.212264
0.207449
0.158419
0.113622
0.063572
0.125810
0.036793
0.167037
0.111311
0.121652
0.091889
0.074022
0.094607
0.095042
0.130484
-0.013937
0.094400
0.045451
0.048287
0.047184
0.048137
0.056982
0.071460
0.027354
0.050139
0.141611
0.518039
0.853730
1.103834
1.285668
1.427783
1.402279
1.199347
0.926626
0.456282
0.141478
-0.017090
-0.212006
-0.190868
-0.184956
-0.089518
-0.022407
0.011449
0.058283
0.035989
0.109876
0.010159
0.103248
0.093254
0.137046
0.117963
0.082014
0.148499
0.109184
0.128208
0.109014
0.114313
0.129250
0.197955
0.124011
0.169685
0.169037
0.261708
0.232975
0.259086
0.247816
0.278233
0.249697
0.226016
0.334696
0.278501
0.347597
0.403735
0.369793
0.349797
0.437378
0.413367
0.439314
0.457875
0.480748
0.471412
0.508000
0.512307
0.563924
0.578961
0.516427
0.501316
0.584575
0.616972
0.605499
0.514279
0.561404
0.474506
0.520753
0.499664
0.479033
0.422775
0.372500
0.242441
0.379342
0.371294
0.323206
0.359862
0.250164
0.363882
0.306366
0.287656
0.244488
0.234679
0.149740
0.172102
0.162411
0.147522
0.147448
0.061462
0.020089
0.055300
0.044813
0.128289
0.009500
0.078596
0.092647
0.101465
0.075907
0.079151
0.093105
0.029892
0.042241
0.044664
0.048030
0.109109
0.039835
0.041139
0.014716
0.002171
-0.008927
0.076507
0.084902
0.069313
0.042684
0.007543
0.078008
0.086230
0.066728
0.023275
-0.015370
0.004886
0.089091
0.016317
0.030040
-0.028134
-0.109049
0.034962
0.048290
-0.018681
-0.015248
0.053392
0.000686
-0.004157
-0.002130
-0.002731
0.021750
-0.012334
0.011810
0.031508
0.096952
-0.040492
-0.085532
0.040076
-0.059349
0.041237
0.016606
-0.021129
-0.035028
0.021502
0.042038
0.093735
-0.031281
-0.014626
0.048432
-0.050464
0.015036
-0.013052
-0.030583
-0.021925
0.044528
-0.016987
-0.026072
-0.003209
0.030737
-0.054541
-0.047215
0.043497
-0.072268
0.088104
0.020802
0.026874
0.065671
0.125717
-0.037349
0.036808
0.104075
0.050645
0.103274
0.033693
0.201126
0.143684
0.175862
0.062165
0.071038
0.112040
0.021162
0.252756
0.129609
0.116335
0.149910
0.121190
0.159391
0.096556
0.053125
0.030869
0.082978
0.081620
0.008504
0.062344
-0.012348
-0.001100
0.024430
-0.037226
0.031529
0.033725
-0.034617
-0.020327
0.000114
-0.012291
-0.072944
0.015577
0.001355
-0.010990
-0.039936
-0.048937
0.010616
0.013125
-0.001303
-0.073074
-0.069742
-0.043573
-0.060815
-0.044753
-0.105051
-0.114478
-0.062405
0.102259
0.203773
0.516440
0.861588
1.186892
1.259243
1.368219
1.067691
0.730929
0.370029
0.084350
-0.168314
-0.280459
-0.333920
-0.255621
-0.261322
-0.221251
-0.113661
-0.159744
-0.032450
-0.090904
-0.145253
-0.033860
-0.069329
-0.080620
-0.022153
0.028989
-0.085102
0.025015
0.000781
-0.001751
0.010955
-0.010432
0.023004
-0.025589
0.019401
0.036789
0.024956
0.095848
0.109832
0.100405
0.130703
0.205654
0.156440
0.156892
0.176836
0.189475
0.255334
0.233659
0.309393
0.284509
0.389648
0.399021
0.386306
0.394446
0.390225
0.328530
0.445237
0.386369
0.393137
0.343194
0.443286
0.398843
0.479717
0.334915
0.495747
0.419455
0.403272
0.298096
0.400196
0.394294
0.324932
0.346854
0.265217
0.228479
0.353357
0.242278
0.239783
0.171330
0.206166
0.094737
0.129267
0.197966
0.043353
0.149142
0.081016
0.008586
0.075377
0.060468
-0.077328
-0.002450
0.018587
-0.049917
-0.041008
0.003331
0.026985
0.041660
-0.095740
0.007891
-0.056631
-0.026605
-0.060006
-0.068057
-0.106085
-0.004681
-0.065295
-0.034186
-0.083556
-0.108193
-0.022480
-0.117209
-0.099699
-0.079875
-0.089697
-0.027951
-0.074232
-0.116215
-0.056430
-0.125558
-0.075958
-0.070048
-0.163834
-0.063489
-0.070629
-0.064959
0.031650
-0.038099
-0.085371
-0.098113
0.004352
-0.160103
-0.046761
-0.087723
-0.041151
-0.094657
-0.120577
-0.089498
-0.002193
-0.092714
-0.136298
-0.027661
-0.037025
-0.012278
-0.096397
-0.050070
-0.146077
-0.039114
-0.091090
-0.056429
-0.063605
-0.076860
-0.097389
-0.059630
0.005572
-0.100663
-0.046908
-0.081893
-0.025360
-0.016412
-0.105399
-0.050565
-0.075726
-0.063167
0.038603
-0.079982
-0.028313
-0.035332
-0.074202
-0.022609
-0.113341
-0.116494
-0.018501
-0.048352
0.062372
-0.024596
0.058552
0.026177
0.027524
0.056409
0.021294
0.076354
0.075186
0.038113
0.066037
0.052681
0.164212
0.128439
0.167617
0.096982
0.211241
0.127538
0.074624
0.036017
0.098845
0.090323
0.100788
-0.003048
0.086770
0.083941
0.054686
0.012329
0.032909
-0.039854
-0.027350
0.044235
-0.078713
-0.086463
-0.068306
-0.026662
-0.069727
-0.028218
-0.012696
0.016784
0.002609
-0.040393
-0.061143
-0.003314
-0.098003
-0.058217
0.015957
-0.069633
-0.090471
-0.058306
-0.084189
-0.084478
-0.078170
-0.049179
0.001862
0.199953
0.410212
0.808237
1.138842
1.331147
1.294272
1.169322
0.889476
0.430566
0.187194
-0.135152
-0.274778
-0.340715
-0.278330
-0.289102
-0.201109
-0.122284
-0.119146
-0.000590
-0.020399
-0.043034
-0.098314
0.047657
-0.016367
-0.046671
-0.031145
-0.057738
0.028150
-0.023534
0.019164
0.075796
-0.012829
0.052874
0.063920
0.076167
0.075150
0.042807
0.182720
0.053656
0.107663
0.215421
0.116482
0.177077
0.241898
0.264559
0.128924
0.250817
0.261336
0.265064
0.282769
0.383259
0.354997
0.400167
0.356575
0.357298
0.441202
0.459056
0.382257
0.424298
0.449096
0.507813
0.435879
0.472248
0.389326
0.491367
0.441854
0.438090
0.390774
0.419656
0.429108
0.402101
0.412148
0.296910
0.333975
0.323396
0.286064
0.400167
0.199165
0.322203
0.197192
0.182216
0.153846
0.199769
0.087565
0.124517
0.112699
0.060247
0.118003
0.128349
0.075049
0.053338
0.053661
0.046391
0.065445
0.067789
0.013693
0.063028
0.082451
0.026136
-0.023638
0.056381
0.064751
0.054980
0.035308
0.033958
-0.041219
-0.055879
0.000128
-0.039098
-0.040226
-0.056919
-0.003902
0.098687
-0.001180
-0.021860
-0.046822
-0.011048
-0.008753
-0.001435
0.032379
0.005073
0.060296
-0.012426
-0.050886
0.083542
-0.010958
-0.004686
-0.030208
-0.005272
-0.022034
0.010129
0.033998
-0.009340
-0.000752
-0.039894
0.005937
-0.042168
0.000128
-0.054378
0.055490
-0.024979
0.105339
0.083649
0.007308
0.071937
0.015384
0.059190
-0.008435
0.027656
0.067712
0.059960
0.071687
0.049514
0.020573
-0.010506
0.021795
0.020389
0.041190
-0.002091
0.072197
0.056891
0.028956
0.078623
0.045861
0.058390
0.057563
0.168988
0.164401
0.031086
0.097032
0.032868
0.133927
0.094586
0.117284
0.087113
0.148034
0.172561
0.125658
0.145827
0.165721
0.204287
0.156404
0.138182
0.129177
0.220873
0.228816
0.181554
0.129874
0.185195
0.231819
0.191629
0.153983
0.201090
0.153009
0.145680
0.188122
0.122938
0.220581
0.177484
0.167290
0.057091
0.097207
0.072536
0.114712
0.075100
0.017424
0.159013
0.102519
0.092057
0.066352
-0.014281
0.090353
0.028335
0.014486
-0.022484
0.029008
0.051267
0.024602
0.047993
0.030111
0.053059
-0.032604
0.025694
-0.075351
-0.014278
0.054486
0.091530
0.206091
0.433465
0.811270
1.138602
1.330660
1.451941
1.277286
1.130604
0.785417
0.372222
0.140868
-0.147555
-0.167949
-0.232266
-0.068732
-0.143994
0.009038
-0.020112
0.026163
0.069144
0.057828
0.108067
0.123989
0.045917
0.038201
0.086733
0.088914
0.077696
0.092151
0.085328
0.125159
0.141197
0.165296
0.102053
0.095268
0.125705
0.168446
0.128155
0.179379
0.226367
0.265623
0.279553
0.211101
0.272036
0.276274
0.281013
0.278694
0.286757
0.258696
0.380806
0.346852
0.427838
0.411400
0.469377
0.545093
0.576129
0.515210
0.576466
0.549416
0.466093
0.572035
0.519199
0.475913
0.551698
0.454685
0.503798
0.473886
0.548368
0.461599
0.462028
0.438093
0.467890
0.443641
0.372744
0.398759
0.449910
0.323841
0.384626
0.282510
0.265068
0.307718
0.285645
0.243392
0.143592
0.216290
0.161452
0.109908
0.130509
0.089771
0.129322
0.071581
0.119604
0.076360
0.074837
0.085895
0.099532
0.102600
0.003382
0.091618
0.031598
0.007190
0.025442
0.059609
0.095628
0.028691
0.011452
0.048740
0.070258
-0.018178
0.000695
0.085430
-0.001157
-0.014327
0.007967
0.012867
0.018525
0.088740
0.058127
0.033177
0.028950
-0.068039
-0.027822
0.017075
-0.024728
-0.037539
-0.004636
0.011285
0.051749
0.047913
0.009779
0.042143
-0.030759
-0.029251
0.049426
0.039558
0.022168
-0.085408
0.017626
0.104730
0.013113
-0.022242
0.070919
-0.019595
0.045768
0.027630
0.018334
0.069271
-0.005218
0.007266
-0.067962
0.019655
-0.080604
0.042732
0.016598
0.040791
-0.052443
0.002503
-0.034554
0.019442
0.093476
0.053627
0.034351
0.014134
-0.042680
-0.036199
0.084952
0.034473
-0.057838
-0.006143
0.002377
0.024170
-0.006295
0.025102
0.135667
0.078595
0.107028
0.179998
0.076009
0.077122
0.132896
0.122396
0.113776
0.160797
0.177969
0.119768
0.219752
0.171998
0.091089
0.123260
0.180768
0.225806
0.131345
0.148163
0.079638
0.088067
0.094981
0.158361
0.035718
0.089443
0.104005
0.114849
0.022968
0.041722
0.069888
-0.022488
-0.057699
0.032162
-0.031586
-0.071399
-0.088858
-0.028485
0.109071
-0.042609
0.074360
-0.007775
-0.033018
-0.023123
-0.049662
-0.054497
-0.077647
0.041531
0.008958
0.032615
-0.047550
-0.077556
-0.059036
-0.046220
0.041798
0.363166
0.538684
0.945071
1.257612
1.384452
1.164347
1.171434
0.750754
0.383194
0.061221
-0.247284
-0.288999
-0.309950
-0.234856
-0.288902
-0.172091
-0.075683
-0.103052
-0.021646
0.001586
-0.081721
-0.019983
-0.025863
-0.087772
-0.080948
-0.055593
-0.024750
-0.049790
-0.033370
-0.052637
-0.018520
0.043906
0.021382
0.094595
0.136779
0.098399
0.067943
0.117858
0.104280
0.148244
0.096343
0.157413
0.213899
0.213391
0.193852
0.228467
0.245379
0.305330
0.268098
0.355297
0.328820
0.359974
0.355375
0.366019
0.437376
0.362119
0.426404
0.414593
0.454723
0.406363
0.474403
0.368299
0.392444
0.416761
0.438034
0.498952
0.403007
0.413920
0.288124
0.429230
0.318844
0.342283
0.257465
0.263478
0.228201
0.297003
0.215148
0.188418
0.207924
0.144297
0.207424
0.088838
0.123593
0.092916
0.032753
0.052372
0.002821
0.062141
0.040541
0.081259
-0.037526
-0.017269
0.025061
0.018696
-0.112365
0.003777
-0.046980
0.044790
-0.037326
-0.055069
-0.134532
-0.030574
-0.093550
-0.077548
-0.111924
-0.044718
-0.013140
-0.070391
-0.136831
-0.176222
-0.187291
-0.115265
-0.117388
-0.064707
-0.048210
-0.133741
-0.023279
-0.139202
-0.123467
-0.036684
-0.061454
-0.028168
-0.101307
-0.171073
-0.090878
-0.143461
-0.120378
-0.152454
-0.148712
-0.100923
0.004394
-0.115889
-0.111888
-0.102522
-0.042574
-0.005678
-0.009614
-0.069084
-0.083687
-0.017093
-0.105529
-0.107554
-0.122853
-0.127341
-0.034265
-0.172120
-0.026244
-0.136452
-0.068469
-0.044789
-0.099124
-0.103108
-0.095360
-0.072371
-0.099091
-0.093192
-0.084997
-0.074509
-0.106160
-0.110219
-0.165228
-0.058517
-0.083721
-0.133790
-0.099732
-0.070892
-0.046656
-0.057954
-0.055679
-0.021935
-0.052871
-0.060443
-0.076547
-0.001877
0.021629
0.025361
-0.051910
0.016635
0.070019
-0.023410
0.029224
0.032631
0.121871
0.042205
0.098527
0.046434
0.056860
0.086955
0.119308
0.058913
0.045348
0.016758
0.048702
0.022557
0.026590
0.089099
0.036296
-0.031200
-0.002128
-0.087799
-0.076241
-0.116657
-0.063261
-0.025539
-0.076384
-0.102205
-0.085027
-0.058597
-0.051981
-0.065619
-0.126616
-0.087395
-0.126797
-0.176362
-0.150840
-0.086806
-0.057035
-0.071394
-0.104323
-0.032380
-0.091872
-0.081828
-0.147516
-0.174584
-0.139670
-0.119213
0.005039
0.222410
0.513446
0.776424
1.112261
1.246063
1.250444
1.066884
0.796180
0.442404
0.164213
-0.171395
-0.351407
-0.316657
-0.348300
-0.287728
-0.182612
-0.145944
-0.049406
-0.053684
-0.080092
-0.102074
-0.083904
-0.050242
-0.012902
-0.103021
-0.079708
-0.123723
-0.089857
-0.081971
-0.015958
0.096981
-0.017901
0.019281
0.096336
0.023070
0.051643
0.041992
0.064642
0.096343
0.123665
0.141025
0.094247
0.149064
0.169539
0.175231
0.248222
0.270283
0.241218
0.290934
0.234880
0.323087
0.370960
0.320589
0.363114
0.500493
0.426706
0.405517
0.385198
0.429150
0.396484
0.423453
0.435630
0.390438
0.398424
0.457403
0.458803
0.325305
0.402254
0.442287
0.424760
0.304525
0.342988
0.360560
0.330331
0.271492
0.314872
0.228899
0.173553
0.101509
0.220990
0.136422
0.224792
0.150119
0.141849
0.078389
0.049166
0.114064
0.132968
0.033034
0.092707
-0.043840
0.000803
0.066607
0.034569
0.028585
-0.038538
-0.008430
-0.054020
0.004254
0.033038
-0.012168
-0.097649
-0.066978
0.111674
-0.070892
0.030321
-0.057759
0.013904
-0.048156
0.041697
-0.016223
0.000195
-0.053824
-0.031551
-0.020223
-0.034657
-0.055761
-0.012132
-0.030839
-0.083888
-0.051728
-0.064260
0.041999
-0.099187
-0.056761
-0.000509
0.013073
-0.051548
-0.023841
-0.040223
-0.040861
0.089825
0.015973
0.043218
-0.004384
0.026082
0.067220
-0.062450
-0.012023
-0.003711
0.006464
-0.027568
-0.004474
-0.058285
-0.001716
-0.003040
-0.043549
0.035647
0.036124
-0.031918
0.008443
0.022425
-0.072139
0.059855
-0.040636
-0.016804
-0.029668
-0.054878
-0.003131
0.042649
0.019133
-0.049608
0.068467
-0.045565
-0.003750
0.065421
0.019417
0.094011
0.077610
0.063740
0.097911
0.112695
0.071434
0.003867
0.121834
0.131281
0.106489
0.163126
0.197156
0.194187
0.165555
0.161181
0.128395
0.111688
0.222820
0.182600
0.188599
0.120939
0.204527
0.197993
0.156434
0.117838
0.117659
0.135767
0.105954
0.148300
0.127654
0.029690
0.090755
0.046481
0.088170
0.154535
0.001133
0.123126
0.126044
0.013996
0.031165
0.059404
-0.034617
0.052459
0.001270
0.100154
0.038446
0.105931
0.086126
-0.000809
0.104637
0.068435
0.069408
-0.007904
0.042096
-0.000979
-0.001778
0.030209
0.050911
0.038676
0.128145
0.294808
0.449844
0.890740
1.084284
1.381923
1.350730
1.287795
1.012446
0.624193
0.302469
-0.000595
-0.172546
-0.212331
-0.276984
-0.130945
-0.127928
-0.044591
-0.029656
0.057584
0.071526
0.018620
0.042376
0.068170
0.007165
0.048391
0.019918
0.062689
0.045094
0.024145
0.121160
0.082750
0.091700
0.096708
0.049649
0.104265
0.164457
0.250472
0.171528
0.168477
0.228712
0.162399
0.231214
0.279134
0.298912
0.348301
0.264730
0.402487
0.369651
0.401101
0.349881
0.376500
0.430754
0.488323
0.512929
0.567008
0.513871
0.460924
0.517762
0.558236
0.529092
0.588086
0.595584
0.535365
0.504558
0.567983
0.599075
0.520093
0.491276
0.507857
0.528990
0.537425
0.521674
0.505424
0.485926
0.432606
0.441582
0.301498
0.397655
0.339216
0.375658
0.313761
0.282867
0.275291
0.176583
0.241349
0.230305
0.165858
0.137494
0.160812
0.161449
0.141808
0.145434
0.055329
0.099881
0.131976
0.123169
0.123249
0.051085
0.105894
0.111497
0.064678
0.148945
0.099609
0.032011
0.109137
0.173428
0.041239
0.076256
0.078282
0.085457
0.147743
0.150345
0.039278
0.106832
0.063875
0.071360
-0.005961
0.125705
0.050623
0.050405
0.079230
0.056559
0.131479
0.037242
0.082484
0.032254
0.075792
0.110636
0.056518
0.070451
0.104700
-0.017573
0.086153
0.062295
0.107729
0.086629
0.070840
0.090055
0.077118
0.078194
0.020762
