-0.056676
0.003307
-0.010454
-0.013855
-0.043777
-0.041168
0.021867
-0.022971
0.080653
0.001992
0.026511
0.032566
0.040130
-0.025260
0.031871
0.085493
0.133362
-0.005848
0.017965
0.079059
0.022424
-0.028562
0.147109
0.010170
0.023113
0.127738
0.070128
0.136042
0.119084
0.194375
0.164248
0.121429
0.206829
0.235225
0.215809
0.247670
0.221798
0.150969
0.161041
0.190156
0.216791
0.123213
0.100344
0.172919
0.184828
0.139496
0.112082
0.202397
0.252669
0.158797
0.173646
0.115877
0.112911
0.030355
0.079096
0.010612
-0.010832
0.059281
0.019411
0.022208
-0.008917
0.048913
0.084237
-0.011338
0.105049
-0.064326
-0.061795
0.054342
0.065310
-0.002225
0.018597
0.176290
0.184971
0.460635
0.724467
1.022626
1.380835
1.433282
1.326357
1.045821
0.801307
0.334801
0.031590
-0.146483
-0.103935
0.008246
-0.078720
0.014222
0.087629
0.082639
0.057736
0.000819
0.097860
0.094786
0.050104
0.100703
0.104020
0.252757
0.111511
0.173293
0.192196
0.206532
0.260632
0.224025
0.282823
0.314157
0.272455
0.255848
0.415898
0.408676
0.402766
0.449422
0.459812
0.515730
0.407852
0.555429
0.552402
0.535221
0.547785
0.585339
0.551365
0.627440
0.630000
0.574325
0.669578
0.663517
0.641985
0.529591
0.667762
0.578692
0.603718
0.543872
0.563033
0.476636
0.492391
0.547141
0.452041
0.571870
0.494791
0.388989
0.395772
0.429124
0.352231
0.393014
0.267750
0.226505
0.306509
0.295448
0.295019
0.215769
0.186729
0.176047
0.031432
0.081853
0.134430
0.202086
0.162858
0.205517
0.026023
0.103756
0.102491
0.119365
0.092524
0.132355
0.079401
0.084781
0.184304
0.098229
0.020556
0.050874
0.162144
0.030709
0.058081
0.120211
0.022126
0.074948
0.093701
0.086556
0.117434
0.087139
0.056331
0.087897
0.113191
0.053410
0.040185
0.079379
0.026131
0.036222
0.101695
0.002070
0.143619
0.035783
0.116220
0.007307
0.149829
0.011149
0.074145
0.034630
0.037260
0.013503
0.124534
0.043560
0.202407
0.081855
0.028898
0.034775
0.159087
0.088136
0.027960
0.155592
0.011340
0.081804
0.066991
0.088772
0.173698
0.085923
0.156381
0.145183
0.220199
0.168559
0.165421
0.253091
0.219279
0.255422
0.271353
0.138139
0.360155
0.272914
0.219495
0.245758
0.316137
0.306957
0.288345
0.194946
0.188638
0.268744
0.222452
0.155934
0.197316
0.233594
0.197602
0.246197
0.108852
0.133828
0.171524
0.143335
0.180601
0.177532
0.049725
0.182255
0.069428
0.072448
0.096916
0.140697
0.163764
0.113082
0.192103
0.093003
0.105346
0.158333
0.000974
0.073784
0.086461
0.151155
0.188650
0.465874
0.798209
1.053398
1.403728
1.451074
1.379107
1.162626
0.886350
0.521670
0.158203
-0.069258
-0.121784
-0.155841
-0.136012
0.067916
0.032526
0.052671
0.125621
0.192276
0.073973
0.174438
0.078060
0.145672
0.166154
0.156618
0.123928
0.235133
0.244652
0.169546
0.216932
0.231842
0.289732
0.285535
0.295045
0.306194
0.376132
0.268659
0.443020
0.414560
0.528251
0.471995
0.386562
0.437341
0.535327
0.556970
0.523594
0.495091
0.579307
0.615871
0.551942
0.642803
0.612184
0.550244
0.625198
0.587056
0.574075
0.603797
0.540639
0.553394
0.486737
0.442624
0.450301
0.473067
0.471904
0.519792
0.397484
0.390123
0.376154
0.355606
0.344604
0.342303
0.331472
0.176909
0.314930
0.315524
0.294739
0.199629
0.165467
0.216201
0.141572
0.130957
0.152683
0.170655
0.137104
0.162771
0.204132
0.011546
0.050852
0.057482
0.040759
-0.020132
0.062109
-0.035256
-0.019810
0.078251
-0.023673
0.070155
0.077810
0.061781
-0.059067
0.085269
0.155415
0.143893
0.080723
0.092660
0.095112
0.017342
0.008146
0.075652
-0.005533
0.011355
0.035155
0.034250
0.047779
0.126328
0.054803
-0.003923
0.088129
-0.003517
0.102442
0.044803
0.032373
-0.035386
0.030154
0.056914
-0.035290
-0.020048
-0.003151
0.102446
0.002114
0.059742
0.017876
0.093364
0.004671
0.080427
0.054326
-0.016271
0.002424
-0.036670
0.063984
0.047464
0.037351
0.143259
0.029377
0.070223
0.130405
0.137446
0.114892
0.107115
0.129019
0.116055
0.075315
0.156280
0.210206
0.234806
0.242025
0.189468
0.155291
0.165320
0.255602
0.203976
0.214005
0.108780
0.161964
0.108190
0.090302
0.090753
0.182125
0.156834
0.067457
0.054867
0.054115
0.078710
0.005131
0.053501
0.020789
-0.001194
0.033450
0.027612
-0.022702
0.067530
-0.034232
0.077893
-0.078180
-0.026303
-0.060189
-0.043524
0.015904
-0.020976
-0.054246
0.024607
0.130118
0.258260
0.521813
0.811281
1.212444
1.355158
1.477045
1.320025
0.882034
0.515642
0.191690
0.055071
-0.297434
-0.298047
-0.199970
-0.188944
-0.060771
-0.000071
0.036579
0.025654
0.019771
0.031115
0.050823
0.002653
-0.017896
0.093486
0.019909
0.165767
0.124473
0.036604
0.049496
0.039172
0.192807
0.162746
0.188755
0.145103
0.370918
0.190832
0.231523
0.271354
0.345472
0.314101
0.359023
0.411382
0.385573
0.393584
0.449024
0.508127
0.473996
0.532175
0.533664
0.540951
0.460298
0.574181
0.403177
0.411098
0.430419
0.491201
0.446300
0.516361
0.498703
0.449744
0.370201
0.415556
0.391132
0.422634
0.388498
0.380202
0.193124
0.219923
0.257380
0.299875
0.232671
0.194031
0.131827
0.170821
0.167550
0.144147
0.107013
0.036695
0.082721
0.002830
0.051526
0.042408
-0.023298
-0.020946
0.061420
0.053526
-0.018309
0.031561
-0.045188
0.002429
0.018554
-0.046141
-0.042031
-0.040600
-0.037381
-0.010729
-0.112802
-0.031044
-0.035295
0.031232
-0.045146
0.052402
0.009764
-0.007728
-0.105211
-0.020387
-0.059778
0.009682
-0.093838
-0.030249
-0.028582
0.002735
-0.007748
-0.023817
-0.000201
0.018984
-0.050616
-0.066198
-0.029499
-0.065388
-0.040266
-0.070184
-0.060815
-0.050510
-0.017038
0.036381
-0.016825
-0.067797
-0.121825
-0.066933
-0.034962
0.008377
-0.083817
-0.087783
0.040072
-0.125221
0.000267
0.014924
-0.027683
0.029780
-0.033997
0.002933
0.065121
0.057380
0.065858
0.006534
0.072828
0.118958
0.018048
0.115772
0.160371
0.072218
0.133392
0.085327
0.139523
0.203410
0.120703
0.086469
0.151929
0.124779
0.163213
0.147160
0.144296
0.145142
0.109461
0.230387
0.032118
0.147578
0.098012
0.014570
0.032119
0.027284
-0.051532
0.015994
0.027854
0.012899
-0.001362
-0.005361
-0.013035
-0.024097
0.000575
-0.086056
-0.064326
-0.099451
-0.007469
0.022446
-0.012898
-0.043198
-0.061571
-0.080100
0.028597
0.178905
0.424838
0.734933
1.008387
1.238541
1.369917
1.232540
0.954735
0.643526
0.253794
-0.069093
-0.142575
-0.231386
-0.201397
-0.077289
-0.089519
0.020392
-0.069462
0.022383
0.021174
0.037717
0.107659
0.031649
0.081550
0.069941
0.132737
0.088459
0.134150
0.074986
0.055007
0.189268
0.190953
0.186249
0.187874
0.158470
0.160434
0.270221
0.268739
0.339721
0.304579
0.287290
0.417996
0.406543
0.441152
0.408582
0.451506
0.440727
0.457890
0.529455
0.535895
0.549982
0.533440
0.526594
0.577451
0.545708
0.504040
0.491375
0.515295
0.488234
0.485751
0.469778
0.453193
0.408919
0.384164
0.373409
0.343235
0.403078
0.266873
0.322002
0.278127
0.300639
0.174124
0.205467
0.281007
0.209885
0.183663
0.152417
0.136609
0.094457
0.155164
0.152198
0.084891
0.117806
0.147609
0.068567
0.076801
0.078752
0.052334
0.057884
0.020137
0.041877
0.088403
0.038472
-0.025717
0.050422
0.051959
-0.001614
0.064455
0.064961
0.013491
-0.074664
-0.049354
0.024773
0.049520
0.060571
0.061651
-0.026454
0.032717
0.155261
0.006622
0.046196
0.044721
0.071416
0.016453
-0.042760
0.056949
0.104502
0.074791
-0.010273
0.073790
0.069431
0.017212
0.077868
-0.009376
0.040362
0.039404
0.038462
-0.020848
0.077834
0.031126
0.042531
0.020890
0.066178
0.013242
0.029919
0.097735
0.097068
0.010429
0.002326
0.054678
0.043078
0.135025
0.116139
0.042029
0.137411
0.145417
0.203792
0.119065
0.156656
0.207543
0.119282
0.233938
0.196641
0.193994
0.155919
0.152040
0.200211
0.239405
0.255394
0.273648
0.305600
0.248714
0.167425
0.225798
0.163044
0.344058
0.180623
0.239412
0.319371
0.125562
0.161464
0.202151
0.139103
0.170108
0.152707
0.036517
0.049748
0.153381
0.048915
0.058792
0.069888
0.107387
0.055862
0.015191
0.069946
-0.026019
0.135854
0.074007
0.057305
0.053923
0.073549
0.080398
0.216272
0.452220
0.804515
1.074281
1.327451
1.500000
1.424413
1.232448
0.882096
0.555382
0.138353
-0.166122
-0.174914
-0.096600
-0.024257
0.094940
0.006178
0.106576
0.171481
0.099624
0.117640
0.065581
0.064450
0.205944
0.166181
0.213135
0.203501
0.238077
0.212800
0.171006
0.312254
0.277161
0.210155
0.360779
0.319476
0.329664
0.369323
0.364215
0.263975
0.387696
0.429665
0.493419
0.467417
0.488608
0.528881
0.525541
0.560920
0.580163
0.576329
0.652701
0.536188
0.652962
0.637983
0.683982
0.597291
0.639457
0.600677
0.588597
0.549919
0.551844
0.529695
0.612404
0.594037
0.516994
0.471464
0.511341
0.391559
0.384771
0.385109
0.486934
0.309268
0.282231
0.370617
0.284438
0.340561
0.279464
0.217042
0.302247
0.202753
0.207222
0.174244
0.129247
0.195536
0.197423
0.208734
0.094802
0.245210
0.121162
0.199782
0.189047
0.202462
0.077886
0.126412
0.084158
0.160368
0.153451
0.106040
0.126422
0.120811
0.088477
0.085574
0.077601
0.219706
0.074953
0.101064
0.044532
0.142567
0.114875
0.154555
0.053653
0.131664
0.055579
0.081451
0.105680
0.128987
0.083415
-0.014012
0.008376
0.085937
0.034742
0.109183
0.112473
0.036634
0.110911
0.112730
0.087042
0.067632
0.088584
0.018865
0.013088
0.102482
0.134926
0.146751
0.146931
0.089549
0.090476
0.161933
0.068649
0.103010
0.159479
0.081814
0.194931
0.170234
0.158988
0.108395
0.169079
0.144131
0.196870
0.272312
0.228774
0.270888
0.220449
0.208810
0.165967
0.215961
0.285499
0.308076
0.316221
0.240190
0.317344
0.340360
0.227661
0.219607
0.188956
0.311897
0.280875
0.195461
0.243633
0.253206
0.190388
0.215173
0.168696
0.124112
0.111571
0.114877
0.135783
0.050746
0.175975
0.036167
0.205845
0.058572
0.048180
0.102573
0.168689
0.212945
-0.016095
0.069429
0.081577
0.146133
0.145464
0.101149
0.108530
0.216851
0.327685
0.577915
0.985422
1.223200
1.433899
1.444437
1.236458
0.919823
0.535535
0.295918
-0.029978
-0.137130
-0.171414
-0.106622
-0.103967
0.029354
0.007182
0.061851
0.135306
0.050125
0.159958
0.087276
0.103519
0.146077
0.153285
0.073652
0.175246
0.208400
0.159125
0.184847
0.219372
0.216966
0.208650
0.340927
0.379349
0.297896
0.305538
0.417689
0.405688
0.461411
0.504003
0.487199
0.416833
0.485580
0.565826
0.460863
0.610203
0.483943
0.574899
0.619475
0.545062
0.525669
0.586983
0.563230
0.493553
0.694197
0.549854
0.536685
0.533580
0.561250
0.627911
0.474658
0.426456
0.448058
0.476214
0.389428
0.407335
0.370060
0.450970
0.336940
0.302743
0.297905
0.230460
0.263568
0.222371
0.236920
0.135997
0.137696
0.192798
0.168763
0.107909
0.066715
0.125827
0.048236
0.041652
0.133263
0.099495
0.078858
0.072826
0.025374
0.090124
0.040668
0.004052
0.075346
0.042848
-0.026994
0.031893
-0.025093
0.041634
0.041632
-0.016975
-0.110853
0.029507
-0.013695
-0.029373
-0.005763
-0.006366
0.002821
0.016408
0.030583
-0.004915
0.001043
0.091140
0.041865
-0.111501
-0.063853
-0.062520
-0.076273
-0.044033
-0.006014
-0.018500
-0.038622
-0.068007
0.000961
-0.044660
-0.044608
-0.007755
-0.001782
-0.004136
-0.043826
-0.024609
0.043183
-0.035896
-0.068066
-0.096290
0.064458
-0.019644
-0.012787
0.049350
-0.020350
-0.026876
-0.034047
-0.002823
0.023160
0.008682
0.080162
0.137490
0.103424
0.062900
0.196133
-0.055984
0.121724
0.122824
0.129231
0.104641
0.124958
0.229047
0.210837
0.124316
0.120574
0.076987
0.152100
0.164620
0.090049
0.052511
0.086243
0.085454
0.082716
0.178765
0.071565
0.101455
0.054195
0.029015
0.063257
0.017919
0.002756
0.029711
0.038764
-0.027413
0.070870
-0.120571
-0.064584
-0.010941
0.034334
-0.059129
-0.027458
-0.017733
-0.051090
-0.020467
-0.070146
-0.007010
-0.000463
0.272139
0.454177
0.630158
0.959046
1.218170
1.311623
1.248893
0.855036
0.600876
0.187578
-0.096828
-0.270583
-0.227121
-0.285173
-0.073035
-0.044332
-0.072953
-0.023823
-0.057235
-0.079497
-0.034083
-0.033961
0.005061
0.040974
0.131788
0.024664
0.028861
0.042048
0.070307
0.099350
0.093904
0.096607
0.120552
0.154131
0.160604
0.211351
0.221834
0.246488
0.304692
0.331700
0.292680
0.328296
0.406703
0.282909
0.361204
0.375443
0.369978
0.363569
0.472659
0.438927
0.445505
0.449015
0.454084
0.499337
0.412875
0.474042
0.465643
0.422169
0.399738
0.499628
0.362392
0.381730
0.434025
0.333845
0.375732
0.299034
0.287513
0.308797
0.240468
0.170660
0.216539
0.130999
0.183577
0.150891
0.096029
0.073060
0.150858
0.080360
-0.029502
-0.013223
0.039085
0.046769
-0.009476
-0.014276
-0.043723
-0.109269
-0.126082
0.001296
0.003730
-0.009335
-0.053886
-0.036587
-0.013942
-0.078575
-0.070689
-0.025309
-0.146047
-0.047643
-0.022119
-0.126562
-0.076343
-0.081407
-0.063093
-0.074069
-0.068303
-0.047421
-0.040987
-0.045941
-0.085945
-0.133187
-0.068351
-0.079103
-0.100132
-0.084509
-0.046110
-0.051475
-0.023212
-0.133650
0.010229
-0.097280
0.005377
-0.065415
-0.193451
-0.015805
-0.074081
-0.022636
-0.077391
-0.120057
-0.103073
-0.094148
-0.070616
-0.025262
-0.095498
-0.069196
-0.057937
-0.057020
-0.025501
-0.070833
-0.032677
0.031341
-0.003981
0.002070
-0.124478
0.026992
-0.076988
0.026941
0.006204
0.048245
0.058548
0.027766
0.074981
0.144122
0.075907
0.018534
0.052050
0.117369
-0.011529
0.027568
0.066311
0.106134
0.129988
0.047183
0.097983
0.097432
0.085512
0.110942
0.078253
0.081947
0.045288
-0.008938
0.018503
0.122670
-0.082237
0.013066
-0.039717
-0.057460
-0.034743
-0.013806
-0.020342
-0.012845
-0.028685
-0.053981
-0.029075
-0.077770
-0.043389
-0.017519
-0.087223
-0.043332
-0.045045
-0.029787
-0.117532
-0.064627
0.189662
0.340919
0.554583
0.913156
1.250711
1.260302
1.280268
1.056332
0.687655
0.281865
-0.072548
-0.212982
-0.263715
-0.326557
-0.170431
-0.172309
-0.108015
-0.072603
-0.004009
-0.059895
0.030660
-0.029111
0.038287
0.083814
-0.040289
-0.001901
0.082019
0.047579
0.079937
0.169255
0.086958
0.054882
0.174255
0.132754
0.260753
0.215590
0.171860
0.244288
0.176149
0.272140
0.306668
0.345934
0.338355
0.386616
0.336338
0.439516
0.465631
0.391353
0.359842
0.443793
0.479669
0.465040
0.481198
0.439117
0.505325
0.484803
0.478419
0.499828
0.485968
0.354328
0.423285
0.410495
0.422713
0.363390
0.377793
0.346300
0.265721
0.298039
0.240055
0.261545
0.265260
0.169952
0.130188
0.229657
0.118376
0.172023
0.153034
0.081874
0.152940
0.033982
0.092062
-0.023886
0.103797
0.135582
-0.012944
0.004973
-0.055341
0.034330
0.031227
0.013460
-0.008055
0.101984
-0.043263
-0.019970
-0.037449
-0.026250
-0.018724
0.015224
-0.038781
0.017155
-0.014197
0.007640
-0.000522
0.021587
0.042235
-0.010379
-0.111178
0.064491
-0.049355
-0.044435
-0.036449
-0.049512
0.004514
-0.008370
0.064039
-0.003751
-0.037679
-0.046503
0.040557
-0.004828
0.014361
0.001337
0.012504
-0.046338
0.027019
-0.006834
0.009120
0.055373
-0.024988
-0.077612
-0.002405
0.083211
-0.046648
0.090244
0.033247
-0.012264
0.047849
-0.029806
0.015374
-0.048935
-0.098158
0.008546
0.062747
0.006026
0.066530
0.036713
0.123594
0.066337
0.184019
0.138197
0.186573
0.126927
0.172656
0.183794
0.086925
0.214166
0.161152
0.125452
0.250062
0.166972
0.219840
0.208669
0.175610
0.211169
0.123110
0.212003
0.212650
0.140021
0.229499
0.105140
0.101285
0.124922
0.102421
0.069022
0.044668
0.000399
0.036777
-0.048627
0.049011
0.008148
0.089564
-0.001949
-0.033421
0.084704
0.071346
0.063777
0.064121
0.081769
-0.032105
-0.000003
0.090241
0.000475
0.006264
0.295457
0.601834
0.905165
1.211799
1.370704
1.464892
1.245232
0.848312
0.519016
0.227843
-0.052763
-0.181682
-0.179722
-0.123818
-0.080099
-0.008204
-0.005048
0.052002
0.002474
0.069565
0.104009
0.044447
0.116666
0.096460
0.108428
0.021830
0.164171
0.186948
0.183698
0.171453
0.158976
0.192174
0.328190
0.383741
0.269385
0.343676
0.304258
0.304293
0.344101
0.418283
0.405480
0.476632
0.425620
0.539844
0.513831
0.525205
0.564619
0.558467
0.556041
0.550836
0.555952
0.599163
0.516948
0.550780
0.633683
0.599726
0.486788
0.594078
0.471076
0.499895
0.638912
0.466298
0.476537
0.436583
0.453745
0.407417
0.423155
0.362628
0.376119
0.383151
0.279408
0.266450
0.262659
0.269112
0.229142
0.186082
0.235931
0.177177
0.105140
0.229350
0.094004
0.094279
0.178270
0.183487
0.085015
0.178100
0.141741
0.019481
0.179050
0.067234
0.061187
0.006924
0.074076
0.079815
-0.023102
0.147436
-0.070212
0.090355
0.036814
0.052372
-0.094166
0.078698
0.150259
0.062145
0.073496
0.022509
0.062994
-0.006357
0.066781
0.125850
-0.011496
0.050129
0.085064
0.078818
0.103516
0.063184
0.104129
0.099243
0.036303
0.045274
0.029780
0.034650
-0.006993
0.069412
0.099531
-0.013844
0.136339
-0.031960
0.004082
0.039606
0.123451
0.034492
-0.063269
0.071355
0.060083
0.022493
0.037100
0.122806
0.073776
0.110565
0.124121
0.084500
0.093969
0.100404
0.066169
0.072396
0.141558
0.100842
0.192696
0.145520
0.123370
0.165602
0.190191
0.203137
0.180639
0.186010
0.229410
0.224252
0.268487
0.153851
0.176273
0.166014
0.248128
0.158982
0.106936
0.226018
0.163739
0.138083
0.116659
0.146544
0.118820
0.146675
0.129231
0.087097
0.075080
0.079964
0.128529
0.077244
0.117335
-0.060680
0.086329
0.055544
0.059851
0.043154
0.003553
0.007717
-0.061853
0.030962
0.003996
-0.057818
-0.044637
0.104234
0.196518
0.445918
0.781017
1.149304
1.327229
1.391168
1.287279
0.986908
0.589582
0.220618
-0.057238
-0.120534
-0.302327
-0.160545
-0.108825
0.030543
-0.035423
0.076542
0.040954
0.027226
0.025856
0.025167
0.124509
0.077039
0.120735
0.118821
0.137407
0.134046
0.111248
0.227892
0.245403
0.234408
0.275670
0.250455
0.257724
0.207365
0.268271
0.320242
0.296825
0.288102
0.332426
0.342211
0.399298
0.465266
0.444172
0.474822
0.448426
0.487174
0.444808
0.578742
0.549707
0.481949
0.510523
0.583020
0.567924
0.549721
0.513454
0.555544
0.525488
0.379872
0.469459
0.445985
0.394628
0.412749
0.363730
0.394317
0.338770
0.372619
0.336369
0.213978
0.233580
0.177894
0.234518
0.294018
0.199271
0.104030
0.140026
0.115588
0.133740
0.092102
0.056877
0.017126
-0.064362
0.067402
0.035920
0.026383
0.048963
0.061161
-0.043770
0.016793
0.097114
-0.013131
0.011099
0.075978
-0.018414
-0.026104
-0.087722
-0.049514
-0.027909
-0.000537
-0.042137
-0.028210
0.071325
-0.024672
-0.011209
0.040539
-0.031627
0.000351
-0.043972
-0.048149
0.021339
-0.092055
-0.029114
0.013344
-0.013287
0.019274
-0.079452
0.006883
-0.155280
-0.068820
-0.042156
-0.013229
0.031500
0.005954
-0.047414
-0.102910
-0.043938
-0.027856
-0.036045
-0.086611
-0.036899
-0.042395
0.038633
-0.152797
-0.027834
-0.013371
-0.038179
-0.063655
0.004110
-0.078813
-0.061331
0.038681
-0.013471
0.016631
0.001207
0.045185
-0.022219
0.052374
0.041029
0.012202
0.078033
0.026754
0.100759
0.115828
0.105904
0.105492
0.137121
0.004592
0.075968
0.130690
0.034121
0.128008
0.126294
0.124089
0.026225
0.058882
0.109843
0.023681
0.035838
0.048891
0.037956
0.118247
0.012057
-0.065106
-0.018078
-0.109133
-0.018628
-0.128809
-0.073375
-0.001814
-0.090828
-0.059336
-0.088191
-0.068280
-0.092483
-0.101025
-0.032321
-0.096172
-0.079348
-0.147785
-0.088576
-0.085598
0.035435
0.340578
0.621936
0.912994
1.272851
1.261013
1.204332
1.050007
0.622577
0.204042
-0.141744
-0.286441
-0.316015
-0.304130
-0.173641
-0.198608
-0.093868
-0.126258
-0.128694
-0.015770
-0.115658
-0.022510
-0.001050
-0.067718
-0.047333
0.040518
0.045146
0.110808
0.049714
0.074362
0.005712
0.069556
0.118528
0.075777
0.168342
0.116388
0.242744
0.192114
0.221849
0.186332
0.320041
0.247819
0.281823
0.264543
0.383925
0.358226
0.398371
0.312555
0.518083
0.404511
0.412938
0.494086
0.375126
0.449751
0.447180
0.450346
0.440975
0.434458
0.401915
0.403204
0.294208
0.338033
0.310082
0.232915
0.290358
0.317277
0.273888
0.325812
0.186723
0.216921
0.138518
0.206636
0.108184
0.071462
0.157605
0.076969
0.083286
0.049930
-0.007196
-0.009877
-0.023877
-0.095442
-0.014963
0.028750
-0.087923
-0.032284
-0.104402
-0.062899
-0.040107
-0.160873
-0.078818
-0.000636
-0.084479
-0.115795
-0.050122
-0.108243
-0.088853
-0.140288
-0.039070
-0.027721
-0.010359
-0.014465
0.006510
-0.023011
-0.067774
-0.015263
-0.056697
-0.067158
0.001220
-0.052398
-0.146473
-0.126284
-0.127106
-0.092200
-0.104684
-0.052162
-0.101489
-0.105665
-0.102384
-0.104865
-0.086370
-0.024122
-0.095778
-0.075094
-0.165999
-0.068036
-0.131594
-0.164251
-0.069397
-0.160964
-0.117050
-0.063585
-0.087488
-0.043124
-0.053477
-0.098534
-0.128849
-0.103903
-0.116016
-0.078050
-0.024368
-0.057520
-0.108095
-0.004855
-0.019660
0.060357
-0.056585
0.005962
0.031384
0.077936
-0.036414
0.077221
0.015096
0.052830
0.056663
0.070377
0.072441
0.116735
0.189632
0.162125
0.105402
0.086202
0.110452
0.047251
0.091180
0.082860
0.038585
0.047190
0.091480
-0.023728
0.033037
0.021564
-0.031348
0.042916
0.028976
0.041412
-0.070361
-0.056542
-0.074344
-0.036337
-0.054340
-0.034202
-0.046698
-0.001218
0.035004
-0.084703
-0.059712
-0.041019
-0.136513
-0.097037
-0.087030
-0.070865
0.020929
0.135951
0.556329
0.876943
1.154209
1.322040
1.300372
1.204140
0.804993
0.366918
0.055213
-0.112993
-0.263478
-0.331572
-0.213075
-0.180446
-0.064607
-0.023153
-0.041866
-0.088052
0.020234
-0.004286
-0.062842
-0.000184
-0.061710
0.068558
0.012226
0.059384
0.129424
0.111690
0.178289
0.134486
0.123817
0.189032
0.151632
0.207703
0.195992
0.233205
0.258509
0.340927
0.306188
0.259656
0.298644
0.344309
0.370293
0.338576
0.380108
0.337657
0.422369
0.511446
0.459780
0.403618
0.505681
0.429679
0.461730
0.359262
0.489000
0.443329
0.370236
0.382604
0.470935
0.411035
0.410016
0.401667
0.388394
0.371820
0.334026
0.326520
0.273585
0.298909
0.301800
0.287595
0.279772
0.160477
0.120404
0.161010
0.142259
0.114271
0.151568
0.133510
0.108466
-0.041469
0.034567
0.010245
0.037089
0.040077
0.017522
0.059356
-0.026606
-0.003348
0.019997
0.013408
-0.044774
-0.000847
0.066342
0.017112
0.044076
0.056318
-0.023114
-0.022028
0.010310
0.012718
-0.011028
0.010662
0.087737
-0.025281
-0.044170
-0.018960
0.012608
0.051619
0.063241
-0.004130
0.025450
0.024715
0.075314
0.084652
-0.023056
-0.075870
-0.042540
0.051372
0.027487
0.053773
0.005212
0.030152
-0.023719
0.035601
-0.064121
0.127265
-0.002056
-0.023190
0.013058
-0.003385
-0.038858
0.003072
0.045324
0.001742
-0.006987
0.064303
0.007211
0.156073
-0.008121
0.029800
0.033379
0.044199
0.054548
0.113022
0.036795
0.087715
0.137208
0.077121
0.053837
0.122389
0.137645
0.164008
0.133456
0.123009
0.156581
0.223943
0.169069
0.238717
0.182266
0.280451
0.296376
0.150918
0.153411
0.187277
0.237815
0.171590
0.091372
0.139389
0.103816
0.180976
0.104450
0.130349
0.158462
0.152297
0.103897
0.066652
0.087598
0.028039
-0.008150
0.013997
-0.044312
-0.053530
0.034391
0.052254
0.103954
0.100311
0.026303
0.022884
0.028849
0.061795
0.101247
0.337972
0.513283
0.799552
1.297422
1.377338
1.435778
1.320842
0.916710
0.649891
0.303465
0.015185
-0.101017
-0.200154
-0.071149
-0.015163
-0.033746
0.025092
0.070931
0.122561
0.084927
0.142950
0.123803
0.147723
0.129113
0.114205
0.204985
0.209379
0.219893
0.214811
0.269257
0.182275
0.256400
0.230507
0.367453
0.273523
0.277362
0.276615
0.403168
0.435137
0.416923
0.438769
0.529770
0.517210
0.464734
0.513718
0.442498
0.497065
0.521924
0.642021
0.617808
0.489778
0.622684
0.572664
0.558825
0.590543
0.687591
0.477156
0.606509
0.609756
0.487351
0.513874
0.592077
0.552370
0.523037
0.472376
0.439235
0.402498
0.411557
0.396672
0.354373
0.370494
0.280232
0.264125
0.215203
0.245565
0.347890
0.149914
0.237130
0.294909
0.193559
0.191423
0.131331
0.112885
0.165466
0.127198
0.159133
0.104890
0.043179
0.166489
0.066400
0.061130
0.100673
0.075645
0.056296
-0.011406
0.147361
0.024730
0.114385
0.077453
0.174450
0.071102
0.083167
0.141962
0.111604
0.147611
0.009619
0.054742
0.049507
0.000336
0.082124
-0.010131
0.120371
0.088180
0.041028
0.123527
0.099702
0.109967
0.081447
-0.019848
0.073256
