0.043082
0.008928
0.003319
0.079556
0.086292
-0.066005
0.012385
0.007124
0.029347
0.034657
-0.001106
0.039357
0.023996
0.004978
0.081985
0.088305
0.047597
0.110685
0.023657
0.042999
0.145049
0.086258
0.214282
0.021388
0.192526
0.190745
0.128387
0.160198
0.135097
0.212948
0.293125
0.125627
0.173550
0.148037
0.225351
0.182283
0.216599
0.124983
0.117427
0.149536
0.220370
0.078407
0.135564
0.183026
0.131819
0.140908
0.161321
0.085555
0.155892
0.041655
0.081581
0.077048
0.096197
0.111607
0.010874
0.043096
0.052368
-0.010504
0.022558
0.018002
0.175713
0.109809
0.290885
0.371426
0.612987
0.880920
1.244017
1.410587
1.415344
1.128388
0.866558
0.488212
0.173029
-0.023928
-0.082948
-0.067724
-0.042920
0.083755
0.093510
0.175996
0.076929
0.119355
0.131834
0.126251
0.169339
0.219467
0.171657
0.219198
0.257065
0.206446
0.271778
0.230700
0.337749
0.324327
0.362809
0.430659
0.371904
0.425627
0.459055
0.446907
0.484588
0.533114
0.480149
0.601681
0.534602
0.611391
0.558774
0.591038
0.624254
0.584475
0.544150
0.583785
0.635670
0.542360
0.565129
0.535875
0.562720
0.542349
0.483377
0.526416
0.452325
0.427597
0.445245
0.400587
0.431739
0.401288
0.334841
0.420948
0.328205
0.277398
0.255898
0.238746
0.188858
0.242817
0.267303
0.211399
0.183910
0.173428
0.119216
0.091406
0.070834
0.173197
0.122986
0.109692
0.061038
0.119636
0.076421
0.037471
0.157166
0.136917
0.036200
0.111497
0.049554
0.061952
0.062158
0.095923
0.061192
0.108082
0.016116
0.156076
0.154663
0.112752
0.123688
0.061216
0.098270
0.067207
0.069517
0.056257
0.077042
0.049699
0.131002
0.102555
0.082180
0.035989
0.121743
0.064931
0.103239
0.029147
0.039926
0.040560
0.115591
0.041021
0.159217
0.156056
0.058124
0.172047
0.104225
0.193948
0.203260
0.201817
0.159735
0.287843
0.212140
0.328791
0.227696
0.224935
0.284391
0.271167
0.271330
0.239489
0.245662
0.255294
0.187014
0.346163
0.210231
0.260712
0.189092
0.263856
0.304668
0.291635
0.266314
0.151225
0.223174
0.191554
0.216434
0.174433
0.156372
0.157508
0.165530
0.100090
0.126206
0.172257
0.141435
0.122833
0.102927
0.129978
0.118996
0.077766
0.146614
0.091344
0.231006
0.288286
0.553333
0.806257
1.096194
1.421598
1.483697
1.316954
0.997335
0.727288
0.379120
0.203023
-0.026746
-0.063689
0.027990
0.129167
0.075387
0.133604
0.196436
0.195115
0.175148
0.218702
0.246036
0.245355
0.224629
0.225174
0.313011
0.241266
0.284178
0.330033
0.385959
0.384396
0.432703
0.376801
0.486332
0.440508
0.441476
0.522734
0.536000
0.468551
0.516615
0.556272
0.505044
0.600062
0.581872
0.553306
0.573090
0.695706
0.633009
0.661057
0.535162
0.549365
0.652850
0.616786
0.598173
0.581147
0.548147
0.432287
0.503693
0.502451
0.463677
0.422812
0.425925
0.398205
0.303358
0.312437
0.295137
0.330778
0.375745
0.345690
0.254886
0.238620
0.261500
0.160867
0.177202
0.141943
0.217429
0.107190
0.128077
0.067140
0.177572
0.079053
0.007496
0.095060
0.037079
0.030654
0.060479
0.041431
0.134957
0.034056
0.022284
0.048314
0.079058
0.012844
0.070402
0.085012
0.039704
0.094518
0.001326
0.040176
0.068049
0.016270
0.046549
0.028488
0.002926
0.013968
0.046380
-0.008597
0.040402
0.136764
0.109733
-0.072626
0.014727
0.141113
0.093866
0.068410
-0.008315
0.078101
0.088897
0.080878
0.080401
0.093465
0.048755
0.031576
0.057527
0.074009
0.087868
0.045527
0.125029
0.130285
0.100703
0.140367
0.238965
0.212081
0.150983
0.156685
0.169089
0.248300
0.199694
0.218285
0.223434
0.194179
0.139673
0.230515
0.264484
0.166282
0.283613
0.169720
0.214123
0.254893
0.145942
0.142951
0.134672
0.145161
0.213268
0.118252
0.069096
0.072811
-0.012575
0.068445
-0.042624
0.129246
0.030759
0.074978
0.064459
0.009995
0.064215
0.023392
0.075670
0.258034
0.346615
0.523273
0.854916
1.157455
1.336993
1.346178
1.198216
0.921508
0.410961
0.124277
-0.101319
-0.078685
-0.166098
-0.050316
-0.016654
0.037786
0.023387
0.090374
0.126019
0.119021
0.088207
0.144912
0.175132
0.117880
0.108462
0.184740
0.209614
0.242112
0.166335
0.161595
0.319240
0.339199
0.321000
0.356953
0.382381
0.305335
0.419146
0.501254
0.426292
0.436185
0.458238
0.498005
0.493773
0.513313
0.507232
0.467793
0.525837
0.490481
0.548882
0.484379
0.513365
0.469318
0.502221
0.456648
0.421765
0.404876
0.418907
0.387436
0.349680
0.412318
0.338065
0.322892
0.261708
0.321815
0.305015
0.189210
0.243317
0.190278
0.190517
0.155981
0.163007
0.149454
0.194908
0.030700
-0.022076
0.141823
-0.005784
-0.006244
0.033203
0.068911
0.054342
0.046847
-0.021283
-0.034711
0.076755
-0.011553
-0.027732
-0.031549
-0.044288
0.047571
0.051451
-0.024699
-0.021675
-0.003347
-0.057488
-0.034249
-0.039841
-0.017217
-0.023483
-0.091132
-0.078835
-0.002934
-0.035376
-0.035684
-0.019941
0.017139
-0.052877
-0.007245
-0.090121
-0.079019
-0.133373
-0.033961
-0.026320
-0.003776
-0.024199
-0.003798
0.040811
0.009961
-0.059297
-0.058728
0.029889
0.044085
0.029710
0.005684
0.072611
0.111832
0.060131
0.077763
0.031855
-0.022702
0.021106
0.135694
0.142244
0.066499
0.164827
0.043560
0.186415
0.182661
0.175699
0.109354
0.117590
0.111142
0.150134
0.101843
0.161295
0.026691
0.030965
0.045264
0.063382
0.026297
0.133166
0.015921
-0.044352
0.070171
-0.054813
-0.022185
0.039303
0.055762
-0.036211
-0.057433
-0.025833
-0.071668
-0.021725
0.083933
-0.092669
-0.036474
-0.012310
0.047052
0.017998
0.297883
0.528397
0.921833
1.209288
1.310008
1.324250
1.015386
0.623516
0.248527
-0.071792
-0.133190
-0.145983
-0.212036
-0.092455
0.052222
0.044957
-0.055579
0.005933
0.092525
0.045207
0.054913
0.059227
0.101506
0.096847
0.128671
0.238673
0.173150
0.169308
0.148115
0.207269
0.252948
0.292145
0.368638
0.319336
0.329986
0.374383
0.502672
0.375091
0.392866
0.435607
0.487543
0.510161
0.406363
0.534060
0.540029
0.453476
0.508411
0.444571
0.567834
0.470629
0.439462
0.470474
0.439554
0.407105
0.411417
0.368374
0.369038
0.373172
0.364287
0.353551
0.325381
0.306142
0.310647
0.247639
0.212445
0.264286
0.156966
0.239446
0.119865
0.149944
0.115351
0.075645
0.071272
0.080238
0.025264
0.070994
0.023230
0.007557
-0.031717
0.029368
0.010076
-0.051255
-0.010515
0.070351
-0.044490
-0.037242
0.003897
0.054415
-0.057832
-0.051107
-0.033463
-0.038480
-0.022324
-0.059898
-0.157732
-0.079729
-0.008736
-0.072347
-0.027602
-0.032319
0.008090
-0.081855
0.030892
-0.016976
0.004648
0.012729
0.041163
-0.024578
-0.127577
0.028712
-0.006702
-0.004457
-0.089044
-0.044687
-0.040528
-0.038171
-0.045049
0.017598
0.051574
-0.062928
-0.042822
-0.014633
-0.016913
0.086185
0.069153
0.058879
0.099515
0.045760
0.102084
0.115606
0.183742
0.131299
0.139880
0.177793
0.261807
0.145982
0.163487
0.194168
0.204150
0.144039
0.204310
0.201382
0.199720
0.154780
0.193734
0.104269
0.092360
0.193997
0.154801
0.078378
0.131844
0.113505
0.037839
0.126995
0.054401
0.143506
-0.018775
0.057942
0.046389
0.094239
-0.006307
0.039567
0.000243
0.087041
0.015195
0.086074
0.052023
0.124070
0.223703
0.512570
0.838585
1.154331
1.451398
1.468564
1.274669
0.847073
0.556985
0.196598
-0.008956
-0.162283
-0.029744
-0.129577
0.040355
0.025412
0.166560
0.115514
0.112569
0.176932
0.148939
0.175495
0.206667
0.192277
0.268102
0.225355
0.239594
0.200115
0.324109
0.388704
0.306909
0.300256
0.428836
0.371365
0.387399
0.451496
0.460507
0.423508
0.454491
0.497131
0.523250
0.496445
0.585848
0.543112
0.561390
0.459344
0.490500
0.603994
0.506217
0.556938
0.579061
0.577243
0.519475
0.472709
0.544845
0.559154
0.475121
0.372222
0.416477
0.487868
0.401783
0.429434
0.404030
0.348029
0.358797
0.367124
0.250928
0.269940
0.251484
0.220304
0.208743
0.172701
0.188305
0.186884
0.142786
0.149851
0.170303
0.142419
0.117651
0.202422
0.036427
0.107978
0.192843
0.051043
0.095688
0.019843
0.051918
0.086116
0.090460
0.096906
0.058306
0.129218
0.068362
0.082980
0.064373
0.105083
0.172194
0.083934
0.115393
0.004541
0.068906
0.115141
0.042723
0.096189
0.004341
0.040800
0.085700
0.094026
0.028258
0.012327
0.098614
0.131585
0.063982
0.094591
0.088815
0.086963
0.143326
0.017449
0.101660
0.196172
0.091832
0.117242
0.159366
0.081057
0.097794
0.162209
0.093189
0.142561
0.160289
0.273129
0.237514
0.224501
0.236266
0.225095
0.181626
0.226502
0.211050
0.280845
0.250484
0.257132
0.281423
0.315760
0.252108
0.220158
0.205077
0.292686
0.209438
0.255476
0.261882
0.242456
0.153301
0.145004
0.170450
0.180391
0.166369
0.150222
0.087317
0.081448
0.247350
0.114517
0.145287
0.121219
0.125511
0.033769
0.093693
0.069343
0.139067
0.122623
0.276937
0.576156
0.698462
1.142902
1.378132
1.486429
1.500000
1.131661
0.771060
0.446599
0.150488
-0.071534
-0.046826
-0.010600
0.050453
0.018077
0.094402
0.147089
0.161827
0.232817
0.185900
0.198027
0.237335
0.244008
0.240291
0.251561
0.286336
0.303048
0.242330
0.279126
0.363128
0.401392
0.406682
0.467646
0.455688
0.469031
0.480817
0.524310
0.505598
0.483181
0.577366
0.617523
0.589749
0.574823
0.661872
0.569724
0.635325
0.664977
0.614050
0.647410
0.581214
0.566201
0.647736
0.585107
0.582430
0.516161
0.574865
0.559533
0.458470
0.492783
0.468545
0.410729
0.372650
0.384517
0.376026
0.413753
0.322386
0.315511
0.300219
0.311620
0.243607
0.304064
0.191677
0.203402
0.180607
0.240490
0.116622
0.193092
0.208346
0.166578
0.224724
0.108118
0.145061
0.123619
0.129029
0.111252
0.118451
0.079749
0.123830
0.019815
0.140206
0.056566
0.081422
0.081158
0.105923
0.038232
0.076743
0.046369
0.050240
0.126499
0.021527
0.041392
0.082125
0.094185
0.064295
0.069202
0.050951
0.072703
0.050060
0.158773
0.046941
0.139926
0.032287
0.095373
-0.032489
0.078211
0.135168
0.102986
0.135514
0.074046
0.114399
0.109639
0.008646
0.037438
0.214421
0.207245
0.148304
0.216051
0.107535
0.182614
0.207258
0.244069
0.212562
0.145440
0.155305
0.226816
0.193004
0.237285
0.254875
0.281114
0.279987
0.221738
0.212357
0.287768
0.236600
0.236610
0.154856
0.169838
0.177114
0.138930
0.184744
0.179101
0.173200
0.203312
0.104208
0.099597
0.080870
0.114600
0.057241
0.064798
0.157530
0.016321
0.123003
0.064577
0.089146
0.103593
0.069661
0.075892
0.150676
0.373472
0.572954
0.928731
1.170146
1.334379
1.490672
1.242801
0.947627
0.605441
0.185588
0.010000
-0.101252
-0.153412
-0.061282
0.026552
0.057256
0.157082
0.076559
0.167146
0.105243
0.152041
0.244062
0.151549
0.184561
0.166098
0.197520
0.230344
0.205507
0.279898
0.273537
0.308559
0.325735
0.295356
0.369846
0.358493
0.454793
0.414244
0.500441
0.527061
0.449276
0.465666
0.468715
0.554722
0.494395
0.556436
0.551580
0.544112
0.537753
0.621282
0.564131
0.539041
0.527171
0.505804
0.571397
0.610767
0.398942
0.409259
0.395210
0.407359
0.398473
0.395864
0.336601
0.280181
0.210480
0.255060
0.242286
0.255389
0.302568
0.201550
0.209484
0.148984
0.178241
0.205755
0.124835
0.137995
0.139660
0.094593
-0.002296
0.047183
0.115463
0.025441
0.117260
-0.007957
-0.035406
0.079364
-0.027455
-0.047164
0.003517
-0.017671
-0.050410
-0.071421
-0.026320
0.033609
-0.021008
0.019400
-0.018969
0.003981
-0.036002
-0.007197
-0.002578
-0.056771
0.000387
0.013932
-0.069356
0.043996
-0.082567
-0.007231
0.002367
-0.038452
0.000372
-0.034076
-0.050521
-0.006625
-0.022975
0.021538
0.038131
0.034996
0.037803
-0.089653
0.041859
0.035952
0.042729
0.066969
0.015504
-0.020151
-0.068211
0.110479
0.052606
0.077636
0.051850
0.155815
0.142228
0.153422
0.078053
0.138079
0.180092
0.111845
0.106254
0.113917
0.156705
0.172061
0.107513
0.139497
0.121663
0.085034
0.119851
0.107615
0.107911
0.049526
0.046593
0.080881
0.030716
0.003496
0.006208
0.047159
0.031305
-0.019683
-0.042002
-0.020574
0.099325
-0.027486
0.002252
-0.087126
-0.089777
-0.096808
-0.032885
0.014322
0.001454
0.175936
0.323481
0.583536
0.948431
1.220711
1.310947
1.352866
1.031663
0.685430
0.278367
-0.015349
-0.144075
-0.134989
-0.256156
-0.059763
-0.069186
-0.017540
-0.013754
0.107514
0.059763
0.009247
0.014424
0.086985
0.100449
0.127437
0.130323
0.180838
0.195340
0.103630
0.179322
0.165277
0.286801
0.256732
0.314499
0.298225
0.270613
0.359313
0.347417
0.387274
0.370477
0.468708
0.396855
0.423100
0.426335
0.423522
0.448545
0.400391
0.519202
0.483344
0.405553
0.513696
0.482996
0.351118
0.430398
0.444958
0.397656
0.366865
0.342959
0.424378
0.312906
0.364662
0.289346
0.343461
0.162527
0.166169
0.287681
0.203661
0.133634
0.163953
0.097357
0.151587
-0.004834
0.038945
0.113291
-0.008721
0.057294
0.014562
0.007209
-0.064418
0.026056
0.100031
-0.069639
-0.065333
-0.070390
-0.063593
-0.062570
-0.086310
-0.064638
-0.050706
-0.095194
-0.039701
-0.106581
-0.044382
-0.169640
-0.051041
-0.102830
-0.127868
0.020848
-0.087322
-0.075786
-0.101099
-0.126043
-0.114159
-0.128170
-0.083157
-0.074940
-0.135589
-0.114810
-0.075432
-0.219488
-0.143827
-0.079384
-0.108218
-0.026085
-0.085956
-0.106884
-0.141947
0.009344
-0.048775
-0.115736
-0.079555
-0.006899
-0.089000
-0.113586
0.021768
-0.015691
0.075058
0.035888
-0.006601
0.032705
0.064425
0.088982
0.104558
0.101589
0.149592
0.087173
0.125562
0.105750
0.059897
0.178303
0.085342
0.086579
0.163737
0.080329
0.152768
0.042680
0.073972
0.026838
0.095372
-0.022195
0.046619
0.113632
0.078058
-0.077585
-0.022129
-0.012499
-0.092122
0.001794
0.058085
0.020804
-0.065116
0.018529
-0.086876
-0.028055
-0.056516
-0.022648
-0.071940
0.004980
0.009207
0.254549
0.404868
0.704599
1.004312
1.183467
1.297414
1.214719
0.896902
0.492272
0.127587
-0.116321
-0.225006
-0.170856
-0.130868
-0.100479
-0.056497
-0.047994
0.009403
-0.059144
0.026431
-0.035254
0.043246
0.074900
0.145056
0.119601
0.061735
0.172817
0.208809
0.165337
0.174978
0.185025
0.222379
0.249131
0.269352
0.341239
0.376390
0.327498
0.443486
0.445372
0.415439
0.382457
0.490134
0.490203
0.429260
0.504365
0.463158
0.417173
0.505165
0.487313
0.564395
0.471547
0.499312
0.447279
0.384241
0.420039
0.485028
0.406478
0.417755
0.292092
0.243699
0.302871
0.261981
0.276408
0.193938
0.257023
0.244389
0.249225
0.162497
0.113467
0.107942
0.115881
0.079761
0.026139
0.110803
0.142800
0.056392
0.070674
0.045365
0.037886
0.046629
0.039371
-0.006164
-0.014716
-0.056887
0.029780
-0.026433
0.054741
0.058026
-0.011502
0.052226
-0.030590
0.046457
-0.054088
-0.014375
-0.069828
-0.036866
-0.100674
0.027802
-0.033908
-0.002581
0.011176
-0.009043
-0.031036
0.021678
-0.052676
-0.001903
-0.062230
0.021274
0.000636
0.073291
-0.032572
-0.024966
0.014596
-0.047946
0.011708
0.000490
0.041292
0.049057
0.024391
0.019489
-0.037868
0.051042
-0.025827
-0.004430
-0.012006
0.127360
0.143389
0.053959
0.096404
0.022888
0.138988
0.060972
0.258051
0.179561
0.178842
0.170554
0.146586
0.172596
0.187233
0.195442
0.190091
0.203468
0.165306
0.188216
0.098807
0.101350
0.075758
0.179926
0.115377
0.143951
0.054327
0.135775
0.134604
-0.000578
0.064249
0.142588
0.117726
-0.006040
0.038873
-0.044768
0.066197
0.039331
0.017920
0.000187
0.006032
-0.019969
0.038701
0.119377
0.182247
0.358282
0.672448
0.977444
1.211925
1.324642
1.433289
1.142792
0.780875
0.417911
0.143567
-0.062027
-0.064468
-0.094390
-0.021553
0.037934
0.100815
0.024844
0.159129
0.078547
0.052411
0.111199
0.104103
0.169780
0.151184
0.222677
0.171409
0.252570
0.230016
0.238684
0.229891
0.243995
0.390795
0.346297
0.446721
0.495721
0.422303
0.460171
0.569108
0.513226
0.502803
0.467010
0.492780
0.496755
0.567535
0.498634
0.566097
0.595889
0.594667
0.587242
0.570164
0.582235
0.543730
0.630076
0.542727
0.464489
0.514984
0.526269
0.523286
0.394063
0.395624
0.449687
0.390805
0.310625
0.299363
0.390949
0.283140
0.214566
0.289514
0.188466
0.222363
0.188208
0.166101
0.188929
0.246468
0.104996
0.089562
0.072524
0.184887
0.119849
0.053163
0.042512
0.078552
0.091388
0.058255
0.119943
0.019684
0.055759
0.063372
0.096074
0.000176
0.018829
0.126529
0.094933
0.033538
0.034264
0.094262
0.070438
0.101552
0.031288
0.046874
0.006881
0.066945
-0.044643
0.029466
0.112868
0.037450
0.098197
0.077309
0.100404
0.041164
0.076312
0.076865
0.052016
0.047718
0.013369
0.053683
0.113873
0.067346
0.078387
0.078129
0.081926
0.101245
0.110992
0.050862
0.150881
0.113109
0.163926
0.073507
0.130831
0.190699
0.169798
0.234397
0.150303
0.211345
0.222934
0.264109
0.172970
0.281434
0.271016
0.170931
0.291386
0.281130
0.255979
0.148031
0.235478
0.175762
0.239579
0.104980
0.221594
0.144246
0.090147
0.163125
0.138588
0.137904
0.128473
0.073634
0.071088
0.097441
-0.013404
0.027217
0.103487
0.052427
0.117078
0.054917
0.080211
0.004940
0.048331
0.147140
0.206133
0.485675
0.807459
1.090745
1.325160
1.477559
1.278056
1.036700
0.622896
0.266753
0.014044
-0.056979
-0.137746
-0.096418
-0.003093
0.038003
0.008740
0.186696
0.124054
0.005192
0.071521
0.237286
0.134323
0.183566
0.202610
0.178513
0.260898
0.195374
0.246064
0.281975
0.402060
0.332532
0.423851
0.422990
0.402115
0.504057
0.487041
0.398492
0.442478
0.582531
0.468029
0.530357
0.491930
0.534049
0.566600
0.576153
0.597707
0.564534
0.549806
0.491273
0.486325
0.518940
0.611297
0.473017
0.562627
0.522860
0.505889
0.396138
0.502778
0.442933
0.394352
0.365067
0.362892
0.255838
0.273748
0.221859
0.269938
0.273647
0.308793
0.218870
0.153196
0.150677
0.164798
0.158313
0.238647
0.096349
0.095433
0.104179
0.039021
0.095103
0.021394
0.101312
0.053860
-0.039142
0.082006
0.081248
0.065950
0.066309
0.050890
0.002582
-0.096894
-0.059325
0.048267
0.027906
-0.056989
0.011622
-0.047032
0.007898
0.083329
-0.018715
-0.001639
-0.000546
0.051594
-0.009462
0.001052
0.071485
0.084487
0.036752
0.016331
-0.044918
0.002832
-0.025486
-0.023415
-0.079346
-0.032132
0.009553
0.065612
0.010436
0.023156
0.043010
0.055840
0.082083
0.077241
0.111652
0.037735
-0.001039
0.108203
0.030065
0.117894
0.055273
0.084281
0.210154
0.183469
0.068423
0.110838
0.114207
0.139543
0.119042
0.175603
0.136040
0.136989
0.054701
0.095427
0.094902
0.120385
0.053070
0.173944
0.091217
0.055986
0.175323
0.127562
0.044947
0.100603
-0.029251
0.010551
0.004850
0.064859
0.049742
-0.082519
0.014095
-0.031794
-0.000103
-0.022610
-0.102131
-0.038547
-0.116010
-0.070167
0.033143
0.134485
0.264626
0.506224
0.864479
1.188502
1.335927
1.305739
1.061616
0.784803
0.386187
0.085599
-0.188149
-0.241256
-0.199785
-0.122400
-0.098863
-0.036397
-0.053586
0.000677
0.054307
0.008177
0.047102
0.082947
0.090875
0.015911
0.182108
0.185242
0.201020
0.208449
0.198265
0.243615
0.236387
0.234831
0.260145
0.248779
0.279736
0.365970
0.331177
0.304001
0.342442
0.405641
0.456498
0.426304
0.417310
0.421882
0.432644
0.406711
0.441368
0.481398
0.361784
0.501871
0.414721
0.421389
0.468435
0.443566
0.409686
0.392134
0.365532
0.381751
0.306718
0.362075
0.351140
0.273133
0.316995
0.231668
0.172467
0.183339
0.125561
0.168268
0.099290
0.090978
0.096455
0.068483
0.104868
0.034914
-0.021241
0.018242
-0.011007
-0.069897
-0.023440
-0.063471
-0.098395
-0.048601
-0.097840
-0.067083
-0.150179
-0.162369
0.011922
-0.088971
-0.019435
-0.035815
-0.062253
-0.067903
-0.096384
-0.168928
0.008518
-0.092735
-0.036192
-0.130163
-0.027474
-0.108550
-0.064936
0.027544
-0.148111
-0.026650
-0.113004
-0.128499
-0.128409
-0.095713
-0.089331
-0.054410
-0.027987
-0.163784
-0.063910
-0.065939
-0.006018
-0.090700
-0.154988
-0.107258
-0.036886
-0.090378
-0.066414
-0.024066
-0.035470
-0.051834
0.019339
-0.016580
0.034744
-0.020421
0.003121
-0.035249
0.009339
0.001805
0.045830
0.031813
0.103809
0.211009
0.024471
0.054577
0.047291
0.023129
0.020749
0.117001
0.095166
-0.022388
0.007699
0.098936
0.037393
0.100644
-0.040271
0.063055
-0.004470
0.005078
-0.095945
-0.030906
0.045814
-0.022897
-0.082030
-0.055109
-0.050441
-0.023630
-0.134310
-0.136835
-0.099717
-0.135743
-0.085648
-0.077007
-0.021029
0.018999
0.179476
0.370077
0.577407
0.890443
1.167723
1.292053
1.214123
0.869987
0.514144
0.198731
-0.201608
-0.218943
-0.254856
-0.096806
-0.037678
-0.023829
-0.072024
-0.096900
-0.050992
0.000262
0.039316
-0.029319
0.033225
0.042654
0.056190
0.038758
0.016719
0.160392
0.070395
0.116456
0.215179
0.193171
0.223192
0.265110
0.258792
0.310091
0.284366
0.331447
0.371195
0.364552
0.346048
0.385876
0.460576
0.404871
0.452792
0.474921
0.440138
0.425540
0.480524
0.416540
0.358353
0.412316
0.479874
0.424977
0.373288
0.342583
0.343136
0.314339
0.356623
0.292954
0.371225
0.332992
0.253685
0.194935
0.247729
0.188482
0.088644
0.140232
0.139344
0.071843
0.079907
-0.011194
0.115749
-0.002438
-0.003237
-0.007215
-0.046120
-0.035929
-0.004793
0.035777
-0.003475
-0.100447
-0.088379
-0.045820
-0.033972
-0.059214
-0.015535
-0.023071
-0.037562
-0.068667
-0.142357
-0.016205
-0.108576
-0.052426
-0.011716
-0.214420
-0.118780
0.017970
-0.084007
-0.091150
-0.085191
-0.010865
0.017532
-0.123644
-0.087383
-0.042762
-0.052729
-0.018379
-0.098853
-0.070916
-0.032491
-0.068570
-0.064251
-0.090162
-0.047703
-0.077005
0.005110
0.001684
-0.021003
-0.015960
-0.025032
-0.013808
0.031548
-0.004469
-0.019804
-0.005923
0.012295
0.073291
0.070206
0.005159
0.111370
0.115043
0.023778
0.136178
0.150541
0.095810
0.092667
0.152872
0.126916
0.087742
0.159770
0.139442
0.133824
0.151753
0.080898
0.105486
0.179454
0.113889
0.111075
0.028366
0.025353
0.101662
0.023505
0.013850
-0.015379
0.000782
0.044983
0.013575
0.034129
-0.032655
-0.045050
-0.012134
-0.024520
-0.085040
0.012491
-0.036657
0.006831
0.084518
0.071242
0.317362
0.471295
0.769288
1.198354
1.375827
1.282756
1.114588
0.860888
0.427797
0.005922
-0.028773
-0.226107
-0.203780
-0.084911
0.010200
0.031958
-0.037174
0.057521
0.073928
0.028903
0.043494
0.074007
0.081568
0.120502
0.062765
0.185122
0.209972
0.183092
0.248887
0.215852
0.284276
0.345129
0.323054
0.284379
0.393429
0.457413
0.434704
0.451220
0.429218
0.543861
0.540615
0.475171
0.526753
0.508407
0.483161
0.515994
0.532224
0.608434
0.580109
0.549101
0.527497
0.488976
0.543280
0.454869
0.467253
0.458366
0.415930
0.502726
0.450433
0.346001
0.417677
0.299262
0.365271
0.359372
0.296678
0.231463
0.208352
0.266624
0.266602
0.173392
0.126650
0.210634
0.105996
0.053007
0.111230
0.065565
0.103027
0.106353
0.060196
0.106485
0.053687
0.078783
0.114588
-0.026533
0.000682
0.100004
0.025634
0.077819
0.033840
0.070241
0.084055
0.011155
0.046507
0.050501
0.050169
0.041685
0.092379
0.071118
0.082465
0.080936
0.007023
-0.060065
0.094575
0.041313
-0.009627
-0.029072
0.011574
0.114401
0.085467
0.077679
0.041837
-0.004546
0.034001
0.081989
0.172905
0.026362
0.052050
0.070857
0.045331
0.030368
0.004978
0.053177
0.052265
0.115190
0.081778
0.117521
0.183447
0.098520
0.136819
0.162285
0.158479
0.199811
0.122711
0.271158
0.184002
0.229507
0.213356
0.226746
0.201895
0.243340
0.219227
0.128407
0.214681
0.104606
0.269192
0.142491
0.179884
0.240584
0.189428
0.135251
0.199272
0.152178
0.153228
0.045772
0.145325
0.142840
0.096233
0.198078
0.104307
0.063262
0.140426
0.113520
0.112389
0.130133
0.064744
0.098815
0.074107
0.121400
0.337176
0.528757
0.729531
0.967242
1.400092
1.490421
1.349184
1.120690
0.720259
0.359812
0.065830
-0.097067
-0.012455
-0.027402
0.077033
0.102050
0.063488
0.148726
0.231121
0.104998
0.190248
0.207698
0.242055
0.203913
0.155240
0.258043
0.225711
0.236264
0.319072
0.383229
0.355736
0.339199
0.356136
0.396057
0.354568
0.373277
0.451262
0.519770
0.469946
0.602918
0.556533
0.617130
0.664890
0.635687
0.634119
0.530367
0.637131
0.539054
0.629113
0.638308
0.576569
0.607215
0.572503
0.597638
0.552951
0.525799
0.491469
0.522676
0.491399
0.441787
0.394456
0.504903
0.459157
0.387042
0.297248
0.331038
0.296520
0.216496
0.283374
0.212173
0.240061
0.239334
0.211837
0.165186
0.171968
0.147064
0.135251
0.093043
