-0.021060
0.003951
0.020282
0.028590
-0.020375
0.053814
-0.048982
-0.067020
0.040919
-0.014645
0.004765
0.011355
-0.039410
0.026574
0.016743
-0.042633
0.019670
0.065796
0.009185
0.017029
0.093515
-0.025571
0.021335
0.065815
0.030564
0.041942
0.076999
0.027936
0.066323
0.068766
0.071638
0.079374
0.128307
0.155510
0.129465
0.075878
0.264294
0.173665
0.198934
0.252245
0.219612
0.211143
0.201473
0.187773
0.209243
0.229864
0.191571
0.208209
0.142569
0.183025
0.113223
0.142506
0.164703
0.148939
0.093109
0.169121
0.108158
0.145959
0.093514
0.145448
0.138027
0.144991
0.001519
0.017868
0.069198
0.019743
0.114820
0.010500
0.019448
0.042393
0.007221
0.090776
0.017516
0.070056
0.046834
0.042324
0.096682
-0.018112
-0.040632
0.028173
0.040133
0.193232
0.477386
0.819780
1.108849
1.289228
1.392617
1.204874
1.000190
0.752908
0.367296
0.048314
-0.081885
-0.195478
-0.070728
-0.146616
-0.035103
-0.026798
0.049532
0.156037
0.089658
0.083548
0.094463
0.046776
0.080228
0.064869
0.125683
0.083866
0.089136
0.144098
0.040978
0.118084
0.151534
0.212298
0.165376
0.186529
0.169001
0.196424
0.289629
0.237779
0.316012
0.353781
0.341802
0.358537
0.351873
0.315917
0.412807
0.477038
0.471103
0.410773
0.456035
0.449292
0.541826
0.533774
0.494061
0.541913
0.512745
0.490079
0.589218
0.546298
0.599497
0.585732
0.530140
0.526877
0.536503
0.574151
0.436164
0.516615
0.444065
0.493683
0.440675
0.523214
0.462636
0.412010
0.410762
0.365714
0.387502
0.311380
0.320782
0.324175
0.261351
0.183127
0.273099
0.213804
0.235378
0.133876
0.167117
0.135788
0.280246
0.132250
0.111571
0.131174
0.193740
0.102818
0.093995
0.167600
0.063630
0.069850
0.055593
0.108045
0.030860
0.035572
0.061973
0.107514
0.079587
0.102437
0.071257
0.022871
0.053821
0.101049
0.156017
0.088683
0.077901
0.032911
0.126551
0.103866
0.030436
0.061008
0.051500
0.065676
0.017543
0.064483
0.017825
0.010925
0.104640
0.141916
0.116162
0.099560
0.144285
-0.019610
0.120882
0.103125
0.031091
0.080761
0.119625
0.057174
0.077759
0.154111
0.093714
0.054679
0.077735
0.094017
0.038846
0.125421
0.045654
0.179337
0.188200
0.073749
0.101458
0.117011
0.073934
0.098831
0.079587
0.084766
0.088439
0.058523
0.070803
0.105938
0.053960
0.138044
0.147734
0.107811
0.174647
0.175269
0.196973
0.086986
0.173445
0.188050
0.224469
0.202062
0.214636
0.158671
0.181050
0.122247
0.269664
0.190839
0.183684
0.255741
0.190167
0.246807
0.243184
0.211781
0.183350
0.167335
0.153874
0.218667
0.178946
0.117437
0.129267
0.135335
0.163590
0.131471
0.183038
0.099852
0.072661
0.096547
0.068411
0.051576
0.054183
-0.006201
0.071131
0.045946
0.107889
0.037582
-0.009427
0.106780
-0.007066
0.081365
0.133626
0.039215
0.014918
0.068788
0.048947
0.025029
0.052388
0.213081
0.480840
0.734442
1.018700
1.321682
1.340391
1.324463
1.077540
0.746684
0.413163
0.146289
-0.096914
-0.171511
-0.154887
-0.081158
-0.075541
-0.058680
0.000624
0.039322
-0.003266
-0.033956
0.091909
0.011957
0.068480
0.098400
0.095790
0.130482
0.164940
0.036385
0.103884
0.073253
0.189998
0.174168
0.182981
0.224479
0.153003
0.181985
0.187174
0.223807
0.253912
0.287683
0.270651
0.310995
0.414868
0.292612
0.402406
0.402664
0.429893
0.469906
0.351561
0.430854
0.412002
0.506880
0.503148
0.448553
0.519685
0.494520
0.498945
0.538145
0.557880
0.608048
0.552150
0.503374
0.488191
0.492497
0.521383
0.446370
0.417023
0.385251
0.338712
0.429323
0.274889
0.368780
0.282044
0.258009
0.301005
0.240796
0.267784
0.245912
0.205387
0.204225
0.298756
0.203171
0.127501
0.147650
0.106746
0.027817
-0.021506
0.104871
0.029401
0.079194
0.111257
0.001915
0.040576
0.046607
0.077664
0.020902
0.067364
-0.003098
0.062766
0.051109
0.065543
0.031091
0.019509
0.029777
0.040718
0.069988
0.090323
0.057170
-0.008884
0.015789
-0.048920
0.038283
0.065869
-0.020290
-0.034527
0.026373
0.046240
-0.028599
0.004288
-0.031558
-0.057697
-0.077123
0.051321
0.060735
0.012770
-0.049388
0.055992
0.085769
0.083139
-0.014134
-0.018051
-0.000455
-0.018251
0.076178
-0.012190
0.030550
-0.058642
-0.009808
-0.007933
-0.007029
-0.014126
0.004203
0.027750
-0.040752
0.003163
-0.081862
-0.082746
0.014503
-0.004817
-0.034232
-0.058902
0.000471
0.050526
0.038759
-0.012954
0.094332
0.036769
0.093618
0.012724
0.054993
0.062743
0.063585
0.021402
0.072978
0.127909
0.053278
0.090940
0.187927
0.172552
0.082540
0.202343
0.115678
0.158501
0.137388
0.143659
0.139841
0.155560
0.090638
0.155671
0.142008
0.173054
0.120911
0.130204
0.151143
0.096331
0.106773
0.024422
0.087698
0.045798
0.029550
-0.044289
0.028197
0.058460
0.003759
0.002560
0.006179
0.020867
-0.084446
-0.005130
0.024184
-0.099886
-0.014015
0.020816
-0.044355
-0.023476
-0.001083
-0.022369
0.003655
-0.009915
-0.066641
-0.081518
-0.057780
-0.016952
-0.007346
0.317018
0.559118
0.785715
1.173717
1.256651
1.244573
1.011381
0.730799
0.359193
0.083861
-0.156400
-0.342573
-0.356288
-0.288191
-0.149837
-0.172503
0.004579
-0.043660
0.042511
-0.063189
0.033081
-0.082899
0.008663
-0.040608
-0.068853
0.065331
-0.051982
0.039437
0.047502
0.059672
-0.054401
0.055688
0.081167
0.021295
0.115833
0.112603
0.106450
0.123612
0.176454
0.186002
0.144323
0.200686
0.219044
0.234909
0.301877
0.333513
0.301797
0.383748
0.359637
0.356087
0.381556
0.318454
0.402357
0.469596
0.452116
0.445247
0.444052
0.463799
0.362984
0.429014
0.420858
0.454847
0.451421
0.394931
0.320055
0.429568
0.368476
0.315278
0.348139
0.358517
0.357904
0.263018
0.272075
0.318482
0.300656
0.206633
0.198562
0.198280
0.143944
0.183889
0.174309
0.138565
0.041144
0.118068
0.073807
0.118590
0.042116
0.020058
0.035637
-0.036044
-0.022266
-0.034011
-0.014309
0.042581
0.001059
-0.056722
0.049124
-0.071316
0.008175
-0.012373
-0.026696
-0.042992
-0.052246
-0.075441
-0.043474
-0.043826
-0.051826
0.044579
-0.037962
-0.017722
-0.073227
-0.013398
-0.029069
-0.040829
-0.068351
-0.130897
-0.045123
-0.099258
0.022355
-0.018925
-0.121126
0.072722
-0.063291
-0.056568
-0.050313
-0.067002
-0.056212
0.001772
-0.058212
-0.002356
0.008652
-0.041070
0.005111
-0.020936
-0.019697
-0.012640
-0.023665
0.000022
-0.020778
-0.056056
-0.087969
0.025695
-0.002239
-0.011433
-0.069514
-0.038081
-0.006658
-0.003546
-0.016759
0.025222
-0.073983
0.003629
-0.023072
0.080884
-0.022551
-0.023089
0.004007
0.024478
0.061324
0.019432
-0.048944
-0.015729
-0.035014
0.005465
-0.025094
0.083965
0.003425
0.097978
0.058457
0.140830
0.165445
0.219810
0.127372
0.124102
0.134209
0.074470
0.083465
0.235636
0.133294
0.181093
0.142184
0.184520
0.063608
0.081900
0.102590
0.008513
0.059121
0.075518
0.121849
0.089375
0.065640
0.098351
0.071686
-0.012071
0.023240
0.057317
0.029855
0.007088
0.066117
0.019716
0.017373
-0.012038
-0.004452
-0.016728
0.113033
0.051735
-0.083901
-0.059891
-0.012630
0.024238
-0.077788
0.041101
-0.098008
0.119253
0.287075
0.462701
0.802356
1.099853
1.362559
1.293516
1.140984
0.998613
0.589945
0.230263
0.004404
-0.189869
-0.217292
-0.190389
-0.118484
-0.031312
-0.050722
-0.022069
0.033722
0.025037
0.041518
0.057728
0.063689
0.074744
0.119913
0.103455
0.037864
0.173835
0.026643
0.086901
0.123738
0.085819
0.128757
0.152447
0.240880
0.175158
0.191368
0.217803
0.210885
0.271398
0.259844
0.301428
0.320162
0.291022
0.426949
0.359145
0.432154
0.349340
0.418314
0.441169
0.420719
0.505110
0.451202
0.431282
0.567743
0.509720
0.451714
0.557248
0.560688
0.477801
0.555665
0.534208
0.528440
0.462244
0.534453
0.510062
0.468270
0.527583
0.425846
0.424642
0.381658
0.447083
0.330491
0.328281
0.324311
0.287313
0.245571
0.228369
0.229484
0.245364
0.182442
0.213989
0.223791
0.205330
0.179589
0.129901
0.075927
0.032833
0.138293
0.125008
0.059926
0.068971
0.069136
0.098419
0.063728
0.091030
0.129462
0.045744
0.030280
0.125423
0.100796
0.031143
0.099323
0.072610
0.044755
0.154773
0.065103
0.111338
0.119459
0.071910
0.002247
-0.019941
0.085622
0.060114
0.080289
0.124131
0.020124
0.054454
0.010431
0.073683
0.084439
0.049567
0.066279
0.117133
0.080417
0.114683
0.097723
0.073488
0.180970
0.050109
0.027300
0.000601
0.074529
0.012332
0.042297
0.047547
0.092703
0.031868
0.030450
0.068516
0.100188
0.076726
0.053770
0.096683
0.023906
0.119978
0.015917
0.107021
0.143407
0.078981
0.062188
0.109578
0.082474
0.068817
0.069799
0.110249
0.090391
0.177272
0.197292
0.122412
0.136181
0.236656
0.167234
0.139681
0.196147
0.211974
0.193537
0.246193
0.185042
0.194259
0.201490
0.228528
0.196491
0.146935
0.269375
0.332976
0.282320
0.268268
0.290590
0.286693
0.340652
0.271752
0.196259
0.205701
0.242435
0.207063
0.231142
0.190697
0.177918
0.149212
0.166187
0.085065
0.216421
0.166526
0.130309
0.122896
0.099435
0.099909
0.090252
0.063671
0.099072
0.045801
0.103304
0.125881
0.122425
0.047506
0.095411
0.068496
0.084528
0.070237
0.082600
0.112150
0.027243
0.094053
0.217504
0.575171
0.753946
1.071646
1.295905
1.436612
1.298594
1.101486
0.767959
0.373219
0.157129
-0.024851
-0.160805
-0.137397
0.010241
-0.053139
0.047333
0.077237
0.141236
0.080861
0.097319
0.057132
0.174906
0.089729
0.114113
0.102261
0.067523
0.170757
0.210114
0.134494
0.209590
0.216591
0.118957
0.175614
0.142010
0.234906
0.210783
0.229645
0.340633
0.304708
0.220033
0.334048
0.449250
0.228732
0.394458
0.409085
0.360069
0.399434
0.529943
0.457055
0.500529
0.449372
0.542947
0.544220
0.497866
0.521722
0.563396
0.543004
0.573615
0.508676
0.584658
0.523433
0.544821
0.491320
0.513258
0.534727
0.475839
0.499677
0.442917
0.418517
0.426172
0.380121
0.364857
0.363757
0.412342
0.321451
0.369061
0.340780
0.282587
0.257432
0.289135
0.250798
0.199092
0.131212
0.173842
0.196358
0.149141
0.199892
0.114795
0.138355
0.004002
0.103966
0.191527
0.103205
0.099993
0.094137
0.081004
0.037995
0.081311
0.050491
0.060037
0.062418
-0.002518
0.050243
0.086393
0.067822
0.065780
0.065066
0.055273
0.024043
-0.007266
0.052559
0.003737
0.060311
0.053757
0.131220
0.054937
0.040944
0.071824
-0.013777
0.026012
0.064519
0.024908
0.104693
0.067609
0.073101
0.085663
0.114613
0.018973
0.065525
0.067196
0.077472
0.084607
0.074695
0.060341
0.076255
0.008220
0.063776
0.075547
0.054384
0.036389
0.085354
0.054687
-0.022245
0.119981
0.033935
0.089823
0.021344
0.069625
0.132960
0.077836
0.033720
0.130944
0.073627
0.006484
0.080789
0.064750
0.020609
0.012377
0.009983
-0.037361
0.103059
0.071578
0.070743
0.045209
0.173698
0.172420
0.097145
0.135780
0.162529
0.183071
0.175340
0.158150
0.152117
0.150668
0.255645
0.132824
0.156941
0.209499
0.147592
0.210443
0.144695
0.237009
0.099697
0.170672
0.176701
0.071902
0.150710
0.072112
0.095769
0.021445
0.066477
0.080047
0.062202
0.100455
0.021332
0.008109
0.029399
-0.051957
-0.026289
0.019698
0.010977
0.067710
-0.066061
0.007093
-0.060630
0.028288
0.012349
-0.055477
0.022661
-0.032767
-0.063887
0.021133
-0.005218
0.169065
0.291435
0.637515
0.841452
1.310347
1.346681
1.285775
0.972150
0.740256
0.410459
0.049337
-0.151177
-0.153960
-0.166823
-0.227622
-0.168343
-0.082056
-0.114688
0.004300
-0.003910
-0.020541
0.049443
-0.027220
-0.011492
0.011530
0.013443
-0.036567
-0.014881
0.024573
0.022533
0.031479
0.074422
0.183010
0.177359
0.098178
0.110934
0.183411
0.209493
0.119029
0.187155
0.286682
0.166880
0.180735
0.254605
0.241894
0.364239
0.315861
0.317360
0.278467
0.384093
0.290899
0.375405
0.277511
0.428165
0.385398
0.475148
0.419471
0.474721
0.491455
0.437513
0.451646
0.494663
0.445268
0.309628
0.388103
0.485173
0.408853
0.286758
0.368638
0.304390
0.282333
0.324180
0.308485
0.249369
0.236363
0.261633
0.162855
0.159029
0.203696
0.138874
0.050107
0.127171
0.093786
0.129573
0.041163
0.058984
0.001745
0.054663
0.126441
-0.063151
-0.033037
0.022793
0.081004
-0.037145
-0.047665
-0.015129
0.023045
-0.044036
-0.030545
-0.014966
-0.020762
-0.059067
-0.044947
-0.086351
-0.019749
-0.051395
-0.048619
-0.075528
-0.054027
-0.051230
-0.025814
-0.079454
-0.108250
-0.006077
0.005266
-0.014268
-0.040421
-0.104702
-0.082822
-0.045974
-0.091096
0.014356
-0.081351
-0.046543
-0.063133
-0.020163
-0.111033
-0.058431
-0.090914
-0.078512
-0.101379
-0.063751
-0.013561
-0.017153
-0.108155
-0.118338
-0.053362
-0.110266
-0.067548
-0.060594
-0.096863
-0.073425
0.000540
-0.045627
-0.092035
-0.082597
-0.044560
-0.071587
-0.086233
-0.074196
-0.034876
-0.000143
-0.068903
-0.077150
-0.024422
-0.121334
-0.020206
0.009375
-0.017492
0.059329
-0.008229
-0.066981
-0.050249
-0.005065
0.054312
0.022099
-0.004151
0.027316
0.088745
0.051319
0.019501
0.130301
0.058700
0.073868
0.137662
0.122492
0.066329
0.122793
0.044446
-0.004962
0.021530
0.127810
0.044201
0.065799
0.104302
0.089244
0.055075
0.004631
-0.008144
0.008814
0.093679
0.050560
-0.055143
-0.059233
0.037843
-0.052361
-0.004229
-0.025038
-0.065031
-0.045503
-0.065126
-0.010972
-0.031791
-0.084848
-0.066000
-0.123987
-0.075067
-0.014768
-0.085183
-0.054131
-0.075407
-0.128949
-0.061194
-0.081092
0.015800
0.255966
0.502066
0.780435
1.088705
1.180387
1.150221
1.066793
0.769075
0.363920
0.052297
-0.162759
-0.258911
-0.289890
-0.210379
-0.145809
-0.242636
-0.147796
-0.005136
-0.101973
0.002859
-0.069635
0.011429
-0.114678
0.063863
-0.056706
0.005792
-0.045344
0.011011
0.035170
0.050839
0.025618
0.062611
0.083839
0.091766
0.047650
0.106110
0.114441
0.075712
0.145077
0.180894
0.152830
0.263389
0.208831
0.241204
0.200366
0.277067
0.296895
0.279970
0.388587
0.333960
0.373070
0.359526
0.423594
0.488068
0.451295
0.425461
0.404715
0.402968
0.375329
0.437913
0.377342
0.460884
0.391212
0.346124
0.421452
0.377156
0.308516
0.386109
0.359546
0.319469
0.307217
0.326975
0.273654
0.255091
0.192237
0.221796
0.184547
0.177058
0.244387
0.114895
0.132601
0.017977
0.046444
0.079384
0.049618
0.021036
0.083921
0.002588
-0.050999
0.084325
0.032747
-0.006322
-0.005696
-0.062327
0.000852
0.024047
-0.001379
-0.028563
-0.026212
-0.060937
-0.092164
-0.021277
-0.011567
-0.027491
-0.046529
-0.056350
-0.049130
-0.072129
-0.026868
-0.053531
-0.074049
-0.026963
-0.028856
-0.045089
-0.056957
-0.039568
-0.114082
-0.047746
-0.057714
-0.050793
-0.003217
-0.078382
-0.027307
-0.063982
-0.049242
0.010111
-0.016179
0.020542
-0.020336
0.015178
0.010188
-0.037495
0.021142
-0.044522
0.011656
-0.073634
0.020331
-0.029492
-0.008455
0.023720
0.001631
-0.071584
0.045398
0.021812
-0.001385
-0.016866
0.001929
0.058871
-0.028351
-0.030097
-0.045768
0.010189
0.011466
-0.006406
-0.012196
0.063430
-0.003258
0.047973
-0.014836
0.066162
0.120441
0.122832
0.042872
-0.020467
-0.018185
0.104718
0.130206
0.130938
0.133558
0.169641
0.094006
0.051723
0.100876
0.076329
0.106831
0.128366
0.089709
0.188323
0.196161
0.142911
0.147934
0.100474
0.142815
0.151294
0.104381
0.091082
0.173017
0.076213
0.112167
0.096761
-0.013057
0.071670
0.071507
0.015457
0.047540
0.007208
0.002845
0.031123
-0.022565
-0.032160
0.018786
-0.038164
0.013662
0.076556
-0.013797
0.041262
0.026357
0.005444
-0.009764
0.029600
-0.026607
-0.042825
-0.050002
0.068406
0.163511
0.419423
0.804847
1.040266
1.290404
1.268974
1.216584
0.919955
0.509642
0.231619
0.067348
-0.163511
-0.264904
-0.207231
-0.085248
-0.056617
-0.049768
-0.004232
0.015527
0.001586
-0.034975
0.021026
0.053819
0.061283
0.107219
0.041983
0.080674
0.140526
0.063893
0.074386
0.165096
0.146446
0.067419
0.136801
0.163693
0.174241
0.170167
0.218745
0.163199
0.259983
0.247887
0.285168
0.315388
0.328080
0.372049
0.316617
0.447524
0.313562
0.423629
0.432150
0.493400
0.478133
0.472252
0.491335
0.494263
0.530825
0.567430
0.406147
0.585269
0.510361
0.551941
0.513054
0.515288
0.503125
0.434764
0.496704
0.485916
0.475108
0.391852
0.393729
0.421021
0.435697
0.331498
0.367550
0.306765
0.369447
0.306163
0.185943
0.240322
0.270932
0.204842
0.216849
0.173971
0.204833
0.111056
0.098767
0.134816
0.157657
0.124265
0.089508
0.045962
0.047086
0.146057
0.030778
0.152824
0.066513
0.051663
0.117884
0.021246
0.083009
0.068337
0.178434
0.068199
0.013643
0.067858
-0.066907
0.029245
0.136276
0.106545
0.034950
0.070705
0.027632
0.030983
-0.029447
0.060572
-0.017392
0.059309
0.094743
0.040450
0.122923
-0.018669
0.041588
0.048098
0.063636
0.013022
0.080567
0.075558
-0.003779
0.083059
0.039018
0.033289
0.022640
0.025723
0.023756
0.045398
0.061823
-0.008928
-0.021356
0.073572
0.065572
0.062665
-0.003819
-0.030682
0.033333
0.095989
0.050715
-0.008828
0.011210
0.062172
0.033751
-0.032648
0.056696
0.038705
0.103322
0.027240
0.097335
-0.013628
0.078937
0.040347
0.064809
0.113314
0.095969
0.118707
0.092758
0.108201
0.140393
0.106171
0.137854
0.106926
0.178035
0.187415
0.182180
0.162833
0.157545
0.212755
0.227213
0.153433
0.182914
0.194734
0.257723
0.241253
0.133531
0.195154
0.181205
0.242287
0.181088
0.118402
0.130613
0.100122
0.116304
0.151745
0.102441
0.092569
0.093741
0.146880
0.018438
0.025230
0.087858
0.026401
0.089533
0.014767
0.009360
0.048426
0.015352
0.023739
-0.025079
0.059556
-0.015583
0.024750
0.049090
0.015191
-0.055020
0.049769
0.110987
0.096462
0.347698
0.688984
0.911246
1.204381
1.343158
1.341097
1.059737
0.731258
0.386095
0.028463
-0.116738
-0.260153
-0.161531
-0.165246
-0.131035
0.005598
0.053682
0.017104
0.108432
0.038984
0.062535
-0.005969
0.030462
0.045512
0.097335
0.059769
0.056911
0.056267
0.089673
0.095415
0.098344
0.084846
0.104806
0.147807
0.167674
0.171151
0.127859
0.201606
0.167328
0.208400
0.291921
0.264436
0.302267
0.293522
0.322671
0.331722
0.382810
0.414288
0.406483
0.455956
0.426766
0.362718
0.376765
0.504888
0.395697
0.448915
0.456057
0.503270
0.445622
0.462536
0.463001
0.515740
0.441802
0.431038
0.470127
0.460670
0.409954
0.344561
0.331057
0.370100
0.307436
0.346778
0.303502
0.305231
0.233051
0.258760
0.225533
0.155401
0.160579
0.222316
0.107407
0.139309
0.056833
0.097709
0.165158
0.108528
0.004919
0.032386
0.070547
0.081283
0.063331
0.031099
-0.070686
0.044907
0.002614
-0.036675
-0.025886
0.035545
-0.011014
-0.028977
-0.004492
-0.053533
-0.042391
-0.012665
-0.015505
-0.042477
-0.012999
0.021221
-0.019331
0.016440
-0.102655
-0.017122
-0.053069
0.021075
-0.080075
-0.095848
-0.059060
0.037557
-0.023792
-0.063531
-0.048897
-0.165793
-0.037576
0.032847
-0.073800
-0.069288
-0.060963
-0.030263
-0.072575
-0.073270
-0.038998
-0.085863
-0.093712
-0.062803
-0.053223
-0.063708
-0.040853
-0.028179
-0.097651
-0.076113
-0.004040
-0.038526
-0.089858
-0.055025
-0.040807
-0.093236
-0.048607
-0.077953
-0.045831
-0.078341
-0.053490
-0.064585
-0.045384
-0.045474
-0.079885
-0.107880
-0.034870
0.027163
-0.010297
0.020425
-0.052725
-0.006639
0.031966
-0.019137
-0.034805
0.000325
0.009152
0.093509
0.141970
0.124698
0.041192
0.154324
-0.061539
0.117423
0.148747
0.151187
0.107473
0.134779
-0.031511
0.020895
0.128106
0.043008
0.160826
0.088256
0.019172
0.042487
0.016478
0.016645
0.019829
0.011753
0.010021
-0.109529
-0.047819
-0.032641
-0.015633
-0.009927
-0.003435
-0.111286
-0.060085
-0.093512
-0.165100
-0.121971
-0.093462
-0.020949
-0.056077
-0.121280
-0.086896
-0.062391
-0.144097
-0.098055
-0.069070
-0.154520
-0.100144
0.011217
0.199160
0.527548
0.783337
1.057727
1.242932
1.232733
1.066493
0.734990
0.401394
0.071868
-0.188717
-0.310946
-0.349269
-0.298758
-0.222894
-0.030227
-0.105801
-0.167616
-0.090020
-0.100694
-0.132517
0.005830
-0.079418
-0.069354
0.046223
-0.020159
-0.063166
-0.052088
-0.015519
0.021432
0.065454
0.048549
0.025604
0.058614
0.075250
0.057252
0.091902
0.101424
0.132962
0.114677
0.151773
0.212799
0.225418
0.252044
0.192343
0.259077
0.315108
0.276835
0.270491
0.273427
0.324796
0.331336
0.332541
0.384080
0.389063
0.321433
0.429693
0.428133
0.342319
0.393260
0.432953
0.402546
0.350428
0.435684
0.344091
0.293366
0.349177
0.276701
0.269522
0.236867
0.284666
0.269331
0.217840
0.251432
0.156522
0.247647
0.201526
0.175637
0.087429
0.115815
0.068957
0.037981
0.019703
-0.039122
-0.002281
0.014032
0.005955
-0.043945
-0.070765
-0.068123
-0.061399
-0.114471
-0.057010
-0.109839
-0.095449
-0.051833
-0.147742
0.008216
0.004497
-0.078442
-0.090342
-0.088442
-0.049812
-0.119983
-0.159488
-0.094840
-0.079968
-0.161626
-0.077803
-0.141727
-0.080538
-0.090709
-0.093958
-0.025983
-0.084457
-0.098229
-0.032047
-0.109101
-0.118172
-0.055658
-0.144378
-0.042406
-0.039556
-0.117743
-0.094357
-0.033549
-0.083888
-0.136419
-0.045226
-0.066593
-0.175749
-0.111064
-0.036084
-0.051497
-0.067768
-0.107766
-0.025460
-0.089507
-0.153931
-0.100913
-0.060248
-0.060288
-0.060846
-0.062900
-0.101525
-0.062418
-0.053596
-0.052163
-0.079979
-0.055212
-0.077371
0.044204
0.000931
-0.084126
-0.100535
-0.073637
-0.047649
-0.089822
-0.073067
0.033846
-0.073658
0.020075
-0.110976
0.000015
0.055592
0.049257
0.021376
0.128930
0.054616
0.048199
0.074793
0.099044
0.021815
0.166774
0.127303
0.146910
0.068084
0.121400
0.072975
0.127897
0.130766
0.100783
0.012249
0.014885
0.124296
0.105813
-0.029404
0.011928
0.003069
-0.040331
-0.002125
0.006134
-0.006901
0.004618
-0.021658
-0.021501
-0.015873
-0.121346
-0.026119
-0.017269
-0.044758
-0.137902
0.008018
-0.016409
-0.047880
-0.018734
-0.059749
-0.023750
-0.114970
-0.014609
-0.076038
-0.078242
-0.099627
0.061657
0.149777
0.447775
0.751534
1.076235
1.247552
1.268554
1.140315
0.779297
0.491321
0.210471
0.005225
-0.281187
-0.307773
-0.320061
-0.145710
-0.031649
-0.156498
-0.024858
-0.019110
-0.029709
-0.060150
0.100779
-0.018909
-0.089185
-0.001099
0.074414
0.019498
-0.024767
-0.014291
0.073288
0.001546
0.058249
0.007436
0.129814
0.078482
0.131689
0.132146
0.060071
0.160637
0.143037
0.198022
0.254280
0.337134
0.216158
0.234841
0.382402
0.286739
0.397840
0.340636
0.354980
0.433987
0.441359
0.386596
0.439129
0.435563
0.364490
0.513906
0.387556
0.490375
0.536030
0.519594
0.386504
0.480962
0.463210
0.492922
0.499836
0.343949
0.424018
0.356388
0.417066
0.371570
0.367922
0.324985
0.342262
0.285042
0.328209
0.192772
0.217520
0.279021
0.176394
0.130030
0.178363
0.131110
0.172545
0.104739
0.089986
0.125213
0.058892
-0.011134
0.055808
0.009696
-0.028265
0.002030
0.029876
0.134621
0.023631
0.039450
0.043227
-0.022892
0.105330
0.021503
0.119009
0.001552
-0.010099
0.017939
-0.058403
0.025568
0.079812
0.036780
-0.052404
0.074299
0.075960
-0.051517
0.004033
-0.002045
0.085654
0.083249
-0.035990
0.030804
0.049578
0.086749
0.018531
0.030745
-0.037822
0.011402
-0.011831
-0.017655
0.020773
0.008886
-0.027618
0.087258
0.037092
-0.004065
0.043676
0.050497
0.076966
0.087234
0.019185
0.023640
0.032488
0.036648
-0.061461
0.016005
-0.065454
0.034656
0.089807
0.080230
0.067094
0.016618
0.059369
0.064607
0.022074
0.035757
0.079137
0.035297
0.040697
0.114112
0.029845
0.046094
0.036674
0.062609
0.134383
0.068813
0.141257
0.186346
0.096102
0.111164
0.159437
0.191827
0.238268
0.155967
0.242170
0.267088
0.211633
0.236824
0.270784
0.237282
0.266046
0.213187
0.231091
0.193915
0.251132
0.282159
0.184347
0.177708
0.186589
0.185989
0.155037
0.102209
0.177952
0.032536
0.064891
0.221342
0.111150
0.058635
0.097779
0.071929
0.066162
0.123985
0.129287
0.011039
0.045175
0.059316
0.094818
0.034056
0.071476
0.097008
0.051943
0.042056
0.021308
0.003075
0.044150
0.128960
0.097161
0.230127
0.550286
0.744293
1.079917
1.358127
1.500000
1.291726
1.084874
0.800523
0.372102
0.084496
-0.169395
-0.094806
-0.191614
-0.063793
0.039374
0.053690
0.040655
0.103822
0.068284
0.124956
0.021392
0.136247
0.107567
0.160247
0.139869
0.162383
0.115256
0.107088
0.111052
0.173501
0.188845
0.182962
0.172918
0.182825
0.294533
0.188650
0.236904
0.275366
0.256996
0.314052
0.308474
0.359872
0.324081
0.344057
0.374793
0.410356
0.382254
0.454131
0.501487
0.433150
0.540430
0.501968
0.498337
0.496539
0.557982
0.614135
0.553883
0.532368
0.580183
0.515821
0.533101
