-0.025865
-0.088556
0.054010
0.048347
0.176083
-0.022737
-0.013009
-0.028090
-0.048523
0.009457
-0.003674
0.080152
0.009655
0.036719
0.001831
0.079845
0.043389
0.031515
0.041408
-0.016716
0.066383
-0.011854
0.190588
0.050812
0.115945
0.126452
0.194723
0.133027
0.074655
0.131930
0.179821
0.145423
0.201786
0.254887
0.202443
0.234588
0.215382
0.219314
0.285363
0.261679
0.199923
0.179044
0.245443
0.194808
0.169108
0.209692
0.117352
0.150513
0.131906
0.216635
0.187984
0.148942
0.091661
0.070541
0.084921
0.113827
0.080492
0.006452
0.000786
0.136992
0.129039
0.080665
0.081714
0.141902
-0.045956
-0.004715
0.085295
0.066537
0.067900
0.263273
0.455754
0.692555
0.941682
1.349893
1.491490
1.397045
1.125991
0.630175
0.378178
0.161574
-0.135048
-0.141498
-0.176033
-0.134676
0.007790
0.085451
0.061014
0.038151
0.221260
0.101368
0.176139
0.140006
0.130139
0.111175
0.173262
0.218260
0.179926
0.265847
0.119608
0.276054
0.338835
0.409145
0.227736
0.367200
0.395320
0.383046
0.389454
0.477800
0.464084
0.365853
0.451789
0.569889
0.545055
0.516096
0.548177
0.504673
0.589808
0.631418
0.637915
0.589918
0.583083
0.672430
0.581063
0.647349
0.594591
0.566060
0.714007
0.513965
0.573786
0.490266
0.469316
0.587524
0.394683
0.553017
0.425801
0.379972
0.367248
0.312567
0.378122
0.311597
0.381304
0.267533
0.325443
0.277746
0.084513
0.240842
0.178788
0.194558
0.198375
0.220117
0.108467
0.121360
0.060298
0.133804
0.078113
0.141387
0.051294
0.186400
0.130700
0.056485
0.132367
0.121480
0.120236
0.025899
0.184527
0.100099
0.091856
0.047912
0.101948
0.173049
0.044076
0.120926
0.057645
0.108713
0.093554
0.100147
0.077132
0.126726
0.112834
0.158584
0.103169
0.025808
0.106362
0.030003
0.049047
0.030995
0.081523
0.070538
0.058850
0.090901
0.081092
-0.019801
0.116751
0.097902
0.083417
0.098935
0.105304
0.094503
0.095597
0.083495
0.210667
0.065541
0.108992
0.129427
0.124126
0.081363
0.101032
0.205315
0.140775
0.171027
0.230531
0.211264
0.230843
0.196600
0.241302
0.238186
0.223786
0.232502
0.235368
0.247913
0.277571
0.341074
0.292733
0.294161
0.265316
0.190880
0.336348
0.264602
0.191539
0.228991
0.181318
0.281289
0.144162
0.138709
0.139887
0.207974
0.229406
0.171610
0.222312
0.185206
0.043026
0.252226
0.187780
0.130429
0.103814
0.034343
-0.008884
0.024529
0.177945
0.061167
0.118392
0.023927
0.138344
0.066234
0.263811
0.357271
0.734514
0.973960
1.391749
1.485698
1.467887
1.211124
0.889185
0.469597
0.179013
-0.021722
-0.177877
-0.082556
-0.023011
0.052349
0.083787
0.052867
0.101402
0.087931
0.089001
0.161170
0.125994
0.142015
0.290615
0.229107
0.177966
0.152225
0.204830
0.232814
0.266935
0.288241
0.241827
0.299897
0.371911
0.444320
0.391708
0.525820
0.394831
0.490701
0.482432
0.544141
0.545083
0.505007
0.528850
0.673646
0.532368
0.573172
0.577988
0.585399
0.564674
0.630772
0.629013
0.586182
0.569549
0.588536
0.564463
0.568594
0.491730
0.571123
0.484853
0.452727
0.513552
0.507079
0.442608
0.385213
0.431652
0.422711
0.392300
0.407836
0.298307
0.266831
0.311942
0.273280
0.150581
0.217635
0.199744
0.160587
0.167284
0.151851
0.106660
0.210223
0.075824
0.215853
0.130525
0.163835
0.067709
0.017099
0.119625
0.030556
0.091623
0.018726
0.074617
0.127044
0.047111
0.096282
0.044513
0.017453
0.060501
0.136738
0.051072
0.022663
0.060166
0.038897
0.062566
0.089801
0.074972
-0.044800
0.047538
0.087225
0.004739
0.010934
0.017561
-0.064226
0.053190
-0.031357
-0.011525
-0.007243
0.038054
0.061152
0.023077
0.039487
0.036069
0.086911
0.071271
0.073792
0.040301
0.021520
0.071508
0.029212
0.020897
0.025854
0.078062
0.052068
0.052950
0.034343
0.108041
0.021931
0.001362
0.005852
0.104299
0.072989
0.095390
0.190511
0.112720
0.158077
0.210372
0.102040
0.195289
0.198369
0.218472
0.123553
0.213435
0.144517
0.119867
0.101833
0.190971
0.251256
0.061515
0.137464
0.202707
0.195083
0.111200
0.169833
0.130150
0.152532
0.173702
0.036778
0.031026
0.057233
0.077321
0.068907
0.078028
0.049176
0.070784
0.009338
0.012014
0.036408
0.019815
0.003113
-0.000082
0.023671
0.053085
-0.066922
-0.021851
0.043175
0.243603
0.494008
0.967395
1.188280
1.322018
1.405316
1.304369
0.845369
0.469982
0.107073
-0.091129
-0.179822
-0.232789
-0.154620
-0.033042
-0.010657
0.016920
0.022923
-0.050242
-0.019985
0.064126
0.059105
0.097092
0.060075
0.018937
0.148268
0.057212
0.142448
0.119727
0.122142
0.253219
0.263832
0.198757
0.157563
0.278456
0.260598
0.315261
0.395411
0.404937
0.365699
0.413619
0.393422
0.408512
0.506014
0.500002
0.515129
0.401514
0.479836
0.542217
0.502348
0.524759
0.449086
0.469488
0.450524
0.448997
0.526187
0.449560
0.326935
0.521716
0.388147
0.465550
0.398307
0.438500
0.359053
0.274455
0.325239
0.384128
0.225087
0.318485
0.259626
0.133871
0.271882
0.164365
0.109950
0.163214
0.022493
0.092370
0.085127
0.123859
0.041804
0.078677
0.016922
0.062223
0.035700
-0.037196
-0.095484
-0.025727
-0.076784
0.000231
0.023677
0.020618
0.019803
-0.033902
-0.050169
-0.022941
-0.017564
-0.110827
-0.065352
-0.107259
-0.015830
-0.068235
-0.035377
-0.087798
-0.034033
-0.055618
-0.040828
-0.098461
-0.060245
-0.090046
-0.026972
-0.069492
-0.149887
-0.065093
-0.020722
-0.109717
-0.076843
-0.153147
-0.038388
-0.045120
-0.106867
-0.055500
0.062534
-0.048788
0.015398
-0.117818
-0.054696
-0.006993
-0.057090
-0.028377
-0.118623
-0.014902
-0.041310
0.012356
-0.009474
0.053437
-0.030126
-0.002294
0.036794
0.004758
-0.001893
0.001623
-0.000386
0.045535
0.051472
0.059126
0.161751
0.115367
0.120083
0.035987
0.109121
0.084150
0.125494
0.097838
0.102212
0.069888
0.101859
0.088309
0.060718
0.173416
0.156112
0.069735
0.121555
0.114753
0.196244
0.093395
0.072250
0.101915
-0.049393
0.026445
0.006361
0.020721
-0.000733
-0.021619
-0.080757
0.058680
-0.104805
-0.049543
-0.094505
-0.020247
-0.097357
-0.017954
-0.040282
-0.103399
-0.072995
0.134383
0.258003
0.493514
0.847181
1.150105
1.390528
1.422332
1.172641
0.878705
0.548991
0.237150
-0.117084
-0.167196
-0.226031
-0.196359
-0.113356
-0.058007
-0.045983
0.015263
-0.056859
0.025848
0.098706
0.063799
0.074016
0.029603
0.132805
0.050245
0.077266
0.173203
0.124766
0.178072
0.204525
0.183414
0.251323
0.217783
0.254191
0.213050
0.321625
0.283771
0.325885
0.406183
0.367590
0.446038
0.386293
0.451916
0.493474
0.463506
0.423380
0.475006
0.420238
0.540150
0.494986
0.586461
0.499602
0.573581
0.479908
0.441716
0.455865
0.483392
0.405749
0.478752
0.459792
0.507965
0.487814
0.349467
0.363855
0.421214
0.362635
0.294334
0.328350
0.224487
0.286766
0.159208
0.219451
0.266446
0.068643
0.186956
0.123173
0.061278
0.119034
0.165762
0.058692
0.027545
0.025370
0.065208
0.013556
-0.015108
-0.012793
-0.020770
-0.056970
0.012943
-0.078101
0.038458
0.043206
-0.077010
0.010445
0.044884
0.009570
-0.050641
-0.014462
0.017212
-0.007334
-0.036052
-0.068803
0.017963
-0.023483
0.014904
0.058571
0.020584
0.052859
-0.003952
0.014858
0.029425
0.087481
-0.033441
0.000376
0.031188
0.084885
0.064822
0.077993
-0.020126
0.043158
0.068143
0.036481
0.030307
0.003825
0.013482
0.012302
0.074313
-0.086736
-0.010109
-0.009891
0.024649
0.033568
0.008105
0.029673
0.149046
0.085644
0.135078
0.171857
0.096828
0.141353
0.142480
0.038031
0.081716
0.196985
0.185865
0.328132
0.088313
0.209495
0.214714
0.219046
0.257792
0.242870
0.228789
0.228413
0.275706
0.143441
0.203190
0.204408
0.173110
0.208499
0.195921
0.207494
0.253936
0.191728
0.173735
0.149328
0.141318
0.099356
0.130595
0.074906
0.115888
0.036727
0.052299
0.152795
0.076491
0.036380
0.077411
0.004806
0.040686
0.109241
0.055262
0.022222
0.112305
0.023759
0.290290
0.535578
0.878680
1.116381
1.279041
1.437313
1.343799
1.042466
0.668786
0.255437
0.041763
-0.151247
-0.210624
0.001357
-0.022705
0.071436
0.003567
0.118234
0.073518
0.068475
0.064124
0.171694
0.133626
0.211682
0.097109
0.168002
0.207275
0.214778
0.216863
0.270747
0.258887
0.307761
0.349531
0.341178
0.351571
0.409999
0.367719
0.416283
0.461175
0.490565
0.526468
0.515799
0.467654
0.526868
0.551693
0.564749
0.530128
0.609143
0.569632
0.649007
0.608796
0.542349
0.554795
0.582807
0.584587
0.693840
0.556485
0.577687
0.552015
0.561698
0.471523
0.493391
0.453100
0.523688
0.457467
0.426631
0.454365
0.328414
0.418716
0.378464
0.257652
0.366283
0.255639
0.315827
0.261938
0.321521
0.237606
0.258312
0.281676
0.237495
0.136098
0.124488
0.146282
0.155564
0.075652
0.184281
0.133919
0.108536
0.140480
0.078468
0.123988
0.073346
0.155465
0.125719
0.017111
0.142775
0.080897
0.074135
0.062236
0.122089
0.086957
0.084109
0.064357
0.159372
0.069472
0.008275
0.119376
0.064696
-0.026919
0.189124
0.027467
0.071590
0.104311
0.127909
0.111708
0.135104
0.117895
0.095873
0.022929
0.104557
0.177230
0.115945
0.139054
-0.002720
0.159337
0.171712
0.058110
0.160171
0.125197
0.136274
0.044531
0.102942
0.074580
0.042492
0.115673
0.146607
0.129778
0.139699
0.173551
0.150373
0.185989
0.229699
0.207960
0.317917
0.250790
0.280440
0.228213
0.222742
0.214147
0.244414
0.310603
0.185893
0.280553
0.382401
0.347537
0.229864
0.309224
0.302291
0.188734
0.256981
0.230819
0.279950
0.268505
0.188074
0.203706
0.188557
0.185847
0.142993
0.092138
0.177396
0.154586
0.158471
0.138630
0.124923
0.208735
0.108951
0.077766
0.017386
0.043158
0.105137
0.096052
-0.021187
0.148967
0.055105
0.170374
0.291098
0.507911
0.770059
1.162006
1.423530
1.500000
1.394432
1.191508
0.762645
0.386964
0.056772
-0.027826
-0.153319
-0.122392
-0.086282
0.022001
0.058766
0.065008
0.141019
0.084899
0.110076
0.177635
0.191402
0.234684
0.151600
0.211779
0.300436
0.252702
0.234451
0.194273
0.352565
0.255123
0.314447
0.351118
0.335541
0.381051
0.440360
0.479765
0.459643
0.408480
0.483733
0.438817
0.487980
0.546180
0.531511
0.529240
0.616224
0.537456
0.607570
0.631446
0.524638
0.589586
0.686518
0.632879
0.625152
0.603651
0.650488
0.560463
0.607896
0.529528
0.520031
0.524974
0.513523
0.464322
0.514443
0.447372
0.383911
0.322991
0.394779
0.282678
0.319083
0.262645
0.244538
0.198229
0.162127
0.208767
0.254587
0.163791
0.080918
0.165071
0.109656
0.177691
0.147852
0.122366
0.077617
0.051596
0.114889
0.026420
0.047729
0.074394
0.051478
0.008336
0.086530
0.084821
0.113245
0.029797
0.108258
0.101889
-0.000937
0.076274
-0.011847
0.018018
-0.023434
0.095333
0.063490
0.056409
0.036634
0.013604
0.034376
0.048433
-0.024417
0.030009
0.013920
-0.003318
-0.006272
-0.039730
0.015865
-0.052834
-0.025233
0.054731
0.047928
0.010785
-0.000943
0.045085
0.059839
-0.024860
0.058983
-0.061978
0.005463
0.067225
0.069724
0.077572
0.019805
-0.014629
0.078372
-0.032443
0.087427
0.008581
0.099296
0.036007
0.127572
0.110427
0.103770
0.138506
0.124105
0.191901
0.134797
0.214972
0.166447
0.212561
0.255945
0.235925
0.103404
0.168035
0.146604
0.225476
0.134224
0.173486
0.258905
0.172263
0.162646
0.100510
0.130355
0.063941
0.078060
0.094789
0.054723
0.112104
0.057977
0.062788
0.064986
0.013134
-0.068762
-0.022185
0.073235
-0.019005
0.018849
-0.054903
-0.096553
-0.054501
-0.048853
0.057856
-0.026276
-0.091099
0.086178
0.082942
0.333137
0.564772
0.976314
1.310292
1.402972
1.360509
1.082793
0.768599
0.341112
0.026186
-0.237081
-0.230882
-0.229210
-0.156204
-0.027855
0.018245
0.041793
-0.061200
0.026148
-0.038686
0.071104
-0.007976
0.031053
0.098712
0.113980
0.102426
0.101867
0.086658
0.074398
0.162934
0.168674
0.100989
0.145862
0.230131
0.224036
0.245895
0.281912
0.409190
0.285379
0.269825
0.427667
0.347180
0.496796
0.470011
0.452890
0.489999
0.443195
0.427271
0.448817
0.457753
0.515631
0.486604
0.518177
0.554144
0.468126
0.536980
0.420691
0.434808
0.384060
0.417245
0.428928
0.328702
0.367907
0.311771
0.285141
0.313675
0.250786
0.177200
0.210014
0.223878
0.174106
0.238226
0.158348
0.170765
0.181736
0.051229
0.067156
-0.033251
-0.051214
0.018221
0.000989
0.029531
-0.036763
-0.054212
0.064480
-0.017345
-0.025051
-0.043068
0.097691
-0.054150
-0.029646
-0.043552
-0.017979
-0.090199
0.015470
0.032091
-0.126992
0.006269
0.001617
-0.085394
-0.103097
-0.087212
-0.126332
-0.001042
-0.142080
-0.056708
-0.061756
0.015260
-0.000695
-0.034190
-0.137183
-0.003155
-0.037958
-0.017199
-0.053875
-0.111088
-0.095826
-0.123261
-0.105992
-0.123426
-0.056141
-0.122218
-0.094171
-0.039410
-0.095110
-0.191594
-0.079332
-0.118129
-0.136696
-0.045586
-0.009923
-0.089597
-0.044442
-0.008436
-0.101352
-0.007996
-0.059270
-0.063287
-0.081235
0.011495
-0.011747
0.022415
-0.016964
-0.015239
0.070371
-0.007135
0.097200
0.008770
0.117147
0.084859
0.127880
0.100188
0.100610
0.131019
0.041527
0.048444
0.068531
0.136143
0.005200
0.038583
0.027611
0.039270
-0.014961
-0.041779
-0.062383
0.081644
-0.005107
-0.008539
0.010089
-0.064172
-0.026393
-0.138235
-0.097326
-0.076724
-0.083044
-0.066837
-0.048696
-0.032623
-0.053733
-0.047936
-0.156641
-0.118317
-0.104215
-0.078103
0.031264
0.315434
0.514667
0.893013
1.190814
1.294035
1.451896
1.141312
0.785522
0.404461
0.112780
-0.203476
-0.304830
-0.257101
-0.202176
-0.077526
-0.249562
0.008145
-0.040374
-0.020467
-0.065216
-0.059995
-0.067481
0.002366
-0.072556
-0.007048
0.051911
0.046529
0.156532
0.137131
0.107517
0.111025
0.118982
0.135918
0.169038
0.123121
0.255702
0.244326
0.309342
0.400705
0.351681
0.274578
0.324837
0.404902
0.373744
0.417155
0.445228
0.403118
0.522262
0.533138
0.486991
0.391126
0.404274
0.487065
0.525184
0.519374
0.438401
0.441789
0.373704
0.435349
0.435358
0.406985
0.343431
0.327015
0.241286
0.286803
0.306773
0.211887
0.192180
0.135430
0.230816
0.130027
0.136200
0.125518
0.124653
-0.009741
0.091466
0.062378
0.105404
-0.068567
0.029336
0.002248
0.039803
0.054694
-0.042429
-0.021283
0.043297
-0.007631
0.028234
-0.021060
-0.067741
-0.014810
-0.022143
-0.062725
-0.169045
-0.078227
-0.040541
-0.094532
-0.036020
0.019148
-0.065045
-0.017794
-0.060875
-0.059289
0.012198
-0.086650
-0.010947
0.091407
-0.066419
0.013456
-0.064150
-0.048459
-0.068540
-0.028180
-0.095738
0.018161
-0.047895
-0.013800
-0.067093
-0.045493
-0.023173
-0.085320
0.049941
-0.053378
-0.049725
0.012254
-0.057690
-0.138883
-0.100271
-0.000365
-0.084528
-0.066159
0.080509
-0.029657
-0.060921
-0.044047
-0.034922
0.012916
0.146262
0.090133
0.111311
0.014169
0.088334
0.081679
0.104697
0.142466
0.066005
0.175597
0.182112
0.094978
0.110850
0.136026
0.106267
0.166340
0.224601
0.218513
0.198052
0.228986
0.182338
0.139672
0.210059
0.162132
0.197744
0.233429
0.020461
0.030985
0.071299
0.083266
0.044679
0.052328
-0.000561
0.096546
0.067584
0.047797
0.023660
0.027505
-0.024352
-0.061825
-0.050730
-0.004922
-0.053551
0.006619
-0.106576
-0.019376
-0.002887
0.103269
0.227771
0.458294
0.884190
1.179273
1.443798
1.369628
1.219856
0.967151
0.540730
0.183226
-0.021027
-0.194243
-0.195701
-0.150019
-0.087711
-0.035534
-0.052745
0.047014
0.031333
0.108549
0.160673
0.033476
0.073913
0.180210
0.146302
0.187639
0.098679
0.068705
0.166225
0.132023
0.213383
0.206856
0.256035
0.300660
0.293297
0.272660
0.290122
0.412226
0.404659
0.389549
0.494826
0.433552
0.460852
0.434187
0.588005
0.439645
0.519879
0.604450
0.540703
0.560297
0.579250
0.546629
0.565192
0.644167
0.617836
0.512740
0.536637
0.499875
0.421839
0.447382
0.516586
0.501492
0.493104
0.387074
0.454530
0.382334
0.387233
0.375654
0.345736
0.259972
0.177186
0.232625
0.276470
0.240413
0.156102
0.177655
0.135361
0.190109
0.076645
0.094853
0.108904
0.121999
0.142686
0.106168
0.088214
0.102563
0.044722
0.095340
0.004357
-0.010415
0.062217
0.054468
0.051109
0.059898
0.051780
0.029155
0.103566
0.051995
0.024688
0.120255
0.123722
0.031275
0.058766
-0.009172
-0.028943
-0.009152
-0.000129
0.108093
-0.025441
-0.022060
0.046984
0.016105
0.083822
0.118233
0.066800
0.035797
0.008531
0.043480
0.112723
0.020527
-0.007372
0.088708
-0.006857
0.038394
0.114299
0.108952
-0.034998
0.062368
0.059305
0.026586
0.084924
0.089138
0.043237
0.052981
0.077507
0.015110
0.125091
0.082260
0.113549
0.048474
0.088526
0.172549
0.102684
0.179094
0.054576
0.196608
0.258250
0.198676
0.239918
0.207082
0.286183
0.212808
0.238669
0.161169
0.193032
0.245827
0.201114
0.219018
0.270114
0.220159
0.199429
0.137688
0.148528
0.118786
0.189294
0.145039
0.179448
0.132482
0.096175
0.121454
0.120850
0.054386
0.133728
0.135354
0.091844
0.066758
0.061582
0.039190
0.041541
0.031267
0.050824
0.015559
0.097205
0.071752
0.106539
0.302176
0.525558
0.837474
1.176036
1.437632
1.455620
1.399908
0.971128
0.686605
0.278494
0.046889
-0.159643
-0.247469
-0.158271
-0.023578
0.026899
0.157587
0.164222
0.219540
0.067319
0.122646
0.156569
0.115811
0.191619
0.149971
0.041289
0.266246
0.168343
0.182621
0.286799
0.239193
0.268071
0.318869
0.296563
0.342284
0.348385
0.339710
0.300339
0.407244
0.475859
0.338695
0.464111
0.524344
0.546083
0.499406
0.565589
0.545614
0.524981
0.513507
0.627224
0.629209
0.494699
0.496332
0.582974
0.491853
0.543656
0.534672
0.532444
0.431216
0.496804
0.513443
0.521236
0.382588
0.433799
0.365065
0.395713
0.277460
0.400701
0.306282
0.257417
0.264827
0.213751
0.242852
0.166325
0.154097
0.181453
0.139002
0.080080
0.109325
0.128102
0.020313
0.018739
0.135797
0.023038
0.010719
-0.022899
0.006146
-0.025574
-0.050173
0.060480
0.001379
-0.040236
0.075991
0.008310
-0.013218
0.012588
0.072726
-0.008579
-0.042596
-0.009680
0.032879
-0.034541
0.003793
-0.023412
0.039318
0.047915
0.026243
0.028983
0.028481
-0.041478
0.036099
0.010687
-0.006080
-0.024332
-0.083887
-0.025585
-0.078606
0.038788
0.034321
-0.046584
-0.065630
0.058454
0.022681
-0.051981
-0.071665
0.003864
0.014580
0.069678
0.006415
0.011471
-0.043835
0.004770
0.089652
-0.058443
0.088274
0.019100
-0.029450
0.106435
0.098320
0.116863
0.024521
-0.009991
0.035683
0.128745
0.131570
0.096131
0.164578
0.108012
0.134517
0.079521
0.111990
0.180281
0.131786
0.240130
0.154229
0.189193
0.168583
0.190176
0.081534
0.170706
0.109153
0.076603
0.043264
0.050713
0.050815
0.025421
0.009735
0.117928
-0.013001
0.020494
0.001848
0.003209
-0.028346
0.036369
0.000748
-0.146658
-0.012548
-0.068235
-0.049067
-0.024003
-0.041655
0.037722
-0.090357
-0.099619
-0.018477
0.100958
0.346203
0.718425
1.042963
1.399904
1.373598
1.291790
1.025593
0.671000
0.316906
-0.002829
-0.318022
-0.305991
-0.174254
-0.111763
-0.104038
-0.077480
0.008853
0.052298
0.009221
0.043779
-0.049797
-0.036015
-0.021284
-0.009197
0.059281
0.115007
0.126654
0.096146
0.063668
0.184400
0.172061
0.198962
0.114782
0.241075
0.229405
0.260911
0.286106
0.243739
0.372898
0.318436
0.379030
0.407919
0.441256
0.418014
0.439717
0.444942
0.444971
0.451330
0.475366
0.449022
0.434746
0.325311
0.424765
0.420160
0.421460
0.451764
0.457408
0.346828
0.381669
0.383461
0.260189
0.363083
0.315760
0.295902
0.241404
0.223781
0.178116
0.185102
0.247790
0.233910
0.061608
0.074887
0.116128
0.084574
0.080856
0.090034
-0.007243
0.077226
0.109410
-0.071692
-0.031414
0.050088
-0.008093
-0.036140
-0.063923
-0.048140
0.039207
-0.139368
-0.071376
-0.009760
-0.112657
-0.103981
-0.062033
-0.123082
-0.077687
-0.152626
-0.009442
-0.034198
-0.036252
-0.099881
-0.137018
-0.104209
-0.180809
-0.095657
-0.129957
-0.107832
-0.094816
-0.097266
-0.163567
-0.096517
-0.086100
-0.133040
-0.138812
-0.168634
-0.102338
-0.043330
-0.082082
-0.067801
-0.098718
-0.174806
-0.160269
-0.139913
-0.025096
-0.117122
-0.095260
-0.147447
-0.208989
-0.077081
-0.055047
-0.116761
-0.097251
-0.107316
-0.068531
-0.015986
-0.013272
-0.071600
-0.111381
-0.029223
-0.043808
0.001639
-0.063066
0.009882
0.091867
0.004366
0.074679
-0.016055
0.002408
0.067480
0.046656
-0.002270
0.048457
0.038015
0.031236
0.102570
0.052986
0.154112
0.158401
0.044695
0.050609
0.075342
0.078983
-0.006392
0.033014
0.034308
-0.047509
-0.036573
0.033311
-0.000342
-0.083607
0.039828
-0.099235
-0.058224
-0.077967
-0.153506
-0.019778
-0.136880
-0.169944
-0.055823
-0.064454
-0.097673
-0.117146
-0.146010
-0.062176
-0.114296
0.052504
0.327108
0.604862
0.901613
1.187185
1.329811
1.302811
0.957937
0.584767
0.400698
-0.099633
-0.243214
-0.375126
-0.303809
-0.220580
-0.196636
-0.095748
-0.072137
-0.020083
-0.100041
-0.047500
-0.030886
0.029529
-0.021851
-0.061988
-0.007795
0.081476
0.053125
0.095651
0.090113
0.111451
0.118103
0.148312
0.122308
0.158177
0.203193
0.232451
0.256686
0.260944
0.317643
0.318305
0.317778
0.336355
0.325792
0.300200
0.416764
0.414188
0.437697
0.449944
0.388698
0.394536
0.506411
0.497327
0.462796
0.417194
0.378493
0.385282
0.375063
0.416326
0.390679
0.329169
0.332272
0.436138
0.304459
0.338432
0.318817
0.207134
0.232151
0.172261
0.165912
0.192992
0.246214
0.096615
0.091423
0.024086
-0.025504
0.055843
-0.045706
0.051136
0.047201
0.077496
0.031016
-0.031886
-0.028646
-0.079939
0.033718
-0.039930
-0.049392
0.026786
-0.025134
-0.017933
-0.080662
-0.053417
-0.106437
-0.071145
-0.012792
-0.026526
-0.104046
0.005546
-0.010519
0.034372
-0.016225
-0.052646
-0.049913
0.026217
-0.018933
0.031856
-0.094407
-0.109903
-0.002850
0.002900
0.021738
-0.063972
-0.058787
-0.014576
-0.004000
-0.042600
0.033818
-0.052032
-0.096877
-0.004482
-0.056200
-0.064820
-0.008779
-0.023609
-0.083444
0.033956
0.040643
-0.012453
-0.015921
-0.052772
-0.021518
-0.036409
0.063361
-0.016014
-0.051512
0.033097
-0.003174
0.037697
0.022284
0.103516
0.017880
0.088618
0.090986
0.136760
0.089619
0.128058
0.161610
0.083132
0.163568
0.134498
0.135309
0.087418
0.112225
0.082762
0.182684
0.137435
0.145481
0.177717
0.209452
0.128500
0.101703
0.105195
0.059400
0.060461
-0.010085
0.077662
0.053961
0.046058
0.039785
0.005438
0.011229
0.032894
0.081023
0.010862
0.024774
-0.064690
0.035114
0.062009
0.018009
-0.022594
-0.069172
0.022332
0.095105
-0.030418
0.116035
0.373026
0.598700
1.065753
1.223685
1.374649
1.413246
1.203099
0.851922
0.410109
0.086942
-0.110508
-0.197537
-0.178578
-0.066427
-0.075502
0.076960
0.003518
0.102601
0.023991
0.055272
0.066255
0.049130
0.061657
0.069186
0.086474
0.077377
0.187655
0.203560
0.188949
0.229102
0.188393
0.274811
0.303509
0.328435
0.350975
0.375788
0.386941
0.337880
0.385931
0.365250
0.421260
0.439925
0.448496
0.525127
0.476069
0.614956
0.573741
0.546170
0.472752
0.468526
0.490987
0.616948
0.596462
0.651869
0.570684
0.436608
0.500686
0.502559
0.540173
0.452813
0.466113
0.411083
0.422972
0.473003
0.446073
0.302532
0.364908
0.270917
0.307231
0.313366
0.266302
0.242386
0.230455
0.197744
0.320663
0.225224
0.159397
0.230569
0.046413
0.112775
0.102357
0.020976
0.094063
0.075036
0.124139
0.011006
0.067264
0.030683
0.137705
0.143802
0.072852
0.068208
0.081000
0.055941
0.065062
0.060420
0.073043
0.129227
0.038115
0.013442
0.089572
0.065059
0.008132
0.057534
0.037995
0.017160
-0.020746
0.070265
-0.018318
0.125855
0.079584
0.117276
0.089770
0.094285
0.117329
0.059830
0.040356
0.043323
0.087763
0.103440
0.091828
0.103477
0.108381
0.068321
0.044091
0.100468
-0.024480
0.074822
0.038393
0.158283
0.032685
0.068365
-0.018630
0.161266
0.107911
0.096774
0.120474
0.131203
0.151068
0.129445
0.101885
0.239244
0.192591
0.157115
0.156732
0.296343
0.163969
0.242500
0.233012
0.232324
0.298261
0.290995
0.276976
0.216725
0.253969
0.305714
0.206950
0.236972
0.250403
0.185829
0.237353
0.159682
0.237916
0.148388
0.258060
0.203479
0.203870
0.133841
0.108018
0.112660
0.097766
0.190564
0.090524
0.153021
0.078834
0.087934
0.131355
-0.007039
0.084509
0.054021
0.080129
0.062008
0.087345
0.213722
0.174789
0.387885
0.635359
1.050332
1.339658
1.410389
1.449086
1.301226
0.994123
0.626599
0.217179
-0.005527
-0.177324
-0.178211
-0.123138
0.075601
0.079532
0.089382
0.095037
0.015282
0.184923
0.093250
0.109491
0.172736
