-0.522891
-0.282690
0.187189
-0.109403
-0.410762
-0.395775
-0.709419
-0.402138
0.367667
0.608491
-0.327083
-0.321600
0.748704
0.381497
-0.597692
0.778540
-0.039889
-0.188644
0.465662
-0.330387
0.320804
-0.069911
0.478585
0.458814
-0.307404
-0.761393
-0.154663
0.459196
0.118027
0.679756
-0.568490
-0.062908
-0.487319
-0.455360
0.377935
0.385539
-0.041506
0.076307
-0.220758
0.196842
0.690746
0.900634
-0.386219
-0.024234
0.049350
-0.145907
-0.107826
0.234927
-0.060323
0.496473
0.341027
0.224771
0.292096
0.157022
0.356382
0.080935
0.110600
0.126270
0.360190
-0.125646
-0.240036
-0.078202
-0.097790
0.246733
0.284600
0.513358
-0.108403
0.293738
-0.009760
-0.540535
0.159752
1.062853
0.122083
-0.437119
0.514233
-0.099033
-0.254403
-0.184536
0.155012
-0.113570
-1.013952
0.573923
0.626049
-0.320230
0.479406
0.442992
-0.566293
0.059541
-0.008896
-0.187573
0.485935
0.633490
1.092219
0.239777
0.745072
0.179800
1.170772
0.623556
0.852327
0.094659
-0.080652
-0.613598
0.460707
-0.092554
-0.094532
-0.381658
-0.128010
-0.531408
-0.157771
-0.309939
0.257258
0.068521
-0.076876
0.387271
0.239472
0.081400
-0.370541
0.014627
1.086987
-0.304304
0.766645
-0.136511
-0.367001
0.093275
0.001078
0.106182
0.100299
0.300507
0.110201
0.560646
-0.232677
0.538031
0.304751
0.492307
0.941962
0.138291
0.686049
0.673874
0.097408
0.740749
1.293689
0.182109
0.628523
-0.018751
0.619018
-0.391161
0.293537
-0.272506
0.245309
0.193443
-0.509836
-0.101190
0.156424
0.180713
0.540263
0.216053
0.380965
0.301072
0.225757
-0.074234
-0.943740
-0.202929
0.422945
0.275188
0.292286
0.347122
0.177073
0.629432
-0.699912
0.158410
-0.036116
0.474343
0.340942
0.047919
0.319025
0.566339
0.105966
0.200525
-0.066042
0.049570
-0.512999
1.001428
0.442268
0.677905
0.140970
0.538891
-0.112720
0.028669
0.647739
0.041970
0.434602
-0.655915
-0.331068
0.292865
0.369103
-0.564314
0.532178
0.179443
0.467273
0.295204
-0.627739
-0.090517
-0.114977
0.195260
0.074771
-0.118346
-0.543115
-0.249461
-0.385111
0.359275
0.319609
-0.093131
-0.422163
-0.154160
0.315274
-0.230842
0.084424
-0.104588
-0.252002
-0.578634
0.340825
0.313670
-0.157744
-0.249076
-0.659154
-0.264459
-0.169284
0.578179
-0.044726
-0.352685
0.146587
0.045642
0.345730
0.595982
-0.599080
-0.228905
-0.121363
-0.185358
0.350275
-0.064319
-0.098867
0.059538
-0.097619
0.322741
-0.451351
-0.492329
0.493568
0.738790
-0.083165
-0.173539
0.054272
-0.052175
0.145848
-0.056862
-0.263780
-0.245362
-0.255129
0.187866
0.633542
0.307751
-0.413811
0.380928
0.332618
0.094994
0.095172
-0.249826
0.137887
0.037911
0.320702
-0.326012
-0.425229
0.158334
0.014205
0.284265
-0.094967
0.157218
0.035948
-0.010757
0.339720
-0.165732
0.658694
0.267177
0.227241
0.281502
0.180749
0.655641
0.030947
-0.067948
-0.098739
0.438956
0.437874
-0.408895
0.413431
0.423459
0.274412
-0.527713
0.802889
0.007035
-0.115182
-0.042241
0.437532
0.272848
-0.589101
0.567598
0.521436
0.386237
0.995071
0.217806
0.015840
0.098329
-0.297544
-0.528679
-0.000411
-0.014607
0.092721
-0.668805
-0.581642
-0.393135
0.201888
-0.017757
1.098296
0.014828
-0.138456
-0.607040
0.043941
0.225743
1.047764
1.114095
0.396791
0.769952
0.532594
0.154392
0.413038
-0.492917
0.027536
-0.093806
-0.125839
-0.212170
-0.045067
0.457700
0.716814
-0.372122
0.126046
0.601819
0.393695
-0.291699
0.005705
0.234621
-0.045622
-0.253575
-0.517647
0.004146
0.425415
0.048584
0.021041
-0.405496
-0.691375
0.175218
0.589712
0.246576
-0.002464
-0.107658
0.519816
-0.720071
0.105764
0.382165
1.088251
0.066957
-0.495567
0.512505
0.003236
0.629872
-0.239615
0.674269
1.008032
-0.258663
0.263811
-0.208402
0.665560
-0.017883
0.363192
0.500463
0.303770
0.246313
-0.222167
0.109512
-0.051747
0.505794
0.471820
-0.261722
-0.076450
0.426187
-0.194499
-0.160092
-0.073040
0.910215
0.409698
-0.022935
0.438025
0.105918
-0.243753
-0.547615
0.145111
0.076860
-0.094479
-0.168796
0.277232
-0.147817
0.485702
0.446966
-0.136134
0.091074
0.033127
-0.559196
0.091334
-0.567259
-0.019877
-0.395658
0.006366
-0.325996
0.186683
0.372696
-0.259258
-0.441410
-0.339671
-0.088685
0.244654
-0.483306
0.527093
-0.533049
0.220787
0.113608
0.001655
-0.505919
-0.529343
0.075235
-0.163296
0.187351
-0.132842
0.082980
-0.283716
0.374458
-0.234613
0.876594
0.229254
-0.450877
-0.199042
0.186888
-0.007762
0.386267
-0.012587
-0.845334
-0.398284
0.055996
0.302115
0.121769
-0.285186
-0.357235
0.255104
-0.083279
0.286926
-0.467045
-0.235518
0.644035
-0.278599
0.513037
-0.065028
-0.121620
-0.031784
0.033597
0.269847
0.069290
0.249951
-0.448489
-0.107334
-0.053410
-0.348235
0.122553
-0.190852
-0.892225
-0.058356
0.054445
-0.097965
0.346454
0.555405
0.016679
-0.033114
-0.325698
-0.079684
0.364590
-0.123730
0.390846
0.128091
-0.457633
-0.053799
-0.267307
0.442412
0.413750
-0.156899
-0.243257
-0.773304
0.506888
0.385212
0.256746
-0.060943
-0.041289
0.424734
-0.119028
0.213545
0.281456
0.000575
0.318630
0.294256
0.481241
0.040516
-0.205611
-0.235171
-0.153324
-0.283303
-0.157525
0.050376
0.051244
-0.128757
-0.232794
-0.329588
-0.069817
0.624503
-0.588914
-0.037369
-0.705181
0.035514
0.378397
-0.185747
0.376832
-0.456607
0.013734
-0.039172
0.126863
0.060340
0.359694
0.337041
-0.075658
0.311566
-0.162362
-0.148289
0.152641
0.055712
-0.282278
0.326649
-0.111423
0.520116
-0.583881
0.045631
0.070074
0.602928
0.282338
-0.499146
0.343103
0.615123
0.002212
0.606987
0.614875
0.857358
0.880797
0.559412
0.138828
0.405877
0.434740
0.457751
-0.402044
-0.288538
-0.332819
-0.650587
0.010819
0.816956
-0.329879
0.131191
0.191465
-1.000973
-0.584715
0.057093
-0.127939
0.102245
-0.084758
0.197782
0.357711
-0.224905
0.054200
-0.803462
0.315344
0.307939
0.244239
-0.048330
0.045074
-0.580022
0.194058
-0.595222
0.663681
0.022574
-0.484480
-0.679289
-0.333034
0.223169
-0.415857
0.566253
0.038191
-0.223426
0.405748
0.027829
-0.608908
0.501941
-0.280532
0.069984
-0.724821
0.550137
0.201040
-0.233251
0.799287
0.553273
0.492831
-0.104161
-0.158023
0.466383
0.882363
0.150596
-0.300441
-0.173799
0.241997
-0.116463
0.391854
0.377088
0.724149
-0.084478
0.227237
0.571806
0.070586
0.029330
0.819309
0.176867
-0.735295
0.356904
0.163398
0.073037
-0.158390
0.574882
-0.202838
0.360768
-0.510492
-0.014677
-0.274616
0.003494
0.051568
-0.180691
-0.004602
-0.467165
0.278393
0.208126
0.248030
-0.510434
0.688891
-0.695974
-0.397000
0.269168
0.376781
-0.234056
0.037413
0.358391
0.215729
0.497826
-0.304631
0.417240
-0.166441
-0.898268
-0.153385
0.198994
0.385866
-0.121113
0.242077
-0.107005
0.562432
-0.901505
0.292729
0.030046
0.142147
0.059207
-0.151684
0.513968
0.491704
-0.056515
0.088843
-0.620360
-0.030735
0.349423
-0.114551
-0.053749
-0.146320
-0.868993
-0.314898
0.212918
-0.553884
0.143437
-0.734858
0.414856
-0.764576
0.260623
0.218533
0.694584
-0.253757
-0.604072
-0.069716
0.642039
0.155582
-0.096168
0.412807
-0.132370
0.372907
0.394326
-0.167120
0.482551
0.183164
0.235692
0.093692
-0.367554
0.224409
0.921663
0.369098
-0.339571
-0.399494
-0.002852
0.151121
-0.351178
0.823941
0.360485
0.100543
0.084247
-0.632637
-0.114265
0.299337
0.396339
0.752458
0.215807
0.121830
-0.304651
0.389724
0.601074
0.200714
0.091118
-0.034153
0.113489
-0.108245
-0.007123
0.264008
0.573834
0.154974
-0.284557
-0.126631
0.240156
0.372618
-0.035017
0.950303
-0.136324
0.158130
-0.245233
-0.352482
0.625662
0.236314
-0.231705
-0.471173
0.151739
-0.171940
-0.013628
-0.303123
0.131631
-0.128556
-0.232089
-0.056211
-0.047664
-0.418300
0.086554
0.068821
0.110972
0.440269
0.678740
-0.157610
-0.078635
0.399441
-0.174588
-0.177873
-0.969422
-0.291463
0.316011
0.890362
0.131701
0.055195
0.571683
0.980031
0.945444
0.589069
1.500000
0.817684
0.755612
1.061620
-0.447536
-0.461441
-0.036785
-0.286805
0.008948
-0.066126
-0.206100
-0.248622
-0.249219
-0.245258
0.213855
-0.116143
-0.181280
-0.368838
0.563889
-0.118787
0.501280
0.172140
0.164213
0.095137
0.379159
0.156613
0.512906
-0.929200
0.034088
-0.085341
-0.097804
-0.220488
0.019423
-0.025255
0.198696
0.745162
0.277597
-0.242772
0.169082
0.296136
-0.109878
0.640256
0.364840
-0.311330
0.135784
0.487787
0.372357
0.457638
-0.310953
0.696378
0.233554
0.610509
0.592196
-0.211735
-0.309623
-0.268027
0.261210
-0.345460
0.134023
0.062405
0.067412
0.357332
0.586992
0.429113
-0.048560
0.144228
0.120494
-0.569799
0.858162
0.645141
0.809511
0.229590
0.293464
0.401626
0.531720
0.465808
0.525767
-0.420765
-0.267820
0.997101
0.454224
-0.183289
-0.292403
-0.071482
0.893949
-0.838388
0.185452
0.456689
0.122124
0.218945
0.101305
0.550023
-0.298462
0.278975
0.864734
-0.040590
-0.277958
-0.507650
-0.455814
0.046969
0.527901
0.487933
0.427354
0.074424
-0.404166
-0.298255
0.820567
0.001009
-0.090983
0.432406
-0.097173
0.721001
0.453008
-0.072773
-0.001994
-0.120721
0.157532
0.213741
0.047042
0.185775
0.100731
-0.441370
-0.460811
0.027027
-0.363626
0.241575
0.550930
-0.034277
-0.241970
0.249890
-0.288090
0.070277
0.231124
-0.626806
-0.225522
-0.841567
0.291091
-0.064982
-0.053976
0.570494
-0.301670
0.308900
0.226456
0.005720
-0.404556
1.397988
0.516151
-0.008826
0.012928
0.060281
-0.079569
0.123255
-0.397180
0.139290
-0.475773
0.198357
0.137743
0.272729
0.878895
-0.336356
0.529597
-0.229934
-0.232860
-0.724042
0.011174
-0.027791
-0.310145
-0.249151
-0.389529
0.128635
0.322145
-0.624722
0.463160
-0.424148
0.034856
0.337612
0.298754
0.701521
-0.099884
-0.132884
-0.203259
0.693080
0.108811
-0.092142
0.142030
0.355367
0.051656
-0.368881
0.270256
0.421678
0.128648
-0.355258
-0.372076
0.128549
0.626205
0.331075
0.621193
1.034042
0.110894
-0.666213
-0.113736
-0.342802
0.156098
-0.080872
0.344470
0.288874
0.141860
-1.013438
0.723695
-0.161195
-0.131036
0.233254
0.160058
0.682178
-0.292358
-0.292723
-0.500000
0.165520
0.097523
0.101354
0.633602
-0.344552
0.099139
-0.137646
0.150356
0.060102
0.221334
0.668672
-0.969833
-0.376218
0.366926
0.821303
0.442511
0.341504
0.054482
0.789755
-0.136080
-0.238851
0.350089
0.357738
-0.450383
-0.393549
0.607981
-0.111347
-0.610169
-0.320629
0.037704
-0.115120
0.331358
0.207448
0.481896
-0.525264
-0.207442
-0.046579
0.485906
0.867426
0.200505
0.478130
0.772533
-0.380888
0.259871
0.750997
0.112193
0.135796
-0.142324
0.531949
0.072020
-0.372106
-0.125496
-0.770663
0.111089
0.603255
0.378805
0.305990
0.007141
0.326203
-0.154157
0.658788
-0.349136
0.724400
0.083035
-0.183737
0.607606
-0.102975
0.194123
0.325772
-0.251798
0.741130
0.442803
-0.302919
0.660229
0.555879
0.667239
0.270691
0.464319
0.372183
0.525840
0.947893
0.139717
0.037837
0.031343
0.275597
0.218802
-0.705199
0.335883
0.180174
-0.599913
0.380406
0.004249
0.599009
-0.377999
0.572451
-0.264392
-0.065705
0.284793
0.192451
-0.259537
0.066473
0.023796
-0.817999
-0.313686
0.251606
0.147906
0.007692
0.214320
0.227127
-0.318612
0.484308
-0.027598
-0.534844
0.793415
-0.177518
-0.040603
0.201373
-0.187570
0.951726
-0.099680
0.026955
-0.698310
0.229539
-0.323062
-0.179503
0.097621
0.440913
0.190124
0.160500
0.598711
0.598484
-0.412663
0.303776
0.473109
-0.635843
-0.410228
-0.007941
0.269040
0.411143
-0.735609
0.279526
-0.305390
0.077112
-0.090731
0.114675
0.407956
0.167536
-0.046893
0.188146
-0.680281
-0.234593
0.267395
0.251411
-0.248719
0.355813
-0.168807
0.470878
-0.792466
-0.480654
0.267909
-0.279246
-0.446578
-0.743564
0.101295
-0.195544
0.418424
-0.218597
0.504990
-0.160702
-0.224759
-0.132823
-0.355609
-0.337697
0.039438
-0.223821
-0.408774
-0.423628
0.189872
-0.250172
-0.587252
0.349179
-0.660478
-0.298917
0.089002
0.545271
-0.387087
-0.294903
-0.123950
-0.008824
0.079367
0.368908
0.214892
0.415503
-0.373363
-0.046481
-0.074442
0.095383
0.015031
0.082928
0.071748
-0.268219
-0.301791
-0.270406
0.290733
0.205115
0.183343
0.156262
0.119630
-0.120308
0.262986
-0.236844
-0.134895
-0.032693
-0.631094
0.142397
0.764132
-0.167566
0.103308
0.498550
-0.063207
0.830598
-0.391654
-1.118615
0.273967
0.124176
0.410641
-0.428864
-0.174737
0.144903
-0.424980
-0.357670
0.124208
0.253536
0.118672
-0.295695
-0.188523
-0.910096
-0.244492
-0.428343
0.312666
-0.158969
0.294427
-0.671156
-0.297134
0.190467
0.113425
0.307781
0.208963
0.335504
0.413577
0.246855
0.562476
1.197509
0.295854
-0.419535
0.095861
0.197506
-0.794772
-0.300995
-0.102193
-0.905458
0.471630
0.122830
0.176798
0.150680
-0.689639
0.481886
-0.328999
0.358535
-0.238771
-0.227677
-0.341094
-0.413173
-0.366110
-0.673623
0.434197
0.250271
-0.189940
-0.449711
-0.543603
-0.266962
-1.052004
-0.487002
0.393491
0.207419
0.584647
-0.465719
0.526069
-0.077703
0.092222
-0.045465
-0.097470
0.005498
-0.338774
0.252811
0.080401
0.224101
0.667676
0.077326
-0.483527
0.529259
0.111556
-0.134828
-0.096119
-0.082374
0.070465
0.798420
-0.132544
0.545052
0.006419
-0.013840
0.499022
0.178826
-0.100761
0.088315
-0.039620
0.381814
-0.302098
-0.151337
0.002449
-0.191872
0.692803
-0.016242
0.434397
-0.196068
-0.293845
0.751789
-0.156365
-0.408062
-0.126852
-0.195860
-0.437056
0.261220
0.042209
0.042696
0.250041
0.408941
-0.299671
-0.553417
-0.158216
0.510504
0.233568
0.296707
0.016604
-0.733504
0.067618
-0.075670
-0.233076
0.064079
0.321787
-0.850126
0.086574
-0.134861
-0.099755
-0.037499
-0.014657
0.188979
0.096029
-0.904989
0.074870
-0.441026
0.375793
-0.766937
-0.642542
-0.172661
0.144253
0.524334
-0.415453
0.904571
0.145821
0.184716
-0.407521
0.265678
-0.230169
0.528708
-0.025148
-0.909006
0.235318
-0.316456
0.039396
0.269182
-0.130916
-0.454049
0.738106
-0.434831
-0.489915
-0.036846
-0.099167
-0.268638
0.365700
-0.145785
-0.007648
0.412561
0.303065
0.223569
-0.467876
-0.035647
0.184041
-0.401535
-0.171990
0.069729
-0.273689
-0.214417
0.657622
0.217617
-0.340349
-0.073228
-0.073377
-0.357427
0.454743
-0.748449
0.618801
0.191016
0.091018
-0.255072
-0.013862
0.433952
0.029382
-0.132683
0.380612
-0.032096
-1.121813
0.207601
0.023358
0.422657
0.208158
0.227045
-0.367114
-0.290711
0.169496
0.088069
-0.511114
-0.054869
0.209867
0.134192
-0.554288
-0.454427
-0.579192
-0.141156
-0.832393
-0.037472
-0.275849
0.931278
-0.233331
0.090567
-0.188583
0.031690
0.757170
-0.195437
0.427751
-0.588796
-0.292266
0.328824
0.425314
0.434479
-0.261973
0.197519
0.393231
0.126830
-0.151743
0.378186
-0.080817
-0.070218
-0.743401
0.335580
0.114984
0.022114
-0.141010
-0.356766
0.148136
0.514904
-0.182524
0.640186
0.670338
-0.459947
-0.461690
0.328315
0.154520
-0.389850
-0.223919
-0.035860
1.081556
0.497303
0.436655
1.023642
0.529763
0.243290
0.278824
-0.276916
0.455245
0.036601
0.120138
-0.071896
-0.227855
0.386842
-0.635415
-0.610028
-0.496994
-0.691811
-0.333125
0.441573
0.237157
-0.157639
1.176439
-0.463568
0.072934
0.519436
-0.126144
0.110756
0.285203
0.351185
-0.259240
0.041186
-0.114380
0.013185
-0.402510
-0.200582
-0.190643
-0.088733
-0.118017
-0.103795
0.694607
-0.014045
0.262275
0.484159
0.451681
0.048668
-0.211052
0.548211
0.534564
-0.424022
0.314853
1.231799
-0.491365
0.084205
0.669148
-0.543672
0.396963
0.055666
0.072648
-0.515900
0.680990
0.452542
0.262367
0.051796
0.307245
-0.359177
-0.148833
0.372566
0.396000
0.228457
0.266176
0.581777
0.269840
0.426629
0.749386
0.015863
-0.384627
-0.031174
-0.350958
0.067807
0.582835
0.150121
0.553037
0.517559
0.354554
-0.259861
-0.450176
0.641262
-0.427141
-0.469670
0.198796
-0.531115
0.937513
0.483455
0.602544
0.283777
-0.212957
-0.118020
-0.426014
0.049572
-0.186266
-0.012868
0.355549
-0.073629
-0.591521
-0.075863
-0.184388
0.112855
0.035996
0.275609
-0.014032
-0.465827
-0.527369
0.194473
0.238832
0.444505
-0.169804
0.159337
0.168330
0.218691
0.406468
0.497241
0.162941
-0.187810
0.052886
0.051590
-0.664918
0.128185
0.332151
-0.008867
-0.113331
-0.513632
-0.085237
0.118681
0.224543
0.286115
0.916111
-0.190241
0.237869
0.665698
-0.150085
0.137875
0.413153
-0.318726
-0.493428
0.167978
0.409211
-0.568316
0.168785
-0.256297
0.173492
0.029086
0.671967
0.219245
-1.125438
0.091868
0.066063
0.308755
-0.026024
-0.671710
0.135483
0.082172
0.388373
-0.464887
-0.245229
0.509926
0.012468
-0.683163
0.185144
-0.038991
0.346017
0.251300
-0.313279
-0.399314
0.040430
0.590907
-0.218932
-0.068713
-0.103862
-0.023196
0.264336
-0.323246
0.172799
-0.308693
-0.183696
0.259179
0.033275
0.108436
0.432759
-0.079332
-0.570961
-0.188303
-0.181853
1.079461
0.730149
0.158789
-0.065095
0.272286
-0.105103
-0.636155
0.706785
0.532246
0.007342
-0.415041
-0.460424
-0.271833
-0.159182
-0.487339
0.043807
-0.199781
0.024845
0.599159
-0.154067
0.018749
-0.165523
0.146735
0.010130
-0.050281
-0.509640
0.236036
-0.038504
0.007175
0.412090
-0.255092
0.261006
-0.082762
0.108301
-0.086253
-0.332369
0.635437
0.018030
0.045855
0.648814
0.824525
0.432247
0.146366
0.151036
0.664127
0.051433
1.150695
0.943482
0.621806
0.161229
-0.360200
0.639164
-0.242981
-0.167520
-0.116334
0.914382
0.338236
0.506619
0.592524
0.048207
0.323969
-0.477398
0.794961
0.341727
-0.175829
0.357167
0.182951
0.562162
-0.326440
-0.016071
0.211093
-0.057088
0.163914
-0.803276
0.112753
-0.318075
-0.114421
-0.152551
0.153916
-1.099731
0.031890
-0.222749
0.746345
-0.531605
-0.434610
-0.148099
0.800596
-0.542794
-0.060953
-0.338361
0.889468
0.300297
-0.052024
-0.125214
0.325306
0.449505
0.139041
0.230711
0.926079
0.132501
0.339535
0.221704
-0.093620
0.268169
-0.128492
0.133588
0.325594
0.198051
0.149128
0.043428
0.446099
0.014951
0.585752
0.595401
0.296151
-0.283359
0.093400
0.614422
0.008368
-0.385612
0.543928
0.183654
-0.035690
-0.048344
-0.430844
-0.713052
-0.126118
-0.321339
-0.599084
-0.117101
-0.300828
0.055239
0.038879
1.124444
-0.553119
0.330149
-0.057423
-0.215620
0.273914
-0.537386
0.207707
1.022383
-0.238898
-0.201888
-0.072080
0.701486
-0.017239
0.296893
-0.006410
-0.541778
0.198212
0.296197
0.242791
-0.085001
-0.081985
0.216421
-0.454523
0.336589
-0.268153
0.928592
-0.255637
-0.289530
-0.039584
0.159446
0.247674
-0.117828
0.133332
-0.394877
-0.002267
0.382686
0.207575
-0.262218
-0.326067
0.152092
-0.577181
-0.338483
0.322033
0.175646
0.720947
-0.861908
0.099416
-0.588238
0.453954
0.681103
0.048419
-0.284327
-0.113122
0.406565
0.264285
0.055817
0.440633
0.437982
0.180081
-0.057754
0.245436
0.438766
-0.162200
-0.240733
-0.267044
0.246334
-0.911385
-0.567671
-0.238155
0.383066
0.116559
-0.131038
0.106699
0.377478
-0.077411
-0.860090
-0.364892
-0.233971
0.181822
0.137434
-0.660764
0.016877
-0.260830
-0.003309
0.216612
0.110937
0.375595
-0.417423
0.350104
-0.741173
0.243118
0.353611
1.019325
0.411502
-0.600777
0.103965
0.309534
0.108169
0.086421
0.133244
0.306877
0.748040
0.089991
0.433561
0.657287
0.290714
-0.059074
-0.073253
-0.523285
0.232377
-0.217864
0.539483
0.348792
-0.633904
0.304342
0.227918
0.294888
0.770961
0.144835
-0.258963
-0.022028
0.182334
0.388753
0.165605
-0.144342
-0.488773
-0.389532
0.066154
0.433717
0.087933
-0.270102
-0.363924
-0.062897
-0.138750
-0.515643
-0.677439
-0.207641
-0.301130
-0.924899
0.039287
-0.247471
0.022269
0.291579
0.527806
0.516603
0.655510
0.392143
0.975971
0.266839
0.524274
0.019608
0.027041
-0.981047
0.278932
0.137924
-0.478125
-0.189246
-0.809834
-0.077223
0.634494
-0.322281
0.229943
0.470178
-0.085182
0.265807
-0.524369
-0.143194
-0.285745
0.193769
0.284530
-0.079238
0.546332
0.089274
-0.080710
0.269964
-0.270797
-0.282510
-0.620565
-0.472934
0.233683
0.550106
0.549451
-0.077639
-0.415066
0.051506
0.435359
0.289967
0.322490
-0.219945
0.166891
0.375129
0.716683
0.408643
0.465589
-0.354347
0.329444
0.240144
0.151665
-0.030289
0.985621
-0.310204
0.573970
0.289624
-0.470050
0.419946
0.386353
0.495277
-0.079862
0.305451
0.339763
0.123391
-0.334190
0.210326
0.052208
0.098150
0.287303
0.006602
0.756163
-0.046306
0.109626
0.478934
0.004104
0.302106
-0.038761
-0.184164
-0.528330
0.428748
-0.063895
-0.924139
0.164127
0.321145
0.700725
0.495151
-0.622773
0.100502
0.045649
-0.402104
0.387341
-0.123905
0.146625
-0.256725
-0.361716
0.391298
0.135254
0.254298
-0.479015
0.321943
-0.150767
0.028228
-0.381610
-0.407723
0.365176
0.309886
0.305933
0.421001
-0.686321
-0.772410
0.088505
-0.609643
0.477782
-0.783194
0.083025
-0.216582
0.190462
0.366429
0.259680
0.050020
0.507808
0.182860
0.223998
-0.164483
0.692485
-0.455668
0.440820
-0.013347
-0.671385
-0.649204
0.061322
0.070155
0.008686
-0.454270
-0.598993
-0.402843
0.020287
0.345954
0.564913
0.231239
0.161411
0.210030
0.141090
0.413631
0.281883
-0.387079
0.056170
-0.192507
-0.693832
0.973480
-0.193420
-0.206645
-0.356884
0.189053
-0.051692
-0.400317
0.496280
-0.302522
-0.242853
-0.148074
-0.246417
0.181189
-0.142489
0.787897
0.201222
-0.772498
0.441413
0.209758
-0.036642
-0.218342
-0.270863
0.151235
-0.280330
0.654036
-0.201721
-0.143521
-0.115398
-0.088545
-0.322998
-0.829647
0.747521
0.098378
0.203999
-0.196438
-0.376707
-0.058686
0.221599
-0.032891
-0.814875
0.351017
0.331864
0.917493
-0.283538
0.608899
0.441267
0.502766
0.661851
0.051988
-0.637051
-0.118377
-0.048525
-0.042199
0.490214
0.245518
-0.271893
0.478419
-0.479813
-0.334226
-0.387216
0.049378
-0.125042
0.138416
-0.317772
-0.161136
-0.593800
-0.084184
1.029471
-0.224886
0.736309
-0.337625
-0.047299
0.349203
-0.554025
0.152268
0.261655
-0.050938
0.227443
-0.148949
-0.324509
0.293418
0.599434
0.965005
0.674384
0.892423
0.723868
0.752914
1.436164
-0.202776
-0.115728
-0.495977
-0.049650
-0.657372
-0.002886
-0.167035
0.000923
0.385473
-0.142536
0.199354
0.173903
-0.788645
0.001585
0.030123
-0.234568
-0.082568
-0.633725
0.270601
-0.316346
-0.260712
-1.155388
-0.116039
0.061431
-0.129709
-0.303388
0.247072
0.048306
0.381523
0.209084
-0.305369
0.828529
-0.329170
0.264931
0.004482
0.535192
-0.092605
0.031933
0.255491
0.922560
-0.212816
0.826798
-0.211398
0.370415
0.006420
-0.491041
0.697738
-0.108914
0.137409
-0.262644
-0.210643
0.132224
0.553903
0.455982
0.347421
0.588836
-0.109368
-0.037109
0.661518
1.104811
0.180139
0.354038
0.205617
0.371968
0.319864
-0.050274
0.067860
0.421787
-0.755306
0.454597
-0.039039
0.344857
0.968183
0.044300
0.963048
0.345533
0.044696
-0.246383
0.253385
-0.515013
-0.503868
0.119938
-0.264058
-0.047694
0.120885
-0.764862
-0.223095
-0.371151
0.042995
-0.013806
-0.059878
-0.098298
0.244938
-0.371683
-0.281270
-0.497260
0.148961
0.475668
-0.217022
0.576845
0.516700
0.398290
-0.113517
-0.146371
-0.161691
0.055107
-0.647064
-0.075098
-0.081576
-0.185018
-0.530718
0.577894
0.203869
0.095017
-0.073939
-0.793279
-0.092410
0.256671
0.517604
0.592737
-0.053074
-0.188034
-0.115454
0.217789
0.098267
0.062906
1.207324
-0.405658
-0.768936
-0.298342
-0.166980
0.041745
-0.406021
-0.433373
-0.033058
-0.203553
0.105163
-0.075689
-0.193568
0.639055
-0.127835
-0.516205
0.278150
-0.045855
-0.456499
-0.098796
-0.004651
-0.297996
-0.576405
0.278667
-0.302986
-0.295587
-0.484774
0.371822
0.279333
-0.030234
-0.061072
0.600530
-0.531878
-0.195023
0.389909
0.294143
-0.039637
0.419866
-0.165208
0.093079
0.585285
0.213453
0.237668
0.417938
-0.447439
0.220621
0.490510
0.333769
-0.258744
-0.568344
0.026921
-0.256077
0.396081
0.271969
-0.105147
0.225997
0.152822
0.160041
-0.184726
-0.687211
-0.103097
0.234820
0.219127
-0.053345
0.159659
-0.373793
0.264147
0.379691
-0.451892
-0.452479
-0.201005
0.250533
0.138983
-0.047813
0.571750
0.533877
0.759269
0.249811
0.006084
-0.005839
0.005601
-0.157953
-0.340247
-0.348727
-0.178929
0.013537
-0.012525
0.045639
-0.045306
-0.210145
-0.172995
0.343723
0.295598
-0.370555
-1.056105
-0.247576
0.782880
0.209423
0.297831
-0.216132
0.339587
0.906086
0.390340
0.340953
1.181433
0.688975
-0.582604
0.008125
0.505762
0.062731
-0.094649
-0.257032
-0.346085
-0.290313
-0.415162
-0.117074
-0.129163
0.072492
0.602332
-0.081737
0.625820
-0.005400
-0.236282
0.020261
-0.007472
0.180162
-0.101425
0.102177
-0.211807
0.483040
0.056484
0.255251
0.132845
0.132051
0.045910
0.470151
0.393024
0.299493
-0.734975
-0.062709
-0.137750
0.367855
0.489918
0.974493
-0.032822
0.854935
-0.234483
-0.137756
0.267114
-0.049799
0.034090
-0.464350
-0.145767
-0.108773
-0.429237
0.122010
0.339124
-0.139408
0.863274
1.002398
0.370380
0.768757
0.671493
-0.434879
-0.435176
-0.392213
0.258960
