-0.019775
-0.048734
-0.001317
0.014176
-0.024068
-0.066877
-0.018077
-0.016234
0.044165
0.032591
0.110590
-0.025791
-0.001739
-0.012422
0.014137
0.070944
0.043635
0.008929
-0.045586
0.071937
-0.070648
0.027419
-0.008957
0.100969
-0.012341
0.025293
0.080388
-0.016458
0.058801
0.045568
0.057098
0.114710
0.095598
0.136546
0.060037
0.131535
0.034626
0.057508
0.100458
0.075366
0.140445
0.142092
0.272939
0.172116
0.203532
0.274397
0.225942
0.128715
0.232938
0.176151
0.272236
0.261706
0.131137
0.180855
0.166125
0.169000
0.123970
0.143851
0.125038
0.212879
0.182107
0.184248
0.051770
0.206597
0.188426
0.091591
0.110498
0.069328
0.043125
0.080708
0.043924
0.015769
0.039449
0.138067
-0.013569
0.059572
-0.048168
0.098410
0.117006
-0.006682
0.087602
0.154803
0.011617
0.114757
0.105361
0.093906
-0.023846
0.052119
0.027898
0.021993
0.052504
0.014391
-0.011138
-0.034103
0.069190
0.179116
0.533358
0.802081
1.070755
1.317684
1.462169
1.422140
1.214905
0.820514
0.588082
0.140411
-0.028229
-0.216021
-0.234727
-0.264646
-0.176376
-0.093643
-0.023902
0.059290
0.084232
0.084097
0.048757
0.127753
0.075434
-0.029686
0.038696
0.112235
0.078541
0.075499
0.114251
0.054409
0.102057
0.159579
0.066901
0.193602
0.125404
0.186286
0.211792
0.067167
0.176711
0.164449
0.187528
0.248167
0.165787
0.264454
0.242622
0.252390
0.230146
0.289692
0.205106
0.302646
0.303182
0.350166
0.427660
0.438244
0.362818
0.472859
0.502748
0.443124
0.496176
0.609730
0.606194
0.606556
0.603289
0.538062
0.663221
0.666881
0.613290
0.597949
0.626572
0.608206
0.560072
0.658523
0.508045
0.605670
0.433864
0.461664
0.461367
0.546503
0.445261
0.451176
0.366469
0.504479
0.467007
0.379173
0.340376
0.324726
0.333362
0.325181
0.236604
0.279726
0.173665
0.186059
0.277347
0.165980
0.218671
0.214116
0.141449
0.114389
0.164197
0.156934
0.094238
0.107132
0.141410
0.140864
0.061101
0.059078
0.106863
0.049639
0.136192
0.042656
0.118465
0.000542
0.096776
0.115390
0.133773
0.044821
0.067735
0.100987
0.086099
0.075343
0.111090
0.123528
0.074387
0.102168
0.164940
0.063329
0.122655
0.103357
0.105633
0.127978
0.043441
0.074963
0.025003
0.061225
0.075684
0.096470
0.099311
0.187698
0.114555
0.094298
0.055824
0.165001
0.126588
0.111384
0.072110
0.066971
0.105710
0.075231
0.111001
0.065501
0.153663
0.107680
0.143403
0.100972
0.043265
0.079371
0.084443
0.128921
0.077764
0.113206
0.034824
-0.002511
0.054497
0.010034
-0.002051
0.047637
0.194411
0.117599
0.144942
0.115754
0.064947
-0.003053
0.113314
0.049599
0.094139
0.111296
0.023165
0.018125
0.057744
0.126851
0.153570
0.093738
0.072268
0.092331
0.092397
0.074928
0.160718
0.138325
0.144723
0.090077
0.159296
0.208330
0.133985
0.139604
0.184767
0.208754
0.177277
0.195881
0.235591
0.108888
0.191077
0.250542
0.289660
0.159258
0.235650
0.265109
0.209116
0.296849
0.257267
0.247728
0.237257
0.238782
0.190548
0.139830
0.197417
0.173922
0.139839
0.048522
0.084926
0.099442
0.158202
0.161473
0.087870
0.155491
0.045331
0.074437
0.044606
0.002196
0.145914
0.051388
0.155270
0.072585
0.047458
0.095054
0.021741
0.143405
-0.030129
0.042714
0.033019
0.051747
0.042942
0.027388
0.111631
0.105353
0.053470
0.055709
-0.033753
0.084838
0.056197
0.147832
0.419476
0.797166
1.091447
1.356390
1.423895
1.395635
1.250289
0.876340
0.455377
0.126939
-0.060566
-0.153119
-0.351993
-0.242989
-0.097512
-0.017525
-0.044069
0.046662
0.047598
-0.019934
0.016605
0.074446
-0.019718
-0.002352
0.012657
-0.010296
0.074360
0.066947
0.052366
0.114540
0.124349
0.006320
0.038869
0.157811
0.063066
0.189818
0.040515
0.073049
0.086738
0.137393
0.059647
0.131573
0.135529
0.154431
0.197325
0.243948
0.253859
0.256296
0.272514
0.329565
0.309399
0.329607
0.398100
0.332124
0.391347
0.383334
0.404497
0.406691
0.474555
0.422948
0.504459
0.467290
0.524760
0.472365
0.472946
0.548266
0.525968
0.559081
0.534393
0.588623
0.472277
0.449439
0.472050
0.538217
0.434593
0.400671
0.460575
0.357539
0.375528
0.305733
0.309781
0.308818
0.281337
0.251473
0.221681
0.253516
0.145356
0.202096
0.179598
0.129485
0.178960
0.114825
0.067552
0.103025
0.094620
0.046311
0.164422
0.048627
0.052780
0.048645
-0.025944
0.042879
-0.021473
0.006908
0.088456
-0.034446
-0.003988
-0.028272
-0.052278
-0.007713
-0.007484
-0.040160
-0.037735
0.004359
-0.006490
-0.096590
-0.012660
-0.048435
-0.026271
-0.053623
0.033045
0.005440
-0.082412
0.000257
-0.114727
-0.015794
0.043689
0.016435
-0.085046
-0.000340
-0.096436
-0.037243
-0.009291
0.019394
-0.077977
-0.027999
0.038130
-0.067058
0.022950
-0.060135
0.003638
-0.116194
-0.035096
0.053144
-0.015046
0.003819
-0.018095
-0.012734
-0.068919
-0.027171
-0.024051
0.036057
-0.064863
-0.044244
-0.120306
-0.093355
-0.013065
-0.001448
-0.010500
0.011622
-0.086665
0.021140
-0.091994
0.003185
-0.031334
0.013898
-0.033720
-0.070039
-0.049578
-0.065228
-0.026772
-0.026447
-0.010983
0.000368
-0.027614
-0.102978
-0.053914
-0.047259
-0.035739
-0.073393
-0.010574
-0.019181
-0.018936
-0.017813
-0.034739
-0.076178
-0.012670
-0.026207
-0.056926
0.022150
0.057801
0.079147
0.057284
0.080734
0.011579
0.069360
0.118064
0.067337
0.091190
0.065042
0.101693
0.181288
0.072878
0.123465
0.146717
0.103482
0.097242
0.189171
0.072745
0.049145
0.096244
0.101658
0.163725
0.112083
0.055100
-0.028981
0.090314
-0.000156
0.061716
-0.016676
0.038896
-0.062505
-0.082455
-0.005787
-0.085581
-0.097834
-0.062740
0.013025
-0.036750
-0.088509
-0.024450
-0.009250
-0.074072
-0.070508
-0.044097
-0.058495
-0.044350
-0.047568
-0.093344
-0.027935
-0.004123
-0.014075
0.011618
-0.075392
-0.052290
-0.058265
-0.127440
-0.082607
-0.084024
0.173078
0.392732
0.692132
0.984932
1.273931
1.415995
1.304914
1.087768
0.730269
0.396176
0.088031
-0.186948
-0.277086
-0.317096
-0.249419
-0.213493
-0.111146
-0.044217
-0.067265
-0.059619
-0.091804
0.001606
-0.005932
0.021595
-0.050295
-0.037427
-0.067488
0.008888
-0.003675
0.004760
0.022079
0.046348
0.025331
-0.004744
0.093928
-0.015391
0.064413
-0.001611
0.012940
0.021987
0.083814
0.071856
0.041310
0.121817
0.125622
0.065914
0.206983
0.132382
0.168084
0.224911
0.170590
0.260543
0.275477
0.369631
0.277762
0.382072
0.276537
0.360113
0.366920
0.464934
0.393471
0.375807
0.542158
0.445693
0.412407
0.480307
0.508426
0.468862
0.499281
0.456236
0.476398
0.406207
0.433555
0.503227
0.418329
0.420689
0.447554
0.375464
0.391715
0.385073
0.279891
0.290032
0.307115
0.243554
0.280091
0.283204
0.203911
0.220098
0.164157
0.184729
0.144272
0.101304
0.064353
0.085507
0.048704
0.013953
0.125081
0.076681
0.037509
-0.020787
0.082955
0.186466
-0.057823
0.085634
0.050555
0.010835
-0.025801
0.007841
-0.052923
-0.019734
0.055651
0.022210
-0.033555
-0.045173
-0.050368
-0.000378
0.051181
0.006250
0.043797
-0.067577
0.046916
0.013307
-0.009227
0.013399
0.012986
0.089742
-0.026042
-0.045498
-0.071354
0.161880
0.038018
0.006660
0.044869
0.003501
0.033751
0.057965
-0.030251
0.015747
0.060840
-0.023088
-0.033392
-0.029171
0.003422
-0.034854
-0.040591
0.030979
0.076628
0.030008
0.027057
0.025729
-0.033717
-0.023376
0.027848
0.072424
0.022674
0.026031
0.042983
-0.042295
-0.003549
0.017482
0.095230
0.087875
0.021885
0.063131
0.101482
-0.034856
0.027533
-0.074351
0.115978
0.030390
0.056706
0.058182
0.069509
0.049920
0.104526
-0.061640
-0.000407
-0.013812
0.009753
0.139878
0.008529
0.085706
0.033391
0.041597
0.064033
0.104028
0.103090
0.045978
0.068085
0.121576
0.020302
0.134381
0.116849
0.109164
0.127510
0.193166
0.161606
0.214394
0.141694
0.199570
0.172314
0.146089
0.147943
0.209372
0.249779
0.219780
0.241376
0.311846
0.249272
0.224937
0.187000
0.213887
0.164248
0.181342
0.181193
0.158901
0.174680
0.118771
0.160552
0.129246
0.062855
0.043284
0.102139
0.053236
0.112519
0.181669
0.110511
0.145696
0.113841
0.078720
0.128785
0.112870
0.005666
0.042998
0.081196
0.104309
0.103579
0.076822
0.031144
0.019582
0.053016
0.081950
0.109950
0.011735
0.093121
0.080231
0.020157
0.002983
-0.001720
0.127278
0.201368
0.480303
0.844237
1.215315
1.436085
1.500000
1.457495
1.223022
0.887829
0.594101
0.124997
-0.062672
-0.198941
-0.255009
-0.272610
-0.182997
-0.034714
0.007580
0.138107
-0.032446
0.166931
0.139167
0.112939
0.173899
0.081656
0.173587
0.107874
0.142412
0.116239
0.121953
0.046100
0.147922
0.152095
0.083400
0.121267
0.150746
0.077411
0.150356
0.192457
0.187315
0.175735
0.257452
0.204552
0.213947
0.307974
0.244611
0.284603
0.306846
0.417217
0.293882
0.332785
0.415564
0.376193
0.428362
0.364166
0.432380
0.480500
0.520374
0.447996
0.554761
0.518860
0.498141
0.594883
0.568570
0.640836
0.517225
0.697418
0.588608
0.580247
0.664552
0.619526
0.617999
0.504511
0.543466
0.538352
0.565049
0.633709
0.521629
0.438435
0.492660
0.514372
0.460019
0.417643
0.459560
0.432801
0.336946
0.311292
0.317999
0.272271
0.234842
0.280129
0.269284
0.243251
0.248333
0.222421
0.151435
0.164122
0.167560
0.159287
0.099749
0.142908
0.165189
0.185295
0.123536
0.141529
0.016854
0.108204
0.077915
0.083153
0.051461
0.043987
0.104353
0.111888
0.138641
0.094324
0.083675
0.079366
0.076237
0.069427
0.059375
0.053205
0.149712
0.087617
0.060594
0.024332
0.038523
0.081171
0.129744
0.145993
0.044705
0.086757
0.049265
0.100847
0.047453
0.163159
0.072335
0.008480
0.108811
0.140048
0.072937
0.107177
0.045788
0.055896
0.058592
0.126626
0.100934
0.098842
0.123772
0.118980
0.134834
0.128286
0.115891
0.095774
0.128303
0.092352
0.028781
0.088889
0.000285
0.075466
0.096098
0.054354
0.058671
0.083206
0.081332
0.100513
0.109293
0.096205
0.032997
0.116336
0.065686
0.091762
0.062310
0.109259
0.044613
-0.036988
0.024030
0.128742
0.051444
-0.002839
0.074549
0.140102
0.055992
0.042525
0.069796
0.150903
0.071795
0.204020
0.030443
0.150266
0.144482
0.134282
0.148797
0.137505
0.213561
0.117995
0.171981
0.149020
0.183690
0.070852
0.283156
0.212829
0.197190
0.296051
0.161116
0.262666
0.210368
0.243810
0.260320
0.268329
0.238820
0.266870
0.117378
0.165080
0.135368
0.196001
0.064465
0.108356
0.079118
0.092086
0.136821
0.194516
0.075323
0.023059
0.075404
0.088492
0.126975
0.163287
0.087399
0.064238
-0.003175
0.133192
0.051214
0.067449
-0.018689
0.061764
0.014810
0.103217
0.034882
-0.041057
0.026584
0.087265
0.019398
0.057760
0.075731
0.075919
0.039386
-0.070019
-0.010815
0.035514
0.034611
0.228086
0.430742
0.781320
1.106436
1.412263
1.455179
1.411701
1.162424
0.874340
0.516718
0.172338
-0.142150
-0.161814
-0.321624
-0.272642
-0.211915
-0.143463
-0.130570
-0.031652
0.032460
-0.071338
0.018620
0.078122
-0.010674
0.012043
0.020379
0.027055
0.026543
0.036593
0.039584
0.056941
0.061026
0.001415
0.075362
0.015550
0.070041
0.063113
0.127034
0.024893
0.133499
0.088576
0.080814
0.097247
0.171675
0.208486
0.124461
0.158225
0.199393
0.252338
0.241452
0.214405
0.264190
0.343471
0.294609
0.320299
0.359288
0.368255
0.423732
0.479270
0.360603
0.513579
0.440089
0.451851
0.503755
0.484117
0.433386
0.578131
0.531532
0.518165
0.506464
0.483521
0.511745
0.506851
0.415933
0.447321
0.480156
0.421669
0.347309
0.412029
0.370930
0.383548
0.382792
0.331306
0.358263
0.296390
0.259506
0.272515
0.241106
0.214035
0.123511
0.115200
0.167260
0.094619
0.071154
0.021039
0.075580
0.012825
0.094940
-0.032536
-0.049675
0.096511
0.000812
-0.024863
0.008474
-0.011194
-0.059343
-0.046932
-0.014630
-0.063755
-0.056643
-0.001800
-0.050932
-0.135689
-0.077193
0.045811
0.030267
-0.042818
-0.033016
-0.086017
0.026115
-0.152155
-0.046977
0.016068
-0.093042
0.004589
0.010522
-0.090051
-0.068126
0.046936
-0.063743
-0.076174
0.036157
-0.083950
-0.073144
-0.116719
-0.068605
-0.097201
-0.002619
-0.132723
-0.119155
-0.030074
-0.083943
-0.026351
-0.067344
-0.051905
-0.058112
-0.107680
-0.102148
-0.029234
-0.143748
-0.165092
-0.050264
-0.114941
-0.086390
-0.027602
0.003227
-0.032763
-0.120116
-0.027996
-0.053924
0.008058
-0.039191
-0.057762
-0.074258
-0.053129
-0.035753
-0.047463
-0.026161
-0.086792
-0.123044
-0.063124
-0.092106
-0.049434
-0.056796
-0.100786
-0.072239
-0.096525
-0.036842
-0.090523
-0.034914
-0.143482
-0.125505
-0.063765
-0.126865
-0.074175
-0.042836
-0.119311
-0.120225
-0.007833
0.013792
-0.009841
-0.037664
0.032194
0.027913
0.035726
0.022754
0.030155
0.075801
0.133904
0.023078
0.048835
0.021837
0.096132
0.068728
0.152059
0.178913
0.128046
0.080709
0.099907
0.056264
0.040984
0.004175
0.069330
0.010785
-0.054371
0.142279
0.044979
0.009832
0.044993
-0.044982
-0.047322
-0.006485
0.015080
0.026766
-0.045406
-0.078832
0.022695
-0.061878
-0.068767
-0.073486
-0.053516
-0.085633
-0.071890
-0.016518
-0.039760
-0.120280
-0.070105
-0.029136
-0.093232
0.008489
-0.123984
-0.044028
-0.064753
-0.061544
-0.135070
-0.165723
-0.091084
-0.114960
-0.108149
-0.120685
0.036055
0.325063
0.591652
1.023721
1.212367
1.305957
1.289088
0.954942
0.644278
0.396093
0.091457
-0.195642
-0.249718
-0.351739
-0.292699
-0.248497
-0.260772
-0.115940
-0.120165
-0.029450
-0.112818
-0.099728
-0.055513
-0.072218
-0.051338
-0.058898
-0.053180
-0.099036
0.030434
-0.050768
-0.085682
-0.099992
-0.134502
0.014562
-0.048922
-0.059141
-0.033762
0.020203
-0.037322
0.066531
-0.010060
-0.019229
0.083253
0.132777
0.130103
0.108020
0.055207
0.192866
0.182531
0.168339
0.179760
0.169830
0.176697
0.191112
0.277959
0.296323
0.311438
0.336011
0.354672
0.337306
0.304412
0.336751
0.396889
0.393791
0.445149
0.449898
0.444363
0.383832
0.456951
0.442534
0.448303
0.489556
0.408479
0.324744
0.389155
0.421293
0.404000
0.360490
0.321503
0.396270
0.335159
0.276647
0.315660
0.226209
0.265467
0.188156
0.216005
0.140550
0.100618
0.107530
0.078043
0.035634
0.127777
0.059140
0.086278
0.002278
-0.034367
0.061772
0.032421
0.018647
0.010655
0.003026
-0.088663
-0.017953
0.079493
-0.060392
-0.085489
-0.046355
-0.069605
-0.003106
0.022815
-0.098764
-0.038384
-0.022410
0.045621
-0.063178
-0.109212
0.001321
-0.017770
-0.034792
-0.068961
-0.090450
-0.060016
-0.023108
-0.009790
-0.035618
-0.053153
-0.050636
0.009179
-0.014361
-0.087113
-0.070101
-0.044917
-0.114590
-0.038766
-0.016326
-0.108397
-0.000457
0.076932
-0.152005
0.040526
-0.028276
-0.002751
-0.054089
0.001301
-0.013190
0.005682
0.024227
-0.072174
-0.079319
-0.033431
-0.020622
0.037757
-0.039301
-0.077041
-0.076162
-0.065336
-0.026064
-0.073395
-0.032741
-0.017357
-0.073763
0.048707
-0.010665
0.077290
-0.044466
-0.059333
0.012691
-0.016485
-0.092628
-0.022008
-0.048211
-0.010651
-0.037978
-0.024973
0.039464
-0.024489
0.003644
0.031032
0.034914
-0.002924
-0.013955
0.010417
0.015052
0.066069
0.022380
0.094378
-0.037184
0.005140
-0.013459
-0.015582
0.038057
0.142621
0.130478
0.111597
0.082685
0.110817
0.125565
0.111230
0.145243
0.143847
0.123426
0.190062
0.120954
0.161887
0.225898
0.242654
0.213758
0.219975
0.191063
0.126769
0.191027
0.194404
0.095432
0.094958
0.121421
0.065591
0.073343
0.103612
0.003303
0.009009
0.059040
0.032117
0.087725
0.038398
-0.007489
0.049905
-0.022667
-0.045461
0.011515
0.021510
0.065887
0.148437
0.049796
0.059656
-0.025715
0.037071
0.040822
0.074605
0.050100
0.021572
-0.067304
0.013797
0.025859
-0.031362
-0.045964
0.045174
-0.041566
-0.096223
0.008160
0.205584
0.356326
0.716390
1.043462
1.365124
1.462164
1.492550
1.092307
0.824677
0.479101
0.141851
0.001689
-0.237324
-0.260064
-0.282211
-0.121269
-0.120463
-0.109589
-0.033960
0.049292
-0.013864
0.107231
-0.005145
0.042780
0.053398
0.125326
0.084461
0.004146
0.082676
0.053893
0.040741
0.056744
0.123807
0.072819
0.016322
0.110169
0.081608
0.054381
0.073669
0.137647
0.127155
0.184262
0.182818
0.178565
0.202313
0.152097
0.197537
0.212443
0.220644
0.254138
0.284002
0.352507
0.335607
0.453227
0.362011
0.354357
0.397233
0.422577
0.455856
0.446600
0.473503
0.464376
0.536331
0.547814
0.534614
0.509291
0.583405
0.594488
0.574500
0.547715
0.604532
0.546128
0.484128
0.546282
0.526359
0.492526
0.584953
0.498178
0.461184
0.445410
0.415124
0.323400
0.354829
0.375402
0.391565
0.360270
0.275309
0.342666
0.298638
0.166527
0.181829
0.183109
0.173873
0.152818
0.117720
0.128836
0.071022
0.131307
0.095040
0.040476
0.132165
0.082883
0.060475
0.068211
0.041724
0.147540
0.057546
0.072784
-0.007709
0.077692
0.008270
0.019684
0.089407
0.084408
0.018003
0.053571
-0.017521
0.095646
0.137985
0.028326
0.069667
-0.020241
0.074729
0.029505
0.049087
0.011588
0.227685
0.026402
0.059514
0.070874
0.033465
0.002167
0.057854
0.057969
0.065391
0.057561
0.030618
0.013092
0.084315
0.092491
0.053177
0.016838
-0.005501
-0.024326
0.096057
0.066648
0.049001
0.010546
0.006222
0.074966
0.070316
0.046429
-0.075909
-0.042853
0.033433
0.104841
0.009697
0.023532
0.034380
0.020063
0.083840
0.087928
0.014696
0.068633
0.016814
0.001082
0.004977
0.034996
0.026656
0.014736
0.053578
0.012144
0.031474
0.031256
-0.045688
0.095199
-0.008717
0.054935
0.081333
0.048782
0.049715
0.044898
0.036420
-0.013602
0.082079
0.123425
0.082340
0.110985
0.089884
0.100906
0.131634
0.029743
0.119778
0.115965
0.099935
0.181334
0.112492
0.191334
0.150606
0.256022
0.248955
0.124415
0.198113
0.156951
0.150727
0.151126
0.202298
0.186897
0.129348
0.169335
0.269059
0.130624
0.208154
0.163679
0.174161
0.130640
0.196960
0.115909
0.153138
0.058846
0.141425
0.028893
0.036491
0.011282
0.046220
0.067996
0.009408
-0.012861
-0.021183
-0.005565
0.056174
-0.007265
-0.065223
0.077221
0.031259
-0.008661
0.063108
-0.005891
0.016846
-0.006816
-0.050623
-0.002589
0.024040
0.010974
-0.023346
-0.020384
-0.020197
-0.055306
-0.033781
0.050472
0.147489
0.415820
0.725409
1.015899
1.253430
1.399070
1.362369
1.145134
0.827904
0.472943
0.174443
-0.157389
-0.354336
-0.348682
-0.332845
-0.217703
-0.159236
-0.063955
-0.041139
-0.017863
-0.032241
0.063668
0.046919
-0.118916
-0.015950
-0.087893
0.014593
0.007747
0.027958
-0.012696
-0.009275
0.067369
0.070570
0.029965
0.014764
0.007857
0.010846
0.085286
0.098382
0.099620
0.035302
0.135537
0.090937
0.154524
0.105159
0.165720
0.218045
0.202609
0.155925
0.211090
0.155116
0.278250
0.261260
0.306875
0.314812
0.351642
0.357918
0.385015
0.431397
0.436154
0.405212
0.448610
0.464301
0.452709
0.419171
0.517955
0.496193
0.464418
0.498795
0.486765
0.449384
0.492082
0.407690
0.421878
0.488768
0.420814
0.377144
0.328714
0.366939
0.284709
0.286126
0.268327
0.255973
0.200793
0.292807
0.158944
0.214088
0.181592
0.128391
0.135055
0.115563
0.108883
0.138961
0.067959
0.072671
0.055978
0.086501
0.082103
-0.062616
0.024204
0.027915
-0.064629
0.027387
-0.011004
-0.011757
-0.044295
-0.066149
-0.110958
-0.038913
-0.103196
-0.006136
-0.071451
-0.001190
-0.061090
0.020247
-0.140870
-0.022449
-0.166214
-0.000372
-0.054533
-0.079254
-0.044003
-0.064720
-0.044652
-0.094130
-0.039709
-0.012039
-0.058413
-0.101278
-0.004451
-0.096746
-0.074415
-0.128956
-0.094091
-0.093060
-0.190212
-0.085272
-0.054522
-0.111794
-0.118071
0.005264
-0.078400
-0.097263
-0.051774
-0.010623
-0.105826
-0.079129
-0.144772
-0.101200
-0.090368
-0.139448
-0.007487
-0.054590
-0.094290
-0.039383
-0.015840
-0.108518
-0.098950
-0.059562
-0.119929
-0.052436
-0.081372
-0.092320
-0.084419
-0.127503
-0.115088
-0.116486
-0.052549
-0.164244
-0.053851
-0.152243
0.056547
-0.180122
-0.031538
-0.057250
-0.086025
-0.110651
-0.064126
-0.005657
-0.152123
-0.057223
-0.016131
-0.112699
-0.100361
-0.028615
-0.011139
0.031986
-0.063820
0.008413
0.004479
-0.000144
-0.076096
-0.089392
-0.010235
0.067935
-0.027002
0.047811
-0.029629
0.051117
0.125676
0.040956
0.153397
0.077600
0.139920
0.113226
0.114248
0.166372
0.069240
0.070310
0.056438
0.035008
0.092555
0.012980
0.013732
0.010464
-0.004263
0.069437
0.012943
-0.075203
-0.042118
0.018582
-0.017145
-0.035634
-0.030159
-0.088123
-0.111514
-0.053067
0.000933
-0.068895
-0.063563
-0.093502
-0.015361
-0.075559
-0.111274
-0.085749
-0.083534
-0.105112
-0.105800
-0.111143
-0.082706
-0.072624
-0.093781
-0.049268
-0.117799
-0.111490
-0.073866
-0.174932
-0.138729
-0.093950
-0.108277
0.063629
0.305086
0.585419
0.975434
1.192120
1.305182
1.199720
0.983052
0.743362
0.410253
0.093072
-0.207276
-0.395596
-0.472238
-0.358020
-0.409724
-0.291631
-0.130948
-0.076764
-0.141053
-0.128677
-0.057289
-0.064537
-0.101866
-0.105611
-0.067927
-0.078349
-0.062137
-0.100865
-0.103189
-0.125459
-0.052834
-0.148637
-0.073489
-0.018344
0.052872
-0.027421
0.018242
-0.036003
0.039173
0.009800
0.086548
0.068415
0.146570
0.050734
-0.002086
0.040502
0.111889
0.150182
0.179639
0.178818
0.147533
0.212595
0.256079
0.277475
0.228501
0.322933
0.364494
0.350312
0.336506
0.325259
0.399533
0.365365
0.436753
0.420811
0.413435
0.471827
0.442909
0.431941
0.462402
0.343170
0.480837
0.457597
0.330015
0.389712
0.389023
0.373580
0.367513
0.289737
0.335716
0.386543
0.233541
0.289404
0.299930
0.206136
0.194951
0.249648
0.180909
0.143614
0.168518
0.105426
0.079856
0.019932
0.028856
0.009390
0.011582
-0.023868
0.041566
0.001472
0.052136
-0.041999
-0.045866
0.019703
-0.091162
-0.091562
-0.021499
-0.051379
0.065208
-0.037793
-0.131248
-0.024566
0.030879
-0.004453
-0.095770
-0.018043
-0.036177
-0.036508
-0.042964
-0.036175
-0.027212
-0.000223
-0.117979
-0.016259
0.064934
-0.009929
-0.018388
-0.073397
-0.023886
-0.127203
-0.106479
-0.002657
-0.049519
-0.065341
-0.068301
0.011878
-0.020058
0.054605
0.059614
-0.058343
-0.067207
-0.015269
0.007646
-0.071731
-0.014869
-0.004373
-0.079026
-0.022479
-0.099880
-0.128871
-0.011219
0.002082
-0.075704
-0.000805
0.012576
-0.052934
0.030933
-0.001724
-0.077433
-0.002828
-0.005588
0.046516
-0.026466
0.025068
-0.048289
-0.046212
-0.089042
-0.001583
-0.045889
-0.033843
-0.030639
-0.033724
-0.035283
-0.040610
0.005250
0.057383
-0.059248
0.002379
-0.002526
-0.016347
-0.054937
-0.038231
0.010685
-0.026264
0.036654
-0.061578
0.000656
0.002855
-0.014207
0.061613
-0.016022
0.065453
0.107342
0.108034
0.076985
0.095657
0.142070
0.116835
0.165056
0.136879
0.217806
0.101339
0.163729
0.174710
0.212986
0.225623
0.117212
0.160266
0.170963
0.141511
0.156956
0.200313
0.240933
0.160875
0.223971
0.078098
0.251694
0.021550
0.069362
0.008388
0.069496
0.161058
0.065721
0.108445
0.066955
-0.000153
0.064979
0.013199
0.051567
0.046286
0.048713
-0.019244
0.022234
-0.066272
0.023964
0.016538
-0.020422
0.069837
0.003014
0.086406
0.078314
-0.013106
0.017600
0.000219
-0.112713
-0.029219
0.006272
-0.058277
0.006043
0.041735
0.017855
0.120384
0.458734
0.742458
1.051117
1.312521
1.406514
1.416973
1.182762
0.839596
0.466614
0.178283
-0.140159
-0.183170
-0.236887
-0.240936
-0.273351
-0.122728
0.030558
-0.009516
0.054870
0.041131
0.049773
0.088373
-0.000318
0.090983
0.139999
0.163563
0.045005
0.063143
0.113077
0.114592
0.142680
0.081369
0.108081
0.136932
0.114241
0.087122
0.065382
0.145686
0.138354
0.175519
0.185482
0.176145
0.235339
0.219298
0.204547
0.239165
0.189369
0.190665
0.400628
0.307950
0.380346
0.297971
0.326167
0.429641
0.415577
0.470925
0.505709
0.475145
0.516327
0.511096
0.579947
0.542622
0.529707
0.597161
0.536384
0.611359
0.576177
0.534860
0.574491
0.551485
0.557622
0.469738
0.580946
0.482941
0.642647
0.537073
0.485637
0.427996
0.456435
0.541494
0.380771
0.357863
0.331612
0.368309
0.303486
0.267964
0.347293
0.367877
0.182482
0.226980
0.253324
0.174201
0.153416
0.161928
0.131025
0.151198
0.143517
0.138107
0.135121
0.228421
0.035656
0.089647
0.152611
0.096973
0.121028
0.126031
0.067107
0.084358
0.165851
0.144445
0.058839
0.101470
0.089893
0.038661
0.081070
0.085379
0.058241
0.077476
0.044579
0.107847
0.073148
0.129547
0.057211
0.180214
0.057659
0.119519
0.065767
0.014627
0.041343
0.022248
0.044703
0.090707
0.116640
0.039360
0.147085
0.068264
0.024175
0.091748
0.054570
0.027764
0.037335
0.091797
0.081246
0.051545
0.078710
0.134097
0.071143
0.068639
0.030308
0.016158
-0.020121
0.143510
0.102508
0.054203
