-0.057899
0.025587
-0.106742
0.005836
-0.005014
-0.007683
0.041073
0.085676
-0.019497
0.014602
0.013846
0.101783
0.156945
0.011848
-0.092778
0.035027
-0.026328
0.063638
0.066306
0.029865
0.008519
0.012768
0.032671
0.107702
0.069338
0.144786
0.111142
0.074292
0.102230
0.120682
0.086027
0.093361
0.151794
0.171123
0.170816
0.171682
0.190375
0.163235
0.201948
0.170053
0.156927
0.302546
0.203078
0.179445
0.227577
0.136768
0.168185
0.159347
0.141544
0.147617
0.183401
0.290718
0.058695
0.142249
0.110426
0.121907
0.166041
0.049084
0.153904
0.102255
0.049703
0.103847
0.121713
0.056583
0.021605
0.129248
0.029473
0.018237
0.095630
0.045651
0.032742
0.013093
-0.007807
0.066817
0.150510
0.210623
0.436020
0.746138
1.065786
1.365863
1.416642
1.397251
1.202027
0.777768
0.436642
0.022037
-0.135880
-0.241162
-0.192199
-0.145052
-0.017216
0.011024
0.047135
0.095513
0.068335
0.067485
0.120625
0.140021
0.128892
0.109210
0.159190
0.182019
0.145552
0.241535
0.211652
0.164118
0.201779
0.210761
0.313867
0.210616
0.283131
0.310925
0.288478
0.295172
0.362224
0.385438
0.401951
0.487156
0.417244
0.528214
0.445499
0.399073
0.541514
0.597238
0.549712
0.571902
0.568260
0.588315
0.494770
0.537329
0.674602
0.661511
0.643147
0.598485
0.556686
0.592236
0.509419
0.522382
0.541348
0.417669
0.527705
0.527083
0.484869
0.462866
0.431151
0.423832
0.329194
0.339377
0.342561
0.277745
0.351377
0.245525
0.320045
0.257416
0.235309
0.275887
0.173104
0.136098
0.194171
0.193698
0.138868
0.145675
0.115912
0.118449
0.093173
0.082778
0.119073
0.065589
0.153428
0.076058
0.106009
0.163558
0.029897
0.066666
0.105224
-0.003719
0.129412
0.127832
0.066404
0.115936
-0.000755
0.051071
0.055236
0.058154
-0.005069
0.115760
0.124423
0.069806
0.124962
0.063553
0.163881
0.180583
0.042460
0.135534
0.159809
0.003649
0.009526
0.075154
0.085070
0.060176
0.069201
0.097429
0.149378
0.015334
0.210093
0.111892
0.036072
0.024156
0.052345
0.145665
0.038857
0.120211
0.005712
0.114922
0.133233
0.107038
0.116948
0.167907
0.127531
0.104731
0.060908
0.160941
0.104116
0.174051
0.158829
0.127747
0.077647
0.165888
0.243014
0.194684
0.154226
0.178444
0.179632
0.175016
0.220688
0.246504
0.242653
0.246460
0.354177
0.239328
0.210223
0.245743
0.235439
0.206274
0.237927
0.246695
0.263520
0.205532
0.263679
0.208898
0.150696
0.132017
0.213365
0.171842
0.185163
0.124336
0.078276
0.066713
0.178453
0.099465
0.072021
-0.016982
0.126404
0.010985
0.077936
0.091995
0.099837
0.171458
0.126703
0.054519
0.117057
0.082094
-0.000894
0.027776
0.112064
0.249529
0.474731
0.731407
1.055610
1.428661
1.499617
1.346536
1.183136
0.717133
0.432394
0.120683
-0.153238
-0.178749
-0.166020
-0.054472
-0.032397
0.038707
0.000858
0.062838
0.101528
0.126670
0.127272
0.082387
0.148440
0.090406
0.162363
0.145961
0.153130
0.209622
0.207514
0.145806
0.156349
0.201424
0.242541
0.246039
0.195458
0.320113
0.258701
0.351814
0.351153
0.331589
0.327210
0.473691
0.391943
0.419998
0.478566
0.453224
0.433276
0.509593
0.533945
0.522814
0.513285
0.598314
0.616864
0.613561
0.612571
0.539537
0.563049
0.503587
0.526165
0.500688
0.513037
0.543548
0.571949
0.438896
0.435220
0.415920
0.464117
0.473146
0.334821
0.352185
0.374087
0.308232
0.275517
0.191414
0.278870
0.186928
0.171742
0.174110
0.138998
0.142653
0.210581
0.092664
0.092268
0.182275
0.089959
0.070331
0.072224
0.022226
0.099083
0.067591
0.022162
0.043945
0.062147
0.138619
0.015830
0.030713
0.072027
0.102898
0.064751
0.021179
0.114350
0.058468
-0.050296
-0.006425
-0.028538
0.011190
0.029229
0.060247
-0.016277
-0.008605
0.003833
0.049136
0.024575
-0.022099
0.012099
0.020482
0.053898
0.033754
0.006292
0.090726
0.014674
-0.004102
0.024403
-0.002549
0.010591
0.101789
-0.035893
0.035833
0.091065
-0.012796
-0.031278
0.001166
0.095295
0.007178
0.036983
0.014539
-0.024317
-0.026693
0.016078
0.051923
-0.004090
0.051175
0.047264
0.004825
-0.017001
0.031649
0.089739
0.024156
-0.001528
0.089358
0.076483
-0.056713
0.112593
0.109945
0.147043
0.148626
0.097211
0.167205
0.103047
0.119191
0.204742
0.247639
0.180259
0.137445
0.149829
0.109774
0.193875
0.206281
0.140015
0.141043
0.163971
0.059234
0.041437
0.047529
0.141234
0.105626
0.005621
0.101908
0.090785
0.125797
0.039132
0.024959
0.037446
-0.008901
-0.054211
0.014140
0.047008
-0.051987
-0.043868
0.061974
-0.097600
0.019053
-0.004063
-0.063817
-0.102749
-0.015438
-0.099920
-0.077648
-0.008637
0.188682
0.330509
0.583988
0.984152
1.305138
1.405887
1.198699
1.101846
0.666782
0.291263
0.012101
-0.254852
-0.307781
-0.246153
-0.176856
-0.097197
-0.052222
-0.040453
-0.011590
0.021968
0.071895
0.003478
-0.011321
0.020905
0.004026
-0.044079
0.104432
0.080230
0.056521
0.034646
0.147772
0.161491
0.090267
0.156389
0.146243
0.144892
0.193661
0.210568
0.274469
0.189704
0.289596
0.285434
0.266423
0.265586
0.403851
0.445946
0.366057
0.479869
0.351718
0.419211
0.465665
0.587117
0.397917
0.443371
0.521497
0.490300
0.466706
0.516945
0.431833
0.465157
0.441439
0.437300
0.391452
0.494312
0.428219
0.340887
0.308946
0.316749
0.310350
0.348487
0.257216
0.236467
0.275724
0.198417
0.165639
0.276755
0.080277
0.128691
0.108219
0.121883
0.071581
0.027319
0.082289
0.102668
0.065612
0.102399
0.062991
-0.007401
-0.073741
0.040568
0.007410
0.134712
-0.012899
-0.016327
-0.031286
-0.035631
-0.047482
0.053256
-0.012416
-0.012604
-0.050128
-0.109595
-0.076691
-0.098238
-0.075861
-0.041288
-0.031855
0.016520
-0.084533
-0.085139
0.036241
-0.002758
-0.006401
0.004216
-0.108451
0.007677
-0.044591
-0.059523
-0.094275
-0.087944
0.004282
0.046421
-0.038919
-0.033998
-0.058597
-0.025247
-0.003468
0.040589
-0.037061
-0.083409
-0.065596
-0.070378
-0.024100
0.016829
-0.094960
-0.000513
-0.126943
-0.145277
-0.003477
-0.097156
-0.025995
-0.045036
-0.026301
-0.088131
-0.014397
-0.023897
-0.021624
-0.011269
0.048279
0.026673
0.027450
0.014329
0.110601
0.093894
0.119430
0.065574
0.094305
0.112165
0.134282
0.091856
0.080989
0.094502
0.120820
0.221593
0.094871
0.122875
0.182488
0.115146
0.134966
0.128278
0.157461
0.120154
0.116813
0.123216
0.031996
0.045948
0.076587
0.080136
0.086719
0.050219
0.018232
0.024237
0.052815
0.058769
-0.009307
0.050059
-0.025912
0.004730
0.088604
-0.072166
-0.023850
0.018299
-0.004367
-0.058859
-0.022677
-0.014578
-0.010277
-0.000218
-0.005404
-0.012176
0.117849
0.417721
0.779139
1.021354
1.198804
1.349748
1.303742
0.968083
0.717765
0.353089
0.030606
-0.077599
-0.221055
-0.290124
-0.156877
-0.055528
-0.012588
-0.001322
0.018155
0.103404
0.072897
0.043589
-0.005365
0.019584
0.070745
0.074636
0.049175
-0.014137
0.035512
0.071961
0.196865
0.149128
0.190072
0.222249
0.245600
0.175816
0.340417
0.193756
0.262018
0.256046
0.310532
0.348640
0.404866
0.341404
0.350297
0.385532
0.443458
0.430288
0.477906
0.499890
0.470614
0.524555
0.549280
0.583949
0.501924
0.541860
0.514380
0.521815
0.512321
0.465537
0.589209
0.433287
0.372055
0.447394
0.404412
0.393220
0.389649
0.386049
0.392556
0.248360
0.313698
0.321320
0.253958
0.308163
0.324325
0.248385
0.234040
0.205621
0.191652
0.169829
0.149317
0.099048
0.201721
0.146007
0.125533
0.011385
0.113182
0.046150
0.112217
0.080151
0.104004
0.109384
0.041645
0.003132
0.039154
0.101507
0.001631
-0.041732
0.040204
0.068090
0.047631
0.004987
0.072756
0.024234
0.031482
0.056407
0.020210
0.051857
0.064123
0.041274
0.082690
0.049338
0.053290
0.152186
-0.003859
0.064899
0.022878
0.117590
0.034601
0.010604
0.048812
-0.001536
0.059914
0.022111
0.031719
0.069044
0.027421
0.087634
0.067245
0.092302
0.038696
0.027340
0.065931
-0.034940
-0.038408
-0.020878
0.049512
0.042895
0.002804
0.153241
-0.006391
0.053963
0.058605
0.129873
0.071824
0.069167
0.182746
0.108709
0.031791
0.182981
0.166973
0.064005
0.089787
0.111656
0.142718
0.213558
0.210042
0.133035
0.191454
0.274720
0.174292
0.254674
0.255793
0.334472
0.233432
0.238160
0.262648
0.261810
0.272297
0.193807
0.282823
0.225559
0.240653
0.286856
0.181112
0.169776
0.179645
0.120299
0.161313
0.155139
0.133513
0.127803
0.052418
0.200307
0.106294
0.087933
0.089335
0.054587
0.099552
0.098539
0.104363
0.052044
0.028582
0.114171
0.060176
0.019852
0.187369
0.066434
0.070264
0.209708
0.279781
0.579379
0.800366
1.151234
1.316958
1.472279
1.396606
1.127483
0.749426
0.416785
0.095481
-0.094406
-0.163692
-0.091593
-0.052436
0.019182
0.033312
0.102844
0.068482
0.113543
0.060658
0.104344
0.161102
0.178406
0.114561
0.248536
0.166133
0.200322
0.219562
0.254521
0.265749
0.240764
0.248642
0.361101
0.284283
0.321188
0.357706
0.314456
0.385882
0.407784
0.437759
0.402732
0.451662
0.462721
0.457732
0.563333
0.534973
0.584631
0.521762
0.575221
0.580184
0.571574
0.592990
0.566139
0.529835
0.649723
0.660847
0.569532
0.628858
0.678142
0.610628
0.610576
0.576027
0.484943
0.532806
0.542337
0.567788
0.389157
0.487272
0.361701
0.486477
0.400326
0.378204
0.353376
0.371736
0.201942
0.301776
0.295703
0.255432
0.198370
0.259306
0.213211
0.217401
0.154988
0.225263
0.154655
0.075986
0.192717
0.221740
0.176258
0.131499
0.088930
0.146460
0.069320
0.087558
0.153931
0.148628
0.113103
0.130974
0.034519
0.144770
0.118437
0.079451
0.087087
0.074460
0.063213
0.101635
0.039932
0.112385
0.041048
0.006674
0.192658
0.087682
0.046151
0.058674
0.152428
0.185917
0.145555
0.122814
0.084701
0.065662
0.112949
0.062371
0.041356
0.043553
0.082085
0.045711
-0.057310
0.090625
0.069585
0.190930
0.039901
0.105986
0.058200
0.099180
0.065725
0.096699
0.038353
0.035958
0.087330
0.050703
0.081428
0.023660
0.113319
0.146653
0.115034
0.136770
0.087246
0.113803
0.185057
0.160356
0.090113
0.251955
0.185140
0.175949
0.255698
0.157103
0.208917
0.157537
0.246223
0.282554
0.218281
0.243839
0.211458
0.232759
0.212586
0.292632
0.185697
0.251474
0.150757
0.231260
0.215283
0.127164
0.155252
0.160526
0.135979
0.208987
0.141943
0.186309
0.194249
0.086146
0.105663
0.090627
0.091998
-0.010474
0.126550
0.049583
0.126220
0.088719
0.025653
0.069478
0.073941
0.070128
0.000073
0.125216
0.097393
0.001925
0.025665
0.088162
0.121838
0.197281
0.544249
0.675293
1.001550
1.233058
1.446393
1.379153
1.159085
0.740794
0.405288
0.049175
-0.038682
-0.167458
-0.215607
-0.112325
-0.076767
0.032887
-0.001257
0.044371
0.022715
0.017836
0.075159
0.078442
0.029639
0.055816
0.124094
0.187078
0.146985
0.177010
0.209039
0.122054
0.177234
0.122270
0.189625
0.273902
0.215980
0.226919
0.271935
0.352943
0.356546
0.330411
0.409986
0.395677
0.408999
0.465232
0.506096
0.502755
0.374589
0.528870
0.450588
0.580976
0.556689
0.478437
0.498405
0.540261
0.422234
0.501943
0.528343
0.509132
0.489799
0.454508
0.571200
0.412813
0.553171
0.429511
0.441318
0.338928
0.411839
0.361413
0.394373
0.317655
0.404597
0.222685
0.315347
0.227044
0.182001
0.174883
0.241347
0.166162
0.108935
0.085403
0.136440
0.067278
0.053940
0.043122
0.073649
0.065069
-0.030817
0.011455
0.043218
0.041763
0.035798
-0.035853
-0.004416
-0.025842
-0.053937
0.035134
-0.033044
0.016505
-0.029728
-0.041355
-0.081694
-0.054627
-0.091665
0.054315
0.035219
-0.010854
0.000237
-0.036051
-0.088796
0.008222
-0.021010
-0.042377
-0.072808
-0.091073
-0.061016
-0.017821
-0.084178
-0.029745
0.010276
-0.007049
-0.029081
-0.041577
-0.097690
0.002174
0.029059
-0.078046
-0.031575
-0.044139
-0.037301
-0.101705
-0.035355
-0.094220
-0.070111
-0.032821
-0.064576
-0.102644
-0.093975
-0.060551
-0.020177
-0.060437
-0.002731
-0.081411
0.022153
-0.025912
0.041337
-0.009275
-0.074248
0.015105
-0.013170
0.053193
0.043447
-0.008009
-0.010768
0.093274
0.042765
0.090805
0.066680
0.095405
0.131753
0.111814
0.078778
0.146049
0.144415
0.116285
0.109394
0.181959
0.092765
0.118023
0.111148
0.121524
0.163718
0.060134
0.115227
0.064285
0.087782
0.065440
0.064363
-0.020587
0.008665
-0.083357
-0.055548
-0.061283
-0.006939
0.050296
-0.143538
-0.026773
0.076414
-0.043421
-0.176954
-0.128215
0.032922
-0.047308
-0.080275
-0.060303
-0.095733
-0.168068
-0.141931
-0.071942
-0.035435
0.108040
0.309571
0.690848
0.987739
1.179786
1.334492
1.200804
0.944905
0.642369
0.349262
-0.073739
-0.305729
-0.300935
-0.207132
-0.194674
-0.188849
-0.105137
-0.006824
-0.044743
-0.034412
-0.118028
-0.056959
0.015352
-0.036355
-0.060559
0.031018
0.044750
0.062553
0.034947
-0.037312
0.085985
0.085885
0.077486
-0.000708
0.030522
0.138742
0.128440
0.140356
0.157523
0.299252
0.223849
0.249571
0.345114
0.228173
0.371664
0.361562
0.305895
0.438294
0.333454
0.447003
0.444384
0.352964
0.423472
0.346192
0.494710
0.482614
0.417366
0.462068
0.332802
0.441495
0.481711
0.453505
0.409458
0.352841
0.435698
0.364171
0.301323
0.325180
0.238567
0.332357
0.305068
0.162126
0.170428
0.134826
0.139464
0.090830
0.100872
0.092408
0.108664
0.112417
0.044976
0.097652
-0.016818
0.004261
0.002936
0.049893
0.021961
-0.037320
0.006424
-0.076281
-0.010565
-0.018135
-0.078366
-0.008149
-0.106175
-0.169201
-0.057156
-0.112147
-0.048674
-0.013887
-0.071816
-0.058210
-0.017416
-0.140448
-0.102308
-0.034307
-0.112751
-0.046604
-0.010069
-0.032042
-0.111126
-0.083953
-0.041621
-0.122061
-0.096090
-0.067094
-0.024190
-0.052020
-0.101717
-0.041372
0.006289
-0.173352
-0.027696
-0.083319
-0.041310
-0.045993
-0.080351
-0.102547
-0.100077
-0.094834
-0.047197
-0.044554
-0.063157
-0.085844
-0.122708
-0.072080
-0.085824
-0.089496
-0.052024
-0.107408
-0.093443
-0.057982
-0.061144
-0.033644
-0.040542
-0.091802
-0.036613
0.003538
0.046081
0.057889
0.093105
0.034681
0.018570
0.043295
-0.071170
0.012673
0.067637
0.077665
0.131110
0.102562
0.031285
0.060069
0.086968
0.157514
0.068611
0.058016
0.112329
0.123501
0.077249
0.159532
0.109354
0.065395
0.080173
0.056694
0.136105
0.077137
0.028598
-0.032620
0.033543
0.005788
0.009136
0.079292
0.016298
-0.032424
0.068091
0.027058
-0.010746
-0.006703
-0.038783
-0.032126
-0.041597
-0.077170
-0.010175
-0.019533
-0.105491
0.033731
-0.026810
-0.090352
-0.029209
-0.009400
0.122181
0.398924
0.670681
1.024246
1.219143
1.392872
1.264275
1.041835
0.714522
0.244099
0.023102
-0.061454
-0.268937
-0.172203
-0.197853
-0.013332
0.005315
-0.023249
-0.060894
-0.009258
0.058872
0.009792
0.010710
0.049849
0.026455
0.085026
0.005227
-0.005939
0.032292
0.069126
0.105503
0.134892
0.121861
0.098572
0.126798
0.143567
0.263850
0.271762
0.277109
0.267026
0.321249
0.311127
0.295241
0.412645
0.337063
0.423693
0.418052
0.411371
0.442297
0.523353
0.432719
0.425299
0.534372
0.455321
0.563401
0.479065
0.413725
0.505488
0.463854
0.494394
0.401246
0.507141
0.447217
0.386237
0.436231
0.453956
0.405353
0.347510
0.412620
0.308062
0.265887
0.282636
0.288370
0.229392
0.316169
0.294022
0.156894
0.149634
0.101607
0.165184
0.196141
0.085734
0.167048
0.083858
0.091189
0.085199
0.093351
0.016288
0.121733
0.027692
0.010697
0.003194
0.056465
-0.050803
0.045930
0.022194
0.008051
0.006873
0.094902
0.070715
0.017395
0.018984
0.034839
0.022416
0.014018
0.006596
0.017919
0.003297
0.076147
0.007402
-0.016657
0.048347
-0.015916
0.010323
-0.012179
-0.047706
0.086231
-0.010292
0.053528
0.054255
-0.099556
-0.001640
0.010761
0.083270
-0.069473
0.064994
0.019008
-0.006397
0.090189
0.090173
0.048584
0.062317
0.044568
0.051292
0.064573
0.068653
0.117147
0.064045
0.039191
-0.016909
-0.021042
0.085380
0.132102
0.053599
0.085712
0.044255
0.006894
0.096807
0.054927
-0.001366
0.217927
0.136371
0.079396
0.109215
0.189832
0.117768
0.172934
0.159452
0.153066
0.191008
0.151003
0.254440
0.240444
0.235708
0.177286
0.168053
0.204624
0.248129
0.152953
0.193843
0.197904
0.134394
0.158251
0.118058
0.125522
0.118375
0.086372
0.198633
0.099390
0.064048
0.108704
0.121060
-0.002810
0.060974
0.027637
0.038534
0.001392
0.060948
0.020213
0.077144
0.108760
-0.028154
0.091589
0.062364
0.084369
0.100783
0.020168
0.019510
0.032565
0.104299
0.153150
0.438198
0.755337
1.057929
1.354953
1.456392
1.431257
1.124286
0.697070
0.384392
0.047663
-0.110202
-0.171926
-0.202481
-0.068726
-0.035626
0.038132
0.030548
0.155621
0.042478
0.049152
0.059359
0.099651
0.050499
0.157016
0.096342
0.114925
0.103699
0.157290
0.178587
0.197000
0.224016
0.144651
0.263128
0.341855
0.279563
0.253264
0.305236
0.216094
0.345757
0.333177
0.400088
0.437487
0.364971
0.397650
0.427092
0.514192
0.574838
0.499547
0.476652
0.488767
0.506187
0.565233
0.520890
0.580585
0.560270
0.599318
0.503807
0.467100
0.588142
0.533195
0.558577
0.495332
0.497600
0.525873
0.463034
0.387966
0.340534
0.414603
0.320800
0.381005
0.383116
0.313645
0.336101
0.278916
0.243063
0.179777
0.226063
0.245856
0.262910
0.160601
0.227363
0.195494
0.041238
0.099484
0.124540
0.097479
0.065913
0.095673
-0.027315
0.021904
0.085716
-0.032640
0.045337
0.087931
0.034541
0.076957
0.030494
-0.049085
0.114967
0.051243
0.049216
0.032988
0.052322
0.072596
0.054287
0.003355
0.022798
0.076927
0.080608
0.021381
0.082071
0.133617
0.042060
0.034627
-0.007092
0.010258
-0.002017
0.075477
-0.005745
0.041832
0.063866
0.019252
0.016877
0.046845
-0.048174
0.103980
-0.004227
0.004929
0.037302
-0.006888
0.076269
0.015005
0.039495
0.030719
-0.012533
0.024817
0.042691
-0.020947
0.034003
0.158262
0.044937
0.040626
0.055674
0.032153
0.080335
0.057287
0.058407
-0.017757
-0.015559
0.023639
0.061297
0.127650
0.053008
0.129252
0.100626
0.158762
0.112221
0.214070
0.145720
0.112819
0.129073
0.224643
0.192232
0.176208
0.215769
0.158542
0.118929
0.223079
0.185432
0.176356
0.136789
0.167089
0.111883
0.062833
0.215866
-0.009588
0.103385
0.035920
0.133267
0.038163
0.054508
0.040245
0.051271
0.014916
-0.021120
-0.032430
0.096798
-0.001160
0.057772
0.000355
-0.007867
0.013138
-0.046028
0.050281
-0.012083
-0.024569
0.083355
0.003639
0.033135
0.078165
0.411473
0.686045
1.077850
1.301406
1.433506
1.382035
1.030109
0.625620
0.296582
0.027675
-0.182376
-0.369308
-0.329823
-0.177699
-0.031383
-0.129579
-0.060638
0.033385
0.070493
0.031807
-0.032259
-0.080164
-0.010018
0.032340
0.014883
0.064257
0.069597
0.089594
0.043857
0.052341
0.157071
0.151716
0.206521
0.156001
0.229321
0.095224
0.217619
0.224924
0.241322
0.243180
0.202992
0.335747
0.334795
0.401160
0.417776
0.309267
0.429600
0.361470
0.430011
0.404998
0.397174
0.498720
0.485771
0.490107
0.401967
0.445136
0.533781
0.389060
0.468356
0.461733
0.538842
0.377367
0.429209
0.348123
0.359210
0.383579
0.372486
0.286124
0.294842
0.253565
0.244583
0.199469
0.152159
0.124223
0.165521
0.124965
0.158277
0.065269
0.125266
0.097371
-0.001787
0.045102
0.007682
-0.052091
-0.024919
-0.020720
-0.076540
-0.064854
-0.027325
-0.077004
-0.027148
0.029111
0.031289
-0.003794
-0.098057
0.005997
-0.087588
-0.062076
-0.052984
-0.140747
-0.088806
-0.040773
-0.035738
-0.045422
-0.116643
-0.046627
-0.097002
-0.007600
-0.213681
-0.042444
-0.010405
-0.122363
-0.075995
-0.094010
-0.090144
-0.083142
-0.073195
-0.080432
-0.065309
-0.091824
-0.144389
-0.013591
-0.091795
-0.089667
-0.107087
-0.048959
-0.044232
-0.096164
-0.165058
-0.086863
-0.083576
-0.043766
-0.034665
-0.098727
-0.067950
-0.069466
-0.071534
-0.141993
-0.061005
-0.084361
-0.158470
-0.110033
-0.126333
0.001696
-0.028538
-0.053428
-0.013759
0.015297
0.032268
0.003526
-0.002312
-0.121430
-0.090535
0.143906
-0.063470
-0.079338
0.009808
0.004016
0.027552
-0.048101
0.035110
0.052987
0.116645
0.033927
0.035095
0.102840
0.090649
0.066812
0.074632
0.139229
0.083127
-0.057935
0.073402
0.039454
0.012149
0.044367
0.000418
0.001876
-0.042345
-0.054901
-0.023306
-0.028154
-0.044417
-0.089654
-0.055033
-0.183600
-0.031209
-0.077747
-0.143964
-0.094599
-0.049597
-0.068972
-0.119861
-0.035618
-0.062788
-0.069398
-0.052817
-0.099153
-0.077062
0.155146
0.236525
0.592936
1.018160
1.115764
1.214527
1.233871
0.984250
0.594433
0.324520
-0.148258
-0.313900
-0.329747
-0.342221
-0.229537
-0.246815
-0.164832
-0.064492
-0.089884
-0.018450
-0.094687
-0.029225
-0.022750
-0.062617
0.011993
0.003915
-0.056352
-0.020723
0.003885
0.063832
-0.056016
0.032635
0.038007
0.052426
0.083378
0.135895
0.149189
0.156832
0.190042
0.108893
0.260032
0.267472
0.263252
0.273025
0.302405
0.361684
0.309834
0.286039
0.346258
0.355728
0.431758
0.414431
0.387414
0.464608
0.340432
0.473222
0.352769
0.426869
0.370178
0.407847
0.325358
0.464809
0.369804
0.372288
0.280059
0.338128
0.307448
0.323667
0.278081
0.235597
0.306358
0.147045
0.155861
0.187560
0.134971
0.072926
0.104050
0.137382
0.073406
-0.018253
-0.003159
0.082346
0.029299
-0.018920
0.027314
0.027651
-0.052794
-0.042911
-0.008684
-0.038874
-0.031892
-0.091058
-0.081917
-0.076666
-0.070959
-0.069455
-0.080003
-0.122215
-0.167689
-0.045585
-0.119204
-0.073691
0.048337
-0.071139
-0.022732
-0.045443
-0.006128
-0.024861
-0.149417
-0.061121
-0.066216
-0.096708
-0.055538
-0.127449
-0.127398
-0.053153
-0.086341
-0.044199
0.011006
-0.043171
-0.028866
-0.061314
-0.010241
0.052409
-0.085839
-0.072769
-0.047365
-0.017191
-0.077312
-0.119018
-0.016636
-0.014698
-0.040777
-0.033492
-0.002887
-0.093873
-0.119483
-0.097778
-0.035772
-0.079929
-0.095766
-0.051968
-0.066822
-0.042387
0.058169
0.024687
0.059002
-0.084411
0.074781
0.036974
-0.020011
0.050319
0.028446
0.091686
0.110741
0.067983
0.078013
0.030733
0.090773
0.100084
0.069899
0.089247
0.118209
0.107617
0.122643
0.117372
0.086891
0.144850
0.164389
0.123479
0.109915
0.010272
0.095513
0.186324
0.102070
0.041291
0.147981
0.043554
0.064387
0.052938
0.061266
0.041198
0.090875
-0.001462
0.010213
0.050925
0.022812
-0.043371
0.019798
-0.016826
-0.010724
0.065795
0.011133
-0.076341
-0.042567
0.007102
0.003397
-0.033494
-0.104479
0.047256
0.214150
0.338503
0.676992
0.961298
1.317656
1.372893
1.324561
1.118653
0.686188
0.308367
0.036231
-0.187755
-0.146595
-0.211984
-0.231868
-0.094563
-0.067682
0.089619
0.054580
-0.021798
0.081560
-0.066311
0.087895
0.133422
0.016340
0.061153
0.134147
0.107189
0.133898
0.182926
0.160017
0.087998
0.208120
0.222065
0.285449
0.200949
0.226817
0.250210
0.311876
0.230126
0.308626
0.317428
0.389570
0.464444
0.384724
0.411347
0.440030
0.475654
0.472455
0.512977
0.505292
0.602362
0.534478
0.442751
0.460955
0.496549
0.570923
0.584099
0.612318
0.567976
0.453225
0.562425
0.508902
0.449432
0.467041
0.416660
0.417409
0.429950
0.451303
0.339756
0.474838
0.344203
0.289413
0.246770
0.269047
0.211140
0.219111
0.232239
0.172526
0.146416
0.176249
0.150315
0.148439
0.166911
0.105483
0.085869
0.085087
0.106271
0.011353
0.056041
0.060604
0.079160
0.084901
0.102236
0.078943
-0.031800
0.101337
0.076945
0.090859
0.144254
0.042274
0.009996
0.015933
0.027222
0.119606
0.009135
0.084914
0.020154
-0.009293
0.135686
0.091536
0.111242
-0.005965
0.053825
0.023507
0.146969
0.109627
0.091817
0.016041
0.002821
0.124392
0.046595
0.161997
0.062564
0.052799
0.089131
0.076257
0.135585
0.083395
0.003170
0.105076
0.118880
0.078845
0.066026
0.040151
0.063198
0.170246
0.069006
0.062064
0.035607
0.073755
0.084647
0.084728
0.114578
0.070293
0.048910
0.164256
0.109448
0.018877
0.113289
0.181310
0.184646
0.169654
0.123877
0.132646
0.228549
0.211498
0.142850
0.226203
0.319849
0.278438
0.192070
0.236704
0.219684
0.221583
0.247358
0.306376
0.315570
0.148003
0.308425
0.256133
0.160713
0.299009
0.217617
0.199430
0.208831
0.257168
0.205410
0.087459
0.183435
0.100604
0.110492
0.128153
0.092360
0.085955
0.118482
0.155114
0.071286
0.092156
0.107113
0.086869
0.032407
0.107073
0.108017
0.089585
0.090340
0.130094
-0.010235
0.103677
0.134943
0.255458
0.451821
0.757536
1.105243
1.382717
1.500000
1.365792
1.110082
0.836877
0.411873
0.070904
-0.073330
-0.195508
-0.179659
-0.098514
-0.041063
0.089229
0.009906
0.144279
0.152462
0.113767
0.127856
0.107689
0.163612
0.159911
