-0.019899
-0.047386
0.004124
-0.010786
-0.006642
-0.028855
0.039121
-0.034974
-0.012383
-0.035279
-0.016256
-0.046137
0.029282
-0.037243
0.074337
-0.031181
-0.043626
0.048519
-0.006377
-0.001635
0.062859
-0.005848
-0.059123
-0.085093
0.063271
0.045820
0.042090
0.056306
0.069422
0.066815
0.066066
0.060060
0.079815
0.115165
0.108728
0.116779
0.112806
0.109566
0.152983
0.173064
0.197991
0.186491
0.184396
0.164181
0.152500
0.177406
0.197445
0.220148
0.263676
0.189407
0.209599
0.153672
0.197147
0.132810
0.182890
0.079097
0.167373
0.158187
0.169911
0.118981
0.070387
0.102693
0.050109
0.121458
0.154205
-0.031487
0.087967
0.059320
0.069741
-0.043589
-0.038862
0.077229
0.080686
0.067461
0.009967
0.045958
0.088893
0.093978
-0.027416
0.015025
0.013790
0.089016
0.092301
0.071564
0.110370
-0.047449
0.000311
0.052947
0.026432
0.234995
0.585249
0.868842
1.141426
1.433671
1.429108
1.395103
1.137358
0.732374
0.335446
0.078446
-0.126801
-0.152384
-0.278143
-0.122490
-0.096228
-0.029502
0.014583
0.080787
0.062600
0.037327
0.048222
0.127537
0.099334
0.112485
0.100182
0.092906
0.074063
0.044897
0.111652
0.080777
0.192545
0.130190
0.186647
0.144596
0.175428
0.180875
0.190817
0.175623
0.202627
0.188535
0.138454
0.302762
0.224856
0.345903
0.267052
0.371015
0.342687
0.410025
0.469312
0.377059
0.468225
0.398322
0.413457
0.566494
0.544503
0.598001
0.611650
0.555629
0.517482
0.525563
0.611531
0.583870
0.573418
0.580531
0.544863
0.571689
0.523209
0.584486
0.555992
0.547636
0.584448
0.408281
0.528089
0.435647
0.510412
0.424967
0.466975
0.334705
0.346884
0.360308
0.257061
0.328886
0.319218
0.352420
0.241845
0.191604
0.224515
0.157515
0.199598
0.227208
0.150205
0.224326
0.185962
0.123540
0.143631
0.102209
0.155436
0.101713
0.089854
0.162912
0.182938
0.177574
0.113292
0.139054
0.110484
0.025289
0.121071
0.091204
0.045311
0.083289
-0.009311
0.123047
0.102427
0.075304
0.128227
0.030020
0.009889
0.067653
0.095002
0.079352
0.046621
0.127336
0.035880
0.140340
0.119542
0.036233
0.070263
0.145928
0.058991
0.052943
0.107162
0.109195
0.098164
0.102813
0.065530
0.044825
0.067579
0.034667
0.085682
0.125188
0.090178
0.115291
0.082731
0.090555
0.049669
0.081962
0.092983
0.105417
0.079159
0.068500
0.113732
0.084402
0.105301
0.081025
0.001111
0.088223
0.154551
0.105755
0.140962
0.110639
0.065233
0.114994
0.030139
0.047977
0.067316
0.091184
0.021838
0.158197
0.139696
0.075626
0.019649
0.059670
0.075238
0.112101
0.098475
0.184188
0.189354
0.190024
0.164416
0.159678
0.297957
0.224341
0.164418
0.232774
0.201169
0.216324
0.218668
0.276302
0.293921
0.283349
0.267245
0.322628
0.358255
0.346734
0.295594
0.282495
0.223160
0.203840
0.305307
0.174863
0.188476
0.129567
0.159276
0.143521
0.221874
0.131619
0.099518
0.104315
0.107025
0.036738
0.029634
0.094184
0.107220
0.097065
0.057673
0.085843
0.089801
0.078385
0.007970
0.096853
0.059786
0.051770
0.105825
0.016275
0.105875
0.057519
0.100131
-0.022738
-0.025052
-0.011087
-0.021463
-0.081231
0.042437
0.144645
0.377316
0.748655
0.940189
1.285424
1.421633
1.371633
1.227429
0.824987
0.592500
0.165795
-0.054092
-0.266872
-0.278803
-0.127262
-0.142548
-0.112107
-0.054480
-0.001341
0.084168
0.049423
0.090726
0.081023
0.133795
0.007777
0.006835
0.057075
0.075694
0.055045
0.044240
0.106419
0.047195
0.103694
0.098177
0.096650
0.095544
0.156364
0.156655
0.213498
0.193219
0.189661
0.198724
0.198174
0.231290
0.287698
0.254348
0.247952
0.238034
0.286722
0.379049
0.326306
0.387727
0.331956
0.531808
0.490547
0.437034
0.513757
0.460827
0.509745
0.523634
0.507463
0.550573
0.473784
0.548103
0.524925
0.486147
0.521884
0.506998
0.460385
0.491411
0.406297
0.473975
0.477300
0.449162
0.388333
0.449589
0.329364
0.381854
0.316746
0.289730
0.268636
0.278934
0.267296
0.245097
0.199492
0.188200
0.261036
0.178427
0.115508
0.126268
0.127477
0.077262
0.111751
0.040144
0.058305
0.071851
-0.012502
-0.003050
0.011637
-0.020236
0.023352
0.053900
0.030537
-0.068763
0.012721
0.062096
0.010501
0.077662
0.014420
-0.014619
-0.051092
-0.025013
0.003663
-0.010437
0.028649
-0.055297
-0.030930
-0.019401
-0.065161
-0.042781
-0.023999
-0.072592
0.041879
-0.050527
0.018519
-0.049527
-0.105624
-0.008285
-0.033341
-0.038837
-0.028164
-0.009108
0.053115
0.000674
0.050112
-0.012504
-0.036463
0.045188
-0.045832
-0.014842
-0.043127
-0.061176
0.003789
-0.083031
-0.072830
-0.045377
-0.049398
-0.094647
-0.045132
-0.081833
0.016707
-0.017603
-0.025289
-0.008946
-0.036233
-0.040185
-0.067738
-0.065868
-0.048268
-0.045173
-0.055577
-0.079134
0.029762
-0.022754
-0.123732
0.014037
-0.102798
-0.038725
0.032792
-0.043987
-0.071391
-0.037657
0.006349
0.080327
0.025842
-0.059359
0.131836
0.095990
0.054215
0.055315
0.054859
0.053392
0.040372
0.130401
0.053713
0.056024
0.099152
0.087597
0.104831
0.142472
0.076634
0.036735
0.130608
0.159574
0.149329
0.104603
0.093727
0.180814
0.110242
-0.029511
0.044262
0.018570
0.086557
0.108127
0.061646
0.041043
-0.020027
-0.057580
-0.023834
-0.020405
-0.001526
0.029455
0.000514
0.025991
-0.028908
0.028260
-0.039418
-0.069692
-0.112401
-0.058335
-0.074579
-0.029788
-0.010642
-0.057233
-0.027350
-0.104971
-0.081255
0.039950
-0.073089
-0.073701
-0.127718
-0.067407
-0.096397
0.005632
-0.014671
0.220599
0.453054
0.781475
1.148023
1.296770
1.381203
1.170847
0.854400
0.592388
0.209485
-0.014493
-0.253770
-0.307267
-0.359265
-0.301390
-0.144798
-0.135855
-0.042192
-0.074455
-0.119842
-0.072436
-0.045406
-0.076433
0.022648
-0.075656
0.054595
-0.031630
0.048670
-0.008211
-0.033121
0.010953
0.000077
0.064297
-0.052063
-0.032527
0.085547
0.022117
0.121213
0.138711
0.160510
0.194579
0.149418
0.058641
0.182437
0.078247
0.192177
0.186052
0.226788
0.357127
0.332798
0.323219
0.303805
0.358073
0.387883
0.395496
0.383602
0.474121
0.363882
0.450741
0.482129
0.478655
0.332618
0.472794
0.439583
0.417217
0.401600
0.488091
0.465602
0.438229
0.425856
0.431304
0.384848
0.431658
0.368908
0.380680
0.283489
0.277633
0.297147
0.332678
0.222293
0.287090
0.275949
0.170124
0.216413
0.179662
0.137216
0.068908
0.147789
0.064341
0.057068
0.024131
0.010718
0.019760
0.002363
-0.048886
-0.061368
0.066362
0.037702
-0.008566
0.004146
0.044901
-0.047875
-0.021392
-0.083074
-0.068139
0.062251
-0.023230
-0.035320
-0.051586
-0.036802
0.004421
-0.065638
-0.000509
-0.049617
-0.045566
0.057416
0.038654
-0.034288
0.029812
0.013265
0.049609
0.047178
-0.020033
0.022956
-0.006230
-0.010392
-0.011839
0.064734
-0.002549
-0.017642
0.002504
-0.010001
-0.023607
-0.045265
-0.019956
-0.040153
-0.015613
0.019621
0.044205
-0.034185
0.001444
0.028139
0.026366
0.030219
-0.007103
0.003349
0.084459
-0.041730
0.003579
0.002365
-0.061192
0.081938
-0.015583
0.056001
-0.045570
0.001732
0.007735
0.034743
-0.010793
-0.001155
0.028221
-0.018917
0.063655
-0.008572
-0.018790
0.031409
0.076466
-0.012936
0.028630
0.108947
0.024579
0.063007
0.084994
0.066646
0.001440
0.106964
0.050072
0.025599
0.093048
0.060501
0.146384
0.046342
0.091708
0.206937
0.071526
0.147724
0.192417
0.149705
0.210564
0.203283
0.177435
0.119304
0.191714
0.243393
0.186924
0.190715
0.164878
0.239786
0.134560
0.214155
0.177584
0.169360
0.073960
0.106260
0.140662
0.059412
0.086638
0.057666
0.118136
0.081644
0.061011
0.044673
0.079478
0.037887
0.105598
-0.022358
0.089920
-0.014908
0.097114
0.019732
0.018947
0.138707
0.023418
-0.000522
0.094077
0.042740
0.068885
-0.016179
-0.003256
0.051932
0.021015
-0.018364
0.032733
0.034889
0.261203
0.460687
0.880961
1.141006
1.349704
1.426013
1.384544
1.121079
0.917704
0.433772
0.087724
-0.030674
-0.239808
-0.210192
-0.202502
-0.070250
-0.024611
0.025666
-0.030630
0.084755
0.042541
0.083928
0.144398
0.052160
0.081019
0.036877
0.037904
-0.003331
0.123590
0.144355
0.098972
0.064548
0.147855
0.102456
0.096200
0.215229
0.148909
0.160649
0.221435
0.274481
0.190522
0.194926
0.180621
0.322782
0.289982
0.401383
0.292374
0.413669
0.409010
0.376478
0.425732
0.431042
0.476967
0.444599
0.468986
0.551538
0.453012
0.584565
0.503678
0.584558
0.611351
0.624238
0.630767
0.599009
0.555753
0.548234
0.532413
0.541543
0.542103
0.644905
0.534461
0.470844
0.456022
0.522853
0.533704
0.433135
0.449392
0.361789
0.424209
0.464926
0.370072
0.426427
0.371572
0.242726
0.308271
0.326258
0.355858
0.201988
0.262215
0.205963
0.238140
0.200487
0.179239
0.103808
0.123852
0.196871
0.219113
0.127366
0.101836
0.120147
0.138030
0.124389
0.119939
0.044474
0.078130
0.115652
0.115385
0.089690
0.046170
-0.014143
0.097334
-0.005282
0.057195
0.038969
0.106359
0.085185
0.116705
0.100457
0.185603
0.083066
0.108370
0.108530
0.130744
0.102075
0.104908
0.071109
0.037635
0.105173
0.194346
0.074809
-0.006290
-0.000953
0.124161
0.079718
0.025742
0.082408
0.066057
0.125662
0.058587
0.120528
0.097569
0.039659
0.112311
0.115938
0.080356
0.034435
0.112538
0.070201
0.132564
0.095304
0.085226
0.041582
0.041458
0.034164
0.106867
0.128697
0.052734
0.095231
0.114429
0.139526
0.097720
0.098790
0.048768
0.121420
0.118258
0.133677
0.114715
0.050530
0.049210
0.184444
0.139707
0.137274
0.064217
0.114658
0.105278
0.146767
0.136112
0.119673
0.144840
0.257107
0.176492
0.153442
0.180164
0.231306
0.168516
0.206008
0.313392
0.255133
0.234173
0.267972
0.238538
0.231274
0.167646
0.310420
0.257027
0.245767
0.327062
0.237688
0.237117
0.180471
0.181987
0.166949
0.212708
0.279582
0.248275
0.123312
0.128550
0.068101
0.096142
0.102798
0.181818
0.153389
0.123439
0.075258
0.010051
0.130022
0.069825
0.174185
0.160565
0.122586
0.139309
0.021406
0.061424
0.186820
0.134508
0.086277
0.019799
0.079797
0.052549
0.100302
0.059465
0.017719
0.038289
0.063977
0.175248
0.413895
0.636179
1.017372
1.259442
1.355833
1.500000
1.198485
0.992029
0.543028
0.228768
-0.055509
-0.217723
-0.142804
-0.179801
-0.168575
-0.005265
0.021029
-0.005858
0.071337
0.142924
0.107196
0.051815
0.044567
0.124222
0.049167
0.110178
0.109317
0.097740
0.051541
0.058641
0.105561
0.076219
0.057722
0.112661
0.229805
0.135193
0.142066
0.100200
0.176400
0.169894
0.161404
0.265938
0.270342
0.279675
0.279466
0.235665
0.372781
0.395853
0.347000
0.345445
0.395977
0.348841
0.494717
0.512165
0.429534
0.483392
0.517912
0.534039
0.525015
0.530798
0.569381
0.529765
0.528216
0.546840
0.537828
0.620932
0.486044
0.482614
0.556449
0.542013
0.467380
0.488933
0.441648
0.397755
0.388946
0.423148
0.450166
0.391184
0.423396
0.382843
0.286623
0.246617
0.224164
0.262265
0.219972
0.147021
0.147023
0.159498
0.147036
0.140015
0.155934
0.098674
0.078567
0.053837
0.003132
0.025963
0.039963
0.116923
0.021085
-0.064650
0.003155
0.049353
0.096673
-0.134195
0.069740
0.052746
-0.035926
0.005671
-0.017306
0.012747
0.065598
-0.018166
-0.017781
0.074197
-0.022642
-0.027937
0.035115
0.037544
-0.011817
0.045200
0.018264
0.058890
-0.041486
-0.024705
-0.056782
0.089067
0.028438
-0.017684
-0.018603
-0.036034
-0.010570
-0.012741
0.048392
0.006451
0.051227
0.016210
0.054999
-0.028845
-0.054506
-0.020982
-0.034709
0.020297
-0.027026
-0.014066
-0.010509
-0.104709
-0.025715
-0.075603
-0.061819
0.049758
-0.035405
0.030177
-0.028210
-0.019781
0.010640
-0.030882
-0.080733
-0.067845
0.007472
-0.015811
-0.014911
-0.068170
0.039417
-0.030499
0.023176
0.000677
-0.055166
-0.123752
-0.030592
0.017374
-0.045009
0.006365
0.064750
-0.055317
0.097547
-0.018232
0.051935
-0.043732
0.053015
0.048570
0.057099
0.000566
0.053431
0.160245
0.117842
0.086069
0.122471
0.103713
0.125771
0.097095
0.131207
0.078705
0.059977
0.122786
0.138127
0.097733
0.186075
0.112090
0.145052
0.092346
0.138098
0.027854
0.010529
0.101247
0.043074
-0.064267
0.042644
0.054534
-0.017384
0.000193
-0.016272
-0.076223
0.048258
-0.088763
-0.023303
-0.094411
-0.032395
-0.066287
0.008069
-0.008452
-0.096973
-0.118892
-0.032939
-0.015407
0.020471
-0.034194
-0.022540
-0.062931
-0.012699
-0.078768
-0.162338
-0.108117
-0.078295
-0.097610
0.145848
0.466155
0.728910
1.092940
1.269332
1.398654
1.200279
0.870448
0.591882
0.215277
-0.099274
-0.281855
-0.378107
-0.438189
-0.260361
-0.270467
-0.060954
-0.104666
-0.096558
-0.119121
-0.159189
0.022571
-0.050539
-0.130995
-0.045453
-0.021965
-0.094687
0.033265
-0.059426
-0.062507
0.038539
-0.036123
-0.028709
-0.021621
-0.007984
0.015261
0.030059
0.050306
0.056430
0.040527
0.073354
0.124927
0.166477
0.139136
0.135893
0.221627
0.171593
0.248846
0.164355
0.291761
0.276447
0.253460
0.320186
0.340692
0.387206
0.384348
0.393648
0.374281
0.366985
0.453802
0.340253
0.498859
0.415235
0.490217
0.384215
0.499626
0.380023
0.421926
0.344697
0.364973
0.416130
0.358445
0.331051
0.352379
0.341753
0.265738
0.278931
0.210834
0.202374
0.216051
0.211976
0.136114
0.084361
0.114640
0.158781
0.111395
-0.006214
-0.008195
0.032372
-0.003233
0.032502
0.018818
0.046304
-0.033675
-0.027450
-0.001074
0.026985
-0.092676
0.041340
-0.027490
-0.009873
-0.072445
-0.069730
-0.040779
-0.136473
-0.061161
-0.062953
-0.084995
-0.007602
-0.011614
0.011045
-0.063448
-0.099572
0.021809
-0.012068
-0.069152
0.008532
-0.072883
-0.028510
-0.101336
-0.097854
-0.026412
-0.065365
-0.099398
-0.076402
-0.082446
-0.094775
0.052610
-0.100651
-0.129386
-0.118328
-0.083989
-0.099670
-0.062632
-0.029310
-0.063835
-0.097376
0.027537
-0.127510
-0.105643
-0.029862
-0.064299
-0.014396
0.002863
-0.078062
-0.098441
-0.055016
-0.078360
-0.057459
-0.049638
-0.078126
0.027733
-0.029183
-0.054782
-0.015294
-0.092469
-0.105259
-0.032208
-0.053635
0.029916
-0.031070
-0.088171
-0.111276
-0.003646
-0.101796
-0.077690
-0.096056
-0.026059
-0.053031
-0.016916
-0.068705
-0.083139
-0.127663
-0.040981
-0.017114
-0.061933
0.055627
0.088562
0.014416
0.025741
0.083804
0.046281
0.161646
-0.010853
0.100547
0.095965
0.049467
0.088824
0.165529
0.081291
0.132660
0.119015
0.088537
0.147521
0.091317
0.050372
0.153653
0.212002
0.108347
0.116268
0.126391
0.126953
-0.015111
0.094480
0.147615
0.051527
0.012754
-0.023941
0.005912
-0.087781
0.066801
-0.011948
0.002847
-0.042814
-0.009257
-0.039668
-0.014645
0.027510
0.004081
-0.047826
-0.004510
-0.021207
-0.049474
-0.063802
0.012003
0.059187
-0.015880
-0.096582
-0.054289
0.052618
-0.105638
-0.027143
0.071008
-0.016945
0.194413
0.387592
0.717920
1.004954
1.312938
1.278405
1.345098
1.004828
0.694606
0.389691
0.030660
-0.125196
-0.256279
-0.308749
-0.245857
-0.200133
-0.139623
-0.060763
-0.068172
-0.094390
0.039928
0.022558
0.062204
0.006429
-0.104610
-0.018056
0.028083
-0.025015
0.006813
0.083224
-0.005375
0.006889
0.131212
0.034856
-0.012310
0.140055
0.073837
0.173656
0.069887
0.147391
0.117574
0.116739
0.242225
0.232966
0.258652
0.220241
0.207916
0.246547
0.315122
0.302875
0.314694
0.325464
0.424698
0.411825
0.384221
0.419976
0.438673
0.454613
0.531343
0.476271
0.575393
0.525003
0.551871
0.567879
0.522145
0.516238
0.546451
0.441920
0.437318
0.450583
0.416766
0.446990
0.409011
0.410856
0.424594
0.370371
0.455852
0.348549
0.287790
0.356199
0.262580
0.256578
0.269150
0.232366
0.129577
0.188015
0.114842
0.133358
0.172301
0.098111
0.097979
0.021708
0.087219
0.050161
0.015550
0.057052
0.142011
0.041254
0.082104
0.009346
0.042292
0.066540
0.087168
0.052438
0.047955
0.001615
0.044759
0.045448
-0.031626
-0.022096
0.040573
0.016361
0.001763
0.017905
0.048224
-0.028348
0.041130
0.022856
0.083902
0.013539
0.051741
0.069647
0.053734
0.096508
0.084933
0.014815
0.011146
-0.015222
0.071336
0.064002
-0.046790
0.103463
0.041208
0.036890
0.060213
0.122885
0.071354
0.007304
-0.058595
0.009424
0.027887
0.037801
0.077555
-0.021196
0.014229
0.026450
0.064043
-0.023220
-0.058115
0.081921
-0.000094
0.080430
0.096439
0.071487
0.013163
0.032412
-0.004843
0.039430
0.113061
0.064416
0.026091
0.039148
0.076605
0.034037
0.009798
0.009153
0.061832
0.009518
0.093984
0.041816
-0.014637
0.110145
0.136633
0.075909
0.118093
0.070737
0.044949
0.068621
0.145052
0.148735
0.093889
0.177070
0.105098
0.117086
0.210430
0.146910
0.180135
0.171171
0.225518
0.166914
0.141503
0.234738
0.230999
0.204387
0.182709
0.185931
0.231661
0.291965
0.221761
0.152423
0.234034
0.182895
0.182316
0.160248
0.118871
0.160555
0.101318
0.149271
0.112848
0.059283
0.052633
0.020825
0.180371
0.094872
0.097704
0.056996
0.021478
0.005723
-0.023140
0.056181
0.022584
0.006700
0.053104
0.038899
0.118290
-0.027677
0.025052
0.027022
0.064907
-0.000840
0.005925
-0.012849
-0.024710
0.111629
0.168531
0.315255
0.638791
0.986647
1.272615
1.402432
1.449154
1.224810
1.002794
0.568138
0.235419
-0.000448
-0.251085
-0.203642
-0.206183
-0.170226
-0.030401
-0.019553
0.047941
0.003257
0.015033
0.111704
0.080259
0.178186
0.143827
0.103028
0.030353
0.058258
0.104397
0.138305
0.067924
0.027669
0.113978
0.043268
0.079715
0.084464
0.057560
0.157712
0.129471
0.155037
0.115347
0.104769
0.179442
0.248495
0.231763
0.272779
0.347352
0.315182
0.359367
0.306052
0.317861
0.396197
0.416316
0.380396
0.473635
0.437380
0.540029
0.511969
0.437718
0.437536
0.509638
0.517442
0.531022
0.505800
0.612924
0.595724
0.482262
0.526056
0.450072
0.511036
0.506298
0.419612
0.554105
0.477002
0.413587
0.453881
0.325837
0.281140
0.321380
0.412534
0.318490
0.268704
0.249651
0.226386
0.244415
0.117866
0.173747
0.144056
0.139180
0.123849
0.157991
0.102882
0.060414
0.039474
0.149686
0.023742
0.073675
0.008852
0.066039
0.019526
0.067412
0.079034
0.008896
0.031000
0.020574
-0.000364
0.037352
0.067072
0.068457
0.050605
0.002445
-0.048933
-0.018671
0.084058
0.023496
-0.090934
0.020550
-0.007687
-0.049528
-0.023019
0.080568
0.002996
0.007916
-0.069803
-0.006841
0.000735
-0.042988
0.026046
0.042228
-0.009531
-0.041099
-0.044133
0.023261
-0.017087
0.018616
0.017087
0.075871
-0.057954
-0.061067
0.030522
0.002010
0.014176
0.032315
-0.021086
-0.005160
-0.033484
-0.112185
-0.023085
-0.048634
0.022261
-0.114967
-0.056407
0.049150
-0.002923
-0.039993
-0.031072
-0.016267
-0.053848
-0.029083
-0.020594
0.013452
-0.008181
0.027941
-0.054486
-0.005678
0.126715
0.007188
-0.014853
-0.054788
0.026645
0.044182
-0.024980
-0.061756
-0.037630
-0.013103
-0.036734
-0.061477
0.024585
-0.022877
0.035860
0.002305
0.048605
-0.060289
0.095405
0.021636
0.075919
0.122339
0.158996
0.093208
0.059936
0.118869
0.051056
0.153209
0.098316
0.135791
0.266209
0.127812
0.183990
0.075996
0.110574
0.100321
0.038939
0.017788
0.125300
0.029331
0.013272
-0.019271
0.079331
-0.134093
-0.022226
-0.045819
-0.011327
0.023664
-0.031188
-0.072837
-0.113940
-0.123676
-0.040136
0.011099
-0.121667
0.015610
0.014026
-0.153014
-0.104340
-0.117979
-0.031721
-0.104684
-0.096029
-0.147634
-0.157340
-0.103150
-0.078142
-0.101043
-0.113282
-0.121831
0.130808
0.396759
0.719385
1.074664
1.235699
1.323998
1.231013
0.867754
0.588676
0.261860
-0.007907
-0.310717
-0.294087
-0.389205
-0.304782
-0.240218
-0.120277
-0.139163
-0.099565
-0.051501
-0.130775
-0.040442
-0.058177
-0.031424
-0.100634
-0.045828
0.039051
-0.025140
-0.139067
0.005229
-0.027929
-0.068151
0.005743
-0.039057
0.008002
-0.019437
0.006381
-0.008562
0.003644
0.051738
0.097010
0.124593
0.090899
0.089972
0.214831
0.196591
0.177830
0.207018
0.212200
0.124392
0.268198
0.303121
0.354726
0.331270
0.355379
0.279234
0.405733
0.427377
0.386160
0.367817
0.379316
0.411359
0.429267
0.378838
0.475937
0.428800
0.388775
0.375430
0.341851
0.384694
0.395169
0.443071
0.315359
0.338070
0.281690
0.256376
0.199758
0.222472
0.192203
0.170185
0.212396
0.109881
0.181241
0.182868
0.160250
0.103530
0.085116
0.047763
0.089524
0.055770
0.037007
0.058311
0.064689
-0.041101
-0.084595
-0.041152
-0.107381
-0.016768
-0.040577
-0.128573
-0.153673
-0.006863
-0.160532
-0.093076
-0.025905
-0.100271
-0.089169
-0.071349
-0.190311
-0.057407
-0.050551
-0.131406
-0.084571
-0.047305
-0.114117
-0.039815
-0.089166
-0.123417
-0.042299
-0.078704
-0.091653
-0.092388
-0.052692
-0.087425
-0.129620
-0.141477
-0.015535
-0.062806
-0.068943
-0.020646
-0.155574
-0.085828
-0.108196
-0.106529
-0.086594
-0.045876
-0.140301
-0.022862
-0.127630
-0.107801
-0.108520
-0.139160
-0.126219
-0.135981
-0.119846
-0.160625
-0.018447
-0.038229
-0.088428
-0.056586
-0.049494
-0.073517
-0.013350
-0.066092
-0.061731
-0.111172
-0.108928
-0.083325
-0.059672
-0.085728
-0.089419
-0.085974
-0.083889
-0.081033
-0.023584
-0.083193
-0.043952
0.015029
-0.143080
-0.036300
-0.085647
-0.071038
-0.075465
-0.006966
-0.109957
-0.014547
-0.072819
-0.044717
0.061181
0.022671
0.026299
0.142320
0.043803
-0.010138
0.051580
0.023026
0.056678
0.067535
0.058451
0.098890
0.109733
0.132097
0.141078
0.078495
0.089051
-0.020364
0.103088
0.096737
0.073234
0.084775
0.063385
0.006774
0.109041
0.039985
-0.027217
0.024347
-0.074637
-0.072065
0.022541
-0.082228
0.001115
-0.082714
-0.036792
-0.085450
-0.097722
-0.162040
-0.084417
-0.037175
-0.140620
-0.000208
-0.030201
-0.065848
-0.093134
-0.066067
-0.053332
0.010948
-0.134025
0.013423
-0.181742
-0.096889
-0.091769
-0.150037
-0.062052
-0.025302
0.018019
0.267885
0.626273
0.903664
1.127911
1.289889
1.260641
1.084974
0.800168
0.423541
0.083854
-0.145371
-0.321370
-0.346347
-0.302147
-0.231498
-0.168154
-0.067357
-0.094565
-0.031194
-0.114032
-0.114861
0.011855
-0.065404
0.066979
-0.053863
-0.013184
-0.014447
-0.026292
-0.036072
-0.032466
0.020683
0.032364
0.033765
0.066391
-0.028786
0.086476
0.026535
0.158804
0.125928
0.078552
0.102492
0.155252
0.120488
0.094924
0.184004
0.174194
0.217784
0.250278
0.233811
0.353949
0.271031
0.352726
0.285097
0.426749
0.380522
0.356351
0.442012
0.447743
0.430936
0.456379
0.420551
0.540774
0.373873
0.492728
0.452241
0.562627
0.481016
0.414868
0.410247
0.400361
0.364060
0.340630
0.344920
0.342898
0.332616
0.343294
0.361767
0.282520
0.297055
0.279766
0.255231
0.229101
0.243307
0.223474
0.126067
0.233631
0.177014
0.076127
0.126431
0.117523
0.081846
0.094766
0.048787
0.077486
0.102224
0.132487
0.072745
0.059245
0.041701
0.019815
0.046061
0.042517
0.061348
0.101243
0.077330
0.006561
0.025998
0.009281
0.037794
0.077991
-0.035642
0.045630
0.030920
-0.016588
-0.039405
0.104122
-0.010043
0.023900
0.035734
0.028567
0.023565
0.084277
0.021416
0.064939
0.040521
0.046449
0.033685
-0.026088
-0.075288
-0.065000
-0.009170
0.069861
0.093250
0.047341
-0.008365
0.070250
0.012211
-0.044864
0.098529
0.046076
-0.033380
0.045012
0.065004
0.037072
-0.026951
0.085319
-0.014954
0.059062
0.048077
0.007602
0.028973
-0.038490
0.068307
0.062411
0.033370
0.087577
0.000301
0.053816
0.102363
-0.002335
0.062097
0.049995
0.058530
0.057306
0.079737
0.004493
0.131740
0.028487
-0.039166
0.042884
0.097980
0.100042
0.011683
0.037069
0.102454
0.093500
0.092936
0.096844
0.094258
0.128458
0.158846
0.201760
0.103376
0.117879
0.124531
0.224835
0.212018
0.249590
0.259377
0.172881
0.137046
0.275138
0.275808
0.307310
0.191567
0.303252
0.229672
0.219389
0.173240
0.204168
0.174898
0.207770
0.090068
0.178312
0.139173
0.147858
0.137030
0.064527
0.062332
0.157412
0.091925
0.091716
0.112287
0.124910
0.092477
0.077507
0.044491
0.123962
0.073528
-0.035461
0.017616
0.089307
0.142728
0.060745
0.114997
0.040025
0.017578
0.058020
0.111827
0.043130
-0.045217
-0.030970
0.049983
0.254318
0.346476
0.632638
0.977427
1.218725
1.436014
1.385038
1.286444
0.973829
0.649299
0.369202
0.006132
-0.111705
-0.226378
-0.190117
-0.088565
-0.129348
-0.071048
0.003978
0.058495
0.094993
0.094236
0.085021
0.168199
0.050161
0.070182
0.073299
0.070457
0.078774
0.104235
0.006124
0.086231
0.113761
0.115046
0.098601
0.120486
0.168573
0.214515
0.182695
0.253382
0.175540
0.197020
0.192325
0.177104
0.307047
0.327076
0.288570
0.345394
0.372907
0.447696
0.426999
0.400027
0.373371
0.444890
0.493255
0.558030
0.538671
0.472342
0.476984
0.535365
0.548599
0.601960
0.561168
0.537878
0.576306
0.610305
0.521128
0.642212
