-0.029011
-0.030952
-0.037371
0.049888
-0.036385
0.060956
0.024709
-0.049261
0.056079
0.099208
0.009204
0.048889
0.029911
-0.082043
0.016097
0.033602
-0.053984
0.003335
0.017777
0.045781
0.027058
0.027527
-0.052558
-0.007071
-0.010485
0.064448
0.050347
0.025434
0.030105
-0.038277
-0.008288
0.013295
0.026114
0.088027
0.139313
0.160006
0.067591
0.130717
0.094508
0.105628
0.109081
0.167386
0.161384
0.197042
0.177311
0.210458
0.210428
0.165211
0.221555
0.150527
0.184605
0.159436
0.159579
0.223361
0.185058
0.255919
0.174725
0.188488
0.160260
0.117883
0.188896
0.158960
0.144634
0.079964
0.155944
0.068030
0.110624
0.067912
0.061281
0.118519
0.074088
0.070428
-0.015062
0.026433
0.058000
0.071493
0.057393
-0.019561
0.088042
0.038163
0.066374
0.045279
0.038487
0.095684
0.030898
0.038374
-0.018528
0.069412
0.035649
0.063736
0.085890
0.074539
-0.009973
0.083699
0.126958
0.082195
-0.082067
0.042365
0.065989
0.264768
0.617751
1.018772
1.275958
1.410639
1.418566
1.347330
0.939679
0.699274
0.408750
0.117446
-0.147517
-0.312059
-0.262691
-0.173124
-0.083681
-0.047818
-0.017896
0.051669
0.051200
0.051086
0.135480
0.108678
0.142532
0.046911
0.069435
0.095130
0.095928
0.024826
0.094360
0.090249
0.133663
0.063023
0.095036
0.116685
0.103686
0.143326
0.134602
0.149817
0.086141
0.143851
0.150615
0.167246
0.176362
0.255045
0.191495
0.215429
0.262741
0.294782
0.292571
0.275663
0.326389
0.386215
0.268612
0.328600
0.400326
0.394005
0.469655
0.431364
0.502090
0.495437
0.475763
0.439031
0.532390
0.534166
0.503177
0.563309
0.582418
0.535260
0.599647
0.609847
0.587939
0.608620
0.549267
0.565385
0.557265
0.522963
0.488831
0.439671
0.458997
0.448038
0.433216
0.451629
0.366404
0.375242
0.398300
0.413478
0.318759
0.283015
0.226373
0.338244
0.240751
0.252805
0.187674
0.207003
0.186664
0.171299
0.141169
0.010240
0.179434
0.078942
0.093141
0.079622
0.105810
0.186601
0.099768
0.194004
0.065703
0.151572
0.033548
0.151958
0.082518
0.045020
0.136060
0.076932
0.150774
0.075147
0.038643
0.045032
0.149371
0.058773
0.090480
0.044916
0.124893
0.126327
0.149330
0.066658
0.077258
0.100003
0.073487
0.054280
-0.011011
0.105178
0.071390
0.001640
0.059348
0.127871
0.128105
0.092094
0.037988
0.097965
0.094682
0.035447
0.095419
0.113572
0.077115
0.072729
0.111527
0.067781
0.090435
0.062893
0.066244
0.008306
0.108967
0.035100
0.032620
0.090812
0.031808
0.094240
0.177508
0.065734
0.019177
0.086835
0.061252
0.060241
0.075618
0.029516
0.011181
0.018795
0.057073
0.116128
0.146543
0.134689
0.003791
0.075756
0.074695
0.119983
0.002215
0.067274
0.011393
0.146322
0.095664
0.044161
-0.001256
0.113367
0.122245
0.036917
0.064066
0.048886
-0.002827
0.137083
0.127863
0.138056
0.105070
0.101499
0.099956
0.173583
0.107727
0.057258
0.123821
0.162342
0.214257
0.175088
0.174360
0.210362
0.223238
0.230892
0.225011
0.175952
0.259443
0.206939
0.193242
0.257978
0.160689
0.273322
0.240705
0.168693
0.136384
0.183344
0.241702
0.161398
0.159200
0.168319
0.143675
0.131859
0.076647
0.085547
0.101566
0.130885
0.126431
0.045551
0.082463
0.065043
0.017021
0.167102
0.085945
0.079200
0.066921
0.047049
0.067866
0.099942
0.103034
-0.016892
0.034419
0.074966
0.052287
0.080043
0.005974
0.045977
0.007329
-0.041388
0.043571
0.059611
-0.023615
-0.021536
-0.012453
-0.036611
-0.015271
0.132601
0.368558
0.725180
1.033641
1.283294
1.416995
1.320192
1.108991
0.751301
0.598143
0.230150
-0.081252
-0.211745
-0.303032
-0.238715
-0.207180
-0.190893
-0.081250
0.050731
0.013424
0.030404
0.033306
0.036451
0.016032
0.086483
0.012553
-0.062397
0.009090
0.063885
0.052606
0.077624
0.083246
0.056898
0.030784
0.038030
0.006681
0.010033
0.092147
0.103970
0.022824
0.124813
0.098314
0.179328
0.113081
0.115025
0.141810
0.088599
0.188647
0.117039
0.257321
0.187532
0.228951
0.186482
0.299265
0.344947
0.240631
0.353546
0.271791
0.359113
0.325838
0.354359
0.425879
0.445995
0.411390
0.525243
0.463152
0.500659
0.527192
0.414619
0.509190
0.457707
0.447438
0.486021
0.486538
0.513573
0.483576
0.418112
0.363197
0.405293
0.372548
0.291143
0.374615
0.234707
0.296249
0.301188
0.208427
0.306324
0.158833
0.310712
0.218610
0.097670
0.089584
0.193964
0.111004
0.109154
0.055522
0.071350
0.033249
0.026250
0.056092
0.086597
0.024824
-0.016037
-0.005881
0.031687
-0.010040
-0.024551
0.017947
-0.011323
-0.060640
0.025306
0.081871
-0.012845
-0.041299
-0.033097
-0.021964
-0.019235
-0.022350
0.019011
-0.007248
-0.011328
-0.045819
0.004309
-0.029750
-0.004136
-0.023164
0.044180
-0.014349
0.034084
0.003203
-0.017717
-0.032448
-0.051116
-0.080193
0.024374
-0.035711
0.037331
0.017277
-0.027104
-0.019916
-0.088910
-0.084436
-0.028642
0.015683
-0.047065
-0.034878
-0.017217
-0.081081
-0.039147
-0.058263
-0.055733
-0.085246
0.037817
-0.049041
-0.056965
-0.019646
-0.070133
-0.021856
-0.101314
-0.005998
-0.057379
-0.054917
-0.069992
0.007142
-0.089130
-0.071203
-0.081373
-0.002950
-0.047085
-0.083526
-0.026373
-0.138726
-0.067753
-0.042503
-0.106948
-0.091193
0.007891
-0.053876
-0.042905
-0.120445
-0.039980
-0.043383
-0.019453
-0.117941
-0.063979
-0.067003
-0.077218
-0.038921
-0.075341
-0.088872
0.046642
0.009163
0.005760
-0.041596
-0.020703
-0.053928
0.006548
-0.019521
0.032095
-0.006678
0.075413
0.026666
0.080269
0.042910
0.103494
0.153108
0.145465
0.158261
0.104679
0.186283
0.188818
0.087225
0.076903
0.140473
0.162720
0.151799
0.077231
0.113320
0.066110
0.059897
0.131930
0.037199
0.002245
0.004247
0.020029
-0.003699
0.003374
0.081562
-0.049904
-0.002796
-0.032578
-0.044295
-0.020061
-0.065224
-0.063673
-0.031162
0.009284
0.017011
-0.038421
-0.032910
-0.063627
-0.067085
-0.009963
-0.069441
-0.049730
0.046597
-0.054689
-0.065204
-0.121059
-0.059895
-0.057535
-0.021828
-0.084610
-0.046797
-0.065440
-0.046595
-0.053941
-0.180893
-0.061922
0.191986
0.391481
0.807360
0.898458
1.270895
1.325492
1.220210
0.995630
0.579402
0.312646
0.079011
-0.212130
-0.359511
-0.432647
-0.355629
-0.244375
-0.199496
-0.164239
-0.017819
-0.015359
-0.091560
-0.092271
0.003370
-0.110096
-0.009051
0.020240
0.005392
0.028689
-0.024545
0.014467
-0.000316
0.007180
-0.059199
-0.023642
0.014568
0.032655
0.067750
0.096776
0.012042
0.049331
0.073048
0.045865
0.029743
0.044974
0.118645
0.142777
0.135440
0.114573
0.159768
0.140253
0.182621
0.231567
0.305200
0.263736
0.245490
0.354026
0.295259
0.397446
0.321775
0.339810
0.329249
0.298395
0.386179
0.325582
0.397717
0.424551
0.488417
0.476152
0.484553
0.481095
0.466482
0.512238
0.434851
0.509809
0.440937
0.407560
0.432791
0.427978
0.485565
0.317733
0.317768
0.395751
0.309743
0.281743
0.278517
0.237805
0.316005
0.191210
0.228023
0.195291
0.156359
0.205228
0.155655
0.148989
0.155990
0.147912
0.174148
0.068768
0.094668
0.087354
0.030880
0.115454
0.092716
0.095433
0.075998
0.041871
0.029022
0.004575
-0.060121
0.035617
-0.021236
0.045270
0.046762
0.051296
0.008073
-0.009041
0.044472
-0.009257
0.032935
0.031857
-0.036979
-0.052783
-0.027115
0.014701
-0.015411
0.107567
0.132594
-0.025550
-0.021714
0.074512
0.002263
-0.089079
-0.003909
0.038452
0.007881
-0.012839
0.038396
0.035544
0.058188
0.106719
0.143393
0.055450
0.002824
0.000761
0.051835
0.025973
-0.076961
0.024547
0.015407
-0.046301
0.016109
0.044882
-0.014401
0.061388
0.091303
-0.047999
0.064648
-0.014315
0.106239
-0.015118
0.060105
0.008783
0.003243
-0.024785
0.056714
0.045414
0.097046
0.017335
0.029406
-0.014550
0.039628
0.032429
0.086445
0.059187
0.025070
0.053293
0.016075
0.038705
0.006625
0.086055
0.086919
0.051110
0.077758
0.013683
0.069101
0.018351
0.058336
0.069958
0.082699
0.058999
0.096253
0.059595
0.143977
0.011105
0.067461
0.137375
0.103673
0.143673
0.135313
0.157429
0.199376
0.161736
0.190706
0.162284
0.100951
0.264331
0.254294
0.159967
0.228041
0.279549
0.228342
0.247089
0.253753
0.246195
0.227733
0.240061
0.197818
0.271473
0.304528
0.232911
0.153604
0.086577
0.173818
0.109242
0.137751
0.192340
0.226114
0.170376
0.071217
0.180707
0.116149
0.087116
0.113080
0.081786
0.078686
0.072405
0.077484
0.088212
0.046910
0.103142
0.050770
0.060253
0.182349
0.113926
0.054359
0.065307
0.111559
0.132412
0.129872
0.035373
0.089150
0.048435
0.072178
0.051111
0.020162
0.030144
0.010189
0.042516
0.207536
0.398416
0.741826
1.002478
1.293061
1.390422
1.432533
1.307271
0.948926
0.582137
0.328110
0.036977
-0.153734
-0.195048
-0.243882
-0.217688
-0.076238
0.012285
0.022534
0.028689
0.059124
0.042878
0.108992
0.098408
0.120708
0.062248
0.048761
0.071014
0.112691
0.096980
0.040127
0.105109
0.052814
0.124935
0.190630
0.046202
0.151713
0.091299
0.143450
0.105200
0.109170
0.216147
0.174775
0.191268
0.167197
0.209194
0.206738
0.210888
0.294710
0.255820
0.274980
0.300628
0.310733
0.333160
0.381446
0.378519
0.316058
0.408813
0.454919
0.508446
0.488137
0.474730
0.493956
0.570056
0.500476
0.527176
0.502247
0.573687
0.578924
0.523273
0.582480
0.515479
0.585905
0.540936
0.508996
0.622963
0.524479
0.485524
0.523960
0.469696
0.451727
0.458640
0.393093
0.424894
0.423982
0.363211
0.395903
0.406396
0.274465
0.311283
0.260990
0.349231
0.262579
0.249817
0.249598
0.184813
0.202431
0.183221
0.178492
0.097812
0.194429
0.131061
0.190690
0.107180
0.128713
0.126425
0.129996
0.176143
0.096267
0.115791
0.055995
0.137945
0.125494
0.126406
0.148065
0.135037
0.045595
0.144930
0.073231
0.081902
0.090728
0.153109
0.150178
0.101061
0.021298
0.094004
0.064124
0.039572
0.118871
0.087643
0.053838
0.135211
0.059960
0.075163
0.075153
0.133698
0.049091
0.060883
0.100519
0.066872
0.162038
0.054259
0.026707
0.003345
0.119366
0.095918
0.108073
0.012602
0.040744
0.116362
0.098173
-0.003917
0.063973
0.040312
0.104717
0.050372
0.061968
0.065297
0.108064
0.122929
0.117122
0.018077
0.102225
0.061465
0.046811
0.048168
0.103824
0.021056
0.073197
0.026979
0.017567
0.030068
0.124948
0.141020
0.064996
0.117705
0.127972
0.049735
-0.038092
0.046319
0.109294
0.003934
0.010952
0.076219
0.100129
0.069956
0.070464
0.035994
0.050774
0.077956
0.079332
0.036103
0.101410
0.096421
0.054352
-0.003894
0.017500
0.095500
0.010461
0.145975
0.215778
0.100407
0.118094
0.197855
0.215674
0.145146
0.178797
0.189376
0.171309
0.222826
0.199397
0.178020
0.228279
0.226637
0.266903
0.215299
0.175723
0.247111
0.235017
0.152597
0.147981
0.139233
0.160230
0.202762
0.182546
0.168601
0.165640
0.053733
0.082866
0.169966
0.067515
0.052033
0.024610
0.093065
0.090887
0.061438
0.018369
0.001904
0.099425
0.034923
-0.036433
-0.006205
-0.006480
-0.021763
-0.031813
-0.029004
0.043416
0.023915
-0.029891
-0.002059
0.057051
0.025759
-0.019929
-0.010326
0.063905
-0.056371
-0.111583
-0.112810
-0.016755
0.126980
0.419188
0.696974
0.944815
1.321713
1.428286
1.239767
1.136154
0.674992
0.466393
0.079079
-0.114642
-0.190625
-0.204202
-0.219942
-0.165489
-0.122181
-0.045674
-0.050324
-0.026091
-0.002583
0.055844
-0.039068
-0.102063
0.041417
-0.027255
-0.007534
-0.043139
0.038076
0.042511
-0.022585
-0.024297
0.000828
0.103205
0.001744
0.061519
0.030465
-0.010466
0.094756
0.085798
0.075434
0.115826
0.113946
0.073988
0.091666
0.068911
0.130935
0.084225
0.148052
0.083908
0.176161
0.208581
0.207655
0.218101
0.294144
0.260431
0.292381
0.256279
0.365404
0.274826
0.402604
0.347807
0.367217
0.369060
0.316346
0.452643
0.496978
0.445047
0.525679
0.372279
0.489924
0.384193
0.504637
0.492586
0.454166
0.431645
0.412817
0.400534
0.390860
0.464711
0.326606
0.339967
0.349134
0.295858
0.103408
0.250172
0.221833
0.232773
0.185309
0.148260
0.171188
0.120997
0.145046
0.074629
0.112512
0.095910
0.057832
-0.012648
0.043493
0.022509
0.028037
0.022083
0.085373
-0.061635
-0.057613
0.002642
0.009546
-0.032550
-0.010498
-0.002199
-0.021957
-0.006137
-0.015240
-0.063751
0.021397
0.005352
-0.060174
-0.043520
-0.072524
-0.182300
-0.074805
-0.052749
-0.044923
-0.113912
-0.065158
-0.122236
-0.003649
-0.000363
-0.021064
-0.103344
-0.030901
-0.062172
-0.073778
-0.130701
-0.153406
-0.066725
-0.091519
-0.062053
-0.075427
-0.090499
-0.052267
-0.127439
-0.078941
-0.070489
-0.106698
-0.023135
-0.052934
-0.104148
-0.106658
-0.082115
-0.014603
-0.005615
-0.083099
-0.012910
0.003684
-0.062787
-0.130364
-0.098196
-0.080311
-0.142829
-0.073854
-0.059561
-0.026084
-0.028857
-0.031740
-0.114516
-0.073364
-0.128498
-0.099061
-0.159682
-0.102443
-0.124139
-0.111666
-0.030232
-0.095657
-0.135505
-0.013634
-0.145182
-0.148893
-0.069246
-0.028531
0.023700
-0.064479
0.006252
-0.008345
-0.065369
-0.073270
-0.097287
-0.017672
-0.024252
-0.050229
-0.109744
-0.048117
0.043066
-0.113275
-0.036808
-0.003093
0.007661
-0.015692
0.011191
0.102879
-0.054930
0.019618
0.042047
0.070837
0.032890
0.121607
0.048503
0.023720
0.109989
0.156517
0.116958
0.069589
0.120909
0.086245
0.124239
-0.006609
0.066928
0.057337
0.028182
0.058878
0.052689
-0.026946
0.042005
0.032863
-0.029039
0.007973
0.013734
-0.033355
-0.046671
-0.036391
-0.079559
-0.015993
-0.090226
-0.067060
-0.031895
-0.089766
-0.034143
-0.049040
-0.090577
-0.039932
0.017925
-0.052330
-0.106368
-0.098408
-0.010033
0.010607
-0.093789
-0.029154
-0.079269
-0.156186
-0.052444
-0.018713
-0.112633
-0.143173
-0.147874
-0.193080
-0.056894
-0.077386
0.117600
0.454711
0.797601
1.054612
1.285115
1.327513
1.225759
0.948673
0.593310
0.170961
0.033045
-0.273762
-0.338037
-0.320676
-0.410978
-0.238644
-0.204500
-0.085831
-0.051880
-0.046529
-0.063937
-0.084370
-0.045578
-0.058835
-0.012155
-0.007521
-0.044115
-0.041156
-0.031502
-0.070162
-0.049606
-0.033503
-0.025313
-0.028604
-0.018677
-0.012226
0.074446
-0.015093
0.049266
0.021510
-0.048346
-0.009472
0.002045
0.027116
0.032263
0.017142
0.117054
0.113263
0.146148
0.124217
0.133319
0.229646
0.243325
0.163150
0.216214
0.255305
0.263104
0.289547
0.376853
0.370139
0.283143
0.331258
0.418332
0.405461
0.446669
0.452707
0.386612
0.390542
0.438608
0.508755
0.422517
0.491807
0.437054
0.397297
0.408347
0.420375
0.358939
0.369566
0.370684
0.368494
0.304417
0.360087
0.324362
0.315894
0.336688
0.292235
0.184022
0.192663
0.169761
0.163449
0.148496
0.170085
0.140223
0.097650
0.052733
0.002391
0.012769
0.108880
0.061543
0.039441
0.047460
-0.050040
0.039591
-0.045134
0.030068
0.009616
0.067405
-0.003514
-0.011382
0.019660
0.046734
-0.006974
-0.050268
-0.062764
-0.008792
-0.018432
0.085146
-0.023037
-0.011729
-0.064469
-0.060820
-0.015959
-0.024391
-0.061288
0.049027
-0.038282
0.024468
0.059648
0.044442
-0.019209
-0.067423
0.006260
0.009359
-0.041796
-0.021315
0.015652
-0.071343
-0.053592
-0.026354
-0.048215
0.071324
0.023898
-0.050319
-0.011761
0.023186
0.025723
0.079439
-0.044728
-0.028589
0.040963
-0.002372
-0.067727
0.006517
-0.007959
-0.041597
-0.029635
-0.081805
0.037768
-0.016803
0.002844
-0.081723
-0.088421
-0.003204
0.067390
-0.043565
0.036064
0.014393
0.034875
0.053390
-0.023850
0.002048
0.026663
-0.004518
0.020700
-0.032760
0.062218
0.052165
-0.079633
0.062544
-0.021008
0.034404
0.027314
0.029632
0.018224
0.055683
0.035217
0.057506
0.111238
0.023089
-0.026555
0.090074
-0.046832
0.084038
0.056421
0.053662
0.023680
0.049918
0.067091
0.056148
0.070045
0.126847
0.131083
0.057960
0.140253
0.150545
0.124488
0.141996
0.167522
0.156235
0.193864
0.170584
0.176512
0.176414
0.178458
0.151248
0.193778
0.207919
0.140616
0.174707
0.203979
0.163368
0.134811
0.132060
0.104663
0.133354
0.080218
0.091961
0.079114
0.071568
0.068761
0.060671
-0.007907
0.053741
0.118405
0.022719
0.033658
0.118508
-0.002603
0.074145
0.068620
0.025250
0.023131
0.068769
-0.030037
0.069940
0.101259
0.059700
0.086532
-0.049990
0.067806
0.039777
0.027805
0.039860
-0.043438
0.037387
-0.030346
-0.004149
0.039471
0.179756
0.408043
0.709119
1.077213
1.312846
1.500000
1.340884
1.199474
0.904546
0.594598
0.286906
0.022343
-0.196467
-0.322068
-0.323727
-0.203678
-0.116549
-0.082403
-0.019227
0.049302
0.046167
-0.051783
-0.071960
0.065541
-0.027365
0.097183
0.013522
0.013352
0.038587
0.079729
0.067818
0.029480
0.091118
0.045845
0.077400
0.132249
0.060519
0.093802
0.150288
0.139008
0.141492
0.120989
0.136076
0.165335
0.152267
0.158644
0.198909
0.208201
0.238015
0.201720
0.211084
0.236177
0.302072
0.334431
0.339512
0.332165
0.286547
0.404148
0.300020
0.424265
0.415812
0.496027
0.397256
0.497622
0.504126
0.525289
0.462797
0.491765
0.557841
0.545351
0.532447
0.563786
0.521472
0.558977
0.521683
0.488075
0.478085
0.431582
0.517528
0.508556
0.508992
0.487720
0.425237
0.413129
0.425501
0.275991
0.335171
0.279103
0.324682
0.262891
0.248196
0.222646
0.214163
0.225602
0.181009
0.138870
0.073345
0.123211
0.145933
0.124804
0.132278
0.097706
0.051970
0.002989
0.011734
0.132157
0.105873
0.095630
0.080771
0.136568
0.102907
0.084937
0.078268
-0.004753
0.015892
-0.029403
-0.045039
0.030465
0.059869
0.005669
-0.024856
-0.032373
0.093999
-0.037291
0.019047
-0.013719
0.023490
-0.006809
-0.006919
0.034978
0.019312
0.086113
0.074309
0.042732
0.030602
0.009147
0.001108
0.016085
-0.006586
-0.024574
0.131754
0.038998
0.025130
0.069974
0.006501
-0.027128
0.060522
-0.021854
0.024074
-0.022416
-0.068798
0.049606
0.120701
0.012146
0.010148
-0.013438
-0.009115
0.063063
0.035453
0.059874
0.006008
0.010652
-0.012564
0.045882
0.015358
0.022587
0.030193
0.032334
0.037102
-0.045146
0.005510
0.017142
-0.035175
0.018100
0.013214
-0.018751
-0.053621
0.024892
-0.070101
0.034676
0.014487
0.046600
0.038431
0.012860
0.050327
0.016292
-0.015577
0.026494
0.030681
-0.033486
-0.004570
0.115458
0.007387
0.004919
0.021609
0.020843
0.056271
-0.010907
0.082122
0.006236
0.079632
0.027710
0.053872
0.024780
0.106011
0.134608
0.084977
0.096303
0.055334
0.133583
0.147021
0.136674
0.220691
0.136339
0.145107
0.176626
0.079732
0.137300
0.098597
0.093674
0.108829
0.042566
0.123614
0.099448
0.016390
0.089359
0.066095
0.029330
0.027768
0.007760
0.037592
-0.030325
0.006115
-0.003953
0.006252
0.009309
-0.038343
-0.049863
0.050864
0.025661
-0.019680
-0.017110
-0.012743
-0.109566
0.026336
-0.022520
-0.028196
-0.041951
-0.068664
-0.115560
-0.057888
-0.018462
-0.018866
-0.038656
-0.027576
-0.084081
-0.133010
-0.113767
-0.018850
0.156866
0.492405
0.693223
1.062117
1.277953
1.393471
1.241608
1.063867
0.677142
0.310654
0.060748
-0.259577
-0.264648
-0.403651
-0.362934
-0.232312
-0.182199
-0.118508
0.027916
0.005320
-0.107765
-0.055073
-0.036015
0.045370
-0.059766
0.022183
0.008413
0.003295
0.030019
-0.035121
-0.115458
-0.071542
-0.116846
-0.094269
-0.111858
-0.069997
0.054607
-0.032230
0.028233
-0.054791
0.018232
0.007768
0.088589
0.010506
-0.008939
0.009533
0.003908
0.117519
0.102909
0.115316
0.158654
0.177290
0.194592
0.213360
0.181191
0.226514
0.202641
0.281179
0.289329
0.286685
0.291092
0.292477
0.396397
0.387835
0.364808
0.412870
0.425508
0.378142
0.384830
0.390094
0.374648
0.380486
0.324882
0.392356
0.398193
0.295669
0.364019
0.362136
0.402069
0.314802
0.319444
0.317222
0.281995
0.214203
0.183126
0.274749
0.239191
0.054398
0.108992
0.096082
0.113055
0.144499
0.035925
0.041343
-0.009952
0.089751
-0.097516
0.031255
-0.015259
-0.007740
0.003412
-0.031224
-0.067575
-0.085109
-0.032850
-0.021646
-0.085866
-0.081029
-0.176765
-0.073453
-0.047105
-0.026879
-0.045513
-0.048199
-0.047577
-0.061458
-0.006757
-0.019841
-0.063481
-0.226597
-0.071305
-0.128023
-0.052499
-0.045972
-0.142596
-0.058838
-0.025352
-0.063493
-0.032266
-0.006028
-0.160162
-0.070859
-0.108487
-0.046371
-0.043844
-0.139230
-0.037932
-0.119939
-0.055145
-0.117007
-0.082041
-0.133900
-0.095672
-0.085795
-0.143992
-0.121977
-0.162468
-0.063525
-0.112601
-0.129689
-0.081910
-0.100580
-0.102285
-0.152602
-0.116651
-0.132731
-0.117788
-0.169060
-0.151968
-0.050007
-0.039636
-0.069286
-0.090340
-0.150350
-0.029141
-0.167316
-0.074427
-0.081294
-0.055359
-0.204894
-0.110347
-0.124072
-0.177612
0.022729
-0.092960
-0.043361
-0.095148
-0.099213
-0.092063
-0.024128
-0.078547
-0.070789
-0.117816
-0.087583
-0.033043
0.045990
-0.128329
-0.058650
-0.039618
-0.092831
-0.080448
-0.010341
-0.055823
-0.082405
-0.091844
-0.024679
-0.018194
-0.064056
-0.058853
-0.057140
0.045011
-0.016802
-0.032792
-0.030511
0.017212
0.014118
0.055375
0.104598
0.038707
0.120993
0.095096
0.148528
0.135271
0.029493
0.136458
0.128244
0.065222
-0.000891
0.053107
0.083175
0.066663
-0.000084
0.032294
0.058305
0.032032
-0.066319
0.094074
0.004614
-0.023497
-0.078245
-0.048518
-0.021372
-0.060386
-0.035081
-0.080523
-0.060645
-0.099526
-0.065594
-0.086639
-0.119224
-0.094233
-0.034130
0.007999
0.007982
-0.062396
-0.069789
-0.065469
-0.111994
-0.122226
-0.143419
-0.032088
-0.108692
-0.086647
-0.105425
-0.202123
-0.097035
-0.149797
-0.172581
-0.076066
0.213809
0.512561
0.786209
1.084785
1.278429
1.256502
1.047442
0.896688
0.476919
0.247941
-0.024765
-0.293870
-0.358083
-0.297062
-0.318216
-0.292495
-0.178959
-0.160856
-0.171452
-0.121203
-0.032736
-0.084938
-0.056561
-0.095100
-0.050769
-0.034812
-0.037044
-0.071121
-0.043979
-0.070333
-0.055280
-0.021252
-0.147872
-0.088598
-0.085986
0.011829
-0.021482
-0.054686
-0.009837
-0.010822
0.096629
-0.006775
0.066451
0.116004
0.078487
0.087816
0.114303
0.122851
0.164288
0.138211
0.191089
0.081982
0.187867
0.244832
0.235718
0.259633
0.265189
0.312117
0.345819
0.376381
0.290807
0.404398
0.388250
0.473591
0.452864
0.426238
0.381182
0.430110
0.434180
0.498020
0.440174
0.428764
0.493269
0.491224
0.429767
0.395373
0.391509
0.424895
0.410665
0.386214
0.411107
0.356409
0.284337
0.319515
0.253870
0.296337
0.292821
0.155492
0.201514
0.145155
0.175077
0.119322
0.214170
0.124659
0.081783
0.068644
0.094071
0.117248
0.001039
0.034393
0.012683
-0.004622
0.006536
0.043796
0.068182
0.017166
-0.043202
0.023559
-0.012258
-0.008681
0.026377
-0.073386
-0.013681
-0.058765
-0.059449
-0.009531
0.065220
0.054025
-0.053213
0.041879
-0.065323
0.025923
0.016550
-0.040507
-0.018379
-0.014140
0.001568
0.021575
-0.016858
-0.002551
-0.028402
-0.060321
-0.018221
-0.009755
-0.046696
0.036195
0.036101
0.066668
0.026914
0.011358
0.024955
0.029881
0.095074
0.025006
0.034499
-0.032534
0.025211
0.020756
0.046127
0.057712
0.037786
-0.005049
0.021898
-0.003680
0.057423
0.028836
0.018518
0.011246
-0.013072
0.041780
-0.002930
0.022428
0.024380
0.014698
-0.009739
0.051768
-0.005517
0.066297
-0.004155
0.009137
0.051279
0.047926
0.017088
0.022716
0.081014
-0.009440
-0.051430
-0.073936
-0.029217
0.019853
0.131887
0.026158
0.093416
0.068381
0.052938
0.037388
0.075214
0.052332
0.041624
0.052447
0.040489
0.045183
0.036493
0.083571
0.147334
0.044567
0.112971
0.001738
0.154719
0.150683
0.103489
0.159101
0.177739
0.113629
0.177917
0.175337
0.155137
0.107506
0.221268
0.205084
0.237694
0.194032
0.188648
0.242931
0.247761
0.224712
0.164350
0.201067
0.156347
0.158743
0.176473
0.155014
0.186544
0.145446
0.149257
0.096127
0.087903
0.122625
0.024767
0.073278
0.021792
0.044803
0.080387
0.095168
0.082117
0.090288
0.091824
0.071803
0.066153
0.106893
0.016068
0.094216
0.084045
-0.017805
0.107309
0.129400
0.024283
0.086361
0.033361
0.063039
0.001053
0.078094
0.026397
-0.005382
0.016674
0.015787
-0.029051
0.075345
0.081534
0.407151
0.743263
1.041888
1.432757
1.359245
1.357459
1.170259
0.933331
0.619727
0.292456
0.007522
-0.233796
-0.200562
-0.199927
-0.089808
-0.085407
-0.032049
-0.000234
0.056666
0.048322
0.070312
0.094117
0.073931
0.076900
0.090545
0.075376
-0.007383
0.088075
0.073000
0.068694
0.142110
-0.006972
0.097983
0.039722
-0.005881
0.054481
0.125110
0.113316
0.084761
0.110612
0.088135
0.150460
0.115177
0.186534
0.137536
0.239256
0.248035
0.284411
0.225897
0.186823
0.335096
0.329696
0.313517
0.406892
0.361608
0.367239
0.408801
0.427165
0.378043
0.469401
0.548997
0.495662
0.532162
0.585886
0.554032
0.614716
0.499205
0.537565
0.566691
0.566386
0.516768
0.566539
0.595095
