0.051649
-0.012906
-0.053541
0.014627
-0.027883
-0.046667
-0.012911
-0.063334
-0.026412
-0.022059
0.033067
-0.010869
0.112923
-0.066420
0.109310
0.133110
0.165339
0.035440
0.026357
-0.023358
0.042774
0.057286
0.117408
0.127040
0.032725
0.078203
0.070803
0.149332
0.164119
0.215938
0.171364
0.164157
0.209466
0.150487
0.184698
0.157388
0.196010
0.132970
0.295124
0.216639
0.135071
0.174191
0.073718
0.201448
0.147601
0.213613
0.184591
0.189985
0.165134
0.156788
0.036235
0.195085
0.114960
0.027789
0.049380
0.132176
0.042987
0.049550
0.054312
0.015245
0.098532
0.061876
0.058582
0.087898
0.045265
0.022674
0.093862
0.019370
0.097403
0.122221
0.208994
0.498434
0.722176
1.086615
1.304064
1.362176
1.341603
1.143995
0.738874
0.365013
0.095675
-0.030115
-0.133108
-0.127106
-0.076306
-0.043742
0.034725
0.009602
0.044589
0.127786
0.201890
0.044334
0.196790
0.118787
0.131094
0.105062
0.226435
0.162783
0.191650
0.159695
0.157339
0.211593
0.303501
0.363295
0.330375
0.240069
0.371368
0.374610
0.322832
0.377147
0.480245
0.535811
0.416172
0.458263
0.533576
0.512511
0.524963
0.609076
0.620151
0.488968
0.581305
0.590409
0.554205
0.553157
0.573237
0.704599
0.540995
0.523475
0.541802
0.519446
0.510815
0.517524
0.493274
0.457993
0.549887
0.397036
0.442648
0.416497
0.313919
0.436806
0.367660
0.260079
0.225945
0.292910
0.277545
0.199966
0.272982
0.247665
0.143029
0.210486
0.101144
0.040706
0.146037
0.112197
0.058036
0.191386
0.166013
0.060933
0.077015
0.092536
0.120231
0.070849
0.032882
0.103428
0.079292
0.050587
0.036103
0.127282
0.044790
0.089623
0.049793
0.001172
0.044587
0.077623
0.049646
0.088797
0.078224
0.070337
0.108998
0.015213
0.094546
0.130023
0.059909
0.130586
0.145968
0.097856
0.158070
0.015375
0.070830
0.114690
0.061003
0.037477
0.085897
0.097240
0.028861
0.067162
0.108835
0.144445
0.160385
0.097786
0.173555
0.027162
0.057612
0.134747
0.051281
0.070813
0.137146
0.126414
0.104490
0.139350
0.142196
0.164925
0.093367
0.276200
0.124103
0.146733
0.183601
0.261119
0.256349
0.319366
0.235815
0.237767
0.295269
0.307938
0.290170
0.296537
0.174768
0.289481
0.264481
0.266876
0.203801
0.190152
0.241325
0.323487
0.212912
0.122943
0.178028
0.194315
0.160515
0.159745
0.166834
0.059841
0.084428
0.120420
0.093292
0.110212
0.167369
0.135328
-0.020490
0.154743
0.122523
0.099776
0.094816
0.107705
0.017256
0.027290
0.144698
0.196253
0.398673
0.698774
0.884108
1.229062
1.393610
1.391386
1.242611
0.915342
0.597569
0.157009
-0.034120
-0.080856
-0.143961
-0.084222
0.053696
0.044926
0.112504
0.105564
0.125201
0.115183
0.178440
0.106661
0.113788
0.165072
0.175463
0.121366
0.189912
0.168177
0.211352
0.289490
0.275923
0.317413
0.259763
0.216178
0.331564
0.370511
0.395887
0.394448
0.462569
0.475643
0.363652
0.614254
0.447067
0.492125
0.524148
0.566782
0.553906
0.529257
0.474954
0.577476
0.463956
0.584728
0.503568
0.572972
0.548608
0.511408
0.489069
0.525176
0.535286
0.489969
0.472738
0.442603
0.442175
0.421774
0.451869
0.367046
0.359634
0.394646
0.315965
0.299378
0.234462
0.321760
0.194641
0.277923
0.160809
0.188628
0.208800
0.159913
0.173059
0.194429
0.143598
0.107028
0.152935
0.105545
0.117956
0.149413
0.115972
0.080716
0.036713
0.122384
0.086563
0.110134
0.023854
0.058510
-0.005079
-0.027506
-0.003634
0.032877
0.057040
0.028254
0.023582
0.027152
-0.004858
0.014093
0.032094
-0.010487
-0.004419
0.059155
0.091780
0.008569
0.027728
-0.010816
0.053307
-0.029151
0.073308
0.098376
-0.003492
0.058987
0.064598
0.040934
0.049296
0.052370
0.096341
0.026139
-0.016585
-0.020125
0.025270
0.056978
0.069461
-0.010805
0.050209
0.002844
0.028397
0.082984
0.085181
0.073005
0.052101
0.023264
0.052627
-0.017399
0.086349
0.056279
0.131668
0.141304
0.157081
0.177799
0.101917
0.078716
0.095861
0.157191
0.209950
0.104518
0.099211
0.222170
0.136549
0.085096
0.163480
0.178175
0.119065
0.218365
0.113093
0.131904
0.075577
0.136932
0.100721
0.071770
0.089626
0.068684
0.060989
0.020745
0.086812
-0.050924
-0.008518
0.024885
-0.002441
0.029304
0.036685
0.050828
0.004369
-0.000294
-0.002853
0.025018
0.042435
0.025508
0.002384
-0.020383
-0.016336
0.157475
0.391507
0.666224
0.992926
1.228059
1.277332
1.218512
1.029845
0.686309
0.285734
-0.007634
-0.212562
-0.194703
-0.132894
-0.102435
-0.121177
-0.059209
0.009117
0.059287
0.021993
-0.035501
0.042269
0.000578
0.024790
0.001886
0.156564
0.094393
0.080127
0.209448
0.136711
0.069284
0.119453
0.177010
0.154871
0.226607
0.283866
0.261873
0.243276
0.323425
0.317572
0.394648
0.340691
0.423997
0.386079
0.346055
0.426132
0.452945
0.437749
0.523577
0.430512
0.533586
0.472260
0.441217
0.444540
0.390393
0.454448
0.399203
0.422339
0.441039
0.472279
0.402005
0.399848
0.336859
0.371260
0.303380
0.301591
0.345018
0.323544
0.177544
0.179808
0.203692
0.167257
0.168132
0.239793
0.113024
0.177013
0.057228
0.110936
0.044068
-0.005158
0.119954
0.048964
0.059944
-0.020113
0.032630
-0.051280
-0.022635
0.026246
-0.010954
0.072800
-0.018758
-0.038222
-0.035732
-0.070162
-0.118976
-0.024662
-0.003586
-0.113313
-0.071281
-0.082316
0.043981
-0.056324
-0.077065
-0.070512
-0.097842
-0.015613
-0.016732
-0.028594
-0.038795
-0.070560
-0.128673
-0.041302
-0.093060
-0.037482
-0.065353
-0.060833
-0.111809
-0.066511
-0.078743
0.001009
-0.004611
0.033726
-0.064726
-0.007821
-0.001071
-0.076263
-0.057814
0.030641
-0.060906
-0.010980
0.046161
-0.071137
-0.038011
-0.017665
-0.069416
0.032308
-0.025916
0.046449
-0.005568
0.077107
0.118313
0.018501
0.034782
0.006988
0.006028
0.064183
0.133321
0.023400
0.073000
0.111832
0.204486
0.109039
0.087474
0.011993
0.117806
0.099064
0.132242
0.187202
0.091468
0.129978
0.134637
0.067004
0.142058
0.087068
0.060348
0.074839
0.106212
0.049841
0.104183
-0.025413
0.017901
0.010420
0.029415
0.050845
-0.027682
-0.056291
0.011090
0.079182
0.081386
-0.081194
-0.004402
-0.046267
-0.092720
-0.041989
-0.041811
0.007770
0.012117
-0.006171
0.309843
0.508144
0.818073
1.106251
1.235922
1.198687
1.033874
0.821554
0.404371
0.149113
-0.108904
-0.284367
-0.242129
-0.159450
-0.058024
-0.056396
-0.015190
0.011912
0.041659
0.033250
0.041763
0.063040
0.110091
0.053015
0.035889
0.201520
0.063043
0.095607
0.146500
0.159962
0.260347
0.249714
0.178938
0.219797
0.205172
0.269615
0.296142
0.305905
0.425407
0.291125
0.396300
0.395557
0.380766
0.438102
0.491985
0.498584
0.452365
0.433870
0.573207
0.468915
0.472779
0.505535
0.460177
0.547816
0.522547
0.492031
0.495445
0.424984
0.389976
0.424324
0.485784
0.414773
0.385516
0.407728
0.285387
0.418629
0.380682
0.328068
0.285018
0.291978
0.239673
0.242531
0.220156
0.171916
0.085131
0.141361
0.159450
0.131578
0.122665
0.111438
0.134883
0.075123
0.050943
0.001117
0.103559
0.035960
0.102835
0.010143
0.015908
0.027764
-0.023129
0.114276
-0.005003
-0.050196
-0.025619
0.013656
0.092188
-0.035117
0.048767
0.077641
0.114905
0.068936
0.061652
0.008695
0.039853
0.019286
0.009554
-0.056184
0.045200
0.000542
0.036653
0.067937
-0.069962
0.060336
0.075479
0.078399
0.016407
0.032545
0.061197
-0.003910
-0.006780
-0.034857
-0.034751
-0.075331
-0.052012
0.042629
0.021737
0.054703
0.042906
0.003351
0.003104
0.013001
0.016034
0.065953
0.074234
0.089749
0.036613
0.068134
0.104410
0.090552
0.126310
0.138126
0.070686
0.047678
0.096056
0.134239
0.095768
0.193955
0.170748
0.221268
0.190743
0.300493
0.260312
0.267534
0.193116
0.184326
0.151956
0.245890
0.222353
0.254308
0.177738
0.161398
0.146366
0.174524
0.143415
0.088240
0.116635
0.138587
0.149774
0.137545
0.127365
0.004506
0.084245
0.089766
0.033325
0.123733
0.133257
-0.024126
0.060352
0.100097
0.106311
0.044559
0.115907
0.001205
0.055089
0.103838
0.090562
0.177199
0.404443
0.746341
1.195386
1.356313
1.500000
1.403459
0.955227
0.767384
0.374001
0.060681
-0.073990
-0.087358
-0.113508
-0.021996
0.054809
0.032990
0.036999
0.113266
0.084822
0.129889
0.222933
0.129756
0.219657
0.166320
0.192909
0.210425
0.196605
0.219666
0.242754
0.208753
0.269971
0.250253
0.276175
0.355213
0.322518
0.367714
0.339482
0.316950
0.420454
0.479502
0.478296
0.423065
0.510529
0.487182
0.532815
0.558353
0.638627
0.671224
0.680066
0.601234
0.522881
0.523593
0.499570
0.629254
0.527844
0.527615
0.452904
0.479347
0.537238
0.534996
0.584315
0.556756
0.501818
0.472184
0.438745
0.377861
0.333962
0.424773
0.331987
0.322325
0.341949
0.271764
0.282243
0.210780
0.312861
0.232670
0.182308
0.205935
0.172443
0.143105
0.164475
0.157197
0.194915
0.148495
0.171369
0.129208
0.109811
0.190028
0.084069
0.120120
0.149795
0.192126
0.077093
0.106502
0.160665
0.159814
0.039962
0.089179
0.098058
0.000956
0.146638
0.044545
0.056380
0.135260
0.112404
0.030466
0.077501
0.122727
0.147732
0.105519
0.145130
0.018029
0.090717
0.125585
0.173593
0.187719
0.059244
0.101116
0.130438
0.137582
0.166231
0.062052
0.058290
0.114388
0.133902
0.070111
0.174145
0.142563
0.151844
0.069985
0.141693
0.035258
0.139522
0.105310
0.224303
0.100364
0.194226
0.148336
0.169259
0.157406
0.207530
0.231096
0.217443
0.192791
0.225806
0.234409
0.238309
0.184729
0.216928
0.280681
0.242317
0.270770
0.222379
0.231615
0.249075
0.300485
0.325271
0.268054
0.270665
0.232715
0.230889
0.238791
0.189240
0.178357
0.218911
0.151468
0.118377
0.138311
0.200199
0.127380
0.117523
0.125175
0.171701
0.080337
0.125418
0.106007
0.045221
0.077650
0.119649
0.091736
0.090662
0.107854
0.068925
0.061860
0.118886
0.117289
0.198844
0.341113
0.507446
0.893540
1.155563
1.440720
1.459702
1.258537
1.031562
0.547026
0.214568
0.047596
-0.071614
-0.148562
0.030241
-0.053220
0.058704
0.068438
0.028639
0.082880
0.162528
0.166207
0.120153
0.103611
0.191954
0.164887
0.233059
0.138522
0.260778
0.194113
0.262712
0.304855
0.322766
0.229463
0.268638
0.290229
0.320489
0.426991
0.310526
0.428114
0.390516
0.384165
0.376167
0.383711
0.581200
0.529618
0.493712
0.534397
0.501462
0.502936
0.592253
0.522362
0.574998
0.605755
0.574853
0.487862
0.568674
0.534366
0.578557
0.598246
0.544642
0.455011
0.488403
0.441314
0.376890
0.445217
0.393485
0.388478
0.368216
0.350674
0.403062
0.323486
0.237318
0.256004
0.261406
0.133580
0.167375
0.181454
0.224923
0.152027
0.111553
0.153881
0.122695
0.129977
0.011101
0.046747
0.124067
0.113571
0.063743
0.060960
0.094028
0.017493
0.128449
-0.006051
0.031597
0.063748
0.015115
0.005959
0.012462
0.030083
0.083468
-0.003436
0.027790
0.030055
0.012144
-0.033129
-0.006929
0.014536
0.050933
0.079214
-0.011843
-0.029510
0.030029
0.036962
0.069015
0.048492
0.076513
0.031398
0.036581
0.033997
0.065687
0.013905
0.012752
0.058330
0.003013
0.019082
-0.048485
0.082028
0.009559
0.075197
-0.004392
0.044834
0.016298
-0.032177
0.007659
-0.018846
0.037955
0.067146
-0.008400
-0.043326
0.056675
0.099665
0.077413
0.063640
0.051993
0.100332
0.161084
0.087179
0.224173
0.179606
0.090528
0.177991
0.190708
0.196965
0.212727
0.141345
0.151359
0.093197
0.165590
0.195008
0.145845
0.267743
0.071092
0.135149
0.121328
0.030516
0.088555
0.097752
0.032653
0.078275
0.083399
0.110803
0.056705
0.008903
0.051308
-0.035228
0.052485
-0.024342
0.013166
0.013246
0.000691
0.021485
-0.085601
-0.026129
0.060926
-0.022300
-0.098962
0.058197
0.126947
0.317450
0.639633
1.017962
1.244288
1.236213
1.277306
0.974001
0.612003
0.310217
0.009921
-0.243699
-0.245706
-0.197604
-0.131637
-0.084335
-0.010376
-0.042929
0.026940
0.089018
-0.013836
-0.007879
0.046476
0.105477
0.015103
0.035169
0.077249
0.093137
0.099858
0.103290
0.147256
0.178277
0.156183
0.184909
0.157354
0.198883
0.238666
0.280201
0.318312
0.317705
0.401026
0.335916
0.412209
0.413547
0.385784
0.336595
0.421711
0.490384
0.446072
0.384614
0.473895
0.377310
0.436433
0.391861
0.448656
0.486837
0.471762
0.375176
0.454221
0.403496
0.344960
0.338404
0.327004
0.356246
0.303158
0.282074
0.290258
0.321420
0.265676
0.179083
0.144915
0.166301
0.139371
0.115924
0.087102
0.106835
0.037696
0.094858
0.034438
0.065393
0.029923
0.032776
0.028080
0.003082
0.001024
-0.082288
-0.086599
-0.013643
-0.065072
-0.045851
-0.032817
-0.031870
-0.020009
-0.110653
-0.121120
-0.081328
0.026078
-0.084946
-0.051366
-0.018447
-0.073055
-0.083889
-0.099201
-0.133750
-0.114538
-0.067031
-0.077893
0.001814
-0.047551
-0.090783
-0.056605
-0.058754
-0.121718
-0.059759
-0.069622
-0.157221
-0.009006
-0.094514
-0.066536
-0.109529
-0.081975
-0.040507
-0.115399
-0.056801
-0.039088
-0.049922
-0.093023
-0.043215
-0.063010
-0.005768
-0.054772
0.064354
-0.074063
-0.090807
0.036268
-0.050948
-0.012727
-0.002337
-0.072137
-0.038942
0.020967
-0.035999
0.006064
0.038242
0.075267
0.051861
0.017231
-0.012696
0.007533
0.034727
0.077543
0.099502
0.090749
0.191812
0.055158
0.122700
0.074030
0.072510
0.041049
0.084887
0.068981
0.014555
0.027146
0.102316
0.117479
0.077084
-0.003017
0.009107
0.033793
-0.039851
-0.000882
0.028030
-0.003380
-0.002543
-0.051474
-0.102315
-0.030438
-0.126389
-0.039696
-0.104397
-0.084382
-0.150370
-0.042031
-0.090992
-0.078952
-0.136283
-0.036293
-0.070599
0.207169
0.353476
0.788563
1.141682
1.178274
1.268806
1.089663
0.808345
0.407946
0.110222
-0.096206
-0.309911
-0.310117
-0.243119
-0.246791
-0.163343
-0.121264
-0.103011
-0.102066
-0.001930
0.045729
0.064466
0.053076
0.033378
0.052207
0.077838
0.002203
0.093039
-0.014734
0.055328
0.137119
0.167455
0.175033
0.189491
0.188160
0.200688
0.217984
0.215359
0.325746
0.270582
0.339278
0.367383
0.391260
0.371613
0.413831
0.329547
0.521052
0.408807
0.470552
0.554498
0.423915
0.534172
0.436409
0.452827
0.447908
0.508145
0.442471
0.386303
0.432696
0.444299
0.411297
0.379487
0.388310
0.344226
0.283764
0.400329
0.307507
0.262622
0.240733
0.130384
0.206248
0.262462
0.176476
0.113545
0.151086
0.097743
0.037315
0.159853
0.100573
0.069458
0.053236
-0.043072
0.045641
0.016695
-0.021418
0.005886
0.086978
-0.059819
0.001035
-0.008196
-0.009379
0.016484
-0.055952
-0.056215
0.052446
0.015881
-0.050418
-0.001513
-0.006172
-0.077754
0.014268
-0.129136
-0.092017
0.053350
-0.039693
-0.045998
-0.037745
-0.101674
-0.008902
-0.048205
-0.036823
-0.074533
-0.036564
-0.054759
-0.062752
-0.025406
-0.003645
-0.061529
-0.017318
-0.038440
-0.103324
0.040434
-0.001218
-0.049770
-0.082841
0.045408
-0.005701
-0.021237
0.022858
-0.016107
0.023133
0.052464
0.028776
-0.136646
0.032629
0.024008
0.017155
0.023646
0.054269
0.052332
0.065687
0.047570
0.087059
0.049631
0.137338
0.012976
0.123875
0.102754
0.190207
0.210610
0.225366
0.211221
0.100676
0.110719
0.120102
0.249143
0.158612
0.138001
0.197923
0.138825
0.187805
0.109678
0.181106
0.154413
0.051288
0.023508
0.110476
0.072037
0.137761
-0.028969
0.064137
0.003416
0.055511
0.100007
0.029667
0.028951
0.104694
0.102528
0.011339
0.041268
0.015338
0.007578
0.013630
-0.003541
-0.010045
0.097776
0.024339
0.134270
0.439394
0.700876
0.960441
1.288363
1.376432
1.295198
0.998313
0.708572
0.375202
0.111616
-0.166955
-0.176653
-0.167029
-0.091147
0.039699
0.038362
0.088769
0.003195
0.148556
0.054635
0.080184
0.127942
0.086770
0.190044
0.120935
0.090503
0.156387
0.104587
0.224521
0.241575
0.189836
0.281948
0.261818
0.300767
0.283788
0.404596
0.401793
0.373513
0.348292
0.449128
0.502391
0.509918
0.456392
0.395702
0.509719
0.488633
0.589738
0.578155
0.477494
0.582354
0.498568
0.474863
0.561028
0.610876
0.582319
0.517551
0.427024
0.463105
0.417444
0.484524
0.484802
0.429115
0.423623
0.403419
0.398128
0.382422
0.285464
0.317703
0.269789
0.210660
0.306265
0.269160
0.233538
0.157679
0.247866
0.154602
0.187141
0.142141
0.158688
0.139573
0.045166
0.107084
0.158382
0.081816
0.081925
0.059044
0.040881
0.104598
0.105308
0.101247
0.117000
0.032532
0.058813
0.086763
0.055925
-0.011759
0.032911
0.034263
0.076041
0.092323
0.006530
0.085532
0.076980
0.081309
0.017496
0.083997
0.067123
0.024395
0.056854
0.069707
0.073555
0.081002
0.069909
0.014350
0.026377
0.007840
0.101873
0.067986
-0.058364
0.002262
0.078868
0.090357
0.091758
-0.004116
0.011962
0.051596
0.042289
0.014665
0.018545
0.095480
0.003805
0.048365
0.070373
0.088522
0.094850
0.115821
0.087043
0.027703
0.046174
0.045879
0.177272
0.095646
0.155957
0.171703
0.157159
0.227753
0.138897
0.228496
0.157899
0.202082
0.217305
0.211949
0.291754
0.223322
0.246394
0.309746
0.225413
0.214864
0.211346
0.204257
0.169992
0.197479
0.123243
0.129319
0.207090
0.125209
0.100659
0.115462
0.085165
0.131144
0.053613
0.021371
0.118456
0.076036
0.101395
-0.012771
0.006007
0.041993
0.025938
0.108623
0.043624
0.040783
0.117930
0.024756
0.005228
0.051894
0.105422
0.295546
0.569671
0.858932
1.105938
1.313166
1.430672
1.137927
0.865483
0.533699
0.179053
0.016162
-0.148538
-0.219216
-0.121335
-0.064606
0.043658
0.011865
0.067511
0.088442
0.053971
0.060266
0.041655
0.066177
0.196584
0.115434
0.169483
0.145689
0.247804
0.208958
0.263778
0.125634
0.280616
0.309901
0.263793
0.266504
0.302614
0.241804
0.298648
0.373536
0.326790
0.384508
0.501757
0.483948
0.467053
0.473734
0.468650
0.561925
0.563276
0.542444
0.545241
0.481762
0.566848
0.537666
0.542821
0.533537
0.449040
0.475175
0.545479
0.410946
0.508194
0.529576
0.416654
0.394571
0.393015
0.329162
0.307320
0.373106
0.380842
0.253050
0.359481
0.162128
0.149601
0.223145
0.142813
0.249390
0.180705
0.109578
0.123247
0.117249
0.075827
0.041039
0.054664
0.162567
0.067845
0.015230
0.104524
-0.014545
0.068245
-0.008273
0.037864
0.092146
0.045666
-0.095871
-0.027751
0.007765
-0.094555
0.035905
0.047269
-0.007469
-0.048182
-0.079509
-0.047333
0.106782
-0.048469
0.057768
0.050821
-0.020855
0.002969
-0.006328
0.082979
-0.027461
0.069705
0.031062
-0.103032
-0.033635
-0.079001
-0.014411
-0.075177
0.020402
-0.004980
0.007748
-0.018467
-0.005821
-0.086814
0.002087
-0.022847
0.030526
-0.021086
-0.108438
-0.046415
0.006411
-0.024974
0.053265
-0.015371
0.015589
0.001817
0.012033
-0.022526
-0.012750
0.034667
0.041399
0.028931
-0.005776
0.055123
-0.006146
0.066522
0.075475
0.143989
0.111935
0.202447
0.137487
0.110594
0.075800
0.159159
0.147048
0.165644
0.070070
0.128607
0.065678
0.101733
0.121675
0.123166
0.060588
0.060560
0.120074
0.013122
0.125594
0.013259
0.056456
0.026393
0.024665
0.048144
-0.077152
-0.045204
-0.039604
-0.049547
0.027590
-0.088648
-0.047276
-0.068027
-0.030414
-0.095434
-0.050498
-0.048062
-0.035609
-0.060828
0.007070
0.108701
0.300359
0.642356
0.963589
1.208693
1.346209
1.214599
1.021723
0.610868
0.286447
0.015544
-0.156150
-0.266713
-0.202784
-0.148151
-0.118429
-0.071602
-0.027628
0.046367
0.022052
-0.012120
-0.000595
-0.031045
0.051950
0.010265
0.062110
0.049924
0.031475
0.107703
0.085695
0.066989
0.087360
0.145246
0.130692
0.211545
0.181851
0.198067
0.177619
0.327038
0.171405
0.375981
0.343367
0.371611
0.344948
0.378391
0.371371
0.359868
0.366418
0.395836
0.399987
0.487000
0.460254
0.397328
0.430926
0.473912
0.395394
0.338975
0.405963
0.441069
0.406507
0.403486
0.355783
0.326135
0.295187
0.228895
0.213217
0.192136
0.178432
0.184290
0.126091
0.113478
0.138179
0.188613
0.035837
0.127864
0.069403
0.079117
0.021262
0.069457
0.020386
0.016254
0.005011
-0.059118
-0.077142
0.003593
0.032982
-0.161101
-0.081427
-0.058155
-0.073675
-0.044297
-0.120156
-0.039120
-0.160384
-0.126137
-0.115143
-0.015947
0.063709
-0.011848
-0.069234
-0.051148
-0.042949
-0.079682
-0.055311
-0.109282
-0.085778
-0.145706
-0.058288
-0.017830
-0.092457
-0.156355
-0.111351
-0.110797
-0.089567
-0.092499
-0.050929
-0.035027
-0.142985
0.024785
-0.073610
-0.063878
-0.175930
-0.076204
-0.175285
-0.151140
-0.035047
-0.101161
-0.088538
-0.094353
-0.091447
-0.086654
-0.022212
0.010499
-0.060234
-0.084575
-0.112546
-0.126699
-0.084977
-0.059701
-0.135473
0.019294
-0.012810
0.005208
-0.023097
0.037858
0.002768
-0.000651
0.081550
0.072652
0.000444
0.049931
0.020301
0.129358
0.023207
0.106485
0.114535
-0.005520
0.063175
0.086119
0.107043
0.002691
0.018300
0.078087
0.021403
-0.104290
0.033542
0.042505
0.019526
0.006309
-0.004762
-0.084787
-0.018896
-0.080807
-0.066745
-0.105016
-0.049443
-0.077860
-0.162448
-0.118152
-0.117333
-0.091161
-0.120377
-0.154337
-0.148092
-0.148851
-0.176830
0.038796
0.019046
0.208595
0.435938
0.668459
1.030474
1.209581
1.267341
1.174712
0.739476
0.426512
0.112734
-0.172965
-0.197982
-0.305822
-0.205530
-0.108723
-0.153743
-0.115809
-0.089221
-0.031671
-0.061406
-0.004443
0.063313
-0.041325
0.094265
-0.047148
0.055763
0.061026
0.076820
0.038594
0.098131
0.133337
0.047398
0.145213
0.154993
0.169743
0.189106
0.252452
0.209620
0.254710
0.280075
0.327532
0.308444
0.293629
0.385908
0.405765
0.318290
0.441508
0.426544
0.435559
0.475707
0.465649
0.440207
0.442706
0.459439
0.330961
0.457011
0.386748
0.381539
0.370117
0.325730
0.377089
0.315044
0.304657
0.343975
0.210813
0.305341
0.263692
0.171960
0.266402
0.253710
0.153138
0.218275
0.077810
0.096120
0.144291
0.136911
0.098774
0.083375
0.004514
0.106346
-0.068483
-0.046736
0.039732
-0.024010
0.000457
-0.030628
-0.011233
-0.057427
-0.076609
-0.066172
-0.046950
-0.036122
-0.082932
-0.008412
-0.032277
0.034703
0.051485
-0.049817
-0.088457
-0.069952
-0.056873
-0.019395
0.002620
-0.044692
-0.076957
-0.034786
-0.056996
0.020327
-0.049774
0.001465
-0.081802
-0.031465
-0.012804
-0.043446
-0.004586
-0.144583
-0.044637
0.020498
-0.047895
0.011098
-0.150215
-0.062184
0.019599
-0.001750
0.030193
0.086641
0.077065
-0.074784
0.044281
-0.030209
-0.049775
-0.006693
0.032393
-0.031782
0.084622
-0.064418
-0.001134
0.032221
-0.031392
0.001006
-0.014788
0.077914
0.092830
0.098810
0.040167
0.062859
0.116829
0.119545
0.136215
0.122855
0.122536
0.090265
0.184927
0.151396
0.123323
0.195084
0.249856
0.197799
0.156073
0.215051
0.201196
0.117139
0.162918
0.071463
0.073550
0.105663
0.062668
0.043023
0.077767
0.122167
0.043061
0.100801
0.046426
-0.045988
0.064351
0.034518
0.076898
0.038084
0.082591
-0.008811
-0.001993
0.029711
0.028530
0.007212
0.010856
0.077378
0.148685
0.111246
0.402261
0.659611
0.980028
1.338904
1.470911
1.259159
1.100797
0.712543
0.230289
0.074101
-0.120776
-0.115608
-0.150208
-0.081788
-0.004514
-0.008950
0.082926
0.080596
0.037367
0.077173
0.033186
0.096267
0.092955
0.148336
0.072279
0.069598
0.166203
0.201517
0.196710
0.205909
0.195092
0.158565
0.260352
0.342877
0.265311
0.320704
0.369102
0.417012
0.427377
0.371899
0.475120
0.410222
0.443854
0.523744
0.513687
0.494823
0.517233
0.495866
0.527280
0.506256
0.563014
0.581918
0.567384
0.430373
0.539692
0.520749
0.475133
0.541485
0.482514
0.505950
0.442523
0.458014
0.456654
0.436557
0.462867
0.357451
0.434759
0.384754
0.295908
0.290781
0.265415
0.318216
0.238952
0.172322
0.172216
0.198127
0.212596
0.202208
0.034724
0.075071
0.215387
0.155524
0.102605
0.044192
0.150552
0.104078
0.030064
0.035870
0.013528
0.120099
0.027800
0.020225
0.079018
0.025035
0.088665
0.042147
0.060352
0.111511
0.057001
0.114314
-0.044437
0.153586
0.106725
0.020085
0.083160
0.123166
0.066525
0.049109
0.052255
0.069399
0.084815
0.025187
0.061269
0.029995
0.084703
0.023681
0.028136
0.100646
0.064696
0.050933
0.008271
0.032906
0.058948
0.100236
0.075777
0.107992
0.026708
0.071784
0.107376
0.070707
0.071013
0.062427
0.113182
0.088183
0.076480
0.125524
0.080039
0.136340
0.134734
0.136788
0.142675
0.070474
0.146034
0.161196
0.156055
0.139789
0.215655
0.222214
0.254781
0.231635
0.223208
0.221752
0.272149
0.199425
0.266977
0.251630
0.290131
0.282874
0.172434
0.203129
0.209334
0.165338
0.133025
0.182365
0.189711
0.217721
0.161930
0.116862
0.143504
0.131670
0.080945
0.116022
0.064665
0.128436
0.127831
0.130865
0.085368
0.103892
0.118830
