0.015276
-0.037517
0.048941
0.048162
-0.032706
-0.018220
-0.020018
-0.011313
0.032339
-0.048406
-0.060133
0.000730
0.001288
-0.004926
0.000360
-0.008583
-0.025926
-0.002019
-0.030657
0.062323
0.024250
0.003612
0.002044
0.001321
0.044282
0.118557
0.035880
0.055024
0.030398
0.152868
0.091703
0.101445
0.077140
0.147522
0.144535
0.121454
0.146221
0.227896
0.225353
0.236706
0.176263
0.243676
0.271704
0.227532
0.198513
0.205139
0.165078
0.210789
0.194405
0.158497
0.085041
0.122535
0.122701
0.153946
0.081032
0.009294
0.134817
0.157059
0.113762
0.142543
0.063063
0.087139
0.068029
0.048332
0.043995
0.018522
0.130587
0.069452
0.163035
0.022101
0.006235
0.076607
0.066005
0.043762
0.063771
0.051864
0.071803
0.077485
0.016673
0.010664
0.067733
0.286468
0.562139
0.789142
1.213323
1.388929
1.431800
1.247781
1.050291
0.713421
0.358289
0.024156
-0.154642
-0.244048
-0.144037
0.011421
-0.052039
0.058468
-0.002404
0.088339
0.102560
0.086331
0.143716
-0.008162
0.079236
-0.034882
0.129240
0.113271
0.052708
0.101697
0.180942
0.046366
0.132895
0.220322
0.152878
0.213011
0.238645
0.283353
0.232291
0.343108
0.261609
0.317969
0.368218
0.310582
0.286227
0.348610
0.497280
0.464970
0.463196
0.479596
0.416661
0.420704
0.565797
0.552335
0.539059
0.529126
0.586018
0.524181
0.590208
0.642804
0.611699
0.566460
0.674359
0.551286
0.625780
0.620753
0.588107
0.531425
0.469965
0.489007
0.475728
0.454429
0.487198
0.456614
0.401306
0.389297
0.386346
0.337103
0.216277
0.260238
0.241696
0.277638
0.238756
0.217862
0.188153
0.177818
0.195279
0.170281
0.174931
0.199359
0.111763
0.173261
0.144175
0.138959
0.098666
0.051043
0.108888
0.116778
0.103840
0.066800
0.032259
0.138668
0.058428
0.091556
0.112190
0.091160
0.055750
-0.008864
0.010382
0.017395
0.079612
0.049546
0.029700
0.106989
0.137959
0.030340
0.050678
0.117614
0.032123
0.122235
0.106616
0.068713
0.050895
0.143382
0.127614
0.058560
0.079340
0.086914
0.112518
0.111645
0.197651
0.086803
0.116332
0.135704
0.123684
0.057037
0.087559
0.149592
0.106912
0.130395
0.080592
0.053692
0.128540
0.050099
0.160087
0.108386
0.102627
0.059443
0.036192
0.115394
0.080253
0.115560
0.077647
0.095440
0.047614
0.166929
0.115600
0.002101
0.105010
0.031203
0.160505
0.052747
0.167505
0.206271
0.125532
0.176238
0.147895
0.188156
0.285094
0.152268
0.300275
0.219454
0.207791
0.231953
0.326942
0.255474
0.150117
0.210645
0.285059
0.283113
0.300114
0.194074
0.222643
0.245836
0.267647
0.257712
0.179195
0.229566
0.188557
0.077551
0.184142
0.184546
0.107741
0.161344
0.175827
0.107774
0.128211
0.150744
0.079398
0.136409
0.185941
0.101688
0.086167
0.065743
0.062358
0.058618
0.134090
0.019447
-0.057794
0.081134
0.023900
0.024219
-0.006133
-0.015985
0.111917
0.187838
0.429801
0.781015
1.086765
1.385764
1.436392
1.395716
1.138112
0.785417
0.464770
0.111171
-0.097798
-0.074768
-0.218166
-0.125796
-0.071351
-0.009158
-0.027113
0.102666
0.075854
0.002810
0.069827
0.104743
0.124467
0.105231
0.089447
0.129973
0.074700
0.116911
0.163092
0.091692
0.170682
0.166055
0.269448
0.233466
0.257207
0.227812
0.270588
0.234626
0.256574
0.315597
0.324351
0.372395
0.369557
0.398091
0.315653
0.373650
0.430315
0.396714
0.520442
0.511062
0.454844
0.565137
0.545811
0.550355
0.494939
0.525275
0.578796
0.555068
0.520289
0.543335
0.605814
0.520245
0.563716
0.542537
0.440539
0.602300
0.453555
0.476926
0.386931
0.396264
0.453578
0.346903
0.336122
0.417770
0.293533
0.237727
0.252300
0.214832
0.230155
0.210013
0.162197
0.175016
0.179159
0.180312
0.224169
0.108621
0.169970
0.106227
0.146399
0.086345
0.104816
-0.018888
0.107403
0.051079
0.038515
0.090109
0.031227
0.001377
-0.027693
-0.014118
0.028374
0.084716
-0.008109
0.034674
-0.094107
-0.011847
-0.027175
0.023565
-0.030620
0.052904
0.068952
-0.038430
-0.073432
0.002971
0.003067
-0.009447
0.018874
-0.041714
0.044150
-0.018303
0.029681
-0.015250
0.098105
-0.005121
-0.074427
0.034662
0.065913
-0.019905
0.015742
0.036109
-0.011164
0.063185
-0.055755
0.036820
-0.011110
-0.047441
0.067522
-0.018095
-0.002582
-0.020140
0.055240
-0.020000
-0.019823
-0.026861
0.006338
0.017385
-0.023483
-0.037861
-0.033516
-0.035374
-0.002978
-0.011804
0.062580
0.005597
0.053333
-0.008099
0.059761
-0.025639
-0.014410
0.009998
0.070770
0.024031
0.060940
-0.001422
0.156397
0.019943
0.174420
0.026923
0.080632
0.044357
0.168503
0.163537
0.199554
0.098029
0.176144
0.146825
0.099850
0.149136
0.143110
0.096434
0.077959
0.119803
0.048800
0.111428
0.094766
0.055165
0.052767
0.069424
0.036553
0.008267
0.040107
0.079488
-0.049211
-0.028461
-0.067971
-0.019948
-0.025555
0.034851
-0.001967
-0.096451
-0.026477
0.016429
-0.114108
-0.062734
-0.007866
-0.036987
-0.010663
-0.094831
-0.023179
0.017084
0.028362
-0.054525
-0.003300
0.170455
0.305369
0.618428
0.900123
1.256706
1.386609
1.262002
1.113170
0.755219
0.428740
0.071354
-0.234797
-0.330892
-0.358640
-0.267417
-0.253643
-0.116902
-0.073042
-0.069924
-0.060568
-0.046032
-0.047313
-0.014842
-0.019619
0.012997
-0.003690
0.017769
0.032749
0.022752
-0.062651
0.013642
0.060014
0.033413
0.158743
0.020090
0.105678
0.081816
0.219231
0.142995
0.160962
0.192587
0.141475
0.330046
0.295607
0.265148
0.368709
0.308164
0.363261
0.349653
0.335454
0.378989
0.342039
0.380577
0.462512
0.475376
0.507464
0.481015
0.424957
0.567139
0.413304
0.541427
0.510639
0.405321
0.429102
0.441275
0.520709
0.376366
0.425861
0.328262
0.316335
0.441974
0.255711
0.334847
0.242973
0.218933
0.212352
0.307942
0.208792
0.220564
0.144716
0.134881
0.180406
0.113198
0.124221
0.053231
0.037873
0.139801
0.045571
0.023065
0.074526
0.087551
-0.014153
-0.027225
-0.024346
-0.028480
0.028789
0.008909
0.008393
-0.101628
0.027809
0.041643
-0.005598
0.032361
0.007523
-0.069144
-0.016370
0.021559
-0.075788
-0.005673
-0.008026
-0.025975
-0.010564
-0.082317
-0.053721
-0.022535
-0.079676
0.029604
0.029075
-0.053319
-0.135938
-0.005889
-0.099665
-0.040182
-0.010101
-0.044394
-0.038066
-0.101486
0.077203
-0.039688
-0.125366
0.001525
-0.022696
-0.053774
0.001507
0.034571
-0.074978
-0.039096
-0.040548
-0.017286
-0.032053
-0.035584
-0.093749
-0.137730
0.068209
0.010554
-0.009971
-0.007329
-0.075863
-0.043585
0.012039
-0.050789
-0.042862
0.007942
-0.007785
0.010722
0.003938
-0.031394
-0.027560
-0.000920
-0.060084
-0.015930
0.003148
0.046254
0.064900
0.058028
0.106588
0.078189
0.131837
0.177566
0.176677
0.049779
0.183345
0.201161
0.189131
0.138103
0.209767
0.130304
0.244065
0.112388
0.188370
0.151995
0.151925
0.232129
0.114956
0.146814
0.048294
0.128928
0.175004
0.176994
0.095387
0.075848
0.034458
0.156288
0.042063
0.012756
-0.004390
-0.000377
0.023739
-0.069992
0.030615
-0.006690
0.022654
0.062037
0.015056
0.026180
-0.048445
0.025297
-0.002873
-0.031975
0.016915
0.031724
0.055700
0.027086
0.113094
0.065962
0.223192
0.604131
0.783554
1.189338
1.302787
1.456986
1.368502
0.959072
0.650162
0.162476
-0.011948
-0.235352
-0.262938
-0.272185
-0.150929
-0.081503
-0.037935
-0.010892
0.032689
0.095285
0.058393
0.033556
-0.079599
0.023416
0.049765
0.027321
0.113693
0.124215
0.121862
0.056178
0.130462
0.134533
0.032571
0.207331
0.122086
0.151148
0.219710
0.268124
0.145475
0.270166
0.276497
0.292913
0.241253
0.315151
0.387803
0.390786
0.463986
0.404032
0.504599
0.564179
0.424676
0.449039
0.471749
0.507526
0.588240
0.519702
0.672975
0.568442
0.507821
0.446744
0.571946
0.513211
0.593349
0.488503
0.558003
0.451807
0.526444
0.456190
0.340886
0.530877
0.424287
0.384226
0.413295
0.378696
0.391514
0.317092
0.281061
0.367103
0.301117
0.197582
0.235761
0.146155
0.222869
0.266739
0.195117
0.200396
0.170973
0.137126
0.153262
0.109351
0.152341
0.075234
0.072774
0.007216
0.010432
0.132716
0.063564
0.166583
0.096701
0.091971
0.040456
0.054117
0.057001
0.028417
0.086266
-0.002268
0.054325
0.067894
0.088568
0.063754
0.050415
0.095460
0.125462
0.083053
0.019877
0.031954
0.046803
0.077904
0.074072
0.118718
0.080743
0.128389
0.047142
0.088765
0.038683
0.082531
0.027818
0.098163
0.035720
0.090614
0.080882
0.118656
0.150697
0.033760
0.064533
0.061388
0.107868
0.101648
0.051694
-0.001609
0.130424
0.118630
0.100002
0.000057
0.136668
0.155596
0.060485
0.147726
0.111411
0.170095
0.047074
0.060335
0.134018
0.142739
0.083841
0.031282
0.049368
0.120247
0.124098
0.102408
0.113821
0.097939
0.092066
0.200181
0.223221
0.199966
0.163096
0.210550
0.206876
0.245465
0.200408
0.207353
0.302188
0.256739
0.267011
0.316349
0.203921
0.265741
0.216332
0.263928
0.235582
0.191943
0.264817
0.170165
0.127298
0.208110
0.220872
0.257678
0.031115
0.207622
0.174909
0.117701
0.089620
0.208909
0.081398
0.104131
0.194795
0.097097
0.107539
0.104801
0.077464
0.065212
0.198892
0.112247
0.089823
0.080123
0.123865
0.058182
0.079875
0.109893
0.132071
-0.052386
0.114445
0.076675
0.304915
0.531790
0.772207
1.143046
1.334723
1.479826
1.383551
1.204292
0.770337
0.443765
0.091563
-0.046234
-0.189050
-0.100782
-0.026887
0.037547
0.043089
0.016345
0.044094
0.089245
0.105710
0.142040
0.107146
0.104138
0.133626
0.068790
0.138498
0.132928
0.095893
0.274034
0.146735
0.192537
0.178667
0.237953
0.183546
0.172294
0.317089
0.326317
0.282902
0.255697
0.312647
0.312022
0.353777
0.357406
0.393761
0.487726
0.451701
0.460790
0.610729
0.465549
0.496296
0.532662
0.528589
0.490843
0.549102
0.632784
0.562100
0.506795
0.673910
0.623682
0.606386
0.560239
0.594639
0.600296
0.518618
0.519621
0.543125
0.571621
0.537952
0.373309
0.505891
0.491569
0.391652
0.420619
0.459372
0.415239
0.300970
0.305291
0.304401
0.222855
0.269294
0.276406
0.263752
0.287446
0.137438
0.217995
0.170287
0.104790
0.083578
0.193960
0.147003
0.071073
0.198346
0.099396
0.164900
0.022282
0.143755
0.081914
0.104079
0.135428
0.048786
0.021828
0.162739
0.094358
0.039228
0.079148
0.032248
0.043343
-0.006415
0.052363
0.015217
0.052311
0.052223
0.100300
0.034821
0.011269
0.104580
0.046292
0.086012
0.050306
0.078144
0.144183
-0.009122
0.056906
0.054111
0.070392
0.031770
0.032714
0.035770
0.096136
0.055720
0.038380
0.051557
0.137501
0.098747
0.023099
0.061451
-0.019765
0.035708
0.021539
0.050154
0.168591
0.064112
0.005079
0.110481
0.001551
0.024386
0.077377
0.076608
0.044815
0.051209
0.139417
-0.001888
-0.007021
0.029954
0.013151
0.087685
-0.016379
0.053670
0.088308
0.076528
0.120530
0.080378
0.106497
0.121345
0.098057
0.188085
0.117080
0.126507
0.227435
0.167970
0.215098
0.285333
0.245265
0.209881
0.116776
0.152074
0.187436
0.233181
0.201254
0.193587
0.186656
0.157187
0.107328
0.115336
0.139062
0.187639
0.086581
0.089040
0.165124
0.020275
0.060109
-0.007301
0.022865
0.119966
0.036255
0.084529
0.056743
-0.053120
0.013589
0.065255
-0.044326
-0.116339
0.010280
-0.048171
0.038632
-0.038405
-0.076266
-0.065563
0.032768
-0.095823
-0.040529
-0.012195
0.001259
0.114137
0.258527
0.632366
1.015239
1.269023
1.482951
1.436034
1.142297
0.755789
0.405817
0.051179
-0.138848
-0.258945
-0.168581
-0.199825
-0.133446
-0.151457
-0.059805
-0.012665
0.005986
-0.022940
-0.043957
-0.078899
0.123629
0.064217
0.030375
0.025341
-0.014882
0.060171
0.032572
0.057729
0.136651
0.067722
0.081393
0.086591
0.161740
0.164851
0.172356
0.151561
0.247839
0.151927
0.278984
0.256855
0.302600
0.268990
0.284828
0.258930
0.366330
0.443714
0.400077
0.308550
0.430589
0.429976
0.476972
0.418681
0.543193
0.447906
0.517315
0.490699
0.523835
0.517999
0.393812
0.380558
0.416448
0.402163
0.463813
0.486686
0.385941
0.229579
0.381945
0.283111
0.265066
0.341083
0.292551
0.265853
0.147199
0.292517
0.135880
0.155281
0.200328
0.112412
0.085068
0.042547
0.086803
0.112706
0.090328
0.062909
-0.018070
0.028401
0.001163
-0.049531
-0.014362
-0.060280
-0.090927
0.007074
-0.012942
-0.075992
-0.044607
0.005308
-0.195162
-0.071682
-0.064089
-0.063168
-0.128641
-0.088240
-0.078676
-0.030706
-0.060113
-0.069530
-0.069613
-0.089413
-0.010732
-0.079498
-0.036385
-0.010195
-0.056326
-0.059559
-0.014272
-0.096139
0.005170
-0.045244
-0.090386
-0.097715
-0.159747
-0.073105
-0.123912
-0.096066
-0.175790
-0.117113
-0.029147
-0.081095
-0.053992
0.021069
0.032986
-0.126377
-0.105491
-0.003809
0.017935
-0.028796
-0.064275
-0.062513
-0.090245
-0.067005
-0.140301
-0.065492
-0.076066
-0.183002
-0.067304
-0.094680
-0.048008
-0.153546
-0.120241
-0.215617
-0.077585
-0.051351
0.017970
-0.086174
-0.082862
-0.008897
-0.019328
-0.007132
-0.050956
0.023546
-0.006325
-0.034319
0.067072
0.034795
-0.045630
0.077505
0.034871
0.073728
0.122341
0.005188
0.081561
0.047632
0.066969
0.109911
0.061862
0.026212
0.011043
0.102760
0.080454
0.075780
0.014085
-0.060996
0.039893
0.094440
0.063227
0.040898
-0.031489
0.016374
0.041964
-0.019359
-0.048566
0.006099
-0.116299
-0.016594
-0.077479
-0.114195
-0.023419
-0.089330
-0.089741
0.023605
-0.027566
-0.125245
-0.115136
-0.032361
-0.037932
-0.053600
-0.060567
-0.094300
-0.096225
-0.136873
-0.062733
-0.092893
0.254671
0.431798
0.751589
1.155101
1.275038
1.307612
1.129117
0.933112
0.489158
0.112181
-0.122854
-0.222520
-0.369819
-0.313830
-0.321399
-0.195907
-0.136136
-0.039233
-0.015741
-0.132343
-0.036314
-0.033131
-0.059541
-0.064518
0.007533
-0.061884
-0.028346
0.009236
0.030208
0.064173
0.016901
-0.029156
0.026565
0.035044
0.081025
0.174789
0.055604
0.121071
0.146998
0.122316
0.238869
0.273387
0.221205
0.282439
0.178521
0.227366
0.289700
0.405602
0.354347
0.412475
0.383495
0.340431
0.392629
0.480381
0.341974
0.417261
0.478498
0.494174
0.463100
0.420807
0.476080
0.459742
0.362562
0.429698
0.317229
0.400593
0.366031
0.339115
0.346551
0.352135
0.341079
0.207785
0.316172
0.228962
0.218782
0.173621
0.201033
0.237505
0.143205
0.134817
0.120103
0.134710
0.133802
0.193958
0.068229
0.115714
0.044262
-0.012168
0.041769
0.015419
0.025336
0.004121
0.016874
-0.041322
-0.021347
-0.036735
-0.007590
-0.085363
-0.025347
-0.014002
0.029674
-0.031802
-0.060315
-0.006442
0.009173
-0.072259
-0.010050
-0.078373
0.045002
-0.003424
-0.058255
-0.006979
-0.048224
-0.031979
0.002196
-0.044319
0.003886
0.033986
-0.041806
-0.034604
-0.062153
-0.021227
-0.004874
0.032407
-0.069723
-0.031701
-0.040785
-0.041285
0.033178
-0.096204
0.063997
-0.091798
-0.075444
-0.039592
-0.011008
-0.082416
-0.097535
0.015113
-0.039492
0.027879
0.027461
0.009412
-0.023051
-0.035721
0.012071
-0.016893
-0.009299
-0.007224
-0.011498
-0.020681
-0.028309
-0.052513
0.010769
-0.032222
0.060392
0.021806
-0.024278
0.007248
0.002433
-0.011169
-0.028406
0.031421
0.121805
0.058169
0.043021
0.064304
0.085750
0.179241
0.168074
0.138091
0.212727
0.020392
0.175860
0.190189
0.134041
0.210446
0.156031
0.120390
0.135913
0.116849
0.151911
0.165821
0.117125
0.063114
0.231651
0.098549
0.181225
0.067615
0.099705
0.102909
0.075737
0.092685
0.101688
0.095257
0.007407
0.086471
0.042442
0.064957
0.016783
0.034233
-0.021792
-0.037999
0.011372
-0.034381
-0.042768
0.081436
0.021079
0.090389
-0.065916
-0.008667
0.009327
-0.018269
-0.061527
0.012198
0.281500
0.455681
0.809655
1.075304
1.398628
1.457406
1.297555
0.990506
0.667030
0.345046
-0.003369
-0.252598
-0.218544
-0.160734
-0.163976
0.011624
0.035795
-0.030394
0.132383
0.059957
-0.014418
0.085743
0.027537
0.035399
0.109194
0.146948
0.072540
0.035898
0.037137
0.069150
0.122938
0.118126
0.111137
0.121192
0.160786
0.198800
0.188958
0.180444
0.276236
0.356218
0.334939
0.273881
0.343238
0.264480
0.363817
0.374913
0.339379
0.452346
0.443370
0.498949
0.535867
0.536681
0.495966
0.460699
0.624532
0.569526
0.546444
0.567998
0.485092
0.541780
0.453189
0.541770
0.514116
0.463273
0.420213
0.469756
0.418107
0.494494
0.422084
0.504444
0.490338
0.395058
0.413035
0.332723
0.271246
0.347902
0.385557
0.288960
0.168664
0.266978
0.223599
0.237735
0.217845
0.173408
0.100087
0.143287
0.143222
0.119762
0.006721
0.089881
0.152239
0.133991
0.150791
0.049015
0.111211
0.079658
0.125004
0.070639
0.096958
0.065150
0.084263
-0.052733
0.126946
-0.080242
0.076659
0.025228
0.051625
0.039368
0.014628
-0.019076
0.081398
0.038574
0.128082
0.092628
0.077178
0.051242
0.040006
0.055953
0.058123
-0.022086
-0.056025
0.040559
0.037835
0.055686
-0.050242
0.008912
-0.014056
0.071468
0.113548
-0.001612
0.067534
-0.015795
0.077086
0.119114
0.006978
0.087044
0.041139
-0.019965
0.011296
-0.032413
0.001258
0.065729
0.106417
0.055508
-0.042351
0.110380
0.141086
0.070113
0.049196
0.029746
0.062730
-0.011135
0.002736
0.012618
0.041435
0.081798
0.006875
0.050032
0.013005
0.018271
0.079126
0.108534
0.062223
0.141079
0.101548
0.134917
0.141236
0.123668
0.091569
0.184539
0.184010
0.287711
0.324912
0.266894
0.168790
0.236770
0.271656
0.226429
0.256634
0.156494
0.237443
0.229165
0.205436
0.215127
0.104542
0.165625
0.131981
0.090929
0.152347
0.139107
0.107691
0.083184
0.083682
0.148791
0.118386
0.051630
0.054887
0.057798
0.025314
0.035017
0.072258
0.012594
-0.054887
0.036507
0.006140
-0.009755
-0.004038
-0.023063
0.022366
0.056550
-0.011917
-0.043354
-0.059280
0.047356
0.201910
0.367353
0.716700
1.091972
1.310051
1.385048
1.356172
1.057635
0.796972
0.395333
0.079291
-0.135974
-0.254168
-0.203830
-0.162718
-0.092951
-0.063416
0.016068
0.058722
0.095794
-0.028462
0.007324
0.065877
0.048960
0.051664
-0.019852
0.018206
0.151741
0.126215
0.183402
0.127246
0.050113
0.086035
0.139547
0.181760
0.054078
0.252349
0.205589
0.198807
0.319396
0.297711
0.273400
0.310574
0.366866
0.367942
0.442882
0.450438
0.409479
0.407181
0.503248
0.478100
0.467331
0.511918
0.435367
0.531850
0.456619
0.578986
0.555459
0.547499
0.478043
0.542831
0.495349
0.557511
0.464180
0.517401
0.456311
0.377388
0.453025
0.384668
0.445751
0.291056
0.390725
0.302979
0.386666
0.242326
0.247155
0.314312
0.214215
0.225533
0.199311
0.155651
0.130736
0.169052
0.082564
0.122741
0.153847
0.094204
0.116633
-0.007110
0.075920
0.082488
0.047067
0.034831
0.023111
-0.068666
0.059488
-0.028022
-0.023988
0.019326
0.017630
-0.022824
-0.030473
-0.063981
-0.018771
0.036927
-0.001787
0.013866
-0.016351
-0.046793
0.011753
-0.037108
-0.018307
-0.108517
0.004748
-0.039376
0.061299
-0.060564
-0.002035
-0.017430
-0.064667
-0.078563
-0.007548
-0.023824
-0.103927
-0.026574
-0.047770
-0.014921
0.006402
-0.061828
-0.054284
-0.033170
-0.160125
-0.087310
-0.051422
-0.022251
-0.038656
-0.073622
-0.090331
-0.155764
-0.054822
-0.008785
-0.090035
-0.082746
0.046901
-0.009269
-0.026523
-0.036033
-0.111179
-0.003042
-0.102412
-0.125949
-0.046961
-0.053331
-0.052337
-0.045443
-0.026026
-0.028109
-0.058392
-0.032509
0.039728
-0.043489
-0.049436
-0.004892
0.064275
0.014164
0.027226
0.092982
-0.013864
0.050288
0.135092
0.091197
0.104639
0.092296
0.040754
0.036544
0.142570
0.041141
0.060967
0.167308
0.108319
0.061833
0.126747
0.094131
0.120191
0.084467
-0.060568
0.058726
0.001127
0.046336
-0.003931
-0.045949
-0.077379
-0.016785
-0.033433
-0.077525
0.007657
-0.160966
0.032063
-0.001415
-0.075563
-0.123041
-0.126446
-0.104326
-0.058740
-0.078893
-0.000244
-0.005128
-0.122307
-0.093636
-0.062336
-0.054352
-0.049314
-0.057011
-0.015748
0.028402
0.153475
0.487032
0.942263
1.147875
1.326319
1.216031
1.106776
0.796967
0.315193
0.067490
-0.182909
-0.332273
-0.359776
-0.364083
-0.182840
-0.205894
-0.139583
-0.087219
-0.028935
-0.041300
-0.080170
-0.099667
-0.126601
-0.051121
-0.045462
-0.009800
-0.062173
-0.100202
0.028450
-0.042358
-0.020007
-0.026489
0.017420
0.128040
0.014181
0.053299
0.109215
0.168187
0.114755
0.070384
0.177636
0.151931
0.270319
0.166093
0.271780
0.271306
0.287522
0.270823
0.252497
0.329117
0.312371
0.386907
0.337390
0.313002
0.444522
0.428762
0.406507
0.397000
0.407018
0.394067
0.482671
0.468325
0.414933
0.403695
0.428200
0.402917
0.305203
0.297972
0.317651
0.241852
0.230164
0.264938
0.242735
0.255682
0.205142
0.106337
0.192815
0.041970
0.130824
0.051158
0.130812
0.088395
0.034065
0.060595
-0.073583
-0.043020
-0.008210
-0.073867
-0.032410
-0.004120
-0.057478
0.002568
-0.098740
-0.050737
-0.075742
-0.166512
-0.054354
-0.117508
-0.069511
-0.095054
-0.050301
-0.072742
-0.007750
-0.141394
-0.066677
-0.089829
-0.136358
-0.075333
-0.107788
-0.080886
-0.186235
-0.026334
-0.052629
-0.153536
-0.012366
-0.111745
-0.099611
-0.117416
-0.162029
-0.115793
-0.010897
-0.089679
-0.071914
-0.065728
-0.149788
-0.031847
-0.125114
-0.153237
-0.098931
-0.101735
-0.080601
-0.052476
-0.077995
-0.143816
-0.008737
-0.093909
-0.104995
-0.060890
-0.065535
-0.056153
-0.130156
-0.121271
-0.060768
-0.100679
-0.090452
-0.126348
-0.101256
-0.106383
-0.045758
-0.062409
0.024326
-0.061541
-0.110440
-0.064090
-0.045219
-0.108877
-0.035753
-0.044950
-0.071091
0.024897
0.007934
-0.043992
-0.048743
0.041658
-0.006995
0.034936
-0.032200
0.026861
0.090531
0.104344
0.104452
0.052122
0.090565
0.069446
0.072481
0.116697
0.107422
0.138674
0.143325
0.058210
0.062135
0.134825
0.041808
0.056924
0.017876
-0.009497
-0.045251
0.099894
-0.032078
0.165049
-0.043094
-0.018240
-0.054986
-0.060359
0.064936
0.029518
-0.044059
-0.056374
-0.046312
-0.098265
-0.021594
-0.137363
-0.042549
-0.037842
-0.039521
-0.111507
0.001594
-0.128324
-0.061628
-0.063306
-0.118444
-0.099838
-0.082354
0.007272
0.099265
0.453626
0.793770
1.115180
1.257524
1.312240
1.201074
0.938614
0.577067
0.186576
-0.132573
-0.328542
-0.340736
-0.269954
-0.192193
-0.183368
-0.086794
-0.063372
0.002147
-0.081016
-0.040969
-0.087973
0.011519
0.044251
0.039837
0.029418
-0.089309
-0.013633
0.030966
0.006469
0.151550
0.095748
0.028785
0.112511
0.119806
0.123102
0.146756
0.222924
0.316249
0.196583
0.299443
0.255645
0.231305
0.245386
0.350139
0.293629
0.382106
0.339517
0.433623
0.366913
0.473114
0.488695
0.530189
0.458998
0.510994
0.489065
0.513448
0.549155
0.481076
0.489451
0.562423
0.547733
0.538130
0.469870
0.504256
0.498100
0.370281
0.431158
0.413034
0.313741
0.373435
0.345832
0.357304
0.269731
0.315349
0.246679
0.204942
0.164225
0.179228
0.274087
0.109124
0.236140
0.081820
0.114204
0.073926
0.149042
0.114661
0.091131
0.102465
0.110312
-0.038375
0.073667
0.054767
0.022943
0.129330
0.020293
0.033777
0.072737
0.078423
-0.031281
-0.003660
-0.016067
0.011991
0.029216
0.022871
0.044352
0.064231
-0.013035
0.005904
0.028391
0.055187
0.039451
-0.068504
-0.038005
0.000830
0.099352
0.060292
0.044163
0.102948
-0.093202
0.067555
0.028048
0.023555
0.021319
0.038175
0.080590
0.035331
0.028019
0.126986
0.002826
0.007529
-0.047232
0.012274
0.002821
0.040294
0.051102
0.090496
0.023574
0.102619
0.029694
0.026355
0.075960
0.054859
0.115219
0.073099
0.153430
0.140802
0.155261
0.013680
0.021598
0.095766
0.070565
0.109074
0.085411
0.013462
0.086978
0.118425
0.125920
0.062258
0.081411
0.115467
0.109224
0.134035
0.169477
0.162572
0.141165
0.142237
0.139603
0.096847
0.186067
0.185190
0.166039
0.164893
0.145574
0.234558
0.218699
0.207608
0.229310
0.177718
0.196583
0.187148
0.283444
0.256275
0.239170
0.228663
0.209749
0.144433
0.250224
0.155373
0.103813
0.138638
0.173327
0.149293
0.083014
0.178821
0.094091
0.069194
0.068039
0.108774
0.101764
0.060207
0.085465
0.100065
0.028749
0.093280
0.013013
0.064288
0.060108
0.102387
0.073869
0.070489
0.043614
0.133833
0.073514
0.168291
0.588973
0.905487
1.143581
1.471974
1.500000
1.352384
1.084079
0.743802
0.351532
0.079023
-0.128967
-0.207972
-0.154544
-0.128320
-0.068051
-0.012199
0.035133
0.072267
0.025725
0.141474
0.010590
0.127412
0.119356
0.076889
0.222529
0.169386
0.078457
0.163479
0.155605
0.252183
0.114246
0.095272
0.160159
0.169220
0.292020
0.292286
0.290553
0.244330
0.324630
0.287724
0.316915
0.382408
0.339640
0.440585
0.408140
0.394055
0.447031
0.594067
0.443700
0.499160
0.530592
0.591770
0.571896
0.544170
0.622081
0.554128
0.531533
0.605571
0.632820
0.506914
0.592384
