-0.057376
0.034032
0.046959
-0.073670
-0.029905
-0.059533
-0.029901
0.040088
-0.071104
0.025839
0.042823
0.046179
0.028752
0.039858
0.018046
-0.042042
0.078694
0.009313
-0.023981
0.019208
0.001296
0.051768
0.031698
0.043779
0.062069
0.026885
0.012529
0.046068
0.074070
0.016988
0.131314
0.134350
0.062291
0.158655
0.107925
0.210463
0.145851
0.229749
0.133613
0.197014
0.217538
0.191378
0.156617
0.190096
0.214476
0.193402
0.261348
0.173222
0.245317
0.312071
0.185665
0.189146
0.104964
0.184809
0.198299
0.244305
0.147047
0.109660
0.212280
0.081414
0.144085
0.067908
0.081365
0.088508
0.086682
0.116545
0.079626
0.007370
0.126597
0.074157
0.081659
0.077254
-0.010536
0.005647
-0.012560
-0.006501
0.032997
-0.044568
0.064954
0.119347
0.027907
0.018663
0.002123
-0.024713
-0.055517
0.009593
0.049357
0.210487
0.367729
0.661990
0.939404
1.211898
1.384792
1.438643
1.238375
0.890486
0.586500
0.221087
-0.062869
-0.212981
-0.168214
-0.161792
-0.108212
-0.025840
-0.046459
-0.020303
0.075902
0.027891
0.144927
0.121321
0.042631
0.008442
0.087018
0.096638
0.075560
0.164317
0.029606
0.020259
0.098411
0.165675
0.144911
0.075864
0.096889
0.133591
0.104040
0.088583
0.195170
0.254716
0.307808
0.241348
0.271008
0.362690
0.366057
0.304747
0.445263
0.305712
0.371788
0.350869
0.489296
0.450220
0.499895
0.551277
0.531520
0.565732
0.570364
0.614573
0.522285
0.599834
0.557085
0.580402
0.653702
0.586321
0.560574
0.552576
0.587262
0.549621
0.502860
0.470552
0.571460
0.500402
0.515323
0.575162
0.482846
0.440331
0.371552
0.407419
0.294091
0.326410
0.308803
0.284987
0.248763
0.335209
0.177854
0.232317
0.239726
0.215877
0.158006
0.211761
0.149397
0.065043
0.146945
0.222689
0.147958
0.106040
0.144339
0.077949
0.084372
0.115761
0.095130
0.061599
0.106277
0.008903
0.064396
0.065516
0.061633
0.132534
0.152665
0.108282
0.039154
0.057273
0.091959
0.103443
0.082504
0.095697
0.066629
0.031162
0.220675
0.017886
0.145937
0.087838
0.086956
0.126122
0.092857
0.142067
0.083333
0.054356
0.096171
0.060747
0.061796
0.105437
0.060606
0.069939
0.092790
0.049492
0.057255
0.109527
0.061026
0.110934
0.077216
0.106666
0.036356
0.051480
0.093468
0.093843
-0.041927
0.080103
0.090830
0.071044
0.110520
0.097482
0.068599
0.045774
0.095742
0.048793
0.045088
0.145481
0.153486
0.006404
0.029388
0.107035
0.112514
0.088187
0.034152
0.128837
0.029563
0.131171
0.150453
0.020176
0.154235
0.094780
0.069911
0.093867
0.198174
0.154894
0.181287
0.182050
0.200125
0.133464
0.206400
0.232138
0.260469
0.213789
0.224948
0.232681
0.246597
0.237800
0.298975
0.307538
0.179358
0.284329
0.178604
0.229834
0.259311
0.231136
0.211785
0.204106
0.163851
0.210074
0.145535
0.119067
0.207408
0.176164
0.130731
0.064623
0.127288
0.101238
0.059131
0.084392
0.141053
0.021770
0.111372
0.069898
0.049796
0.005222
0.044064
0.036973
0.105385
0.050606
0.087284
0.030052
0.055714
0.091369
0.040145
0.075920
0.032154
0.045811
-0.022483
0.049825
0.180370
0.345142
0.783244
1.060605
1.330500
1.432877
1.367713
1.149120
0.820240
0.476046
0.202356
-0.035431
-0.249558
-0.258177
-0.178431
-0.096281
0.006432
0.002750
0.048924
0.008709
-0.000523
0.132511
0.109502
0.013904
0.063117
0.027429
0.133075
0.049564
0.110984
0.031652
0.159688
0.081750
-0.020156
0.057022
0.092827
0.135885
0.133819
0.173310
0.146807
0.172898
0.194674
0.181964
0.298880
0.174222
0.226296
0.290772
0.317927
0.302950
0.336465
0.344564
0.409484
0.340729
0.417363
0.390600
0.411772
0.471181
0.496670
0.503039
0.496506
0.538304
0.559118
0.511299
0.575693
0.558085
0.505551
0.492258
0.521240
0.477575
0.494246
0.449326
0.450650
0.468887
0.440131
0.405414
0.344373
0.449480
0.327493
0.370200
0.391571
0.272989
0.222756
0.266114
0.178952
0.263590
0.218441
0.080464
0.137438
0.168580
0.140927
0.121332
0.117375
0.040815
0.132103
0.039124
0.023384
0.016139
-0.068945
0.066057
0.000292
0.037509
0.032552
0.092219
0.030810
0.067064
0.008583
0.004849
-0.022336
-0.057661
-0.029415
-0.021151
-0.028870
-0.039660
-0.010328
-0.002074
0.040821
-0.035973
0.030758
0.045125
0.004650
-0.025757
0.003889
-0.036947
-0.050617
0.008453
0.014414
-0.041377
-0.026977
0.102295
0.005607
0.013914
-0.026090
-0.002611
-0.000079
-0.016024
-0.046756
-0.043044
-0.033711
0.048654
-0.028172
-0.065220
-0.053849
-0.021473
-0.060463
0.019823
-0.012977
0.039070
-0.004406
-0.028439
-0.035523
-0.025825
-0.075010
-0.073015
-0.064327
-0.016632
-0.096006
-0.030064
0.007101
-0.065022
-0.079916
-0.001047
-0.060768
-0.012073
-0.076413
-0.033787
-0.041959
0.041317
-0.011707
-0.062010
0.023330
-0.023947
0.028603
0.041285
-0.035275
-0.049665
-0.037789
0.023825
-0.017930
0.042254
0.050759
0.058615
0.049227
0.073055
0.110045
0.077201
0.178306
0.190574
0.099978
0.104241
0.099498
0.231435
0.110160
0.147942
0.195003
0.184169
0.072462
0.156279
0.102511
0.028057
0.023535
0.084326
0.026323
0.087837
0.061907
0.036002
0.069694
-0.023001
0.032175
-0.038546
0.037239
-0.054156
0.015494
-0.057010
-0.031544
0.007431
-0.002984
-0.022811
-0.022247
-0.053965
-0.112706
0.032535
0.085776
0.051789
0.008280
-0.016968
0.029469
-0.055687
-0.087934
0.014698
-0.112703
-0.033967
-0.032387
0.136711
0.408465
0.614412
1.117531
1.228199
1.371267
1.253304
0.984794
0.638540
0.271889
-0.118649
-0.212553
-0.371521
-0.266756
-0.272337
-0.095555
-0.086610
-0.067642
-0.073281
0.011541
-0.069962
-0.090391
-0.029375
-0.073897
-0.018761
-0.018785
-0.017066
-0.017583
0.044646
0.077126
0.030000
-0.039967
-0.010472
-0.009573
0.085675
0.051178
0.063639
0.002519
0.107499
0.072822
0.072486
0.141265
0.173873
0.128151
0.234683
0.217548
0.221740
0.234351
0.326402
0.355650
0.292104
0.358615
0.433703
0.339335
0.394847
0.429331
0.473582
0.402453
0.501589
0.480210
0.438946
0.405720
0.463996
0.431969
0.513878
0.512487
0.423915
0.477936
0.412121
0.408463
0.481431
0.371173
0.293506
0.347343
0.312352
0.300827
0.286773
0.260090
0.257889
0.223443
0.181755
0.171255
0.201022
0.207276
0.195325
0.118713
0.146855
0.080759
0.048437
0.093514
0.059134
0.066449
0.000383
-0.048190
0.057408
0.045924
-0.038132
-0.027064
0.082280
0.064522
-0.022965
0.004424
-0.014940
-0.024905
-0.068090
0.035561
0.073924
0.016309
0.012008
0.008191
-0.015885
0.005810
0.052857
0.003488
-0.029869
-0.097568
-0.015982
-0.010707
-0.025312
-0.088400
-0.028131
-0.019059
-0.003749
-0.049157
-0.083319
-0.048017
-0.010996
-0.036836
-0.038280
-0.029954
0.008342
0.043150
-0.041061
-0.067732
-0.000408
-0.126984
0.062361
-0.007322
-0.043836
-0.042964
-0.000026
0.057711
-0.050158
-0.071567
-0.091942
-0.095011
0.019375
-0.094029
-0.087062
-0.019356
-0.049245
0.016653
-0.046898
0.013680
-0.060891
0.023527
0.038117
0.034225
-0.051308
0.037617
0.053808
0.040895
-0.034548
0.104059
-0.072149
0.051983
-0.049186
0.062672
0.028901
0.024340
0.113145
0.035423
0.113787
0.084030
0.049932
0.033967
0.062704
0.155867
0.094489
0.130892
0.135848
0.092923
0.114378
0.192421
0.082792
0.162116
0.107421
0.184090
0.149496
0.226232
0.142515
0.113636
0.120080
0.146007
0.148577
0.196864
0.184405
0.123599
0.192690
0.174318
0.087998
0.081021
0.065246
0.139479
0.009164
0.123436
0.088939
0.057167
0.088157
0.083543
0.040953
0.032402
0.013985
-0.000315
0.046790
0.001388
-0.008411
0.004523
0.000771
0.100361
0.073863
-0.015805
0.104675
0.063011
0.079014
0.130858
-0.042814
0.016255
-0.049404
0.036624
0.102898
0.286862
0.532213
0.850886
1.175282
1.337443
1.425457
1.281496
1.051868
0.596371
0.304040
-0.013986
-0.093023
-0.244809
-0.223227
-0.116326
-0.035639
-0.012323
0.044773
0.057435
0.093788
0.003211
0.014274
0.026586
0.082846
0.074771
0.070811
0.043708
0.105502
0.066954
0.072237
0.027416
0.159596
0.189387
0.132774
0.174358
0.158582
0.220334
0.150100
0.168884
0.165132
0.265909
0.297712
0.239302
0.321886
0.316791
0.394609
0.352964
0.419476
0.364882
0.407410
0.451998
0.536065
0.443406
0.542167
0.451521
0.521421
0.477033
0.582770
0.483080
0.556511
0.528663
0.572097
0.623377
0.517593
0.512069
0.535019
0.568792
0.531694
0.416352
0.502523
0.575893
0.471613
0.519631
0.466211
0.437671
0.437952
0.492031
0.387214
0.308976
0.238315
0.332817
0.241459
0.242502
0.214256
0.217375
0.211882
0.150458
0.202632
0.187831
0.241203
0.120073
0.206231
0.183816
0.038339
0.103378
0.207117
0.106364
0.134527
0.091860
0.224423
0.078125
0.159721
0.135577
0.072993
0.111260
0.150881
0.071475
0.058356
0.103567
0.100414
0.055620
0.104441
0.111453
0.102838
0.112972
0.116482
0.135499
0.117138
0.038369
0.094344
0.096215
0.142373
0.038452
0.080315
0.202505
0.068364
0.044866
0.068145
0.014290
0.120557
0.091374
0.086543
0.050057
0.164720
0.073637
0.059829
0.059242
0.064262
0.139726
0.060897
0.046518
0.112454
0.095710
0.062653
0.066076
0.084113
0.091408
0.086781
0.109428
0.099235
0.148190
0.115899
0.015196
0.164603
0.109399
0.037638
0.105131
0.062650
0.083004
0.133585
0.106207
0.080435
0.127295
0.126435
0.135869
0.067649
0.066917
0.108915
0.136145
0.112360
0.161029
0.057984
0.066910
0.088272
0.074948
0.121261
0.148051
0.111048
0.189219
0.170163
0.179619
0.226628
0.183134
0.248417
0.252145
0.304593
0.287010
0.234450
0.343570
0.304812
0.287053
0.212524
0.195089
0.275117
0.207009
0.208708
0.249703
0.194909
0.185602
0.193671
0.191368
0.188443
0.106771
0.192614
0.139312
0.030594
0.124971
0.127075
0.119127
0.157191
0.198495
0.184755
0.109563
0.094399
0.015055
0.096856
0.060624
0.156306
0.073290
0.078423
0.081360
0.101199
0.134531
0.111365
0.052567
0.058116
0.025510
-0.063085
0.026818
0.011735
0.105229
0.367497
0.648984
0.999384
1.332780
1.413641
1.472683
1.222149
1.016495
0.618190
0.229269
0.065702
-0.157881
-0.228541
-0.114983
-0.171411
-0.031080
0.002225
0.028793
0.069263
0.127562
-0.003987
0.094735
0.021167
0.095278
0.070817
0.088160
0.048751
0.094944
0.050960
0.020831
0.080024
0.177109
0.140686
0.214113
0.147423
0.195394
0.235461
0.142284
0.197312
0.319841
0.200938
0.242848
0.337528
0.313084
0.252154
0.390198
0.373130
0.425874
0.307030
0.452058
0.467670
0.455730
0.465572
0.550249
0.507786
0.517714
0.505607
0.471080
0.546747
0.511604
0.592138
0.605549
0.585727
0.608230
0.473569
0.455588
0.571271
0.569878
0.521237
0.497558
0.457763
0.576551
0.405669
0.381448
0.419359
0.419837
0.430462
0.316147
0.339099
0.255499
0.328004
0.249890
0.274523
0.234827
0.251822
0.252304
0.194843
0.088278
0.231702
0.070478
0.108298
0.108731
0.035967
0.027418
0.036820
0.094479
0.134043
0.023219
0.049650
0.053741
-0.029161
0.047527
0.002936
0.030960
0.092196
-0.020396
0.086525
0.116898
0.078476
-0.043484
0.015722
0.021665
0.043855
0.117574
0.033016
-0.033342
0.000931
-0.061893
0.095128
0.003753
-0.016522
0.019553
0.032375
0.090105
-0.003504
0.054654
-0.069514
0.012822
0.041020
0.032568
-0.088171
-0.013314
0.034627
-0.060439
0.035763
0.035878
0.084422
-0.012456
0.007866
0.021773
0.031061
-0.048589
0.043708
-0.023825
-0.029335
-0.017820
0.001949
-0.007809
-0.046546
-0.024667
-0.015254
-0.069806
0.074426
-0.110904
-0.024766
0.019377
0.009602
-0.023720
0.037758
-0.010609
-0.051208
0.039341
-0.046053
0.013643
0.036733
0.017034
0.125604
-0.027330
-0.018668
0.025078
0.030767
-0.014194
0.068195
0.049673
0.001499
0.104371
-0.007826
0.021077
0.078930
0.084610
0.112328
0.085601
0.079113
0.142934
0.085283
0.027727
0.118516
0.126147
0.191528
0.180187
0.161406
0.129882
0.057814
0.200026
0.094298
0.141808
0.072697
0.117658
-0.003103
0.032752
0.024797
0.042891
0.013320
0.000998
0.051789
-0.020456
0.027652
-0.098328
-0.084956
-0.116781
0.017211
-0.047809
-0.018893
-0.039978
-0.061536
-0.079756
-0.002505
0.008930
-0.061121
-0.065590
-0.068735
-0.040427
0.007611
-0.067063
-0.067864
-0.091993
-0.011209
-0.085369
-0.072513
-0.063394
0.105529
0.300730
0.624809
0.901930
1.152695
1.310287
1.265200
1.113713
0.830942
0.405740
0.105735
-0.162175
-0.391225
-0.289710
-0.313737
-0.205492
-0.137254
-0.088155
-0.075105
-0.011602
-0.099180
-0.051647
-0.001297
-0.061138
-0.021380
-0.121949
-0.022861
-0.074095
-0.019772
-0.030021
-0.005352
-0.016198
0.030377
-0.065762
-0.002340
-0.000934
0.019977
-0.044913
0.086914
-0.018717
0.055832
0.131891
0.086982
0.060068
0.097051
0.189834
0.208777
0.223344
0.350013
0.294243
0.236903
0.217098
0.350335
0.281416
0.366080
0.337547
0.329996
0.355783
0.405755
0.479531
0.425399
0.465856
0.403622
0.443977
0.458233
0.393170
0.346115
0.388650
0.397567
0.367037
0.415231
0.376016
0.304120
0.352882
0.267352
0.306858
0.269303
0.314432
0.162307
0.283624
0.223205
0.218878
0.132244
0.124559
0.101616
0.069115
0.003557
0.074095
0.022841
-0.015237
0.036774
0.003454
-0.038421
0.068831
-0.056906
-0.067098
-0.047801
-0.004209
-0.067806
-0.037525
-0.016413
-0.072781
-0.073932
-0.022964
0.001536
0.008422
-0.062146
-0.127736
-0.123451
-0.078606
-0.104760
-0.045926
-0.074467
-0.031004
-0.111023
-0.127563
-0.048510
-0.045775
-0.046601
-0.040552
-0.032720
-0.072101
-0.111023
-0.066922
-0.027224
-0.046062
-0.115688
-0.052850
-0.090996
-0.118033
-0.117995
-0.112528
-0.079056
-0.085078
-0.030911
-0.072134
-0.074066
-0.121960
-0.029166
-0.106648
-0.059544
-0.118186
-0.103298
-0.098138
-0.115812
-0.056866
-0.037905
-0.037624
-0.064791
-0.058520
-0.118949
-0.064021
-0.067587
-0.056485
-0.085718
-0.102046
-0.064456
-0.081050
-0.100927
-0.107983
-0.128331
-0.047838
-0.169725
-0.036252
-0.017523
-0.074681
-0.076032
-0.120518
-0.068688
-0.010042
-0.053777
-0.075549
0.019030
-0.108039
0.020275
0.042219
0.081783
-0.072525
0.076427
0.156876
0.058886
0.016972
0.019014
0.112848
0.134947
0.115982
0.085428
0.071939
0.068721
0.137923
0.178819
0.103611
0.093795
0.090385
0.150409
0.094506
0.019679
0.090105
0.118552
0.057092
0.043925
0.051663
-0.018292
-0.059499
0.035475
0.059811
0.007026
0.036117
-0.046041
-0.036384
0.008308
-0.039374
-0.076792
-0.017184
-0.042586
-0.032897
-0.013700
0.038962
-0.086369
0.023013
-0.027042
-0.014380
-0.083117
-0.007823
0.013128
-0.044091
0.006262
-0.114514
-0.091407
-0.069322
-0.073588
0.145418
0.343614
0.679270
0.945577
1.268566
1.410141
1.221148
0.974324
0.660948
0.348025
0.055427
-0.219720
-0.301416
-0.347992
-0.276362
-0.156243
-0.131281
-0.119032
0.004268
-0.067226
-0.055691
0.037514
-0.073291
-0.036947
0.029339
0.059420
0.002831
-0.019485
-0.007277
0.022499
-0.034694
0.039659
0.091419
0.049903
0.012735
-0.018993
0.089193
0.094992
0.050564
0.153994
0.124116
0.164020
0.184477
0.168669
0.243243
0.211115
0.267937
0.315058
0.312924
0.317257
0.362313
0.410438
0.456652
0.418774
0.400324
0.438453
0.463352
0.474233
0.430709
0.469661
0.633819
0.489967
0.471990
0.507653
0.476470
0.514173
0.459503
0.496676
0.519704
0.436209
0.480030
0.477449
0.416050
0.491939
0.272126
0.394083
0.273940
0.302855
0.250200
0.224998
0.270070
0.278056
0.266012
0.162622
0.161605
0.182394
0.160110
0.102646
0.109034
0.060732
0.050890
0.112223
0.089340
0.060265
0.102059
0.039849
0.075808
0.092361
0.059201
0.064675
-0.011495
0.026942
0.115510
0.032787
0.056679
-0.050076
0.060011
0.060690
0.043640
0.001403
0.017327
0.046092
0.041791
0.028002
-0.000048
0.009793
-0.007195
0.021155
-0.048431
-0.006164
0.032133
-0.106381
0.099514
0.010449
0.028769
0.032741
0.010777
-0.033426
0.039723
-0.002754
0.002409
0.075950
0.012984
0.064441
0.001293
0.134810
0.012384
0.034979
0.052903
0.062847
0.032972
0.072371
-0.025744
-0.022493
0.033378
0.056860
0.031015
0.042811
0.006539
-0.033826
0.060911
0.097556
0.061587
0.012005
0.048404
0.064502
-0.042689
0.026637
0.135659
0.033356
0.029285
-0.017927
-0.005598
0.027101
0.005129
0.040766
0.071926
0.037228
0.070587
0.061477
0.093994
0.084880
0.083526
0.126222
0.095485
0.142381
0.140158
0.176403
0.160222
0.180103
0.187710
0.136839
0.195922
0.175025
0.146898
0.183729
0.284580
0.143358
0.155180
0.142896
0.165048
0.248933
0.210371
0.263378
0.216736
0.230113
0.212912
0.180946
0.181294
0.180448
0.105799
0.104432
0.074463
0.106607
0.059327
0.137199
0.026245
-0.004419
0.052283
0.033281
0.065275
0.048540
0.114517
0.005071
0.047208
0.051047
0.107334
0.177141
0.028635
0.103963
0.013306
0.048830
0.007248
-0.015725
0.026707
0.008275
-0.030823
0.064924
0.020278
-0.036238
0.085875
0.180758
0.481692
0.842559
1.118270
1.417600
1.403427
1.285425
1.079808
0.732164
0.359958
-0.022940
-0.157089
-0.216720
-0.227779
-0.108345
-0.115273
-0.011035
-0.022841
0.059063
0.090239
0.064262
0.045255
0.024775
0.094425
0.097133
0.036391
0.050550
0.160264
0.101274
-0.021737
0.092834
0.094025
0.152429
0.104351
0.107292
0.176803
0.061542
0.207404
0.194919
0.213861
0.157906
0.189738
0.213462
0.248374
0.240776
0.281838
0.292336
0.355498
0.329065
0.410586
0.356408
0.368015
0.430413
0.475544
0.474709
0.483797
0.474797
0.546926
0.513168
0.428508
0.532873
0.558904
0.554271
0.607899
0.513735
0.491834
0.459228
0.558711
0.478236
0.514504
0.495990
0.525164
0.498174
0.416422
0.354602
0.307215
0.420712
0.272381
0.269651
0.337207
0.255793
0.325557
0.166289
0.173873
0.309406
0.184351
0.148770
0.202498
0.181734
0.121263
0.085521
0.102383
0.093029
0.035362
0.110500
0.169113
0.136646
0.087361
0.063647
0.121665
0.033904
-0.015840
0.080606
0.017555
-0.018240
0.041941
-0.106884
0.048103
0.008844
0.059399
0.011381
-0.011203
0.015960
0.053983
-0.072510
-0.001087
0.001898
-0.013898
-0.016535
-0.015688
-0.008041
0.046781
-0.018541
-0.043593
-0.067987
-0.025403
-0.021116
0.005543
-0.030478
-0.013141
0.094268
0.071948
-0.091555
0.068206
0.025404
0.057751
0.017124
0.025587
-0.037533
-0.021097
-0.009970
0.043684
-0.034659
-0.006884
-0.069785
0.009298
0.037224
0.071334
0.018996
-0.008603
-0.006923
0.040945
-0.044049
-0.040831
0.010445
0.035119
0.006577
0.011300
0.004962
-0.088378
-0.063005
-0.028200
0.074188
-0.035540
-0.048154
-0.065354
-0.042280
-0.033246
0.052729
0.048354
0.023775
0.082873
0.018691
0.047432
-0.038826
0.037110
0.018083
0.066186
0.021784
0.098783
0.134742
0.129262
0.084035
0.109246
0.099390
0.166396
0.113989
0.109041
0.093913
0.222165
0.162845
0.214633
0.060332
0.110417
0.193180
0.175289
0.067335
0.123183
0.090496
0.020835
0.105481
-0.006207
0.044783
0.022604
0.073824
0.034705
0.049665
0.060880
0.050463
-0.032686
0.010382
0.002363
0.045437
-0.048948
-0.085262
-0.040914
-0.039795
-0.096915
-0.037419
-0.054704
-0.054233
-0.044097
-0.111431
-0.039893
-0.014053
-0.049257
-0.070094
-0.081070
-0.111626
-0.057340
0.039069
0.310316
0.452139
0.831852
1.126202
1.311122
1.219060
1.164175
0.863936
0.574277
0.194403
-0.118165
-0.335891
-0.310024
-0.334230
-0.263720
-0.198769
-0.175599
-0.082870
-0.094371
-0.043862
-0.116288
-0.087420
-0.080692
-0.071013
-0.048193
-0.043682
0.061971
0.010245
-0.048945
-0.011280
0.071897
-0.039780
-0.036064
0.025926
0.060739
0.049803
0.089387
0.048749
-0.000801
0.024597
0.081937
0.170336
0.099432
0.191280
0.136877
0.239484
0.273632
0.277742
0.220759
0.269434
0.313129
0.312576
0.296786
0.410630
0.366934
0.362764
0.422436
0.387590
0.357874
0.351632
0.414262
0.428404
0.446743
0.403185
0.410673
0.440335
0.426867
0.381764
0.356840
0.391689
0.359243
0.303908
0.368853
0.273065
0.331822
0.205752
0.255150
0.213131
0.186934
0.285988
0.209424
0.163662
0.072634
0.120844
0.138440
0.127025
0.143018
0.114278
-0.066477
-0.016325
-0.000104
-0.041396
-0.076713
0.071932
-0.017345
-0.090128
-0.045356
-0.104778
-0.074544
-0.054818
-0.049433
-0.042129
-0.125688
-0.088241
-0.136600
-0.120693
-0.088938
-0.094167
-0.101135
-0.029091
-0.142039
-0.055397
-0.156066
-0.009332
-0.102711
-0.066558
-0.128728
-0.102627
-0.064665
-0.098218
-0.051501
-0.066501
-0.101296
-0.070654
-0.113829
-0.171939
-0.096483
-0.080256
-0.126689
-0.099232
-0.090258
-0.100877
-0.038523
-0.049324
-0.043655
-0.063619
-0.069233
-0.048404
-0.098615
-0.031532
-0.048357
-0.107664
-0.109389
-0.089000
-0.071831
-0.105034
-0.152150
-0.094103
-0.175543
-0.076260
-0.017383
-0.074092
-0.129609
-0.129783
-0.169909
-0.094146
-0.082571
-0.101615
-0.057148
-0.104656
-0.092113
-0.039823
-0.140226
-0.142008
-0.135896
-0.063174
-0.131811
-0.039579
-0.058121
0.014382
-0.053012
-0.027138
-0.017423
-0.023108
0.010694
-0.106463
0.022829
0.051896
0.023364
-0.035757
0.057841
0.058324
0.002315
0.044351
0.037600
0.086106
0.144980
0.068461
0.090251
0.016249
0.089313
0.052408
0.106796
0.034317
0.087229
0.052888
0.113029
0.042364
0.096628
0.040390
0.038570
0.064986
-0.040160
-0.023784
-0.097661
-0.091841
0.049793
-0.035284
0.010895
-0.040859
-0.186099
-0.085655
-0.074341
-0.104214
-0.080002
-0.042932
-0.045600
-0.069307
-0.110038
-0.090023
-0.066607
-0.107705
-0.098064
-0.051660
-0.045489
0.008265
-0.079084
-0.166323
-0.085431
-0.088171
0.002756
0.312201
0.501347
0.884398
1.160369
1.383002
1.296535
1.124692
0.782774
0.340141
0.157075
-0.168024
-0.336729
-0.455057
-0.351466
-0.229764
-0.239861
-0.106946
-0.079424
-0.093820
-0.123133
-0.064321
0.010460
-0.084350
-0.034408
-0.020867
-0.029144
-0.007618
-0.125154
0.016216
0.025725
-0.006758
0.009453
0.049548
0.017139
0.106711
0.014563
0.011900
0.093186
0.061180
0.098605
0.103191
0.209782
0.163775
0.209556
0.219205
0.237437
0.253158
0.223221
0.205910
0.339137
0.328272
0.304744
0.395335
0.447571
0.344003
0.433307
0.437199
0.445577
0.455598
0.403852
0.443657
0.505300
0.489650
0.417329
0.457339
0.520520
0.447198
0.415881
0.348644
0.491930
0.326672
0.289937
0.400157
0.315882
0.342091
0.253470
0.304812
0.272093
0.272511
0.212946
0.207281
0.211081
0.204167
0.049755
0.171134
0.100054
0.123213
0.046474
0.085119
0.079023
0.024704
0.088443
0.053930
0.057163
0.086090
-0.025477
0.045511
0.015194
0.025693
0.064886
-0.022932
0.007319
0.011671
-0.032991
0.029469
-0.054828
0.035975
-0.028446
0.040476
0.003996
-0.022856
-0.001807
0.001399
-0.016772
-0.006781
-0.009717
-0.049639
-0.015247
-0.008246
0.012689
0.014267
-0.056030
0.050072
-0.012527
-0.049356
-0.015140
-0.021375
0.015305
-0.013063
-0.020675
0.040405
0.020235
-0.032422
-0.056552
0.033758
-0.002564
0.003059
0.031878
0.063688
-0.006948
0.012552
0.050545
0.000469
-0.065121
0.054274
-0.015242
0.007600
-0.051264
-0.043878
0.023330
-0.124154
0.039200
-0.003377
0.070493
0.006050
0.002829
0.072267
0.030526
0.039335
-0.009766
0.002626
-0.026122
0.013487
0.019489
0.063884
0.026631
0.058746
-0.034885
0.018000
0.035802
0.070672
0.058749
0.073128
0.081521
-0.026130
0.152323
0.080026
0.168630
0.159997
0.157768
0.119351
0.125943
0.216312
0.241506
0.218972
0.166831
0.143622
0.196472
0.085430
0.235483
0.227554
0.188739
0.192095
0.124709
0.137705
0.124097
0.146251
0.071851
0.159658
0.163025
0.116954
0.142624
0.115070
0.039007
0.100327
0.038349
0.113257
0.111639
0.170420
0.070894
0.154176
0.090735
0.006602
0.123678
0.115378
0.033075
0.076082
0.073501
0.111835
0.105497
-0.000988
0.006480
0.117068
0.069239
0.040355
-0.002986
0.004197
-0.056282
0.072054
0.103801
0.232310
0.427320
0.802980
1.112293
1.363390
1.500000
1.331493
1.048931
0.827711
0.435239
0.191746
-0.127345
-0.186946
-0.193552
-0.158283
-0.085068
-0.043003
0.083107
0.025116
0.013320
0.047236
0.127828
0.103429
0.160409
0.024579
0.092472
0.027975
0.115841
-0.013820
0.036297
0.123126
0.113453
0.143289
0.088379
0.131425
0.139216
0.181124
0.150929
0.184074
0.301842
0.221752
0.283063
0.202612
0.280881
0.268313
0.341968
0.254186
0.372945
0.287448
0.391786
0.359847
0.468628
0.390098
0.510373
0.430412
0.588031
0.529930
0.517883
0.590845
0.499509
0.553460
0.603493
0.507982
0.559929
0.638642
0.573405
0.595065
0.558305
0.532351
0.508804
0.571344
0.503670
0.453245
0.470348
0.501451
0.432615
0.356096
0.437879
0.371865
0.308302
0.314192
0.222175
0.314113
0.272786
0.270715
0.301932
0.221797
0.244898
0.184946
0.048547
0.153734
0.160698
0.168761
0.164343
0.161371
0.141932
0.146215
0.190206
0.080444
0.144489
0.054852
0.059590
0.134126
0.130070
0.075856
