-0.034778
0.008285
-0.073434
-0.009487
-0.024866
-0.046893
0.048752
0.031936
-0.071112
0.078167
-0.011532
0.025525
0.031971
0.039043
0.126361
-0.001406
0.162209
0.083949
0.019153
0.096426
0.161624
0.192458
0.156832
0.197382
0.150098
0.255300
0.157568
0.259358
0.127579
0.117807
0.197650
0.224370
0.144394
0.132317
0.211958
0.282259
0.248494
0.168129
0.219607
0.193794
0.147513
0.136851
0.117528
0.040634
0.201132
0.078920
0.081638
0.063839
0.195762
0.084423
0.057305
0.127775
0.012548
0.026008
0.049981
0.069870
0.196867
0.325816
0.496495
0.792251
1.214251
1.290532
1.442606
1.319341
0.972933
0.666956
0.355295
0.102520
-0.135290
-0.133513
-0.048123
-0.001005
0.080974
0.098610
0.087074
0.144530
0.200793
0.125401
0.268245
0.266966
0.282606
0.251212
0.285488
0.270890
0.303306
0.415831
0.398573
0.421231
0.519901
0.450012
0.453978
0.521724
0.466038
0.609223
0.558140
0.595975
0.647975
0.616463
0.620040
0.562755
0.521649
0.533369
0.644547
0.544911
0.572148
0.495124
0.583195
0.552688
0.521262
0.533544
0.525936
0.507336
0.501521
0.452274
0.486120
0.372169
0.367995
0.354139
0.298078
0.303462
0.321756
0.264085
0.229708
0.248316
0.218500
0.232893
0.221000
0.205301
0.179602
0.181412
0.158663
0.150277
0.219306
0.074497
0.117931
0.077731
0.142974
0.144901
0.022980
0.070440
0.199358
0.105379
0.061201
0.099021
0.041524
0.104620
0.028865
0.109209
0.127191
0.110287
0.085321
0.073373
0.108646
0.092113
0.060045
0.078145
0.073245
0.074649
0.076936
0.083686
0.108666
0.061575
0.096076
0.151807
0.172409
0.137305
0.157495
0.134529
0.101886
0.204373
0.166823
0.096915
0.157852
0.123523
0.233291
0.113317
0.143052
0.160219
0.205577
0.216100
0.214569
0.272382
0.228449
0.203531
0.293040
0.219177
0.277423
0.306057
0.270577
0.294424
0.322890
0.230368
0.266839
0.228359
0.239621
0.205053
0.148765
0.073599
0.119924
0.135738
0.122220
0.153400
0.159950
0.107995
0.078319
0.179217
0.123551
0.126902
0.131314
0.137817
0.193774
0.254371
0.429715
0.709670
1.012265
1.228948
1.500000
1.410573
1.299370
0.874699
0.569766
0.286659
0.064222
-0.020673
-0.002193
0.077684
0.177904
0.210029
0.128421
0.241533
0.221227
0.331845
0.226797
0.192697
0.213622
0.322819
0.290290
0.400600
0.423726
0.429345
0.376108
0.467029
0.397678
0.450144
0.494966
0.591541
0.520829
0.494468
0.477624
0.504122
0.638628
0.647614
0.663466
0.621675
0.604446
0.530107
0.638665
0.632000
0.599055
0.542562
0.559658
0.618165
0.572856
0.523496
0.530334
0.523040
0.483552
0.423632
0.469338
0.425428
0.458042
0.420954
0.364609
0.347826
0.326056
0.340920
0.193294
0.279675
0.236734
0.231462
0.191199
0.248710
0.251021
0.208356
0.106303
0.174697
0.091884
0.120231
0.256318
0.144920
0.081959
0.119875
0.096682
0.064808
0.127141
0.092689
0.097978
0.071551
0.125002
0.040433
0.033787
0.152243
0.055208
0.160628
0.101616
0.062151
0.060760
0.222399
0.089169
0.085234
0.062987
0.054320
0.064965
0.041842
0.052143
0.118211
0.078403
0.054336
0.152078
0.059822
0.054194
0.069030
0.095091
0.133126
0.108520
0.135863
0.158339
0.115664
0.197853
0.141687
0.206956
0.172129
0.132228
0.259904
0.212378
0.305307
0.199628
0.197870
0.151558
0.257332
0.197359
0.192110
0.268234
0.222446
0.215050
0.203124
0.157311
0.195806
0.196213
0.206181
0.183901
0.105017
0.172324
0.101659
0.160744
0.102326
0.078839
0.052211
0.036270
0.088355
0.133303
0.066842
0.025071
0.076219
0.105760
0.181008
0.326541
0.386947
0.716149
1.000302
1.241982
1.334957
1.246163
1.042653
0.726465
0.354485
0.060843
-0.084599
-0.001706
-0.003813
-0.053414
0.131641
0.128737
0.098167
0.141245
0.134334
0.170424
0.138585
0.140495
0.286816
0.205773
0.328083
0.229769
0.332061
0.312673
0.332775
0.364466
0.381075
0.395214
0.371513
0.468326
0.529973
0.549559
0.511135
0.575422
0.579553
0.566537
0.558907
0.495356
0.500793
0.472538
0.581991
0.500235
0.482734
0.490745
0.450906
0.429095
0.422650
0.464138
0.374301
0.420559
0.362712
0.281604
0.287900
0.399826
0.290382
0.300269
0.328594
0.188249
0.259925
0.244459
0.252236
0.208632
0.137050
0.187039
0.110701
0.051544
0.058563
0.153262
0.116610
0.113261
0.053236
0.026641
0.026061
0.108994
-0.033380
0.039803
-0.011551
0.080904
-0.040086
-0.065863
-0.051296
-0.012027
0.016457
0.026542
-0.118800
0.072504
-0.006301
-0.018799
-0.053733
0.001754
-0.049981
-0.018242
-0.073296
-0.045702
-0.115545
-0.110660
0.006230
-0.054370
0.003165
-0.048055
-0.000432
-0.040563
-0.024738
-0.035522
-0.071460
0.049490
0.009574
0.068042
0.005307
0.026586
0.075535
-0.003241
0.003284
0.072836
0.092128
0.105019
0.169313
0.149617
0.187269
0.079167
0.099582
0.195004
0.088945
0.081828
0.168465
0.157972
0.181262
0.065675
0.119904
0.140464
0.210939
0.109034
0.210072
0.110502
0.103139
0.077709
0.087322
0.034524
0.071499
-0.033482
-0.002705
-0.060235
0.072121
-0.020497
0.006101
-0.042369
-0.108642
-0.047146
-0.017277
0.101235
0.201429
0.454838
0.718591
1.099378
1.385300
1.339760
1.219229
0.884312
0.500377
0.223467
-0.022693
-0.127559
-0.116606
-0.081353
-0.084667
-0.068367
0.112330
0.054807
0.040202
0.055133
0.115550
0.120097
0.096651
0.218892
0.141497
0.132169
0.207253
0.235889
0.276676
0.408487
0.259517
0.349622
0.345540
0.338086
0.361107
0.377683
0.427562
0.524262
0.375720
0.447308
0.478018
0.375058
0.562634
0.510547
0.481789
0.468824
0.553256
0.510823
0.408014
0.374083
0.403507
0.483997
0.417553
0.364746
0.380826
0.346622
0.297656
0.294455
0.256319
0.332306
0.248675
0.237644
0.157908
0.189926
0.190818
0.183235
0.103738
0.186123
0.059510
0.139116
0.192195
0.070216
0.103498
0.083193
0.001873
-0.003334
0.032830
-0.030165
-0.001710
-0.072978
-0.034138
-0.010297
0.016411
0.014265
-0.053553
-0.043196
-0.042018
0.000885
-0.059174
-0.051067
0.026983
-0.045516
-0.051035
0.016004
-0.084921
-0.011348
0.013583
-0.072054
0.010231
-0.054233
-0.032417
-0.070380
0.054953
-0.012188
0.044864
-0.029518
-0.064536
-0.017926
-0.052163
0.064397
-0.002825
-0.030223
-0.016729
0.020060
0.075131
0.094158
0.117374
0.076363
0.100680
0.072857
0.049325
0.039867
0.139932
0.085505
0.169353
0.095447
0.133193
0.292694
0.114078
0.090954
0.111834
0.164503
0.160296
0.185523
0.122329
0.137464
0.136874
0.077267
0.006685
0.130335
0.061107
0.042023
0.018103
0.028198
0.051320
0.051744
-0.011858
0.021193
-0.026962
-0.068343
-0.006439
0.001253
0.037694
0.062954
0.180239
0.268605
0.501179
0.872120
1.079319
1.305001
1.364447
1.111258
0.737247
0.388410
0.105933
-0.097422
-0.193819
-0.121826
-0.014475
0.061650
0.114121
0.036278
0.128131
0.098558
0.119723
0.142357
0.121296
0.222511
0.241265
0.241114
0.255034
0.213853
0.304009
0.380012
0.404453
0.352227
0.431465
0.460711
0.449211
0.498769
0.428652
0.500822
0.479155
0.519381
0.545108
0.486654
0.517238
0.456522
0.495471
0.454920
0.520345
0.513376
0.569395
0.475758
0.557541
0.498797
0.484100
0.471417
0.485684
0.408069
0.377155
0.335576
0.403505
0.343436
0.395510
0.323264
0.326981
0.257954
0.233336
0.249309
0.137686
0.148717
0.172455
0.106883
0.130634
0.109239
0.192396
0.008752
0.126736
0.163217
0.111128
-0.017369
0.020521
0.089806
0.107149
0.073975
0.043372
0.095761
0.029376
0.090648
0.067635
0.027637
0.099370
0.041596
-0.039217
0.016415
-0.003241
0.012027
0.007361
0.022251
-0.052327
0.039510
0.050939
0.052658
0.046748
0.056935
0.072033
0.074943
-0.036379
0.094742
-0.026085
0.065059
-0.031315
-0.009617
0.034765
0.076057
0.128638
0.089013
0.108279
0.189419
0.107779
0.122378
0.141479
0.166485
0.164650
0.186736
0.153757
0.225715
0.166421
0.273841
0.185952
0.198254
0.298278
0.232104
0.271085
0.248551
0.283189
0.249254
0.202004
0.230937
0.159441
0.096209
0.198188
0.193580
0.176519
0.098997
0.129392
0.070898
0.124278
0.084568
0.147762
0.107733
0.131900
0.039601
0.064857
0.129354
0.057241
0.095045
0.128997
0.324016
0.482185
0.812318
1.047588
1.345528
1.370123
1.309318
1.059602
0.778338
0.404629
0.114273
0.008011
-0.083147
0.056238
0.037293
0.129028
0.090395
0.189834
0.231675
0.130788
0.255093
0.208379
0.321638
0.353155
0.323887
0.318600
0.406896
0.343209
0.354042
0.302425
0.408869
0.420496
0.461289
0.414768
0.535103
0.536840
0.540470
0.563361
0.547669
0.579572
0.647061
0.621359
0.632612
0.628441
0.545290
0.645171
0.554436
0.541375
0.590020
0.640134
0.540934
0.562880
0.515577
0.484260
0.583835
0.561707
0.462973
0.463382
0.527895
0.439806
0.350378
0.315539
0.348590
0.263041
0.403094
0.294030
0.264329
0.223872
0.236428
0.219312
0.213854
0.212261
0.139360
0.166984
0.260905
0.156156
0.154879
0.200252
0.229979
0.193244
0.089031
0.127754
0.153380
0.184818
0.118468
0.203652
0.158654
0.095247
0.085742
0.073141
0.085378
0.009782
0.151976
0.086088
0.128606
0.172772
0.100161
0.141362
0.041800
0.095840
0.063042
0.070187
0.116167
0.065254
0.187640
0.156337
0.064127
0.074931
0.130398
0.058183
0.194987
0.219047
0.160693
0.073683
0.143395
0.118580
0.197656
0.188293
0.169636
0.231315
0.201381
0.244635
0.180675
0.214091
0.329755
0.290686
0.253071
0.261610
0.313992
0.234798
0.324222
0.229746
0.357885
0.256818
0.220543
0.326809
0.222582
0.225855
0.260775
0.153374
0.176972
0.192997
0.178618
0.127621
0.155903
0.198119
0.173770
0.070725
0.170387
0.106773
0.088688
0.140663
0.178955
0.153191
0.234485
0.311730
0.583223
0.880038
1.258016
1.379170
1.423746
1.268362
0.943724
0.575182
0.279336
0.097688
-0.118490
0.029931
0.072095
0.116285
0.115945
0.172686
0.158272
0.249570
0.200986
0.234675
0.320930
0.338811
0.275566
0.291835
0.285200
0.306343
0.424737
0.401511
0.466345
0.401920
0.486627
0.531682
0.568311
0.592835
0.510174
0.441626
0.597758
0.550818
0.523653
0.593997
0.595608
0.655813
0.683560
0.607873
0.568040
0.539219
0.512812
0.552251
0.556386
0.506885
0.544868
0.574242
0.492037
0.475290
0.393895
0.424458
0.372375
0.409940
0.423432
0.346311
0.293723
0.370065
0.315317
0.292533
0.327058
0.239163
0.218238
0.192735
0.165463
0.129840
0.162253
0.144911
0.079566
0.135460
0.143585
0.062185
0.108150
0.109955
0.080232
0.035879
0.068393
0.094603
0.147862
0.053542
0.107763
0.015069
0.046567
0.148587
0.068182
0.092907
0.028831
0.016264
0.134180
0.009666
0.041105
0.004336
-0.006676
0.095903
0.005565
0.000558
0.079846
0.103643
0.082939
0.066622
0.090973
0.090374
0.018001
0.062280
0.077638
0.051379
0.017283
0.140963
0.088101
0.195840
-0.000823
0.182034
0.145436
0.168253
0.066097
0.158307
0.120673
0.194095
0.197866
0.174964
0.134760
0.355379
0.288884
0.244847
0.148409
0.215909
0.110383
0.221705
0.240769
0.129045
0.148787
0.162661
0.084605
0.201785
0.168363
0.128682
0.027826
0.118296
0.047846
0.032735
0.226756
0.024360
-0.039329
0.124948
0.048133
0.062351
0.059645
0.127922
0.168992
0.155875
0.384196
0.559826
0.988196
1.237235
1.418022
1.338345
1.079533
0.710453
0.415324
0.114542
-0.015924
-0.092371
-0.060402
-0.021523
0.055592
0.043885
0.093594
0.162813
0.133551
0.156936
0.229249
0.178225
0.198607
0.256792
0.176618
0.225923
0.287013
0.267880
0.270254
0.338692
0.383988
0.323614
0.340204
0.400629
0.500607
0.431678
0.522924
0.415487
0.567994
0.533802
0.485282
0.510904
0.540982
0.556308
0.519742
0.429671
0.536434
0.396776
0.429792
0.454420
0.459251
0.448041
0.393864
0.395859
0.365082
0.395711
0.347709
0.244216
0.187713
0.314401
0.252503
0.210065
0.101620
0.228137
0.168471
0.155702
0.171584
0.051022
0.121001
0.077421
0.056080
0.012339
0.018846
-0.016494
0.029762
-0.069790
-0.042198
-0.019757
0.027508
-0.033115
0.008630
-0.058943
-0.059412
-0.014410
0.020060
-0.037860
-0.019033
-0.035660
-0.105294
-0.028766
0.001670
-0.000577
-0.020250
-0.086016
-0.095016
-0.078865
0.013828
-0.083160
-0.030271
-0.097128
-0.103676
-0.022155
-0.032696
-0.051264
-0.054094
-0.051678
-0.087459
-0.032530
-0.000123
-0.042009
0.017054
0.064452
-0.011442
-0.008147
0.016553
0.063744
-0.037115
0.070288
0.078275
0.047316
0.109570
0.114031
0.118328
0.071958
0.115574
0.125524
0.105031
0.133881
0.059006
0.099910
0.154838
0.055876
0.075774
0.195543
0.052816
0.120575
0.086256
0.015149
-0.022667
0.088633
-0.027957
0.023376
-0.075208
-0.002550
-0.116104
-0.049427
-0.018228
-0.083505
-0.006502
-0.076564
-0.077434
-0.034948
0.006115
-0.005965
0.155210
0.385936
0.699105
0.991599
1.227779
1.323391
1.226118
0.938925
0.598857
0.164158
-0.047227
-0.122438
-0.236788
-0.089922
-0.090816
-0.101875
0.010037
0.004689
0.012843
0.072020
-0.046661
0.029600
0.096261
0.200623
0.084452
0.122806
0.123531
0.172920
0.286618
0.286343
0.257937
0.269252
0.360084
0.328830
0.273094
0.360400
0.422190
0.383225
0.440411
0.471943
0.393854
0.428614
0.443833
0.486030
0.419232
0.465397
0.432078
0.459946
0.420898
0.439916
0.341803
0.389949
0.401221
0.416777
0.371137
0.289001
0.337475
0.233045
0.189988
0.240407
0.298403
0.055375
0.199419
0.104096
0.147155
0.084806
0.114784
0.083483
0.113274
0.064650
0.074374
-0.114517
0.040842
-0.018038
0.053153
-0.019100
-0.077836
0.008187
-0.109993
-0.036178
-0.036915
-0.070895
-0.061367
-0.071938
-0.018878
-0.131689
-0.078737
-0.092734
-0.080743
-0.031643
-0.101368
-0.110125
-0.005934
-0.198750
-0.032804
-0.058807
0.017041
-0.069955
-0.049464
-0.043381
-0.055817
-0.073759
-0.094863
-0.091327
-0.035425
-0.036854
-0.067670
-0.053098
0.038271
-0.032807
0.005342
0.009718
-0.034203
-0.027208
0.026100
0.001930
-0.022724
0.009881
0.020596
-0.054182
0.076976
0.092522
0.072775
0.047468
0.011473
0.101084
0.112350
0.152577
0.119234
0.095567
0.194796
0.101707
0.068141
0.078970
0.099102
0.094334
0.142099
0.147833
0.033696
0.153883
0.117888
0.021156
0.022453
-0.057186
-0.011686
-0.005052
-0.020108
-0.026399
0.052876
-0.049068
0.032401
-0.006964
-0.072850
0.021002
0.028825
0.246024
0.486049
0.824914
1.055090
1.318428
1.297886
1.122079
0.846252
0.482959
0.155667
0.011264
-0.097743
-0.097054
-0.095906
-0.061021
-0.018732
0.084151
0.099200
0.048993
0.136470
0.111433
0.072964
0.152873
0.112635
0.152068
0.183668
0.216451
0.167387
0.274899
0.338251
0.337446
0.364254
0.343246
0.398065
0.438214
0.367146
0.436433
0.555819
0.511089
0.521891
0.532787
0.485186
0.450974
0.501493
0.534838
0.495850
0.561611
0.451924
0.450693
0.420219
0.489950
0.410649
0.418039
0.346021
0.373104
0.376598
0.386324
0.320871
0.303878
0.323915
0.197218
0.279055
0.323087
0.184550
0.234957
0.078356
0.175908
0.080264
0.028987
0.119472
0.157697
0.088297
0.071294
0.065429
-0.006315
0.116455
0.110338
-0.035382
0.036204
0.038165
-0.000252
-0.018915
0.021389
0.016781
0.065994
-0.022553
-0.033210
0.004765
-0.073816
-0.030451
0.022746
-0.014685
-0.005722
0.068019
-0.028058
0.025771
0.003456
0.010844
-0.010978
-0.002752
-0.037238
0.027782
0.048158
0.048928
-0.001995
0.062245
0.004780
0.006720
0.037017
0.014067
0.041948
0.030843
-0.009186
0.032267
0.087464
0.135702
0.078264
0.052474
0.062901
0.053734
0.197432
0.184403
0.063880
0.178950
0.229917
0.244079
0.119061
0.177641
0.202503
0.164962
0.155260
0.130987
0.168794
0.155076
0.206910
0.128709
0.155702
0.207814
0.166778
0.094304
0.117361
0.133826
0.027929
0.168158
0.062740
0.096604
0.070085
0.061033
0.041240
0.061741
0.115297
0.059180
0.089086
0.137814
0.234703
0.295369
0.624138
0.936554
1.198466
1.325789
1.385942
1.135400
0.678559
0.396475
0.200021
-0.094118
-0.101903
-0.041871
0.086776
0.019522
0.126732
0.128594
0.079272
0.162287
0.175553
0.288417
0.189486
0.195680
0.267013
0.259349
0.302450
0.323349
0.338495
0.325718
0.388411
0.511531
0.416815
0.341905
0.436884
0.481942
0.484766
0.512091
0.582104
0.555307
0.592583
0.605030
0.521959
0.561459
0.496952
0.591320
0.640760
0.591847
0.565684
0.649324
0.498125
0.562307
0.440855
0.484245
0.504886
0.489291
0.455426
0.407102
0.426232
0.449409
0.344339
0.316109
0.370088
0.320412
0.276994
0.230724
0.191064
0.231909
0.159848
0.170921
0.222507
0.142367
0.175339
0.127961
0.187150
0.062888
0.092545
0.164971
-0.004965
0.108222
0.011533
0.212275
0.068284
0.030721
0.030949
0.025001
0.083274
0.058319
0.092561
0.058268
-0.033959
0.041912
0.046065
0.054628
-0.027310
0.005771
0.027104
0.102330
0.020461
0.071207
0.122038
0.017557
-0.029965
0.086314
0.158493
0.066684
0.069216
0.065510
0.124137
0.134909
0.056842
-0.025312
0.151723
0.017270
0.165999
0.139255
0.114644
0.075987
0.153514
0.117084
0.213458
0.157626
0.250383
0.236378
0.279257
0.229240
0.192551
0.178901
0.186272
0.175387
0.254231
0.244639
0.176148
0.153666
0.205170
0.227735
0.183602
0.208138
0.124239
0.221598
0.182504
0.200381
0.185129
0.058819
0.161075
0.126984
0.031770
0.104008
0.092562
0.014144
0.129532
0.194149
0.043142
0.069169
0.128970
0.287718
0.431375
0.747752
1.104059
1.357188
1.385298
1.300327
1.077832
0.620193
0.260366
0.062240
-0.069761
0.075336
-0.036159
0.082886
0.146863
0.141218
0.118838
0.308381
0.169874
0.125629
0.216588
0.232435
0.170640
0.254097
0.183298
0.309452
0.235615
0.301373
0.383750
0.382831
0.467296
0.417628
0.529660
0.459037
0.445000
0.536368
0.510090
0.581943
0.499142
0.654275
0.548039
0.491325
0.548987
0.586541
0.590341
0.490050
0.568684
0.442953
0.506812
0.470652
0.456810
0.500027
0.453647
0.494208
0.426869
0.439231
0.400383
0.415189
0.300944
0.332974
0.333699
0.246478
0.211005
0.222054
0.275250
0.135004
0.153279
0.134763
0.131761
0.166639
0.054278
0.169385
0.094813
0.058289
0.057647
0.110003
0.086006
0.072562
-0.004853
-0.051208
0.074120
-0.064591
-0.008491
0.030751
-0.003390
-0.010179
0.035080
-0.046517
-0.043731
-0.041069
-0.030963
0.055544
-0.012640
-0.035194
-0.048492
0.000587
0.045409
-0.009674
0.004254
0.114096
0.001935
0.031282
-0.058246
-0.025190
-0.006898
0.024335
-0.065301
-0.022166
-0.020092
-0.010445
0.038293
0.063269
-0.001529
-0.008846
-0.021479
0.095224
0.125316
0.125206
0.034923
0.082137
0.105583
0.112917
0.152455
0.165185
0.065526
0.144028
0.118360
0.191282
0.161479
0.173560
0.181665
0.167486
0.188671
0.130881
0.070839
0.098302
0.009703
0.085082
0.055515
0.080689
-0.072521
-0.035907
0.033407
-0.010687
-0.024937
0.037166
-0.050826
-0.017703
-0.077044
-0.152009
0.072819
0.057440
0.084429
0.139137
0.289703
0.475298
0.900978
1.158790
1.207138
1.297311
1.135680
0.786172
0.430945
0.186726
-0.110869
-0.126912
-0.163134
-0.041403
0.009418
-0.007151
0.059909
0.170505
0.071813
0.055701
0.142252
0.104973
0.178320
0.185884
0.179895
0.291378
0.244903
0.178554
0.220848
0.241803
0.309356
0.398947
0.365861
0.342579
0.390888
0.346137
0.469250
0.379329
0.432734
0.496425
0.470876
0.432591
0.437357
0.509108
0.419010
0.489824
0.471765
0.414094
0.421686
0.402411
0.411164
0.408760
0.447250
0.342289
0.298622
0.283859
0.246212
0.312049
0.347306
0.256784
0.158412
0.142090
0.179517
0.213182
0.089161
0.083048
0.080560
0.137886
0.037438
-0.003260
0.008514
0.032648
0.046586
-0.096018
0.073125
-0.006520
-0.035996
-0.060514
0.012537
0.015665
-0.062858
0.003217
-0.045414
-0.117949
-0.076606
-0.062330
-0.098239
-0.102940
0.039692
-0.146415
-0.118799
-0.065764
-0.104861
-0.115890
-0.020651
-0.100304
-0.022279
-0.072796
-0.053927
-0.147310
-0.008583
-0.123678
-0.095770
-0.092099
-0.065259
-0.086169
-0.057669
-0.115801
-0.095440
-0.021552
0.019400
-0.050442
-0.066222
-0.022855
-0.003762
-0.094197
0.102166
0.014453
-0.023535
0.023025
0.031765
-0.047809
0.057354
0.020816
-0.009489
0.128242
0.117054
0.050656
0.052790
0.095658
0.095201
0.065408
0.049744
0.070573
0.047856
0.054285
-0.034456
0.069337
0.057539
-0.043638
-0.057150
-0.073427
-0.141955
0.010374
-0.024120
-0.084639
-0.079751
-0.045971
-0.124824
-0.100844
-0.060654
-0.150222
-0.041524
-0.051846
0.160308
0.280336
0.466735
0.832405
1.165839
1.236609
1.261198
0.951940
0.599466
0.266788
-0.031698
-0.171852
-0.200147
-0.070090
-0.056807
-0.050789
-0.013017
0.007048
-0.006953
0.020329
-0.011474
0.019526
0.230011
0.035501
0.118684
0.186143
0.221637
0.222650
0.151107
0.259151
0.233625
0.326029
0.261359
0.263263
0.323574
0.287804
0.349437
0.359006
0.377325
0.414225
0.349376
0.442754
0.420761
0.378762
0.502425
0.366433
0.458243
0.500245
0.394424
0.461401
0.369438
0.337637
0.402190
0.352459
0.320503
0.294660
0.310622
0.251189
0.190029
0.235064
0.286141
0.164257
0.110264
0.103696
0.164189
0.059359
0.106441
-0.020494
0.065660
0.097205
0.052118
0.007405
-0.030131
-0.071298
-0.010686
-0.011319
-0.123378
-0.077189
-0.051573
0.027615
-0.125028
-0.119511
-0.113853
-0.024023
-0.101151
-0.087228
-0.048231
-0.066882
-0.114742
-0.122315
-0.113408
-0.154713
-0.162272
-0.015732
-0.069357
-0.039800
-0.102057
-0.059193
-0.065664
-0.051138
-0.067121
-0.051839
-0.051848
-0.184710
-0.062616
-0.063021
-0.137862
-0.096839
-0.022109
-0.080544
-0.094777
-0.062319
-0.060136
0.005330
0.038218
0.034886
0.060723
-0.033303
0.048808
-0.023576
0.067420
0.123294
0.030672
0.025875
0.101195
0.094646
0.180482
0.092334
0.044961
0.123045
0.179663
0.116882
0.119874
0.012037
0.093459
0.115790
0.059510
0.050804
0.073203
0.009080
0.035151
0.102109
0.190389
-0.052212
-0.018148
-0.048170
0.019849
-0.052175
-0.031304
-0.043209
0.018529
-0.045941
0.064611
-0.063417
0.088421
0.170472
0.465748
0.717420
0.970096
1.274998
1.309550
1.214013
0.831922
0.437091
0.078093
-0.024804
-0.154160
-0.094007
-0.098202
-0.011275
0.037204
0.050782
0.038562
0.032335
0.124422
0.139193
0.112131
0.136128
0.271645
0.133908
0.183761
0.210956
0.298300
0.247389
0.328730
0.305034
0.382984
0.387215
0.424671
0.399578
0.445217
0.509734
0.376264
0.543168
0.440618
0.461030
0.499788
0.461285
0.586300
0.529570
0.566005
0.471171
0.536486
0.482210
0.444015
0.515544
0.426485
0.451965
0.377501
0.356399
0.334125
0.341483
0.371548
0.315426
0.341027
0.243975
0.314377
0.243454
0.262533
0.151101
0.206683
0.144337
0.211736
0.145384
0.137752
0.163685
0.110274
0.046305
0.065149
0.095634
0.046252
0.069773
0.015022
0.079542
0.073060
0.024808
0.128946
0.041600
0.058720
-0.007534
-0.034607
-0.025949
0.029494
-0.037727
-0.008208
-0.013563
-0.025130
0.001438
-0.011760
0.028115
-0.006048
-0.005500
0.076790
0.046957
-0.046199
-0.068408
0.030989
-0.007897
0.046328
-0.019693
0.057449
0.003998
0.079373
0.000994
0.059012
0.032806
0.045414
0.049277
0.044609
0.038790
0.089020
0.072778
0.152587
0.216666
0.137551
0.140095
0.188860
0.252910
0.211363
0.220063
0.265262
0.199580
0.322293
0.252657
0.231395
0.222005
0.259618
0.151770
0.181842
0.190276
0.122444
0.182928
0.183011
0.170304
0.162422
0.081630
0.137448
0.072195
0.121703
0.104711
0.055823
0.063085
0.081434
0.076520
-0.008805
0.092021
0.110244
0.122090
0.070778
0.245658
0.371122
0.516199
0.920700
1.217300
1.397010
1.376553
1.208905
0.828841
0.473953
0.167418
-0.021131
-0.159471
-0.021497
0.040373
0.126660
0.184705
0.115293
0.136423
0.160830
0.110702
0.200393
0.162520
0.176435
0.250684
0.337875
0.335386
0.369062
0.393983
0.364562
0.401619
0.451931
0.432062
0.499217
0.509521
0.399640
0.517067
0.510509
0.619945
0.584922
0.599724
0.627055
0.595863
0.624519
0.613159
0.576266
0.514796
0.567150
0.623703
0.589940
0.505624
0.527349
0.545715
0.516085
0.501765
0.492483
0.462720
0.450596
0.489109
0.303799
0.335301
0.370066
0.297240
0.325247
0.241069
0.299643
0.304277
0.186279
0.175797
0.148248
0.192337
0.157684
0.161827
0.136584
0.125652
0.068333
0.135033
0.065868
0.156977
0.162081
0.081108
0.081585
0.074775
0.029591
-0.011647
0.111587
0.066951
0.086153
0.118415
0.052324
0.086801
0.076671
0.156209
0.149764
0.069378
0.061015
0.153194
0.077178
0.131683
0.116958
0.033671
0.079315
0.017819
0.099802
0.013353
0.068396
0.079980
0.062103
0.075052
0.124463
0.135230
0.158318
0.096212
0.127786
0.128141
0.040618
0.165209
0.248017
0.257087
0.142205
0.139720
0.159903
0.216916
0.127887
