-0.051467
-0.020869
0.035898
-0.078185
0.021105
0.006447
0.063049
-0.043857
-0.042344
-0.027776
-0.057458
-0.053623
0.033926
-0.029690
0.052524
0.084825
-0.030863
0.060155
0.035964
0.044768
0.011295
0.023644
0.025179
0.059978
0.124614
0.120318
0.122161
0.101955
0.121474
0.098341
0.118997
0.163799
0.168467
0.145001
0.190041
0.216862
0.207375
0.283362
0.192348
0.178835
0.212323
0.221732
0.201064
0.216355
0.197378
0.081738
0.072183
0.193137
0.104279
0.161592
0.069727
0.021783
-0.001380
0.086086
0.045096
0.066471
0.073038
0.087258
0.129254
0.000639
-0.000455
0.077383
0.093185
-0.017299
0.058166
0.083434
0.049085
0.072532
0.064491
0.202216
0.430941
0.784163
1.023128
1.294818
1.500000
1.273525
1.127868
0.714237
0.360654
0.160062
-0.001068
-0.113068
-0.143689
-0.009165
-0.112710
0.081201
0.025457
0.047055
0.113127
0.107894
0.109757
0.169151
0.186704
0.085071
0.147616
0.247538
0.162150
0.155503
0.249832
0.231452
0.284478
0.289885
0.371262
0.373009
0.365342
0.323866
0.255180
0.390312
0.413367
0.383690
0.417603
0.373500
0.455951
0.431090
0.520939
0.628179
0.489596
0.607171
0.554540
0.640539
0.644864
0.577013
0.581665
0.584027
0.577993
0.510687
0.536870
0.610506
0.525526
0.523004
0.445202
0.440752
0.435355
0.403183
0.407146
0.346422
0.313701
0.333198
0.394843
0.339494
0.237767
0.316927
0.283272
0.280139
0.248074
0.241017
0.195658
0.183221
0.210509
0.190920
0.146657
0.130823
0.126798
0.108958
0.069812
0.133347
0.074886
0.042553
0.094565
0.120710
0.053469
0.092328
0.100882
0.017139
0.111096
0.045187
0.033851
0.055804
0.069545
0.096754
0.051987
0.063181
0.060175
0.063481
0.067824
0.069266
0.051944
0.081173
0.206466
0.055295
0.017625
0.084416
0.068090
0.116241
0.058608
0.105805
0.121077
0.143925
0.008077
0.076810
0.114862
0.080002
0.160440
0.098328
0.078816
0.051001
0.120443
0.185160
0.004954
0.203367
0.104007
0.037068
0.075844
0.095611
0.101886
0.160683
0.097085
0.122328
0.149451
0.136602
0.166907
0.170031
0.255606
0.215432
0.146788
0.128248
0.233724
0.272582
0.211819
0.232321
0.272077
0.260099
0.338155
0.268796
0.266723
0.325099
0.294708
0.260795
0.199716
0.230670
0.258562
0.149367
0.181917
0.246837
0.182675
0.173729
0.217228
0.185786
0.210380
0.119718
0.174655
0.107381
0.085820
0.090972
0.008932
0.100365
0.039767
0.071066
0.068833
0.090771
0.078343
-0.065982
0.109181
0.167438
0.221636
0.425782
0.699367
0.936421
1.215518
1.478412
1.287354
1.178059
0.853414
0.501655
0.192056
-0.090699
-0.137865
-0.036650
-0.017691
-0.026769
0.097440
0.042048
0.097319
0.112614
0.160139
0.044428
0.131701
0.221116
0.273215
0.236957
0.165683
0.215505
0.285847
0.219222
0.248000
0.238079
0.307787
0.227386
0.292375
0.389164
0.359685
0.378217
0.373624
0.419420
0.419277
0.442084
0.447552
0.517457
0.520174
0.571912
0.511685
0.497047
0.602347
0.602645
0.521412
0.572386
0.498232
0.640758
0.556879
0.583741
0.541735
0.549857
0.492875
0.466679
0.565748
0.418833
0.532866
0.496756
0.423810
0.327523
0.426783
0.322715
0.244021
0.307867
0.229611
0.292006
0.262793
0.194279
0.193231
0.189617
0.242659
0.222772
0.207714
0.098240
0.087009
0.084603
0.149710
0.113316
0.039695
0.080876
0.064758
0.068463
0.087579
0.153921
0.067956
0.049883
0.066131
0.126211
-0.037742
0.065078
0.058930
-0.064902
0.087471
0.050556
0.004253
0.026537
0.019705
0.117881
-0.010272
0.026313
-0.021824
0.045519
-0.017555
-0.014561
0.046643
0.049331
0.038496
0.054291
0.008953
-0.014669
-0.034242
0.025465
0.074908
0.062660
0.142455
0.027547
0.022644
0.000000
0.000000
0.000000
0.000000
0.000000
0.000000
0.000000
0.000000
0.000000
0.000000
0.000000
0.000000
0.000000
0.000000
0.000000
0.000000
0.000000
0.000000
0.000000
0.000000
0.000000
0.000000
0.000000
0.000000
0.000000
0.000000
0.000000
0.000000
0.000000
0.000000
0.000000
0.000000
0.000000
0.000000
0.000000
0.000000
0.000000
0.000000
0.000000
0.000000
0.000000
0.000000
0.000000
0.000000
0.000000
0.000000
0.000000
0.000000
0.000000
0.000000
0.000000
0.000000
0.000000
0.000000
0.000000
0.000000
0.000000
0.000000
0.000000
0.000000
0.000000
0.000000
0.000000
0.000000
0.000000
0.000000
0.000000
0.000000
0.000000
0.000000
0.000000
0.000000
0.000000
0.000000
0.000000
0.000000
0.000000
0.000000
0.000000
0.000000
0.000000
0.000000
0.000000
0.000000
0.000000
0.000000
0.000000
0.000000
0.000000
0.000000
0.000000
0.000000
0.000000
0.000000
0.000000
0.000000
0.000000
0.000000
0.000000
0.000000
0.000000
0.000000
0.000000
0.000000
0.000000
0.000000
0.000000
0.343424
0.532903
0.476125
0.429617
0.469872
0.451337
0.527852
0.445523
0.426997
0.500551
0.374064
0.451489
0.530239
0.477553
0.451967
0.378458
0.430651
0.415733
0.330687
0.362457
0.304255
0.310192
0.225436
0.258601
0.269878
0.178861
0.148063
0.248094
0.102262
0.095311
0.123576
0.094235
0.096294
0.079978
0.108691
0.050209
0.018000
0.008660
0.012443
-0.017671
0.036840
0.037384
-0.016807
0.001248
0.032719
-0.023621
-0.040754
-0.056417
0.070588
-0.032320
-0.022991
-0.022293
-0.069024
-0.001020
-0.101310
-0.083428
-0.033217
-0.174114
-0.025617
-0.089962
-0.012092
-0.067785
-0.030963
-0.045857
-0.026409
0.029439
0.022415
0.015888
-0.014462
0.005565
-0.070648
-0.018892
0.015984
-0.071576
-0.079324
-0.078575
-0.022527
-0.046696
-0.029295
-0.014672
-0.079913
-0.001542
-0.053897
0.048871
0.018813
-0.070280
-0.031081
-0.064210
0.012413
-0.021431
0.007734
-0.018312
-0.088629
-0.027888
0.008772
0.080041
0.041888
-0.045966
0.006529
0.049872
0.079989
0.129424
0.087527
0.056402
0.150857
0.133507
0.058418
0.155810
0.182833
0.160022
0.097782
0.141540
0.085320
0.036881
0.155905
0.112938
0.101649
0.114561
0.072847
0.086821
0.069127
-0.001917
0.022896
0.036682
-0.035278
-0.014227
-0.023049
-0.066388
-0.012471
0.000835
-0.013225
-0.051416
-0.112594
0.041829
-0.010713
-0.055711
-0.011936
-0.082717
0.016164
-0.040928
0.036890
0.213829
0.504417
0.751306
1.025328
1.200421
1.252704
1.176903
0.869355
0.441912
0.130636
-0.107393
-0.183857
-0.232438
-0.219142
-0.076889
-0.019626
-0.061900
-0.008163
0.117816
0.038129
0.058459
0.060062
0.099515
0.009586
0.091138
0.109832
0.062639
0.169786
0.120810
0.178077
0.130081
0.194205
0.235642
0.184543
0.241235
0.212585
0.280383
0.287728
0.400026
0.392764
0.301311
0.397703
0.487721
0.366552
0.409692
0.507883
0.512579
0.500055
0.459430
0.533345
0.474632
0.562856
0.407128
0.464423
0.497337
0.447302
0.444020
0.470497
0.477457
0.431526
0.368394
0.364028
0.355012
0.376806
0.356880
0.280177
0.290966
0.299773
0.199634
0.281233
0.203866
0.183229
0.311111
0.144085
0.113029
0.122761
0.058712
0.100409
0.117669
0.050469
0.090313
0.132189
0.076988
0.056469
0.035457
0.042761
0.017721
-0.009555
0.105708
-0.044103
0.094997
-0.024767
-0.000385
0.070204
0.021425
-0.041417
0.048251
-0.010619
-0.050065
0.017083
-0.001842
0.009204
-0.008272
0.062695
-0.038379
-0.009270
-0.033391
0.048000
0.043942
0.015195
0.038469
0.011869
0.022290
-0.049724
-0.034657
0.014426
0.046408
0.038138
0.007554
-0.033319
0.097510
0.034744
0.028354
0.001488
0.079013
0.037263
-0.008747
0.046620
-0.058396
0.047747
0.004423
0.040042
0.099401
0.038656
0.020673
0.023306
0.044483
0.110200
0.070957
0.164866
0.129121
0.162367
0.119692
0.106382
0.132703
0.186847
0.255250
0.145773
0.161190
0.169813
0.270864
0.176241
0.232927
0.264262
0.180116
0.158731
0.189857
0.172462
0.158183
0.158917
0.215979
0.170001
0.170142
0.115426
0.124828
0.131052
0.079970
0.076948
0.122235
0.046570
0.113989
0.076753
0.060485
0.057236
0.069513
0.024195
0.154760
0.059848
0.010617
0.113639
0.075093
0.063585
0.037664
0.162937
0.151656
0.250610
0.460267
0.802593
1.059341
1.344182
1.407632
1.264818
1.031029
0.629067
0.310667
0.057764
-0.057130
-0.208733
-0.093705
-0.044290
0.068758
0.066981
0.095633
0.036866
0.059620
0.086265
0.160794
0.157805
0.157124
0.189563
0.095894
0.183698
0.185298
0.181282
0.237610
0.279601
0.317440
0.335951
0.292958
0.348777
0.379556
0.374869
0.391276
0.415655
0.398475
0.443613
0.487955
0.518446
0.473228
0.510455
0.487635
0.594343
0.606619
0.573595
0.548610
0.545248
0.614066
0.527466
0.550065
0.557162
0.561990
0.477651
0.594648
0.522036
0.504434
0.482553
0.464928
0.491951
0.426475
0.521987
0.475507
0.382408
0.315994
0.312564
0.293071
0.297173
0.387087
0.247519
0.270776
0.201432
0.190123
0.235004
0.219136
0.176841
0.150622
0.140716
0.153477
0.154980
0.166482
0.163147
0.141133
0.054709
0.113273
0.089609
0.148033
0.112521
0.133004
0.128128
0.041829
0.120027
0.062632
0.028475
0.110788
0.075463
0.044627
0.083787
0.078332
0.109419
0.041904
0.185335
0.136282
0.026937
0.112172
0.108750
0.082688
0.089435
0.099101
0.122132
0.071403
0.141006
-0.017168
0.098756
0.083114
0.087084
-0.035725
0.137799
0.038902
0.125972
0.074925
0.028676
0.079101
0.088284
0.054620
0.017816
0.124447
0.164355
0.172508
0.036169
0.090775
-0.006169
0.117465
0.162166
0.213060
0.131198
0.254555
0.119152
0.206842
0.138151
0.211613
0.235943
0.179951
0.207358
0.210997
0.283091
0.249808
0.201961
0.264090
0.274445
0.273455
0.190996
0.258129
0.256850
0.193828
0.356585
0.225833
0.222145
0.247981
0.253521
0.147940
0.192701
0.203294
0.200117
0.132336
0.151701
0.099216
0.073390
0.211018
0.117083
0.096776
0.133084
0.204474
0.061369
0.041125
0.105666
0.103215
0.100754
0.156849
0.163124
0.061030
0.182960
0.328447
0.458326
0.767324
1.099851
1.314497
1.431455
1.346723
1.049647
0.727112
0.420092
0.116795
-0.039584
-0.191926
-0.105150
0.008714
0.110403
0.095107
0.075014
0.160592
0.088823
0.135746
0.180373
0.137259
0.133513
0.262090
0.169825
0.204766
0.206995
0.202893
0.284897
0.351862
0.173879
0.255438
0.377628
0.383409
0.339887
0.378505
0.386293
0.419343
0.442524
0.510909
0.483288
0.537864
0.417238
0.461383
0.545956
0.608139
0.534600
0.584920
0.604462
0.579767
0.552773
0.581424
0.525414
0.584789
0.601043
0.596181
0.510435
0.525212
0.512921
0.438810
0.473866
0.398852
0.429639
0.409295
0.448549
0.418967
0.361375
0.302961
0.350652
0.217016
0.275438
0.245081
0.238857
0.167749
0.221256
0.179117
0.234558
0.098746
0.143895
0.150350
0.114713
0.035974
0.110620
0.095051
0.108580
0.095056
0.076214
0.066456
0.090430
0.023556
0.033948
0.052078
0.007203
0.040596
0.075246
0.035083
-0.006497
0.048132
-0.040049
0.014502
-0.002778
-0.021598
0.008052
0.080136
0.029298
0.034960
-0.025718
0.047428
0.041239
0.078063
0.001694
0.068173
0.079077
0.059474
0.059277
0.008477
-0.067085
-0.021997
0.034535
0.048431
-0.033761
0.033657
0.008055
-0.013669
-0.073065
0.091875
-0.042936
0.091950
-0.080055
0.043931
0.020562
-0.015471
0.022207
0.128718
0.086392
0.081460
0.080538
0.085108
0.025293
0.069619
0.023755
0.214144
0.111534
0.143543
0.106629
0.098709
0.236243
0.120179
0.226375
0.216039
0.134928
0.233120
0.161153
0.175391
0.156500
0.186069
0.249839
0.190490
0.164639
0.199038
0.131697
0.123802
0.063200
0.101207
0.092207
0.063320
0.073454
0.035201
0.027016
0.102248
0.131114
-0.000545
-0.024207
-0.035091
-0.062239
0.010025
0.040962
-0.056668
-0.038426
-0.017304
-0.061774
-0.002173
0.012121
0.108238
0.095008
0.309555
0.604574
0.858813
1.155548
1.280725
1.283127
1.025324
0.730986
0.323037
0.034404
-0.153252
-0.232988
-0.203164
-0.216972
-0.123866
-0.084387
0.055741
-0.029168
0.077186
0.077923
0.009232
-0.025103
0.025105
0.015756
0.060545
0.103934
0.208038
0.050568
0.165325
0.186985
0.228211
0.192322
0.201470
0.161037
0.264496
0.243871
0.206343
0.299072
0.342147
0.338158
0.350825
0.335139
0.378131
0.413736
0.366874
0.371628
0.495909
0.491095
0.495584
0.502986
0.467480
0.494807
0.459399
0.440991
0.437417
0.347062
0.439526
0.454765
0.509314
0.301661
0.306616
0.358955
0.289922
0.248600
0.221338
0.242463
0.316874
0.272095
0.156675
0.202766
0.204350
0.070198
0.130827
0.119921
0.109264
0.115773
0.021459
-0.024188
0.066195
0.019960
0.017425
0.052765
0.005648
0.047604
-0.032544
-0.134017
-0.027102
0.016778
0.040344
-0.049046
-0.025646
-0.006814
-0.060947
-0.033483
-0.148365
-0.023034
-0.088554
-0.047260
-0.158826
-0.074767
-0.093031
-0.079328
-0.094306
-0.108505
-0.124287
-0.138062
-0.111181
-0.100275
0.007055
-0.127560
-0.137960
-0.025111
-0.069584
-0.060737
-0.096539
-0.112929
-0.036211
-0.083500
-0.030140
-0.093955
-0.036401
-0.083123
-0.033579
-0.074887
-0.072835
-0.017110
-0.087666
-0.049949
-0.041940
-0.061402
-0.077567
-0.099982
-0.104349
-0.040484
-0.047120
0.025504
-0.036520
0.026485
0.020809
0.040677
0.012774
-0.023602
0.033742
0.069680
0.113351
0.124583
0.061664
0.005249
0.088496
0.060301
0.170194
0.102485
0.132918
0.166425
0.162201
0.048200
0.078510
0.217766
0.020273
0.052946
0.043810
0.039772
0.038552
-0.028492
-0.051565
0.103858
-0.049099
-0.088334
0.034463
-0.074447
-0.049754
-0.068530
-0.102366
-0.173103
-0.150470
-0.018389
-0.100626
0.018308
-0.094519
-0.035128
-0.101620
-0.174159
-0.076213
-0.069581
0.021850
0.237344
0.489420
0.730050
1.048767
1.289743
1.240958
1.057500
0.741871
0.345286
0.012017
-0.143413
-0.263488
-0.272752
-0.142164
-0.119905
-0.162051
-0.107641
0.018581
-0.102957
0.076310
0.118990
-0.011143
-0.029387
0.018877
0.028951
0.044738
0.057485
0.101316
0.025441
0.179304
0.102333
0.150381
0.167896
0.232035
0.225694
0.234760
0.294629
0.226793
0.311058
0.274023
0.377004
0.321317
0.399285
0.482086
0.426605
0.366117
0.406922
0.495670
0.431219
0.404932
0.473980
0.490900
0.495550
0.484371
0.460283
0.376190
0.366122
0.437803
0.321872
0.405657
0.487244
0.420466
0.382887
0.295894
0.177438
0.207080
0.254212
0.258507
0.108738
0.248931
0.158847
0.136788
0.149460
0.172093
0.116982
0.078578
0.088751
0.017930
0.112099
-0.007405
-0.050447
-0.068100
-0.071383
0.033615
-0.003678
-0.028973
-0.101378
-0.127841
-0.037508
0.000327
-0.043519
-0.018578
0.028896
-0.017644
-0.028195
0.038916
-0.002771
0.010622
-0.084636
-0.061020
0.007710
-0.083983
0.021034
-0.010932
-0.032306
-0.046490
-0.010947
0.019199
-0.105536
-0.048542
-0.048269
-0.062319
-0.112270
-0.037637
-0.011849
0.001373
-0.055487
-0.033405
-0.006107
0.000616
-0.003264
-0.003340
-0.037976
0.007362
-0.040516
-0.022890
0.017262
-0.064780
-0.065394
-0.025366
0.018067
-0.022866
0.031342
0.081581
0.029065
0.057785
0.072343
0.045701
0.009944
0.125892
0.065652
0.043300
0.085484
0.052565
0.095190
0.124918
0.095125
0.118203
0.103077
0.137314
0.154369
0.186524
0.213485
0.135241
0.169653
0.198138
0.090247
0.162134
0.179157
0.172588
0.145905
0.193893
0.044224
0.098615
0.045867
0.100095
0.087973
0.076479
0.029919
0.013411
0.035568
0.086477
0.045072
0.012208
0.034736
-0.022290
-0.010828
0.083117
0.010261
-0.034093
0.015061
-0.034202
0.050798
0.011541
0.095589
0.293247
0.450522
0.808192
1.175892
1.348694
1.340815
1.210392
0.880912
0.501458
0.148867
-0.099320
-0.267635
-0.121882
-0.111520
-0.005429
0.027702
-0.046476
-0.052339
0.118375
0.055417
0.065070
0.017324
0.061789
0.096746
0.158027
0.125136
0.202681
0.124445
0.213177
0.203270
0.251126
0.218671
0.254301
0.259470
0.328802
0.325061
0.304159
0.345313
0.342807
0.363158
0.425063
0.393811
0.449973
0.514869
0.455052
0.514340
0.484371
0.431321
0.500589
0.435571
0.561264
0.505118
0.492303
0.548698
0.473125
0.521542
0.504967
0.491797
0.443954
0.489596
0.437131
0.418892
0.380449
0.431832
0.399673
0.367884
0.346035
0.197451
0.309048
0.256663
0.264689
0.245994
0.212084
0.189200
0.156272
0.170014
0.147113
0.121791
0.099542
0.268678
0.135478
0.051003
0.161675
0.129942
0.059160
0.077883
0.074041
-0.041012
0.044485
0.094713
-0.004695
0.096360
0.039450
0.026087
-0.000590
0.100175
0.019502
0.075446
0.014818
0.014860
-0.001742
0.097079
0.018324
0.053772
-0.000359
0.049252
0.060756
0.000741
0.079851
0.068725
0.061327
-0.036324
0.030750
0.110857
0.029734
-0.005474
0.034244
-0.015749
0.115647
0.122840
0.036124
0.044601
0.082724
0.070903
0.085863
0.017403
0.005357
-0.028140
0.026851
0.070267
0.103125
0.069443
0.101422
0.101557
0.056062
0.057660
0.105642
0.073790
0.183028
0.104555
0.180669
0.160457
0.132801
0.133041
0.180738
0.264734
0.139099
0.174331
0.248015
0.172447
0.247307
0.211985
0.239126
0.174911
0.198122
0.299063
0.117784
0.236433
0.262480
0.144274
0.117983
0.113803
0.210891
0.177656
0.088618
0.120300
0.051300
0.046173
0.074596
0.044563
0.154040
0.067911
0.166336
0.022756
0.075214
0.034592
0.086649
0.081505
0.134289
0.102117
0.051933
0.081101
-0.011260
0.102733
0.128945
0.270478
0.499723
0.752907
1.120743
1.340500
1.359558
1.280172
1.020128
0.597615
0.224000
-0.000344
-0.100319
-0.081386
-0.131487
-0.103781
-0.139796
0.069604
0.017382
0.083648
0.081975
0.099910
0.156480
0.131781
0.055643
0.077451
0.158361
0.158016
0.035352
0.177557
0.228567
0.143059
0.112474
0.271977
0.234874
0.291706
0.297727
0.343153
0.356291
0.295351
0.378307
0.387223
0.413482
0.489179
0.479595
0.460737
0.477797
0.480418
0.584726
0.531236
0.515757
0.591574
0.511729
0.469805
0.474790
0.462418
0.000000
0.000000
0.000000
0.000000
0.000000
0.000000
0.000000
0.000000
0.000000
0.000000
0.000000
0.000000
0.000000
0.000000
0.000000
0.000000
0.000000
0.000000
0.000000
0.000000
0.000000
0.000000
0.000000
0.000000
0.000000
0.000000
0.000000
0.000000
0.000000
0.000000
0.000000
0.000000
0.000000
0.000000
0.000000
0.000000
0.000000
0.000000
0.000000
0.000000
0.000000
0.000000
0.000000
0.000000
0.000000
0.000000
0.000000
0.000000
0.000000
0.000000
0.002642
-0.005650
0.015374
-0.036003
-0.075191
0.016543
-0.057768
-0.034318
-0.024656
-0.028723
-0.056738
-0.060880
0.027652
0.062836
0.030113
-0.025260
0.001527
0.025384
-0.074458
-0.032289
-0.035063
-0.031810
-0.037893
-0.077802
-0.027208
0.002265
-0.102304
0.045801
-0.040496
0.011299
-0.014007
0.028110
0.007521
0.007644
0.132997
0.119549
0.124196
0.024520
0.108247
0.052209
0.110540
0.121447
0.106450
0.179405
0.185001
0.190736
0.102146
0.226875
0.105416
0.103058
0.125595
0.189528
0.182460
0.144652
0.031448
0.061174
0.143797
0.107900
0.047893
0.078969
0.024225
0.033759
-0.043620
-0.012925
0.000823
-0.077944
-0.042155
-0.054355
-0.040636
-0.038109
-0.017759
-0.065396
-0.010159
-0.122678
-0.035016
0.009841
0.016927
-0.045606
-0.096116
0.041338
0.154833
0.343655
0.666911
1.026792
1.211380
1.292677
1.255620
0.913275
0.557395
0.251125
-0.033665
-0.112416
-0.165825
-0.187880
-0.113610
-0.053046
-0.097618
-0.081648
0.000379
-0.014741
-0.020351
0.000250
-0.004599
0.001409
0.028939
0.066717
0.056014
0.018778
0.098485
0.094218
0.148700
0.111794
0.165455
0.211147
0.160190
0.249762
0.225545
0.250005
0.333516
0.256613
0.343561
0.343833
0.341964
0.323924
0.398534
0.404354
0.441774
0.419204
0.376687
0.390793
0.441228
0.437018
0.434995
0.448336
0.414888
0.462358
0.317662
0.375670
0.356166
0.314242
0.401807
0.302477
0.377757
0.334751
0.255672
0.296471
0.168608
0.220576
0.209749
0.139094
0.121825
0.197511
0.107198
0.149111
0.099099
0.127331
0.062870
0.046211
-0.001105
0.048772
0.023616
-0.089384
-0.009935
0.031610
-0.052064
-0.020900
-0.006068
-0.146107
-0.090888
-0.056492
-0.000991
-0.077591
-0.095587
-0.047272
-0.076586
-0.035032
-0.067581
-0.064528
-0.078769
-0.098139
-0.055112
-0.128912
-0.088097
-0.145096
-0.096776
-0.192533
-0.073928
-0.062951
-0.119526
-0.135063
-0.053337
-0.069941
-0.102001
-0.215554
-0.080667
-0.138249
-0.051378
-0.088629
-0.097556
-0.133092
-0.062123
-0.091705
-0.135094
-0.050344
-0.055827
-0.063953
-0.034171
-0.092497
-0.075953
-0.137818
-0.074850
-0.058616
-0.081838
-0.064112
-0.091104
-0.142937
-0.130781
-0.129881
0.016461
-0.010846
0.028262
-0.055074
-0.055557
-0.010707
-0.031600
0.014605
0.078780
0.019161
0.025405
0.044560
0.003507
0.054846
0.056660
0.118682
0.077400
0.074982
0.111955
0.023830
-0.003625
0.074810
0.065602
0.026998
0.091907
-0.076673
-0.014622
-0.051179
0.045912
-0.066622
-0.029123
-0.037407
-0.091755
-0.101248
-0.024422
-0.096531
-0.076752
-0.055728
-0.102028
-0.052573
-0.047649
-0.087917
-0.121071
-0.167195
-0.112358
-0.037350
-0.025133
-0.022185
0.333017
0.558506
0.812845
1.137495
1.313334
1.188974
0.919515
0.579524
0.332797
-0.052833
-0.281312
-0.306221
-0.225586
-0.172765
-0.119167
-0.111728
-0.066753
-0.075957
-0.015585
-0.050553
-0.085732
0.028265
0.006043
-0.056607
-0.008101
0.080377
0.027412
0.111800
0.039091
0.077090
0.178463
0.177317
0.119270
0.099864
0.149982
0.174178
0.209051
0.308447
0.205128
0.274196
0.341984
0.349462
0.423072
0.413897
0.407170
0.367446
0.516807
0.401813
0.416954
0.401555
0.440403
0.463165
0.424826
0.417438
0.389459
0.400662
0.387015
0.400422
0.368567
0.404177
0.296237
0.345772
0.314590
0.264895
0.216106
0.187561
0.215026
0.177393
0.195839
0.140709
0.134450
0.099580
0.066240
0.079214
0.101261
0.154543
0.056828
0.003618
0.010074
-0.007257
-0.034976
0.080851
-0.055305
-0.046070
-0.091957
-0.075206
-0.081118
-0.021628
0.035763
-0.064272
-0.029254
-0.045038
-0.003907
-0.101545
-0.091604
0.000863
-0.017275
-0.046062
-0.051515
-0.071122
-0.138497
-0.067800
-0.095125
-0.103872
-0.136832
0.008423
0.000873
-0.091266
-0.112909
-0.009303
-0.015408
-0.093786
-0.045397
-0.118184
-0.048114
-0.025607
-0.072328
-0.104308
-0.072696
0.039473
-0.001789
-0.118592
-0.013140
0.049969
-0.050680
-0.043207
-0.004251
-0.033117
0.015017
-0.024923
0.033292
0.003331
-0.033359
-0.072178
-0.046365
0.015272
0.068665
0.002058
0.040139
0.088537
0.018849
0.062902
0.102165
0.157007
0.146614
0.101389
0.173385
0.104423
0.158383
0.097859
0.127582
0.155942
0.126642
0.197172
0.115715
0.113284
0.092149
0.149760
0.100813
0.103803
0.096973
0.078955
0.096483
0.138512
0.087701
0.102093
0.084206
0.100378
-0.005923
0.024505
0.041983
-0.024173
0.043160
-0.014850
-0.003946
-0.009562
-0.045714
0.065579
-0.001668
-0.014787
0.012441
-0.019017
-0.002881
-0.042283
0.132900
0.351795
0.644760
0.848847
1.206336
1.280834
1.302153
1.070723
0.795973
0.375329
0.128558
-0.092411
-0.165074
-0.239873
-0.016158
-0.026890
0.024764
0.047051
0.106048
0.032498
0.060094
0.070723
0.078418
0.201009
0.155950
0.146491
0.126446
0.130131
0.156841
0.178989
0.204271
0.182965
0.150581
0.272395
0.312798
0.305103
0.259088
0.402893
0.344578
0.394376
0.484762
0.381941
0.469944
0.440974
0.440866
0.563500
0.507332
0.448632
0.499262
0.572413
0.495460
0.549296
0.555155
0.537203
0.606222
0.543829
0.429001
0.491529
0.445592
0.495077
0.446667
0.487037
0.445558
0.466778
0.348861
0.460665
0.365851
0.407258
0.320305
0.276374
0.325622
0.251414
0.322535
0.144789
0.177039
0.263527
0.176423
0.231505
0.119891
0.164649
0.107672
0.104029
0.083319
0.071695
0.084370
0.097253
0.127998
0.143003
0.077282
0.032765
0.108706
0.113324
0.080893
0.008133
0.042510
0.069753
0.083934
0.070303
0.049324
0.029181
0.011725
0.021956
0.031628
0.052920
0.049656
0.008571
0.057913
0.011181
0.070204
0.108686
0.080885
0.057041
0.063493
0.121583
0.038933
0.042501
0.079532
-0.018319
0.030282
0.088213
0.047969
0.025047
0.048606
0.040459
0.094662
0.009092
0.079323
0.071833
0.112430
0.095582
0.078909
0.085608
0.063242
0.072475
0.091463
0.051941
0.032515
0.172219
0.064621
0.176329
0.168591
0.173476
0.156807
0.126991
0.176833
0.187635
0.147120
0.212027
0.217143
0.318164
0.164611
0.255951
0.207632
0.254182
0.290786
0.248752
0.256009
0.233861
0.246749
0.219232
0.146536
0.136442
0.187544
0.179394
0.166474
0.162356
0.050796
0.117035
0.095007
0.113922
0.046710
0.099080
0.117245
0.009575
0.105735
0.152479
0.108053
0.131069
0.070803
0.130631
0.035851
0.121411
0.067037
0.094677
0.138830
0.170323
0.332241
0.704674
0.909370
1.221096
1.446421
1.377743
1.223544
0.910972
0.586576
0.196736
-0.022111
-0.142118
-0.154212
-0.045826
0.016056
-0.005168
0.127419
0.184729
0.092373
0.093495
0.147391
0.125532
0.182048
