0.053007
0.049584
0.053997
0.024521
-0.008979
0.020313
0.060607
-0.008127
-0.001147
-0.005418
-0.050929
0.047502
0.099432
0.051664
-0.009103
0.046440
-0.005524
0.007732
-0.003637
0.014778
0.062415
0.089314
0.089415
-0.043011
0.024792
0.006892
0.066001
0.045143
0.116516
0.090113
0.052470
0.024263
0.030594
0.099175
0.006385
0.103122
0.129225
0.168279
0.097923
0.195510
0.144077
0.095623
0.154368
0.197628
0.217135
0.211353
0.271687
0.173583
0.208338
0.212286
0.149354
0.163965
0.227392
0.161859
0.210115
0.210826
0.092336
0.124005
0.075729
0.160533
0.103438
0.176434
0.115961
0.139139
0.102130
0.081898
0.090904
0.068867
0.100866
0.100020
-0.014915
0.137916
0.068555
0.052397
0.049964
0.061874
0.085566
0.070508
0.000430
0.076684
-0.000001
0.057361
0.016409
0.098655
0.060708
0.096705
0.013141
0.037329
0.052740
-0.011960
-0.064663
0.035123
0.288390
0.484080
0.810160
1.121864
1.318100
1.429654
1.387639
1.062780
0.775082
0.346194
0.109229
-0.071027
-0.222063
-0.251120
-0.167578
-0.101110
-0.019925
-0.000198
0.063476
-0.011699
0.061842
0.114334
0.069553
0.076945
0.112029
0.103990
0.121577
0.043574
0.020019
0.042415
0.126095
0.072486
0.202352
0.151737
0.169770
0.104304
0.222877
0.195441
0.144164
0.165316
0.237353
0.210634
0.243795
0.291028
0.257665
0.281888
0.286783
0.342479
0.283028
0.352185
0.386007
0.380095
0.356988
0.389684
0.440699
0.483551
0.498743
0.432782
0.547019
0.469437
0.559639
0.549208
0.592377
0.517483
0.563787
0.526882
0.540826
0.589401
0.490105
0.565301
0.575772
0.590012
0.548845
0.518342
0.565240
0.492544
0.475805
0.491189
0.393318
0.474992
0.359719
0.345172
0.291448
0.232454
0.291058
0.345525
0.266627
0.264409
0.268397
0.231748
0.279441
0.195935
0.139679
0.184775
0.196927
0.117629
0.187550
0.045363
0.091530
0.151702
0.056751
0.155321
0.114698
0.045471
0.098387
0.142137
0.075663
0.105070
0.086857
0.107344
0.103309
0.152456
0.082306
0.082823
0.015502
0.084306
0.094377
0.019905
0.071122
0.139116
0.097284
0.078912
0.098817
0.067211
0.112170
0.016924
0.122536
0.039215
0.079568
0.027648
0.089743
0.010466
0.127275
0.095560
0.078896
0.051716
0.079594
0.014619
0.114057
0.057538
0.096131
0.020897
0.174095
0.114993
0.087026
0.093001
0.067883
0.052754
0.123761
0.082152
0.080522
0.091654
0.134664
0.092327
0.083691
0.041035
0.019685
0.065214
0.081595
0.104972
0.018197
0.105674
0.021949
0.148940
0.095511
0.075950
0.143022
0.066599
0.069842
0.072153
0.133684
0.061593
0.010850
0.006574
0.117738
0.134421
0.112785
0.064073
0.132013
0.071330
0.100442
0.110223
0.118882
0.170833
0.078006
0.133208
0.144405
0.163893
0.209658
0.142465
0.214172
0.167410
0.183687
0.227755
0.217402
0.271022
0.250625
0.277502
0.214782
0.262537
0.256341
0.305993
0.188369
0.179139
0.207007
0.186035
0.171703
0.215017
0.115814
0.163620
0.144406
0.041013
0.094205
0.173337
0.147792
0.102649
0.072566
0.023605
0.056884
0.033993
0.098962
0.084129
0.081041
0.053118
0.085607
0.047506
0.061535
0.074109
0.066111
-0.002809
0.071612
0.117243
0.069130
-0.015496
0.167048
-0.000384
0.057675
-0.024435
-0.024843
-0.020709
0.063742
0.085687
0.267781
0.544643
0.756394
1.185067
1.363440
1.430135
1.297673
1.098455
0.774785
0.360620
0.151079
-0.036598
-0.292852
-0.316125
-0.210332
-0.142129
-0.045637
-0.040213
0.060890
0.064685
-0.054046
0.013217
0.072404
0.078016
0.023263
0.028594
-0.009902
0.003033
0.046451
0.011184
0.088066
0.053489
0.012314
0.108342
0.096396
0.146509
0.039722
0.103114
0.180569
0.154398
0.207173
0.133561
0.180105
0.151628
0.228676
0.288183
0.216244
0.279148
0.330579
0.304014
0.284291
0.332171
0.353039
0.392282
0.322118
0.389819
0.505455
0.470541
0.550925
0.416396
0.466509
0.501071
0.428240
0.539918
0.546220
0.535724
0.604149
0.550171
0.489037
0.514447
0.452013
0.433004
0.460686
0.470392
0.452314
0.485913
0.418186
0.420330
0.268811
0.299317
0.365066
0.278428
0.229331
0.261366
0.266882
0.231013
0.224222
0.136895
0.203369
0.080945
0.060424
0.179468
0.169315
0.151359
0.019272
0.036198
0.062655
0.145832
0.055027
0.075468
0.068343
0.072956
0.027883
-0.008392
-0.018049
-0.025043
0.077399
0.032797
-0.045685
-0.078522
0.017106
0.044316
-0.009353
0.040339
-0.008249
-0.054458
-0.016407
-0.089941
0.012361
-0.049691
-0.001795
-0.037091
0.057501
0.006400
-0.025918
0.049393
-0.027258
-0.052977
-0.034853
-0.034295
-0.024039
-0.033635
0.042990
-0.059040
-0.014334
0.017494
-0.066043
0.015837
-0.004627
0.074620
-0.014594
-0.094689
0.012756
-0.066477
-0.056311
-0.010292
-0.012970
-0.032148
-0.071878
-0.040712
0.039679
0.007626
0.019195
-0.041076
0.011290
-0.009532
-0.023765
-0.007571
0.020818
-0.043401
-0.067662
-0.008052
0.032291
-0.103203
-0.057360
-0.017028
-0.024574
0.020035
-0.070626
-0.012995
-0.020144
-0.005882
-0.038547
-0.168756
-0.040108
0.046586
0.034120
0.011331
-0.053591
-0.033845
-0.011880
-0.015133
0.098985
-0.014787
0.019346
-0.016604
0.030362
0.039045
0.044703
0.055832
0.016633
0.114124
0.158373
0.142910
0.116210
0.130706
0.150475
0.144376
0.099275
0.111502
0.100454
0.222662
0.155387
0.126965
0.118109
0.155998
-0.006883
0.138025
0.039201
0.133583
0.059310
-0.001575
0.009686
0.029062
0.085653
-0.101869
0.021100
-0.003804
0.014474
-0.059723
-0.096247
0.018176
-0.035634
0.011590
-0.082153
-0.089134
-0.035862
-0.044344
-0.069117
0.005662
-0.012023
-0.012176
-0.019551
-0.038924
-0.005906
-0.008465
-0.041483
-0.072658
-0.105686
-0.066379
-0.039411
0.005541
0.168711
0.420112
0.777101
1.068961
1.347920
1.399447
1.215509
0.932959
0.547655
0.311563
-0.002080
-0.226442
-0.347321
-0.315206
-0.271739
-0.113248
-0.164312
-0.148115
-0.068219
0.026071
-0.032986
-0.039356
-0.112202
-0.010507
-0.015354
-0.037168
-0.006489
-0.047211
0.009148
-0.012607
0.045486
0.044393
0.021658
0.072344
0.005908
-0.033165
0.049456
0.075225
0.057993
0.017685
0.146599
0.079531
0.116333
0.147058
0.176677
0.224977
0.170509
0.190501
0.213200
0.229609
0.250649
0.276187
0.297160
0.326202
0.416218
0.343050
0.466092
0.425230
0.408310
0.477099
0.463482
0.500884
0.488321
0.458040
0.445311
0.460253
0.472632
0.446332
0.437150
0.484839
0.397204
0.378262
0.471544
0.469741
0.331706
0.434369
0.390042
0.380326
0.293078
0.263515
0.305622
0.293945
0.235361
0.205061
0.222151
0.213686
0.127544
0.201576
0.160952
0.118713
0.114336
0.126022
0.124546
0.128241
0.118527
0.042038
0.029224
0.053763
0.111608
-0.017232
0.076970
0.041666
0.025395
-0.010224
-0.023628
0.014472
0.001262
0.017397
0.026924
0.005897
-0.011684
-0.028127
0.012127
0.092152
0.035297
0.015842
0.009218
-0.017732
-0.004390
0.009995
-0.001210
-0.035197
-0.043884
-0.064991
0.069919
0.020034
0.059410
-0.060261
0.040557
-0.008608
0.003283
0.047139
0.049270
0.008452
0.058816
-0.069245
0.003689
-0.020278
0.037521
-0.014613
-0.040733
0.012407
-0.028179
-0.050959
0.009042
-0.018436
0.031871
-0.019268
-0.001839
-0.011961
-0.016896
0.030085
0.004587
0.008931
0.046544
0.013117
0.009802
-0.074411
0.056227
0.084973
-0.015565
0.040366
0.054251
0.053221
0.042917
-0.064350
-0.013627
-0.004054
0.118082
0.007428
-0.012450
-0.020705
0.075159
0.020914
0.030642
0.040839
0.070150
0.023188
0.054354
0.074645
0.027202
0.076482
0.041421
0.091801
0.055855
0.048883
0.161071
0.138277
0.110130
0.075129
0.144709
0.123816
0.147358
0.272077
0.158776
0.261588
0.162742
0.184759
0.280813
0.217619
0.181931
0.227309
0.228840
0.226897
0.211572
0.138124
0.131670
0.157749
0.220162
0.139166
0.156366
0.099551
0.070193
0.082879
0.119588
0.075345
0.056562
0.057670
-0.003719
0.072994
0.059959
0.078724
0.060005
-0.011165
0.107630
0.095178
0.048494
0.046237
0.086889
0.059310
0.187506
0.091011
0.081309
0.014271
0.009453
0.064581
0.023669
0.032766
-0.039526
-0.091999
0.001225
0.097528
0.276980
0.583410
0.909675
1.176451
1.500000
1.439699
1.312377
1.075879
0.702542
0.295393
0.081287
-0.116511
-0.210792
-0.259395
-0.156728
-0.022107
-0.073705
-0.023235
0.045849
0.055216
0.118305
0.083571
0.053510
0.110287
0.086308
0.140323
0.058333
0.110917
0.068360
0.137551
0.129849
0.124626
0.074127
0.188923
0.107877
0.082040
0.176689
0.177384
0.122382
0.123258
0.248870
0.283287
0.230214
0.192085
0.240003
0.283143
0.347869
0.375967
0.421465
0.406335
0.298113
0.318319
0.361440
0.338240
0.423928
0.455962
0.493008
0.509165
0.583209
0.463763
0.577378
0.442133
0.571663
0.523273
0.623910
0.529583
0.561002
0.624788
0.571515
0.607066
0.507026
0.512353
0.469022
0.407448
0.550678
0.507660
0.514927
0.424626
0.473595
0.432141
0.386284
0.387458
0.443311
0.357263
0.361688
0.346934
0.288727
0.239014
0.340525
0.137701
0.273107
0.232017
0.233429
0.160459
0.241775
0.104783
0.065509
0.210437
0.185290
0.108876
0.078798
0.141565
0.133426
0.084931
0.044503
0.101185
0.156999
0.153455
0.091778
0.113279
0.196551
0.109821
0.107058
0.143728
0.162968
0.103131
0.124875
0.107968
0.131675
0.000736
0.055893
0.076247
0.110717
0.056093
0.126171
0.011825
0.104726
0.074338
0.077338
0.008808
0.072583
0.062207
0.139862
0.100256
0.120248
0.096669
0.127576
0.059090
0.081457
0.049188
0.121057
0.093151
0.150271
0.068658
0.089300
0.098641
0.063077
0.080304
0.106596
0.014785
0.126323
0.031494
0.084584
0.074943
0.141509
0.114265
0.022288
0.111564
0.029835
0.079486
0.088540
0.027402
0.076646
0.090021
0.096420
0.098949
0.036726
0.098618
0.096983
0.048867
0.053124
0.076677
0.028358
0.076179
0.154433
0.080609
0.107324
0.149943
0.110399
0.199732
0.104898
0.168177
0.136840
0.177650
0.137821
0.188398
0.166344
0.155770
0.215852
0.129167
0.180449
0.209068
0.202586
0.243658
0.200335
0.176538
0.240324
0.277790
0.286649
0.173847
0.275574
0.256905
0.279646
0.133629
0.176300
0.211565
0.200281
0.139518
0.190828
0.189703
0.174675
0.183520
0.154859
0.141124
0.099634
0.054065
0.112223
0.063233
0.051197
0.040564
0.131644
0.100450
0.141864
0.000871
0.081626
0.061923
0.113370
0.134233
0.117425
0.085908
0.138275
0.050290
0.041536
0.046244
0.061061
-0.007621
-0.041010
0.015375
0.076750
0.004346
0.033911
0.122346
0.299217
0.549621
0.904581
1.273922
1.442779
1.476238
1.283722
0.972812
0.677082
0.355894
0.033889
-0.135401
-0.134754
-0.252959
-0.236407
-0.057778
-0.032106
-0.044341
0.017560
0.107932
0.068290
0.000963
0.073529
-0.004807
0.054889
0.032820
0.025226
0.050177
0.162934
0.038819
-0.087351
0.065921
0.043722
0.118055
0.131983
0.034845
0.185113
0.094616
0.107124
0.121900
0.140258
0.174226
0.194377
0.136744
0.260257
0.175190
0.327944
0.277660
0.217384
0.353906
0.355419
0.351916
0.399454
0.390040
0.440133
0.422034
0.404198
0.421134
0.445616
0.400721
0.485677
0.490622
0.550243
0.493595
0.489455
0.581943
0.504870
0.482450
0.494745
0.517912
0.508509
0.479166
0.418996
0.421168
0.439988
0.411883
0.433828
0.355497
0.349578
0.293784
0.334820
0.237248
0.360843
0.256130
0.241129
0.256626
0.243410
0.189387
0.203901
0.161905
0.100608
0.046938
0.123600
0.088377
0.083400
0.070697
0.032812
0.083165
0.044657
0.026729
-0.020520
0.002344
0.018011
-0.000458
0.021155
-0.023207
0.064334
0.080056
-0.010414
-0.013375
-0.032918
-0.036171
-0.013367
0.040550
-0.078994
-0.000575
0.055105
-0.027333
-0.018242
-0.048502
-0.073057
-0.005484
0.008475
-0.042044
-0.018730
-0.082729
0.005487
-0.066589
-0.048134
-0.092979
-0.018240
-0.018366
-0.014658
0.043993
-0.027438
-0.042559
-0.034374
-0.032335
-0.039194
-0.094550
-0.027846
0.023690
-0.034448
-0.049607
0.001370
0.036022
-0.006644
-0.094680
-0.041504
-0.019620
-0.046995
-0.039979
-0.145629
0.006376
-0.070359
-0.036418
-0.008458
0.016714
0.005583
-0.007652
-0.103439
-0.053236
-0.058715
-0.042640
-0.094854
-0.105961
-0.115668
-0.107051
-0.087078
-0.025640
0.007617
-0.040844
-0.025529
-0.057533
-0.046292
-0.022226
-0.034668
-0.008688
0.001325
0.002438
0.001645
-0.002617
0.012219
0.104573
0.038738
0.078008
0.061699
0.090424
0.082464
-0.010964
0.020406
0.044603
0.133631
0.094792
0.088831
0.188335
0.158913
0.219094
0.118824
0.096065
0.073366
0.148421
0.064073
0.126184
0.002854
0.065069
0.014373
0.138473
-0.041446
0.010669
-0.028067
0.025493
-0.029873
-0.007108
-0.023082
0.021345
0.016753
0.059614
-0.058118
-0.005286
-0.053551
-0.010671
-0.097634
-0.100104
-0.075990
-0.023930
-0.036511
-0.081516
-0.037027
-0.065512
0.018834
-0.121863
-0.036728
-0.087330
-0.019761
-0.020684
-0.088368
-0.063442
-0.056345
-0.156708
-0.121126
0.009905
0.214179
0.466212
0.765876
1.123703
1.294226
1.324196
1.147229
0.892163
0.523326
0.205961
-0.079401
-0.295371
-0.302846
-0.382356
-0.337355
-0.244921
-0.110951
-0.125102
-0.111544
-0.067943
-0.117546
-0.041458
-0.099476
-0.080828
-0.078103
-0.091021
-0.161644
-0.102420
-0.027692
-0.069160
-0.010165
-0.061592
-0.048429
-0.049925
-0.009296
-0.076349
-0.044798
-0.020998
-0.014973
0.139634
0.023439
0.102419
0.055203
0.209716
-0.024526
0.119928
0.120621
0.088827
0.150079
0.180635
0.255891
0.237786
0.205472
0.302247
0.234591
0.349039
0.298539
0.349264
0.361763
0.315430
0.469101
0.427164
0.411319
0.446474
0.361284
0.447692
0.445221
0.347449
0.441747
0.411193
0.374837
0.347974
0.397694
0.378277
0.358897
0.298809
0.307623
0.328123
0.331696
0.199690
0.180106
0.189825
0.161226
0.245921
0.164672
0.061721
0.191004
0.138530
0.110728
0.052925
0.030659
-0.008536
-0.012183
-0.018645
0.006945
-0.029445
-0.009992
-0.116589
-0.044376
-0.072863
0.022791
-0.010430
-0.114097
-0.123590
-0.144969
-0.050301
-0.018006
-0.077279
-0.094815
-0.037760
-0.024276
-0.050940
-0.137078
-0.042831
-0.022325
-0.072037
-0.174187
-0.126869
-0.067752
-0.070135
-0.010300
-0.036095
-0.093009
-0.051764
-0.044942
-0.115215
-0.100733
-0.045697
-0.034013
-0.067093
-0.012541
-0.096341
-0.079227
-0.099955
-0.089414
-0.097987
-0.070728
-0.046476
-0.022660
-0.078147
-0.034171
0.012002
-0.105440
-0.032222
-0.046032
-0.096088
-0.114194
-0.023503
-0.044347
-0.069204
-0.054991
-0.045625
-0.081020
-0.075672
-0.046468
-0.062988
-0.068776
-0.124268
-0.031956
0.016263
-0.011274
-0.016207
0.031419
-0.055138
-0.001858
-0.080336
-0.052381
-0.012469
0.020959
-0.093617
-0.090587
-0.023996
-0.046311
0.000903
-0.023390
0.045668
-0.057938
-0.036825
0.043793
0.038237
-0.020921
-0.003724
-0.022582
0.089785
0.102710
-0.003660
0.044219
0.027718
0.119047
0.060208
0.024988
0.114854
0.154602
0.158906
0.127953
0.146262
0.083742
0.221718
0.119581
0.198925
0.176591
0.145245
0.149406
0.126207
0.080499
0.077446
0.037618
0.035019
0.073267
0.015170
0.069305
0.003448
0.116037
0.052881
-0.010366
0.083838
0.044391
0.038162
-0.010134
0.032985
0.008303
0.060874
-0.026133
0.013844
0.020175
-0.022993
-0.018650
0.034851
0.043280
-0.040992
-0.045445
0.026548
-0.014808
-0.039636
-0.038122
-0.036864
-0.087336
-0.000803
-0.050784
-0.046534
0.018574
0.064809
0.286938
0.573489
0.884184
1.274592
1.392302
1.418481
1.073757
0.931172
0.605366
0.276717
-0.109216
-0.156045
-0.324422
-0.257153
-0.224690
-0.145032
-0.093940
-0.034510
-0.004399
0.000015
0.047818
0.093086
0.021043
0.015989
0.013228
0.017590
0.028282
0.025724
-0.019756
0.020359
0.079014
0.061567
0.049562
0.054615
0.087006
0.000146
0.152668
0.043170
0.052080
0.150232
0.127435
0.205831
0.159203
0.245583
0.216102
0.240741
0.225289
0.228339
0.285011
0.252502
0.271997
0.354239
0.381439
0.352707
0.436978
0.431518
0.460688
0.433850
0.492316
0.501333
0.498354
0.558864
0.509158
0.486636
0.600166
0.511577
0.566734
0.509432
0.532085
0.517012
0.437663
0.473164
0.447254
0.375326
0.338236
0.427580
0.419142
0.413464
0.375418
0.355583
0.360223
0.285180
0.283482
0.265039
0.256427
0.276924
0.147765
0.188608
0.188075
0.259917
0.101249
0.182871
0.176999
0.099203
0.144141
0.134801
0.147715
0.150550
0.022708
0.048471
0.135638
0.059528
0.080391
0.035638
0.046409
0.013069
0.146551
0.006859
0.082919
0.049889
-0.022791
0.024804
-0.042067
0.047461
0.074410
0.135595
0.068762
0.037057
0.060171
0.071763
0.144796
0.008878
0.033471
0.053444
0.022347
0.036769
0.101984
0.046878
-0.017795
0.110812
0.114834
0.038180
0.047288
0.014396
-0.047156
0.098586
0.062898
0.031753
0.091474
0.054584
0.066181
0.025067
0.030362
0.028273
0.023580
-0.016064
-0.013573
0.031335
-0.002059
0.012637
0.031483
0.033510
0.063518
0.077237
-0.064809
0.049535
0.047657
0.040766
0.059644
0.048632
0.017969
0.024056
0.142242
0.032755
0.038833
-0.025698
0.073145
0.047528
-0.021716
0.048850
0.002767
-0.035414
-0.037472
0.053231
-0.004823
0.061634
0.043104
0.058361
0.083701
0.057528
0.109525
0.072268
0.071389
0.131678
0.125962
0.164756
0.175101
0.090442
0.175385
0.063688
0.184321
0.199196
0.184714
0.280896
0.200879
0.164741
0.152392
0.258884
0.154527
0.252351
0.173283
0.255383
0.236794
0.160726
0.171085
0.198174
0.186041
0.097534
0.152383
0.135326
0.219463
0.144645
0.108840
0.071020
0.065330
0.099272
-0.011482
0.030952
0.099351
0.006592
0.034772
0.016571
0.096401
0.118659
0.060151
-0.007262
0.035510
-0.023708
0.039361
0.080876
0.079861
0.014980
0.008444
0.088839
0.084534
-0.000587
-0.017848
-0.026464
-0.093318
-0.031781
-0.022609
0.104427
0.350975
0.651163
1.015580
1.295682
1.366381
1.316953
1.150530
0.941307
0.569221
0.228696
0.030421
-0.128884
-0.274176
-0.277353
-0.238514
-0.125910
-0.124786
0.037306
0.074857
-0.002743
0.009075
0.030605
0.040315
0.089501
0.070215
0.093338
-0.050669
-0.010825
0.056679
0.051859
0.036046
0.044451
0.032025
0.111916
0.025037
0.091266
0.043757
0.131771
0.098681
0.057961
0.165204
0.092598
0.144390
0.156119
0.217609
0.181947
0.298075
0.226477
0.304148
0.234856
0.310961
0.329184
0.363895
0.364043
0.375278
0.388071
0.503298
0.490091
0.395317
0.508053
0.469378
0.551017
0.652787
0.526711
0.585721
0.484248
0.482201
0.448815
0.449136
0.440593
0.505221
0.467935
0.493779
0.477683
0.314255
0.424445
0.376906
0.335323
0.314497
0.324861
0.320463
0.270755
0.290781
0.143618
0.179378
0.254937
0.203698
0.187558
0.123804
0.128915
0.053137
0.072995
0.077636
0.096289
-0.035375
-0.003068
0.080171
0.073676
0.059664
0.037688
0.093368
-0.084342
0.003731
0.016307
-0.086605
0.049063
0.001939
-0.020322
-0.017514
0.046503
-0.007769
-0.022187
-0.033613
-0.022438
0.019331
-0.064534
0.006744
-0.061910
0.066190
-0.027209
-0.013767
-0.099103
-0.009759
-0.023555
-0.048921
-0.023635
0.001364
-0.092700
-0.072150
0.025717
0.018058
-0.032672
-0.016903
0.023904
-0.052634
0.014881
-0.096907
-0.030752
-0.075492
-0.048743
-0.056361
-0.072368
-0.134988
-0.111226
-0.025176
-0.054134
-0.079358
-0.090816
-0.119894
-0.036950
-0.126638
-0.047774
-0.104682
-0.055787
-0.001755
-0.033076
0.009360
-0.041632
-0.099958
-0.056812
-0.017203
0.003917
-0.055615
-0.111343
-0.079652
-0.084843
-0.082064
-0.067432
0.023453
-0.006199
0.006070
0.005411
-0.074204
-0.057354
-0.074605
0.006632
0.000284
-0.054201
-0.079894
-0.017410
-0.046567
-0.082123
-0.035919
0.016240
-0.010023
0.035299
-0.013446
0.073506
0.097123
0.040156
0.105322
0.090772
0.036362
0.149733
0.104297
0.118744
0.083485
0.045191
0.103660
0.018944
0.144800
0.118702
0.102698
0.083935
0.034143
0.078575
0.064159
-0.021250
0.027503
-0.001788
0.005890
-0.006730
0.009652
-0.087181
-0.024748
0.046418
0.072313
-0.083258
-0.053972
-0.058294
-0.081639
-0.161602
-0.041584
-0.044381
-0.059029
-0.063211
-0.053436
-0.132171
-0.108483
-0.094895
-0.141376
-0.120649
-0.116342
-0.058540
-0.102852
-0.051099
-0.092633
-0.163675
-0.184143
-0.234975
-0.185474
0.088414
0.218341
0.552737
0.820893
1.118020
1.303586
1.291968
1.142734
0.866553
0.426014
0.105095
-0.171656
-0.256521
-0.442868
-0.358203
-0.324915
-0.157826
-0.160655
-0.112219
-0.054823
-0.047970
-0.173870
-0.113776
-0.128366
-0.163589
-0.088381
-0.030342
-0.094406
-0.018233
-0.135315
-0.070671
-0.043486
-0.028028
-0.067404
-0.021009
-0.082307
0.035671
-0.035841
0.011000
0.064203
0.059246
0.000796
0.050966
0.177851
0.127027
0.051207
0.031869
0.146117
0.150494
0.171702
0.183942
0.225383
0.316514
0.203393
0.327133
0.325761
0.280745
0.245017
0.353929
0.325192
0.361870
0.356153
0.419185
0.385599
0.391270
0.467229
0.416560
0.442922
0.435227
0.421976
0.433783
0.403984
0.426264
0.300010
0.368168
0.350523
0.377198
0.360539
0.323763
0.212285
0.200396
0.220059
0.197145
0.193763
0.149008
0.152161
0.087435
0.038232
0.069291
0.071204
0.061931
0.157206
0.030825
0.014858
-0.029853
-0.033430
-0.024057
0.061726
-0.012370
-0.013759
-0.093322
-0.020632
-0.128242
-0.067631
-0.125964
-0.130598
-0.070732
-0.096909
-0.027398
-0.091253
-0.092963
-0.107206
-0.049695
-0.071264
-0.022572
-0.084775
-0.127110
-0.079023
-0.104801
-0.098542
-0.033902
-0.069207
-0.099095
-0.096350
-0.005260
-0.097756
-0.089484
-0.061119
-0.113256
-0.134417
-0.086492
-0.024514
-0.075434
-0.095939
-0.116660
-0.066322
-0.132889
-0.114693
-0.037213
-0.084349
-0.061560
-0.089495
-0.154784
-0.068250
-0.066589
-0.073527
-0.031278
-0.029863
-0.022075
-0.084022
-0.110119
-0.098377
-0.058393
-0.017578
-0.097695
-0.046916
-0.100655
-0.147928
-0.150853
-0.054666
-0.084088
-0.062741
-0.126290
-0.059280
-0.119340
-0.097922
0.025087
-0.061668
-0.069780
-0.114394
-0.103518
-0.033512
-0.082439
-0.053300
-0.069311
-0.129655
-0.012434
-0.010206
-0.061108
-0.096773
-0.058553
-0.008476
-0.065701
-0.081260
-0.037098
0.085345
0.011954
0.043580
0.003451
0.086509
0.028839
0.075884
0.116046
0.111844
0.123151
0.053047
0.150939
0.157266
0.157806
0.118009
0.136075
0.087743
0.186957
0.125304
0.105583
0.107268
0.142202
0.068675
0.034193
-0.045355
0.062589
-0.037736
-0.000154
-0.017941
0.015161
0.035318
-0.006492
-0.048120
-0.051838
-0.069860
0.005539
-0.059663
-0.067703
-0.084573
-0.050762
0.018210
-0.008532
-0.128972
-0.047014
-0.041249
-0.082906
-0.029343
-0.032742
-0.083326
0.003194
-0.067873
0.018608
-0.116566
-0.105249
-0.070374
-0.064366
-0.016869
0.102485
0.300490
0.618576
0.940630
1.166035
1.320547
1.306587
1.129140
0.833033
0.453408
0.226607
-0.129444
-0.276591
-0.332136
-0.283958
-0.208684
-0.119810
-0.019292
-0.073938
-0.043458
-0.021031
0.036934
-0.006878
0.093124
0.018684
0.027089
0.074907
-0.025676
0.066003
0.041063
0.034190
0.052609
0.010657
0.049285
-0.038781
0.111274
0.045694
0.062765
0.131919
0.086798
0.087322
0.129158
0.148713
0.170802
0.157699
0.257391
0.120604
0.322168
0.222913
0.364097
0.307120
0.400442
0.374106
0.358496
0.305925
0.417049
0.499104
0.358721
0.423057
0.520194
0.517167
0.491277
0.496730
0.531018
0.472771
0.523015
0.548029
0.559235
0.441053
0.548941
0.478878
0.525685
0.445782
0.412109
0.518573
0.448978
0.454002
0.502638
0.444704
0.389603
0.289062
0.318610
0.318364
0.360528
0.278825
0.233221
0.243315
0.232941
0.241657
0.144869
0.110800
0.287279
0.090940
0.101317
0.172279
0.077933
0.169829
0.059625
0.108758
0.119329
0.088791
0.031966
0.044942
0.038521
0.084537
0.048354
0.011216
0.080902
0.050793
0.110539
0.028937
0.114730
0.079253
0.045062
0.106754
0.003328
0.074686
0.041329
0.045857
0.111111
0.074594
0.146783
0.016405
0.033738
0.039239
-0.035341
-0.012491
0.086192
0.002772
0.084620
0.047564
0.013170
0.132010
0.064132
0.046621
0.027806
0.070434
0.100496
0.089301
0.085372
0.161637
0.016504
0.071501
0.072527
0.108582
0.089024
0.068250
0.085142
0.040764
0.071146
-0.004054
0.015587
0.159360
0.012407
0.008592
0.103430
0.045539
0.020687
0.082118
0.134436
0.039299
0.073277
0.089116
-0.036708
0.018960
0.170761
0.109995
0.015547
0.058671
0.117811
0.119301
0.065774
0.100687
0.045707
-0.010471
0.097669
0.070672
0.097109
0.076542
0.120565
0.070363
0.119805
0.162747
0.093307
0.079521
0.176642
0.157544
0.118219
0.150196
0.139749
0.210707
0.133406
0.215298
0.211454
0.276289
0.200628
0.249813
0.173343
0.267744
0.202883
0.272966
0.279362
0.189381
0.271667
0.208361
0.221077
0.218834
0.210658
0.240933
0.185563
0.106208
0.119718
0.113559
0.206533
0.091179
0.145618
0.111110
0.046712
0.155335
0.099670
0.009582
-0.000550
0.171841
0.091970
0.046044
0.015256
0.091093
0.127992
0.031709
-0.002654
0.091001
