-0.038461
0.030039
0.000935
-0.008823
-0.044508
0.045106
-0.043717
0.042999
-0.006810
0.056354
-0.058053
0.039183
0.026053
0.048515
-0.018515
0.008157
0.094716
-0.097541
0.056594
0.039028
0.015814
0.029629
0.057029
0.056853
0.128812
-0.005524
0.124511
0.095739
0.109056
0.054632
0.154847
0.211262
0.047496
0.278490
0.229431
0.188226
0.216677
0.259750
0.204794
0.161635
0.175446
0.229870
0.142517
0.254636
0.225662
0.215109
0.177022
0.210735
0.113535
0.187331
0.135328
0.142157
0.035797
0.106799
0.093944
0.077104
0.125156
0.054322
0.077254
0.078046
0.167095
0.075256
0.070151
0.033821
0.013148
0.104568
-0.058413
-0.027363
0.063657
0.077676
0.052234
0.014575
-0.032024
0.114513
0.219436
0.437450
0.765406
1.118996
1.371675
1.463342
1.423262
1.081511
0.771546
0.370309
0.058645
-0.109834
-0.190148
-0.126762
-0.058116
-0.019097
0.055582
0.085018
0.051231
0.126382
0.135822
0.081042
0.094177
0.074171
0.196808
0.112340
0.202114
0.175574
0.100186
0.188886
0.245971
0.176747
0.226343
0.313978
0.282771
0.245775
0.290742
0.358878
0.405744
0.343846
0.466270
0.447656
0.437286
0.432574
0.469016
0.522111
0.549680
0.602488
0.541254
0.565604
0.622887
0.642082
0.552730
0.599447
0.585689
0.607157
0.644558
0.663653
0.578304
0.587541
0.559500
0.587065
0.549212
0.527131
0.476330
0.458854
0.498925
0.416193
0.414885
0.371636
0.404571
0.379266
0.321989
0.276566
0.297620
0.131888
0.258311
0.305682
0.301994
0.245167
0.159936
0.172950
0.143993
0.143329
0.212382
0.167964
0.111289
0.123787
0.126422
0.090556
0.147553
0.124549
0.081697
0.114854
0.112394
-0.000412
0.118063
0.054609
0.034941
0.117041
0.074754
0.035386
0.087071
0.084799
0.102442
0.054053
0.141459
0.150810
0.051992
0.061292
0.086492
0.066606
0.106479
0.068752
0.100277
0.034532
0.029410
0.107183
0.071337
0.045874
0.061790
0.068450
0.079367
0.080735
0.083111
0.083864
0.036305
0.071619
0.103220
0.071069
0.093283
0.012352
0.101434
0.079047
0.128262
0.104617
0.037769
0.075995
0.031972
0.059590
0.173693
0.131313
-0.022466
0.068712
0.035708
0.139710
0.218708
0.105295
0.179618
0.194335
0.164893
0.156431
0.179297
0.190075
0.200556
0.142494
0.293382
0.291903
0.212687
0.206772
0.249580
0.255953
0.233550
0.331672
0.276714
0.267134
0.276621
0.300775
0.253456
0.180559
0.240949
0.208222
0.183739
0.251582
0.133329
0.219941
0.174077
0.193404
0.110633
0.114557
0.113935
0.141498
0.037426
0.203612
0.088754
0.088691
0.010421
0.074480
0.031961
0.083705
0.083072
0.025177
0.089577
0.094611
0.074888
0.120639
0.116880
0.248617
0.408650
0.660120
0.994630
1.251269
1.479413
1.472977
1.191019
0.921740
0.457758
0.175042
-0.013655
-0.152203
-0.246534
-0.060362
0.000299
0.033815
0.131784
0.111484
0.091896
0.136871
0.127812
0.137164
0.144309
0.176648
0.089931
0.201981
0.131487
0.165484
0.133090
0.136536
0.197634
0.213514
0.273159
0.256615
0.328146
0.279623
0.321649
0.269712
0.325123
0.435977
0.433251
0.429827
0.415739
0.530672
0.489991
0.538961
0.594640
0.545517
0.477783
0.505559
0.544262
0.594633
0.572398
0.461944
0.590559
0.541651
0.643584
0.569693
0.606095
0.520874
0.485338
0.514364
0.528292
0.485922
0.404965
0.509072
0.416500
0.484324
0.309418
0.432640
0.289843
0.303197
0.322446
0.313752
0.276915
0.184950
0.232044
0.179761
0.115332
0.147516
0.216175
0.127797
0.148155
0.083077
0.055048
0.159443
0.111440
0.088858
0.125534
0.051034
0.153079
0.045261
-0.031648
0.072853
-0.022783
0.096899
-0.047446
0.031286
-0.019192
0.011918
0.040890
-0.028658
0.038823
0.111207
-0.012919
0.003136
0.032749
0.048546
-0.034483
0.015855
0.058510
-0.038136
0.048981
0.071498
-0.067094
0.072171
-0.037775
0.040836
-0.017137
0.005294
-0.031039
0.061299
-0.030356
-0.059298
0.035274
-0.069463
-0.015012
-0.017033
0.007141
0.032203
0.048628
0.039353
0.171078
0.007665
0.066373
-0.041899
0.032794
0.067145
-0.032429
0.020536
-0.001462
-0.024801
0.068048
0.064037
-0.006849
0.047198
-0.043108
0.085400
0.084362
0.047923
0.099406
0.106070
0.135521
0.098761
0.098772
0.121721
0.135048
0.100663
0.113988
0.183217
0.146744
0.226428
0.211387
0.126636
0.233461
0.168920
0.137296
0.164595
0.116974
0.152163
0.144143
0.143169
0.131283
0.127013
0.065560
0.023944
-0.022609
0.009776
0.090349
0.052899
-0.026658
0.016059
0.020410
0.077512
-0.012647
-0.030511
-0.013112
-0.055855
-0.014557
-0.066329
0.006749
-0.029224
-0.075136
0.013091
-0.056101
0.008657
0.009547
0.166773
0.490276
0.797949
1.068347
1.373769
1.418110
1.240283
1.005105
0.628921
0.193775
-0.018662
-0.192210
-0.199980
-0.195949
-0.161613
-0.033271
-0.077655
-0.010952
0.066731
-0.024711
-0.000945
-0.043239
0.001895
-0.036929
-0.017003
0.106828
0.065311
0.029733
0.124970
0.014107
0.141429
0.125747
0.125325
0.232372
0.240818
0.183514
0.233789
0.295099
0.299795
0.290862
0.307980
0.335656
0.435529
0.381807
0.431069
0.418504
0.338093
0.413534
0.440421
0.586970
0.505124
0.512590
0.578229
0.459765
0.437622
0.477352
0.470442
0.521526
0.467923
0.497807
0.374915
0.443281
0.374802
0.369531
0.385729
0.362489
0.342041
0.242034
0.279878
0.230280
0.250719
0.214955
0.216197
0.089253
0.194155
0.090508
0.180617
0.177997
0.090989
0.011939
0.003717
0.110624
0.054271
0.049640
0.029531
0.016130
0.029704
-0.015430
0.029261
-0.038352
-0.009757
-0.077819
0.002479
-0.014324
-0.051077
0.036873
0.031264
-0.029229
-0.037366
-0.099829
-0.061702
-0.048494
0.001470
-0.059680
-0.040714
-0.047755
0.030643
-0.129524
-0.068481
-0.082493
-0.051321
-0.042305
-0.118837
0.044571
-0.009097
-0.021933
-0.040595
-0.005855
-0.048533
-0.039999
-0.010183
-0.077353
-0.003500
-0.010632
-0.021148
-0.027450
-0.027929
-0.050655
-0.000976
-0.120627
-0.019448
-0.064524
0.008149
0.037459
-0.090604
-0.029518
-0.065080
0.082461
-0.103943
-0.134268
-0.007480
0.058393
0.018115
-0.037323
0.054801
-0.034632
0.075624
0.075645
0.031008
-0.004894
0.149703
0.025617
0.074608
0.150121
0.113275
0.134951
0.059426
0.114838
0.093216
0.125033
0.138107
0.119973
0.089465
0.123240
0.157497
0.061953
0.136889
0.173029
0.150094
0.025584
0.039765
0.124861
0.077634
0.109681
0.058994
0.076098
-0.023970
0.028729
0.010574
0.000211
0.038366
0.056412
-0.037888
-0.046645
-0.002742
-0.057558
-0.071382
-0.058375
0.046108
-0.110842
-0.093194
-0.040741
-0.001944
-0.021122
-0.012405
-0.023014
-0.070300
0.115313
0.388425
0.682193
0.992085
1.250779
1.385412
1.300074
1.028655
0.637696
0.352877
0.039655
-0.156462
-0.225827
-0.142193
-0.170741
-0.109167
-0.049708
-0.057012
-0.004480
0.063294
-0.010564
0.026680
-0.012116
0.043347
0.134036
0.080904
0.143568
0.025563
0.180521
0.164611
0.192129
0.169152
0.193133
0.164776
0.217559
0.356598
0.219641
0.232981
0.289438
0.206539
0.321807
0.309211
0.349094
0.402358
0.443199
0.408086
0.515155
0.470591
0.445182
0.464212
0.485958
0.505682
0.542681
0.511845
0.516081
0.575623
0.585355
0.599591
0.528971
0.550654
0.495133
0.543475
0.413791
0.438705
0.458875
0.420350
0.403715
0.405734
0.344651
0.365830
0.322883
0.278683
0.348284
0.273711
0.244008
0.236413
0.190846
0.138103
0.288875
0.168983
0.087903
0.097532
0.108697
0.107386
0.119357
0.086496
0.066137
0.075216
0.043080
0.057089
0.122833
0.054552
0.008646
0.050479
0.046057
0.106684
0.046554
0.021326
0.066494
-0.005841
-0.003824
0.101426
0.038532
-0.013931
0.060368
0.104921
-0.000181
0.067467
0.064636
0.030403
0.081232
0.020943
0.071068
0.030451
-0.056323
0.039284
0.059028
-0.000545
0.013703
0.004161
0.093775
0.048783
-0.010578
0.101584
0.059826
0.048685
0.058034
0.007914
0.102959
0.016572
0.078148
0.001809
0.044993
0.015043
0.008956
0.027407
0.092243
-0.013671
0.097352
0.139649
0.100394
0.076798
0.025375
0.084626
0.134732
0.139457
0.112797
0.142389
0.114479
0.139538
0.147346
0.069829
0.140669
0.206897
0.189017
0.073868
0.256669
0.127989
0.188067
0.219814
0.278727
0.280415
0.157829
0.266559
0.325275
0.291882
0.181249
0.264708
0.197661
0.194003
0.226785
0.219952
0.172578
0.092638
0.215879
0.193456
0.219536
0.095500
0.168331
0.150707
0.097146
0.131556
0.049309
0.112641
0.117362
0.041472
0.120192
0.130022
0.070000
0.081409
-0.021855
0.022534
0.126764
0.039528
0.048561
0.033786
0.099447
0.120342
0.342528
0.666393
0.996657
1.325003
1.342375
1.461317
1.286338
1.057518
0.617406
0.231483
-0.030627
-0.151854
-0.167794
-0.066576
-0.016761
0.104627
0.091692
0.174967
0.058777
0.169091
0.116035
0.138168
0.136312
0.110348
0.168036
0.192502
0.145822
0.189273
0.211285
0.102458
0.204198
0.214320
0.341052
0.350076
0.364514
0.264872
0.369737
0.352229
0.380849
0.451593
0.461822
0.438517
0.553463
0.489338
0.543629
0.530784
0.563594
0.598495
0.617880
0.538535
0.513433
0.511603
0.604962
0.647122
0.570448
0.616187
0.542366
0.682027
0.678301
0.620183
0.600110
0.588191
0.512994
0.502272
0.589242
0.510073
0.498392
0.432167
0.427305
0.337305
0.449173
0.377794
0.356672
0.380663
0.294662
0.288421
0.320354
0.271136
0.234237
0.112013
0.089195
0.252553
0.196768
0.119201
0.170624
0.207453
0.160657
0.178366
0.118802
0.127863
0.194423
0.069981
0.118671
0.106975
0.110410
0.084724
0.105348
0.217243
0.121017
0.164104
0.078556
0.086111
0.054728
0.098482
0.104015
0.110438
0.162509
0.139892
0.107024
0.076347
0.098156
0.097437
0.082366
0.115689
0.033313
0.116928
0.106454
0.129659
0.080061
0.104483
0.236085
0.067200
0.099366
0.170098
0.044469
0.080618
0.133250
0.092369
0.116612
0.116282
0.119262
0.104671
0.132354
0.089105
0.063173
0.098172
0.090236
0.136757
0.035103
0.114650
0.158030
0.093353
0.099917
0.152585
0.144280
0.141686
0.143529
0.126576
0.178085
0.175183
0.096843
0.177975
0.195930
0.183052
0.214721
0.260122
0.275653
0.160177
0.215626
0.298643
0.239562
0.257657
0.249946
0.243260
0.286970
0.261286
0.238020
0.200906
0.259950
0.259815
0.236667
0.197882
0.230520
0.130369
0.214766
0.100644
0.134344
0.044545
0.101876
0.066524
0.071849
0.067259
0.013131
0.113998
0.115761
0.062292
0.141504
0.175868
0.051705
0.071261
0.085164
0.046080
0.010809
0.063179
0.095376
0.023115
0.130627
0.213379
0.492370
0.765744
1.195633
1.454309
1.423637
1.401964
1.008378
0.763093
0.253376
0.066813
-0.084311
-0.156654
-0.149521
-0.108578
-0.064436
-0.015307
0.125608
-0.025500
0.148111
0.128286
0.119103
0.114904
0.119862
0.190504
0.173046
0.214527
0.141873
0.175931
0.210870
0.189336
0.170959
0.190330
0.179179
0.274412
0.301623
0.328285
0.340506
0.334689
0.416197
0.266141
0.408766
0.410298
0.373306
0.405770
0.512565
0.419438
0.498804
0.550449
0.606643
0.490594
0.519766
0.568894
0.565965
0.569264
0.545445
0.464355
0.529019
0.483238
0.559044
0.475674
0.503443
0.441479
0.475545
0.468549
0.404311
0.479258
0.410941
0.416179
0.371747
0.335594
0.276707
0.175250
0.233408
0.244057
0.176348
0.162974
0.138381
0.198030
0.150497
0.117707
0.098901
0.091863
0.093363
0.034625
0.178154
0.062154
0.127743
0.121325
0.033607
0.040692
0.025325
0.033941
-0.000514
0.014019
0.085916
0.038247
0.043365
0.018818
0.011717
0.028222
-0.012647
-0.024117
0.016008
0.047089
0.042855
0.005283
0.028226
-0.030357
0.037369
-0.085442
-0.084911
-0.042809
-0.034056
-0.033597
-0.053442
-0.005833
-0.016989
-0.002272
0.023042
0.043408
-0.045639
0.003121
0.006455
0.050850
0.010191
-0.059283
0.018008
-0.056226
0.052476
0.004229
-0.017329
0.024335
-0.025522
-0.024817
0.015903
0.005324
0.119719
-0.038521
-0.051656
-0.013962
-0.103666
0.068861
-0.035728
-0.015007
-0.020941
-0.040134
0.025621
-0.011781
0.014842
0.078165
-0.000871
0.071728
-0.011550
0.082715
0.068805
0.056723
0.147680
0.103468
0.145539
0.091095
0.077372
0.177254
0.162066
0.187860
0.071991
0.118095
0.051124
0.125671
0.116686
0.076421
0.073121
0.080900
-0.017111
-0.010065
0.078821
-0.005153
-0.023702
0.076031
-0.047784
-0.043656
-0.036303
-0.037875
-0.048886
0.009176
-0.075888
-0.001652
-0.032228
-0.084687
-0.014051
-0.137070
-0.065591
-0.160841
-0.106192
-0.076134
-0.033268
-0.059193
0.040316
0.286889
0.510375
0.908534
1.191229
1.388743
1.306326
1.018397
0.692158
0.312953
0.002162
-0.229800
-0.288632
-0.300063
-0.260273
-0.171757
-0.028453
-0.023884
-0.118547
-0.029272
0.051475
-0.054177
-0.049972
0.009105
-0.014079
0.004551
-0.060082
0.000282
0.074702
0.039138
0.081263
0.121722
0.023304
0.157359
0.131185
0.128468
0.159265
0.175818
0.183090
0.221253
0.238638
0.326576
0.308371
0.350183
0.393921
0.342101
0.336822
0.350216
0.446413
0.464507
0.404325
0.413735
0.384191
0.468988
0.446924
0.494866
0.441855
0.412013
0.368205
0.403450
0.448151
0.438055
0.355449
0.384265
0.317448
0.214577
0.292757
0.273975
0.231003
0.189096
0.238381
0.145110
0.196251
0.086820
0.104700
0.150769
0.112508
0.156218
0.013636
0.094673
-0.010934
0.071308
0.045151
-0.021844
-0.032559
-0.054946
-0.020435
-0.019004
-0.099115
-0.070832
-0.035960
-0.049321
-0.052114
-0.099198
-0.043640
-0.016903
-0.175596
-0.055217
-0.103148
-0.050665
-0.007237
-0.097939
-0.026612
-0.162025
-0.029672
-0.071754
-0.144702
-0.143594
-0.125131
-0.087479
-0.113056
-0.040611
-0.037571
-0.023741
-0.066681
-0.073231
-0.103811
-0.106336
-0.109219
-0.023647
-0.083518
-0.046220
-0.061172
0.008055
-0.099654
-0.047113
-0.090377
-0.082191
-0.075409
-0.104527
-0.137396
-0.037954
-0.002349
-0.022697
-0.042338
-0.039211
-0.091707
-0.021464
-0.061501
-0.053801
-0.046747
-0.006147
-0.060138
0.032747
-0.031646
-0.140380
-0.089122
-0.060377
0.000410
-0.006093
0.026407
0.040866
0.064938
0.067735
0.046496
0.075489
-0.008156
0.076802
0.103806
0.105054
0.073184
0.089602
0.094917
0.150320
0.106122
0.142184
0.238575
0.116844
0.108535
0.081871
0.143391
0.136329
0.055267
-0.050009
0.061446
0.035151
-0.035490
0.038955
-0.028118
0.018700
-0.005747
0.031882
-0.098071
-0.030551
-0.034594
-0.010896
0.061531
-0.102487
-0.124644
-0.076685
-0.054305
0.038685
-0.094713
0.002612
-0.052071
-0.085430
0.027699
-0.003644
0.264965
0.428376
0.808612
1.100496
1.285164
1.383233
1.202569
0.879592
0.553449
0.158299
-0.183310
-0.192403
-0.337883
-0.197468
-0.151717
-0.146395
-0.002550
-0.029760
-0.028447
-0.087651
0.003189
-0.025240
-0.022992
0.068944
0.027943
0.044684
0.007647
0.063374
0.124374
0.100556
0.098579
0.080197
0.118404
0.117003
0.204589
0.221042
0.202446
0.267793
0.239119
0.329574
0.333311
0.316192
0.319358
0.293946
0.386055
0.364522
0.460140
0.523535
0.395442
0.500937
0.514286
0.461031
0.482864
0.500268
0.483946
0.525611
0.507589
0.507078
0.542320
0.506576
0.486647
0.386177
0.447586
0.420059
0.289530
0.366277
0.340126
0.344786
0.323288
0.265177
0.262345
0.291606
0.288399
0.189779
0.189586
0.148435
0.195064
0.163191
0.055308
0.117202
0.118771
0.116735
0.107883
0.119593
0.051350
0.007020
-0.025359
0.009539
0.104391
0.075653
0.006834
0.034877
0.017109
0.039004
-0.050523
0.038409
-0.031109
0.047263
0.041762
-0.014764
0.026565
-0.043847
0.042283
0.020563
0.070344
-0.027238
0.053505
0.006898
0.018339
0.080851
-0.051434
0.043544
-0.016009
0.003569
-0.026127
0.011105
0.063033
0.065121
0.056719
0.064958
0.032656
0.055758
-0.015093
-0.075247
0.022240
0.061809
0.038857
0.039030
0.010897
0.013477
0.065363
-0.060531
-0.000312
0.031601
0.069460
0.061192
0.043124
0.000643
-0.022537
0.055014
0.084408
0.139495
0.084387
-0.008679
0.046624
-0.070557
0.042833
0.027060
0.071315
0.094959
0.139575
0.106495
0.066362
0.184502
0.157199
0.030362
0.206321
0.165309
0.256941
0.158470
0.237726
0.275030
0.206590
0.173378
0.212404
0.215513
0.204522
0.167058
0.267599
0.198616
0.182332
0.165751
0.113608
0.169106
0.165263
0.065171
0.054650
0.063949
0.118202
0.097824
0.055568
0.155132
0.097709
0.082659
0.052907
0.058027
0.082273
0.021932
0.060201
0.067067
0.093316
0.072079
0.081195
0.047621
0.053079
-0.032200
0.137081
0.206530
0.467495
0.821687
1.025644
1.305079
1.500000
1.325787
0.988577
0.711956
0.354578
0.077932
-0.038856
-0.287251
-0.132663
-0.057051
-0.012150
0.050011
0.057271
0.074273
0.139414
0.085397
0.081476
0.120147
0.083288
0.060935
0.095439
0.144981
0.169743
0.223417
0.192892
0.177461
0.257747
0.192496
0.212361
0.254310
0.254964
0.336255
0.270923
0.353375
0.385812
0.355720
0.419960
0.397773
0.390486
0.402023
0.530428
0.438268
0.462144
0.553621
0.457602
0.528726
0.569574
0.440975
0.549937
0.559104
0.576534
0.589405
0.511495
0.464802
0.568590
0.503301
0.601512
0.522471
0.449294
0.454574
0.425093
0.482328
0.473917
0.431348
0.320637
0.276706
0.300253
0.314057
0.219354
0.293898
0.322274
0.307171
0.200188
0.264778
0.152603
0.107324
0.202456
0.127299
0.100189
0.142230
0.036955
0.118997
0.065006
0.081930
0.045731
0.025504
0.134378
0.121220
0.061630
0.088094
-0.028681
0.128123
0.042534
0.054729
0.043214
0.088504
0.143307
0.042449
-0.042194
0.063173
0.041492
0.018923
0.016122
0.159089
0.048640
0.076305
0.102558
-0.005050
0.066526
0.024655
-0.087832
-0.014453
0.031431
0.024838
0.080216
0.011179
0.035232
0.017926
0.119770
0.082528
0.049850
0.097332
0.061883
0.118180
0.035146
-0.003841
0.040736
-0.059253
0.150960
-0.021867
0.065258
0.054859
0.019909
-0.009145
-0.011960
0.121774
-0.024244
-0.016175
0.013783
-0.005703
0.107056
0.055292
0.076879
0.065435
0.150721
0.051877
0.139241
0.086073
0.109922
0.151356
0.039875
0.164158
0.237941
0.213070
0.207452
0.135389
0.155595
0.149474
0.226842
0.197427
0.152372
0.251367
0.225532
0.147842
0.147522
0.202799
0.107997
0.153658
0.114816
0.113866
0.032936
0.166381
0.062001
0.039487
-0.019499
0.073655
-0.002599
0.035459
0.023748
0.102789
0.021917
0.029977
-0.041145
-0.061230
0.065219
0.030826
-0.010039
-0.031754
-0.036516
-0.002916
0.138128
-0.011329
0.212587
0.323267
0.652757
0.923908
1.200674
1.462481
1.412567
1.220450
0.792400
0.455333
0.117867
-0.094178
-0.285833
-0.227935
-0.194207
-0.124186
-0.087119
-0.051688
0.004878
0.052654
0.023545
0.053809
0.041319
-0.002118
0.091609
0.058637
0.090838
0.119183
0.080827
0.078858
0.128055
0.137283
0.078591
0.213672
0.209740
0.202132
0.210711
0.302784
0.301732
0.297203
0.269044
0.326228
0.489625
0.325519
0.404014
0.363182
0.470602
0.398590
0.399790
0.479102
0.550334
0.443445
0.484387
0.574435
0.464328
0.480254
0.399498
0.411646
0.505928
0.406244
0.453312
0.340490
0.327741
0.440548
0.332688
0.397398
0.251329
0.421628
0.328965
0.277329
0.298899
0.284608
0.205118
0.251706
0.153206
0.184213
0.211000
0.066012
0.056801
0.214349
0.027066
0.097713
0.072083
-0.003654
0.100667
-0.000665
0.070919
0.043512
-0.012269
-0.026263
0.053639
-0.006416
-0.132395
-0.006164
-0.101638
0.019867
0.043224
-0.054339
-0.028394
-0.041241
-0.050244
-0.075381
-0.133525
-0.115044
-0.056888
-0.003088
-0.042026
-0.064437
-0.083221
-0.062436
-0.086988
-0.102964
-0.172311
-0.114081
-0.066894
-0.086054
-0.051950
-0.037431
-0.123714
-0.114825
-0.073075
-0.096233
-0.059442
-0.036710
-0.042644
0.011685
-0.128947
-0.030889
-0.045089
-0.074571
-0.098821
-0.131906
0.029962
-0.072536
-0.070907
-0.072016
-0.027901
-0.029562
-0.029663
-0.059390
-0.052353
-0.057696
-0.076634
-0.085872
0.039105
-0.058917
-0.008011
-0.074430
-0.054294
-0.089331
0.031288
-0.032060
0.056825
0.014131
0.059812
0.039119
0.065801
0.139512
0.141875
0.032823
0.148923
0.090149
0.093371
0.069720
0.084976
0.111911
0.047180
0.046980
0.056797
0.032452
0.059173
0.073056
0.015412
0.071818
-0.003332
0.002515
-0.062281
-0.028448
-0.071219
-0.019828
-0.092977
-0.055003
-0.002528
-0.099127
-0.089208
-0.092415
-0.072581
-0.067058
-0.076443
-0.135241
-0.130620
-0.053288
-0.122386
-0.085011
-0.057371
-0.094936
-0.053696
-0.005329
0.093114
0.338018
0.657392
1.065895
1.211403
1.268182
1.139372
0.905424
0.426514
0.118236
-0.187844
-0.307140
-0.307251
-0.277988
-0.189188
-0.108951
-0.049335
-0.101078
-0.075137
0.000258
0.004038
-0.084799
-0.046148
0.005403
-0.005860
-0.014805
-0.057034
-0.046453
0.004938
0.087529
0.070965
0.082959
0.073718
0.118001
0.129570
0.159673
0.145126
0.175414
0.255432
0.197716
0.160594
0.182082
0.218431
0.225436
0.267027
0.394803
0.381558
0.332720
0.421370
0.325111
0.390435
0.430773
0.534522
0.385447
0.473076
0.403876
0.357626
0.359829
0.398054
0.443721
0.319486
0.369704
0.331234
0.267415
0.249008
0.280889
0.250679
0.323261
0.254124
0.212594
0.217035
0.180421
0.154503
0.120179
0.128504
0.086793
0.059560
0.044231
0.011665
0.080729
-0.005406
0.022390
-0.015500
-0.070399
0.065461
-0.040778
-0.028929
-0.113247
-0.009616
-0.085500
-0.049331
-0.083071
-0.163224
-0.071283
-0.056518
-0.022749
-0.093003
-0.094850
-0.110517
-0.054852
-0.079535
-0.116418
-0.131761
-0.130309
-0.085411
-0.069572
-0.115675
0.012546
-0.043847
-0.129588
-0.119610
-0.051080
-0.132792
-0.011657
-0.141604
-0.140615
-0.003204
-0.096322
-0.007145
-0.120805
-0.090676
-0.064570
-0.067289
-0.058906
-0.046539
-0.089746
-0.124955
-0.038502
0.024256
-0.099344
-0.000946
-0.150734
-0.141029
-0.121257
-0.109207
-0.083295
-0.112279
-0.067670
-0.047782
-0.123905
-0.112467
-0.061656
-0.036224
-0.033254
0.010705
0.017665
-0.053348
-0.033079
0.067640
0.100882
0.007078
0.002431
0.083878
0.090381
0.095564
0.067568
0.112170
0.126768
0.132961
0.094700
0.164869
0.137437
0.201247
0.135608
0.100590
0.057232
0.113912
0.162570
0.054707
0.151839
0.076836
0.015142
0.059083
-0.003784
0.032272
0.071431
0.050026
0.026347
0.018779
0.001597
0.021927
-0.032591
-0.076250
-0.116383
0.027403
0.002921
0.003008
-0.022092
-0.122538
-0.075413
-0.064904
0.002373
-0.033543
-0.065019
0.003054
-0.050477
0.010227
0.152416
0.454868
0.712776
1.004038
1.222390
1.414726
1.280715
1.123358
0.672481
0.413609
-0.011135
-0.213552
-0.208298
-0.182184
-0.108243
-0.141004
-0.097144
0.055498
-0.069462
-0.045904
0.057125
-0.036385
-0.040594
-0.032734
0.058465
0.088391
-0.030011
0.078786
0.129143
0.044148
0.127163
0.140210
0.149179
0.179241
0.306184
0.188502
0.261365
0.263237
0.378137
0.309041
0.317833
0.279220
0.354135
0.347716
0.454211
0.450588
0.414888
0.465008
0.439665
0.466578
0.611818
0.551235
0.434890
0.578287
0.573111
0.523628
0.482468
0.419578
0.522856
0.558793
0.397098
0.455759
0.439443
0.444566
0.451455
0.373700
0.440933
0.321762
0.344227
0.289297
0.285762
0.287462
0.255438
0.193084
0.204996
0.195801
0.185606
0.124133
0.217962
0.153147
0.089414
0.131101
0.054571
0.080450
0.024793
0.085990
0.033517
0.009673
0.033825
0.028523
0.029731
0.047861
-0.053397
-0.088445
0.073199
-0.012777
0.091328
0.048571
0.041776
0.028618
0.096253
-0.026812
0.046447
0.030759
0.106326
-0.020096
0.040674
-0.029172
0.098283
0.041953
0.081328
0.084822
0.120767
0.035162
0.064346
0.115067
0.070414
0.052555
0.056265
0.102792
0.039835
-0.006231
0.001662
0.079216
-0.009965
-0.029739
0.140129
0.030347
0.063800
-0.018585
0.064786
-0.013137
0.104276
0.022993
0.051568
0.099199
0.057085
0.095272
0.066435
0.154885
0.070548
0.034363
0.056801
0.097558
0.132985
0.235794
0.103036
0.111095
0.164610
0.096152
0.115443
0.066854
0.103675
0.089349
0.262487
0.130944
0.246540
0.228683
0.202427
0.253341
0.282460
0.178804
0.220558
0.143403
0.219679
0.273463
0.266754
0.262594
0.154665
0.162728
0.239162
0.269102
0.197745
0.160568
0.160559
0.171268
0.207585
0.156657
0.146201
0.138639
0.102474
0.028987
0.054971
0.077434
0.104920
0.103399
0.092793
0.126065
0.066308
0.065652
0.133432
0.009944
0.023558
0.067166
0.050303
0.040718
0.027343
0.130128
0.358002
0.668902
1.040316
1.320520
1.417222
1.458690
1.313121
0.911741
0.615723
0.245214
-0.031070
-0.236187
-0.172592
-0.140860
-0.081509
0.019325
0.088393
0.092973
0.090410
0.148900
0.205959
0.138991
0.121160
0.116675
0.084566
0.171801
0.207389
0.172609
0.190256
0.205631
0.250722
0.216372
0.240578
0.254951
0.343537
0.296664
0.353413
0.362882
0.424385
0.363304
0.405634
0.477521
0.463146
0.491046
0.475018
0.562908
0.493297
0.461453
0.592524
0.608468
0.595495
0.588998
0.585934
0.564704
0.574520
0.529610
0.535804
