0.017806
-0.029073
0.092965
-0.038377
0.036841
-0.017782
-0.070214
-0.055299
0.027224
0.018864
-0.041095
0.074180
0.066446
-0.011689
-0.060642
-0.030254
0.019451
-0.076574
0.018888
0.007437
-0.012382
0.007504
-0.082026
-0.007850
0.024576
0.048560
0.028270
0.079216
-0.004695
0.031894
0.080477
0.128511
0.138982
0.084203
0.037856
0.122552
0.172613
0.160263
0.141412
0.115358
0.132494
0.164965
0.214407
0.206733
0.163784
0.244239
0.264191
0.244633
0.171435
0.139906
0.204736
0.229868
0.165055
0.124300
0.139114
0.107490
0.095825
0.140124
0.052999
0.119361
0.099214
0.050856
0.051729
0.045115
0.124138
0.072662
0.136046
0.045421
0.064945
0.036299
0.027002
-0.008311
0.002214
0.080451
0.047413
0.075307
0.088627
0.052888
0.073721
0.009845
0.042560
0.072600
0.085268
0.083658
0.102240
0.284311
0.570655
0.954571
1.260201
1.337454
1.500000
1.290013
1.066934
0.683144
0.280558
0.024092
-0.161835
-0.190113
-0.197840
-0.144163
-0.090215
-0.050255
-0.007833
0.197193
0.063606
0.048106
0.138516
0.060919
0.108699
0.057379
0.102208
0.144621
0.073531
0.125619
0.057440
0.216213
0.147176
0.074046
0.200493
0.226644
0.213211
0.099765
0.176341
0.242711
0.266117
0.312789
0.301427
0.261247
0.266492
0.428360
0.330941
0.393943
0.403222
0.422083
0.462892
0.452895
0.423627
0.557736
0.518271
0.492347
0.624218
0.548650
0.499559
0.661249
0.685699
0.648349
0.581994
0.595411
0.619470
0.598563
0.538478
0.581723
0.483658
0.498867
0.551298
0.457890
0.532086
0.503274
0.537420
0.402068
0.343945
0.437724
0.359837
0.296045
0.340544
0.246685
0.255294
0.300051
0.183159
0.205791
0.212186
0.177734
0.287628
0.141533
0.205116
0.233301
0.190518
0.130327
0.153928
0.109998
0.201560
0.092466
0.027912
0.121511
0.092213
0.117075
0.087608
0.053407
0.154213
0.134640
0.069265
-0.007727
0.141938
0.120680
0.039935
0.121420
0.092178
0.179761
0.124503
0.073663
0.058188
0.107257
0.132452
0.002257
0.169452
0.063187
0.115410
0.024819
0.144800
0.137680
0.121004
0.064742
0.089813
0.059508
0.063146
0.110391
0.066623
0.080372
0.181989
0.082730
0.063429
0.071196
0.138920
0.079381
0.084480
0.142375
0.053276
-0.004389
0.071975
0.064329
0.062660
0.049907
0.063536
0.008834
0.076079
0.107952
0.081812
0.108938
-0.007430
0.086891
0.065521
0.085720
0.052816
0.095654
0.129272
0.081343
0.135676
0.017399
0.096898
0.094823
0.141766
0.125521
0.115227
0.110895
0.169344
0.126370
0.144624
0.146136
0.148762
0.192545
0.189142
0.268023
0.226373
0.247967
0.227226
0.177598
0.271094
0.215055
0.240775
0.262764
0.215350
0.280877
0.255740
0.167175
0.189056
0.240689
0.150281
0.177348
0.137798
0.153709
0.171037
0.162457
0.114975
0.017026
0.156537
0.174818
0.188466
0.108978
0.054201
0.116831
0.045888
0.059256
0.090701
0.052301
0.140188
0.095026
0.083823
0.081380
0.090989
0.134032
0.090323
0.008965
-0.026755
0.023861
0.066572
0.060690
0.069329
0.020067
0.104087
0.335647
0.700023
0.958307
1.234520
1.410505
1.470125
1.207978
0.940842
0.582182
0.266016
-0.062031
-0.134972
-0.257200
-0.244515
-0.148392
-0.078930
0.064890
0.011762
0.124514
0.022749
0.097871
0.050666
0.079768
0.062829
0.054294
0.121491
0.085139
0.096917
0.064122
0.055270
0.090178
0.119136
0.145604
0.143400
0.109689
0.149395
0.128918
0.182382
0.185338
0.177478
0.281567
0.315916
0.318448
0.325766
0.264195
0.360156
0.396934
0.352362
0.431549
0.352448
0.460398
0.461297
0.393504
0.436983
0.557183
0.516851
0.587448
0.500901
0.538599
0.596070
0.561063
0.611322
0.538228
0.613220
0.540852
0.406484
0.583914
0.462356
0.493895
0.477963
0.457897
0.411937
0.477842
0.390036
0.329446
0.316450
0.389950
0.305217
0.320275
0.253688
0.153830
0.273988
0.182132
0.189936
0.056579
0.165207
0.083811
0.142498
0.125036
0.105441
0.095229
0.108799
0.114518
0.066290
0.044629
0.038214
0.055961
0.064231
0.003595
0.007194
0.047194
0.042796
-0.100545
-0.097382
-0.037068
0.121680
0.036385
0.053359
0.004757
-0.021479
0.047854
0.031310
-0.023779
-0.041864
0.026336
-0.046875
-0.005445
-0.022656
0.006636
-0.025603
0.017127
0.025518
0.072131
-0.002974
-0.122503
0.022363
-0.033624
-0.039006
0.017857
0.015288
-0.063183
-0.000095
0.007459
-0.006621
-0.040050
-0.031872
0.010343
0.004903
-0.096271
-0.001080
0.020299
0.009346
-0.136993
-0.032332
-0.026497
-0.005386
-0.059941
-0.043199
-0.055265
-0.038748
-0.062012
0.016088
0.024530
-0.100718
0.028688
-0.061229
-0.005641
0.031215
-0.080965
-0.045591
-0.022472
0.099585
-0.019188
-0.055098
0.023263
-0.020001
0.007911
0.074091
0.029181
0.035634
0.015832
0.008558
0.064988
0.014117
0.100405
0.093258
0.116537
0.119962
0.101164
0.188858
0.138376
0.111998
0.162152
0.260200
0.170129
0.142079
0.156484
0.132125
0.084727
0.104879
0.112665
0.064196
0.107836
0.175854
0.128661
0.069203
0.008465
0.010725
-0.043689
0.081927
-0.008495
-0.030464
0.061040
0.079364
-0.065422
-0.062872
-0.056327
0.065474
-0.017091
-0.038571
0.014266
-0.094601
-0.004494
-0.030662
-0.042441
-0.000142
-0.098561
-0.062076
-0.089072
0.000798
-0.087689
-0.057497
-0.099485
0.053313
0.313955
0.584797
0.900674
1.263788
1.376994
1.286295
1.066170
0.813522
0.511833
0.071175
-0.162725
-0.260485
-0.303395
-0.272762
-0.162458
-0.098819
-0.171299
-0.025507
-0.029284
-0.077354
-0.039195
0.025652
-0.129319
-0.130937
-0.025839
0.028349
-0.017946
-0.019486
0.055322
-0.019516
0.032292
0.097548
0.008671
0.035853
0.083796
0.087920
0.128006
0.089693
0.115752
0.050357
0.124944
0.195388
0.215710
0.187077
0.249371
0.196115
0.367735
0.333472
0.268473
0.319637
0.500542
0.365238
0.429528
0.378037
0.404108
0.397216
0.452505
0.377391
0.474845
0.394686
0.534189
0.465317
0.497867
0.426548
0.414218
0.507890
0.406196
0.418347
0.388625
0.452371
0.401330
0.335577
0.334120
0.314501
0.359673
0.261201
0.265938
0.208296
0.153724
0.154535
0.218823
0.124447
0.082141
0.068893
0.120940
0.020616
0.159248
0.145748
0.131024
0.104896
0.037172
-0.020027
-0.025981
-0.035442
0.038245
-0.000929
-0.003010
0.023508
-0.027298
-0.004925
-0.061561
-0.096598
-0.058758
-0.033684
-0.043016
0.002088
0.015736
-0.011356
-0.049636
0.048149
-0.010289
-0.131678
-0.016114
-0.027486
-0.071801
0.026974
-0.123481
-0.064272
0.026847
0.016536
-0.076740
-0.023540
-0.008992
-0.010521
0.034166
-0.069491
0.100636
-0.040584
0.016773
-0.045158
-0.042956
0.000840
0.041734
-0.022124
0.029970
-0.049175
-0.008349
-0.018983
-0.088162
-0.052994
-0.012921
-0.019807
-0.039728
0.024535
0.030504
-0.057023
-0.001784
-0.049764
-0.041104
0.026176
-0.004958
0.036701
0.011093
-0.016442
-0.033655
0.039656
-0.055499
-0.039700
-0.069812
-0.094474
-0.019386
0.066906
0.026995
0.060330
0.004800
0.072871
0.037160
0.038851
0.038887
0.047096
0.086440
0.062685
0.106860
0.103406
0.071784
0.131157
0.089203
0.196069
0.132232
0.124853
0.215975
0.084241
0.166027
0.094517
0.124133
0.174463
0.194382
0.299950
0.197100
0.074896
0.137669
0.175970
0.034757
0.157904
0.089542
0.091392
0.161366
0.073823
0.104170
0.104212
0.027487
0.093102
-0.022053
0.007174
0.043795
0.007909
0.065816
0.064008
0.032998
-0.013206
0.038385
0.045135
0.073922
0.026648
-0.050283
0.031794
0.060511
0.002581
-0.089608
-0.070435
0.058017
-0.027474
0.112935
0.181257
0.400863
0.755552
0.966271
1.340942
1.418678
1.358789
1.164260
0.799040
0.488207
0.138645
-0.016626
-0.245463
-0.252396
-0.136439
-0.183535
0.019222
-0.083806
0.066959
0.079252
-0.008008
0.082842
0.057916
0.097990
0.128371
0.071177
0.098511
0.124640
0.039922
0.088445
0.106755
0.089494
0.135754
0.194723
0.205702
0.162311
0.166052
0.133158
0.200499
0.171811
0.150801
0.262629
0.318002
0.264259
0.267353
0.284975
0.364191
0.315693
0.381939
0.412959
0.467933
0.448334
0.577613
0.531202
0.555184
0.496012
0.559036
0.499460
0.526232
0.569179
0.575645
0.635723
0.612882
0.521143
0.517048
0.644735
0.520613
0.519162
0.537278
0.426943
0.455307
0.464987
0.407962
0.434188
0.307633
0.374611
0.374787
0.372401
0.328574
0.334506
0.265925
0.250607
0.267788
0.257405
0.260930
0.243858
0.169287
0.253661
0.187496
0.147247
0.203644
0.208681
0.182013
0.145791
0.104616
0.161771
0.138149
0.109390
0.145402
0.030684
0.093511
0.061717
0.084627
0.126650
0.102808
0.049838
0.108413
0.138605
0.054618
0.048404
0.084699
0.070436
0.084661
0.089049
0.117862
0.109858
0.080951
0.094855
0.139328
0.103289
0.063867
0.080977
0.084277
0.127037
0.091481
0.108566
-0.003490
0.049688
0.069196
0.097550
0.115712
0.242786
0.143970
0.083254
0.102421
0.032844
0.073358
0.119265
0.011469
0.098651
0.099398
0.132737
0.154193
0.128595
0.118638
0.106802
0.027175
0.096788
0.096767
0.127117
0.083123
0.085848
0.125339
0.072784
0.094721
0.056846
0.114746
0.123457
0.106378
0.046816
0.133885
0.015376
0.092714
0.062178
0.121422
0.069775
0.206778
0.128523
0.161891
0.151013
0.141177
0.172537
0.219747
0.207140
0.107651
0.179831
0.206526
0.226999
0.206033
0.249391
0.241631
0.272125
0.269220
0.263767
0.284369
0.246976
0.226346
0.242439
0.216351
0.225301
0.232632
0.248149
0.169393
0.165457
0.189480
0.159256
0.210436
0.164665
0.167886
0.089123
0.197329
0.120838
0.223584
0.140554
0.080200
0.074691
0.054047
0.055919
0.194750
-0.048495
0.140125
0.027382
0.067183
0.102204
0.098309
0.057933
0.116711
0.098699
0.079354
0.038975
0.077077
0.052911
0.070818
0.098136
0.219778
0.474962
0.793781
1.088339
1.356523
1.490462
1.356551
1.277833
0.952933
0.516302
0.150288
-0.059286
-0.200649
-0.234095
-0.114808
-0.050454
-0.021120
0.049285
0.102207
0.221320
0.137912
0.137353
0.141059
0.097470
0.156310
0.136284
0.131871
0.160242
0.124863
0.137159
0.243841
0.108272
0.155643
0.081872
0.194724
0.217414
0.207066
0.244703
0.251268
0.238151
0.256437
0.285495
0.321563
0.302908
0.250979
0.333526
0.355531
0.375239
0.432813
0.360277
0.448930
0.498023
0.532286
0.471129
0.547683
0.527633
0.602196
0.614264
0.573992
0.610253
0.555732
0.651723
0.536798
0.565709
0.534777
0.558031
0.614148
0.580256
0.524844
0.558361
0.445996
0.484025
0.480090
0.471168
0.382667
0.364464
0.411814
0.337787
0.312653
0.299502
0.302969
0.238475
0.287833
0.176655
0.306716
0.250253
0.148618
0.253057
0.183498
0.119038
0.083116
0.087393
0.031092
0.095188
0.148335
0.110249
0.013673
0.038291
0.073883
0.025622
0.113207
0.068046
0.049883
0.093281
0.004292
0.044864
0.009528
-0.070992
0.084394
0.029311
0.015214
0.151156
0.084450
0.123357
0.043734
0.005494
-0.003239
-0.043280
-0.010303
-0.010173
-0.008868
0.161891
0.005402
0.129896
0.118815
0.043100
0.015386
0.015742
0.053020
0.073637
0.067441
-0.019909
0.087223
0.006514
-0.005757
-0.019669
0.042130
0.055267
-0.036834
0.070628
0.031590
0.010775
-0.005970
0.014212
0.003210
0.017908
-0.038640
0.019258
0.024247
0.083100
-0.110534
-0.044812
-0.035261
-0.015609
0.022977
-0.053647
0.019048
-0.007978
0.061748
-0.029205
-0.071715
0.025447
0.092666
0.028729
0.057470
0.005328
-0.007299
0.116533
0.101680
0.104594
0.084592
0.033093
0.089308
0.106590
0.056429
0.139589
0.058168
0.112292
0.116365
0.233046
0.099415
0.260403
0.095665
0.159491
0.093928
0.226908
0.149754
0.151874
0.176508
0.146315
0.076566
0.097274
0.171729
0.100699
0.087039
-0.021966
0.040878
0.117944
0.082649
0.106574
0.033320
-0.003945
0.042857
-0.063127
-0.019428
0.001960
0.023140
0.005453
0.017441
-0.033280
-0.080154
-0.039920
-0.094822
-0.101055
-0.019854
-0.061425
-0.055108
-0.041288
-0.059523
-0.069394
-0.089418
-0.095519
-0.016173
-0.025994
0.130731
0.324674
0.689098
1.039017
1.248497
1.249429
1.258739
1.032650
0.750808
0.305415
0.063755
-0.249801
-0.348988
-0.249967
-0.178590
-0.181487
-0.075355
0.013745
-0.122217
-0.050243
-0.068183
0.003438
-0.056314
-0.003471
0.053377
-0.102139
-0.032801
0.039485
-0.020851
-0.022540
0.058576
-0.018825
-0.029491
0.037894
0.084308
0.104091
0.054329
0.140174
0.162896
0.172720
0.141364
0.132033
0.147117
0.148093
0.135863
0.241279
0.217767
0.336011
0.340554
0.304518
0.369785
0.306837
0.322068
0.341407
0.331700
0.378555
0.438063
0.401269
0.389902
0.549047
0.444210
0.473993
0.440257
0.433278
0.408457
0.401276
0.439956
0.395809
0.431810
0.349088
0.374297
0.307247
0.410441
0.302268
0.319951
0.280534
0.248829
0.181776
0.280850
0.165621
0.192210
0.160599
0.155901
0.130956
0.072130
0.115689
0.069894
0.060578
-0.026331
0.050727
0.014279
-0.031992
0.005988
0.033588
-0.005070
-0.067313
-0.071570
-0.008843
0.052906
-0.106799
-0.035729
-0.039668
-0.013863
-0.089049
-0.019331
-0.115642
-0.036649
-0.065725
-0.082898
0.034379
-0.017777
-0.042066
-0.050648
-0.082153
-0.112663
-0.097256
-0.105439
-0.038731
-0.041288
-0.047809
-0.126034
-0.097331
-0.174759
-0.138688
-0.164423
-0.057364
-0.119973
-0.104877
-0.119558
-0.062886
-0.021634
-0.099628
-0.071596
-0.068613
-0.077490
-0.143248
-0.127886
-0.143098
-0.049020
-0.034836
-0.129109
-0.087338
-0.070040
-0.047462
-0.129533
-0.116228
-0.029687
-0.112081
-0.056179
-0.076382
-0.113145
-0.013104
-0.092000
-0.012160
0.024661
-0.075585
-0.119006
-0.138579
-0.111901
-0.071674
-0.064862
-0.094192
-0.089695
0.051150
-0.085157
-0.116167
0.016213
0.010112
-0.007101
-0.050758
0.019319
0.002608
-0.034012
0.036925
0.059894
0.089045
0.070214
-0.002084
0.063837
0.081485
0.136690
0.124866
0.120519
0.141190
0.081793
0.102195
0.051004
0.043990
0.171155
0.062093
0.031595
0.065819
0.088970
-0.059310
-0.062651
0.027066
-0.054521
0.011388
-0.025967
-0.077016
-0.023436
0.014474
-0.070428
0.034130
-0.028591
-0.072598
-0.154340
-0.060186
-0.125102
-0.019606
0.021575
-0.113666
-0.024037
-0.076754
-0.083656
-0.108340
-0.081022
-0.116672
-0.082071
-0.134900
-0.115155
-0.102041
-0.078954
-0.065395
0.179082
0.391063
0.684847
1.103823
1.258340
1.338935
1.207367
0.955618
0.646416
0.226734
-0.011009
-0.197267
-0.300554
-0.394839
-0.259816
-0.166102
-0.114041
-0.062217
0.088098
-0.060446
-0.030252
-0.030625
-0.027085
-0.012707
-0.049699
-0.041813
-0.038895
-0.047301
-0.048955
0.022656
0.008573
0.012202
-0.029935
0.096320
0.079592
0.000484
0.146136
0.111434
0.158340
0.102761
0.159287
0.138345
0.136094
0.222149
0.280178
0.198760
0.253338
0.301245
0.275340
0.289653
0.363621
0.326054
0.413007
0.326482
0.419572
0.489427
0.382318
0.425647
0.478310
0.543732
0.546441
0.483442
0.421618
0.469068
0.528048
0.534426
0.472230
0.405254
0.400240
0.396539
0.336824
0.417776
0.432144
0.306985
0.274481
0.355154
0.254523
0.288772
0.214784
0.199041
0.166362
0.193448
0.195225
0.140543
0.088545
0.112778
0.089133
0.102646
0.064567
0.001325
-0.029546
0.151512
0.062360
0.037544
0.083979
0.073829
0.018604
0.012348
0.089616
0.014482
0.026483
0.008507
0.030086
0.018289
0.000190
0.045825
-0.032814
-0.017560
0.047930
-0.020131
0.006557
-0.021684
-0.090400
-0.058730
0.041316
0.090563
0.013842
-0.014837
-0.017830
0.018170
0.058578
0.023844
-0.019530
0.025977
0.033584
-0.027851
-0.083651
-0.049220
0.036186
0.001291
0.003945
0.073359
0.001981
0.038219
0.018107
-0.017577
0.052078
0.050229
0.038308
-0.016366
-0.067976
0.011184
0.089221
-0.034869
0.064299
0.000857
0.079467
-0.000683
0.035432
-0.080905
-0.032100
0.037440
0.040176
0.007729
0.058435
0.039660
0.007747
0.063164
0.015087
0.097243
-0.004719
0.045606
-0.001228
0.009838
0.134408
0.059256
-0.027660
0.042019
0.084206
0.173803
0.145912
0.120539
0.101264
0.091933
0.126367
0.159716
0.163494
0.197141
0.179600
0.104360
0.192282
0.224464
0.279498
0.229328
0.229232
0.230382
0.130575
0.261100
0.224832
0.234661
0.176001
0.237984
0.098223
0.118163
0.138540
0.137650
0.174710
0.111934
0.129493
0.062136
0.106238
0.075701
0.111439
0.142913
0.071172
0.030776
0.017550
0.076475
0.033192
0.029334
0.083329
0.048988
0.023592
0.038488
0.057757
0.027760
0.030113
0.026352
-0.015461
0.052423
0.079307
0.025669
0.013164
0.146993
0.220432
0.501263
0.815227
1.143717
1.416872
1.426922
1.319717
1.008562
0.679376
0.339462
-0.008252
-0.168108
-0.231173
-0.234411
-0.154709
-0.081489
0.065263
-0.011326
0.149870
0.015431
0.025072
-0.015121
0.113560
0.117571
0.070468
0.077641
0.073689
0.094144
0.140907
0.152027
0.127469
0.162531
0.148372
0.094446
0.208603
0.153012
0.211466
0.177784
0.155118
0.191316
0.217108
0.221163
0.282486
0.333827
0.228422
0.376138
0.339053
0.423880
0.354301
0.513424
0.481627
0.519800
0.422337
0.455837
0.485007
0.495998
0.534335
0.525200
0.536659
0.625046
0.573367
0.518506
0.586961
0.565007
0.623807
0.518105
0.557424
0.530297
0.503984
0.507175
0.487185
0.426836
0.455727
0.415769
0.395965
0.373745
0.423160
0.340400
0.387758
0.237538
0.217013
0.227208
0.285308
0.132548
0.214526
0.229395
0.167232
0.226259
0.106347
0.102052
0.073915
0.112799
0.155776
0.114343
0.105218
0.111360
0.127688
0.043160
0.076323
0.078522
0.103045
0.118405
0.079379
0.126634
0.086940
0.051743
0.063031
0.068498
-0.008764
0.044090
0.073830
0.040688
0.003280
0.049221
0.047408
0.052568
0.089000
0.018025
0.091005
-0.095611
0.067216
0.068695
-0.028069
0.031678
0.049349
0.017686
0.143831
0.145165
0.031211
0.007776
-0.016366
0.019632
0.125566
0.040004
0.018632
0.037736
0.107565
-0.035998
-0.014660
0.002229
0.103896
0.092908
0.033718
0.091120
0.030696
0.061371
0.036193
0.104223
0.017337
0.008579
0.002250
0.039069
-0.031740
-0.016394
0.029924
-0.028539
0.000364
0.041617
0.099367
-0.020643
-0.013103
-0.059040
0.056907
0.168876
0.044371
0.029469
0.063544
0.077543
0.042721
0.070082
0.099531
0.067896
0.054555
0.049699
0.125526
0.123205
0.139012
0.159742
0.167888
0.120526
0.183220
0.210818
0.165769
0.262555
0.137859
0.080563
0.101547
0.243973
0.119444
0.196970
0.150592
0.176283
0.111956
0.144432
0.119189
0.204132
0.087849
0.092946
0.075555
0.140636
0.014088
0.067575
-0.024706
0.054385
-0.002207
0.008170
0.007344
0.025400
-0.002276
-0.051857
-0.008708
-0.025241
-0.059715
0.064006
0.018576
0.036516
-0.001297
-0.004548
-0.011593
-0.076496
-0.067921
-0.069023
0.027699
0.050554
0.136597
0.486522
0.841409
1.142498
1.357597
1.289527
1.220573
1.010090
0.551710
0.312018
-0.054817
-0.207391
-0.281599
-0.247019
-0.177090
-0.096637
-0.047618
-0.054649
-0.006930
0.002883
-0.045690
-0.079503
0.060608
-0.113566
0.043075
-0.009852
0.024245
-0.022766
0.005602
0.055613
-0.006504
0.067813
0.023395
0.001210
0.110890
0.061495
0.153656
0.172474
0.074925
0.064633
0.147463
0.152346
0.181183
0.215734
0.208712
0.268736
0.217413
0.290764
0.359078
0.318295
0.352677
0.410893
0.381983
0.468866
0.362515
0.411526
0.487162
0.412043
0.467330
0.462567
0.447305
0.487906
0.484318
0.454659
0.440644
0.419765
0.450821
0.468027
0.378850
0.448475
0.346814
0.384760
0.275681
0.289640
0.289455
0.266327
0.253426
0.186802
0.181196
0.162586
0.157993
0.089279
0.111203
0.093648
0.140227
0.121937
0.080188
0.094635
0.041488
-0.085793
0.024753
-0.029823
-0.000182
-0.067330
-0.065611
0.009466
0.007379
-0.084021
-0.061925
-0.065097
-0.182613
-0.119385
-0.021680
-0.124984
-0.033094
-0.039487
-0.056608
-0.080375
-0.062947
-0.118863
-0.059515
-0.088225
-0.127684
-0.042601
-0.119941
-0.073814
-0.132091
-0.135825
-0.107181
-0.136879
-0.037501
-0.066076
-0.085898
-0.126483
-0.105665
-0.106198
-0.137519
-0.084354
-0.049648
-0.072244
-0.099435
-0.057533
-0.073900
-0.126008
-0.082126
-0.122106
-0.150691
-0.062405
-0.099810
-0.060135
-0.029144
-0.105011
-0.076939
-0.174182
-0.126868
-0.102690
-0.014926
-0.068509
-0.084662
-0.103354
-0.122547
-0.045656
-0.085224
-0.065959
-0.153947
-0.148618
-0.081630
-0.137335
-0.134905
-0.126533
-0.068376
-0.086803
-0.094382
-0.084783
-0.042258
-0.008430
-0.089445
-0.072048
-0.072238
-0.086280
-0.031496
-0.044530
-0.031594
0.020503
0.031737
-0.010871
0.014018
0.042198
0.051341
0.097332
0.070262
0.119762
0.073665
0.091309
0.058752
0.103569
0.080897
0.023335
0.051559
0.121359
0.051145
0.028802
-0.001799
0.035775
0.030163
-0.005674
-0.088923
-0.113540
-0.030348
0.013770
-0.066761
-0.085240
-0.138462
-0.129028
-0.123327
-0.064354
-0.094329
-0.056720
-0.181232
-0.125831
-0.096446
-0.125189
-0.170069
-0.059253
-0.002815
-0.151651
-0.067891
-0.087152
-0.089628
-0.150957
-0.135207
-0.119418
-0.138499
0.035130
0.158842
0.436800
0.765926
1.123546
1.190708
1.264524
1.126394
0.865355
0.507434
0.066606
-0.155635
-0.397728
-0.350945
-0.284800
-0.260990
-0.224585
-0.162014
-0.182515
-0.019674
-0.072255
-0.088786
-0.035100
-0.076597
-0.074058
-0.017108
-0.089171
-0.076473
-0.091111
-0.034456
-0.070762
-0.050567
0.035927
0.029038
0.051417
0.005455
0.023728
0.007173
0.091690
0.059385
0.059928
0.125410
0.154563
0.240994
0.141808
0.283816
0.213398
0.195209
0.333212
0.236480
0.325643
0.325641
0.307882
0.324086
0.412552
0.414988
0.388300
0.414649
0.492131
0.331449
0.449336
0.416512
0.390671
0.410962
0.412464
0.438591
0.504309
0.431600
0.366637
0.347605
0.344549
0.440742
0.347257
0.292558
0.280416
0.272449
0.243910
0.139409
0.205425
0.186502
0.140697
0.149517
0.170703
0.070746
0.184165
0.123197
0.030488
0.134849
0.006665
-0.003449
0.097192
-0.007823
-0.010342
0.006566
-0.025369
0.070881
-0.036527
-0.015242
-0.006203
-0.066634
-0.048929
-0.017097
-0.005063
-0.065295
-0.043651
0.022751
-0.051707
-0.042286
-0.032542
-0.046421
-0.090454
-0.087115
-0.089853
-0.021437
-0.118966
0.031870
-0.128328
-0.032567
-0.027406
-0.062471
-0.100938
-0.032746
0.021805
-0.034427
-0.041000
-0.023171
-0.079139
-0.138768
-0.107861
-0.063261
-0.027505
-0.104237
-0.032114
0.000166
-0.025052
-0.064900
-0.105899
-0.067377
-0.011369
-0.000280
-0.106876
0.011514
-0.041004
-0.084321
-0.020195
-0.057514
0.049256
-0.016475
0.009607
-0.074836
-0.030748
0.009037
-0.059720
0.012128
-0.016556
-0.039047
-0.064403
0.030126
-0.060169
-0.057127
0.029156
-0.055542
-0.016259
-0.017918
-0.042005
-0.000138
0.059423
-0.047681
0.032684
0.058970
0.037607
0.024558
0.120175
0.092978
0.064708
0.111244
0.188877
0.111960
0.185793
0.117091
0.179591
0.174058
0.212830
0.158153
0.142846
0.117779
0.163502
0.179202
0.173965
0.199266
0.162524
0.097388
0.049041
0.209603
0.150543
0.074957
0.076599
0.089991
0.099369
0.099692
0.045684
0.091026
0.025277
-0.007118
0.059092
0.085019
-0.059072
0.081315
0.036593
0.041606
-0.028198
0.009435
-0.011076
-0.018843
0.027274
-0.020459
0.016889
0.119084
0.005368
-0.083224
-0.032904
-0.000077
-0.041060
-0.011201
0.141714
0.303703
0.591831
0.876915
1.231804
1.468190
1.464635
1.186467
0.964052
0.514831
0.174193
-0.047340
-0.205052
-0.230190
-0.203929
-0.152282
-0.093019
0.000238
0.034246
-0.023253
-0.047201
0.074948
0.134892
0.014098
0.082705
0.099993
0.027443
0.103639
-0.049092
0.117524
0.055363
0.106383
0.073306
0.157839
0.122295
0.135243
0.241525
0.151075
0.216296
0.257413
0.234447
0.241157
0.268423
0.350326
0.261828
0.338671
0.282568
0.269995
0.380090
0.413590
0.435247
0.441716
0.483741
0.425987
0.500051
0.513251
0.512398
0.517164
0.545720
0.499491
0.558132
0.578399
0.553544
0.532676
0.505407
0.638108
0.553663
0.528899
0.521488
0.536506
0.483477
0.532416
0.471265
0.416629
0.411910
0.425753
0.371738
0.313393
0.249311
0.314443
0.290681
0.311006
0.271254
0.270549
0.222687
0.217738
0.111005
0.105217
0.199823
0.222093
0.130073
0.082136
0.174972
0.098278
0.166812
0.107006
0.069199
0.147023
0.080117
0.091181
0.119927
0.126610
0.056058
-0.012163
0.030264
0.013115
0.116862
0.108333
0.100095
0.116630
0.036503
0.132958
0.112906
0.079312
0.042154
0.011110
0.040096
0.156624
0.021691
0.027430
0.074668
0.109233
0.023388
0.021473
0.077737
0.078798
0.079691
0.169419
0.057593
0.035328
0.068578
0.128393
0.023121
0.084451
0.030340
0.047661
0.096628
0.083931
0.118673
0.097775
0.038776
0.056095
0.085221
0.050631
0.104488
0.070765
0.084221
0.034299
0.061796
0.025534
0.102555
0.024706
0.099397
0.168562
0.079348
0.046288
-0.030023
0.036358
0.157244
0.136380
0.023795
0.090723
0.140566
0.019963
0.038789
0.206521
0.094590
0.069741
0.095277
0.131186
0.105809
0.145363
0.146530
0.145619
0.173203
0.147658
0.201241
