0.051492
-0.013628
-0.010154
0.039833
0.034366
0.116402
-0.034008
0.052935
0.027099
0.075632
0.018440
-0.011707
-0.004440
0.017290
0.030657
0.122984
0.053003
0.086944
0.036219
0.098369
0.010684
0.167308
0.142179
0.080530
0.171279
0.167423
0.124966
0.154026
0.181496
0.168076
0.271198
0.158823
0.205788
0.245075
0.183606
0.141349
0.149823
0.146354
0.138370
0.237166
0.238819
0.149292
0.224334
0.151046
0.184751
0.101684
0.047366
0.067224
0.120910
0.148636
0.114165
0.065778
0.106280
0.131967
0.099441
0.097317
0.100188
0.030510
0.059624
0.054510
0.022816
0.058865
0.106567
0.133110
0.196257
0.447799
0.734341
1.094425
1.212212
1.500000
1.360964
1.043820
0.658170
0.333185
0.084002
-0.103343
-0.088903
-0.079628
-0.078902
0.093584
0.073541
0.048110
0.132465
0.122743
0.164525
0.243564
0.185213
0.153911
0.245386
0.179983
0.219767
0.200511
0.245285
0.243482
0.252733
0.336464
0.388774
0.379657
0.363753
0.418168
0.434174
0.506473
0.394416
0.414028
0.589705
0.583871
0.529466
0.582784
0.584878
0.569815
0.567368
0.606907
0.519055
0.622962
0.652571
0.554206
0.589525
0.618575
0.670591
0.544271
0.484421
0.548279
0.509306
0.497776
0.516212
0.373852
0.407017
0.348658
0.358205
0.330154
0.321456
0.248834
0.297494
0.222232
0.311274
0.215230
0.278541
0.194311
0.167478
0.213502
0.155081
0.137848
0.197115
0.107678
0.064803
0.063600
0.052639
0.132499
0.161497
0.108110
0.079820
0.127928
0.120797
0.126862
0.051111
0.163053
0.098880
0.013407
0.122755
0.042523
0.181228
0.064062
0.080513
0.044943
0.063317
0.046080
0.108738
0.089449
0.109103
0.038286
0.069235
0.155224
0.129592
0.088025
0.038657
0.115649
0.047165
0.130584
0.096984
0.134852
0.176008
0.085408
0.052187
0.172119
0.063445
0.090294
0.135434
0.110352
0.019143
0.119303
0.193653
0.110960
0.185741
0.183241
0.126888
0.205329
0.178881
0.249630
0.219478
0.202500
0.279077
0.243181
0.201462
0.313563
0.235517
0.281771
0.352100
0.347766
0.242533
0.216378
0.208028
0.273450
0.245246
0.296866
0.291662
0.164281
0.191361
0.205255
0.193043
0.176034
0.188613
0.113686
0.130193
0.042112
0.073329
0.154225
0.157858
0.095355
0.193927
0.105617
0.058262
0.073525
0.207921
0.061260
0.108763
0.184434
0.254311
0.463408
0.605841
0.976123
1.258171
1.413783
1.489142
1.287733
0.920303
0.495344
0.121288
0.024647
-0.054744
-0.082157
-0.015360
0.074576
0.131393
0.057709
0.028954
0.200594
0.203512
0.177420
0.204570
0.194049
0.229653
0.173367
0.273461
0.274350
0.264821
0.371131
0.249452
0.330567
0.377957
0.403125
0.374582
0.465920
0.431273
0.434956
0.507638
0.494957
0.464974
0.522485
0.483164
0.530884
0.555066
0.560328
0.552270
0.580439
0.689925
0.521069
0.523976
0.564298
0.520310
0.557014
0.529869
0.481717
0.566603
0.467226
0.522548
0.403534
0.374842
0.363660
0.454081
0.455549
0.459539
0.441744
0.372988
0.313949
0.217770
0.276550
0.244173
0.248752
0.263645
0.167822
0.203574
0.179655
0.137204
0.117137
0.167770
0.120251
0.042016
0.106717
0.139599
0.061481
0.115612
0.009876
0.041860
0.073587
0.020260
0.067799
0.112902
0.129094
0.053274
0.097423
0.030906
0.060639
0.020496
0.097523
0.023479
0.020997
0.080941
0.028548
0.077890
0.033606
0.032728
0.052977
0.015513
-0.034536
0.082333
0.023019
0.041739
0.021988
0.097597
0.039538
-0.004725
-0.021701
0.039629
0.023860
0.061267
0.037843
-0.001628
0.047656
0.044029
0.034365
0.052723
0.029452
0.084303
0.083157
0.115498
0.127659
0.081539
0.083124
0.103055
0.051705
0.213545
0.155977
0.137305
0.200961
0.165612
0.249361
0.218909
0.258149
0.122789
0.163594
0.282864
0.213762
0.112696
0.216465
0.160939
0.121559
0.159372
0.188746
0.112459
0.147405
0.176605
0.102180
0.041667
0.012460
0.011780
0.024561
0.124434
0.037904
0.008587
0.104619
0.005711
0.039278
0.002707
0.037074
0.045523
0.084773
0.030454
0.060448
0.069114
0.227853
0.468441
0.758508
1.129443
1.283379
1.401093
1.113212
0.968404
0.624535
0.261264
0.032379
-0.085297
-0.238445
-0.082882
-0.030762
-0.000523
0.097643
0.023179
0.078146
0.114026
0.174732
0.150472
0.102818
0.101857
0.096953
0.120410
0.160271
0.244545
0.204022
0.162212
0.232694
0.319726
0.336960
0.267886
0.310583
0.357872
0.382731
0.453610
0.488033
0.408437
0.398493
0.430103
0.431208
0.408330
0.456991
0.548767
0.563423
0.416702
0.431177
0.544792
0.443949
0.355363
0.446747
0.443639
0.405053
0.373959
0.416376
0.356464
0.389367
0.416432
0.346270
0.366953
0.313895
0.324419
0.286171
0.242409
0.126122
0.217230
0.199886
0.147820
0.121287
0.117868
0.135753
0.084548
0.007558
0.034337
-0.019870
0.027213
0.037714
-0.010499
0.150182
0.029737
-0.034143
0.081808
-0.020213
-0.042090
0.036342
-0.033037
-0.057874
-0.012879
-0.084036
-0.055844
-0.023932
-0.024200
-0.102694
-0.059756
-0.099995
-0.071862
-0.075847
-0.121532
-0.031267
0.008163
0.005826
-0.054844
-0.045820
-0.060048
0.021243
-0.027474
-0.014262
-0.103581
0.040876
-0.031807
-0.108352
-0.127167
-0.054489
-0.012990
-0.026212
-0.048501
-0.012303
0.041794
-0.081796
-0.020963
-0.068252
-0.040897
-0.067579
0.012640
-0.038524
0.049996
-0.033072
0.073377
-0.009882
0.010630
0.060020
-0.002664
0.091968
0.088436
0.115847
0.024606
0.118470
0.107896
0.098041
0.167072
0.090206
0.140138
0.113157
0.175750
0.158942
0.177979
0.094024
0.106608
0.133013
0.103847
0.085025
0.116815
0.053405
0.029774
0.061032
0.059224
-0.057515
0.066571
0.050900
-0.066323
-0.035592
0.035315
-0.105601
-0.024723
0.037697
-0.113111
-0.075328
0.084958
-0.057033
0.082847
0.062486
0.326856
0.606741
0.893947
1.171095
1.308724
1.318652
1.099109
0.673375
0.298508
0.013487
-0.104725
-0.131754
-0.140784
-0.128233
-0.091024
-0.092000
0.006144
-0.001936
0.063083
0.086735
0.092641
0.146273
0.054352
0.158988
0.100032
0.169991
0.103478
0.148144
0.207224
0.262477
0.321994
0.195685
0.284662
0.337862
0.242487
0.368749
0.267456
0.401318
0.438963
0.443804
0.344398
0.524288
0.483644
0.515866
0.450618
0.500480
0.444615
0.395640
0.508988
0.539467
0.496382
0.506096
0.510031
0.390860
0.473416
0.414395
0.396365
0.454389
0.335889
0.325779
0.315823
0.294433
0.261447
0.234842
0.237351
0.243933
0.217503
0.225366
0.234237
0.111114
0.156512
0.117703
0.211178
0.222236
0.079052
0.066166
0.030675
0.002435
0.097061
0.022027
-0.003922
0.001210
-0.011406
0.008678
-0.078424
0.049230
-0.033683
-0.007892
-0.075515
0.041902
-0.077172
0.086374
-0.020672
-0.028541
0.007423
0.013859
0.028179
0.013454
-0.067892
-0.048665
-0.003050
-0.039754
0.002323
-0.111801
-0.072970
-0.013412
0.037042
-0.003895
0.006664
-0.057267
-0.028493
-0.056058
-0.031429
-0.003181
-0.075699
0.006289
0.050035
0.010414
0.058896
-0.012486
0.039113
-0.043341
0.032823
0.114706
0.064115
0.048384
0.111081
0.154147
-0.018427
0.165588
0.140295
0.040167
0.112389
0.107066
0.153040
0.165840
0.071986
0.135643
0.228456
0.162430
0.159910
0.218359
0.152019
0.203568
0.241067
0.149679
0.206889
0.203293
0.216358
0.210514
0.068738
0.071520
0.202210
0.033402
0.014968
0.025355
0.032705
0.045244
0.040385
0.116350
0.074481
-0.016987
0.077612
0.060913
0.067258
0.070290
-0.025432
-0.002674
0.028996
0.074963
0.084694
0.100067
0.291109
0.466158
0.859984
1.137144
1.341351
1.380981
1.157805
0.906848
0.544980
0.169701
-0.038825
-0.139252
-0.119172
-0.060361
-0.068227
0.054548
0.137537
0.126109
0.040409
0.046005
0.197804
0.219705
0.131146
0.130533
0.198031
0.131813
0.276738
0.259518
0.296784
0.205802
0.279739
0.303267
0.315490
0.420796
0.363029
0.452863
0.408293
0.519390
0.520571
0.430516
0.454705
0.466403
0.538059
0.509654
0.548736
0.561983
0.523426
0.524487
0.586385
0.547684
0.505650
0.477938
0.565863
0.524067
0.453534
0.454750
0.520641
0.572981
0.510838
0.442503
0.378912
0.400739
0.375076
0.328296
0.334857
0.384216
0.407733
0.371500
0.303411
0.173628
0.224942
0.152217
0.274916
0.116795
0.243368
0.144870
0.151732
0.215584
0.165384
0.139563
0.100945
0.082184
0.053030
0.133586
0.159979
0.081172
0.032653
0.027278
0.063912
0.004914
0.068360
0.080623
0.119381
0.040087
0.185682
0.068588
0.184397
0.031293
0.086773
0.065131
0.064917
0.104494
0.167077
0.057883
0.093988
0.052998
0.024414
0.153102
0.110717
0.051606
0.106186
0.082571
0.127715
0.088023
0.092662
0.058882
0.070546
0.055561
0.095615
0.102239
0.182127
0.112712
0.168185
0.079056
0.160398
0.140845
0.164084
0.110780
0.240398
0.156260
0.110070
0.137082
0.151639
0.265727
0.215346
0.167791
0.199674
0.230715
0.230929
0.232137
0.255188
0.346838
0.252605
0.336542
0.292210
0.327409
0.258930
0.287565
0.364285
0.175183
0.147284
0.193384
0.228033
0.196166
0.191641
0.295379
0.195268
0.083446
0.136669
0.153825
0.078622
0.160423
0.157225
0.207137
0.096907
0.091864
0.140482
0.149866
0.104796
0.155192
0.113746
0.241256
0.265793
0.455576
0.740519
0.940680
1.376455
1.374049
1.340550
1.146618
0.738629
0.431706
0.132343
-0.028775
-0.083713
0.008295
0.061515
0.135238
0.109958
0.022745
0.086300
0.147951
0.149767
0.167246
0.231933
0.201717
0.195992
0.281662
0.242581
0.342576
0.293853
0.330389
0.431522
0.386691
0.418791
0.394898
0.369137
0.470798
0.495798
0.525513
0.499091
0.568313
0.520466
0.577310
0.613014
0.615307
0.573464
0.617267
0.591138
0.571122
0.688374
0.556516
0.597898
0.501873
0.577978
0.534591
0.607580
0.560857
0.534182
0.502959
0.579117
0.479177
0.511610
0.525423
0.482648
0.394811
0.441629
0.363301
0.322587
0.367262
0.369050
0.265970
0.231485
0.221775
0.173409
0.206359
0.158558
0.143098
0.164728
0.190982
0.162912
0.158030
0.149512
0.118679
0.108138
0.101568
0.149578
0.173945
0.206236
0.100836
0.082844
0.076339
0.099193
0.100305
0.087810
0.148727
0.091875
0.004977
0.134265
0.119896
0.082259
0.107493
0.110631
0.172605
0.035673
0.100447
0.153367
0.072155
-0.007929
0.127362
0.094619
0.070086
0.069025
0.065168
0.097071
0.113171
0.075270
0.106181
-0.007051
0.124266
0.127386
0.083197
0.059813
0.035400
0.096018
0.076634
0.089278
0.096537
0.095273
0.125983
0.134725
0.043537
0.101963
0.094624
0.134333
0.206480
0.197198
0.179307
0.170857
0.161984
0.206888
0.175660
0.219658
0.272442
0.229893
0.262515
0.247221
0.260533
0.272689
0.232424
0.161451
0.101804
0.135392
0.189138
0.188323
0.155505
0.075890
0.139352
0.200873
0.116460
0.023502
0.137127
0.163816
0.129336
0.030334
0.008635
0.061928
0.006258
0.086406
0.073941
0.062754
0.052594
-0.155474
0.093181
0.155845
0.291575
0.633781
0.954261
1.158170
1.405401
1.352058
1.140014
0.836966
0.503300
0.157424
-0.113477
-0.204342
-0.076738
-0.131790
-0.059043
0.013639
0.089164
0.111357
0.061020
0.111567
0.105187
0.170407
0.099447
0.165103
0.164294
0.253412
0.185185
0.174225
0.174570
0.254522
0.348310
0.293180
0.347375
0.346893
0.287055
0.315532
0.353410
0.400421
0.475964
0.473833
0.449627
0.492604
0.479614
0.560675
0.590737
0.486216
0.434263
0.495597
0.541177
0.527465
0.523258
0.510393
0.516296
0.513348
0.520943
0.359968
0.526671
0.459248
0.405551
0.323106
0.288621
0.313241
0.283216
0.314245
0.257948
0.184939
0.199149
0.232084
0.097987
0.193987
0.109257
0.099561
0.157735
0.006829
0.062044
0.068115
0.109673
0.046243
0.050793
0.000989
0.009559
0.058108
0.058606
-0.002248
0.018717
0.032782
-0.013969
0.036711
-0.003547
-0.047963
-0.047448
-0.008577
0.006651
0.040247
-0.064639
0.009715
-0.102159
-0.007263
0.022941
0.010168
-0.055208
-0.064069
-0.085901
-0.094406
-0.014461
-0.004622
-0.036998
0.019040
0.006027
-0.000771
-0.000176
0.008374
-0.062079
-0.082706
0.007198
-0.041153
-0.064891
-0.026785
-0.011849
0.057584
0.045282
-0.075050
-0.055567
-0.020608
0.063114
-0.031737
-0.004251
-0.049439
0.063661
-0.020374
0.058749
0.023301
0.059726
0.065769
0.078296
0.078935
0.027063
0.156747
0.098906
0.077122
0.177100
0.048335
0.114199
0.123581
0.181097
0.185271
0.217377
0.128065
0.047225
0.148249
0.145062
0.039849
0.074783
0.158125
-0.077854
0.091982
-0.020231
-0.074881
0.012390
-0.038371
-0.041042
0.048020
-0.098031
-0.056748
-0.081476
-0.088439
-0.066673
-0.056861
-0.023243
-0.058117
-0.032794
-0.011727
0.158767
0.341406
0.705899
0.944978
1.192963
1.284374
1.193629
0.827292
0.580138
0.170148
-0.023223
-0.261871
-0.248654
-0.175045
-0.114562
-0.089659
0.028305
-0.052580
-0.049159
0.026929
0.065397
-0.002545
0.063723
-0.018538
0.076050
0.068936
0.019412
0.071364
0.112886
0.113146
0.190164
0.259378
0.265786
0.266978
0.237669
0.262696
0.336300
0.276432
0.336733
0.428996
0.356003
0.267533
0.439475
0.387987
0.476055
0.455346
0.403496
0.408015
0.477668
0.454939
0.427138
0.395269
0.400713
0.369506
0.370111
0.338973
0.370871
0.346273
0.364877
0.353796
0.379666
0.242063
0.173312
0.266819
0.239854
0.152908
0.145383
0.125200
0.077704
0.075993
0.002807
0.102725
0.002206
0.080661
-0.000926
0.060700
-0.049170
-0.002121
0.028037
-0.080757
-0.051870
-0.015637
-0.070795
-0.050987
-0.064370
-0.070992
-0.118420
0.004984
-0.119391
-0.093081
-0.067555
-0.130791
-0.056114
-0.051377
-0.069211
-0.080473
-0.103833
-0.047882
-0.072393
-0.036894
-0.033812
-0.118766
-0.073596
-0.056392
-0.126540
0.004689
-0.038440
-0.051374
-0.082030
-0.116125
-0.124180
-0.114762
-0.020486
-0.002523
-0.150548
-0.020055
-0.048506
-0.094724
0.024212
-0.118579
-0.065920
-0.010021
-0.030171
-0.108200
-0.106893
-0.020079
-0.003168
-0.009809
-0.063379
0.003893
-0.017120
0.110870
0.087250
0.078319
0.027421
0.107696
0.086492
0.150718
0.093927
0.072340
0.144107
0.019732
0.143890
0.097778
0.076792
0.093819
0.077060
0.101396
0.051710
0.017574
0.056312
0.109970
0.066913
0.050595
0.040525
-0.002743
-0.018579
0.021392
0.000871
0.045794
-0.081639
-0.073897
-0.103136
-0.042562
-0.105960
-0.031866
-0.031980
-0.008898
-0.077650
-0.101151
-0.080998
0.015004
0.131643
0.233559
0.573250
0.824793
1.226190
1.381493
1.267305
1.059558
0.774272
0.239951
0.039607
-0.171485
-0.204723
-0.178227
-0.164761
-0.068626
-0.040040
0.024152
-0.018709
-0.030471
0.008596
0.037247
0.066185
0.037325
0.184933
0.095612
0.153959
0.160876
0.184245
0.178344
0.137561
0.234601
0.221845
0.211809
0.273914
0.234951
0.311364
0.360154
0.290839
0.474774
0.474260
0.468400
0.414720
0.489787
0.486780
0.409830
0.488145
0.526743
0.501730
0.564304
0.525568
0.484700
0.489959
0.530197
0.428665
0.475037
0.365767
0.428684
0.337522
0.326201
0.328646
0.247941
0.333035
0.268243
0.310693
0.289463
0.215674
0.232605
0.186547
0.225547
0.157649
0.231027
0.061952
0.090447
0.108692
0.187368
0.096222
0.044919
0.134676
0.054897
0.089692
0.003742
0.050175
0.049641
-0.039587
0.102491
-0.034089
-0.005691
0.024939
0.054462
-0.036143
-0.027661
0.019915
-0.032841
0.078414
0.001690
0.003091
0.016533
-0.035389
-0.069338
-0.072766
-0.033375
0.026013
-0.000522
0.089447
-0.031835
-0.013322
-0.026069
-0.015788
0.084072
-0.005843
0.012444
0.061643
-0.023506
0.042669
-0.034364
0.050567
-0.041360
-0.005252
0.052139
0.076996
0.045103
0.024972
0.086846
0.049654
-0.013245
0.041844
-0.003258
-0.001657
0.049771
0.166848
0.141320
0.168677
0.100126
0.276618
0.204243
0.077964
0.155516
0.155746
0.141685
0.229145
0.219745
0.107842
0.273775
0.241014
0.205035
0.168554
0.119135
0.088673
0.176923
0.196221
0.219532
0.085349
0.189180
0.188211
0.131248
0.081621
0.126784
0.117075
0.112511
0.019118
0.064289
0.076284
0.073716
0.137723
0.030234
0.086750
0.095342
-0.014464
0.035628
0.050277
-0.030800
0.134899
0.227882
0.505033
0.871693
1.080676
1.386003
1.425495
1.201199
0.922642
0.557825
0.194406
-0.007950
-0.138255
-0.188020
-0.074701
-0.038013
0.044563
0.088514
0.125576
0.091505
0.083178
0.047700
0.139850
0.207657
0.215371
0.247500
0.168186
0.158836
0.277247
0.207159
0.256101
0.312085
0.276334
0.346486
0.413377
0.337823
0.309680
0.470695
0.399170
0.484428
0.457264
0.547358
0.537315
0.462888
0.497183
0.514420
0.554031
0.581098
0.513249
0.542010
0.598540
0.576227
0.550121
0.564981
0.617878
0.504409
0.454931
0.393982
0.469214
0.482751
0.411479
0.395478
0.437625
0.395824
0.396461
0.346976
0.304397
0.249323
0.247974
0.217384
0.199742
0.209641
0.207304
0.291442
0.242041
0.164971
0.169637
0.125324
0.132083
0.169650
0.025549
0.133557
0.087994
0.009787
0.075460
0.107013
0.079806
0.116889
0.010003
0.063344
0.042579
0.119543
-0.007747
0.033207
0.058671
0.016154
0.079595
0.065128
0.081374
0.132125
0.078374
0.098201
0.024105
0.026684
0.106689
0.121037
0.064336
0.038699
-0.019121
0.022933
-0.010418
-0.011173
0.137003
0.017509
0.042937
0.038676
-0.013295
0.071074
0.008238
0.119291
0.029361
0.085835
0.039349
0.011284
0.027476
0.083163
0.089859
0.067447
-0.008390
0.130430
0.215418
0.084421
0.157098
0.065240
0.097308
0.123347
0.183394
0.123526
0.191425
0.174146
0.161830
0.216903
0.168095
0.242492
0.243837
0.173982
0.198706
0.186023
0.221361
0.197808
0.247430
0.136807
0.129189
0.172988
0.166812
0.092970
0.053872
0.089271
0.104946
0.119038
0.097971
0.128559
0.110181
0.051619
0.102112
0.094610
0.028775
0.045053
0.041568
0.048610
0.042463
0.035290
0.076786
0.255791
0.457450
0.636928
0.917492
1.260435
1.308213
1.330266
1.075478
0.725297
0.335208
0.083134
-0.025351
-0.179015
-0.097663
-0.029367
-0.008582
0.117034
0.057590
0.059738
0.205836
0.169539
0.185812
0.144158
0.083185
0.104689
0.187955
0.221598
0.134549
0.220810
0.219753
0.211699
0.214890
0.370667
0.324705
0.368411
0.294462
0.419127
0.413989
0.310483
0.460530
0.374875
0.429027
0.489677
0.605872
0.503018
0.463946
0.522073
0.552403
0.497340
0.599855
0.587613
0.487521
0.528667
0.512743
0.517731
0.465921
0.416503
0.422566
0.435695
0.291385
0.409485
0.390293
0.349787
0.241007
0.325183
0.298800
0.246087
0.270727
0.184320
0.196129
0.202708
0.197838
0.136282
0.100007
0.117041
-0.026598
0.110151
0.071110
0.045507
0.030876
0.023182
0.038368
-0.009395
-0.005199
0.081716
0.024026
0.023154
0.039713
-0.039181
0.038098
0.038274
-0.042658
-0.015219
-0.017744
0.049206
0.035793
-0.021380
0.036019
0.043741
-0.047624
-0.081046
-0.018243
-0.038284
0.008538
-0.023209
-0.039733
-0.024083
-0.012031
-0.022453
-0.037733
-0.104996
-0.022680
-0.061258
-0.052124
-0.023682
-0.002929
-0.036330
-0.067907
0.001212
-0.035715
-0.054930
0.068531
0.031606
0.019662
0.057826
-0.047114
-0.050552
0.007377
0.018980
0.004066
-0.062864
0.028467
0.082748
0.075029
0.110345
0.047758
0.081758
0.086400
0.137366
0.202297
0.040269
0.154488
0.084250
0.131694
0.114548
0.142002
0.079044
0.121855
0.097649
0.154008
0.082933
0.048007
0.064602
0.095259
-0.046396
0.055077
0.028600
0.053227
-0.046719
-0.003258
0.014981
-0.034426
-0.116100
-0.027540
0.004037
-0.091386
0.006094
-0.053814
-0.123479
0.006604
-0.075526
0.034763
0.083803
0.206351
0.472025
0.706208
1.106426
1.208727
1.212534
1.055764
0.829687
0.331255
0.064012
-0.158868
-0.171762
-0.216093
-0.150619
0.007137
-0.150055
-0.125309
0.002614
0.041100
-0.046842
-0.007594
0.044567
0.088884
0.037648
-0.022514
0.073842
0.107477
0.094693
0.186130
0.144848
0.148055
0.163813
0.269777
0.241155
0.258995
0.249493
0.322939
0.413142
0.451979
0.392465
0.433100
0.370338
0.408969
0.433310
0.416112
0.424558
0.405820
0.379796
0.408184
0.499607
0.390980
0.339827
0.391643
0.366089
0.437544
0.306779
0.331779
0.347958
0.357915
0.237305
0.276200
0.296106
0.172276
0.180188
0.155648
0.164011
0.136060
0.171131
0.134490
0.057114
0.070736
0.108099
0.154025
0.127223
0.090682
0.046595
-0.043569
-0.045160
0.041209
-0.104217
-0.004252
-0.077335
-0.112722
-0.017950
-0.097655
-0.075390
-0.100532
-0.001039
-0.128439
-0.098791
-0.093334
-0.151078
-0.100744
-0.082484
-0.032842
-0.004202
-0.110974
-0.100190
-0.147437
-0.081642
-0.135462
-0.050498
-0.143511
-0.071889
-0.054323
-0.085639
-0.132499
0.037256
-0.138132
-0.126724
-0.101338
-0.056332
-0.125171
-0.073121
-0.106280
-0.034733
-0.042677
-0.151220
-0.062903
-0.147078
-0.162180
-0.117744
-0.105021
-0.123384
-0.041059
-0.106908
-0.066126
-0.008007
-0.056603
-0.100250
-0.053035
-0.001803
-0.000883
0.032503
-0.072935
0.047081
0.027649
0.023209
0.108682
0.130585
0.106793
0.049181
0.019178
0.098541
0.130842
0.098614
-0.006897
0.067767
-0.008897
0.068233
0.058846
0.106064
0.029799
-0.018591
-0.001937
-0.006159
-0.065272
-0.031005
-0.038256
-0.016412
0.035587
-0.128248
-0.027780
-0.060598
-0.118994
-0.066242
-0.101620
-0.063154
-0.102391
-0.013887
-0.047309
-0.005388
0.052408
0.319066
0.694006
0.928974
1.187799
1.210549
1.158539
0.855226
0.568095
0.156443
-0.128825
-0.160993
-0.213741
-0.227951
-0.153488
-0.113864
0.029086
0.037210
-0.077371
-0.012554
0.065869
0.083538
-0.016983
0.025616
0.064806
0.100413
0.008136
0.111069
0.126854
0.149921
0.186993
0.189954
0.238735
0.160579
0.196374
0.303888
0.272801
0.340514
0.404928
0.338543
0.339635
0.420218
0.401652
0.385101
0.474910
0.418500
0.390786
0.475317
0.494401
0.505328
0.451453
0.510839
0.327406
0.467174
0.525047
0.442613
0.391852
0.362077
0.426566
0.311237
0.292569
0.269730
0.317107
0.234728
0.219494
0.141477
0.151892
0.241957
0.050535
0.151043
0.169585
0.178948
0.080182
0.095287
0.042812
0.063180
0.112744
0.046919
0.006721
0.009083
-0.035582
0.053016
0.032739
0.032967
-0.045445
-0.002571
-0.038225
-0.039140
-0.040935
0.031471
-0.112818
-0.094402
-0.090110
-0.004945
-0.000626
-0.038850
0.011512
-0.081788
-0.076464
-0.067505
0.014929
-0.098445
-0.036762
-0.023642
0.037419
0.028596
-0.066819
-0.078313
-0.046019
-0.097336
-0.028451
-0.084468
0.023415
-0.024083
0.002357
-0.073374
-0.121590
-0.021977
-0.010199
0.060044
-0.039562
-0.089576
-0.088861
0.016306
0.060181
-0.058289
0.011724
0.006301
0.044297
0.022703
0.039201
0.036375
0.041811
0.115520
0.120994
0.063720
0.144756
0.183949
0.137488
0.066781
0.171338
0.225597
0.153509
0.197319
0.176215
0.128820
0.159634
0.187506
0.151097
0.095462
0.093589
0.137005
0.088521
0.134072
0.141173
0.051176
0.044739
0.105006
-0.006254
0.034092
0.037474
0.020261
0.025517
0.050075
-0.034612
0.082261
-0.004190
-0.005252
-0.009936
0.024930
-0.018549
0.019460
0.238069
0.293630
0.613001
1.018781
1.162158
1.401439
1.311514
1.159782
0.757371
0.482346
0.089552
-0.025175
-0.092860
-0.229745
-0.104114
0.027977
-0.035437
0.139582
0.085611
0.102823
0.096691
0.151925
0.123995
0.163864
0.177819
0.163005
0.274657
0.196081
0.267656
0.288873
0.303896
0.304995
0.295200
0.356652
0.405523
0.396299
0.467075
0.440295
0.480487
0.461763
0.483212
0.501780
0.508826
0.549654
0.554795
0.552428
0.550637
0.664969
0.572023
0.518411
0.560952
0.512100
0.539692
0.551800
0.452101
0.515827
0.554065
0.507818
0.453589
0.469720
0.535957
0.506975
0.382050
0.391780
0.365415
0.304962
0.325853
0.315256
0.223645
0.268479
0.176692
0.196274
0.214730
0.136327
0.187052
0.170722
0.117661
0.139522
0.155950
0.105445
0.121038
0.032984
0.101037
0.175323
0.083528
0.121032
0.102060
0.058145
0.115282
0.057000
0.104098
0.031759
0.060235
0.057775
0.055268
0.065957
0.038471
0.089095
0.160077
0.013247
0.103740
-0.008833
0.052169
0.088745
0.107451
0.059301
0.076762
0.075663
0.034591
-0.016916
0.115823
0.055022
-0.022054
0.097665
0.085130
0.138359
0.097990
0.109780
0.077437
0.091648
0.041510
0.046351
0.059108
0.075143
0.087409
0.096731
0.147714
0.083047
0.147510
0.111510
0.206229
0.111670
0.188545
0.253684
0.166675
0.161610
0.245637
0.166728
0.223538
0.242859
0.227092
0.246591
0.177461
0.244525
0.230985
0.216765
0.224312
0.212390
0.218009
0.137454
0.220066
0.151618
0.236598
0.299581
0.230823
0.143753
0.133014
0.156858
0.130510
0.139532
0.113424
0.125021
0.054166
0.164610
0.072506
0.160529
0.078193
0.002172
0.173454
0.129461
0.091261
0.158209
0.139459
0.407439
0.520175
0.827150
1.202917
1.400645
1.366551
1.363215
1.003653
0.645381
0.340414
0.101334
-0.037772
-0.144672
-0.015573
-0.024757
0.026944
0.048086
0.165361
0.113915
0.175551
0.191126
0.188009
