-0.039735
-0.036440
-0.003866
0.065419
0.030506
-0.045676
-0.026038
0.001127
0.038773
0.093718
0.022702
0.020670
-0.023621
-0.014575
0.031071
0.055187
0.069732
0.009466
0.121594
0.109526
0.144160
0.000830
0.105003
0.103808
0.134911
0.147508
0.157234
0.157649
0.186882
0.136204
0.140882
0.196513
0.143414
0.203243
0.242617
0.251050
0.282047
0.204988
0.230425
0.188970
0.158137
0.172522
0.154326
0.194967
0.242005
0.121270
0.162370
0.135903
0.176343
0.124345
0.132429
0.063315
0.106603
0.109736
0.086251
0.067929
0.023200
0.020598
0.078077
0.069446
0.023807
0.094335
0.028119
0.030761
0.009591
0.221418
0.328231
0.545569
0.933166
1.140145
1.403283
1.481400
1.296155
0.962840
0.620220
0.290704
0.002951
-0.129861
-0.154023
-0.131145
-0.060172
0.189647
0.042683
-0.028815
0.107213
0.108196
0.166928
0.147230
0.190955
0.191555
0.211129
0.266020
0.257478
0.173913
0.237289
0.228481
0.259404
0.328049
0.316800
0.413652
0.365570
0.385588
0.455360
0.410738
0.441552
0.543746
0.573591
0.563407
0.578354
0.529183
0.483974
0.638857
0.684252
0.530092
0.650258
0.512210
0.620845
0.507223
0.648568
0.620356
0.473644
0.597313
0.527795
0.557790
0.505880
0.495096
0.467413
0.478923
0.425722
0.435428
0.384691
0.362259
0.392628
0.280174
0.291905
0.335808
0.205248
0.284728
0.282819
0.221061
0.247190
0.162765
0.131395
0.179068
0.178041
0.102718
0.165452
0.140133
0.179656
0.187531
0.155019
0.056936
0.044440
0.065071
0.091553
0.065632
0.129324
0.118123
0.093959
0.102351
0.105316
0.092252
0.099787
0.037688
0.044609
0.101861
0.046197
0.059662
0.104439
-0.029345
0.006172
0.022050
0.146013
0.146058
0.183555
0.043732
0.066426
0.089482
0.084830
0.099833
0.079317
0.087878
0.065963
0.127689
0.169826
0.034153
0.037920
0.090882
0.165049
0.089948
0.113596
0.095969
0.115456
0.053391
0.062295
0.156807
0.188108
0.234404
0.190802
0.231940
0.144908
0.226497
0.205198
0.170380
0.229778
0.252321
0.271064
0.268062
0.184012
0.203456
0.286269
0.225247
0.280116
0.339019
0.312076
0.263065
0.253148
0.188896
0.252065
0.257160
0.175461
0.280067
0.192320
0.212359
0.152120
0.208935
0.101339
0.140278
0.061038
0.093662
0.236476
0.126438
0.180552
0.154887
0.073689
0.162770
0.071481
0.002557
0.092811
0.086934
0.073929
0.168873
0.204358
0.584375
0.795224
1.076547
1.265043
1.422016
1.423026
1.120998
0.765769
0.443483
0.095428
-0.119856
-0.134779
-0.108318
0.040451
0.147508
0.038633
0.121857
0.080840
0.182943
0.224269
0.195882
0.247090
0.190997
0.169645
0.272623
0.225965
0.267523
0.350562
0.293190
0.248169
0.330110
0.380238
0.410630
0.434228
0.393793
0.334470
0.448925
0.476845
0.485147
0.569409
0.498506
0.512161
0.563766
0.547267
0.503458
0.535247
0.699047
0.607242
0.590948
0.670937
0.555944
0.587937
0.568523
0.468526
0.528627
0.508000
0.607767
0.428912
0.485063
0.432906
0.407722
0.436019
0.327279
0.414278
0.312856
0.387266
0.308850
0.247890
0.230865
0.214840
0.186145
0.179473
0.168001
0.217648
0.155224
0.153239
0.201747
0.113375
0.142770
0.217370
0.083303
0.096429
0.099623
0.118400
0.152925
0.073873
0.139964
0.102448
0.096425
0.120046
0.050392
-0.028582
0.093176
0.035993
0.086742
0.142676
0.086308
0.070165
0.002622
-0.015067
0.091376
-0.008800
-0.005753
0.050700
0.124633
0.013832
0.032691
-0.001243
0.028584
0.109724
0.001931
0.085075
-0.003963
0.070307
0.048071
-0.004101
0.058589
0.057773
0.068911
0.023319
-0.011788
0.051446
0.013655
0.065470
0.066434
0.006185
-0.026852
0.136728
0.106889
0.068622
-0.018270
0.073640
0.058129
0.128869
0.178722
0.122203
0.222813
0.142933
0.133348
0.184808
0.233061
0.198979
0.217103
0.171681
0.168203
0.178397
0.186291
0.154750
0.235661
0.211439
0.208497
0.138431
0.155983
0.115550
0.188664
0.095409
0.251151
0.057206
0.018166
0.056021
0.061850
-0.003905
0.017348
0.066394
0.007358
0.027201
-0.070193
0.070450
0.095812
-0.020130
-0.020739
0.046372
-0.059530
-0.034391
0.047567
0.193277
0.157547
0.551789
0.885637
1.215596
1.396311
1.420928
1.216288
0.880699
0.439890
0.107846
-0.077906
-0.204151
-0.260281
-0.082593
-0.078297
0.000156
0.058362
-0.000088
0.063650
0.113645
0.006973
0.156596
0.148468
0.052100
0.060789
0.194824
0.130644
0.204665
0.103577
0.214323
0.158089
0.234016
0.144182
0.244934
0.265575
0.271902
0.211484
0.295107
0.374704
0.336729
0.451207
0.453506
0.432130
0.442565
0.515261
0.512086
0.470477
0.530482
0.508728
0.473594
0.492766
0.544549
0.530706
0.534472
0.510716
0.439249
0.486678
0.409907
0.350035
0.443792
0.295469
0.329625
0.362375
0.308420
0.293082
0.246649
0.251811
0.158428
0.211497
0.177068
0.213288
0.132882
0.087934
0.055942
0.098074
0.044463
0.061168
0.126587
0.011913
0.056288
0.059068
-0.049307
-0.077255
0.030506
-0.006731
-0.034901
0.004517
-0.016659
0.059647
-0.017049
-0.021905
0.049957
0.007699
0.017886
-0.002262
-0.010994
-0.026798
-0.053555
-0.027600
-0.077285
-0.051878
0.039960
-0.041510
-0.036652
-0.034403
-0.008360
-0.093715
-0.058252
-0.078050
-0.045025
0.006440
-0.027328
-0.088550
0.028543
-0.087430
-0.069101
-0.047951
-0.099579
-0.100796
-0.070437
0.000710
-0.111606
-0.038025
-0.112001
0.061383
-0.102379
-0.087253
0.075934
-0.046386
-0.034721
-0.034223
-0.009661
-0.030792
-0.020922
0.016256
-0.023841
0.048646
0.060479
0.070017
0.069803
0.094504
0.101490
0.128200
0.129655
0.125474
0.185415
0.127699
0.197134
0.163108
0.100997
0.073255
0.155737
0.184450
0.076686
0.068789
0.081295
0.092817
0.119113
0.112900
0.050105
-0.002424
0.030827
0.028371
-0.029381
-0.064697
0.059669
-0.044408
-0.093294
-0.056024
0.017729
-0.085905
-0.013099
-0.044230
-0.069715
-0.013525
0.044781
0.114226
0.427321
0.678268
1.012335
1.165090
1.374232
1.237636
1.058110
0.590309
0.320914
-0.020090
-0.098071
-0.195226
-0.181157
-0.153405
-0.004554
-0.012103
-0.030146
0.055730
-0.027946
0.098215
0.048378
0.106805
0.069588
0.042083
0.227503
0.085710
0.084436
0.133505
0.170179
0.180519
0.183569
0.211400
0.374952
0.295447
0.301673
0.306932
0.440059
0.340404
0.436730
0.476654
0.368342
0.457415
0.466559
0.524297
0.501284
0.554197
0.429165
0.470733
0.483949
0.547935
0.492106
0.476447
0.504200
0.435207
0.515337
0.397859
0.447111
0.503151
0.469490
0.425033
0.357683
0.353687
0.361911
0.276930
0.357918
0.340679
0.232146
0.162348
0.195978
0.148570
0.178006
0.084109
0.091589
0.135921
0.038461
0.039942
-0.024099
0.003522
0.016062
0.047052
0.060819
0.026381
-0.048852
0.065424
0.067902
-0.003030
-0.033828
-0.000787
0.036053
-0.061666
0.092485
-0.064443
0.035032
0.061504
-0.031986
-0.025325
-0.030578
-0.007029
0.016624
0.005140
-0.022255
-0.033496
-0.005204
0.040703
0.000146
0.024125
0.001633
0.084351
-0.017620
0.023402
-0.005410
0.013703
-0.024800
0.015127
-0.077167
-0.012604
-0.004580
-0.056263
-0.046779
-0.035158
-0.050050
0.067641
0.050166
0.107793
-0.035571
0.079736
-0.028767
0.061832
0.028834
0.023973
0.064802
0.083356
0.162701
0.003084
0.130078
0.168887
0.154406
0.169579
0.166655
0.098710
0.230337
0.167499
0.208850
0.139258
0.179114
0.165982
0.212884
0.181703
0.209713
0.130762
0.308810
0.134164
0.176861
0.063296
0.143749
0.167906
0.099104
0.163629
0.141011
0.081522
0.133525
0.065389
0.126719
0.090503
0.044028
0.032076
0.136612
0.015374
0.142617
0.091663
-0.062016
0.005719
0.110089
0.073463
0.065360
0.148751
0.286264
0.577572
0.963119
1.199015
1.372868
1.437264
1.228558
0.799687
0.524624
0.155536
-0.068124
-0.218182
-0.164141
-0.021505
-0.080248
0.085523
0.148387
0.101994
0.175043
0.133553
0.136980
0.180620
0.128161
0.188658
0.131500
0.177547
0.185609
0.357293
0.288924
0.217106
0.358267
0.378845
0.359523
0.431394
0.328378
0.446836
0.515866
0.373269
0.448013
0.509401
0.544551
0.577013
0.565982
0.604601
0.553271
0.547240
0.597121
0.497431
0.535925
0.610353
0.571086
0.551596
0.539570
0.595273
0.635042
0.550376
0.651058
0.482010
0.521467
0.497254
0.391819
0.503942
0.433806
0.427484
0.402257
0.354355
0.287352
0.386748
0.340165
0.315086
0.337185
0.261942
0.274047
0.207904
0.214506
0.228102
0.138485
0.116035
0.088081
0.127192
0.155761
0.208415
0.087180
0.128884
0.125287
0.009588
0.142286
0.223727
0.108640
0.116813
0.104700
0.142382
0.138461
0.100809
0.048398
0.104477
0.097356
0.122709
0.067520
0.074264
-0.021620
0.015957
0.055046
0.089793
0.137914
0.156827
0.062574
0.152483
0.042423
0.064918
0.047087
0.084323
0.091700
0.036864
0.041941
0.100053
0.076507
0.098299
0.081714
0.107469
0.032371
0.115692
0.087054
0.168073
0.103579
0.064183
0.225121
0.176108
0.202768
0.106297
0.209999
0.199176
0.255877
0.164553
0.193099
0.251291
0.214326
0.239739
0.244540
0.233059
0.174625
0.306008
0.259349
0.265329
0.336987
0.301798
0.246314
0.285153
0.337535
0.318371
0.317722
0.270772
0.290732
0.257406
0.164478
0.192393
0.127739
0.243378
0.100042
0.091677
0.166301
0.139644
0.090619
0.155627
0.153427
0.061219
0.170098
0.120863
0.107228
0.160056
0.117164
0.168975
0.041623
0.158738
0.054704
0.166697
0.270546
0.525208
0.780008
1.176421
1.361168
1.449861
1.419252
1.171623
0.686808
0.463163
0.133320
-0.030980
-0.024250
0.019628
0.004903
0.025817
0.102525
0.092289
0.186779
0.160658
0.171258
0.244540
0.173064
0.242625
0.255386
0.159404
0.216564
0.307849
0.301420
0.239313
0.428478
0.311510
0.345318
0.401988
0.413270
0.338597
0.433652
0.501347
0.391215
0.496541
0.544695
0.572631
0.578293
0.587435
0.653823
0.533627
0.650978
0.625650
0.609484
0.681026
0.613653
0.635006
0.594606
0.660514
0.516131
0.590156
0.611467
0.521983
0.485573
0.613731
0.498471
0.506594
0.498663
0.378496
0.398311
0.395722
0.344708
0.350267
0.307214
0.358729
0.290305
0.251209
0.189691
0.236221
0.208896
0.271861
0.238694
0.219581
0.140887
0.092574
0.159237
0.079512
0.003302
0.100736
0.051157
0.028208
0.101624
0.177635
0.020677
0.102855
0.001231
0.084072
0.060256
0.057657
0.128099
0.104390
0.113058
0.070859
0.086204
0.052356
-0.006833
0.021578
0.011371
0.126639
0.051917
0.039358
0.078806
0.092370
0.055064
0.081733
0.029728
0.111439
0.096286
0.049413
0.103532
0.034039
0.117361
0.018698
0.048028
0.059531
-0.074835
0.062093
0.027757
0.057381
-0.013641
0.104872
0.120397
-0.004293
0.135958
0.029570
0.157365
0.094392
0.128649
0.179420
0.137453
0.123615
0.280980
0.087210
0.199373
0.242020
0.262927
0.158101
0.251412
0.219859
0.182077
0.307487
0.245050
0.168839
0.202683
0.213247
0.237844
0.171324
0.188998
0.094260
0.080619
0.133676
0.141724
0.044260
0.072800
0.084422
0.113769
0.114216
0.094542
0.078686
0.113562
0.049685
0.052792
0.006070
-0.013599
0.062348
0.065095
0.009576
0.049098
-0.020245
0.086317
-0.030139
0.202960
0.352526
0.550983
0.892003
1.240580
1.398836
1.383254
1.191178
0.898894
0.424866
0.135313
-0.055147
-0.188925
-0.239475
-0.163001
0.011310
0.000333
0.009490
0.039230
0.145427
0.074193
0.104937
0.185097
0.148307
0.154190
0.102979
0.140301
0.143867
0.204596
0.245819
0.276215
0.198483
0.272335
0.228980
0.288450
0.337007
0.341075
0.401305
0.418845
0.366184
0.510451
0.476362
0.514177
0.454712
0.431692
0.512657
0.474153
0.520869
0.426458
0.410200
0.557845
0.438296
0.586925
0.509256
0.557251
0.457127
0.439161
0.464183
0.427461
0.422708
0.346329
0.305407
0.405954
0.279271
0.332608
0.302507
0.262769
0.290177
0.219038
0.311167
0.161310
0.057197
0.121330
0.087056
0.148175
0.132306
-0.013814
0.019766
0.038817
0.048394
0.014886
0.095473
0.027606
0.029406
-0.097703
0.038872
-0.027489
-0.005778
-0.032546
-0.032379
0.022852
-0.018783
-0.104079
-0.020852
-0.048182
-0.045008
0.019959
-0.085203
-0.027644
-0.023558
-0.102728
-0.064979
-0.098003
0.005185
0.004897
-0.106935
0.044398
-0.055948
-0.103473
-0.014893
-0.010737
-0.069926
0.000140
-0.017860
-0.113860
-0.025382
-0.055269
-0.015590
-0.083007
-0.084863
-0.022618
-0.009833
-0.042856
-0.002864
-0.051769
-0.083941
0.005479
-0.040929
-0.066769
-0.095503
-0.049713
-0.011761
0.071877
-0.053235
0.021264
0.000482
0.041580
0.003915
0.017000
0.116179
0.084771
0.153240
0.108628
0.047646
0.127411
0.185719
0.096559
0.184568
0.079095
0.188177
0.141064
0.029728
0.070448
0.038998
0.139614
0.041270
0.083507
0.004965
0.020168
0.015865
0.029180
0.066443
-0.033974
-0.086701
-0.004459
-0.077498
-0.068584
-0.056171
-0.004294
-0.066808
-0.110487
-0.088911
-0.063354
-0.035121
-0.011928
-0.139256
-0.071774
0.130046
0.346586
0.617393
0.964274
1.182574
1.306986
1.295517
0.902676
0.548180
0.080033
-0.139929
-0.196930
-0.256516
-0.225089
-0.139613
-0.006448
-0.038274
0.003313
-0.055256
-0.019229
0.044766
-0.049480
-0.061867
0.038939
0.004912
0.046012
0.054577
0.080740
0.013246
0.153727
0.150218
0.173152
0.162102
0.276255
0.287482
0.208393
0.347961
0.241676
0.315738
0.372591
0.351298
0.391188
0.436153
0.420968
0.451789
0.431519
0.466831
0.399535
0.439543
0.398864
0.479022
0.412462
0.425699
0.519259
0.398216
0.437838
0.438640
0.402246
0.372747
0.290891
0.234702
0.255703
0.261099
0.226852
0.237654
0.229164
0.205376
0.171376
0.263400
0.127519
0.063132
0.070473
0.099382
0.109785
0.023763
0.091703
0.000818
0.004178
0.016657
-0.010173
0.001960
-0.104067
-0.072447
-0.046840
-0.081012
-0.022822
-0.073026
-0.067744
-0.102213
-0.056025
-0.050160
-0.137316
-0.073442
0.019575
-0.098703
-0.167528
0.025557
-0.108710
-0.092347
0.030706
-0.002782
-0.111154
-0.060508
-0.029034
-0.027958
-0.028675
-0.040850
-0.105811
-0.080652
-0.081533
-0.014002
-0.020101
-0.021336
-0.119683
-0.046375
-0.055981
-0.148842
-0.013475
-0.026814
-0.103148
-0.084177
-0.085431
-0.059908
-0.031573
-0.030733
-0.063529
-0.021010
-0.138534
-0.042943
-0.076716
-0.009513
-0.023445
0.014645
-0.004162
-0.044613
0.056694
0.092374
0.028511
0.092810
0.060769
0.083148
0.109570
0.112377
0.150415
0.089621
0.148048
0.087519
0.126776
0.099513
0.145511
0.167672
0.109029
0.190712
0.108218
0.039073
0.062794
0.052713
0.027773
0.015177
-0.016873
-0.005862
0.078059
0.070291
-0.001160
-0.025773
0.008948
0.045449
-0.026626
-0.011401
-0.061826
-0.022150
-0.079042
-0.028864
-0.023332
0.076729
0.022622
0.135885
0.326340
0.558682
0.903296
1.202874
1.381423
1.364502
1.172333
0.784166
0.447412
0.054925
-0.189996
-0.153120
-0.226035
-0.201091
-0.044378
-0.003343
0.055361
-0.051827
0.010268
0.062790
0.081095
0.142048
0.084501
0.134833
0.124026
0.090980
0.108664
0.180068
0.247491
0.169405
0.208670
0.269550
0.259853
0.307764
0.393486
0.325236
0.385503
0.383706
0.332782
0.374927
0.394073
0.434995
0.445623
0.512421
0.494022
0.524672
0.361400
0.581581
0.550237
0.578894
0.535916
0.574106
0.461751
0.529884
0.444484
0.541563
0.371621
0.394560
0.485566
0.434715
0.305506
0.439260
0.403431
0.294909
0.301546
0.226033
0.374538
0.197872
0.253580
0.171404
0.110419
0.181670
0.073363
0.257471
0.142662
0.121105
0.078174
0.080234
0.058969
0.046384
0.113142
0.028741
0.016006
0.039231
0.110262
0.093762
0.044738
0.038756
0.019153
0.010597
0.005639
0.035768
0.001005
0.013036
-0.044314
-0.016886
0.004984
-0.015603
0.037620
0.043742
0.012499
0.052452
0.049146
0.039776
-0.058954
0.063085
0.037616
0.051553
-0.125375
0.021972
0.022832
0.044791
0.085309
0.068455
0.022985
-0.049667
0.013555
0.080613
0.104184
0.079973
-0.013191
-0.016911
0.127380
0.031256
0.090658
0.052289
0.065303
0.062930
0.028639
0.095848
0.078286
0.140723
0.105427
0.095442
0.112288
0.202297
0.149348
0.103099
0.194722
0.151929
0.134556
0.290066
0.268013
0.206447
0.260059
0.269141
0.202284
0.217451
0.177074
0.139863
0.243919
0.151665
0.220608
0.226620
0.182723
0.172086
0.221818
0.106677
0.168603
0.120694
0.162047
0.070002
0.072522
0.075458
0.047295
0.053050
0.069082
0.056376
0.026719
0.043455
0.022302
0.111888
0.051407
0.054859
0.062386
0.102233
0.253846
0.479527
0.799297
1.120467
1.376654
1.395627
1.270568
1.058033
0.663988
0.224733
0.157494
-0.090896
-0.089471
-0.138617
-0.008912
0.073369
0.010312
0.058805
0.153865
0.099373
0.116351
0.151495
0.240896
0.135115
0.184931
0.151703
0.223314
0.220456
0.258925
0.247205
0.244790
0.280105
0.353918
0.401800
0.443850
0.344057
0.447513
0.448963
0.512820
0.449023
0.521172
0.584407
0.503919
0.572754
0.602846
0.561762
0.568770
0.558903
0.536078
0.646840
0.713191
0.558549
0.625875
0.558716
0.569944
0.597346
0.526493
0.468173
0.516074
0.399281
0.461550
0.428984
0.387634
0.452556
0.412125
0.359998
0.370454
0.223135
0.278588
0.245885
0.279846
0.206404
0.239567
0.278153
0.156934
0.152383
0.134055
0.113542
0.113844
0.156246
0.095052
0.139844
0.058368
0.121141
0.229262
0.091056
0.104357
0.094207
0.013487
-0.017976
0.044698
0.047498
0.057049
0.054235
0.107023
0.042016
0.092041
0.009109
-0.019930
0.044855
0.072849
0.072947
0.047365
0.039513
-0.025439
0.100494
-0.010899
0.066943
0.108102
0.003874
0.019683
0.081638
0.083290
0.082687
-0.035648
0.074096
-0.015288
0.056358
-0.027413
-0.024478
0.133681
0.028433
0.061612
0.123009
0.053185
-0.016564
0.006389
-0.018523
0.052052
0.105440
0.072687
0.008511
0.171389
0.088290
0.100179
0.161334
0.129260
0.150065
0.127577
0.174564
0.220169
0.279785
0.179613
0.120287
0.203208
0.260693
0.194207
0.246144
0.122624
0.259533
0.174234
0.235340
0.111892
0.193365
0.135621
0.187448
0.109687
0.118608
0.002767
0.156304
0.040343
0.087961
0.041685
0.081605
0.026345
0.133110
-0.049985
0.077164
-0.005956
0.088455
0.041991
0.068453
0.032022
-0.068291
0.004370
0.050154
0.219757
0.289086
0.622784
0.904667
1.178200
1.476629
1.424376
1.139351
0.805391
0.423156
0.068822
-0.114124
-0.182499
-0.153842
-0.121046
-0.011616
0.113727
0.002980
0.069924
0.114460
0.091028
0.114973
0.112019
0.148912
0.087981
0.183477
0.219317
0.191150
0.190748
0.239876
0.258310
0.281467
0.332822
0.293809
0.298404
0.342942
0.360391
0.342008
0.363403
0.385254
0.430481
0.436743
0.466938
0.512682
0.452976
0.457799
0.419416
0.529566
0.499530
0.526480
0.514311
0.488820
0.418363
0.452699
0.459045
0.433186
0.513105
0.485118
0.453940
0.356446
0.337172
0.370107
0.351861
0.335527
0.267455
0.267813
0.252373
0.321435
0.284170
0.190493
0.149883
0.189992
0.103895
0.138724
0.104702
0.116722
0.064993
0.036494
0.096067
-0.006367
0.029887
0.099621
0.059544
-0.000047
0.060811
-0.093150
0.042300
0.068008
-0.026469
-0.059012
0.101323
-0.118785
-0.065591
-0.054242
-0.046215
-0.056417
-0.031386
-0.043936
-0.043277
-0.114065
-0.023675
-0.087601
-0.037744
-0.075597
-0.059797
-0.073062
-0.076024
-0.045062
-0.029324
-0.107406
-0.035495
-0.067753
-0.070338
-0.068839
-0.094825
-0.104849
-0.050041
-0.082638
0.004910
-0.011506
-0.039415
0.034364
-0.006970
0.018669
0.005865
-0.043084
-0.029630
-0.094386
-0.023210
-0.090065
-0.018060
-0.065805
-0.027754
-0.076673
0.033177
0.072243
0.043220
0.034038
0.013226
0.104315
0.122248
-0.001667
0.093410
0.100435
0.075177
0.124182
0.144752
0.131436
0.121149
0.064417
0.050223
0.012027
0.159590
0.089514
0.069890
0.022135
0.050469
0.046132
-0.041116
-0.052655
0.029211
-0.029202
-0.041292
-0.010925
-0.058074
-0.032682
-0.075077
-0.112521
-0.122773
-0.101379
-0.088179
-0.144300
-0.114999
-0.073206
-0.129159
-0.026316
0.058640
0.199556
0.320285
0.729667
1.015497
1.263472
1.331677
1.121710
0.900856
0.535264
0.128097
-0.133001
-0.268042
-0.293124
-0.209303
-0.189695
-0.112780
-0.040434
-0.105229
-0.000783
-0.076156
-0.029598
-0.017105
0.065605
-0.016801
0.015849
0.098856
0.074783
0.082476
0.086002
0.092375
0.115031
0.196429
0.245504
0.251131
0.215912
0.262741
0.250476
0.260712
0.285274
0.306105
0.380000
0.358161
0.320243
0.402687
0.427230
0.493962
0.360508
0.468507
0.487853
0.441568
0.449107
0.502919
0.389696
0.424169
0.483771
0.396003
0.282224
0.341843
0.312012
0.446612
0.295313
0.293685
0.321972
0.302871
0.188169
0.211948
0.184009
0.155378
0.183308
0.158459
0.083095
0.058922
0.018924
0.073579
0.068076
-0.029711
-0.011560
0.047753
-0.071687
-0.017059
-0.001069
-0.010532
-0.031741
-0.008996
-0.073436
-0.058357
-0.020091
-0.048153
-0.162955
-0.069539
-0.132864
-0.144682
-0.111233
-0.125132
-0.166628
-0.005451
-0.139320
-0.146959
-0.121499
-0.108325
-0.171203
-0.132053
-0.102170
-0.134801
-0.121271
-0.038535
-0.052860
-0.073029
-0.053493
-0.094644
-0.020167
-0.165825
-0.115427
-0.160812
-0.076359
-0.140837
-0.138861
-0.083564
-0.004336
-0.035213
-0.129970
-0.191036
-0.068354
-0.114272
-0.015181
-0.040970
-0.079287
0.011943
-0.026464
-0.045676
-0.071597
-0.041485
0.090269
-0.048179
0.014033
-0.058922
0.007626
0.107117
0.076943
0.076247
0.128404
0.018819
0.081946
0.018341
0.125747
0.110572
0.094100
0.152367
0.147957
0.144397
0.116236
0.082602
0.029227
0.094155
0.115638
0.074422
0.059502
-0.057028
0.024538
0.059146
0.059631
-0.027537
-0.007445
-0.094155
-0.048614
-0.068859
0.001909
-0.071279
-0.098026
-0.044392
-0.048347
0.016325
-0.028625
-0.100362
-0.036678
-0.009230
0.066515
0.219489
0.596138
0.909149
1.206516
1.270741
1.350230
1.037114
0.724634
0.273339
-0.027054
-0.118975
-0.176155
-0.205359
-0.172600
-0.081273
-0.036990
-0.140564
0.016464
0.037040
-0.060076
0.028505
0.001674
0.104592
0.048428
0.057714
0.143801
0.116062
0.082435
0.219441
0.255165
0.195713
0.220216
0.202387
0.249310
0.324528
0.233047
0.240678
0.330982
0.476666
0.409465
0.389331
0.362174
0.419345
0.401617
0.544253
0.463700
0.481169
0.477988
0.548463
0.467241
0.488699
0.386856
0.482364
0.445954
0.303634
0.431472
0.426680
0.397231
0.457893
0.460872
0.308035
0.356393
0.366697
0.380973
0.337043
0.354038
0.198647
0.314516
0.221014
0.232147
0.097088
0.036815
0.067178
0.174609
0.150172
0.086501
0.007070
0.073916
0.042162
0.089969
0.040468
0.058046
0.031234
0.059086
0.068677
0.076096
-0.067366
0.054065
-0.007876
-0.023851
-0.051258
-0.017718
0.039662
0.095576
0.017706
0.002201
-0.032426
-0.077262
-0.049045
-0.092362
0.004622
-0.025286
-0.025689
0.052543
-0.064712
-0.006593
0.062368
0.056810
0.024495
-0.097136
-0.019779
-0.016666
-0.030055
-0.009126
-0.049590
0.019798
0.038023
-0.012592
-0.022966
0.082075
0.077275
0.056344
0.056321
-0.037409
0.000867
-0.003963
0.034670
-0.009861
0.091223
0.141767
0.000858
0.008095
0.118096
0.184263
0.096633
0.134882
0.203010
0.181801
0.173338
0.153076
0.171264
0.203108
0.155302
0.174923
0.182505
0.175697
0.154371
0.207130
0.161357
0.189943
0.204883
0.202514
0.203137
0.176981
0.174669
0.109277
0.082804
0.107397
0.038779
0.133190
0.127764
0.083960
0.088718
0.030692
0.099947
0.100026
0.040096
0.029786
0.028593
0.031794
0.076163
0.014860
-0.004077
0.023335
0.068419
0.162152
0.335524
0.532471
0.803790
1.149361
1.389030
1.500000
1.222825
0.972578
0.667673
0.286213
-0.014292
-0.135782
-0.096607
-0.016345
-0.020829
0.053443
0.113276
0.031841
0.051581
0.162544
0.162812
0.093651
0.136077
0.207988
0.248006
0.164942
0.245532
0.212443
0.288172
0.302066
0.326078
0.301041
0.385040
0.366987
0.434052
0.406554
0.534749
0.414811
0.462960
0.522204
0.516475
0.496586
0.566196
0.520084
0.604611
0.580105
0.636941
0.522299
0.647206
0.686040
0.665258
0.620806
0.580747
0.598540
0.653015
0.558691
0.447399
0.519241
0.447688
0.539050
0.533049
0.381498
0.434016
0.398809
0.396447
0.397796
0.352770
0.303862
0.370708
0.234238
0.370910
0.279346
0.159743
0.214973
0.248799
0.283914
0.194781
0.172225
0.123053
0.128904
0.131068
0.098383
0.237471
0.054792
0.148386
0.095736
0.024481
0.124462
0.090335
0.046000
0.190674
0.082839
0.040620
0.015369
0.028207
0.076253
-0.053260
0.089191
0.123221
0.002991
0.097073
0.124650
0.050421
0.102935
0.049632
0.006354
0.068225
0.034019
0.115817
-0.008624
0.073946
-0.000930
0.034227
0.062231
0.084312
0.125689
0.107646
0.118210
0.076013
0.086752
0.119415
0.069080
0.010283
0.110892
0.091813
0.047406
0.126269
0.089003
0.094109
0.103916
0.165634
0.048533
0.140342
0.131896
0.155997
0.231509
0.176908
0.197190
0.146545
0.221375
