-0.007613
-0.000852
-0.046494
-0.036726
-0.006607
0.039007
0.064571
-0.009731
-0.002285
0.024127
-0.023754
-0.047418
0.064777
-0.013043
0.027387
0.037610
0.077779
-0.041499
-0.089033
-0.049314
-0.060599
0.045798
0.008986
0.047200
0.081762
-0.035331
0.060927
0.062610
0.026832
0.093288
0.115675
0.149215
0.136029
0.091111
0.113892
0.143240
0.153828
0.197241
0.172915
0.229144
0.180703
0.139832
0.273735
0.150190
0.266810
0.193100
0.192761
0.101475
0.247920
0.190337
0.193657
0.147468
0.141772
0.121061
0.100033
0.150802
0.088568
0.108798
0.101107
0.112257
0.198797
0.027063
0.035541
0.072418
0.052084
0.060485
0.009804
-0.016790
0.096978
0.028097
-0.004894
0.048198
0.037323
0.053364
0.072331
0.044938
0.002916
0.079638
-0.012458
0.044262
0.077777
0.061047
0.190665
0.440311
0.788871
0.969124
1.295893
1.391084
1.219775
1.060330
0.783565
0.437490
0.032810
-0.132010
-0.194389
-0.159716
-0.113147
-0.073104
-0.045826
0.073903
0.077449
0.078026
0.081246
0.102861
0.114661
0.020836
0.078690
0.187900
0.119085
0.068074
0.122701
0.073160
0.208904
0.184418
0.225250
0.133606
0.136392
0.282069
0.210609
0.221493
0.224354
0.243053
0.306662
0.333414
0.304190
0.387100
0.319914
0.401203
0.432916
0.509056
0.406100
0.503161
0.425395
0.521771
0.514039
0.521785
0.525276
0.644432
0.544960
0.535965
0.631648
0.587031
0.569139
0.500090
0.593901
0.592979
0.561591
0.519853
0.507868
0.435284
0.558794
0.510415
0.528718
0.430095
0.365916
0.410713
0.406181
0.340144
0.351457
0.302973
0.237315
0.324142
0.277199
0.212291
0.153819
0.237364
0.215569
0.213382
0.113681
0.150358
0.153222
0.178674
0.212746
0.168402
0.160710
0.096108
0.118448
0.145412
0.196001
0.136636
0.106869
0.151638
0.073550
0.122043
0.033528
0.047369
0.110131
0.062182
0.087330
0.046107
0.031918
0.061031
0.046605
0.081839
0.067867
0.105583
0.082937
0.158310
0.098019
0.118719
0.078161
0.090072
0.080839
0.181612
0.074993
0.102753
-0.000668
0.085278
0.048339
0.120019
0.106387
0.062241
0.042529
0.102155
0.098809
0.069310
0.022366
0.079252
0.116458
0.053316
0.129371
-0.005412
0.116227
0.014529
0.075707
0.041991
0.061190
0.063766
0.129250
0.095569
0.061206
0.118247
0.129685
0.030257
0.030256
0.039748
0.082754
0.071335
0.047710
0.120287
0.123010
0.144505
0.059372
0.118506
0.105760
0.143766
0.103076
0.209642
0.158722
0.103900
0.214905
0.144792
0.231887
0.186388
0.185895
0.255828
0.189680
0.264091
0.159317
0.197138
0.216430
0.186807
0.233535
0.320679
0.272859
0.267788
0.217894
0.174118
0.268499
0.201663
0.242598
0.186976
0.154643
0.161719
0.048576
0.142643
0.123453
0.137150
0.075652
0.062241
0.172368
0.016425
0.082272
0.074496
0.076592
0.093779
0.014784
0.050707
0.080157
0.054580
0.109217
0.006654
-0.017254
0.083228
0.124980
0.007634
0.001622
0.026470
0.104366
0.147945
0.255854
0.604881
0.899224
1.214576
1.415663
1.407507
1.226149
0.882886
0.537523
0.219006
-0.014764
-0.111601
-0.179627
-0.189591
-0.101691
-0.075460
-0.005471
0.004275
0.011516
0.048861
-0.035683
0.100501
0.160768
0.082846
0.196301
0.080204
0.149891
0.082094
0.097728
0.129066
0.103143
0.131098
0.178003
0.185513
0.141785
0.216090
0.226416
0.220261
0.280675
0.269983
0.338798
0.309403
0.309555
0.300176
0.310437
0.318708
0.378352
0.387065
0.447486
0.326007
0.458551
0.393837
0.399636
0.544614
0.458155
0.485359
0.464705
0.610759
0.534549
0.440163
0.502069
0.520054
0.460370
0.503454
0.526463
0.535524
0.481163
0.499768
0.322599
0.398985
0.418115
0.416983
0.388041
0.318351
0.342882
0.251640
0.324872
0.261404
0.310418
0.207205
0.170748
0.111243
0.219716
0.170262
0.153471
0.108364
0.168125
0.137568
0.084032
0.072696
0.129915
0.037503
0.039945
0.055373
-0.012575
0.027894
0.027232
0.004753
-0.068705
0.027144
-0.000438
-0.002281
0.011595
-0.034026
-0.023476
-0.012237
-0.027738
-0.016431
0.042423
-0.020012
-0.010196
0.090439
0.039526
0.010123
0.024141
0.059136
0.016678
0.038220
0.007604
-0.068310
0.024629
-0.035486
-0.002313
-0.011619
0.033609
-0.069445
-0.043447
0.027624
0.046035
-0.050796
0.002655
0.047789
-0.016879
0.024954
-0.034705
0.022359
-0.088413
0.006788
0.053426
-0.015738
0.009021
-0.026884
-0.066590
-0.026751
0.058503
0.016694
-0.000284
-0.020944
-0.028209
-0.047009
-0.029170
-0.020222
-0.047864
-0.070393
-0.015167
-0.018560
0.005358
-0.066220
0.062350
0.096241
0.005869
-0.006434
0.047286
-0.007553
0.102178
0.064651
0.045761
0.034747
0.056305
0.146224
0.138409
0.045862
0.195848
0.143803
0.070369
0.180052
0.146321
0.209597
0.119571
0.194491
0.169395
0.236675
0.110350
0.110585
0.118642
0.093409
0.162458
0.061481
0.115557
0.085150
0.007587
0.046382
0.063182
0.054192
0.067670
-0.033138
0.047217
-0.017983
-0.010303
-0.034825
-0.043052
0.059368
-0.027335
0.000924
-0.083909
0.023005
0.006940
0.043548
0.000369
0.053464
-0.119278
-0.002949
0.001506
-0.131480
-0.052759
-0.097133
-0.012422
0.209224
0.414250
0.724495
0.997525
1.268557
1.237869
1.247810
0.959054
0.586708
0.229084
0.038545
-0.224743
-0.304822
-0.292437
-0.180558
-0.136151
-0.020681
-0.049350
-0.091203
-0.080878
0.007635
0.032125
-0.069129
-0.045348
-0.020029
-0.014815
-0.054764
-0.003462
0.073325
0.075805
0.045593
0.011487
0.036138
0.093779
0.058704
0.107421
0.069486
0.055579
0.210654
0.163699
0.136283
0.172998
0.269168
0.241107
0.279146
0.288261
0.324443
0.316675
0.298396
0.370140
0.341968
0.384082
0.364118
0.339353
0.436064
0.431256
0.429244
0.524156
0.450811
0.420483
0.496536
0.470337
0.445335
0.403980
0.484207
0.444448
0.402512
0.280150
0.381244
0.321085
0.381817
0.291035
0.365791
0.217133
0.238375
0.209672
0.210625
0.208161
0.166691
0.189670
0.131491
0.146485
0.141547
0.126701
0.121794
0.130491
0.052643
0.047047
0.041649
0.024718
-0.061143
0.035997
0.016522
-0.046744
-0.013223
0.039659
0.007066
-0.003373
-0.032534
-0.058866
-0.036526
0.047037
-0.048204
-0.037016
-0.008769
-0.017532
-0.082838
-0.024978
0.021287
-0.094033
-0.030016
-0.007717
-0.056466
-0.043670
-0.042953
0.016005
-0.018084
0.026111
-0.027610
-0.028010
-0.112904
-0.007251
0.116077
-0.002397
0.027937
-0.018517
-0.014802
-0.033155
0.075072
0.010363
-0.042696
-0.035759
-0.019166
0.018276
-0.002990
-0.065387
-0.036789
0.011314
-0.001157
-0.024446
0.055476
-0.039309
-0.009137
0.014616
-0.025501
-0.066926
-0.082796
0.029817
-0.027780
-0.000933
-0.032461
0.001380
0.040190
-0.020426
-0.045390
0.045347
0.038237
-0.039369
-0.011251
0.023152
0.052072
0.045113
0.091611
0.049271
0.034012
0.065488
0.048937
0.103260
0.133457
0.071328
0.100848
0.155658
0.128655
0.094002
0.167451
0.170472
0.187171
0.134848
0.204550
0.193788
0.188892
0.173862
0.160413
0.128099
0.164493
0.192601
0.125154
0.115328
0.051981
0.098228
0.074332
0.020139
0.115737
0.023205
0.099745
-0.007220
-0.015352
0.026578
0.017064
0.058392
0.027673
0.052618
0.006244
-0.007794
0.081083
-0.012965
0.038183
0.061965
0.027919
0.005191
0.002200
-0.066785
0.031916
0.002638
-0.036782
-0.095445
0.035367
0.119645
0.282117
0.622637
0.933145
1.271073
1.363028
1.296986
1.079727
0.851706
0.476305
0.072295
-0.176475
-0.322910
-0.153663
-0.145251
-0.090122
0.020158
0.046490
-0.034531
0.053688
0.059066
0.055419
0.107455
0.054820
-0.006358
0.100352
0.088521
0.112580
0.177858
0.140171
0.127891
0.038339
0.138358
0.111498
0.173695
0.146875
0.163461
0.191444
0.280818
0.291840
0.320828
0.324538
0.322551
0.211831
0.411155
0.362483
0.370750
0.465184
0.425382
0.415749
0.383162
0.473953
0.517795
0.503336
0.477848
0.585991
0.580231
0.541465
0.513195
0.491189
0.590120
0.601704
0.599657
0.519071
0.522152
0.492655
0.504834
0.506053
0.463990
0.403567
0.405387
0.347215
0.441647
0.429392
0.403886
0.318434
0.315341
0.373164
0.289096
0.265101
0.288592
0.281261
0.216987
0.214212
0.199816
0.158798
0.079431
0.125256
0.086008
0.149417
0.109200
0.150333
0.120677
0.142268
-0.002810
0.052683
0.092102
0.102961
0.017324
0.098382
0.080683
0.035018
0.111215
0.092310
0.123593
0.012583
0.066872
0.087887
0.085578
0.061195
-0.027812
0.042528
0.076677
0.046690
0.086702
0.042737
0.024556
0.090485
0.055174
0.116720
0.085871
-0.004665
-0.005002
0.060468
0.056733
0.066232
0.118889
0.072146
0.104148
-0.043037
0.140717
0.084615
0.137603
0.088615
-0.001302
0.136355
0.058057
0.015415
0.111161
0.034754
0.156501
0.038790
0.111775
0.129898
0.108911
0.095283
0.077099
0.093541
0.101616
0.099035
0.109703
0.036550
0.061742
0.053019
0.120422
0.077922
0.080183
0.106484
0.156095
0.071133
0.095203
0.048557
0.096833
0.192799
0.139834
0.195044
0.201212
0.231590
0.182581
0.226327
0.221016
0.224334
0.255106
0.242217
0.215241
0.268275
0.268217
0.256648
0.206340
0.225629
0.229836
0.379432
0.204933
0.196573
0.291841
0.139176
0.273449
0.160762
0.227689
0.170802
0.244409
0.124068
0.228817
0.083697
0.217200
0.115279
0.137090
0.069732
0.141279
0.032426
0.164123
0.144992
0.072604
0.099883
0.084994
0.108220
0.109630
0.042409
0.033340
0.167460
0.109530
0.051745
0.094730
0.076694
0.138638
0.031381
0.060840
0.168667
0.323044
0.646597
0.871591
1.206911
1.396668
1.418495
1.279115
0.980977
0.602538
0.274798
0.063400
-0.161134
-0.181521
-0.198423
-0.054996
-0.028979
0.029249
0.086722
0.032099
0.139721
0.112192
0.115708
0.103443
0.174674
0.082748
0.172607
0.151934
0.077454
0.148350
0.140157
0.134480
0.199820
0.256103
0.225523
0.211716
0.324946
0.268344
0.215987
0.286029
0.363400
0.389072
0.401735
0.330281
0.322905
0.425694
0.384463
0.448487
0.528518
0.501642
0.442062
0.492692
0.492262
0.540057
0.502234
0.481532
0.526920
0.598631
0.566363
0.564025
0.611817
0.524479
0.646448
0.598888
0.590927
0.544619
0.513816
0.477147
0.478206
0.470892
0.439123
0.400970
0.431673
0.435058
0.446393
0.379760
0.321980
0.335776
0.389645
0.187880
0.254053
0.226040
0.251668
0.199867
0.193311
0.244088
0.193201
0.255599
0.209323
0.098809
0.064961
0.123424
0.165057
0.121858
0.104256
0.050015
0.096810
0.067005
0.070581
0.104562
0.063449
0.045863
0.112063
0.223273
0.173303
0.134087
0.128796
0.065784
0.097315
0.113817
0.025891
0.181211
0.078359
0.076100
0.091266
0.048936
0.049154
0.105522
0.117791
-0.037070
0.062966
0.057338
-0.015533
-0.029915
0.032253
0.073099
0.006436
0.111029
0.067468
0.027246
0.064560
0.052708
0.016732
-0.027414
0.037678
0.003382
0.074067
0.104364
0.113090
0.087624
0.094514
0.044415
0.018974
0.014931
0.000460
0.089748
0.058565
0.046661
0.093477
0.019425
-0.004659
0.018014
0.053852
0.079108
0.034594
0.037229
0.053668
0.014661
0.125970
0.182529
0.069254
0.068727
0.154436
0.037164
0.083470
0.104399
0.086975
0.055670
0.116220
0.193538
0.140348
0.149626
0.185329
0.185872
0.182072
0.172911
0.137965
0.178599
0.205110
0.217377
0.220351
0.210873
0.206915
0.135834
0.153522
0.134695
0.137871
0.138819
0.053777
0.194013
0.135002
0.101789
0.064040
0.044825
0.080424
0.100246
0.074203
0.059405
0.074673
0.056095
0.047871
0.081596
-0.030983
0.008603
0.005081
0.045133
0.010054
0.004383
-0.030312
0.022146
-0.070179
0.050564
-0.004042
-0.005969
-0.009296
-0.048998
-0.017387
-0.019066
0.206594
0.327431
0.646805
0.964804
1.204066
1.365370
1.247427
1.063415
0.760492
0.350850
-0.013661
-0.180175
-0.244559
-0.207319
-0.184795
-0.077245
-0.113378
0.036888
0.019334
-0.037734
-0.088125
0.039430
-0.003892
-0.080620
0.000698
0.025364
0.111741
0.082970
-0.014316
0.012020
0.038672
0.058749
0.110018
0.092139
0.079457
0.075990
0.111585
0.162738
0.113502
0.115186
0.210097
0.170504
0.211980
0.216666
0.198183
0.283717
0.262776
0.331377
0.410538
0.315909
0.373229
0.443728
0.349073
0.339752
0.386398
0.406772
0.419684
0.475357
0.453359
0.479736
0.447273
0.502760
0.473968
0.457781
0.514705
0.399236
0.437434
0.422629
0.509154
0.376469
0.372058
0.298802
0.284137
0.279182
0.262556
0.252563
0.186961
0.170209
0.147462
0.185788
0.117120
0.151934
0.050293
0.053169
0.031635
0.048684
0.061858
0.089222
0.027046
0.011845
0.005736
0.003887
0.009909
0.048690
-0.039360
-0.038141
0.034313
-0.032595
0.077193
-0.009800
-0.027155
-0.033363
-0.066813
-0.048264
-0.079528
0.001456
-0.064029
-0.046567
0.036686
-0.031282
-0.118082
-0.091362
-0.043208
-0.108848
-0.037971
-0.005225
-0.040046
-0.047312
-0.113791
-0.057309
-0.067349
-0.095253
-0.119347
-0.085421
-0.050325
-0.108726
-0.105462
-0.086473
-0.129278
-0.061961
-0.094535
-0.108807
-0.118733
-0.089818
-0.114634
-0.114702
-0.081003
-0.064969
-0.140722
-0.097773
-0.133608
-0.113908
-0.080036
-0.054883
-0.025834
-0.085341
-0.066301
-0.025412
0.030559
-0.031366
-0.082357
-0.036502
-0.050412
-0.083256
-0.073654
-0.082985
0.040815
-0.081132
-0.093734
-0.114030
-0.056531
-0.004969
-0.089085
-0.087151
0.069919
0.055639
0.019884
0.018367
0.044387
0.028941
0.048799
0.060544
0.018811
0.067348
0.075190
0.109209
0.019939
0.054375
0.060882
0.128745
0.118299
0.120107
0.036458
0.149869
0.078535
0.089748
0.027868
0.055667
0.071578
-0.025709
0.025661
0.021249
0.008987
-0.000309
-0.043252
-0.043785
0.038698
-0.043257
-0.091292
-0.064312
-0.032848
-0.087487
-0.083051
-0.005969
-0.078346
-0.103589
-0.085848
-0.078883
-0.026298
-0.071318
-0.049120
-0.033502
-0.059038
-0.014956
-0.127584
-0.166250
-0.081066
-0.012684
0.233223
0.474701
0.851596
1.068132
1.243257
1.216491
1.093337
0.838376
0.411880
0.017085
-0.163005
-0.262093
-0.293659
-0.322119
-0.268079
-0.199991
-0.113510
-0.073826
-0.005794
-0.104833
0.001866
-0.037477
-0.066704
0.015329
0.001302
-0.015153
-0.019279
-0.066670
-0.007660
0.059852
-0.018645
0.005709
0.015686
0.072397
0.072837
0.056496
0.098261
0.091505
0.088368
0.141470
0.256459
0.223233
0.182542
0.184699
0.323103
0.266670
0.399802
0.330259
0.386186
0.357100
0.440559
0.423379
0.488765
0.438973
0.396194
0.427300
0.487067
0.472014
0.455740
0.487462
0.439028
0.489382
0.474759
0.425742
0.432676
0.391708
0.380575
0.348667
0.370446
0.360378
0.301123
0.341689
0.351152
0.231010
0.261715
0.300663
0.239392
0.209428
0.175474
0.129861
0.144164
0.110902
0.095330
-0.001623
0.020014
0.002907
0.023223
0.011836
0.163326
0.001824
-0.083576
0.002902
0.095230
0.008959
-0.023064
-0.112601
-0.065650
0.009018
-0.142145
-0.018066
-0.069770
-0.016453
0.013567
-0.003044
-0.037144
0.017104
-0.093080
-0.029097
-0.026586
-0.044370
-0.006526
-0.075121
-0.040224
0.038708
-0.022437
0.009135
-0.016611
0.040429
-0.062952
-0.021549
-0.000638
-0.094087
-0.097035
0.008160
-0.052503
0.071398
0.010065
-0.038343
0.032479
-0.012025
-0.073593
-0.016079
0.009204
-0.040030
0.043827
0.067547
0.024782
0.024142
0.001973
-0.035492
-0.090955
-0.033451
-0.026258
-0.002608
-0.009835
0.045548
-0.077400
-0.015615
0.027041
0.034264
0.077606
0.015402
0.052541
-0.033508
-0.047356
-0.054812
0.014562
0.054403
0.000967
0.046615
0.040174
0.075113
0.029911
0.142006
0.106130
0.059226
0.100352
0.098977
0.179844
0.099851
0.156095
0.067545
0.197957
0.174319
0.207545
0.166089
0.137970
0.203053
0.100186
0.186142
0.117059
0.093092
0.183094
0.199836
0.070303
0.100474
0.136219
0.168171
0.123894
0.105857
0.147324
0.014916
0.113753
0.040383
0.075801
0.127081
-0.009313
-0.002217
0.041575
0.048635
0.032959
0.011069
0.146914
0.092580
-0.035680
0.036819
0.076899
-0.042956
-0.003901
-0.066404
0.049984
-0.057403
-0.013738
0.028204
0.017202
0.001730
0.069863
0.187410
0.491066
0.843191
1.097973
1.250518
1.362893
1.288291
1.015059
0.681592
0.283735
0.049425
-0.182754
-0.176251
-0.239461
-0.202332
-0.045782
0.046252
0.048448
0.042151
0.077965
0.021324
0.130342
0.005006
0.018746
0.052762
0.119400
0.073127
0.011125
0.059291
0.107342
0.175783
0.182882
0.161795
0.103099
0.161884
0.177069
0.258167
0.215306
0.204371
0.262729
0.277617
0.233979
0.261344
0.305372
0.318269
0.242285
0.335278
0.396460
0.476520
0.354271
0.385448
0.497877
0.478571
0.556208
0.586141
0.546771
0.541707
0.480474
0.523170
0.580504
0.506985
0.537930
0.539740
0.515567
0.409799
0.508826
0.468639
0.496077
0.489316
0.413526
0.540350
0.391798
0.413631
0.359524
0.374676
0.309397
0.281491
0.259286
0.337115
0.241252
0.138897
0.270102
0.239089
0.177208
0.128150
0.215349
0.135100
0.126980
0.186744
0.107025
0.083767
0.099821
0.104539
0.064346
0.103718
-0.018257
0.091562
0.144223
0.035495
-0.018520
0.048017
0.078093
0.057333
0.121012
0.066610
0.008553
-0.042621
-0.007137
0.063566
0.029269
0.071390
0.026945
0.120679
0.143983
0.075667
0.104422
0.041816
0.041601
0.115960
0.090152
0.072352
0.038401
0.042064
0.006268
-0.029155
-0.011162
0.048121
-0.016857
0.019438
0.054164
0.045813
0.048218
-0.016950
0.028573
0.035706
0.065617
0.007521
0.040682
0.050139
0.112091
0.041838
0.114591
-0.026053
-0.021787
0.015626
0.083352
0.010351
0.004042
-0.020527
-0.004050
0.027073
0.044696
0.050021
0.010735
0.032747
0.046099
0.054140
0.057879
0.064782
0.035880
0.100778
0.035987
0.055299
0.146672
0.116483
0.064560
0.048421
0.210159
0.111340
0.169061
0.130532
0.109589
0.116834
0.223636
0.180678
0.167359
0.219391
0.164993
0.210626
0.231997
0.208063
0.132484
0.215474
0.192147
0.219455
0.189870
0.157725
0.142662
0.171496
0.073463
0.190324
0.080276
0.168222
0.054207
0.183032
0.130276
0.044134
0.067519
0.094978
0.017472
0.066235
0.061674
0.074236
0.034190
0.009219
0.023064
-0.000652
0.000586
0.058107
0.041733
0.076763
0.023838
-0.021366
-0.082695
0.062833
-0.087369
0.096749
0.140162
0.358346
0.666714
0.988486
1.253077
1.387346
1.275044
1.110726
0.742064
0.379603
0.033940
-0.159053
-0.270375
-0.265269
-0.182327
-0.171647
-0.074677
0.001099
-0.042281
0.051181
0.065027
-0.032022
0.074447
0.062961
-0.069591
-0.016851
-0.038330
-0.048959
0.132598
0.064829
0.028242
0.164355
0.105337
0.006070
0.124039
0.160371
0.097580
0.173335
0.201186
0.297529
0.239526
0.315011
0.248719
0.269454
0.317318
0.301461
0.379693
0.329739
0.351554
0.425720
0.456823
0.346340
0.489017
0.525366
0.410415
0.441563
0.453366
0.447218
0.553035
0.461042
0.489070
0.472572
0.411504
0.394227
0.490311
0.451850
0.340773
0.447408
0.428860
0.412453
0.340219
0.353925
0.350144
0.300582
0.230176
0.237683
0.248064
0.198175
0.212305
0.161057
0.136146
0.128105
0.153758
0.192100
0.111223
0.087649
0.077489
0.017796
0.106768
0.082888
0.055303
-0.001513
0.019802
0.025252
0.027354
-0.043858
-0.028357
0.018427
-0.078479
-0.022783
-0.055042
0.014779
-0.053983
-0.018251
-0.057831
-0.113820
-0.062904
-0.053928
-0.014802
-0.076787
-0.036364
-0.054855
-0.134632
-0.047108
-0.093682
-0.046137
-0.102004
-0.134856
-0.042148
-0.020304
-0.078946
-0.083219
0.031765
-0.093751
0.023627
-0.032883
-0.061026
0.011183
-0.083827
-0.113951
-0.134432
-0.089761
-0.036108
-0.128425
-0.030356
-0.060746
-0.034315
-0.193119
-0.050153
-0.122828
-0.085219
-0.061538
-0.129426
-0.141059
-0.053129
-0.098022
-0.089734
-0.097681
-0.068748
-0.144199
-0.033042
-0.075723
-0.109256
-0.100133
0.008133
-0.006616
0.018613
-0.073527
-0.068943
-0.015816
0.021485
-0.006407
-0.020840
-0.042730
0.050671
-0.002392
-0.007795
-0.014110
-0.005415
0.053485
0.018048
-0.017224
0.051252
0.060402
0.058640
0.060122
0.067700
0.100678
0.151595
0.047251
0.036201
0.055106
0.086224
0.109519
0.096125
0.001018
0.010030
0.043073
0.014134
0.052853
0.016683
-0.044056
0.074277
0.047882
-0.043391
0.036575
-0.027162
-0.038766
-0.124749
-0.062933
-0.093499
-0.088935
-0.069738
0.010231
-0.121533
-0.089701
-0.126901
-0.102509
-0.090034
-0.091451
-0.072246
-0.019460
-0.019263
-0.078722
-0.145669
-0.156911
-0.114554
-0.109299
0.098174
0.456375
0.785648
1.029190
1.257766
1.323066
1.070239
0.834051
0.347564
0.179568
-0.152446
-0.322232
-0.315579
-0.382559
-0.284996
-0.181514
-0.074897
-0.158647
-0.098262
-0.057746
-0.058508
0.001629
-0.045202
-0.004856
-0.061839
-0.032925
-0.089053
-0.070312
-0.029042
-0.029685
-0.000260
0.064830
0.014917
-0.023153
0.062491
0.114299
0.065425
0.025248
0.073378
0.034183
0.178474
0.136996
0.164700
0.126448
0.219238
0.187275
0.191318
0.297420
0.330946
0.334115
0.307164
0.393062
0.356152
0.427942
0.357814
0.390397
0.389398
0.443034
0.447160
0.361587
0.439989
0.420340
0.356492
0.451042
0.353000
0.342465
0.307755
0.381831
0.377592
0.271582
0.310921
0.265505
0.160469
0.228788
0.188800
0.118156
0.139761
0.186264
0.074336
0.132567
0.130507
0.136476
0.039128
0.013109
0.017262
0.086057
0.046576
-0.016392
0.005098
-0.006289
-0.079530
-0.048316
0.032113
-0.003988
-0.080944
-0.045743
-0.061287
-0.052912
-0.158270
-0.139038
-0.023615
-0.054527
-0.109418
-0.049504
-0.052402
-0.040222
-0.067892
-0.099898
0.023235
-0.037962
-0.079900
-0.080487
-0.113746
-0.175422
-0.060010
-0.156074
-0.052227
-0.102103
-0.079017
-0.063262
-0.023554
-0.103586
-0.021350
-0.094695
-0.177557
-0.102507
-0.076615
-0.095819
-0.045506
-0.103277
-0.082383
-0.118715
-0.120801
-0.040561
-0.061716
-0.088715
-0.081843
-0.040034
-0.054679
-0.033167
-0.077707
-0.091443
-0.067267
-0.014098
-0.035617
-0.104396
-0.160000
-0.031609
-0.052513
-0.109294
-0.065391
-0.034694
-0.049439
-0.105623
-0.072385
-0.036578
-0.073424
0.033786
-0.069475
-0.046903
-0.054998
0.031282
-0.052038
-0.014363
-0.027341
0.004721
0.114763
0.055649
0.036521
0.032136
0.095528
0.101890
0.068054
0.123539
0.015101
0.119717
0.150210
0.128945
0.165072
0.119175
0.088518
0.137029
0.162654
0.112025
0.080023
0.123269
0.118577
0.176260
0.065845
0.034867
0.023835
-0.037260
0.001764
-0.006591
-0.023479
-0.010574
0.057531
-0.009464
0.030922
-0.102278
-0.053158
0.030382
-0.032106
-0.083322
-0.099739
0.009077
0.019972
-0.093563
-0.032510
-0.060006
-0.025902
-0.073016
-0.069348
-0.058914
-0.039081
-0.031486
0.038036
0.135572
0.299822
0.687123
1.038274
1.271284
1.299820
1.238891
1.019726
0.664171
0.374135
-0.064006
-0.205376
-0.299778
-0.216994
-0.169659
-0.205052
-0.071443
0.005828
0.038678
0.005301
-0.052154
-0.076935
0.040857
0.016404
0.009937
0.074565
-0.085402
0.064817
0.028368
0.064506
0.040154
0.093856
0.095287
0.085150
0.047564
0.117957
0.234020
0.175660
0.152573
0.204569
0.130739
0.190006
0.230934
0.250250
0.354749
0.299167
0.319262
0.396099
0.414978
0.464343
0.436389
0.449775
0.404374
0.476894
0.444110
0.498169
0.522478
0.522665
0.535904
0.476804
0.444256
0.495384
0.506696
0.527839
0.537400
0.463570
0.435402
0.509166
0.435679
0.420222
0.428597
0.424670
0.317643
0.362928
0.322403
0.259087
0.255632
0.254920
0.149111
0.176828
0.279981
0.190518
0.201974
0.084374
0.131777
0.196342
0.138310
0.113223
0.131523
0.067528
0.053346
0.074536
0.110810
0.100214
0.060606
0.001778
0.021347
-0.006159
-0.002743
0.059401
0.072070
0.000216
0.061985
0.060413
0.084915
-0.014407
-0.017583
0.120792
0.046248
0.057373
0.012983
0.034371
0.039014
0.069208
-0.026816
-0.012181
0.022039
0.072778
0.035032
0.022788
0.018088
0.059146
0.085352
0.108411
0.020321
0.015188
-0.049370
0.004515
0.021077
-0.016892
0.129611
0.011126
-0.006559
0.028938
0.079438
0.062703
0.013262
0.128578
-0.001271
0.022741
0.022592
-0.013157
0.065491
0.090307
0.097277
0.029261
0.112965
-0.052536
0.066587
0.041722
0.107009
0.002553
0.120732
0.136981
-0.048934
-0.000795
0.117509
0.129216
0.064401
0.116021
0.081858
0.085811
0.068903
0.142585
0.155807
0.160290
0.155200
0.169889
0.138074
0.200628
0.229310
0.192801
0.285292
0.144881
0.207973
0.220940
0.252361
0.136053
0.262366
0.315950
0.205019
0.323170
0.199709
0.214960
0.286724
0.209998
0.245423
0.170855
0.187224
0.309015
0.148949
0.156921
0.135408
0.133055
0.147466
0.152797
0.122155
0.008927
0.098755
0.144162
0.067761
0.118393
0.067839
0.151852
0.075969
0.058010
0.067240
0.083581
0.022483
0.133116
0.061944
0.056216
0.075316
-0.050578
0.052680
0.013211
0.128335
0.167238
0.327645
0.574058
0.939814
1.337760
1.360312
1.500000
1.216750
0.837353
0.551222
0.237253
0.002016
-0.154880
-0.199092
-0.191620
-0.045558
0.010228
0.040686
0.073437
0.127707
0.030980
0.105415
0.051094
0.108530
0.047293
0.101571
0.088990
