0.022371
-0.051931
-0.063546
0.053321
-0.054540
0.044705
-0.009232
0.012205
-0.055565
0.027820
-0.042965
0.047832
-0.033274
0.015336
0.033442
-0.050838
0.016599
-0.002778
0.043005
0.031521
0.029852
-0.032057
-0.022477
0.031771
0.063145
0.076616
0.093222
0.065394
0.064236
0.084345
0.119196
0.125354
0.086277
0.155710
0.174396
0.131188
0.143479
0.243820
0.279209
0.185678
0.279610
0.225032
0.199036
0.255608
0.233305
0.151166
0.213543
0.261195
0.262776
0.266794
0.159642
0.309779
0.126008
0.145250
0.219951
0.122661
0.196896
0.131104
0.113441
0.073845
0.046598
0.098917
0.064829
0.149306
-0.008688
-0.007843
0.056098
0.024629
0.114826
0.043114
0.041076
0.099235
0.117203
0.035218
0.044138
0.051057
0.095738
0.086375
0.099239
-0.004723
0.041321
-0.004904
-0.024440
0.106189
0.323051
0.709003
1.017787
1.253531
1.423542
1.415555
1.255554
0.985403
0.543790
0.195457
-0.005085
-0.186502
-0.298305
-0.192307
-0.053860
0.010376
0.068067
-0.026901
0.082081
0.046397
0.128558
0.035145
0.097410
0.042253
0.116895
0.129701
0.071995
0.150508
0.075601
0.151114
0.136705
0.237941
0.233465
0.156164
0.192965
0.248330
0.220269
0.178326
0.271910
0.279878
0.294452
0.244893
0.378379
0.318048
0.382489
0.443757
0.376635
0.469972
0.393498
0.462233
0.509891
0.544498
0.537189
0.485255
0.571487
0.545795
0.570186
0.550625
0.538308
0.544640
0.691553
0.597224
0.625449
0.489160
0.644690
0.595212
0.507922
0.486441
0.436425
0.523737
0.535567
0.506825
0.425812
0.394960
0.387179
0.461861
0.305583
0.365924
0.374611
0.357985
0.314841
0.252931
0.255862
0.203277
0.245747
0.210214
0.202480
0.235177
0.205034
0.159081
0.175690
0.071485
0.102516
0.105258
0.148355
0.135146
0.150232
0.151426
0.086615
0.108785
0.052236
0.215142
0.067899
0.064735
0.121584
0.150414
0.110897
0.048857
0.032281
0.045620
0.125954
0.087454
0.105916
0.120646
0.078096
0.248943
0.103484
0.021868
0.057000
0.102481
0.072234
0.050882
0.073295
0.123270
0.063063
0.105802
0.132720
0.147247
0.018641
0.024300
0.031265
0.080221
0.121027
0.028124
0.031737
0.010649
0.141484
0.028732
0.075224
0.100407
0.132518
0.049411
0.037049
0.050885
0.110216
0.149513
0.060616
0.126005
0.001844
0.102429
0.067127
0.109104
0.075303
0.077747
0.044396
0.118804
0.063176
0.013972
0.031704
0.090892
0.099425
0.082290
0.081155
0.084889
0.135118
0.091016
0.103980
0.105011
0.147605
0.208711
0.119964
0.237605
0.223077
0.147057
0.278218
0.267550
0.254430
0.234873
0.173574
0.219847
0.280426
0.290735
0.334937
0.188253
0.201146
0.236029
0.222148
0.209256
0.178192
0.148555
0.163802
0.183138
0.090487
0.113323
0.160779
0.113605
0.225834
0.101656
0.144029
0.099019
0.099689
0.096656
0.142545
0.186740
0.041253
0.048641
0.026286
0.090857
0.087037
0.042354
-0.036849
0.043189
0.085692
0.073634
0.085833
0.049423
0.087015
0.080939
-0.025724
0.119536
0.208609
0.585819
0.842693
1.100769
1.430856
1.500000
1.342344
1.111099
0.723442
0.376377
0.078805
-0.089698
-0.227955
-0.253199
-0.114109
-0.034185
-0.020136
0.044566
0.060528
0.037645
0.073520
-0.075535
0.052324
0.074079
0.107310
0.112935
0.121334
0.027276
0.063119
0.205801
0.137832
0.080303
0.171071
0.211669
0.110259
0.137386
0.090960
0.229769
0.217011
0.204594
0.265075
0.366675
0.268173
0.329526
0.288860
0.345184
0.386429
0.430465
0.456942
0.462147
0.486856
0.399729
0.521530
0.498670
0.482792
0.578156
0.545393
0.569579
0.590704
0.486086
0.554478
0.591189
0.583806
0.518521
0.482922
0.575432
0.542852
0.439905
0.448389
0.427788
0.456587
0.501858
0.476089
0.339709
0.416166
0.275844
0.381523
0.294012
0.255152
0.336633
0.203512
0.180035
0.212876
0.114602
0.150309
0.103215
0.146021
0.024790
0.185458
0.051394
0.034617
0.021201
0.019115
0.037438
0.074218
0.088804
-0.041051
0.030482
0.045931
-0.038707
-0.012767
0.090582
-0.015869
-0.075910
-0.002219
0.019732
0.069307
0.015109
0.001522
0.020522
-0.016119
-0.051850
0.064654
0.029707
0.009747
-0.002269
0.043083
-0.026068
-0.025498
0.040785
-0.001909
0.012779
-0.024407
-0.034857
0.083443
0.040831
-0.125313
0.007317
0.043054
-0.021960
-0.019501
-0.001147
-0.072108
-0.055185
-0.009864
0.027441
-0.033875
-0.053945
0.017686
-0.004535
-0.022418
-0.025238
-0.061092
-0.084410
0.003257
0.058706
0.017628
-0.014519
0.005842
0.000332
0.002113
-0.048976
-0.013167
-0.062665
-0.032523
-0.039382
0.010132
-0.003629
0.035706
0.036513
0.080323
-0.084913
0.038459
0.048989
-0.003511
0.047608
0.001089
0.000473
0.037185
0.074223
0.124626
0.041045
0.078550
0.099967
0.165635
0.198399
0.139401
0.070137
0.187411
0.182681
0.043539
0.250836
0.109395
0.066486
0.191994
0.136039
0.117151
0.149422
0.131094
0.104373
0.138552
0.078613
0.055324
0.041007
-0.026409
0.036577
0.026153
-0.030306
0.050905
-0.077581
-0.013589
0.012716
-0.051947
-0.053306
-0.001799
-0.003966
-0.058178
-0.015274
-0.146531
0.040071
-0.120237
-0.004395
0.016150
0.000844
0.001001
-0.040678
-0.085158
-0.075636
-0.026065
-0.012361
-0.006933
0.195710
0.554439
0.901217
1.209390
1.288280
1.415960
1.163144
0.873057
0.461294
0.139623
-0.135366
-0.210706
-0.318530
-0.274360
-0.194059
-0.105469
-0.063616
-0.090295
0.056743
-0.005238
-0.011506
-0.073192
-0.054271
-0.038423
-0.008040
-0.071371
-0.024010
0.039034
-0.013536
-0.034644
0.067569
0.061825
-0.064290
0.069567
0.046300
0.148677
0.074098
0.081164
0.104375
0.174975
0.226452
0.168547
0.200593
0.207872
0.310591
0.291894
0.305418
0.284349
0.325578
0.455126
0.434452
0.321039
0.416742
0.393247
0.470049
0.481110
0.439134
0.477221
0.504011
0.470970
0.467323
0.498483
0.505798
0.405074
0.402871
0.390598
0.412479
0.402804
0.270607
0.310272
0.409164
0.379480
0.311147
0.297878
0.292096
0.204785
0.178265
0.165872
0.166227
0.261559
0.091934
0.190261
0.047960
0.134090
0.087997
0.011906
0.057901
0.096138
0.016331
0.103117
0.000555
-0.054425
0.037118
-0.038680
-0.011225
-0.025728
-0.029224
-0.080189
-0.029070
-0.007192
-0.073228
-0.012464
-0.062606
-0.035823
-0.003055
-0.058775
-0.008776
-0.054219
0.085788
0.006225
-0.143421
-0.109707
-0.046182
-0.018896
-0.028751
-0.030682
-0.007527
-0.133920
-0.104035
-0.084852
-0.066520
-0.078823
-0.034832
-0.071051
-0.003486
-0.030122
-0.004529
-0.013148
-0.001170
-0.011400
-0.001174
-0.072816
-0.033036
-0.030793
-0.009806
0.032212
-0.034994
-0.041985
0.051182
-0.073235
-0.009147
-0.042351
0.066852
-0.000351
0.028913
-0.071737
-0.028967
-0.050822
0.036595
-0.050471
0.052132
-0.008431
0.034582
-0.025221
0.008835
-0.078715
-0.077085
0.040507
-0.009255
0.084175
0.026251
-0.015426
0.015460
0.006357
-0.032155
-0.010868
0.079424
0.031069
0.033235
0.014684
0.126547
0.145144
0.183752
0.153189
0.132652
0.101774
0.158171
0.163534
0.118088
0.161679
0.154642
0.177648
0.177638
0.146160
0.177049
0.202480
0.214216
0.076025
0.117080
0.155993
0.098107
0.092398
0.083934
0.054679
0.139567
0.087785
0.052883
0.099842
0.119419
-0.022853
-0.037274
0.089181
0.026979
0.070249
0.024180
0.011833
0.069234
-0.029942
-0.002163
0.013982
-0.070207
-0.004279
0.017276
0.025212
0.036358
0.013860
-0.005055
0.049888
-0.066139
0.014728
0.173431
0.389962
0.704913
1.060406
1.335569
1.353828
1.343607
1.103607
0.796618
0.456412
0.117793
-0.143475
-0.209280
-0.227793
-0.171373
-0.065510
-0.074453
-0.010436
-0.013129
-0.027715
0.033890
0.028270
0.039479
0.061984
0.061772
0.132414
0.015235
0.096259
0.074362
0.173247
0.177620
0.078606
0.055716
0.122228
0.198489
0.180656
0.182570
0.215951
0.316152
0.198223
0.276855
0.254139
0.289210
0.339654
0.328073
0.318857
0.297210
0.389747
0.429750
0.544370
0.468668
0.447393
0.496626
0.475324
0.506410
0.586816
0.572442
0.590935
0.530517
0.540281
0.550454
0.567414
0.544083
0.555398
0.626860
0.467825
0.573864
0.552749
0.560316
0.500981
0.392109
0.464676
0.424699
0.402937
0.432028
0.398768
0.348034
0.306905
0.300269
0.314532
0.263283
0.248812
0.114824
0.224733
0.230146
0.239013
0.185600
0.152175
0.132790
0.130393
0.122131
0.158986
0.109999
0.129918
0.111798
0.035277
0.135477
0.001002
0.124564
0.086364
0.143494
0.133382
0.041636
0.165776
0.108279
0.074169
0.013518
0.079119
0.184681
0.137667
0.036442
0.063755
0.042606
0.020452
0.101739
0.116672
0.043491
0.091271
0.051501
0.082474
0.032105
0.103629
0.076345
0.092000
0.073781
0.065736
0.159509
0.124158
0.069857
0.081152
0.025430
0.035294
0.042275
0.169606
0.155536
0.061917
-0.067798
-0.002287
0.143914
0.023047
0.113037
0.077180
0.159810
0.029683
0.050847
0.150785
0.075557
0.131672
0.167466
0.082517
0.070823
0.119755
0.146768
0.121096
0.118712
0.113677
0.113254
0.078888
0.055698
0.106272
0.119257
0.092598
0.040134
0.129982
0.145357
0.103566
0.094719
0.106938
0.144913
0.164998
0.122164
0.138621
0.198753
0.207019
0.155993
0.247094
0.242049
0.213121
0.298606
0.196849
0.291665
0.266633
0.278712
0.275045
0.279790
0.257359
0.298457
0.251734
0.314618
0.149008
0.147311
0.167707
0.252690
0.193797
0.207256
0.146801
0.170785
0.155520
0.053166
0.073293
0.142899
0.059079
0.087991
0.189648
0.134259
0.142088
0.110002
0.094820
0.111753
0.111022
0.173211
0.131406
0.132380
0.089004
0.109590
0.043877
0.089759
0.142254
0.108755
0.077459
0.204597
0.347936
0.599396
0.940206
1.289751
1.468230
1.486484
1.294016
1.083717
0.677525
0.356433
-0.020961
-0.209318
-0.200164
-0.198059
-0.084531
-0.020041
0.025854
0.069343
0.079506
0.080310
0.099189
0.122934
0.222568
0.141619
0.068150
0.150041
0.140365
0.108745
0.097860
0.147984
0.116313
0.153361
0.125970
0.210251
0.182141
0.220838
0.246483
0.224650
0.277504
0.271198
0.334063
0.320049
0.282959
0.288989
0.387383
0.353052
0.377400
0.455366
0.385010
0.484926
0.454089
0.529873
0.508375
0.492684
0.505910
0.517331
0.555580
0.597762
0.488142
0.541925
0.608236
0.557340
0.642280
0.603654
0.537472
0.502071
0.508264
0.588101
0.508773
0.441312
0.532531
0.463544
0.388835
0.431263
0.401802
0.378406
0.358669
0.339907
0.269657
0.289563
0.217296
0.195661
0.295151
0.192207
0.163875
0.220024
0.232171
0.182008
0.172415
0.134505
0.117394
0.131659
0.107088
0.176931
0.142682
0.243040
0.128715
0.020469
0.136376
0.019446
0.010323
0.044874
0.019097
0.028527
0.116046
0.129241
-0.022038
0.066183
0.167754
0.096446
0.034806
-0.002325
0.083413
0.032375
0.058265
-0.010262
0.106742
0.051226
0.036509
0.015977
0.043388
0.114665
0.107239
0.022812
0.053193
0.083752
0.047637
-0.010886
-0.017177
0.007303
-0.008552
0.053561
0.097997
-0.012143
0.033079
0.229407
0.010134
0.073515
0.025464
0.097624
0.049287
-0.045636
0.045391
0.027687
0.018358
0.037234
0.039642
0.024114
0.016313
-0.029580
0.021180
-0.040224
-0.063345
0.046421
0.004752
-0.037758
-0.008183
0.047568
0.078338
0.021030
0.041393
-0.022985
-0.056968
0.043692
0.088567
0.027054
0.048643
0.045133
0.136505
0.069363
0.208749
0.130493
0.268273
0.122698
0.198530
0.126617
0.216680
0.159012
0.241728
0.141916
0.206196
0.150480
0.155948
0.187719
0.201341
0.071551
0.064408
0.150973
0.195360
0.110395
0.145595
0.069558
0.079533
0.101246
-0.020236
0.094028
0.024399
0.029120
-0.047757
0.045029
-0.016550
-0.011759
0.040842
-0.006335
-0.001664
0.063021
-0.067155
-0.029920
-0.022210
-0.043444
0.000321
-0.044114
0.007011
-0.020583
0.042141
-0.049646
0.002149
-0.049352
0.026711
0.036722
0.015108
0.307175
0.530839
0.964267
1.187452
1.318333
1.268002
1.126422
0.788756
0.427202
0.155163
-0.157004
-0.261873
-0.251207
-0.292541
-0.220770
-0.149035
-0.015463
0.024851
-0.015208
0.002435
-0.042422
-0.008689
-0.007729
-0.014576
0.027483
0.017350
-0.011667
0.041101
0.066021
0.009319
0.002491
0.055082
0.067391
0.059343
0.082009
0.134972
0.081929
0.078093
0.220888
0.110070
0.184432
0.212247
0.170728
0.207229
0.243589
0.264562
0.229872
0.318690
0.251210
0.337587
0.313592
0.434877
0.480116
0.385282
0.413470
0.454124
0.404560
0.480715
0.386765
0.406622
0.495032
0.441991
0.436324
0.398728
0.426023
0.389524
0.435025
0.315758
0.293895
0.393990
0.350713
0.313021
0.236419
0.221879
0.293608
0.172777
0.167089
0.168555
0.139742
0.131820
0.073731
0.100972
0.174768
0.126443
0.059088
0.075261
0.061759
0.101846
-0.013262
-0.002143
-0.019204
-0.048096
0.019968
-0.038474
0.003994
-0.067173
0.002678
0.038238
-0.100431
-0.151585
-0.067394
0.022188
-0.083410
-0.002393
-0.036942
-0.123439
-0.121300
-0.079496
-0.125387
-0.051071
-0.031838
-0.049290
-0.131068
-0.100249
-0.098698
-0.024609
-0.070342
-0.104915
-0.124828
-0.121581
-0.032723
-0.028676
-0.045686
-0.066783
-0.027111
-0.054693
0.017561
-0.042076
-0.056687
-0.102914
-0.019217
-0.116861
-0.112709
-0.104260
-0.079556
-0.034600
-0.116443
-0.044529
-0.062633
-0.091516
-0.139522
-0.165001
-0.043845
-0.107921
-0.056691
-0.039427
-0.016393
-0.039543
-0.067438
-0.050906
-0.107529
-0.054625
-0.119574
-0.103158
0.019084
-0.061150
-0.047129
-0.071399
-0.142128
-0.067751
-0.019087
-0.073459
-0.079548
-0.041628
-0.072308
-0.008666
-0.061286
-0.024966
0.008670
-0.014494
-0.079677
-0.027879
0.017766
0.139514
-0.025050
0.044936
0.121171
0.048009
0.121019
0.068101
0.131686
0.139889
0.083050
0.145331
0.108011
0.099518
0.099632
0.043702
0.061848
0.018609
0.060108
-0.043908
0.003577
0.000486
-0.037390
-0.024287
-0.004685
-0.032335
-0.025253
-0.011508
-0.020953
0.017361
-0.082135
-0.101989
0.097760
-0.047652
-0.044838
-0.067120
-0.107892
-0.063449
-0.057046
-0.085968
-0.069578
-0.135424
-0.052787
-0.096911
-0.152768
-0.135867
-0.082103
-0.018527
0.120956
0.328829
0.716301
1.018226
1.185312
1.310896
1.220158
1.048118
0.577702
0.267031
0.016331
-0.259629
-0.380869
-0.326073
-0.228837
-0.193804
-0.098100
-0.134169
-0.066260
-0.048472
-0.092403
-0.023498
-0.009028
-0.022954
0.042347
0.050136
-0.025218
-0.077086
0.002104
-0.054042
-0.089285
-0.029066
0.034540
0.043825
0.033481
0.140837
0.049701
0.100904
0.120434
0.177750
0.164157
0.147691
0.207522
0.269314
0.254635
0.226943
0.380231
0.291265
0.383221
0.359630
0.408884
0.325946
0.376730
0.447851
0.412937
0.389862
0.496106
0.437878
0.552322
0.392906
0.449233
0.488506
0.539004
0.444571
0.480652
0.431903
0.419479
0.396521
0.421402
0.462432
0.413857
0.336063
0.367847
0.309756
0.188288
0.350720
0.213605
0.262792
0.245428
0.217573
0.145788
0.261636
0.165871
0.175839
0.093598
0.062767
0.130959
0.152750
0.107624
-0.013925
0.017687
0.033289
-0.020918
0.011312
0.020174
-0.055880
-0.065501
0.057358
-0.033550
-0.059765
0.096068
0.017669
-0.031875
-0.063340
-0.048250
0.003356
0.006598
0.016259
-0.005480
-0.060404
-0.025230
0.052691
-0.051622
0.053798
0.001892
-0.046267
0.020022
-0.057388
0.014123
-0.029302
0.070596
-0.009133
-0.105687
0.015136
0.019245
-0.008503
0.036788
-0.022718
0.041629
0.029161
0.002330
-0.103543
0.065538
-0.022016
-0.044529
0.071713
0.011776
-0.038339
-0.035032
0.035362
0.042013
-0.001307
-0.028240
-0.007133
-0.012910
0.001768
0.054234
-0.064647
-0.038744
-0.043994
0.070555
0.006402
0.012346
-0.005272
0.008219
0.044199
0.054988
0.014065
0.030480
0.006225
0.010979
0.043348
0.075037
0.052906
0.119990
0.094562
0.144737
0.079989
0.027353
0.094475
0.137731
0.115732
0.139551
0.171851
0.123488
0.192524
0.203984
0.160251
0.187755
0.209552
0.327051
0.192264
0.144840
0.221453
0.196915
0.204874
0.169060
0.183801
0.189165
0.144524
0.123034
0.182009
0.198928
0.113135
0.176687
0.064390
0.139602
0.150235
0.074181
0.067920
0.110469
0.036482
0.008304
0.057411
-0.028470
0.049747
0.023654
0.057844
0.036736
0.023045
0.089829
0.013602
0.029663
0.042179
0.021512
0.039720
0.093474
0.047535
-0.037615
0.014447
0.114460
0.339007
0.574355
0.882302
1.247010
1.430110
1.379702
1.214329
0.903603
0.436209
0.199399
0.028776
-0.225709
-0.240854
-0.240788
-0.097774
-0.048933
-0.023995
0.008305
0.027548
0.021949
0.030288
0.050194
0.071699
0.074451
0.019440
0.096260
-0.021962
0.090938
0.125153
0.134037
0.099657
0.129760
0.089323
0.169414
0.156788
0.183079
0.198775
0.202169
0.246110
0.287974
0.260212
0.331494
0.324330
0.301120
0.351705
0.358999
0.421639
0.395561
0.440974
0.559187
0.449161
0.472057
0.554884
0.576802
0.490743
0.576659
0.544958
0.614725
0.456691
0.455970
0.475813
0.550059
0.512090
0.510768
0.510401
0.551925
0.463887
0.511829
0.442249
0.466986
0.417437
0.505036
0.425941
0.345489
0.369659
0.309009
0.323528
0.222460
0.302955
0.306971
0.237685
0.238840
0.218086
0.313565
0.168323
0.128152
0.166974
0.049582
0.185270
0.179584
0.119011
0.125041
0.169415
0.174405
0.029378
0.035683
0.011327
0.028868
0.004919
0.076039
0.058033
0.026088
0.074940
0.099494
0.089926
0.057339
0.030568
0.050341
0.013014
0.111444
0.050742
0.100645
0.118783
0.005052
0.045267
0.090244
0.017940
0.037868
0.039596
0.021786
0.050485
0.062161
0.010260
-0.008161
0.113079
0.049809
0.098146
0.054613
0.049425
0.029630
0.017265
0.011641
0.040739
0.073033
0.039806
0.012368
-0.001700
-0.014348
0.021712
0.001552
0.056692
0.008017
0.031853
0.012511
-0.021879
0.083470
0.043701
0.009914
-0.077389
0.007818
0.013931
0.080344
0.028314
0.047688
-0.000812
0.044435
0.039459
0.018566
0.067881
0.036425
-0.007484
0.095949
0.009614
0.068737
0.085999
0.090646
0.099929
0.059953
0.139357
0.160188
0.150915
0.135555
0.164360
0.156395
0.173775
0.166998
0.155648
0.160110
0.205303
0.122641
0.203786
0.216764
0.273344
0.185201
0.163819
0.144089
0.214062
0.178219
0.190976
0.021438
0.154073
0.077640
0.191449
0.176378
0.138010
0.033734
0.059993
0.062281
0.106841
0.014535
0.066582
0.045485
0.085013
-0.054347
0.022322
-0.017896
-0.017014
0.009465
-0.001897
-0.040060
0.066805
-0.005470
-0.011899
-0.009947
0.004468
-0.108667
-0.036087
-0.033461
-0.015456
0.049695
0.170595
0.394457
0.730959
1.101151
1.227789
1.321187
1.280926
0.970358
0.731541
0.275581
0.015190
-0.207057
-0.240073
-0.222506
-0.225050
-0.132796
-0.048048
-0.052571
-0.028420
0.003273
0.040887
0.046921
0.011993
0.034885
-0.022241
-0.032260
0.031036
0.115990
0.096066
0.043922
0.030189
0.076777
-0.033391
0.079731
0.059085
0.046561
0.132259
0.183962
0.157212
0.105609
0.106066
0.173247
0.198932
0.285510
0.248434
0.256771
0.301633
0.241117
0.325916
0.267242
0.342954
0.462083
0.377366
0.455287
0.383189
0.428293
0.431737
0.434983
0.546218
0.476862
0.501580
0.412874
0.462704
0.490322
0.406574
0.502140
0.503246
0.411564
0.380059
0.426971
0.309287
0.409490
0.294965
0.287929
0.256437
0.270558
0.240225
0.185065
0.240997
0.162065
0.195889
0.127334
0.204053
0.080081
0.162288
0.159412
0.085713
0.040547
-0.012440
-0.045340
-0.032484
-0.040595
-0.052955
0.029705
-0.043467
0.002169
-0.004836
-0.078453
-0.060032
-0.057835
-0.002529
0.000830
-0.037824
-0.102022
-0.003442
0.007695
-0.059631
0.005118
-0.053485
-0.060438
0.009612
-0.032620
-0.024752
-0.066460
-0.041914
-0.038516
-0.057323
-0.004153
-0.099682
-0.108484
-0.113570
-0.041419
-0.093718
-0.107417
-0.059682
-0.093542
-0.052492
-0.116608
-0.124943
-0.137636
-0.026881
-0.097386
-0.037346
-0.159004
-0.129644
-0.047481
-0.085713
-0.063804
-0.029223
-0.044659
-0.094011
-0.110136
-0.107650
-0.114142
-0.125760
-0.130728
-0.141273
0.005252
-0.172287
-0.102548
-0.041349
-0.088918
-0.048233
-0.049793
-0.139936
-0.088026
-0.068007
-0.152299
-0.049091
-0.087281
-0.091307
-0.019097
-0.097291
-0.013448
-0.037981
0.028861
-0.062293
-0.006037
-0.052505
0.007067
-0.051244
0.114219
-0.002781
-0.029384
-0.028656
0.077665
0.043139
0.065948
0.073408
0.112400
0.098979
0.048341
0.010383
0.010754
0.041453
0.121002
0.022629
0.078257
0.061818
0.015253
0.071814
0.027024
-0.027484
0.027104
-0.016825
-0.090547
0.025612
-0.072280
0.034750
-0.046665
-0.054274
-0.151199
-0.100003
0.000596
-0.018268
-0.127018
-0.068956
-0.104065
-0.005219
-0.136286
-0.120796
-0.117784
-0.192571
-0.178622
-0.146796
-0.068290
-0.133249
-0.097984
-0.114648
-0.181371
0.011982
0.180468
0.506323
0.721009
1.072602
1.223407
1.267580
1.157060
0.933296
0.418251
0.086720
-0.159378
-0.354842
-0.333165
-0.328291
-0.312285
-0.261420
-0.124825
-0.114601
-0.064789
-0.122428
-0.152112
-0.052707
-0.042656
-0.089734
-0.192808
-0.015443
-0.013437
0.017944
0.049522
-0.045296
-0.046470
-0.032233
-0.001916
0.021250
0.077456
0.000901
-0.020962
0.081917
0.030721
0.155384
0.161259
0.101041
0.213954
0.133820
0.223353
0.203167
0.234987
0.222967
0.187847
0.326602
0.440602
0.363813
0.381483
0.316801
0.356394
0.348113
0.468445
0.382362
0.321840
0.499393
0.424240
0.452371
0.411182
0.440568
0.401748
0.332405
0.406561
0.303769
0.360117
0.249308
0.330427
0.314403
0.327532
0.298097
0.176071
0.184226
0.174239
0.156589
0.086303
0.105041
0.004623
0.084528
0.081944
0.036943
0.066646
0.019561
0.013616
0.014633
0.033610
-0.030231
-0.038265
-0.119152
-0.046596
-0.038664
-0.111871
-0.065263
-0.115467
-0.033486
-0.012279
-0.072935
-0.066012
-0.072021
-0.110857
-0.055899
-0.133567
-0.105261
-0.025437
-0.051142
-0.165318
-0.128918
-0.095421
-0.157595
-0.077788
-0.080175
-0.072944
-0.094334
-0.105111
-0.027253
-0.073079
-0.084563
-0.165922
-0.085968
-0.062422
-0.110071
-0.050660
-0.005397
-0.083642
-0.096995
-0.054980
-0.096591
-0.028651
-0.016069
-0.090607
-0.043567
-0.083131
-0.091398
-0.033381
-0.077645
-0.041126
0.004246
-0.031323
-0.056705
0.019428
-0.086554
-0.082491
0.014813
-0.044294
-0.057112
-0.048469
-0.150563
-0.056063
-0.010335
-0.139413
-0.137200
-0.104567
-0.096902
-0.048100
-0.008990
0.073763
-0.017832
0.014551
0.009397
0.002412
-0.034454
-0.089827
-0.022363
0.066755
0.010221
0.047726
0.095551
0.020279
0.022679
0.077339
0.131716
0.111029
0.145752
0.126881
0.140503
0.139658
0.175217
0.151877
0.140815
0.155583
0.165121
0.079294
0.119597
0.088476
0.140815
0.189392
0.086352
0.049964
0.045887
0.106407
0.086878
0.081320
0.016855
0.024592
0.097544
0.040754
0.038490
0.029482
0.006355
0.075000
-0.061763
-0.013530
-0.028505
-0.106570
0.016248
0.005442
0.061108
-0.000072
-0.054990
0.048721
-0.033375
-0.022908
-0.054080
-0.007291
0.042489
0.006646
0.014326
0.145168
0.412844
0.623105
1.050877
1.283918
1.383825
1.308474
1.151041
0.802675
0.393358
0.155868
-0.162503
-0.238871
-0.275085
-0.156369
-0.105946
-0.078145
0.021405
0.069954
0.022619
-0.021854
0.019115
0.005770
-0.015159
0.042169
0.043285
-0.026401
-0.023690
0.047422
0.050867
0.127052
0.081033
0.099529
0.122076
0.191652
0.122991
0.159704
0.144152
0.194142
0.177888
0.244887
0.265860
0.264018
0.268331
0.336183
0.250809
0.428942
0.324753
0.406221
0.350599
0.407558
0.446490
0.401803
0.455628
0.484723
0.499524
0.469565
0.530185
0.530469
0.493666
0.622612
0.548646
0.489203
0.505857
0.547540
0.477099
0.537792
0.565798
0.499374
0.467740
0.498489
0.442121
0.452984
0.386490
0.386615
0.422667
0.301819
0.300313
0.308185
0.214370
0.205537
0.296787
0.264224
0.186868
0.254602
0.195343
0.152986
0.151247
0.135416
0.097568
0.217073
0.121426
0.175845
0.062295
0.131598
0.058711
0.081647
0.062305
0.091663
0.014741
0.060422
0.064428
-0.011062
0.078334
0.043431
0.065234
-0.014673
0.085567
0.033898
0.097932
0.030006
0.055939
0.144622
0.141445
0.019220
0.090090
0.056006
0.028036
0.059687
0.116863
0.063163
0.033508
0.128512
-0.001322
0.090426
0.093132
0.073198
0.106434
0.049117
0.101707
0.033534
0.003507
0.018460
0.097006
0.067159
0.063345
0.062575
0.173496
0.123518
0.020780
0.066782
0.092889
0.061697
0.073063
0.035407
0.030038
0.067923
0.043042
0.019480
0.057174
0.156709
0.136786
-0.008876
0.044250
0.000578
0.077841
0.100515
0.122446
0.093278
0.130053
0.154969
0.132123
0.125853
0.116973
0.065490
0.030634
0.125798
0.151542
0.083030
0.160858
0.226775
0.141380
0.191341
0.248173
0.224454
0.217737
0.238057
0.274508
0.203273
0.237130
0.310442
0.216474
0.223686
0.305140
0.191054
0.197018
0.227939
0.204761
0.180293
0.212993
0.155722
0.169617
0.121727
0.154280
0.162957
0.197821
0.055847
0.111529
0.153273
0.038406
0.078451
0.044151
0.072842
0.152430
0.089983
0.052263
0.013460
0.169337
0.111933
0.035798
0.073215
