-0.036297
-0.004953
0.007055
-0.080745
0.068869
0.034330
0.027396
0.052618
-0.026462
0.120071
0.012615
-0.047948
0.010539
0.035995
0.003589
-0.009854
0.059268
0.040120
0.039337
0.009925
0.046316
-0.003357
-0.020493
-0.050288
0.101579
0.040313
0.072845
0.055445
0.045391
0.034530
0.096463
0.046117
-0.049223
0.033809
0.053580
0.072436
0.112751
0.146975
0.195359
0.102955
0.117103
0.118178
0.127269
0.223822
0.120685
0.184039
0.236906
0.293381
0.229475
0.250390
0.222797
0.166392
0.213730
0.248187
0.121277
0.189131
0.126575
0.199999
0.110412
0.202462
0.177882
0.060506
0.089017
0.139625
0.095571
0.152964
0.061541
0.109650
0.030245
0.095405
0.035552
0.058625
0.067747
0.100374
0.032243
0.085049
0.015875
0.086656
0.047708
0.062841
0.165566
0.019644
0.057025
0.055099
0.136787
0.081959
-0.020420
0.065304
-0.013891
-0.032740
0.063276
0.062103
0.092030
0.148528
0.338449
0.589580
0.943159
1.234037
1.409523
1.451190
1.260498
0.997220
0.693393
0.247252
0.117668
-0.088964
-0.249915
-0.232766
-0.120268
-0.113657
-0.105654
-0.012563
0.047106
0.086792
0.101099
0.127416
0.051100
0.045961
0.113983
0.091163
0.100441
0.075245
0.024407
0.085706
0.145602
0.151016
0.174597
0.058485
0.150965
0.039132
0.170394
0.109735
0.138092
0.204582
0.172875
0.224350
0.268371
0.266072
0.249177
0.289291
0.334031
0.307565
0.267192
0.407294
0.404621
0.350384
0.350503
0.503687
0.410955
0.412003
0.512257
0.434268
0.565341
0.638976
0.480858
0.541632
0.510380
0.550111
0.583322
0.567405
0.625314
0.591880
0.586032
0.581926
0.514044
0.554457
0.587924
0.567854
0.518537
0.501058
0.498760
0.427784
0.506000
0.378137
0.443337
0.420630
0.397342
0.332990
0.374376
0.234425
0.297138
0.213079
0.234319
0.278929
0.167426
0.164067
0.188514
0.165774
0.146722
0.139477
0.211047
0.153983
0.166761
0.166146
0.116814
0.109542
0.087870
0.188240
0.098125
0.073640
0.131225
0.069649
0.124427
0.133305
0.082669
0.145522
0.112732
0.046013
0.081046
0.113089
0.100674
0.021090
0.067579
0.106233
0.125822
0.039316
0.026530
0.047538
0.127112
0.045262
0.076913
0.093758
0.099163
0.110284
0.042640
0.099507
0.093291
0.102729
0.060307
0.145416
0.156537
0.063789
0.034019
0.106671
0.149467
0.210960
0.023613
0.086607
0.083647
0.073534
0.123934
0.104522
0.104964
0.027866
0.048730
0.093934
0.034491
0.009914
0.038905
0.162707
0.115102
0.036819
0.127568
0.103771
0.034829
0.064224
0.043326
0.053183
0.017564
0.114505
0.077438
0.059194
0.036031
0.057320
0.154415
0.025153
0.067578
0.075815
0.097045
0.050584
0.118904
0.093972
0.114754
0.095511
0.100845
0.120262
0.105321
0.161677
0.106898
0.125256
0.090747
0.175591
0.128960
0.043969
0.155053
0.231110
0.122669
0.206054
0.195990
0.220787
0.255752
0.282006
0.191470
0.194807
0.184372
0.267280
0.268454
0.292967
0.229724
0.195123
0.199147
0.243753
0.182598
0.195989
0.211957
0.215937
0.121755
0.154864
0.169452
0.100815
0.120544
0.116832
0.085065
0.186590
0.023393
0.128489
0.124703
0.011717
0.146489
0.039670
0.070722
0.014586
0.063386
0.078071
0.035089
0.059743
0.035912
0.036562
0.132912
0.059643
0.059344
0.073291
0.117315
0.063653
0.030320
0.116658
-0.021532
-0.003117
0.049058
0.126177
0.344676
0.621010
0.963259
1.224142
1.406092
1.401772
1.236561
0.936679
0.519976
0.201389
0.061825
-0.217409
-0.202067
-0.220175
-0.164659
-0.129055
-0.034338
-0.075048
0.087225
0.070298
0.056676
0.062931
0.029298
0.023290
-0.019419
0.060136
0.084014
0.071316
0.028243
0.048043
0.041159
-0.011752
0.072068
0.126194
0.049677
0.065967
0.045047
0.165185
0.174748
0.081148
0.079121
0.187848
0.127094
0.201068
0.184947
0.127586
0.246481
0.277032
0.233130
0.323522
0.351997
0.358546
0.317138
0.315402
0.354664
0.496113
0.431748
0.382209
0.486536
0.519124
0.547302
0.571465
0.507112
0.490154
0.450242
0.539056
0.512022
0.482030
0.460224
0.469342
0.433703
0.549838
0.440258
0.461042
0.490145
0.401663
0.408390
0.330588
0.330212
0.288527
0.380077
0.236554
0.282470
0.204888
0.287163
0.169592
0.247842
0.152638
0.131695
0.178790
0.119211
0.210875
0.069310
0.093689
0.123229
0.109946
0.064274
0.121610
0.082111
0.022576
0.067127
-0.036623
-0.052540
0.028856
0.052781
0.014909
-0.061900
-0.025116
0.018022
-0.068448
-0.043044
0.013731
-0.027623
-0.034484
-0.051904
-0.037322
0.014646
0.017931
-0.031283
0.017185
-0.001470
0.001836
0.011294
0.038435
-0.056611
-0.057741
-0.025331
0.007003
-0.085264
-0.046116
-0.052644
0.030175
-0.036788
-0.024549
0.083392
-0.019493
-0.020842
-0.050799
0.006608
0.016877
-0.062815
-0.033980
0.007673
-0.015072
-0.104016
-0.034388
-0.107266
0.044108
-0.029949
-0.013493
-0.027718
-0.031572
-0.013510
-0.056329
0.030118
-0.039487
0.084540
-0.073521
-0.077037
-0.029426
0.015819
-0.081600
-0.061252
-0.108011
-0.125167
-0.043771
-0.038519
-0.049286
-0.085532
-0.030332
-0.079610
-0.052935
-0.065250
-0.119514
-0.095906
-0.028289
0.019167
-0.050325
-0.038110
-0.004226
0.013747
-0.026368
-0.029411
-0.060190
0.091434
0.020330
0.033999
0.040336
0.065443
0.005922
0.050314
0.043613
0.008432
0.075604
0.141354
0.110497
0.107125
0.067091
0.141561
0.142620
0.085653
0.119596
0.092263
0.103094
0.113985
0.073858
0.180447
0.157775
0.074554
0.102253
0.034039
0.047524
0.037115
0.047404
0.113392
-0.027850
-0.051514
-0.034698
0.053138
0.064189
-0.042459
-0.074990
0.016595
-0.052869
-0.048030
-0.029804
-0.104152
-0.030286
-0.089525
-0.096239
-0.055850
-0.047345
-0.012133
-0.089459
-0.012126
-0.084958
-0.012104
-0.083499
-0.024671
-0.011090
-0.069436
0.016910
-0.140178
-0.055382
-0.064643
0.117956
0.219409
0.613228
0.957315
1.158110
1.324952
1.213132
1.121824
0.816537
0.410488
0.142744
-0.080791
-0.295817
-0.350820
-0.267862
-0.254669
-0.118312
-0.124615
-0.106373
-0.040366
-0.058843
0.050431
-0.046915
-0.062122
-0.032538
-0.042337
-0.032453
-0.041734
-0.036866
-0.029979
-0.025392
0.055463
-0.087302
0.020273
-0.073202
-0.021922
0.020465
-0.004231
-0.019678
0.068870
0.161189
0.077587
0.064400
0.196922
0.117721
0.116019
0.186080
0.197612
0.148242
0.257601
0.316637
0.298098
0.201756
0.281130
0.287084
0.262262
0.356594
0.410678
0.437898
0.321819
0.513262
0.402031
0.504139
0.491286
0.434598
0.466939
0.554043
0.565168
0.483917
0.419646
0.390477
0.434104
0.407028
0.398102
0.396629
0.401727
0.333530
0.389036
0.376564
0.301197
0.316661
0.271125
0.342881
0.204270
0.194422
0.304445
0.210048
0.179111
0.229763
0.075169
0.077917
0.116753
0.105279
0.127666
0.075190
0.089572
0.094718
-0.056329
0.128767
0.115454
0.060259
0.024050
0.003387
-0.029407
0.033859
0.046254
-0.061793
0.065163
-0.022677
-0.000614
0.011461
-0.054994
-0.047667
-0.059458
-0.110410
0.110088
-0.020987
0.007943
-0.010639
0.017700
0.003519
0.077017
0.049504
-0.016695
0.010554
0.065325
-0.101454
-0.036332
-0.049603
0.056886
0.014373
0.013123
0.076980
0.005448
0.047086
0.020071
-0.050392
-0.006991
-0.059801
0.023261
-0.057118
-0.001462
0.000674
-0.007192
-0.026860
0.000484
0.031661
-0.006843
-0.001098
0.013770
-0.025222
-0.022239
-0.016382
0.085843
0.031823
0.044957
-0.037820
-0.026376
0.047375
0.002575
0.054670
0.050289
0.064992
0.032087
0.094419
0.037792
-0.018870
0.041117
-0.000345
-0.000846
0.040244
-0.007124
-0.002905
0.048207
0.021685
-0.024444
0.040019
-0.010046
0.072455
0.141650
0.053100
0.004506
-0.024453
0.026049
0.095453
-0.008926
0.157843
0.147731
0.044219
0.120930
0.084552
0.147925
0.109044
0.211496
0.200397
0.169647
0.128462
0.258725
0.142628
0.188735
0.248783
0.239517
0.217087
0.191192
0.267838
0.249467
0.147555
0.275759
0.165225
0.210147
0.262267
0.226800
0.177866
0.179516
0.188754
0.139178
0.137020
0.093705
0.093801
0.151356
0.132688
0.098439
0.059117
0.087172
0.084550
0.125637
0.007958
0.047034
0.051528
0.086952
0.096566
0.080483
0.068687
0.097459
0.122099
-0.024615
-0.008031
0.052202
0.076662
0.120535
-0.010287
0.038454
0.081141
-0.040160
0.024498
0.039417
0.148772
0.416231
0.746382
1.145592
1.378301
1.460793
1.415366
1.157973
0.857479
0.575359
0.227413
-0.023810
-0.137838
-0.196909
-0.185268
-0.160300
0.030585
0.025391
0.119456
0.126305
0.026457
0.124920
0.135916
0.016526
0.121893
0.208266
0.062457
0.080839
0.102033
0.095503
0.076870
0.124300
0.124653
0.118255
0.206941
0.084287
0.221228
0.098460
0.193008
0.178185
0.169876
0.161580
0.238096
0.238880
0.246210
0.287853
0.273244
0.264446
0.273595
0.342167
0.323010
0.318394
0.366590
0.452441
0.380406
0.486812
0.443169
0.484472
0.486374
0.519186
0.482269
0.567116
0.636405
0.544662
0.568796
0.530324
0.552876
0.601173
0.566616
0.681452
0.679301
0.499185
0.641270
0.549721
0.543711
0.501443
0.566485
0.549719
0.477424
0.475318
0.395511
0.429878
0.441332
0.370423
0.340436
0.331777
0.342130
0.225827
0.248987
0.214796
0.192217
0.281660
0.226700
0.150558
0.174460
0.164153
0.155836
0.100245
0.103636
0.149244
0.125639
0.175627
0.166212
0.093118
0.092540
0.123148
0.052491
0.122904
0.131740
0.080058
0.121966
0.058564
0.094275
0.146978
0.079493
0.101410
0.099131
0.057504
0.084121
0.071314
0.059011
0.132431
0.155074
0.167750
0.077265
0.125031
0.070515
0.055123
0.110226
-0.015090
0.142415
0.140971
0.060000
0.032248
0.061575
0.055064
0.096555
0.160755
0.125552
0.085418
0.116979
0.045759
0.030988
0.057906
0.067420
0.111917
0.076686
0.054687
0.077434
0.134222
0.052786
-0.016285
0.091047
0.157605
0.021827
0.066425
0.054085
0.120100
0.096233
0.079014
0.080158
0.091666
0.176485
0.127784
0.076220
0.053580
0.083742
0.134977
0.106914
0.041968
0.087874
0.065602
0.067383
0.124789
0.078763
0.066341
0.067277
0.007025
0.100671
0.022487
0.083914
0.063068
0.034342
0.171569
0.129060
0.048120
0.169249
0.189057
0.136390
0.190496
0.157086
0.189487
0.225373
0.146603
0.218453
0.214473
0.178220
0.207873
0.223534
0.208712
0.283914
0.306154
0.250155
0.251529
0.240634
0.136541
0.224923
0.239712
0.278502
0.171330
0.156046
0.299624
0.168207
0.090285
0.187457
0.222080
0.146564
0.124277
0.109384
0.115743
0.065163
0.121288
0.102751
0.024685
0.032351
0.059572
0.107028
0.002227
0.097185
0.083262
0.041638
0.122047
0.091106
0.075632
0.084799
0.171842
0.029649
0.034546
0.014925
0.070566
0.000404
0.015701
-0.016689
-0.024929
0.054537
-0.013811
0.217899
0.422385
0.789522
1.123959
1.341474
1.500000
1.346431
1.123081
0.790494
0.422804
0.136885
-0.007549
-0.222037
-0.319659
-0.262259
-0.220508
-0.010371
-0.013066
0.003733
-0.045086
0.040662
0.005764
0.042930
0.084382
0.093943
0.041475
0.014622
0.035851
0.062563
-0.008123
0.043362
0.067829
0.091650
0.029841
0.034669
0.054870
0.098287
0.040683
0.069143
0.069300
0.138618
0.150255
0.164887
0.145656
0.147176
0.231792
0.183392
0.202752
0.220474
0.337666
0.254528
0.248806
0.261508
0.411581
0.421156
0.396478
0.443797
0.442724
0.387811
0.471857
0.506668
0.474360
0.395978
0.539729
0.377655
0.514759
0.510107
0.576480
0.589899
0.528277
0.544096
0.497778
0.401063
0.427826
0.465992
0.358532
0.345826
0.418073
0.339005
0.384403
0.363443
0.320322
0.248181
0.292248
0.308145
0.297067
0.208256
0.225667
0.154612
0.195860
0.122549
0.058216
0.127463
0.038006
0.093114
0.094404
-0.001433
0.015646
0.101528
0.046812
-0.048591
0.005238
-0.026987
0.003125
-0.045037
0.024755
0.011788
-0.046397
0.021950
0.019034
0.062437
-0.039167
-0.025955
-0.040392
-0.140154
-0.024732
0.014237
0.010816
-0.115343
-0.078944
0.039114
-0.038181
-0.041530
-0.006137
-0.068440
-0.014137
-0.008025
-0.110110
-0.093428
-0.070746
-0.016878
-0.046277
-0.029111
-0.081119
-0.083054
-0.077469
-0.042829
-0.032822
-0.084319
0.002636
-0.022982
-0.075012
-0.081660
-0.062490
0.004473
-0.180452
-0.023497
-0.065122
-0.041924
-0.086731
-0.004525
-0.036188
-0.105637
-0.031017
-0.042663
-0.032996
-0.088207
-0.018141
-0.082070
-0.120893
-0.043943
0.026574
-0.065100
-0.065389
-0.032936
-0.084963
-0.036532
-0.081146
-0.052400
-0.093306
-0.064635
-0.065075
-0.122486
-0.069398
-0.022403
-0.062473
0.009828
-0.078690
-0.024675
-0.051489
-0.040813
-0.049337
-0.025942
-0.051891
0.037098
-0.077183
-0.004671
0.038670
-0.109724
0.016756
0.056479
0.014166
0.082519
-0.007081
0.037839
-0.045185
0.085386
0.048409
0.116732
0.096945
0.143303
0.072939
0.035533
0.097981
0.078743
0.123824
0.051610
0.028861
0.085864
0.058671
0.058446
0.053326
-0.014912
0.038305
-0.013857
-0.023260
-0.029838
-0.004137
-0.047345
-0.040670
-0.004848
-0.040039
-0.075450
-0.073378
-0.100346
-0.055761
-0.150117
-0.076256
-0.080220
-0.014110
-0.132858
-0.128365
-0.107474
-0.054412
-0.157720
-0.075516
-0.135514
-0.010088
-0.113474
-0.087472
-0.123405
-0.069362
-0.123782
-0.060913
-0.125084
-0.094731
0.060194
0.307583
0.760433
1.000907
1.262497
1.303628
1.227424
0.989912
0.569355
0.377312
0.030867
-0.193384
-0.354262
-0.460747
-0.401048
-0.222566
-0.203650
-0.152692
-0.156965
-0.175658
-0.042792
-0.108039
-0.122573
0.002945
-0.019291
-0.077306
-0.090703
-0.040901
-0.170396
-0.170375
0.028126
-0.059429
-0.028265
-0.059003
-0.049529
-0.022022
0.016295
0.018074
-0.056912
-0.005004
-0.001383
-0.029897
0.090050
0.014199
0.076327
0.080098
0.102356
0.141407
0.192043
0.187478
0.157666
0.256630
0.148567
0.228758
0.162828
0.223879
0.241606
0.377072
0.388160
0.360097
0.475765
0.407073
0.416340
0.422800
0.463958
0.370779
0.404962
0.381420
0.352763
0.349575
0.404493
0.345567
0.419795
0.358947
0.410505
0.371330
0.368410
0.258507
0.338503
0.290655
0.244074
0.276666
0.356083
0.111426
0.132575
0.132972
0.204959
0.075140
0.144228
0.173640
0.126924
0.083791
0.063383
0.093866
0.060474
0.042753
0.035818
0.011603
-0.138212
0.014553
-0.028621
-0.040250
-0.055298
0.004508
0.017816
0.002735
-0.064979
0.015673
0.046283
-0.061917
-0.112020
-0.045719
-0.016973
-0.032817
0.019866
-0.138418
-0.022343
0.001982
-0.002281
-0.104013
-0.028500
-0.110529
-0.064819
-0.024498
0.015362
-0.116053
-0.104236
0.016742
-0.036093
0.032458
-0.032786
-0.054799
0.000957
-0.099749
0.005694
-0.100757
-0.160505
-0.073478
-0.106336
-0.005542
-0.076732
-0.088789
-0.020514
-0.093194
-0.059786
-0.008536
0.062084
-0.068036
-0.042823
0.050259
-0.145897
-0.016562
-0.061398
-0.039057
-0.053289
-0.080804
0.006496
-0.032167
-0.039312
-0.036047
-0.006475
-0.037682
-0.039107
-0.075995
-0.002049
0.008057
-0.006532
-0.050646
0.001414
-0.068943
-0.043098
0.037101
-0.014695
-0.002948
-0.102707
-0.117019
-0.063032
-0.047376
0.018291
-0.060059
-0.021090
0.004127
0.026977
-0.032183
-0.019490
-0.031934
0.058102
0.113186
0.061119
0.014623
0.028459
0.006125
0.057422
0.125967
0.082450
0.079965
0.065737
0.175905
0.154307
0.204660
0.192288
0.184380
0.164880
0.172824
0.171596
0.171245
0.109578
0.174503
0.238494
0.119142
0.127606
0.117542
0.078607
0.015567
0.035257
0.047305
0.121946
-0.006382
0.073502
0.041168
0.040242
0.052272
-0.017158
-0.033804
0.070313
-0.008701
-0.023916
0.007500
0.008118
0.023577
0.038640
0.048344
0.005899
0.008312
0.068080
0.022137
-0.020856
-0.035766
-0.017423
-0.036166
0.018093
-0.009118
-0.087915
-0.103482
0.022616
-0.031780
0.243885
0.512802
0.828355
1.077918
1.377955
1.341041
1.321776
1.081880
0.730490
0.465885
0.096338
-0.173394
-0.315113
-0.301386
-0.222100
-0.178091
-0.033985
0.000433
-0.065348
-0.023994
-0.011565
0.074527
0.034276
-0.046818
0.029125
0.068773
0.085091
0.044682
0.019446
0.000816
0.052602
0.056641
0.049106
0.075447
0.039435
0.108183
0.093164
0.067131
0.064098
0.154020
0.110843
0.187857
0.160934
0.198577
0.261964
0.246481
0.265172
0.268185
0.235912
0.338742
0.318792
0.352653
0.295554
0.398129
0.394029
0.395710
0.434768
0.456475
0.405218
0.512471
0.494781
0.512299
0.559238
0.548040
0.557612
0.520170
0.567788
0.506551
0.472762
0.534152
0.468397
0.466027
0.521834
0.497680
0.515134
0.404483
0.511796
0.390142
0.388275
0.387098
0.383798
0.337700
0.324603
0.384932
0.266971
0.239037
0.250380
0.230095
0.232080
0.226319
0.196004
0.231930
0.123101
0.125072
0.097854
0.054925
0.116102
0.107113
0.047897
0.017114
0.011306
0.063787
0.054630
0.023209
-0.016769
0.086978
0.022604
0.046156
0.129832
0.148965
0.021663
0.069725
0.108272
0.052296
-0.009653
0.102789
0.095661
0.057801
0.044428
-0.024203
0.057508
0.027815
0.098324
0.061159
0.051333
0.008179
0.031181
0.039058
0.087998
0.077715
0.044464
0.050790
-0.015722
0.150731
0.049274
0.034810
0.079782
0.080793
0.061890
0.037910
-0.071879
0.085565
0.004607
0.091124
0.090580
-0.081038
0.057194
-0.003788
-0.055002
-0.014246
0.054022
0.041555
0.023035
0.099317
0.092101
0.077173
-0.001461
0.061540
-0.033512
0.076190
0.051570
0.034457
0.093243
0.027168
-0.011530
-0.017993
0.053174
0.025634
0.062607
0.104306
0.052867
-0.009503
-0.027391
-0.003571
0.036872
0.078789
0.056334
0.121618
0.058781
0.070330
0.145416
0.047517
0.047002
0.034528
0.014029
0.013794
0.098664
0.068822
0.111464
0.068611
0.115646
0.106496
0.139404
0.132525
0.196490
0.163288
0.150360
0.199558
0.156544
0.252471
0.219439
0.221956
0.245380
0.197968
0.135511
0.260841
0.150934
0.179431
0.089218
0.085978
0.156702
0.154810
0.120470
0.050988
0.086067
0.187960
0.023987
0.118452
0.073551
0.140251
0.042133
0.097894
-0.049984
0.047639
0.075559
-0.049847
0.039265
-0.033537
-0.022190
0.106700
0.050456
0.061795
0.059388
-0.037727
0.069076
0.002394
-0.010273
0.021194
0.023666
0.062355
0.042343
0.017525
0.069428
-0.045445
0.009390
-0.002235
0.274365
0.492864
0.901187
1.122207
1.327271
1.373967
1.250337
0.985042
0.759148
0.387406
0.084896
-0.137931
-0.346136
-0.306961
-0.290676
-0.162486
-0.181944
0.007455
0.000025
0.039049
0.069163
0.048796
0.081250
-0.080902
0.009367
-0.023651
-0.000821
0.045970
-0.060545
0.003447
-0.012799
0.015644
0.012059
0.050022
0.098481
0.130875
0.089222
0.093634
0.044050
0.103621
0.088356
0.074907
0.142140
0.159821
0.171449
0.166256
0.229510
0.252954
0.237892
0.260804
0.362361
0.312551
0.299323
0.345472
0.391306
0.383263
0.408010
0.463899
0.366237
0.470042
0.400720
0.490556
0.487081
0.556616
0.484394
0.531735
0.473942
0.539426
0.481235
0.519441
0.493726
0.488782
0.381011
0.513206
0.383351
0.422761
0.402522
0.419603
0.302761
0.276195
0.269891
0.356377
0.242577
0.224928
0.227899
0.166970
0.100206
0.139563
0.191362
0.032532
0.120186
0.131001
0.105218
0.075311
0.076743
0.035606
0.053773
0.022827
-0.032779
0.109622
-0.006815
-0.004207
0.023028
-0.077452
-0.004784
-0.066527
-0.079159
-0.036373
-0.009953
-0.054263
-0.060732
-0.000227
-0.035441
-0.072347
-0.031296
-0.050913
-0.094524
-0.133729
-0.031756
-0.048817
-0.014570
-0.089242
-0.084506
-0.056993
-0.019611
-0.015618
-0.092758
-0.064845
-0.037207
-0.061596
-0.051681
-0.032923
0.035005
-0.057825
-0.051582
-0.074630
-0.025491
0.013995
-0.095774
-0.103284
-0.093453
-0.013603
-0.029166
0.004750
-0.093711
-0.125996
-0.129993
-0.000075
-0.092601
-0.045346
-0.102925
-0.143753
-0.117368
-0.097939
-0.092332
-0.060195
-0.125165
-0.101090
-0.048309
-0.059897
-0.032939
-0.111881
-0.081316
-0.124827
-0.074170
-0.032446
-0.105921
-0.112569
-0.083890
-0.076626
-0.128401
-0.081596
-0.111710
-0.028799
-0.047125
-0.013983
-0.061056
-0.070955
-0.054936
-0.076616
-0.130433
-0.090976
-0.025951
-0.076180
0.010693
-0.014510
0.009829
-0.038375
-0.010073
0.064279
-0.091003
0.055067
0.037270
-0.071197
0.105522
0.070106
0.130626
0.070318
0.047472
0.122378
0.006354
0.140732
0.137551
0.095617
0.182893
0.074696
0.047519
0.001353
0.116746
-0.005182
-0.042708
0.106213
-0.004029
-0.002413
-0.033334
0.008441
0.053695
-0.039314
-0.029871
-0.022535
0.019983
-0.078294
-0.030011
-0.055164
-0.107627
-0.121314
-0.109436
-0.097364
-0.064519
-0.106423
-0.084781
-0.125105
-0.092941
-0.110113
-0.102214
-0.081154
-0.107259
-0.040315
-0.015445
-0.107584
-0.124775
-0.116535
-0.143122
-0.110601
-0.133614
-0.082142
0.177218
0.369253
0.727623
1.018777
1.262959
1.294957
1.157034
0.961577
0.556846
0.199013
-0.105867
-0.291155
-0.409173
-0.413957
-0.383103
-0.281060
-0.116071
-0.175936
-0.151549
-0.137779
-0.164798
-0.118519
-0.127238
-0.080402
-0.135930
0.054338
-0.094107
-0.077243
-0.035264
-0.104737
-0.086738
-0.118366
-0.077752
-0.053758
-0.058809
-0.002875
0.027602
-0.008671
-0.057519
0.005846
0.008677
0.046008
0.058383
0.041143
0.055547
0.110761
0.194528
0.076498
0.188149
0.203179
0.255312
0.183325
0.209900
0.170546
0.251770
0.298228
0.352117
0.299400
0.358646
0.437128
0.423024
0.345775
0.371260
0.375398
0.423889
0.421020
0.462930
0.452870
0.353093
0.404851
0.377061
0.313095
0.395792
0.283830
0.244363
0.310228
0.385430
0.300038
0.156245
0.201374
0.241240
0.193190
0.275704
0.121327
0.189923
0.159449
0.160651
0.084677
0.066755
0.095310
0.103643
0.030938
0.069860
-0.030501
0.067888
0.006730
0.015967
0.028131
-0.074547
-0.092222
-0.048088
-0.078915
0.015544
-0.034217
-0.084383
-0.059773
-0.055199
-0.042284
-0.028053
0.059335
-0.147995
-0.047042
-0.081734
-0.112527
0.020905
-0.064624
-0.041737
-0.011510
-0.089920
-0.075654
-0.150698
-0.010541
-0.160139
-0.102065
-0.057041
-0.097469
-0.065472
-0.035297
-0.049773
-0.066890
-0.080009
-0.058418
-0.056604
-0.063761
-0.080909
-0.087066
-0.024831
-0.092754
-0.054559
-0.011529
-0.100072
0.003187
-0.138140
-0.001150
-0.072325
-0.073507
-0.023846
-0.037217
-0.065700
-0.019946
-0.051515
-0.097905
-0.130108
-0.031869
0.004054
-0.051217
-0.140759
-0.039761
-0.089378
0.012241
-0.021281
-0.036991
-0.062397
-0.111676
-0.043666
-0.008268
-0.028746
-0.038014
-0.002705
0.005093
-0.117007
0.017606
-0.071184
-0.043050
-0.035942
-0.047095
-0.025760
0.063146
0.011131
0.076102
0.016398
-0.048865
0.021392
0.019595
-0.019118
0.035690
0.017023
0.116629
0.046766
0.107116
0.052996
0.084625
0.116969
0.076527
0.139848
0.086036
0.096207
0.114773
0.122989
0.153188
0.188608
0.105830
0.152746
0.218689
0.180671
0.079434
0.101511
0.122950
0.105504
0.110772
0.115128
0.115915
0.019261
0.051115
0.102091
0.084583
0.088171
0.032713
0.041120
-0.016944
0.007282
0.000125
0.081289
-0.059856
0.049737
-0.039282
-0.059562
0.044109
-0.073003
-0.055955
0.003484
-0.017067
-0.011999
-0.028571
-0.032927
0.024604
0.086152
0.029014
0.037658
0.010163
0.035428
-0.036785
-0.083406
-0.036658
-0.112478
0.148261
0.240090
0.523097
0.898945
1.153574
1.370211
1.432530
1.266909
0.869705
0.612740
0.220788
0.018343
-0.255267
-0.292405
-0.311906
-0.240159
-0.229331
-0.124746
-0.006401
-0.010835
-0.033174
0.060797
-0.002532
0.098468
0.111368
0.088986
0.030831
0.084688
0.038002
0.083431
-0.003406
0.052182
0.022763
0.026711
0.045130
0.045158
0.073219
0.084836
0.134847
0.104491
0.151572
0.100575
0.086831
0.162133
0.216840
0.250166
0.211730
0.284897
0.307792
0.296218
0.375849
0.270206
0.315785
0.361696
0.316442
0.469073
0.475963
0.431826
0.482151
0.453858
0.605380
0.525267
0.502024
0.530748
0.545502
0.495659
0.517162
0.476924
0.516823
0.518604
0.542988
0.547140
0.533891
0.473627
0.584756
0.373397
0.413275
0.459237
0.400629
0.381764
0.370895
0.341526
0.356593
0.387744
0.307346
0.323506
0.203820
0.220395
0.205464
0.252327
0.214236
0.208434
0.186480
0.209720
0.081530
0.155812
0.119129
0.156161
0.145114
0.128099
0.135692
0.130138
0.080385
0.105812
0.096311
0.113818
0.033294
0.112630
0.092519
0.058891
0.013735
0.059665
0.084036
0.053197
0.084050
0.062529
0.095349
0.027562
0.057305
0.079858
0.068113
0.077158
0.018557
0.069732
0.113053
0.112091
0.061495
-0.006888
0.041408
0.075603
0.100584
0.005150
0.124352
0.064123
0.113006
0.046506
0.126330
0.081585
0.012630
0.109056
0.151174
0.071207
0.048612
0.081895
0.080495
0.088344
0.005374
0.070652
0.016092
0.090865
0.032015
0.048719
0.022674
0.057228
0.154647
0.110217
-0.063591
0.034998
0.127366
0.049472
0.043529
0.078661
0.092664
-0.010917
0.029090
0.054712
0.130500
-0.028995
0.121410
0.029706
0.063577
-0.000444
0.071381
0.084849
0.127438
0.082303
0.098173
0.052390
0.172528
0.073014
0.106680
0.055280
0.047070
0.027437
0.069563
0.090319
0.110504
0.105491
0.108102
0.152165
0.226607
0.117900
0.163022
0.144482
