0.030124
0.050757
-0.013766
-0.055413
-0.028261
0.050633
0.081948
0.042138
-0.013130
0.049135
-0.046462
-0.059369
-0.026071
-0.031688
-0.020286
-0.012896
0.044702
-0.055552
-0.010650
0.029974
0.028737
-0.009623
-0.058370
0.009652
0.033202
-0.046730
0.026942
-0.034236
-0.009690
0.007860
0.029879
0.034659
0.034396
0.088743
0.045237
0.093892
0.069073
0.064971
0.047986
0.016234
0.118425
0.050381
0.121082
0.091658
0.080141
0.108768
0.026634
0.086412
0.210298
0.094517
0.230656
0.152919
0.194454
0.205103
0.191985
0.155043
0.203613
0.204811
0.136843
0.270510
0.170201
0.193547
0.158743
0.191478
0.175593
0.129292
0.104823
0.174907
0.128936
0.145021
0.102747
0.155032
0.085542
0.070276
0.101591
0.083790
0.130181
0.055376
0.106684
0.060979
0.075286
0.068901
0.047809
0.071642
0.073441
0.021433
-0.077731
0.023887
0.068444
0.052981
0.034347
-0.055674
0.039627
0.053476
0.118360
0.120939
0.117065
0.098460
0.044581
0.092637
0.016488
-0.003101
0.019163
0.012519
0.027055
-0.103266
0.003840
-0.001095
0.146121
0.403679
0.768101
1.081414
1.294918
1.404946
1.441195
1.262011
0.988320
0.638759
0.361493
0.067109
-0.117266
-0.157243
-0.363190
-0.222100
-0.167776
-0.112752
-0.041363
-0.012222
0.045491
0.053234
0.061572
0.141915
0.044630
0.092827
0.085801
0.081142
0.131710
0.064795
0.018652
0.081623
0.085308
0.025737
0.099843
0.069362
0.075339
0.149914
0.111613
0.114409
0.100144
0.184625
0.100181
0.055259
0.078540
0.140161
0.143516
0.143785
0.203395
0.152614
0.178862
0.179604
0.184103
0.279711
0.236041
0.272226
0.256204
0.383095
0.304971
0.266550
0.399493
0.424968
0.386718
0.467193
0.471909
0.398824
0.454155
0.467272
0.533978
0.573511
0.482300
0.581653
0.528841
0.557720
0.650418
0.563899
0.579278
0.588023
0.516310
0.603521
0.543625
0.474822
0.504764
0.479835
0.539639
0.503756
0.493970
0.384886
0.385609
0.457527
0.362360
0.369720
0.373563
0.369851
0.322340
0.241376
0.248741
0.219343
0.252184
0.187735
0.271365
0.185554
0.209829
0.244892
0.163910
0.213163
0.138311
0.140194
0.159427
0.114109
0.145312
0.108769
0.170808
0.125895
0.056172
0.153517
0.119690
0.036253
0.040069
0.074948
0.152877
0.106790
0.132093
0.100781
0.086928
0.065484
0.091084
0.046203
0.051057
0.091097
0.081424
0.078840
0.061834
0.095875
0.206815
0.126241
0.078883
0.009726
0.115199
0.082755
0.142529
0.085915
0.052502
0.021232
0.091384
0.108481
-0.011968
0.074077
0.095556
0.078204
0.081397
0.042943
0.079603
0.034741
0.110348
0.016935
0.105428
0.011801
0.039934
0.121638
0.082211
0.020153
0.087375
0.061049
0.047347
0.012099
0.010407
-0.025937
0.096658
0.053753
0.146571
0.057328
0.099023
0.030550
0.078890
0.053745
0.068334
0.088267
0.046936
0.079945
0.079634
0.050285
0.065951
0.051316
0.091609
0.067889
0.049062
0.117559
0.043358
0.088949
0.114482
0.042869
0.033854
0.073702
0.107565
0.072583
0.081753
0.045974
0.070746
0.106006
0.054781
0.062485
0.007358
0.084258
0.083941
0.034133
0.006935
-0.030074
0.038625
0.089631
0.026187
0.092374
0.008696
0.050097
0.030005
0.164025
0.194366
0.148992
0.102876
0.131340
0.170126
0.149001
0.140260
0.154981
0.214203
0.214442
0.161220
0.234536
0.173414
0.176172
0.235135
0.102813
0.214081
0.282676
0.269033
0.214090
0.177990
0.206161
0.140761
0.103230
0.110246
0.157042
0.130294
0.124657
0.153779
0.077900
0.050511
0.096926
0.012211
0.148303
0.157961
-0.028936
0.098464
0.087027
0.007508
0.035894
0.069997
0.069406
0.078741
0.028828
0.063970
0.063887
0.008964
0.007962
-0.040356
0.067750
0.072886
-0.013288
0.019712
0.069779
0.078255
0.029810
0.036803
0.069774
0.055993
-0.031177
0.022187
0.050939
0.070589
-0.081331
-0.035852
-0.100721
-0.005959
0.151630
0.314570
0.741572
0.980845
1.270484
1.449753
1.407602
1.193805
0.873699
0.565034
0.305767
-0.013276
-0.144213
-0.196804
-0.325639
-0.192183
-0.214853
-0.223425
-0.049248
0.079959
-0.028948
0.014757
-0.016808
-0.003706
0.007377
0.053530
0.035802
-0.044783
0.090914
0.021832
0.039684
0.044597
0.055839
-0.006364
0.033071
0.019957
-0.028061
0.019177
0.021159
0.022907
-0.049191
0.013122
0.006133
0.065514
0.017024
0.076316
0.057795
0.045539
0.118730
0.103034
0.073554
0.173353
0.150015
0.133893
0.171257
0.172667
0.155019
0.196021
0.250739
0.221033
0.239916
0.281235
0.198053
0.353384
0.312983
0.347444
0.344905
0.399828
0.454021
0.427260
0.389516
0.491351
0.420843
0.531069
0.492223
0.522315
0.498431
0.458578
0.510141
0.438432
0.467227
0.465548
0.362604
0.385490
0.412630
0.335556
0.321113
0.357009
0.282677
0.279816
0.290022
0.262535
0.260393
0.206293
0.192181
0.208029
0.146337
0.156172
0.147783
0.061492
0.054700
0.114935
0.027844
0.104847
0.046567
-0.010942
-0.012097
-0.024970
0.018549
0.005310
-0.010524
0.052018
0.064941
-0.026963
-0.035158
-0.016972
-0.038233
-0.025899
-0.012059
-0.012576
-0.002204
-0.094673
0.016659
0.003185
-0.076003
-0.033078
-0.006492
-0.045814
-0.000525
-0.051460
-0.029646
-0.000834
-0.042276
-0.055260
-0.041124
-0.069888
-0.043674
-0.073156
0.018936
-0.157395
0.001993
-0.087384
-0.054541
-0.071476
-0.064001
-0.025039
-0.007999
-0.048491
-0.024538
0.000870
-0.047716
-0.048827
-0.089404
-0.019476
-0.026982
0.066388
-0.024970
-0.050385
-0.054114
-0.035429
-0.061645
-0.026392
-0.019125
-0.003927
-0.064730
-0.035873
-0.033836
-0.023892
-0.037066
-0.025732
-0.019429
-0.008243
0.032622
0.005736
-0.110857
-0.097129
-0.051848
-0.011600
-0.043630
-0.029402
-0.089622
-0.054164
0.006910
-0.014505
-0.035365
-0.049687
0.025239
-0.098303
-0.041753
0.027941
-0.010708
-0.058487
-0.143309
-0.059537
-0.049136
-0.051650
-0.003667
-0.076119
-0.047664
0.028185
-0.023185
-0.054825
-0.127613
-0.081831
-0.022286
-0.001002
-0.003691
-0.017544
-0.059137
-0.032563
-0.014538
0.005077
-0.020333
-0.057181
0.049947
0.054994
0.013051
0.008722
0.079971
0.076854
-0.034014
0.052587
0.071560
0.097523
0.161885
0.098123
0.076970
0.145577
0.109886
0.073881
0.199993
0.165413
0.204149
0.101517
0.131288
0.168085
0.119337
0.129354
0.117439
0.130136
0.102655
0.015199
0.067583
0.065582
0.052122
0.077181
0.008557
0.044985
-0.021039
-0.038996
0.003969
0.059075
-0.029537
-0.130416
0.012838
-0.050101
-0.037857
0.026178
-0.032914
-0.045140
0.002263
0.024243
-0.021562
-0.056163
0.078089
-0.094011
-0.060580
-0.067049
0.026003
-0.098802
-0.038914
0.039065
-0.134853
-0.013996
0.029810
-0.033035
0.024317
-0.088142
0.022852
-0.060922
-0.097036
-0.019919
-0.095491
0.114825
0.328478
0.696488
0.941143
1.244411
1.394010
1.302215
1.190269
0.927217
0.581215
0.345677
0.011923
-0.151297
-0.218705
-0.276347
-0.287968
-0.229964
-0.092460
-0.063971
-0.062764
0.027075
-0.003005
-0.052622
-0.024609
-0.057185
-0.072030
-0.006825
0.041280
-0.010908
0.068403
-0.072705
-0.040090
-0.050613
0.019324
0.046414
0.046230
0.084516
0.019721
0.036370
-0.077414
0.006877
0.083766
0.035773
0.110072
0.122725
0.071742
0.086342
0.097047
0.096789
0.098268
0.131060
0.142828
0.193702
0.136322
0.146188
0.210192
0.259314
0.217266
0.250969
0.267277
0.283275
0.353647
0.318080
0.351862
0.366380
0.483414
0.343167
0.471635
0.423481
0.460771
0.513581
0.563920
0.492663
0.522533
0.551495
0.516184
0.528726
0.566880
0.597023
0.545513
0.446055
0.473229
0.480283
0.474357
0.489909
0.457007
0.390111
0.420485
0.359990
0.368923
0.406589
0.349148
0.300176
0.298349
0.308223
0.219420
0.259766
0.258806
0.225013
0.126348
0.107234
0.207706
0.184713
0.084508
0.075026
0.172741
0.161489
0.139509
0.132734
0.139156
0.129435
0.051170
0.118931
0.042035
0.050209
0.035325
0.089485
0.038944
0.042074
0.090857
0.000250
0.028011
0.011995
0.062421
0.112489
0.063796
0.044605
0.121550
0.035699
0.138618
0.091668
0.087374
0.025706
0.019672
0.038473
0.030034
0.014010
0.073705
0.091458
0.041324
0.037685
0.052910
0.035649
0.024653
0.103806
0.070007
0.012216
0.083741
0.093612
0.034571
0.039711
0.012991
0.123263
0.042818
0.055413
0.018642
0.102915
0.067337
0.017459
0.077601
0.063786
0.124068
0.091097
0.055882
0.115400
0.064634
0.065206
0.101046
0.122256
0.157825
0.041196
0.060761
0.116188
0.072013
0.034768
0.073214
0.065376
0.030312
0.081301
0.084467
0.066296
0.136733
0.052801
0.096686
0.116714
0.082802
0.078482
0.069277
0.150024
0.062603
0.099481
0.149894
0.140506
0.071297
0.083111
0.158777
0.038932
0.115012
0.092174
0.079866
0.069688
0.050778
0.128868
0.072548
0.064837
0.144099
0.108326
0.141114
0.001043
0.078459
0.097645
0.125985
0.087308
0.037482
0.095812
0.085381
0.159168
0.038403
0.158332
0.127165
0.131606
0.206727
0.242737
0.267401
0.175235
0.224398
0.279626
0.316565
0.207497
0.218534
0.238896
0.270546
0.248324
0.216719
0.208172
0.242371
0.299163
0.249968
0.254335
0.242569
0.242679
0.164030
0.260071
0.152851
0.165790
0.141214
0.104300
0.110168
0.198484
0.060472
0.128435
0.118854
0.145319
0.101716
0.108865
0.160204
0.031504
0.122875
0.034689
0.083579
0.091955
0.108586
0.127045
0.046839
0.098943
0.045434
0.079440
0.095853
0.021837
0.049967
0.091945
0.144481
0.062362
0.019268
0.077896
0.062981
0.068456
-0.003379
0.074540
0.022614
0.072132
-0.033310
0.030835
0.221796
0.431308
0.702981
1.071804
1.386835
1.500000
1.459120
1.235627
0.948682
0.694323
0.370323
0.134242
-0.036038
-0.189891
-0.240822
-0.214813
-0.091670
-0.088394
-0.021667
0.072427
0.053673
0.057950
0.088836
0.091060
0.149866
0.157100
0.109046
0.083284
0.098774
0.101585
0.087143
0.055869
0.099388
0.085953
0.130209
0.112638
0.046215
0.049299
0.129193
0.081140
0.118080
0.173557
0.150478
0.126148
0.157134
0.109150
0.177717
0.150260
0.116220
0.221988
0.193640
0.140657
0.288964
0.210611
0.233787
0.305136
0.281235
0.347292
0.280683
0.428228
0.344660
0.328174
0.307484
0.363526
0.374400
0.431474
0.503205
0.429532
0.549287
0.568914
0.495828
0.540946
0.585166
0.567329
0.518960
0.594916
0.528532
0.592110
0.469299
0.556470
0.531086
0.479982
0.572569
0.515028
0.459884
0.501727
0.423787
0.344200
0.382093
0.467497
0.336626
0.410299
0.223084
0.239090
0.250954
0.267821
0.272726
0.267782
0.222665
0.169085
0.215910
0.180975
0.212096
0.144496
0.096253
0.104378
0.154223
0.101271
0.041401
0.027931
0.065978
0.106423
0.067330
0.003404
0.003266
0.065909
0.011658
0.041209
0.125760
-0.011150
-0.028558
0.052614
0.020902
-0.006699
0.027107
0.004382
0.003321
0.075519
0.029269
0.000793
0.034524
-0.009879
0.082322
-0.010979
0.029664
0.047485
0.003143
0.025012
0.068663
-0.067845
0.076157
0.100003
0.002457
0.116517
0.089723
0.056869
0.020412
0.063172
0.026156
0.051732
0.070128
-0.050113
-0.000981
0.028003
0.002641
0.002060
0.069272
0.027060
0.062070
-0.023124
-0.008577
-0.030482
0.024177
0.051095
0.030909
-0.019086
0.038539
-0.000134
0.007945
-0.010148
0.052894
-0.032308
0.045655
0.033475
0.013572
-0.010099
0.024407
-0.047583
-0.035434
-0.011875
0.002443
0.013748
0.025600
-0.062509
0.046200
0.017597
0.058839
-0.064729
-0.041810
-0.100440
0.017309
0.102108
-0.050615
0.054496
-0.098347
-0.068759
-0.002608
-0.009479
0.083669
-0.024607
0.000698
-0.009555
0.031417
-0.089979
0.084892
-0.021278
0.049467
-0.022909
-0.100842
0.014524
-0.011387
0.090226
0.030479
-0.001515
-0.024966
0.043888
0.017216
0.039550
0.074332
0.013396
-0.003678
0.094491
0.089701
0.025523
0.098055
0.117225
0.166176
0.124305
0.143304
0.144301
0.124206
0.134584
0.169530
0.190152
0.201053
0.181744
0.093786
0.166247
0.160335
0.132780
0.064236
0.021069
0.005295
0.123308
0.067465
0.035811
0.082277
0.033851
-0.001142
0.025375
-0.100436
-0.070989
0.008617
-0.051792
-0.043183
-0.062514
-0.062722
-0.097348
-0.081934
-0.075828
-0.073136
-0.024301
-0.069878
-0.064479
-0.055882
-0.077029
-0.029291
0.002880
-0.102152
-0.014773
0.035548
-0.053327
-0.016963
-0.034406
-0.050817
-0.107771
-0.020375
0.010672
-0.085657
-0.044840
-0.158860
-0.168258
-0.063648
0.088505
0.211230
0.577283
0.924915
1.220828
1.308042
1.325982
1.068266
0.908717
0.579043
0.229754
-0.074018
-0.178436
-0.378176
-0.438365
-0.297958
-0.345869
-0.280108
-0.117130
-0.149874
-0.008587
-0.082326
-0.020447
-0.087670
-0.052143
-0.068752
-0.028605
-0.020925
-0.028930
-0.115653
-0.086636
-0.025006
-0.059593
-0.016561
-0.055719
-0.066920
0.068880
-0.018299
-0.014881
-0.039493
0.009178
-0.049113
-0.037262
0.063665
-0.032464
-0.072554
-0.051937
0.017930
0.054169
0.072732
-0.036181
0.108347
0.067759
0.059655
0.108946
0.202713
0.108116
0.180565
0.158645
0.153719
0.265162
0.213516
0.176570
0.273257
0.269035
0.363706
0.375066
0.307509
0.412609
0.331546
0.290680
0.400212
0.406592
0.361301
0.384245
0.524896
0.431636
0.473458
0.394738
0.406270
0.373573
0.424366
0.352530
0.366462
0.369995
0.314968
0.355747
0.323553
0.225944
0.224340
0.242236
0.263296
0.240057
0.168838
0.190399
0.169489
0.095904
0.093898
0.146418
0.062935
0.055621
0.045650
0.115890
0.001594
0.010666
0.042897
-0.006476
-0.013911
0.021765
-0.083236
-0.038827
-0.038328
0.021734
-0.067284
-0.110538
-0.053413
-0.075968
-0.093102
-0.024110
-0.043397
-0.083751
-0.021392
-0.072704
-0.077680
-0.066274
0.010996
-0.071855
-0.072354
-0.028091
-0.104293
-0.052738
-0.194082
-0.131427
-0.089567
-0.121592
-0.078884
0.001215
-0.037512
-0.033770
-0.044853
-0.113454
-0.067206
-0.065278
-0.081185
-0.064209
-0.073117
-0.129417
-0.024407
-0.049376
-0.085987
-0.057551
-0.139464
-0.101342
-0.073581
-0.101557
-0.066234
-0.007573
-0.053230
-0.029688
-0.071659
-0.069727
-0.021053
-0.081430
-0.084010
-0.008748
0.038756
-0.130710
-0.072078
-0.009692
-0.067518
0.021210
-0.096143
-0.027558
-0.013147
-0.008561
-0.095623
-0.033969
-0.090029
-0.037208
-0.083497
-0.003253
-0.049141
-0.043793
-0.016514
-0.069048
-0.078198
-0.058276
-0.086367
-0.040832
0.022192
-0.029036
-0.084057
-0.129367
-0.033750
-0.038917
-0.066405
-0.068031
-0.003367
0.003326
-0.067115
0.010790
-0.088096
-0.039548
0.001061
0.046889
-0.096252
-0.069817
-0.085224
-0.125691
-0.071005
-0.195953
0.008553
-0.016901
-0.026361
-0.051898
-0.016761
-0.051165
-0.008646
-0.047850
0.020677
0.055220
0.005077
0.017877
0.073893
0.071089
0.040739
0.138100
0.063803
0.132308
0.133760
0.063766
0.115937
0.104209
0.090854
0.138985
0.111577
0.061963
-0.045377
0.029951
0.059818
0.117388
0.050587
0.078294
0.044128
0.051484
0.043170
0.074700
0.004876
-0.018244
0.038268
-0.069243
-0.073767
-0.041749
-0.025587
-0.119250
-0.032426
-0.029437
-0.042769
-0.068254
-0.076554
-0.003160
-0.051624
0.063891
-0.077745
-0.116181
-0.051995
0.067128
-0.041570
-0.025999
0.009008
-0.020949
-0.045180
-0.073183
0.031129
-0.021204
0.000929
-0.037443
-0.121611
-0.009678
-0.048729
-0.045964
-0.088327
-0.015750
0.066708
0.285416
0.608095
0.944532
1.246051
1.306121
1.282189
1.205178
0.919393
0.588442
0.284597
-0.020541
-0.090051
-0.283146
-0.302957
-0.336037
-0.300501
-0.174178
-0.088783
-0.121492
-0.086126
-0.013791
-0.062339
0.004158
-0.013829
-0.006923
0.002754
-0.017170
0.064285
0.042363
0.037399
0.038049
-0.082050
0.043545
-0.034312
-0.040523
0.018328
-0.021496
-0.096170
0.015854
0.011392
0.104237
0.016956
0.078242
0.012342
0.032294
-0.012726
0.112572
0.118722
0.120915
0.094120
0.086046
0.178786
0.156631
0.230945
0.196649
0.173611
0.208043
0.294225
0.231441
0.333909
0.353584
0.285674
0.347806
0.381960
0.432900
0.408375
0.523865
0.395716
0.486285
0.473719
0.474360
0.469254
0.494845
0.487588
0.510360
0.561003
0.549360
0.453006
0.552773
0.440953
0.510508
0.456011
0.379000
0.489997
0.487625
0.402703
0.432441
0.441478
0.357279
0.330245
0.273565
0.348633
0.294396
0.277834
0.275666
0.251581
0.272050
0.225630
0.242529
0.134489
0.161795
0.177447
0.154368
0.199096
0.139546
0.057512
0.080155
0.077208
0.095241
0.091860
0.121943
0.071179
0.095034
0.062141
0.066516
0.041655
0.010255
0.012876
-0.012241
0.071783
0.094670
0.044683
0.036535
0.017889
0.083632
0.091010
0.033274
0.028586
0.059574
0.042560
-0.037473
0.052740
0.106340
-0.036117
0.031946
0.068345
0.045350
0.036287
0.044432
-0.029919
0.033608
0.122216
0.068707
0.088488
0.066155
0.129270
0.050294
0.108902
-0.028609
0.059917
0.010199
0.060888
0.091310
-0.028348
0.084005
0.049996
0.050403
0.150815
0.117567
0.048648
0.071883
0.067959
-0.075426
-0.009325
0.065279
0.026873
0.049746
0.085940
0.019128
-0.046050
0.112845
0.091772
0.060556
-0.020968
0.040774
0.126477
0.052867
0.031509
0.098242
0.046387
0.053598
0.060233
0.052578
0.017520
0.053648
0.080047
-0.025993
0.069030
0.078267
-0.028129
-0.004344
0.073127
-0.001112
0.056133
0.031870
0.010632
-0.039113
0.037799
0.057206
0.104039
0.066200
-0.034000
0.084496
0.062185
0.037048
0.019309
0.026506
0.064114
0.102344
-0.003370
-0.009492
0.018862
0.063399
0.143993
0.077867
0.041472
0.123202
0.068649
0.136878
0.039200
0.161768
0.099327
0.210209
0.164417
0.156153
0.140867
0.151475
0.193466
0.305973
0.223044
0.231304
0.235158
0.185127
0.233317
0.212179
0.192540
0.160045
0.163748
0.132003
0.144411
0.080038
0.181814
0.142021
0.114332
0.128780
0.069792
0.047930
0.116166
0.085302
0.103017
0.020417
0.094424
0.008552
0.060689
0.060463
0.083163
0.021856
0.007806
0.010228
0.028722
0.037422
0.002238
0.069521
0.085889
-0.000156
0.018555
0.003896
0.026858
0.058147
0.089031
0.001492
-0.022878
0.028872
-0.031057
0.019009
0.012568
0.014233
0.035803
-0.100676
-0.080491
-0.078463
-0.030348
0.032231
0.299018
0.641300
1.047278
1.261656
1.396986
1.408395
1.216057
1.027192
0.636227
0.288143
0.096335
-0.137249
-0.275256
-0.223883
-0.290715
-0.262534
-0.106422
-0.134928
-0.000330
-0.008638
-0.024661
0.122882
-0.056507
0.033980
0.038374
0.080337
0.049739
0.014133
0.039609
-0.067074
-0.021966
0.017770
-0.027347
0.048601
-0.058768
-0.005262
-0.022279
0.005238
-0.018969
0.059775
0.073474
0.044721
0.035929
0.059924
0.114188
0.061593
0.108773
0.062273
0.196235
0.147399
0.146906
0.118368
0.137070
0.118079
0.140529
0.150341
0.164215
0.230532
0.293097
0.199332
0.220796
0.333735
0.244069
0.296783
0.305243
0.398595
0.372480
0.412520
0.369420
0.389581
0.420046
0.434584
0.513477
0.548209
0.449504
0.438548
0.437862
0.468270
0.512126
0.469195
0.398768
0.434849
0.455658
0.424200
0.343024
0.370607
0.363145
0.327953
0.318489
0.293684
0.217350
0.173265
0.288056
0.187440
0.177178
0.204256
0.168290
0.208574
0.050549
0.141746
0.108363
0.080850
0.078997
0.032598
-0.016375
0.012447
0.152122
0.028678
-0.016682
0.047146
0.071075
-0.022814
0.001740
-0.047060
-0.028957
0.077076
-0.038390
-0.042779
-0.087114
-0.048130
-0.097626
-0.030252
-0.100044
-0.092865
-0.008591
-0.032996
0.031179
-0.014725
-0.081732
-0.023699
-0.003536
-0.076050
-0.062046
-0.079387
-0.074001
-0.017996
-0.060304
0.005601
-0.094984
-0.108740
-0.112064
-0.004430
-0.046803
-0.051610
-0.019723
-0.030291
0.007393
0.002393
-0.006176
-0.080506
-0.053711
-0.089695
0.000423
-0.122294
-0.154969
-0.077302
-0.063394
-0.028756
-0.120247
-0.081323
-0.071016
-0.127096
-0.086913
-0.013711
-0.007520
-0.027071
-0.117246
-0.178940
-0.083756
-0.038492
-0.105330
-0.096394
-0.092153
-0.079676
-0.128019
-0.084469
-0.051651
-0.124989
-0.122490
-0.032259
-0.101470
-0.084720
-0.108098
-0.102656
-0.034667
-0.051563
-0.101661
-0.019823
-0.063637
-0.143605
-0.085640
-0.082028
-0.104524
-0.067098
-0.039758
-0.074274
-0.018020
-0.031940
-0.089429
-0.033214
-0.074060
-0.142414
-0.118527
-0.082411
-0.058425
-0.088735
-0.053118
-0.103616
-0.025322
0.001651
-0.067349
-0.075936
0.026643
-0.047956
-0.077703
-0.094062
-0.044992
0.004259
0.013332
0.000483
0.005617
0.013952
0.024326
0.069488
0.072209
0.095748
0.055759
0.060449
0.062042
0.090832
0.026234
0.174047
0.039267
0.056021
0.155505
0.045176
0.059613
0.060912
0.047713
-0.001335
-0.001134
0.027901
-0.009329
-0.052849
-0.054758
-0.038689
-0.036983
-0.075209
-0.054804
-0.137518
-0.090524
-0.061987
-0.064637
-0.170870
-0.111216
-0.126147
-0.012893
-0.117875
-0.100098
-0.082716
-0.017277
-0.057341
-0.130261
-0.132424
-0.094084
-0.146168
-0.067901
-0.002186
-0.033721
-0.119823
-0.126976
-0.145326
-0.033500
-0.035726
-0.088543
-0.084013
-0.085727
-0.057976
-0.188174
-0.203572
-0.161612
-0.214219
-0.018590
0.196378
0.587894
0.903788
1.161279
1.243234
1.310320
1.101697
0.796807
0.549575
0.296002
-0.002514
-0.245591
-0.463079
-0.486050
-0.439657
-0.298522
-0.246902
-0.261326
-0.160933
-0.076845
-0.162506
-0.093004
-0.115016
-0.045005
-0.044438
-0.086380
-0.085886
0.009238
-0.089704
-0.030908
-0.081911
-0.149700
-0.038400
-0.072900
-0.101865
-0.036615
0.010809
0.025082
-0.061458
-0.055359
-0.020044
-0.056378
0.028939
-0.074643
-0.083603
-0.076152
-0.038295
0.023552
0.034597
-0.019738
0.059504
0.062326
0.095220
0.051205
0.117057
0.108439
0.160149
0.190092
0.174302
0.186712
0.236230
0.288948
0.270317
0.205094
0.236079
0.292695
0.367613
0.351438
0.380143
0.406555
0.396527
0.393158
0.399235
0.403376
0.461224
0.456840
0.521293
0.409758
0.372334
0.377921
0.445054
0.340931
0.392711
0.355786
0.283914
0.359347
0.289342
0.250190
0.333031
0.290737
0.215546
0.190105
0.143797
0.155693
0.228454
0.109226
0.021009
0.105423
0.076704
0.040851
0.148325
0.058765
0.034239
0.010324
0.019188
0.029744
-0.008509
-0.029810
0.021443
0.008739
0.037325
0.008475
-0.077507
-0.093384
-0.021246
-0.033858
-0.036961
-0.037976
-0.158323
-0.029974
-0.030905
-0.037365
0.000809
-0.001875
0.024458
-0.005786
0.021345
-0.085005
-0.053348
-0.001499
0.044586
-0.086812
-0.088498
-0.052435
0.003705
-0.027513
-0.112450
-0.127338
-0.067366
0.006799
-0.017465
-0.114673
-0.025141
0.008872
-0.021384
0.012942
-0.111793
-0.035934
-0.068572
-0.002987
-0.134966
-0.060028
-0.040254
0.001240
0.030736
-0.062488
-0.092727
0.008539
0.017476
-0.028968
-0.049855
-0.028607
0.002448
0.046218
-0.024646
0.001408
-0.043725
-0.074315
-0.025019
0.011573
-0.008709
-0.009418
-0.040047
0.035069
-0.054937
-0.025063
0.031086
-0.039446
-0.016207
0.031439
-0.050365
-0.001989
-0.062055
-0.017209
-0.018231
-0.001080
-0.067399
0.013526
0.003209
-0.088654
-0.025795
0.003307
-0.009038
0.019980
0.008355
-0.011476
0.010408
-0.004539
-0.050411
-0.050694
-0.041942
0.080565
-0.073326
0.108627
-0.000116
0.011705
0.000572
0.035404
0.002195
-0.079126
0.025218
0.047137
-0.004230
0.104501
0.074668
0.008545
0.101795
0.067707
0.117764
0.095330
0.073112
0.115382
0.108298
0.092765
0.088848
0.151514
0.168407
0.157867
0.198760
0.166980
0.182621
0.145948
0.206854
0.218875
0.211160
0.158516
0.177585
0.146836
0.060127
0.154436
0.119117
0.152219
0.083442
0.118014
0.111671
0.086973
0.045216
0.074048
0.103133
0.213518
0.066402
-0.046685
0.010769
0.054539
0.001684
0.040772
-0.089746
-0.010563
0.064690
0.033071
0.095712
-0.017007
0.077124
0.060663
-0.017497
0.041483
-0.037087
-0.050020
0.026959
-0.020797
0.033009
0.067496
-0.001466
0.037149
0.024991
0.038612
-0.047421
-0.065811
0.031016
-0.087440
-0.073317
-0.018304
0.155283
0.427517
0.708088
0.976094
1.203409
1.482489
1.418514
1.191711
0.930640
0.567606
0.333969
0.167187
0.016250
-0.219116
-0.238369
-0.256268
-0.176798
-0.131206
-0.044796
0.008066
-0.017088
0.125079
0.096665
0.045894
0.086696
0.083076
0.021659
0.027468
-0.018126
0.003269
0.012126
0.079183
0.083228
0.043210
0.038771
-0.016071
0.093509
0.073215
0.101471
0.074924
0.070683
0.080629
0.129786
0.118601
0.123352
0.128814
0.104963
0.252601
0.157610
0.171253
0.224594
0.159129
0.138302
0.250871
0.255240
0.263452
0.241340
0.317913
0.231259
0.422465
0.311629
0.348550
0.370633
0.372717
0.366778
0.452289
0.456149
0.442444
0.463428
0.514614
0.470411
0.505019
0.569056
0.574084
0.542193
0.585484
0.577910
0.567921
0.638527
0.523301
0.540489
0.552359
0.539393
0.502447
0.501716
0.483904
0.442568
0.443061
0.447960
0.444431
0.309841
0.345790
0.365854
0.381408
0.427814
0.345109
0.268680
0.219839
0.248093
0.204981
0.244359
0.257933
0.201649
0.187149
0.148670
0.134547
0.080959
0.156465
0.141782
0.151905
0.080413
0.101566
0.117972
0.001733
0.020697
0.037287
0.008252
0.061640
0.072081
0.057322
0.008768
0.123260
0.045236
0.099442
0.011944
0.004476
0.094585
0.045029
