-0.047057
-0.013759
-0.060220
-0.007846
-0.060397
0.021167
-0.018375
-0.042205
0.006851
-0.006341
0.042650
0.153552
-0.076323
-0.000960
-0.029525
0.091214
0.022308
0.062544
0.029404
0.073906
0.073478
0.002015
0.047342
0.085968
0.070343
-0.022837
0.047209
0.009289
0.044252
0.077036
0.056408
0.047948
0.046181
0.097089
0.092763
0.171436
0.114358
0.164108
0.203180
0.187199
0.145908
0.246399
0.213669
0.235608
0.230847
0.275684
0.252113
0.253413
0.211952
0.044769
0.236387
0.249266
0.189810
0.140935
0.100354
0.114497
0.149383
0.144050
0.129714
0.151850
0.102774
0.115995
0.070584
0.056710
0.010270
0.018146
0.096793
0.032994
0.002541
0.019207
0.040946
0.056926
0.071739
-0.065884
0.087659
0.118603
0.097446
0.079000
0.102510
-0.004266
0.137971
-0.021601
0.039782
-0.005055
-0.061424
0.065563
0.198625
0.448099
0.791002
1.056258
1.345416
1.416386
1.449164
1.146738
0.821534
0.448161
0.119690
-0.098437
-0.217662
-0.248263
-0.110962
-0.025769
0.022534
0.001063
0.041710
0.059673
0.053008
0.096293
0.082565
0.109072
0.076634
0.052700
0.092782
0.154233
0.138383
0.158190
0.152598
0.169316
0.148014
0.199626
0.164378
0.172487
0.216897
0.249331
0.236047
0.227384
0.256304
0.191875
0.266455
0.326864
0.304877
0.331505
0.431571
0.374174
0.366833
0.458889
0.420799
0.473724
0.416077
0.472445
0.556980
0.455888
0.592590
0.659196
0.576052
0.602549
0.548404
0.645708
0.537617
0.611365
0.574759
0.596239
0.603810
0.578854
0.524054
0.580197
0.525341
0.546935
0.462879
0.511167
0.403014
0.479922
0.355503
0.431156
0.356968
0.366547
0.258626
0.328072
0.205134
0.232995
0.214286
0.283075
0.312088
0.226372
0.203058
0.218181
0.191009
0.179559
0.115788
0.170728
0.121604
0.186611
0.165003
0.128546
0.126905
0.121863
0.040541
0.067795
0.109635
0.104185
0.080702
0.080577
0.056036
0.034170
0.128894
0.043555
0.134024
0.041947
0.102664
0.093044
0.087146
0.077429
0.080145
0.083210
0.145665
0.151678
0.106497
0.096543
0.076358
0.044622
0.086110
0.040297
0.114391
0.082540
0.116088
0.100019
0.151747
0.147387
0.097638
0.076031
0.078196
0.115436
0.148256
0.096101
0.090780
0.122603
0.080210
0.103097
0.077909
0.059555
0.154235
0.147091
0.134973
0.073052
0.055031
0.028810
0.074630
0.135949
0.068426
0.127501
0.067702
0.110953
0.100378
0.135717
0.178529
0.078662
0.076667
0.027219
0.081096
-0.011570
0.064349
0.033354
0.032675
0.108701
0.133291
0.084299
0.112824
0.103036
0.132903
0.140226
0.151417
0.077165
0.121995
0.181961
0.316805
0.097255
0.223188
0.235656
0.265737
0.239223
0.248349
0.292626
0.200809
0.247940
0.220686
0.260374
0.174106
0.216631
0.217586
0.198143
0.142382
0.194537
0.224000
0.189868
0.159616
0.147872
0.182457
0.078837
0.112116
0.060723
0.060800
0.091270
0.035504
0.071309
0.127245
0.072936
0.068998
0.081351
0.071195
-0.007330
0.074985
0.081755
0.042903
0.116753
-0.019546
0.144810
0.077412
0.086217
-0.000729
0.031434
0.032992
-0.036314
0.174860
0.176104
0.392543
0.668781
1.020869
1.287112
1.388180
1.404098
1.237516
0.903616
0.556903
0.280674
-0.067065
-0.219799
-0.213069
-0.153383
-0.117733
-0.061685
-0.045091
-0.026578
0.080166
0.068805
0.041681
0.012986
0.044813
0.044883
0.041575
0.076241
0.160896
-0.021915
0.121340
0.108738
-0.017694
0.245241
0.175274
0.097516
0.186189
0.200647
0.186034
0.258235
0.239076
0.225195
0.166646
0.315144
0.292512
0.298494
0.297881
0.329427
0.371225
0.405270
0.352657
0.463299
0.340366
0.418240
0.440249
0.464375
0.505282
0.440509
0.411092
0.456687
0.496997
0.561594
0.523253
0.475455
0.580081
0.496578
0.504802
0.548853
0.523685
0.540694
0.439526
0.414036
0.418320
0.371243
0.379023
0.427622
0.369737
0.325706
0.340281
0.322625
0.267052
0.295270
0.211049
0.277864
0.178571
0.142760
0.196157
0.140298
0.147269
0.131564
0.150406
0.142945
0.097222
0.063065
0.022336
0.095089
0.083054
0.051937
0.005966
0.015271
0.011168
0.043257
0.080645
0.016777
0.051226
0.049801
-0.035429
0.123379
0.033108
0.014818
0.037299
-0.025737
0.020584
0.011905
0.105456
0.011464
0.008805
0.014316
0.022747
-0.002251
-0.085360
0.002810
-0.025000
-0.058965
0.036244
-0.066915
0.058441
0.002934
-0.034073
-0.012894
-0.006682
0.021346
0.001259
-0.062074
-0.001278
-0.033459
-0.005914
-0.005508
-0.027518
-0.041132
-0.050870
-0.004395
-0.063698
-0.006614
-0.097003
0.040061
-0.032128
-0.099950
0.005249
0.036871
-0.067698
0.008866
-0.059248
-0.008847
0.042669
-0.044114
0.046909
-0.121735
0.005301
-0.005743
-0.054182
0.002915
-0.054483
-0.019021
-0.027130
-0.077238
0.033449
0.013626
-0.013364
0.119852
0.017161
-0.077506
0.000914
0.051620
-0.029417
-0.031129
0.067058
0.136343
0.065575
0.069032
0.081577
0.134314
0.059328
0.122410
0.118702
0.042918
0.155862
0.231476
0.129117
0.144826
0.134123
0.181010
0.100064
0.100486
0.099074
0.116047
0.047267
0.086378
0.023033
0.044960
-0.029244
0.050149
0.028904
0.088177
-0.006729
-0.009905
-0.056581
-0.072782
-0.039574
0.016819
-0.001695
-0.122782
0.000756
-0.052623
-0.060261
-0.030884
-0.049754
-0.107757
-0.006867
-0.057271
0.004716
-0.057592
-0.061073
-0.102906
-0.160879
-0.106094
-0.072031
-0.015276
0.014266
0.288719
0.527152
0.908229
1.086666
1.302057
1.308580
1.172633
0.853858
0.558473
0.147061
-0.155601
-0.288751
-0.324076
-0.316380
-0.233017
-0.213713
-0.086795
-0.029653
-0.028562
0.010738
-0.074757
-0.008044
-0.049046
0.026200
-0.038830
-0.032947
0.023076
-0.040527
0.081298
0.005393
0.007254
-0.005090
0.117732
0.079056
0.020940
0.082365
0.068175
0.132810
0.155050
0.078188
0.087829
0.218938
0.191709
0.221378
0.204453
0.196771
0.276158
0.190739
0.242025
0.381150
0.362403
0.340176
0.403246
0.388486
0.426828
0.485313
0.444391
0.382322
0.403642
0.488789
0.452003
0.489890
0.465575
0.482434
0.493453
0.435824
0.402014
0.449053
0.414542
0.381116
0.407172
0.361129
0.330232
0.319107
0.335000
0.328051
0.262253
0.288831
0.251566
0.173401
0.231326
0.155324
0.198924
0.045941
0.153914
0.075119
0.128001
0.082626
0.080371
-0.038979
0.029363
0.128227
-0.007778
-0.003319
-0.013273
0.014286
0.015606
0.052877
-0.075217
0.071101
-0.082720
-0.020601
-0.054820
0.011963
-0.032341
-0.097341
-0.036755
-0.046254
-0.106682
-0.114233
-0.107154
0.008685
-0.035887
-0.080867
0.063447
0.010497
-0.017099
-0.005199
-0.003505
0.010853
0.057859
-0.000500
0.029643
0.079552
-0.057782
0.040688
-0.126284
0.033055
-0.072279
0.008013
-0.003375
-0.034973
-0.037177
-0.014183
-0.036361
-0.045671
-0.021162
-0.093238
0.039690
0.042151
-0.032704
-0.055696
0.055410
0.007206
-0.016324
-0.012692
0.064478
0.080411
-0.089679
-0.006392
0.072572
0.027156
0.051363
0.051705
-0.022384
0.011540
-0.053060
0.056656
-0.040881
0.014877
0.075430
-0.002818
-0.006111
-0.017705
0.011537
0.094068
-0.045772
-0.002760
0.005986
0.037312
-0.002221
0.028411
0.061155
-0.001293
0.093102
0.028442
0.123880
0.110963
0.110603
0.163287
0.116081
0.123550
0.133730
0.255024
0.081272
0.236410
0.157331
0.176667
0.241963
0.127933
0.074701
0.118804
0.162479
0.203071
0.124582
0.147579
0.166006
0.254545
0.098762
0.121113
0.123795
0.082460
0.099350
0.023668
0.082530
0.148733
0.055594
-0.012679
0.065129
-0.001577
-0.016440
0.104312
0.013085
0.044586
0.012060
-0.060377
0.036614
-0.011997
0.023768
0.009206
-0.007715
-0.021494
0.103545
0.010657
-0.093991
-0.020344
0.067658
0.195065
0.552749
0.820125
1.152036
1.333904
1.459832
1.285078
0.965449
0.665987
0.415029
0.003375
-0.107115
-0.287642
-0.218982
-0.199549
-0.116182
-0.014040
0.033077
0.041525
-0.021530
0.108189
-0.045623
0.086125
0.085163
0.102362
0.028329
0.051170
0.112881
0.035639
0.069000
0.133815
0.132052
0.054264
0.150707
0.145943
0.145773
0.168065
0.162319
0.219457
0.198680
0.157894
0.311249
0.270211
0.306714
0.332076
0.331502
0.355898
0.372085
0.450913
0.475599
0.449438
0.429329
0.429480
0.550329
0.511504
0.529936
0.533742
0.546248
0.542956
0.524211
0.551856
0.609458
0.572259
0.601384
0.538628
0.523301
0.609596
0.463467
0.495199
0.498948
0.514475
0.524416
0.451137
0.477591
0.420870
0.381692
0.406802
0.392992
0.349440
0.316383
0.338837
0.281925
0.292268
0.262949
0.264592
0.216663
0.266212
0.208741
0.127870
0.158421
0.141013
0.123529
0.179612
0.164130
0.087972
0.145737
0.085185
0.121614
0.131454
0.099060
0.130348
0.113254
0.097532
0.160898
0.203041
0.064467
0.165483
0.106740
0.032686
0.117877
0.146012
0.109029
0.113144
0.063071
0.122275
0.035785
0.055441
-0.001072
0.104111
0.111022
0.091196
0.093483
0.076177
0.141287
0.086601
0.061070
0.053247
0.063501
0.087765
0.035223
0.139235
0.036949
0.123393
0.115723
0.109580
0.107581
0.121124
0.112620
0.078209
0.098246
0.107244
0.110384
0.115785
0.079112
0.121425
0.087000
0.054965
0.086062
0.114081
0.116800
0.131974
0.100943
0.097475
0.111177
0.064274
0.155247
0.108249
0.069165
0.062594
0.097621
0.036736
0.080669
0.080022
0.061046
0.023031
0.117474
0.142592
0.121687
0.111925
0.076802
0.062513
0.143063
0.168642
0.139004
0.207812
0.190811
0.185900
0.217710
0.197370
0.191095
0.193003
0.258240
0.337824
0.251289
0.298143
0.254554
0.265908
0.281456
0.265334
0.180125
0.209864
0.211102
0.242719
0.261187
0.082796
0.245355
0.279105
0.148403
0.272055
0.146363
0.155510
0.154560
0.135503
0.145950
0.147750
0.148813
0.082554
0.139272
0.145576
0.120418
0.032290
0.083519
0.145620
0.078098
0.144020
0.084430
0.070634
0.033065
0.071698
0.035254
0.004253
0.093985
-0.004328
0.013514
0.071736
0.040603
0.173266
0.204190
0.448705
0.819348
1.140317
1.325785
1.500000
1.440729
1.080426
0.864055
0.445786
0.156131
-0.081073
-0.092308
-0.230828
-0.187379
-0.020576
-0.012088
0.090187
0.076119
0.064480
0.118104
0.122560
0.083554
0.095642
0.157546
0.068256
0.118283
0.156711
0.114217
0.097196
0.162468
0.142254
0.149792
0.211053
0.086842
0.218619
0.152014
0.174218
0.337879
0.260098
0.207175
0.271355
0.267625
0.316083
0.294506
0.333838
0.389606
0.389792
0.369855
0.437655
0.469494
0.426254
0.464710
0.472407
0.517541
0.557037
0.536733
0.510512
0.565554
0.682390
0.530299
0.573514
0.512492
0.552465
0.581569
0.690032
0.593002
0.494376
0.455120
0.516295
0.408306
0.444245
0.500170
0.408454
0.384956
0.408275
0.321369
0.244016
0.344970
0.362339
0.321735
0.209689
0.221473
0.231495
0.229202
0.146933
0.249468
0.217153
0.129685
0.088873
0.126242
0.071668
0.169455
0.072392
0.046649
0.090410
0.099861
0.024483
0.113881
-0.032731
0.024805
0.057550
-0.010488
0.045406
0.063304
0.032174
0.031548
0.060949
0.059823
0.023399
0.018541
0.159029
0.007795
0.044883
0.052175
0.047689
0.026541
-0.024167
-0.038722
0.043887
0.073704
0.040999
-0.052154
-0.045629
0.006621
-0.003446
0.000393
0.030700
-0.020526
0.108324
-0.043940
-0.016295
0.114380
-0.038125
0.025260
0.012913
0.094715
0.047243
-0.017600
-0.024628
0.033579
0.042599
-0.062164
0.023925
-0.015899
-0.049729
0.017210
0.044191
0.036629
0.011256
0.034096
-0.067303
0.043235
0.001816
-0.001969
-0.063864
0.025584
-0.036833
-0.013432
-0.035775
-0.051298
0.075344
-0.069181
-0.032840
0.040972
-0.019898
0.020698
0.024911
0.074386
0.068562
0.015123
0.072546
0.061738
0.041377
0.055701
0.128150
0.019670
0.111404
0.054740
0.102255
0.094012
0.189154
0.128398
0.093166
0.122992
0.189540
0.159158
0.100127
0.226843
0.131091
0.073736
0.163339
0.086813
0.101468
0.104188
0.129864
0.018912
0.105012
0.061896
0.073160
-0.025898
-0.058113
0.035276
-0.010634
-0.067445
-0.048616
0.041863
0.047229
-0.048079
-0.034352
0.034978
-0.049813
0.005840
-0.071495
-0.061701
-0.052638
0.031650
-0.016586
-0.055562
0.022065
-0.079710
-0.093043
-0.017538
-0.121233
-0.051904
-0.099351
-0.105884
0.060219
0.228481
0.617246
0.822471
1.210228
1.402114
1.332183
1.155303
0.805309
0.444190
0.139982
-0.076536
-0.307240
-0.334260
-0.351336
-0.220534
-0.168566
-0.119729
-0.132062
-0.090183
-0.045221
-0.026211
-0.080375
-0.058695
-0.067430
-0.030427
0.000047
0.039187
-0.011137
-0.000825
-0.016347
-0.036148
-0.011477
0.050683
0.045670
0.033818
0.164636
0.097866
0.068823
0.078098
0.100667
0.126292
0.173525
0.155294
0.221593
0.188661
0.136858
0.259664
0.207885
0.268745
0.336629
0.329928
0.264450
0.381527
0.382341
0.407189
0.328839
0.413607
0.424408
0.466817
0.511087
0.470808
0.418404
0.437327
0.473785
0.441538
0.443123
0.374543
0.330482
0.423452
0.320629
0.371904
0.365398
0.341157
0.290574
0.226185
0.311802
0.237445
0.230676
0.296037
0.220124
0.227842
0.054146
0.194299
-0.009679
0.067516
0.025757
0.111403
-0.019757
0.007906
0.035619
-0.025960
0.091291
-0.052151
-0.035322
-0.054440
-0.043798
-0.024379
0.009671
-0.093006
-0.039329
-0.115618
-0.130264
-0.102327
-0.004701
-0.055657
-0.103295
-0.102700
-0.019195
-0.041581
-0.086286
-0.055790
-0.104426
-0.080254
-0.095509
-0.057741
-0.004366
-0.011524
-0.085224
-0.019379
-0.041826
-0.114716
-0.023003
-0.011888
-0.106004
-0.096704
-0.088566
-0.062172
-0.220758
-0.035578
-0.050116
-0.131363
0.012762
-0.045174
-0.135744
-0.070507
-0.159245
-0.023914
0.017174
-0.107899
-0.089603
-0.018675
-0.114847
-0.075315
-0.082245
-0.042208
-0.010075
-0.073535
-0.071479
-0.095325
-0.079739
-0.016266
-0.056258
0.010292
-0.095814
-0.128738
-0.104086
-0.079899
-0.120915
-0.061870
-0.160204
-0.098164
-0.070173
-0.063751
-0.060150
0.027764
-0.020944
0.038051
-0.019140
-0.091046
-0.045398
-0.042329
0.053735
-0.043154
-0.014476
-0.031937
0.029968
-0.002446
0.081260
0.048679
0.053866
0.068864
0.111045
0.104434
0.059265
0.152499
0.095991
0.098979
0.033667
0.120512
0.102305
0.140063
0.135803
0.140689
0.063318
0.069361
0.039747
0.060952
-0.023923
0.003134
-0.005508
-0.029368
0.021943
0.001459
-0.093002
0.012543
-0.085810
-0.002933
-0.024727
0.002269
-0.055053
-0.046583
0.001536
-0.066273
-0.089845
-0.117721
-0.011678
-0.066221
-0.026311
0.058793
-0.021223
0.001275
-0.050193
-0.097081
-0.066841
-0.135694
-0.019014
0.043275
0.208649
0.524377
0.833861
0.968813
1.225457
1.308150
1.239179
0.887378
0.501692
0.200884
-0.077294
-0.273395
-0.359305
-0.274966
-0.312694
-0.116872
-0.086724
0.050644
-0.075863
-0.042986
-0.014377
-0.069664
0.016230
-0.015169
-0.048959
0.052737
-0.002369
-0.019333
0.091114
0.002193
-0.041759
0.073494
-0.029644
0.106655
0.014606
0.035862
0.050332
0.085219
0.150668
0.232669
0.107154
0.211740
0.213240
0.175314
0.222334
0.175705
0.255298
0.272504
0.293032
0.339989
0.352201
0.390691
0.412234
0.400173
0.405422
0.390731
0.477522
0.500859
0.424063
0.496159
0.488637
0.428373
0.453506
0.477096
0.432363
0.552062
0.501989
0.432333
0.387605
0.419356
0.464512
0.385102
0.407405
0.335617
0.368541
0.312304
0.347708
0.281360
0.282960
0.142874
0.209552
0.258939
0.171335
0.186751
0.130353
0.092028
0.195274
0.135568
0.113425
0.061371
0.085196
-0.001949
-0.002813
-0.018207
0.044111
0.046833
0.053744
0.051551
0.023853
0.122184
0.041507
-0.010333
0.026824
-0.009745
-0.041242
-0.017791
-0.017314
-0.010688
0.027271
-0.017143
0.045700
0.016657
0.019355
-0.011781
-0.018487
-0.014983
0.008849
0.015478
-0.029464
0.044030
0.103695
0.054436
0.051139
0.044407
0.038641
0.059063
-0.021431
-0.046906
0.034599
-0.047808
-0.037918
0.007232
0.010477
-0.050103
0.063604
-0.079409
-0.013375
-0.052033
0.062558
0.018801
-0.043774
0.011360
-0.030214
0.094862
0.095263
0.091234
0.098782
-0.080788
0.050046
0.017336
0.120189
0.037427
-0.010654
0.066315
0.013889
0.010503
0.064357
0.125968
0.101574
0.096601
0.116341
0.057780
0.091006
0.023300
0.049555
0.061511
0.076651
-0.009070
-0.017122
0.032846
0.095257
0.131907
0.062531
0.019230
0.065642
0.137392
0.095451
0.092679
0.127533
0.200208
0.159186
0.183574
0.194701
0.142909
0.188130
0.249381
0.185872
0.174619
0.120549
0.147626
0.203301
0.231124
0.194264
0.172161
0.128625
0.207054
0.067536
0.110210
0.122329
0.107314
0.144245
0.079633
0.100068
0.110922
0.050893
0.127459
-0.023569
0.102875
0.063785
0.107025
0.100804
-0.009341
0.067436
-0.019027
0.053969
0.093547
-0.048951
0.044306
0.001182
-0.018964
0.022909
0.084361
-0.043851
0.083280
-0.004059
0.006149
0.068431
0.220000
0.464974
0.791704
1.084844
1.272549
1.439402
1.317566
1.047356
0.720281
0.402257
0.104458
-0.205890
-0.236422
-0.171029
-0.196999
-0.150196
-0.046128
0.032045
0.086336
0.043549
0.031750
0.019053
0.024021
0.070951
0.104336
0.130168
0.053014
0.020322
0.073043
0.136517
0.086495
0.120191
0.163287
0.139224
0.140326
0.141355
0.118204
0.165604
0.204066
0.278910
0.242090
0.252807
0.235859
0.340600
0.308500
0.322826
0.372775
0.390015
0.461979
0.459360
0.454942
0.401246
0.428583
0.491325
0.476917
0.508517
0.508021
0.550636
0.489121
0.532685
0.554107
0.499700
0.531653
0.536808
0.484583
0.585157
0.600653
0.510503
0.444809
0.491499
0.506510
0.496426
0.417198
0.441990
0.422509
0.481807
0.426523
0.370683
0.311735
0.363774
0.281522
0.205074
0.261127
0.196534
0.178775
0.166415
0.172878
0.198642
0.169533
0.130888
0.105605
0.065745
0.119279
0.041626
0.091765
0.078406
0.168755
0.100165
0.077795
0.064880
0.009779
0.003115
0.003908
0.036767
0.041756
-0.001883
0.008763
0.074441
0.031935
0.024344
0.059477
0.027333
0.031861
0.031755
0.051387
0.060358
0.049540
-0.086335
0.011333
0.028695
-0.010942
0.044681
0.048362
0.042647
0.023993
0.006965
0.025519
-0.008146
0.008896
-0.001610
0.000299
-0.027952
0.017483
-0.047233
-0.011295
0.039224
-0.006586
0.010957
0.089378
0.002277
0.007622
0.007014
0.070427
0.040938
0.007465
0.006979
-0.001293
0.006099
-0.042693
0.010952
0.097966
0.042491
0.023501
0.072672
-0.037217
-0.022615
0.001598
0.025103
-0.022504
0.110550
0.017144
0.012589
0.074814
0.051630
0.107303
0.018483
0.006949
0.057857
0.047817
0.016552
-0.012581
0.056987
0.001994
0.151979
0.078381
0.096892
0.102303
0.107058
0.174689
0.132134
0.066250
0.150789
0.146260
0.115052
0.171399
0.183332
0.076057
0.078868
0.181241
0.157802
0.184364
0.094964
0.157120
0.100328
0.098616
0.199174
0.115096
0.013282
0.091215
0.041423
-0.021582
0.125554
0.081219
0.030225
-0.056223
-0.041983
0.003906
-0.060716
-0.034791
-0.029837
-0.094650
-0.011052
-0.075834
-0.061002
-0.077015
-0.078441
-0.038620
-0.007337
-0.059694
-0.001479
-0.009104
-0.042258
-0.028450
-0.057265
-0.095026
-0.106415
-0.087530
0.020952
0.294855
0.648065
0.927511
1.163884
1.406564
1.237373
1.055420
0.773860
0.288336
0.123315
-0.180311
-0.339601
-0.438703
-0.300482
-0.153633
-0.098047
-0.086197
-0.076680
-0.059052
-0.047062
0.034205
-0.057112
-0.039950
-0.143686
0.008738
-0.037411
0.008053
-0.034884
0.013709
-0.017371
0.007752
-0.019805
0.035363
0.063035
0.128408
0.108196
0.112859
0.135616
0.136537
0.218517
0.114361
0.120942
0.235458
0.152247
0.217793
0.181504
0.189744
0.287642
0.309402
0.366025
0.282546
0.360100
0.427166
0.365958
0.339009
0.443140
0.401212
0.434395
0.456019
0.338139
0.466213
0.455698
0.472152
0.437727
0.388824
0.431960
0.410193
0.368351
0.410356
0.343996
0.386958
0.317641
0.301052
0.289391
0.222040
0.188343
0.230532
0.215950
0.150011
0.205254
0.124022
0.108223
0.070930
0.111796
0.071280
0.040583
-0.008105
0.030193
0.042150
0.020745
-0.010728
0.006888
-0.038757
-0.079336
-0.069112
-0.003688
-0.051111
0.016299
0.008003
-0.092631
-0.011785
-0.104271
-0.050965
-0.063445
-0.085415
-0.084399
-0.195868
-0.092241
-0.002284
-0.136108
-0.040729
-0.110906
-0.127824
-0.157921
-0.122163
-0.046377
-0.071783
-0.158474
-0.042375
-0.078852
-0.015637
-0.078196
-0.106462
-0.092710
-0.120531
-0.124417
-0.110206
-0.072565
-0.115660
-0.159033
-0.071435
-0.023396
-0.067195
-0.144428
-0.099717
-0.122754
-0.067337
-0.121127
-0.043244
-0.034230
-0.088657
-0.099159
-0.061301
-0.084626
-0.052466
-0.101050
-0.079692
-0.118085
-0.160381
-0.126231
-0.089467
-0.058078
-0.038724
-0.063974
-0.113084
-0.154109
-0.065616
-0.093916
-0.090801
-0.121192
-0.073446
-0.111418
-0.095944
-0.068058
-0.088844
-0.051654
-0.083600
-0.042107
-0.092981
-0.151849
-0.043781
-0.018907
-0.096783
-0.052014
0.009108
-0.049812
-0.041293
0.007078
0.021474
0.066792
0.089227
0.161539
0.084550
0.107259
0.077514
0.013820
0.063023
0.034418
0.008318
0.039056
0.078835
0.104622
0.039751
-0.026809
0.057414
0.022310
0.146480
0.089287
-0.076331
-0.056916
0.040122
0.003158
-0.141644
-0.023077
0.015267
-0.103161
-0.077193
-0.137064
-0.086704
-0.104704
-0.058419
-0.135864
-0.045450
-0.068475
-0.079070
-0.050570
-0.086171
-0.128400
-0.147973
-0.058902
-0.136121
-0.118430
-0.058220
-0.091438
-0.077583
-0.087519
-0.038913
0.258883
0.501880
0.894068
1.094583
1.318866
1.252512
1.077428
0.768336
0.437435
0.081146
-0.194080
-0.280224
-0.424390
-0.351601
-0.312255
-0.251207
-0.142256
-0.038380
-0.072367
-0.086689
-0.037504
-0.038258
-0.039146
-0.079196
-0.139429
-0.026121
-0.016367
0.077297
-0.065856
0.030582
0.021555
-0.049903
-0.003645
-0.095069
0.020519
0.024574
0.059798
0.090937
0.069904
0.082511
0.123867
0.120525
0.136725
0.163699
0.194519
0.154012
0.273164
0.254691
0.291814
0.327512
0.285104
0.249726
0.374914
0.365299
0.348159
0.409852
0.549417
0.397424
0.425573
0.377865
0.424990
0.431216
0.409699
0.476455
0.456025
0.371343
0.449075
0.398342
0.335412
0.352019
0.423895
0.411702
0.303522
0.379076
0.343226
0.237021
0.243304
0.194884
0.207121
0.150482
0.110200
0.132436
0.144666
0.079511
0.124453
0.093428
0.078169
0.106993
0.067269
0.040372
0.094479
0.019829
0.034842
0.042042
0.014596
-0.021068
-0.033343
-0.077070
-0.041434
-0.089286
0.025439
-0.037803
0.059867
-0.030990
-0.102999
-0.042703
0.045691
-0.000967
-0.011780
0.061787
-0.033992
0.060921
-0.113896
-0.019949
0.005334
-0.078074
-0.007464
-0.000132
0.017602
-0.011182
-0.055353
-0.061643
-0.006120
-0.030347
-0.033409
-0.028491
-0.056328
0.011120
-0.036107
-0.007590
0.014849
-0.086382
-0.079209
0.090494
0.042163
-0.034356
0.088784
-0.012286
-0.043320
0.025265
-0.014399
0.006721
0.005259
-0.015033
-0.049244
0.060811
0.009544
0.038465
-0.047820
0.046149
-0.082410
0.059538
0.002249
-0.050461
0.006621
0.007592
-0.028922
0.078994
0.001617
-0.016144
-0.023243
-0.000397
-0.023785
0.016703
-0.020738
0.045739
-0.002672
0.003688
0.021789
0.084903
0.029175
0.129934
0.068491
0.115880
0.100978
0.188365
0.075470
0.123790
0.146606
0.075727
0.225599
0.139668
0.132263
0.097209
0.201278
0.174267
0.227816
0.209967
0.176454
0.131989
0.196980
0.146041
0.200858
0.172609
0.150511
0.136623
0.162234
0.212919
0.059223
0.097920
0.081923
0.009844
0.035987
0.073599
0.040625
0.072298
-0.016835
0.019848
0.036752
0.016709
0.075768
0.076735
0.009338
0.092359
0.033171
0.013652
0.098146
0.014883
0.041868
0.081317
0.067406
0.042636
0.122229
-0.056326
-0.010356
-0.054417
0.090589
0.242366
0.555332
0.897772
1.182979
1.338240
1.409886
1.284202
1.037779
0.633952
0.453715
0.006108
-0.179260
-0.244464
-0.188652
-0.122548
-0.068153
-0.017710
0.075546
0.069414
0.017518
0.067029
0.006710
0.017485
0.024776
0.153767
0.084140
0.141443
0.059148
0.067851
0.089471
0.025462
0.150886
0.128937
0.098486
0.154184
0.122916
0.131344
0.063649
0.175658
0.191441
0.265508
0.212410
0.283897
0.299040
0.306670
0.341350
0.376387
0.392017
0.395072
0.425183
0.405939
0.489125
0.447427
0.506064
0.535506
0.543045
0.549444
0.520556
0.498550
0.560091
0.594311
0.486089
0.535869
0.600767
0.548193
0.556378
0.553824
0.574967
0.590089
0.488647
0.559986
0.517753
0.463716
0.452209
0.377177
0.374631
0.390385
0.306045
0.360365
0.345403
0.357261
0.275078
0.252261
0.168372
0.207109
0.252257
0.163233
0.254945
0.194153
0.139906
0.147611
0.124925
0.153992
0.169414
0.133328
0.172315
0.101636
0.100510
0.056224
0.072817
0.055552
0.038692
0.100266
0.114341
0.145000
0.021243
0.054542
0.028777
0.064219
0.091656
0.092376
0.056906
0.114492
0.047826
0.046006
0.121553
0.085452
0.082078
0.106396
0.030452
0.084601
0.046244
-0.005330
0.059105
0.092794
0.102946
0.014989
0.142361
0.084059
0.074234
0.090590
0.104207
0.067064
0.067415
0.058830
0.106041
0.018860
-0.016242
0.034883
0.104655
0.075273
