-0.034964
0.056604
-0.021853
-0.028842
0.005980
-0.090756
0.057254
-0.014217
0.043875
-0.073397
0.053281
-0.003656
-0.064863
0.043115
0.049685
-0.012994
0.058596
-0.011317
-0.021493
-0.061832
0.042460
-0.004550
0.028350
-0.009837
-0.082362
-0.033054
0.026077
0.127904
0.096163
0.084242
0.014904
0.065040
0.143723
0.071654
0.101446
0.109937
0.158146
0.160189
0.179263
0.179053
0.150983
0.269099
0.200822
0.240705
0.275818
0.139972
0.149027
0.121144
0.220269
0.185763
0.202552
0.112265
0.160327
0.082401
0.160609
0.083470
0.078280
0.105097
0.024705
0.115572
0.126658
0.054093
0.067518
0.004116
0.048440
0.074399
0.119700
0.182452
0.044239
-0.003659
0.058535
0.055997
0.094317
0.019932
0.059609
0.130747
0.005926
-0.021255
0.022080
0.058012
0.072719
0.068361
0.053339
0.005517
0.069306
0.063731
0.238728
0.440611
0.697731
1.031657
1.392579
1.357206
1.395869
1.060644
0.801653
0.414665
0.109699
-0.106246
-0.209895
-0.205903
-0.126033
-0.097593
-0.043766
-0.047498
0.109210
0.063844
0.012610
0.023798
0.050249
0.028912
0.094182
0.154197
0.081999
0.142718
0.105264
0.068331
0.127480
0.178195
0.073917
0.094600
0.220355
0.203955
0.157971
0.237808
0.252696
0.319355
0.229485
0.269697
0.293791
0.328299
0.297935
0.277449
0.319921
0.363489
0.406383
0.422175
0.449059
0.461258
0.520755
0.554715
0.482452
0.615078
0.529618
0.580910
0.512268
0.615383
0.560358
0.570084
0.500748
0.564993
0.678138
0.536725
0.509212
0.482080
0.465397
0.537581
0.479004
0.468367
0.475026
0.458510
0.418533
0.390153
0.418905
0.363731
0.397178
0.368222
0.365751
0.240461
0.270874
0.271118
0.220012
0.192189
0.188026
0.234678
0.134373
0.227571
0.103340
0.145994
0.156779
0.115112
0.146474
0.138644
0.077179
0.164273
0.125561
0.172770
0.136502
0.127433
0.019122
0.130635
0.103890
0.069227
0.109475
0.149900
0.097739
0.094106
0.065634
0.091718
0.068866
0.061924
0.067749
0.099191
-0.002722
0.056360
0.072427
0.123143
0.029900
0.089427
0.070569
0.067022
0.133458
0.060857
0.183062
0.156537
0.112725
0.124066
0.099142
0.074136
0.087275
0.138984
0.098498
0.075185
0.124750
0.083259
0.106856
0.142279
0.053921
0.121264
0.135792
0.108865
0.053541
0.065184
-0.004368
0.104831
0.160602
0.044304
0.053570
0.055503
0.064880
0.091439
0.070481
0.086063
0.107196
0.128349
0.173257
0.155008
0.070652
0.080564
0.029151
0.085074
0.112534
0.112377
0.013820
0.055107
0.115023
0.171489
0.121180
0.100403
0.110796
0.128618
0.169199
0.114228
0.222585
0.230647
0.239058
0.209510
0.245600
0.207800
0.241023
0.353844
0.237498
0.258951
0.236372
0.235053
0.249911
0.193008
0.244877
0.181505
0.253685
0.248401
0.223284
0.147837
0.170732
0.104200
0.201134
0.126562
0.077827
0.120519
0.143470
0.038481
0.067215
0.152415
0.159514
0.087237
0.118569
-0.003237
0.155403
0.074771
-0.032542
0.017382
0.072262
0.197111
0.046061
0.037276
0.014741
0.067762
0.075411
0.035139
0.003822
0.041921
-0.040858
0.096990
0.041421
0.190177
0.404850
0.730948
1.027246
1.216977
1.409829
1.442542
1.037229
0.894702
0.520095
0.174525
0.011557
-0.236387
-0.243450
-0.211333
-0.166280
-0.069741
0.073977
0.073169
0.021079
0.094523
0.090930
0.091101
0.064410
0.042014
0.024390
0.095499
0.113477
0.135617
0.035060
0.046699
0.097495
0.077524
0.163795
0.133380
0.212146
0.232543
0.147690
0.191198
0.156196
0.259856
0.204904
0.191543
0.190179
0.263884
0.375736
0.287022
0.392055
0.372520
0.378202
0.370718
0.443801
0.402888
0.384619
0.494154
0.474904
0.427713
0.504129
0.522366
0.498640
0.522910
0.429523
0.473955
0.579886
0.593263
0.573884
0.481242
0.548383
0.508696
0.537102
0.551856
0.464108
0.416167
0.449314
0.428756
0.353155
0.286022
0.301730
0.321500
0.318282
0.258928
0.207979
0.211759
0.162612
0.199294
0.130054
0.116217
0.100445
0.091817
0.138501
0.120982
0.084967
0.042301
0.085616
0.058114
-0.035949
-0.044331
0.109634
0.037602
0.003975
0.024211
0.006862
-0.017570
-0.023315
-0.030936
0.055888
-0.016677
0.035313
-0.034700
0.016454
-0.025745
-0.011458
0.032944
0.066110
-0.049143
0.031490
-0.009863
-0.025308
0.015596
-0.006769
0.044552
-0.003348
-0.019417
-0.004016
-0.051789
0.029147
0.003580
0.009810
0.015734
-0.061227
0.060273
0.028822
-0.008930
-0.028674
0.022265
-0.037133
-0.014586
-0.023782
0.002994
0.012513
-0.036996
0.044361
0.006300
-0.083543
-0.032558
-0.042128
-0.057819
-0.009228
0.004339
-0.086329
0.047730
-0.042331
0.018995
0.006876
0.004039
-0.011496
-0.026339
-0.029224
-0.045454
0.015812
0.052902
-0.015670
0.015315
-0.012136
-0.046294
-0.090969
-0.076555
0.007501
0.029465
0.072435
0.059347
0.001946
0.050760
0.002459
0.136012
0.087326
0.085166
-0.000680
-0.032053
0.064909
0.137124
0.088596
0.142777
0.129415
0.164926
0.128444
0.065515
0.225706
0.118010
0.085197
0.123953
0.073184
0.174305
0.079769
0.138128
0.048911
0.090570
0.070879
0.028410
0.058270
0.088850
0.012140
0.006152
0.044800
-0.015634
-0.057419
0.013350
0.022696
-0.043459
-0.054653
-0.020515
0.063521
-0.035786
-0.055069
-0.039367
-0.088118
-0.083414
-0.051807
-0.083382
-0.015108
-0.074215
-0.065560
-0.136584
-0.083988
-0.173406
-0.072091
-0.093685
-0.046316
0.192760
0.456153
0.758383
1.109802
1.280461
1.308539
1.184879
0.822255
0.489319
0.195868
-0.083756
-0.219073
-0.261809
-0.351537
-0.250430
-0.124922
-0.153424
-0.084444
-0.096024
-0.020712
-0.026529
0.000154
-0.068748
-0.000889
0.059388
-0.064667
0.062735
0.002934
-0.074585
0.050364
0.055714
0.041844
0.018042
0.082166
0.037443
0.094161
0.064912
0.067372
0.116661
0.061527
0.129868
0.187472
0.186297
0.144002
0.190434
0.271031
0.165409
0.301160
0.266207
0.315288
0.375746
0.333126
0.353877
0.360242
0.343238
0.425742
0.398365
0.419381
0.451510
0.411063
0.441218
0.484187
0.442200
0.405867
0.463497
0.419093
0.380959
0.454432
0.476551
0.354006
0.428950
0.365083
0.349679
0.326230
0.330586
0.282836
0.305580
0.338377
0.282868
0.189197
0.182869
0.140531
0.234937
0.146166
0.201090
0.142964
0.095337
0.111130
0.109638
0.076021
0.046257
0.078720
0.017973
0.026014
0.055811
-0.047496
-0.021132
0.042498
-0.082423
-0.054525
0.015239
-0.020833
0.030679
-0.041738
-0.111064
-0.065755
-0.042576
0.027223
-0.098973
-0.078705
-0.010980
-0.041875
0.011119
-0.029766
-0.062790
-0.077198
-0.037018
-0.063617
-0.036275
-0.064839
0.001292
-0.084743
-0.001678
-0.074271
0.042803
-0.005920
-0.031428
-0.052176
-0.106826
-0.105933
0.006113
-0.036450
-0.025488
0.039623
-0.065396
-0.032321
-0.061264
-0.034453
0.008128
-0.083189
-0.106095
0.018667
-0.027205
0.006348
-0.021025
-0.041353
0.042805
-0.030867
-0.029038
-0.015405
-0.029219
0.010941
-0.022374
0.017938
-0.133010
-0.043256
-0.037789
-0.062891
-0.022752
-0.099267
0.101001
-0.024518
0.046094
-0.027350
0.020746
0.037863
0.030195
0.057615
0.091259
0.078865
0.011289
0.081970
0.078424
0.077969
0.146986
0.070269
-0.024002
0.047011
0.105834
0.097332
0.117960
0.210560
0.188949
0.148007
0.127033
0.165693
0.173269
0.172736
0.134025
0.179053
0.198470
0.135752
0.057769
0.107509
0.145496
0.156922
0.145330
0.161170
0.080227
0.007988
0.110696
0.061539
0.093306
0.067388
0.115297
0.096952
0.076897
0.010008
0.034674
-0.022690
0.036293
-0.024351
0.048595
0.017630
0.099828
0.051184
0.082104
0.023706
-0.058210
0.029035
0.033230
0.058106
0.020577
0.087256
0.074124
0.048885
0.061243
0.225437
0.446424
0.819236
1.173683
1.285349
1.336381
1.312030
1.083668
0.683881
0.361827
0.112370
-0.090002
-0.247560
-0.208590
-0.169801
-0.057006
-0.112955
0.078618
0.061052
0.121071
0.015994
0.049311
0.012296
0.071935
0.047195
0.089276
0.143434
0.070230
0.018145
0.043350
0.093123
0.110151
0.093686
0.143960
0.127188
0.239325
0.208780
0.184652
0.246564
0.152895
0.231294
0.300980
0.258662
0.344204
0.385756
0.341645
0.309869
0.343532
0.336805
0.458538
0.434433
0.438473
0.436899
0.522556
0.496914
0.552412
0.545678
0.511773
0.600311
0.543453
0.588287
0.562016
0.613980
0.510209
0.526372
0.547548
0.587326
0.560177
0.521528
0.440849
0.467621
0.606691
0.474923
0.435611
0.483117
0.359174
0.319392
0.282514
0.307262
0.330916
0.233752
0.336519
0.337875
0.273685
0.214937
0.205511
0.240149
0.153265
0.267838
0.212714
0.210093
0.195685
0.154062
0.126027
0.073517
0.137237
0.150489
0.097979
0.096196
0.083186
0.100848
0.123616
0.117779
-0.002643
0.104381
0.135643
0.128503
0.124518
0.013239
0.082011
0.135924
0.113122
0.173459
0.094811
0.032885
0.077047
0.054158
0.061864
0.062043
0.064028
0.065744
0.117814
0.100667
0.119321
0.082992
0.014129
0.086235
0.068191
0.125587
0.110242
0.027053
0.072678
0.087329
0.055728
0.029137
-0.000754
-0.011460
0.100846
0.111211
0.134444
0.086435
0.084619
0.098816
0.126932
0.130287
0.079469
0.134501
0.036477
0.068548
0.123219
0.109011
0.133740
0.097302
0.075972
0.101105
0.205110
0.059048
0.077583
0.068949
0.097831
0.065725
0.010210
0.089637
0.094341
0.106525
0.119015
0.046915
0.092456
0.073069
0.183094
0.200474
0.056161
0.151588
0.132380
0.182747
0.154455
0.224772
0.217097
0.157841
0.228018
0.260875
0.296448
0.263019
0.186931
0.213460
0.327713
0.287626
0.214190
0.182181
0.220664
0.282880
0.218815
0.250484
0.220019
0.359437
0.180474
0.222980
0.187450
0.119579
0.160763
0.137163
0.153706
0.207514
0.059264
0.173798
0.078065
0.034854
0.108886
0.109029
0.091605
0.121294
0.084723
0.056740
0.068967
0.138647
0.130448
0.064374
0.090258
0.102582
0.122460
0.088396
0.110024
0.096274
-0.000486
0.002248
0.016993
0.064722
0.142092
0.464577
0.774021
1.062010
1.248581
1.500000
1.338301
1.205586
0.893724
0.407247
0.171428
-0.096445
-0.229274
-0.202689
-0.183079
-0.017602
0.003687
0.060877
0.024786
0.067909
0.086876
0.096367
0.099674
0.084214
0.084698
0.069430
0.131345
0.074794
0.117260
0.172476
0.124762
0.165222
0.111588
0.176810
0.165151
0.180640
0.218666
0.223888
0.270259
0.202924
0.296101
0.338961
0.262234
0.298503
0.257613
0.337877
0.351834
0.376035
0.381113
0.433172
0.426339
0.441385
0.491069
0.416106
0.472847
0.504695
0.482004
0.528419
0.547495
0.514773
0.565326
0.503261
0.571565
0.531727
0.505187
0.559062
0.614363
0.585888
0.511642
0.517614
0.542724
0.523461
0.467492
0.349832
0.444609
0.293179
0.296774
0.473167
0.300098
0.344599
0.305206
0.242582
0.209370
0.244212
0.177922
0.189895
0.164016
0.141648
0.158254
0.107685
0.134602
0.103017
0.163517
0.078690
0.065750
0.060311
0.087231
0.066724
0.047377
0.086798
0.019927
0.080313
0.068627
0.048568
-0.040570
0.039747
0.104624
0.028825
0.047447
0.053689
0.080174
0.105540
-0.035188
0.031305
0.061620
-0.043081
-0.034360
0.069529
0.030327
-0.006236
0.033894
0.019057
0.090055
0.091920
0.119286
0.069136
0.014431
0.041418
0.063600
0.037280
-0.019059
0.015348
0.048497
0.053907
0.011406
0.007565
0.049291
-0.001677
0.030069
0.006459
0.069850
0.040800
0.009077
0.004278
-0.010641
-0.029269
0.034039
-0.020179
-0.073344
-0.020642
0.035405
-0.018384
0.007861
-0.011820
-0.006650
-0.060545
0.040280
0.043148
-0.000757
-0.001903
0.043322
-0.057923
-0.023991
0.006332
-0.055547
-0.000069
-0.031927
-0.005157
-0.020102
-0.029712
0.063558
0.055594
0.020762
0.054083
0.023379
0.051705
0.132007
0.113804
0.189287
0.143943
0.120528
0.122563
0.126919
0.182659
0.165300
0.137214
0.109819
0.134007
0.188420
0.097440
0.156636
0.149135
0.124628
0.111455
0.114643
0.077898
0.086600
0.134945
-0.006091
0.058433
0.079196
-0.006454
0.016318
0.040473
-0.037677
0.018569
-0.057224
0.034358
-0.041268
-0.034728
0.026753
0.013111
-0.090396
-0.052115
-0.071487
-0.043385
-0.007110
-0.051573
-0.097549
-0.018632
-0.015684
-0.042568
-0.048984
-0.054695
-0.042686
-0.106209
-0.086769
0.086955
0.205525
0.572047
0.888411
1.116072
1.269223
1.326031
1.064865
0.753773
0.425931
0.121082
-0.187601
-0.372826
-0.301685
-0.230339
-0.237985
-0.219823
-0.152193
-0.061898
-0.002636
-0.151871
-0.079019
-0.091398
0.023576
0.016954
-0.111823
0.060024
-0.012852
0.010837
-0.017553
-0.053860
0.018403
-0.015970
-0.000080
-0.032295
0.037305
0.046326
0.098839
0.011479
0.034315
0.156973
0.137256
0.094019
0.184615
0.198310
0.233932
0.164894
0.203622
0.268923
0.328413
0.255347
0.317599
0.357763
0.332585
0.341197
0.410820
0.387567
0.325743
0.384371
0.380693
0.433486
0.531868
0.350354
0.384056
0.378198
0.350730
0.500208
0.423468
0.289205
0.354864
0.357346
0.346970
0.345316
0.265218
0.304898
0.290522
0.179700
0.227745
0.216761
0.219510
0.193801
0.182166
0.181152
0.133832
0.127349
0.036167
-0.019890
0.070502
0.074266
0.056395
0.032093
0.013999
-0.016152
0.054851
-0.034512
-0.035188
-0.057336
-0.116926
-0.020122
-0.052945
-0.023950
-0.098764
-0.083655
-0.087200
-0.121832
-0.037981
-0.131953
-0.079289
-0.074597
-0.087801
-0.144854
-0.083252
-0.089372
-0.000631
-0.054119
-0.029877
-0.094712
-0.068487
-0.076633
-0.098018
-0.060161
-0.182821
-0.045355
-0.116039
-0.021177
-0.092170
-0.114095
-0.109030
-0.080000
-0.143453
-0.085433
-0.099598
-0.114738
-0.046613
-0.055677
-0.001590
-0.086205
-0.049323
-0.061081
-0.093786
-0.094178
-0.075833
-0.026571
-0.008756
-0.103410
-0.091571
-0.108411
0.041777
-0.015054
-0.066220
-0.091274
-0.124552
-0.105233
-0.049628
-0.152215
-0.017033
-0.125084
-0.074950
-0.091706
-0.011186
-0.090251
-0.075775
-0.160213
-0.008213
-0.040928
-0.007926
-0.013310
-0.083978
-0.024316
0.006252
-0.001173
-0.097042
-0.024239
-0.040741
0.002290
-0.035572
-0.032358
0.059264
0.037078
0.083524
0.089220
0.100825
0.096559
0.092486
0.157567
0.064058
0.092701
0.122222
0.062804
0.145602
0.144603
0.097621
0.143188
0.102512
0.097537
0.123396
-0.019548
-0.013391
0.010837
0.029584
0.012895
-0.003686
0.021093
-0.019942
-0.002689
-0.055975
-0.012088
-0.091949
-0.049807
0.015841
-0.021707
0.010054
-0.050440
-0.070305
-0.020964
-0.092123
-0.048475
-0.078240
-0.037104
-0.079583
-0.027975
-0.121191
-0.055755
-0.151004
-0.111790
-0.080572
-0.029206
0.002856
0.177710
0.386280
0.845203
1.062483
1.273793
1.326780
1.180736
0.810568
0.579443
0.258471
-0.068355
-0.253325
-0.309971
-0.311642
-0.190145
-0.081853
-0.056221
-0.066640
0.007286
-0.020291
-0.013451
-0.094302
-0.027697
-0.181021
-0.049275
0.009131
-0.002331
-0.034508
-0.063478
0.033320
0.018833
0.004100
-0.009229
0.072487
0.009120
0.072751
0.063621
0.079891
0.071875
0.157289
0.233955
0.186448
0.195887
0.179473
0.235304
0.296583
0.266093
0.269807
0.364865
0.226328
0.318934
0.388840
0.467202
0.390221
0.365901
0.401823
0.448086
0.424399
0.504099
0.470356
0.503674
0.496018
0.497237
0.446413
0.479882
0.474577
0.455821
0.516564
0.508927
0.398581
0.433397
0.408978
0.345321
0.376327
0.393259
0.327254
0.273345
0.219807
0.264384
0.216615
0.199122
0.179896
0.170006
0.150840
0.155268
0.111217
0.143274
0.098254
0.101791
0.101258
0.087193
0.026616
0.086020
0.074904
0.106395
-0.019092
0.067497
0.121652
-0.045989
0.032854
0.085966
0.015643
0.064375
0.005035
0.020558
0.045634
-0.026385
-0.005338
0.025633
0.064220
0.062530
-0.030803
0.025746
0.008026
0.020802
-0.077444
0.009821
-0.018953
0.023110
-0.036631
0.098286
0.092676
-0.039927
-0.025647
0.039742
0.039777
-0.006841
0.075804
0.061012
-0.041257
0.048561
-0.037505
-0.006577
-0.047823
0.029643
0.032477
0.026301
-0.014202
-0.010416
-0.057381
0.047457
0.052583
0.087040
0.053918
0.059115
-0.017190
0.005837
-0.080824
0.025021
0.066068
0.086097
-0.056990
0.005089
0.007071
0.059959
-0.054415
0.081593
0.061641
0.070640
0.049844
0.044330
0.040892
0.054028
0.074454
0.046246
0.091269
0.096289
0.000047
0.030225
0.059901
0.085821
0.056974
0.098268
0.049348
0.218950
0.055818
0.107703
0.193380
0.167427
0.113619
0.226510
0.136998
0.240085
0.167865
0.216489
0.203011
0.231417
0.250851
0.148812
0.189887
0.131548
0.176044
0.123642
0.151835
0.213032
0.160148
0.166283
0.115908
0.065685
0.085136
0.141364
0.128012
-0.019845
0.083105
0.133737
0.069149
-0.043672
0.008323
0.120904
0.085779
0.084116
-0.004840
0.073135
-0.011821
0.051003
0.073644
-0.048710
0.158676
0.030786
0.094185
0.083593
-0.002745
0.046699
0.039438
-0.017652
0.063802
0.101596
0.177392
0.451130
0.747989
1.116054
1.303305
1.324122
1.279908
1.058202
0.730028
0.391603
0.013308
-0.124613
-0.128500
-0.372714
-0.192033
-0.123689
0.032539
0.039374
0.069790
0.094810
0.072060
0.085960
0.049150
-0.003148
0.022410
-0.006669
0.105089
0.085172
0.051145
0.178758
0.123490
0.164088
0.139671
0.141890
0.117460
0.180955
0.215263
0.095944
0.190582
0.226835
0.256868
0.207776
0.339406
0.249603
0.267537
0.382929
0.334374
0.432990
0.409205
0.431022
0.429467
0.383216
0.512385
0.432796
0.437886
0.475674
0.535517
0.550525
0.536620
0.571355
0.529006
0.575361
0.521480
0.573713
0.554969
0.559413
0.518661
0.534660
0.453403
0.547650
0.515935
0.498147
0.428395
0.470179
0.406692
0.428843
0.303368
0.202331
0.268771
0.265650
0.210941
0.329864
0.245661
0.220269
0.233187
0.160452
0.224462
0.202514
0.108763
0.053497
0.013705
0.139956
0.064127
0.044936
0.081134
0.102600
0.066948
0.048610
0.078317
0.036556
0.052641
0.077840
-0.011205
0.037569
0.079628
0.128165
0.046828
0.107488
0.066608
-0.034941
0.089490
0.089704
0.041933
0.059948
0.034085
0.042369
0.056320
0.017559
0.042393
0.079839
0.089555
0.026056
0.019004
-0.002634
-0.026753
0.007693
-0.002481
0.018682
0.034162
-0.011909
-0.027624
0.056144
0.032563
0.048172
-0.020871
-0.012434
-0.001251
0.018198
-0.010228
-0.033970
0.083090
0.022932
0.013069
0.027698
-0.103782
0.021312
0.009675
0.050234
0.018899
0.024022
0.041910
0.013020
-0.005425
0.031670
-0.080356
0.004488
-0.021825
0.007816
-0.047042
-0.041042
0.041085
0.013268
-0.021735
0.007241
0.104732
-0.056468
0.049470
-0.016459
0.036632
-0.015489
0.028103
0.058113
0.098183
0.054802
0.156746
0.176349
0.036714
0.153013
0.090539
0.192997
0.118901
0.099416
0.222123
0.118391
0.146621
0.190608
0.206130
0.096688
0.136808
0.125059
0.152954
0.130301
0.080914
0.065188
0.127734
0.066926
0.057754
0.027153
0.101958
0.076322
0.051589
0.059850
0.054878
-0.057343
-0.017607
0.117178
-0.024910
-0.006590
-0.024717
-0.008632
0.049464
0.027254
-0.004382
0.006763
-0.033006
-0.039458
-0.003637
0.011006
-0.093741
-0.005312
-0.099114
-0.078314
0.010396
-0.057064
-0.118677
-0.119014
0.018072
0.081256
0.310716
0.651732
0.932253
1.242342
1.372085
1.285613
1.044037
0.742642
0.374652
0.038962
-0.160999
-0.340377
-0.315509
-0.383907
-0.186876
-0.156188
-0.090588
-0.021499
-0.016188
-0.046898
-0.070924
-0.008609
-0.080604
-0.029444
-0.004906
0.010891
-0.027351
-0.030941
-0.013684
0.012983
-0.069668
0.080620
0.025647
0.040428
0.090097
-0.035459
0.112519
0.142381
0.083903
0.162185
0.176483
0.117106
0.236045
0.143170
0.225705
0.254342
0.270645
0.385768
0.212341
0.292252
0.349688
0.283425
0.258684
0.375202
0.374172
0.381896
0.367634
0.407105
0.413229
0.408955
0.406184
0.431872
0.418967
0.431957
0.475868
0.361253
0.396841
0.320308
0.417245
0.324992
0.395333
0.426428
0.325719
0.297991
0.294530
0.220221
0.250166
0.141654
0.147945
0.158545
0.170610
0.159818
0.121268
0.110705
0.095225
0.092131
0.091830
0.053157
0.097868
0.048278
-0.014047
-0.021775
-0.026392
-0.081503
-0.081283
0.022942
-0.030580
0.016060
-0.028117
-0.038095
-0.029976
-0.113694
-0.077613
-0.047109
-0.135075
-0.092325
-0.099480
-0.036843
-0.108021
-0.080035
-0.093258
-0.050027
-0.074032
-0.074718
-0.058742
-0.172998
-0.109137
-0.084737
-0.116385
-0.013207
-0.131801
-0.094141
-0.034423
-0.103838
-0.063074
-0.071107
-0.113684
-0.084462
-0.115802
-0.072414
-0.036359
-0.094769
-0.072549
-0.094356
-0.086880
-0.100315
-0.094262
-0.117743
-0.010218
0.016003
-0.110225
-0.130593
-0.093522
-0.073330
-0.101172
-0.080346
-0.023312
-0.056573
-0.127677
-0.097298
-0.129485
-0.081385
-0.046491
-0.133292
-0.125414
-0.075889
-0.121456
-0.114889
-0.193343
-0.036737
-0.047448
-0.152106
-0.065297
-0.124810
-0.037649
-0.041692
-0.080434
-0.111864
-0.101861
-0.077736
-0.041948
-0.062078
0.017046
0.058985
-0.022950
0.017819
-0.065658
0.028442
-0.051223
0.024351
0.069736
0.025599
0.043235
0.060464
0.125896
0.037816
0.038379
0.034951
-0.029970
0.114043
0.027536
0.088281
0.025290
0.034681
-0.042838
-0.016673
-0.015806
-0.064337
-0.029666
-0.022857
0.013359
-0.027102
-0.030659
0.021382
-0.099888
-0.038359
-0.062019
-0.079819
-0.122160
-0.136128
-0.013037
-0.154786
-0.087729
-0.109857
-0.071275
-0.048905
-0.084936
-0.174983
-0.015239
-0.131753
-0.106238
-0.121347
-0.049720
-0.139102
-0.098955
-0.080098
0.046008
0.158778
0.505544
0.828447
1.158382
1.287470
1.293792
1.060440
0.717723
0.469266
0.218311
-0.144134
-0.347747
-0.318519
-0.317136
-0.240748
-0.170283
-0.068226
-0.112531
-0.052222
-0.025523
-0.043414
-0.137628
-0.022480
-0.141914
-0.011231
-0.063883
-0.093179
-0.089353
-0.017363
-0.022536
-0.072367
0.004564
-0.072163
-0.049076
0.149659
0.088928
-0.006323
0.117593
0.053770
0.058060
0.132655
0.101327
0.122503
0.120299
0.216586
0.230812
0.196867
0.250720
0.342460
0.312012
0.309287
0.295155
0.336400
0.372276
0.363203
0.346579
0.419430
0.411801
0.340255
0.453315
0.449932
0.516150
0.397833
0.453368
0.396653
0.423990
0.432223
0.379522
0.354813
0.419473
0.315898
0.434389
0.365036
0.319275
0.299017
0.311462
0.282989
0.261085
0.128675
0.245549
0.186457
0.178846
0.100723
0.096777
0.156600
0.121018
0.038953
0.077938
-0.028404
0.043100
0.013957
-0.024747
-0.105736
-0.000591
0.041643
-0.001048
-0.018443
-0.039827
0.034645
-0.025674
-0.036702
0.061379
-0.073271
-0.082586
-0.067492
-0.019003
-0.024228
-0.045406
0.005244
-0.079447
-0.051637
-0.059947
-0.097045
0.028537
-0.010763
-0.038300
0.009591
-0.038082
0.078592
-0.019016
-0.005969
-0.091561
-0.096838
-0.000178
-0.001105
-0.050419
-0.117088
0.039340
-0.011634
0.015220
-0.001689
-0.100105
-0.096128
-0.081882
-0.051294
-0.044317
0.018438
-0.058789
-0.104036
-0.036640
0.025989
-0.107741
-0.029750
-0.016011
0.029755
-0.006831
-0.011056
-0.121335
-0.010323
-0.014606
-0.060968
-0.066471
-0.009309
-0.040534
-0.008261
0.050171
-0.036012
-0.029048
-0.008994
0.017788
-0.055161
0.001752
-0.033156
0.003109
-0.036342
0.089353
-0.006629
-0.024005
0.047041
0.080200
0.106004
0.074715
0.017380
0.165969
0.116857
0.079564
0.171589
0.138914
0.141933
0.177421
0.085754
0.205606
0.146641
0.236917
0.070141
0.150298
0.157991
0.174847
0.206485
0.194072
0.287428
0.243111
0.175720
0.144836
0.188043
0.084834
0.075153
0.148379
0.160401
0.084787
0.094596
0.129074
0.049390
0.026067
0.125263
0.037578
0.064995
0.090261
-0.075952
0.074428
0.052912
0.000380
-0.014459
-0.008212
0.010807
0.011373
-0.023579
0.020343
0.024142
0.061025
0.116644
0.074635
-0.037007
-0.089212
0.020042
0.014223
0.014060
0.281639
0.605395
0.782663
1.241238
1.326282
1.303595
1.217064
1.032385
0.727972
0.212702
-0.032732
-0.183623
-0.163541
-0.170318
-0.122558
-0.019907
0.032378
0.020905
0.092739
0.094150
0.053626
0.029064
0.002854
-0.025500
0.110965
0.045175
0.108917
0.072242
0.110399
0.040782
0.014165
0.075737
0.194794
0.143793
0.196094
0.234074
0.178330
0.175296
0.283221
0.195577
0.273065
0.313880
0.278038
0.244256
0.287652
0.413793
0.405953
0.335743
0.414705
0.508982
0.410555
0.489270
0.405211
0.479455
0.504294
0.432170
0.556615
0.559947
0.620009
0.565234
0.545297
0.493800
0.535983
0.480855
0.571661
0.576073
0.483591
0.486624
0.494905
0.478181
0.471908
0.480806
0.460308
0.450427
0.396896
0.356191
0.333194
0.395653
0.366240
0.306652
0.268755
0.271533
0.249916
0.257961
0.251084
0.231369
0.198880
0.175312
0.081731
0.185533
0.131964
0.171165
0.159221
0.101519
0.095794
0.062842
0.063669
0.131630
0.067795
0.027442
0.096552
0.101999
0.075785
0.077594
0.115024
0.120293
0.041298
0.097289
0.114012
0.049020
0.076199
0.015396
0.016011
0.069988
0.077352
0.042074
0.100252
0.090286
0.025691
0.052053
0.048352
0.004293
0.074202
0.030319
-0.005104
0.156367
0.067804
0.117568
0.120865
0.032654
0.110836
0.013640
0.041918
-0.019038
0.039989
0.052643
0.044334
0.015793
0.062368
0.096657
0.142079
