-0.696686
-0.288208
0.219781
-0.452713
0.498336
0.638971
0.619756
0.550872
0.479046
0.368598
-0.564331
0.139253
-0.005246
0.074934
0.296680
-0.270968
-0.117578
0.270700
-0.111440
-0.362543
0.082139
0.291115
-0.317148
0.073516
0.017635
0.729497
-0.761299
0.226078
-0.041739
0.798142
0.041131
0.200346
-0.255295
-0.174310
-0.098376
-0.080229
0.229523
0.174984
-0.010246
0.288870
0.285219
0.113594
-0.347078
0.408754
-0.147388
-0.362032
0.316412
0.228279
0.365662
0.369158
0.551492
0.403752
0.664192
-0.000675
0.619671
-0.195291
-0.383119
0.172215
-0.376992
0.107662
-0.151912
0.337885
0.065997
0.335239
1.082018
0.894737
1.195595
0.403307
0.159871
-0.153306
0.396260
0.264628
-0.432539
0.194794
-0.421002
0.377720
-0.192740
0.063564
0.511007
0.075597
0.195220
-0.031413
-0.205083
0.256071
0.473027
-0.463002
1.125112
0.071959
-0.066214
0.083935
-0.142412
0.368233
0.092479
0.372147
0.023255
0.427432
0.019735
0.411464
-0.575107
0.452781
0.017642
0.227833
0.005523
0.058209
0.519649
-0.464985
0.212591
0.349648
0.043800
0.155822
0.352341
-0.101647
0.347982
0.668222
0.708893
0.129865
0.399626
0.158140
0.183768
0.523547
0.576775
0.245406
-0.454469
0.101253
0.028734
0.070152
0.292643
-0.334952
0.284271
0.354696
-0.068940
-0.392849
0.701630
0.857214
0.243433
0.256480
0.768082
-0.150549
0.199688
-0.318362
-0.287672
0.369286
0.233957
-0.118689
0.219302
0.238940
0.444876
-0.077535
0.075900
-0.236249
0.276447
0.339851
-0.152975
0.146928
0.012580
-0.182137
0.173989
-0.231565
-0.020481
0.197973
0.054278
0.296384
-0.696061
-0.654907
-0.302852
0.497575
-0.234674
-0.198118
-0.585472
-0.074290
0.324163
-0.239648
-0.363577
0.199703
0.126767
0.005545
-0.227162
-0.023570
-0.401479
0.776344
0.028037
0.449290
0.596334
0.452204
0.408571
-0.032631
-0.512789
0.604528
-0.106740
0.119267
0.167130
-0.453918
0.344968
0.496211
0.064806
0.520703
0.083952
0.111665
0.109354
0.312273
-0.161875
0.414101
0.619289
0.375778
0.868756
0.618187
0.147982
0.330009
0.319523
-0.064275
-0.324534
0.476972
-0.116746
-0.313893
-0.308212
-0.536434
0.119653
0.561970
0.457215
0.476810
-0.403258
-0.235476
-0.476563
0.002515
-0.045740
0.185115
0.501864
0.355927
0.262766
0.627715
0.542472
0.031382
1.069088
0.660821
0.245395
-0.004644
0.082756
-0.426205
-0.321623
-0.590013
0.193345
0.556358
0.154776
0.081106
-0.453432
-0.001470
0.261334
0.263627
0.058801
-0.384009
-0.081737
0.274382
0.516769
-0.133074
0.351549
0.277913
-0.649657
0.412597
0.097484
-0.221566
0.754407
0.762393
0.340300
0.353866
0.434895
1.500000
0.015112
0.414945
0.230859
0.516584
0.466708
0.177560
0.188454
0.420689
0.133294
0.087106
0.955312
-0.499483
0.419898
0.441279
0.396254
0.472300
-0.091298
0.065481
0.682279
0.872582
-0.086169
0.170856
-0.007871
0.468371
-0.037433
0.144112
0.613480
-0.318558
0.050894
-0.090359
0.062811
0.174612
0.754831
-0.384178
0.142289
-0.421070
0.168080
0.533362
0.270425
-0.301567
0.185963
-0.387728
-0.639896
-0.001989
-0.266301
-0.377007
-0.000819
-0.067655
0.448899
0.162555
-0.436398
0.408525
0.642710
-0.411565
-0.660944
-0.234316
-0.403645
-0.110635
0.128604
0.161479
-0.268336
0.115608
-0.483120
0.535837
0.092406
-0.185522
0.055987
0.326949
-0.204520
-0.025907
0.057863
0.044489
0.280177
0.184249
-0.001017
-0.068151
0.400070
0.112794
0.316540
0.150308
-0.206682
-0.056780
-0.424457
-0.325460
-0.376776
-0.133798
0.088018
-0.049176
0.234690
0.322478
-0.763613
0.594022
-0.199753
-0.569218
-0.170908
0.441705
-0.270554
-0.646622
-0.538116
0.661769
-0.345675
-0.128132
-0.212690
-0.197123
0.183618
-0.324605
0.274409
-0.159965
-0.338303
0.375028
0.294364
-0.726275
0.162147
0.566472
0.069814
-0.074754
0.916508
-0.153339
0.080183
-0.212272
0.210753
-0.089279
-0.048612
-0.091084
-0.321809
0.242368
0.365219
-0.108924
0.710924
0.678078
0.326141
0.541251
0.803860
0.329402
-0.438501
-0.300367
-0.745657
-0.337182
-0.213899
0.300302
0.467886
0.151835
0.192639
-0.345073
0.088879
0.124476
0.324706
0.164394
0.016449
-0.304542
0.209514
0.067207
0.564240
0.306264
-0.270818
0.280041
0.126540
-0.586621
0.138118
-0.233310
0.234120
0.304378
0.199704
0.528053
0.285314
0.040425
0.681355
0.355857
0.385646
0.607582
0.633950
0.333388
0.548401
0.062789
0.240479
0.133949
0.529021
0.239486
-0.355484
0.295784
0.267648
0.583395
0.401002
0.110687
0.616192
0.791670
0.537226
0.337024
-0.162373
0.109698
-0.030692
-0.277494
0.530491
-0.227074
-0.064836
0.178904
0.080398
-0.093819
0.176190
0.102592
0.922894
-0.074138
0.679084
-0.288182
-0.254757
-0.112028
0.140881
-0.230101
-0.206538
-0.288319
-0.084385
0.260030
0.061039
0.052683
0.721975
0.440261
-0.691793
0.387235
-0.335983
-0.141757
-0.115041
0.190549
0.013455
0.113763
-0.154468
-0.220363
0.899114
0.123251
-0.026441
0.006690
-0.041197
-0.705792
0.147351
-0.282964
0.080196
0.233396
0.015538
-0.136631
0.061352
-0.117081
-0.654858
0.212652
-0.146798
-0.246964
-0.362980
0.038899
0.595862
-0.002518
-0.214406
-0.717552
0.368258
0.068263
0.523412
-0.024785
0.000663
0.349923
-0.225900
-0.528220
0.177572
0.457060
0.471466
0.024449
0.130609
-0.239685
0.187420
0.122534
-0.194058
-0.047577
0.363020
-0.169597
-0.113667
0.205786
0.621698
-0.174651
0.390990
0.323962
0.203393
-0.100672
-0.228463
0.461160
0.346065
0.373308
0.824395
0.023814
0.235787
-0.394560
0.149797
-0.193942
-0.295464
-0.109187
-0.150607
0.902226
0.356771
0.549355
0.638646
0.689592
0.577598
0.324538
0.790991
0.700799
-0.595777
0.143717
-0.062643
0.125535
-0.158017
0.522778
-0.152836
0.315554
0.509540
-0.291171
-0.317739
0.134816
0.216185
-0.017459
0.060457
-0.205034
-0.244070
-0.014608
0.268562
0.406356
0.224487
0.011759
0.082276
-0.226188
0.751625
-0.275886
-0.288972
0.224702
0.072175
0.333522
0.651696
-0.288161
1.214452
0.200415
0.388135
-0.056250
-0.474638
0.444625
0.324387
-0.568560
0.546264
0.442387
0.402067
-0.071888
0.380421
0.284555
-0.137375
0.102944
0.109357
0.010164
-0.174766
0.130928
0.646472
-0.038807
-0.031754
0.375110
-0.473933
0.046174
0.155597
0.321041
-0.217547
0.186373
-0.068486
-0.327482
-0.122800
0.419068
0.181189
-0.104800
0.596884
0.682915
0.441394
0.297672
0.332147
-0.337973
-0.004570
0.673731
0.013293
-0.403439
0.417008
0.032388
-0.029527
0.184602
-0.528316
-0.158568
-0.044371
-0.154647
0.721396
0.065697
0.084924
-0.807278
0.111062
-0.351823
-0.654056
-0.090906
-0.481767
0.634822
0.358598
0.301777
-0.143757
-0.243262
0.283061
-0.029643
0.140033
-0.546027
0.777003
-0.550465
-0.025597
0.001269
-0.267459
0.455279
0.098021
-0.027546
0.087374
0.399961
0.041231
-0.050121
-0.650447
-0.360109
-0.428996
0.410120
0.095903
0.157234
0.210263
-0.073667
-0.185754
0.174846
0.334148
0.490038
0.202165
0.081681
-0.131083
-0.299605
-0.177502
-0.047227
0.327234
0.963481
-0.184551
0.047788
0.264155
-0.159398
0.711479
-0.159071
0.438154
-0.066952
0.737191
0.015300
0.144118
0.072424
0.514306
0.332024
0.218715
0.149788
-0.005870
-0.454711
-0.500371
0.055510
-0.069140
-0.238048
0.667444
0.856435
0.521053
0.404613
0.796817
0.501173
-0.049705
0.086793
-0.359894
0.297948
0.294919
0.112057
-0.018962
0.029307
-0.141808
0.144453
0.183104
0.233929
-0.045878
-0.268810
-0.455909
0.316673
-0.005200
0.069522
0.097466
0.070250
0.169618
-0.228224
-0.372512
-0.018875
0.248259
-0.147456
0.546048
0.406548
-0.168833
0.689967
0.181374
0.499252
-0.087103
0.486369
0.767849
0.423457
-0.487243
0.609142
0.385770
0.507557
0.577406
-0.112608
0.754886
0.627308
-0.048807
0.806361
0.420161
-0.056577
-0.282477
0.329034
0.179945
0.576892
0.093448
-0.537732
0.024518
-0.032933
0.514091
0.093215
0.076265
-0.023171
0.571427
0.791922
-0.226373
-0.749942
0.565547
0.451674
-0.174879
0.069805
-0.210962
0.058231
-0.079456
0.278204
-0.141173
-0.429867
-0.315201
-0.004977
0.190692
0.378433
0.325378
-0.314094
-0.183998
0.290876
0.348759
-0.025335
0.068813
-0.175798
-0.475833
0.272093
-0.512207
0.664727
-0.059250
-0.094223
0.041980
-0.139870
-0.067099
-0.141873
-0.438645
-0.365492
-0.063489
0.047048
0.427052
-0.137597
0.258660
-0.477026
-0.202269
0.171413
-0.002850
-0.002267
0.095776
-0.428561
-0.337327
0.031251
0.280188
-0.239999
-0.380841
0.213800
-0.563811
0.578786
0.105952
-0.139803
0.478890
-0.001786
1.015839
0.712533
0.326565
-0.074713
-0.413924
-0.203863
0.311151
-0.126807
0.340637
0.000105
-0.516032
0.269937
0.340319
-0.697041
0.233637
0.364983
0.199708
0.312730
-0.150551
-0.198681
0.572370
-0.203946
0.434171
0.302661
-0.181695
0.635770
0.521554
-0.122890
-0.043200
-0.379103
0.199368
-0.446243
-0.197125
-0.084728
0.633111
0.225636
0.322031
-0.138204
0.613438
0.682109
0.991169
1.236285
-0.381268
0.075335
0.460611
-0.314436
0.038308
-0.026132
-0.118566
-0.637779
0.589326
-0.398652
-0.038650
0.338704
-0.125296
0.452729
-0.270953
0.729348
0.067959
0.823567
-0.323977
0.011730
0.730871
0.224734
0.549045
0.247777
-0.011599
-0.261491
-0.201256
0.304596
-0.161500
0.079315
0.396964
0.627860
0.522094
0.394647
0.280202
0.442465
0.540139
0.720740
0.315124
0.093417
0.759170
0.712995
0.700358
-0.324734
0.275884
0.108985
0.325122
0.444920
-0.474884
0.050143
0.156807
0.164666
0.205204
0.572353
-0.118929
-0.127771
0.779275
0.144383
-0.556124
-0.216145
0.083052
-0.747231
0.439612
0.091173
0.434822
-0.034897
0.309513
-0.091209
0.330923
0.133469
0.438227
0.369960
0.115895
-0.083900
-0.449341
0.037909
0.404446
0.481724
0.235707
0.146055
0.352395
0.071854
-0.206821
-0.661609
0.251559
0.485120
-0.109316
0.097344
0.066782
0.029900
0.133700
-0.292929
0.407950
-0.012823
0.440228
0.052441
0.037458
-0.518437
0.247145
0.288689
0.218561
0.085883
-0.565913
0.386437
0.237718
0.209242
0.008436
0.206594
0.683009
-0.752974
0.007450
-0.521847
-0.275053
-0.394220
-0.107921
0.124832
0.336340
0.352320
0.420088
0.088523
0.415989
0.058024
-0.067821
0.142732
0.327132
0.861005
0.156358
0.187527
0.191765
0.465375
0.082719
-0.197245
0.419037
0.559383
0.066772
-0.119847
0.384624
-0.017802
0.362309
-0.238379
0.164531
0.304985
0.089490
0.441849
0.002924
-0.025347
-0.032450
0.230025
0.287960
-0.250258
-0.037349
-0.305016
0.066811
-0.023154
0.059506
0.146573
-0.127429
-0.322893
0.400136
0.100452
1.121703
0.744327
0.927317
0.587146
0.295686
-0.231535
0.022930
-0.239739
0.183439
-0.092231
0.470707
0.291109
-0.048387
-0.500529
0.225657
-0.271882
-0.016905
0.095780
0.354824
-0.499711
-0.163913
0.090419
-0.414038
0.105216
-0.056916
0.956627
-0.389685
0.110397
0.365856
-0.296931
-0.128288
0.832996
0.020789
0.344163
-0.380082
0.219739
-0.192002
-0.061529
0.609352
0.517365
0.371410
-0.039512
0.468668
0.484393
-0.278439
0.750906
0.502428
0.089043
0.189577
0.765577
0.031593
0.246345
0.847142
0.044521
0.371854
0.244621
-0.199363
0.600662
0.739086
-0.265764
-0.082523
0.425129
0.457839
0.013300
-0.096563
0.240413
-0.228871
-0.514869
0.132991
0.007864
-0.094713
-0.349781
0.593709
-0.012512
-0.279828
0.056757
-0.040928
-0.249463
0.451825
-0.156009
-0.510814
-0.447079
-0.176819
-0.032826
-0.413163
0.207565
-0.523657
0.117656
0.078683
-0.555553
0.518770
-0.854183
-0.418067
0.633297
-0.015312
-0.558181
0.298179
0.558163
0.204477
0.054860
0.270853
0.358895
-0.072585
-0.030872
0.001787
-0.014638
0.243123
0.081456
0.371715
-0.245429
0.941789
0.433015
-0.576973
0.192544
0.226318
0.335236
-0.081129
-0.007376
-0.517776
0.218053
-0.312345
-0.175574
-0.018896
-0.430440
-0.128441
0.405198
0.253530
0.195794
0.182781
0.257682
-0.381851
-0.482098
-0.109751
0.245253
-0.319012
0.619485
0.566702
-0.551354
0.162820
0.069018
-0.343740
0.192802
0.144833
-0.492457
-0.134469
0.429152
0.028538
0.273154
0.454209
0.002488
-0.046558
0.156991
-0.053730
-0.262224
-0.176556
-0.211256
-0.466432
0.474186
0.196829
-0.369682
0.303936
0.290386
-0.064598
0.815789
0.452939
0.399763
0.490372
0.845474
-0.356641
0.745396
0.097997
0.333106
-0.090858
-0.107917
0.430399
0.166783
-0.060654
-0.687007
0.141431
0.220084
0.010818
0.235670
0.255448
0.490466
0.511320
0.224987
-0.907130
-0.383222
-0.366502
-0.062082
-0.156493
-0.551321
0.195759
0.543410
0.170329
0.216119
0.587855
0.570895
0.511917
0.016844
-0.278912
0.437243
0.404288
0.066996
-0.254448
-0.337021
-0.265236
-0.217183
0.446344
0.086520
0.231852
0.327426
-0.458109
-0.204938
0.735957
-0.055776
-0.171952
-0.258506
-0.153148
0.324136
0.069684
0.414504
0.178200
-0.376876
0.470829
-0.156514
0.049801
0.108903
0.353530
-0.149238
0.289001
-0.327340
-0.367098
0.064619
-0.007218
-0.175436
0.131651
0.530249
-0.245354
-0.225491
-0.084428
-0.061211
0.244153
-0.408614
0.465539
-0.361103
0.152015
-0.019280
-0.224866
-0.023829
0.262498
-0.382471
0.088186
-0.413305
0.730555
-0.059936
0.537110
-0.134353
0.129562
-0.466420
0.349180
-0.197061
0.004909
0.303278
-0.121472
0.198172
-0.178043
0.151453
0.294785
-0.596266
-0.422912
0.249507
0.218437
-0.499180
0.423536
0.305707
0.308460
-0.135797
0.446417
0.105770
0.119424
0.287546
-0.205471
-0.344869
-0.207716
0.134963
0.055619
0.072875
-0.527554
-0.594113
0.431230
0.470332
-0.160672
0.049277
-0.268838
0.343535
0.049228
-0.243449
0.030822
-0.198300
0.314268
-0.286237
0.343269
0.215512
0.234817
-0.399923
-0.115329
-0.384119
0.244728
-0.703553
-0.225646
-0.017979
-0.491669
0.402906
-0.042968
0.075948
-0.444421
0.240457
0.329961
-0.406939
-0.032720
-0.428816
0.337406
-0.141943
-0.240468
0.081186
0.147583
0.234234
0.106409
0.457566
1.126636
0.609212
0.286303
0.101558
-0.042895
0.088177
-0.455290
-0.608718
0.156436
0.140858
-0.173191
0.367643
-0.075761
0.082118
0.434910
-0.386027
0.553739
-0.551342
0.096289
0.420370
0.232992
-0.065119
0.321393
0.331981
-0.074716
-0.046338
0.082403
0.027890
-0.034517
-0.236486
-0.079126
0.905548
0.183765
0.360925
0.519158
-0.640576
0.205555
0.666972
-0.342602
0.702042
-0.308886
-0.075466
0.508177
0.471249
0.079046
0.527230
0.233697
0.737489
0.355512
0.715036
0.155080
0.424123
0.093096
0.146027
0.149877
-0.175369
-0.857181
0.066454
0.057555
-0.304076
0.272010
-0.367968
0.337399
-0.089051
-0.223274
-0.183117
0.133184
-0.111007
-0.028131
-0.021553
-0.192921
-0.386650
-0.175706
0.109712
0.014708
-0.199405
0.004355
-0.252542
0.317252
-0.130465
-0.330147
-0.566824
-0.078755
-0.449710
-0.313285
0.077534
0.283462
-0.047341
0.233240
-0.549455
-0.005771
-0.080978
0.135171
0.133411
-0.350210
-0.060386
-0.001427
0.140112
-0.583418
0.567866
-0.126446
-0.839283
-0.367924
-0.328698
-0.481909
-0.386971
-0.218622
-0.055631
-0.004494
0.769214
0.183679
-0.189762
0.169703
-0.036340
0.113668
-0.049181
0.085432
-0.124395
-0.090619
-0.333284
0.032986
0.296621
-0.075172
0.238143
0.035092
-0.369159
0.287546
-0.542728
-0.573804
0.103406
0.075450
0.241526
0.420417
0.044769
0.118378
0.544162
-0.069190
-0.116750
0.136483
0.253127
-0.078823
0.001163
-0.585056
-0.046111
0.089629
0.423685
-0.026381
0.549041
0.310602
-0.213190
0.323238
0.400278
-0.161011
0.237322
-0.117060
0.597289
-0.172566
-0.004570
0.027893
-0.573719
-0.012868
0.328341
0.157211
0.521393
0.096838
0.664389
0.119141
1.057927
0.168759
0.264355
0.043014
-0.385658
0.219163
0.422204
0.235887
0.011396
-0.187252
0.552985
-0.365266
-0.457259
0.773020
-0.212607
0.301124
0.125616
-0.122330
-0.850036
0.525815
0.000668
0.209279
-0.375352
0.612999
-0.224642
0.188569
0.706069
0.970616
0.291270
0.290218
0.175316
0.514313
0.046665
0.727719
0.376081
0.521759
0.494393
0.225131
0.214431
0.315244
0.676283
0.840346
-0.046230
0.477431
-0.077438
-0.054363
-0.244307
0.420688
0.523719
-0.315023
0.777918
0.507801
0.356834
0.288370
-0.539105
0.321682
-0.061826
-0.166994
-0.110194
-0.367075
0.431442
0.256909
0.033606
-0.024484
-0.128891
0.031077
0.363917
0.246780
0.479235
0.535744
-0.012813
-0.285233
-0.099064
-0.255473
-0.360633
-0.398857
0.206818
-0.033978
0.405816
0.114554
-0.446308
-0.453624
-0.513737
-0.153095
-0.061672
-0.148450
-0.325793
-0.396703
0.240622
-0.200425
-0.563399
0.218799
0.305683
-0.106954
0.316970
0.190389
0.061429
0.151699
-0.675473
0.004025
0.233037
-0.183020
0.112094
-0.501729
-0.347564
0.389656
0.601843
0.314712
0.205891
0.155478
0.342893
0.503223
0.557779
0.245384
0.190414
0.400760
0.257845
0.237670
-0.558330
0.641051
0.377585
-0.086320
-0.263742
-0.205967
-0.314077
0.261412
0.114493
0.356910
0.192886
0.643888
-0.172662
0.323268
0.110012
0.302330
0.208837
0.095014
0.333972
0.312736
0.235648
-0.270665
0.138148
-0.200736
-0.029965
-0.108126
0.712978
-0.232823
-0.061849
-0.035823
-0.483940
0.499445
0.234248
0.131995
-0.029247
-0.101742
0.447954
0.550288
-0.445469
0.437265
0.247551
0.200551
-0.009061
0.734641
0.494533
0.735904
0.518810
0.246655
0.342230
0.272717
-0.004938
0.004467
0.202180
-0.049715
0.313900
0.212601
-0.143945
-0.188421
-0.474940
-0.082520
0.436322
0.366048
0.006831
-0.850487
-0.459817
0.356698
0.089700
0.186901
0.315953
0.207662
-0.228844
-0.122918
0.516339
0.361878
-0.280444
0.163205
0.147453
-0.198405
0.177541
0.070454
0.191794
-0.091799
0.247113
0.057522
0.310425
0.369212
-0.075756
1.073328
-0.076527
0.010661
0.474711
-0.415911
0.279108
0.615959
0.075328
0.287274
0.431238
-0.279887
-0.217992
0.572816
0.124651
-0.088151
-0.142342
0.710880
0.054283
0.672317
-0.008523
0.119868
0.072537
-0.146691
0.045908
-0.305598
0.366099
0.289031
0.211775
-0.018153
0.285688
-0.517211
0.264882
0.259486
-0.055786
0.703624
0.346946
-0.259957
0.058464
0.032873
0.116068
-0.291384
-0.179404
0.331161
-0.091025
-0.256676
-0.036177
-0.350671
0.171769
0.605601
0.322780
-0.469503
-0.461775
-0.368937
-0.280799
-0.645783
-0.091185
0.661454
0.215330
-0.012137
0.779845
-0.134459
0.467600
-0.439238
0.289030
-0.408569
0.128825
0.840509
0.550406
0.272466
0.067503
0.506288
0.722671
0.792841
0.084102
0.451552
0.420004
0.191906
-0.167508
0.254375
0.249692
0.065837
0.145720
-0.011262
0.747603
0.382358
0.050926
-0.008786
0.096304
0.119769
0.660716
0.279194
0.354930
0.356948
-0.011533
0.188117
-0.470696
0.172408
0.089158
0.008660
-0.042041
0.445682
-0.240029
-0.227290
-0.556922
0.360123
0.189279
0.443405
-0.255491
0.520862
0.213075
-0.004623
-0.362246
0.080391
0.154421
-0.108947
-0.038755
-0.026257
-0.085064
0.476098
0.528587
-0.520531
0.465351
0.484938
0.577181
0.884624
0.056896
-0.227844
0.369586
0.187539
-0.478534
0.151017
-0.191146
-0.200327
0.413542
-0.379842
-0.272038
0.513663
0.384219
-0.083748
-0.139051
0.561675
-0.277994
-0.214307
0.585281
0.132376
0.163157
-0.390537
-0.039745
-0.301044
0.630619
0.022643
0.812595
0.411817
0.053458
0.258078
0.127706
-0.099588
-0.019034
-0.000390
0.087501
-0.067376
0.030094
0.155342
0.269603
0.115766
-0.409004
0.246865
0.072166
-0.631349
0.357600
-0.533397
0.165426
0.604918
0.398457
0.145068
0.217789
0.087797
0.215452
-0.168729
-0.316010
-0.000703
0.009002
0.196209
0.204707
0.659926
0.435720
-0.021955
0.182365
0.209725
0.558203
0.297278
0.287031
0.174468
-0.392119
-0.449275
-0.089408
0.585954
0.210755
-0.069594
-0.084707
0.440284
0.249796
0.160199
0.234389
0.279857
-0.014928
-0.483175
-0.060887
0.094908
-0.245825
-0.174417
0.196072
-0.579192
-0.055874
-0.033404
-0.224471
-0.918312
-0.377094
0.080323
-0.154544
-0.753555
-0.410464
0.901669
0.401053
0.161409
0.117703
-0.268976
0.181398
-0.167293
0.208135
-0.279533
0.408562
-0.617859
-0.518910
-0.024533
-0.120614
-0.100986
0.243510
0.375048
0.023057
0.486671
-0.204290
-0.655698
0.420601
-0.036125
-0.494475
0.014449
-0.035981
-0.427806
-0.303305
-0.862424
-0.211751
0.493969
-0.866742
-0.022531
-0.825353
0.356084
-0.350442
-0.057563
0.046589
-0.176109
0.219560
0.042191
0.023749
-0.247057
0.878603
-0.354972
0.029872
0.889421
-0.197462
0.014027
0.236241
0.338868
-0.141997
0.132587
0.091081
-0.052492
0.061701
0.102798
0.026738
-0.136311
-0.223209
0.317529
-0.077684
0.776828
0.163456
0.684508
0.575423
0.503978
0.345947
0.458961
0.159460
0.108273
0.235877
-0.124546
0.027387
-0.194011
-0.037803
0.298616
-0.343866
-0.108097
-0.007958
-0.242017
0.158737
-0.662808
-0.429664
0.127013
-0.051432
0.092207
-0.763751
-0.039122
0.162908
-0.186553
-0.360450
0.203350
-0.437302
0.094003
0.052642
-0.176767
0.517777
-0.463380
-0.251228
0.067776
-0.198612
0.601843
0.042779
0.302992
-0.394989
-0.148906
-0.388632
0.665238
0.357427
0.351709
0.323116
0.361604
0.262548
0.206626
0.368412
-0.186047
0.485491
0.158635
0.582964
-0.086077
0.526416
0.621451
-0.232572
-0.394695
0.168639
0.124897
0.595668
0.387866
-0.689024
0.385090
-0.092206
0.349262
-0.046937
-0.110354
0.313345
-0.025928
0.303029
0.072729
-0.200747
0.253594
-0.537857
0.199683
0.464917
0.382940
-0.113485
-0.716695
-0.181345
0.099057
0.294494
0.520228
-0.447760
-0.246646
0.131681
-0.282094
-0.214594
0.097655
-0.321041
-0.437413
-0.753980
-0.565229
-0.142802
-0.309995
-0.484910
-0.507400
-0.029232
0.202319
0.269133
0.159975
0.350935
0.527979
-0.314456
-0.175353
0.182233
-0.417901
0.129399
-0.256660
0.048851
0.441238
0.245111
0.285214
0.025271
0.559406
0.466180
0.202269
-0.476601
0.802646
-0.271040
0.240615
-0.150151
-0.030736
0.017311
0.371744
0.115370
0.340287
-0.659411
0.375651
-0.178927
-0.170039
0.075031
0.312746
-0.226373
0.189502
-0.589688
0.213958
0.300836
-0.161720
0.139226
-0.024554
-0.190173
-0.675603
0.030548
0.022440
0.035305
0.188680
0.710821
-0.558479
-0.021440
0.130807
-0.254258
0.027445
0.052172
0.439054
0.006955
-0.674937
-0.176042
-0.048562
0.325471
0.402524
1.046792
0.632217
0.619429
1.166508
-0.031164
0.084146
-0.367518
-0.522380
-0.036023
0.107886
-0.237234
0.327442
0.468775
0.752138
0.317437
0.126471
-0.269157
-0.402911
-0.211651
-0.297080
0.075575
-0.119671
0.223052
0.149382
0.504756
-0.317139
-0.251407
0.604261
0.006035
0.493048
0.267353
-0.074909
0.554354
0.318487
0.434686
0.323261
-0.026301
-0.027725
0.440481
0.224713
-0.070832
-0.184465
0.044403
0.425881
0.653947
-0.429560
0.156736
0.902488
0.099457
0.398835
0.366782
0.443836
-0.143017
-0.164319
0.276531
0.113686
-0.106422
0.738152
0.375677
0.090530
-0.045776
-0.040757
-0.211845
-0.216748
0.282084
0.356917
0.647747
-0.266141
0.672133
0.364682
-0.058173
-0.572498
-0.500666
-0.505196
0.251416
-0.066756
0.222242
0.073420
0.015729
0.035764
0.200108
0.410562
0.473886
-0.040954
0.003382
0.213031
-0.083734
-0.046190
-0.240314
0.106834
0.138446
-0.992031
0.272997
0.055943
0.075114
0.618511
0.051505
-0.397973
-0.428738
0.139822
-0.261965
0.140720
0.238230
0.674002
0.495126
-0.132105
0.038326
-0.166641
-0.284746
0.123767
-0.305511
-0.333718
0.232153
0.489301
-0.066987
-0.285399
0.374829
0.857654
0.040908
0.462128
-0.277344
0.435678
0.175620
0.476751
0.480001
0.054965
-0.175206
0.157748
-0.023175
-0.178031
0.442830
-0.515381
-0.192051
-0.460508
-0.159402
-0.311184
0.168133
0.317059
0.069483
-0.110513
0.435175
-0.184342
-0.323909
0.057377
-0.092052
0.358905
0.698681
0.077563
-0.199548
0.108440
0.096618
0.262950
0.145353
0.136946
0.334303
0.089962
-0.335561
0.062275
-0.085880
-0.064562
0.068867
-0.008894
0.196292
0.452417
0.955201
0.363110
0.736203
0.466946
0.543375
0.714257
0.390457
-0.185269
-0.260705
0.487380
0.114375
0.553436
-0.204282
0.169142
0.354972
0.143211
0.140023
0.105617
0.056022
-0.176125
0.246324
0.063497
0.448702
-0.141996
0.594783
0.512452
-0.469118
0.241677
0.327318
0.158652
0.208454
0.139201
0.093912
0.917991
-0.003603
-0.023998
0.154296
0.167882
0.338121
0.584231
0.089484
-0.012703
0.805404
0.166221
0.547885
-0.039949
0.378775
0.871752
0.328505
0.452418
-0.264814
0.601385
0.124301
0.379865
-0.163620
0.155311
-0.038984
0.006263
0.646407
-0.268327
0.578917
0.483691
0.499301
-0.018910
0.199097
-0.398073
0.210562
-0.334517
-0.088208
-0.604374
0.030460
0.214557
-0.084803
0.459772
-0.676329
0.273764
0.132036
0.585910
0.439028
0.506300
0.209907
-0.308447
-0.192534
-0.198346
-0.322500
-0.031556
0.181398
0.461053
-0.670736
0.402479
-0.058925
0.317710
0.109696
-0.594736
-0.114851
0.212622
-0.300780
-0.335652
0.031991
-0.298336
-0.171697
0.253522
0.222687
0.204151
0.541467
-0.152632
0.051466
-0.051908
-0.308764
0.274161
-0.214667
-0.011688
0.480368
-0.361548
-0.737354
-0.093579
0.014250
0.164817
-0.173035
0.458387
0.092632
0.305745
0.051841
0.550718
0.207206
-0.031855
-0.011774
-0.364152
0.232231
