0.108168
0.022718
-0.033837
-0.015527
0.079824
0.010735
0.027877
0.019900
0.054018
0.013300
-0.001173
0.025480
-0.006962
0.030925
0.031761
-0.022426
0.018222
0.005822
-0.044518
-0.007334
-0.044344
-0.069616
-0.049467
0.038153
-0.004008
-0.002756
0.010890
0.032334
0.024891
0.079941
-0.022739
0.063998
0.048108
0.023417
0.093753
0.111202
0.001988
0.061870
0.027931
0.053604
0.052569
0.126023
0.137964
0.175199
0.161463
0.075579
0.123784
0.183992
0.168246
0.200440
0.207645
0.181393
0.255187
0.147905
0.202898
0.230615
0.248261
0.203344
0.248898
0.234016
0.097841
0.113648
0.238261
0.109562
0.223215
0.144373
0.193250
0.137426
0.083894
0.078973
0.086144
0.099103
0.159072
0.055415
0.140952
0.065853
0.044733
0.018641
0.140473
0.085790
0.074840
0.037783
0.034078
0.064729
0.039978
0.049618
0.039821
0.088895
-0.027134
0.128265
0.135578
0.048562
0.002658
0.070382
0.055497
0.035250
0.095270
0.010481
0.021323
0.026464
0.121619
0.439038
0.687249
1.053163
1.358727
1.465806
1.463886
1.232139
0.927284
0.601377
0.240246
0.089366
-0.081890
-0.254565
-0.204014
-0.238173
-0.163199
0.061429
0.072907
0.106481
0.000750
0.087132
0.047424
0.081434
0.060304
0.018655
0.054776
-0.034111
0.042332
0.126739
0.049070
0.141444
0.088411
0.097248
0.141522
0.144170
0.095323
0.160614
0.171855
0.197676
0.146439
0.052672
0.115304
0.111300
0.268150
0.157858
0.200448
0.237526
0.205489
0.240541
0.289727
0.290472
0.268563
0.263007
0.441522
0.349249
0.301442
0.396198
0.483356
0.467466
0.468047
0.577822
0.494938
0.530203
0.510809
0.518829
0.509507
0.617323
0.629965
0.558661
0.623911
0.567794
0.640390
0.553911
0.573695
0.643501
0.598094
0.564652
0.427130
0.496342
0.502388
0.496975
0.444366
0.386764
0.419360
0.329556
0.295177
0.383474
0.437816
0.316373
0.232571
0.355820
0.266038
0.219375
0.218838
0.215971
0.165876
0.129970
0.198548
0.145986
0.173141
0.039802
0.107782
0.113052
0.113452
0.065661
0.106791
0.139351
0.085921
0.114175
0.149341
0.089179
0.131585
0.113463
0.109969
0.068760
0.069106
0.135318
0.182397
0.086326
0.117153
0.079600
0.119461
0.098655
0.078100
0.065659
0.056774
0.144437
0.009371
0.059005
0.107061
0.105035
0.096777
0.054885
0.075892
0.110784
0.078807
0.116685
0.070524
0.172676
0.119268
0.032534
0.166001
0.039302
0.080927
0.123566
0.118550
0.059313
0.099847
0.026052
0.133148
0.010403
0.066446
0.078265
0.138692
0.066831
0.000664
0.079842
0.061256
0.081527
-0.004652
0.000259
0.086989
0.038671
0.045374
0.094645
0.045088
0.046340
0.036135
0.126875
0.046758
-0.019929
0.041151
-0.022234
0.017943
0.081514
0.049332
0.090334
0.130480
0.112717
0.133029
0.024598
0.061574
-0.005796
0.109881
0.055478
0.049205
0.016102
0.077821
-0.022895
0.038536
0.011716
0.043678
0.095257
0.031855
0.097461
0.066055
0.056069
0.101705
0.110260
0.090266
0.106314
0.148345
0.086410
0.111258
0.153700
0.181888
0.170347
0.194553
0.164226
0.220711
0.226065
0.217602
0.291041
0.206317
0.222250
0.238538
0.299583
0.227285
0.226858
0.090760
0.171145
0.254253
0.256655
0.143706
0.147568
0.127413
0.090822
0.134018
0.083923
0.062692
0.073636
0.153915
0.145862
0.056422
0.054034
0.090689
0.073777
0.094799
0.048637
0.059897
0.054977
0.021051
0.061914
0.052169
0.024190
0.056353
0.008228
0.130002
0.087313
0.037472
0.094210
0.063520
0.038571
0.046576
0.050698
0.011642
-0.006480
-0.010472
-0.043747
-0.124918
-0.056702
-0.038790
0.084779
0.366585
0.613435
0.986467
1.312834
1.390438
1.326655
1.345749
1.065774
0.732090
0.229957
0.040301
-0.180279
-0.233131
-0.271353
-0.237913
-0.141416
-0.078051
-0.041797
-0.051950
0.036202
-0.009263
0.009467
-0.052682
0.014130
0.047382
0.053392
0.033505
-0.027589
0.043654
0.022585
0.170938
0.038511
-0.038510
0.099522
-0.053526
0.031159
0.070725
0.141383
0.114541
0.083919
0.123441
0.105264
0.184212
0.083061
0.076882
0.210895
0.170539
0.074081
0.209120
0.286965
0.270474
0.239651
0.239129
0.305086
0.273320
0.282308
0.368500
0.328201
0.322045
0.319862
0.372203
0.327669
0.397436
0.423931
0.515253
0.528788
0.471259
0.486890
0.519416
0.518128
0.503738
0.532799
0.487350
0.511132
0.442211
0.455744
0.450062
0.403592
0.371449
0.351086
0.370458
0.427936
0.380298
0.279535
0.301588
0.287024
0.291669
0.271491
0.257238
0.297541
0.208513
0.222329
0.191409
0.165782
0.192610
0.132358
0.121878
0.048952
0.058454
0.117545
0.112777
0.046017
0.028901
-0.069156
0.015958
-0.067514
-0.004591
-0.127177
0.019032
-0.007413
-0.049079
-0.069696
-0.009819
-0.024706
-0.040175
-0.108099
-0.038255
-0.033552
-0.106473
-0.020006
-0.022695
-0.006743
-0.064015
-0.063187
-0.068434
0.023959
-0.002270
0.065236
-0.036899
-0.056904
-0.038974
-0.069977
0.035994
-0.062006
-0.027081
-0.032410
-0.089566
-0.098913
0.003879
-0.006371
-0.025320
-0.028861
0.039103
-0.053395
-0.047126
-0.046879
-0.079372
-0.001821
-0.033720
-0.015884
-0.083083
-0.024190
0.027094
-0.043571
0.002625
-0.077054
-0.030054
-0.089026
-0.040206
0.051399
-0.040019
-0.002730
-0.046348
-0.030869
-0.021594
-0.125053
-0.039172
-0.030376
-0.019099
-0.002714
0.018748
-0.038067
-0.078140
0.025119
-0.004459
-0.008804
-0.077808
0.005743
-0.094808
-0.119000
-0.020517
0.051617
-0.010101
-0.086163
-0.072182
-0.053477
0.008001
-0.049733
-0.042442
-0.076722
-0.076847
-0.034887
-0.110676
-0.072270
-0.071870
0.030040
-0.045107
-0.018714
-0.025520
0.030328
0.018687
-0.004458
-0.013337
0.067663
0.096978
0.059174
0.092843
0.088445
0.143738
0.035641
0.016153
0.111233
0.085354
0.193789
0.125534
0.087487
0.074470
0.084990
0.192595
0.090726
0.045548
0.078413
0.081107
0.106398
0.052740
0.107493
0.083505
0.028759
0.008632
-0.041743
-0.035702
-0.000764
-0.093747
0.020948
-0.014902
-0.004890
-0.091804
-0.029122
0.013287
-0.072273
0.028574
-0.050140
-0.047224
0.055773
-0.015786
-0.049035
-0.081765
-0.112601
-0.092053
-0.041162
-0.025171
0.010819
-0.010338
0.005395
-0.082405
-0.024028
-0.001124
0.003882
-0.014430
-0.023707
-0.133195
-0.100245
-0.087584
0.193928
0.520833
0.782831
1.076212
1.368634
1.443577
1.259384
0.970461
0.634635
0.242578
0.114305
-0.196106
-0.256276
-0.296706
-0.270683
-0.223606
-0.105648
-0.109753
-0.152168
-0.050228
-0.013015
0.018612
-0.023764
-0.099878
-0.037202
0.006708
-0.016956
0.030595
0.042411
-0.014418
-0.052637
-0.026762
-0.012032
0.044705
-0.019828
0.121944
-0.022659
0.055920
0.026663
0.001348
0.129776
0.077933
0.090606
0.132815
0.078492
0.110771
0.146236
0.149391
0.156861
0.133342
0.153987
0.197177
0.219314
0.319414
0.219214
0.324428
0.276005
0.286476
0.373259
0.326912
0.406175
0.350961
0.484902
0.395895
0.393891
0.518780
0.544162
0.453632
0.513026
0.542228
0.448723
0.462185
0.448796
0.464191
0.509662
0.486538
0.433800
0.400472
0.420316
0.400876
0.374184
0.380334
0.327916
0.390616
0.320764
0.380093
0.247559
0.381658
0.290821
0.212645
0.203427
0.234671
0.157818
0.116673
0.174003
0.159700
0.110934
0.195132
0.135548
0.098106
0.106713
0.088433
0.122253
0.045406
0.083347
0.018539
0.025519
0.024036
0.020907
0.001533
-0.070920
-0.041722
-0.026458
0.020428
0.009122
0.011404
0.045161
0.003906
-0.052572
0.057857
0.036133
0.060703
0.089353
-0.025942
0.069617
0.014343
0.044168
0.016467
0.032600
0.128916
0.004454
0.036789
0.074477
-0.059421
0.129668
0.087396
0.029236
-0.016146
-0.016960
0.069001
0.047415
0.117400
0.063772
-0.014064
0.115647
0.026692
0.083329
0.029937
-0.007334
0.029762
0.072617
0.082615
0.069739
0.060848
0.053153
0.028410
0.083810
0.082913
0.059246
0.048539
0.066587
-0.016244
0.110679
0.028125
0.098643
0.071892
0.037222
0.102070
0.066302
0.073029
0.039162
0.027384
0.091018
0.029888
0.053679
0.056006
0.038693
0.052876
0.122301
0.085828
0.035522
0.008232
0.035215
0.048097
-0.020249
0.010602
0.068072
0.092377
0.067831
0.077781
0.097640
0.066962
0.168339
0.116320
0.047168
0.056417
0.121293
0.122377
0.069708
0.029709
0.102938
0.143457
0.167788
0.130990
0.165613
0.188397
0.126360
0.172102
0.176612
0.175750
0.200087
0.186371
0.208060
0.261757
0.250854
0.259976
0.299558
0.240308
0.210183
0.307438
0.262097
0.256300
0.184796
0.238717
0.211800
0.115546
0.169489
0.145219
0.153439
0.091170
0.096402
0.164175
0.149444
0.145826
0.079461
0.093868
0.144552
0.118807
0.145281
0.144399
0.085581
0.049413
0.140476
0.129602
0.130947
0.124537
0.076984
0.103162
0.043081
0.136201
0.099425
0.072551
0.042020
0.063485
0.061075
0.162019
0.068696
0.015354
0.071760
0.036663
-0.014608
0.008467
0.111914
0.240055
0.583755
0.922021
1.162837
1.338013
1.455513
1.311186
1.147119
0.791156
0.503953
0.205459
-0.060687
-0.146011
-0.328383
-0.220699
-0.170666
-0.087404
-0.047213
0.175706
0.119143
0.092262
0.097852
0.063925
0.016491
0.004600
0.085493
0.109015
0.196059
0.095758
0.143333
0.083950
0.082900
0.118473
0.146788
0.135369
0.150421
0.127047
0.165163
0.139581
0.215376
0.146006
0.166223
0.155099
0.194668
0.150283
0.174245
0.224128
0.226639
0.221823
0.299225
0.250871
0.262419
0.359987
0.348850
0.310978
0.442552
0.371977
0.425582
0.462172
0.446195
0.544293
0.516752
0.573285
0.521109
0.602447
0.571895
0.586560
0.509221
0.582882
0.496042
0.519379
0.563497
0.550305
0.538244
0.578357
0.557430
0.535879
0.518313
0.583238
0.584815
0.571438
0.496826
0.481092
0.428070
0.462327
0.394475
0.437650
0.353319
0.311952
0.378307
0.350594
0.284856
0.168030
0.279676
0.197389
0.166482
0.195437
0.226097
0.195996
0.120873
0.194492
0.217427
0.196346
0.156854
0.175495
0.059691
0.181977
0.056148
0.112477
0.086717
0.125070
0.050436
0.032896
0.092785
0.016988
0.114632
0.104990
0.126576
0.079120
0.111347
0.069216
0.135907
0.100775
0.108591
0.055128
0.065568
0.074601
0.099586
0.064593
0.022001
0.078180
0.064090
0.079122
0.029453
0.088750
0.034722
0.040178
0.052372
0.014819
0.072137
0.068489
0.191370
-0.057467
0.042210
0.014778
0.026802
0.046677
0.044385
0.097865
0.100183
0.029953
0.078928
0.035495
-0.017474
0.140166
0.065318
0.019357
0.130106
0.051697
0.043307
0.146809
0.040828
0.148722
0.094621
-0.000739
0.072586
0.038631
0.053934
0.096924
0.089973
0.005051
0.062393
0.052985
0.010201
0.024060
0.092913
0.033591
0.132023
0.089029
0.126938
0.059086
0.048479
0.065557
0.029074
0.052660
0.128341
0.035467
0.034825
0.052902
0.068721
0.037018
0.050698
0.045954
0.079486
0.045611
0.004889
0.033910
0.128310
0.098548
0.043866
0.104291
0.039132
0.081559
0.136871
0.204477
0.153585
0.145009
0.098002
0.080931
0.151182
0.197458
0.240563
0.217971
0.260825
0.279833
0.201751
0.230767
0.154788
0.246208
0.204210
0.209784
0.174171
0.117464
0.108694
0.082399
0.145873
0.089612
0.137962
0.164192
0.185818
0.131376
-0.004380
0.095418
0.041196
0.059197
0.074227
-0.027729
0.130165
0.052423
-0.010275
-0.009078
0.041632
-0.003230
0.003432
0.025087
-0.012944
0.059512
0.026994
0.005203
0.007167
-0.065455
-0.036259
0.025746
0.008875
-0.032385
0.029364
0.009048
0.006702
-0.102860
-0.026811
-0.088066
-0.027765
0.050158
0.170663
0.432090
0.643725
1.151543
1.293750
1.404130
1.323122
1.079841
0.724706
0.456598
0.178078
-0.074894
-0.287868
-0.311165
-0.300569
-0.297205
-0.128389
-0.141379
-0.058543
-0.051454
0.001897
0.000836
0.084277
0.027271
-0.046733
0.062912
-0.061450
0.054473
-0.043266
-0.008576
-0.030325
-0.002432
-0.079912
-0.029310
-0.067131
0.000398
-0.012822
-0.023950
0.059465
0.039797
0.075013
0.045831
0.114482
0.012142
0.055138
0.104348
0.093480
0.145813
0.132310
0.170911
0.148480
0.206342
0.222468
0.227490
0.248927
0.316203
0.378502
0.280994
0.326823
0.354890
0.296225
0.405239
0.322545
0.370106
0.453482
0.483038
0.424052
0.451397
0.504310
0.528686
0.413578
0.475049
0.464272
0.397316
0.458882
0.481385
0.392771
0.479171
0.377326
0.356044
0.359275
0.278740
0.340459
0.376035
0.313382
0.307652
0.319051
0.283048
0.273073
0.142714
0.220512
0.092191
0.075445
0.115092
-0.073235
0.096879
0.106905
0.146200
0.039989
0.064022
0.002625
-0.018305
-0.023451
0.040426
-0.064538
-0.051407
-0.048383
-0.028737
-0.029745
-0.045267
0.000193
-0.031753
-0.068878
-0.065739
-0.063719
-0.133542
-0.060557
-0.011677
-0.037868
-0.051958
-0.063800
-0.123731
-0.067205
-0.051936
-0.052067
-0.143929
-0.103915
-0.060594
-0.099916
-0.011138
-0.054309
0.027627
-0.070557
-0.081192
-0.114588
-0.052507
-0.077693
-0.056472
-0.040684
0.025193
-0.119777
-0.002038
-0.115925
-0.119422
-0.005156
-0.059492
-0.102655
-0.005820
-0.004681
-0.049006
-0.020556
-0.079662
-0.116540
-0.051102
-0.069947
-0.112058
-0.016864
-0.047551
-0.035917
-0.038965
-0.165925
-0.046713
-0.108001
-0.087514
-0.074099
-0.082419
-0.128728
-0.025623
-0.078678
-0.067135
-0.138473
-0.095332
-0.056226
-0.111075
-0.171258
0.018792
-0.118509
-0.085318
-0.066422
-0.107764
-0.103075
-0.095793
-0.013223
-0.108335
-0.111843
0.033705
-0.106729
-0.075833
-0.051353
-0.046716
-0.038987
-0.011742
-0.070170
-0.062521
-0.102118
-0.103979
-0.067805
-0.011134
-0.060408
-0.101171
-0.030390
-0.016301
-0.034987
0.010905
0.003475
-0.023967
0.075038
-0.007613
-0.001553
0.120048
-0.007581
0.075716
0.070705
0.028999
0.107384
0.135773
-0.000137
0.023026
0.124011
0.110492
0.145066
0.067410
0.012115
0.123175
0.046198
0.042873
0.050752
-0.054810
0.075987
0.007111
0.042488
0.007461
-0.048377
0.028451
0.002586
-0.012434
-0.031108
-0.020232
-0.146424
-0.074330
-0.053501
-0.049087
-0.072393
-0.020377
-0.109481
-0.057475
-0.073527
-0.042013
-0.091529
-0.037374
-0.106737
-0.068709
-0.075121
-0.189472
-0.145207
-0.130346
-0.030544
-0.000931
-0.094065
-0.161836
-0.101340
-0.153968
-0.058109
0.097981
0.289146
0.588044
0.926402
1.271724
1.328761
1.296296
1.013336
0.722318
0.407063
0.188511
-0.075689
-0.189172
-0.399510
-0.385241
-0.309728
-0.170834
-0.219110
-0.108395
-0.072558
-0.119129
-0.071624
-0.032949
-0.023475
-0.002056
-0.062652
-0.029524
-0.055761
-0.036670
-0.103059
-0.094588
0.016408
-0.020657
-0.101860
0.028431
0.035708
-0.041284
-0.130396
0.058765
0.081860
0.009496
-0.010198
0.052239
0.046016
0.127622
0.081424
0.129507
0.135144
0.108266
0.182018
0.096397
0.233529
0.180880
0.242487
0.212263
0.296082
0.287753
0.304858
0.305851
0.328161
0.368368
0.424084
0.420953
0.315905
0.450457
0.414191
0.483549
0.423741
0.474869
0.418528
0.443620
0.480380
0.481319
0.446270
0.435106
0.400164
0.457410
0.460085
0.421436
0.434197
0.400143
0.359219
0.324099
0.415938
0.317324
0.331365
0.216107
0.311984
0.142626
0.201466
0.177609
0.219330
0.157685
0.150467
0.097802
0.130898
0.044844
0.094061
0.171253
0.032081
0.070088
0.028872
0.044543
0.015630
-0.006020
-0.011152
-0.020619
0.021809
-0.014292
0.041066
0.018329
0.107085
0.008984
-0.018716
-0.036569
-0.071916
-0.008188
-0.099090
-0.036296
0.033458
-0.056487
0.002323
0.021228
0.016421
-0.080962
-0.035606
-0.041898
0.007690
0.023216
-0.037814
-0.017169
0.003990
0.046369
0.006408
-0.017400
-0.009694
0.010914
0.082675
0.038291
-0.022940
0.003872
-0.024403
0.001917
-0.001005
0.043295
-0.040401
-0.057303
0.079255
-0.025060
0.031003
-0.010716
-0.032321
0.064741
-0.083664
0.006750
-0.012775
-0.011768
-0.057618
-0.007689
-0.009076
0.018535
0.020730
-0.011497
-0.036460
-0.025563
-0.071312
0.092344
-0.062252
0.074900
0.060601
0.021258
0.064786
0.038669
0.025322
0.054478
0.062569
0.051750
-0.071282
-0.059262
0.013350
0.082444
-0.008764
0.101582
0.036693
0.021023
-0.009283
-0.032811
0.036334
0.138764
0.006652
0.049001
0.055434
-0.008662
0.159753
0.019010
0.063628
0.018666
0.063410
0.092305
-0.018679
0.058133
0.112128
0.104591
0.091703
0.087211
0.107164
0.201397
0.168151
0.111711
0.226344
0.198781
0.182191
0.263617
0.195937
0.177191
0.293314
0.215966
0.203973
0.191452
0.196551
0.114990
0.162255
0.211619
0.091837
0.096560
0.102508
0.052624
0.131739
0.142151
0.091018
0.048726
0.166030
0.090520
0.135186
0.045792
-0.011570
0.032637
0.060850
0.083628
0.031154
0.048953
0.043620
0.068958
0.085849
0.052485
0.003265
0.015196
0.182383
0.066214
0.061796
0.062878
0.002425
0.081458
0.039623
0.102212
0.106633
0.041771
-0.037656
0.052303
-0.007622
-0.085353
-0.032045
0.048904
0.048441
0.334156
0.650188
1.080412
1.366907
1.428686
1.381880
1.313988
0.943462
0.530198
0.303143
0.019521
-0.201726
-0.241938
-0.160470
-0.232383
-0.134329
0.011501
-0.040346
-0.014462
0.094387
0.082475
0.036947
-0.006627
0.044642
0.068401
0.082428
0.059136
-0.024502
-0.011358
0.020953
0.046262
0.077622
0.025470
0.118184
0.018585
0.099371
-0.033586
0.119101
0.081648
0.062678
0.182101
0.159163
0.092088
0.139320
0.158542
0.160189
0.285896
0.135344
0.156580
0.267462
0.276640
0.298692
0.344935
0.258785
0.373394
0.295875
0.320916
0.417287
0.426103
0.387522
0.448410
0.457069
0.455013
0.475687
0.484150
0.483822
0.518503
0.533839
0.543956
0.513532
0.522091
0.555100
0.468323
0.507651
0.547956
0.487882
0.546715
0.483685
0.458829
0.491292
0.484145
0.324834
0.487976
0.400495
0.278107
0.356670
0.270479
0.347804
0.275155
0.236720
0.315848
0.295587
0.229453
0.213255
0.166609
0.178820
0.202869
0.064132
0.193243
0.076027
0.000496
0.114615
0.079973
0.073593
0.131879
0.023621
-0.018381
0.068436
0.012378
0.041484
0.032745
0.060657
0.034258
0.123691
-0.017520
0.059944
-0.024115
0.020429
0.008420
-0.002659
0.008376
-0.067922
-0.020307
0.002218
0.013513
0.087286
-0.033021
0.056123
0.062657
0.035886
0.053265
0.018890
-0.013184
0.067866
0.019902
-0.077890
0.044279
-0.069143
-0.011986
0.007548
0.042037
0.028945
0.032156
0.008284
0.022363
-0.008156
-0.031426
-0.034493
0.028831
0.028650
0.051974
0.026178
0.081111
0.020912
0.013930
-0.019049
0.010682
-0.033996
-0.037795
-0.032821
-0.035028
-0.033776
0.012969
0.039916
0.028497
0.021187
0.019479
-0.028205
-0.034975
-0.006745
0.083739
-0.010735
-0.067301
0.035167
0.043467
-0.013886
0.042470
-0.036168
0.025601
-0.036846
0.022382
-0.019534
-0.038464
-0.000879
0.015578
-0.079531
-0.036907
-0.098411
0.019200
-0.011871
-0.035739
0.038869
-0.035171
-0.031426
0.066351
0.074426
0.065652
-0.003742
0.102279
-0.038363
-0.067209
0.039424
0.118179
0.084283
0.079166
0.040664
0.122401
0.069375
0.143470
0.057766
0.128325
0.059553
0.152165
0.165770
0.034551
0.204962
0.102827
0.118425
0.192207
0.176425
0.104631
0.080715
0.061795
0.102590
0.138442
0.120135
0.048184
0.004267
0.032100
0.053339
0.006858
-0.007662
-0.055985
-0.022376
-0.052259
-0.058206
-0.028154
-0.027074
-0.111853
0.031418
0.118174
-0.001939
0.021375
-0.054902
-0.018323
0.006005
0.035809
0.010841
-0.021415
-0.079834
-0.077200
-0.026242
-0.071881
-0.064170
-0.040722
-0.047889
-0.052883
-0.135089
-0.222885
-0.128563
-0.092930
-0.051090
0.074857
0.229399
0.579344
0.861877
1.183787
1.308479
1.415635
1.156697
0.905501
0.595037
0.204982
0.029382
-0.264888
-0.291816
-0.454608
-0.354850
-0.267796
-0.211949
-0.155994
-0.122152
-0.002722
-0.032884
-0.151199
0.035135
-0.037698
-0.114545
-0.052163
-0.104832
-0.139717
-0.034151
-0.055838
-0.042240
0.001869
-0.100491
-0.058300
0.004532
0.005268
-0.082204
-0.106090
-0.008149
-0.014673
0.054054
0.011250
0.062670
0.080177
0.020741
0.044767
0.042997
0.132226
0.055340
0.098262
0.035088
0.187231
0.125113
0.145364
0.214950
0.234635
0.326416
0.269916
0.258619
0.254155
0.311031
0.375306
0.373405
0.336611
0.458206
0.355658
0.464181
0.374460
0.484778
0.366637
0.421411
0.380359
0.447490
0.435680
0.427210
0.362339
0.345249
0.419216
0.389598
0.355308
0.407096
0.267585
0.260993
0.333372
0.310932
0.274080
0.179329
0.159787
0.129543
0.094765
0.156023
0.095826
0.077742
-0.017035
0.048895
0.033610
0.060915
0.004270
-0.007571
-0.098961
-0.045871
-0.043656
0.005501
-0.088466
-0.074019
-0.104894
-0.129442
-0.046330
-0.064213
-0.141049
-0.092870
-0.037491
-0.106427
-0.070889
-0.134867
-0.092921
-0.052321
-0.115120
-0.137086
-0.083957
-0.151898
-0.110090
-0.045246
-0.111462
-0.079826
-0.063402
-0.044894
-0.076977
-0.116950
-0.108817
-0.065029
-0.096364
-0.152016
-0.161892
-0.157220
-0.105554
-0.058824
-0.097076
-0.035134
-0.001667
-0.114543
-0.041740
-0.060974
-0.106495
-0.102344
-0.162373
-0.091534
-0.172990
-0.068518
-0.151817
-0.009484
-0.114176
-0.157254
-0.001366
-0.135062
-0.059583
-0.125391
-0.080469
-0.115996
-0.153726
-0.088682
-0.118243
-0.076043
-0.123563
-0.138186
-0.078165
-0.044111
-0.084430
-0.127591
-0.069940
-0.090441
-0.024363
-0.048695
-0.089277
-0.060204
-0.102150
-0.033877
-0.122012
-0.129030
-0.146036
-0.076337
-0.124123
-0.059329
-0.095084
-0.119621
-0.158981
-0.101442
-0.098352
-0.127282
-0.039893
-0.051718
-0.073723
-0.061272
-0.107593
-0.052729
-0.024012
-0.014274
-0.044153
-0.010398
-0.022214
-0.064482
0.001101
0.012189
0.054296
0.064960
0.001338
0.042094
0.039724
0.060740
0.038944
0.013472
0.075334
0.158037
0.073233
0.190112
0.172860
0.068721
0.101630
0.082119
0.083559
0.026656
-0.011861
0.142361
0.062631
0.084315
0.037897
-0.004397
-0.026988
-0.002819
0.061741
-0.028393
-0.000580
-0.089650
-0.064061
-0.031590
-0.071943
-0.052496
0.013343
-0.020583
-0.082017
-0.053354
-0.077603
-0.074606
-0.095548
-0.046587
-0.008765
-0.037799
-0.055381
0.008648
-0.067142
-0.012483
-0.037523
-0.028268
-0.074674
-0.098364
0.000104
-0.038389
-0.106715
-0.082230
-0.087194
-0.160261
-0.189283
0.014742
0.180014
0.559277
0.874746
1.122605
1.298021
1.359790
1.226861
0.936345
0.626335
0.202013
0.017546
-0.266120
-0.349602
-0.394006
-0.289853
-0.125656
-0.247622
-0.094041
-0.133880
-0.091388
-0.101614
-0.122241
-0.015654
0.011756
-0.035602
-0.020410
0.010929
0.038722
-0.064659
-0.041141
0.004453
0.013808
-0.046868
-0.024917
-0.109632
-0.019169
0.014507
-0.034530
-0.062626
-0.028394
0.029415
0.066134
0.002625
0.117097
0.078941
0.101900
0.087775
0.069619
0.203831
0.100496
0.152532
0.242777
0.231034
0.268213
0.275460
0.265209
0.266678
0.300014
0.362493
0.304563
0.405413
0.451445
0.460622
0.484378
0.483669
0.419940
0.472417
0.493380
0.482763
0.488099
0.590854
0.511583
0.472094
0.514273
0.527305
0.475395
0.489385
0.450745
0.385918
0.414636
0.369963
0.391166
0.359177
0.272070
0.314549
0.275784
0.319909
0.368212
0.313512
0.247610
0.208092
0.240049
0.139753
0.206746
0.209738
0.239150
0.194950
0.121621
0.078155
0.103169
0.156644
0.104520
0.110271
0.096013
0.041157
0.112368
-0.024761
-0.002796
0.025906
-0.029375
0.073055
0.039993
0.102225
0.134698
0.085944
0.004810
-0.012938
-0.036171
0.064355
0.020178
0.107007
-0.017026
-0.023757
0.057223
0.042527
0.082403
0.071828
0.068466
-0.025528
-0.031986
-0.030242
-0.014626
0.091854
0.087948
-0.001301
0.147248
0.022825
0.027423
0.028731
-0.062940
0.018790
0.067145
0.018470
0.045824
0.077350
-0.018298
0.072107
0.024233
0.081533
-0.004272
0.065454
0.025281
-0.039245
0.068000
0.092772
0.031083
-0.016790
0.102108
0.046994
-0.024315
0.021314
0.025298
-0.024142
-0.045891
0.011094
0.008950
0.038004
0.012808
0.064295
0.028370
-0.005164
-0.047475
0.043185
0.064767
-0.058141
-0.010127
0.073183
0.081414
0.091310
0.052332
0.021975
0.034417
-0.001783
0.096318
0.090585
0.041467
0.007937
0.123497
0.042307
0.021140
-0.026439
0.084331
0.000827
0.008489
0.082225
0.050676
0.126218
0.096472
0.088629
0.094690
0.131057
0.147887
0.149608
0.121177
0.163606
0.165321
0.142115
0.207092
0.200843
0.190943
0.216519
0.177338
0.232787
0.146024
0.263732
0.185437
0.133741
0.194730
0.203948
0.245427
0.275810
0.243217
0.175607
0.131966
0.202039
0.087342
0.210795
0.104853
0.164652
0.112486
0.153007
0.192895
0.184617
0.053205
0.087048
0.104833
0.139108
0.128389
0.081510
0.077465
0.139754
0.071745
0.080081
0.050326
0.032510
0.093084
0.105114
0.071725
0.057902
0.154040
0.167310
0.056347
0.067492
0.095306
0.050000
0.098241
0.136344
0.066877
-0.002984
-0.058631
0.028549
-0.003643
0.110609
0.327213
0.626562
0.907939
1.195958
1.357653
1.500000
1.281955
1.105529
0.746796
0.425260
0.248262
-0.086332
-0.216109
-0.289141
-0.195682
-0.193055
-0.089397
-0.083856
0.083610
0.022135
0.053712
0.051853
0.025852
0.030382
0.003064
0.131054
0.013339
-0.060786
0.023337
0.070475
0.092893
