-0.024442
-0.009025
0.024012
0.005859
0.040298
-0.032008
-0.032721
-0.035967
-0.025218
-0.024627
0.018809
0.075729
0.008722
0.049146
0.017985
0.033322
0.011374
0.024416
0.033659
0.085738
0.111041
0.094709
0.169749
0.137164
0.076924
0.205837
0.166298
0.270843
0.181997
0.170898
0.127759
0.242822
0.244185
0.212918
0.135362
0.233724
0.190419
0.097994
0.174745
0.137210
0.159603
0.127503
0.238796
0.145111
0.083879
0.128672
0.095480
0.035337
0.034387
0.052386
0.118966
0.065980
-0.003762
0.112972
0.052148
0.054967
-0.012610
0.071437
-0.010853
0.169573
0.335778
0.576697
0.862662
1.131333
1.383624
1.330127
1.156783
0.841491
0.474735
0.293964
-0.008921
-0.012877
-0.032693
-0.064329
0.061197
0.061332
0.102849
0.178388
0.179093
0.191959
0.182156
0.225149
0.145472
0.242851
0.223380
0.334979
0.256328
0.305966
0.346907
0.312143
0.408364
0.386919
0.491154
0.394248
0.540449
0.471095
0.496127
0.478980
0.497691
0.537321
0.580849
0.530943
0.578476
0.573673
0.588567
0.596441
0.620704
0.578643
0.612740
0.558114
0.564496
0.563401
0.424332
0.442333
0.443156
0.469699
0.418681
0.446691
0.348221
0.444190
0.379220
0.414221
0.331268
0.339232
0.250320
0.263613
0.282453
0.233966
0.232722
0.241066
0.277736
0.199623
0.244811
0.130294
0.147995
0.143199
0.114471
0.061710
0.161799
0.087962
0.045498
0.134334
0.124756
0.049750
0.122764
0.096223
0.051051
0.003301
0.033074
-0.015694
0.021601
0.050725
0.078983
0.149404
0.090667
0.151006
0.066863
-0.001729
0.067446
0.064960
0.071760
0.027286
-0.024562
0.116411
0.028765
0.066373
0.096545
0.103759
0.072560
0.098172
0.084223
0.071438
0.101266
0.081656
0.115602
0.121167
0.139034
0.052454
0.168856
0.144751
0.241671
0.210275
0.235028
0.122570
0.173888
0.185758
0.198227
0.231100
0.214533
0.267098
0.248852
0.304534
0.366980
0.218944
0.265994
0.250144
0.259437
0.278257
0.264980
0.250357
0.257576
0.159412
0.224816
0.178381
0.266922
0.211697
0.184822
0.118658
0.149061
0.123114
0.112550
0.090074
0.142249
0.123136
0.178125
0.142710
0.114276
0.027999
0.108234
0.059171
0.306094
0.325468
0.564310
0.721494
1.156955
1.405842
1.500000
1.314281
1.004288
0.612930
0.288810
0.125871
-0.056558
-0.009833
0.047495
0.037147
0.085545
0.173762
0.155209
0.128439
0.170512
0.218447
0.254311
0.225290
0.234651
0.243106
0.172778
0.341398
0.428517
0.273206
0.425037
0.399095
0.441313
0.451032
0.453173
0.394130
0.570954
0.466373
0.590305
0.544508
0.576055
0.585988
0.632613
0.639046
0.677300
0.599286
0.569696
0.627166
0.610913
0.655693
0.550273
0.605406
0.621887
0.433499
0.546841
0.442600
0.363136
0.396723
0.436465
0.452309
0.485862
0.343292
0.330814
0.325569
0.343112
0.341601
0.392425
0.211715
0.224282
0.223831
0.237989
0.234759
0.269888
0.212822
0.154230
0.262205
0.191916
0.119084
0.140208
0.225649
0.146672
0.136290
0.125602
0.112687
0.133035
0.089325
0.058877
0.051283
0.015829
0.100281
0.040289
0.100247
0.026571
0.012991
0.080826
-0.051423
0.057626
0.106687
0.055588
0.066864
0.099047
0.064628
0.042949
0.085027
0.068136
0.042573
0.093851
0.131392
0.052336
0.070382
0.075386
0.115545
0.069977
0.109531
0.018418
0.187497
0.111938
0.110600
0.060874
0.044799
0.070261
0.127950
0.131101
0.125736
0.105778
0.073025
0.166603
0.184142
0.255070
0.223454
0.080801
0.216326
0.107984
0.160455
0.097552
0.276305
0.237036
0.217526
0.203014
0.234899
0.168635
0.191809
0.163016
0.092105
0.248147
0.195646
0.107489
0.105811
0.151895
0.035003
0.065142
0.098741
0.081164
0.030828
0.032924
-0.032173
0.063461
-0.139894
0.052218
0.084324
0.048412
0.167391
0.233725
0.361959
0.609535
0.917346
1.183101
1.352227
1.297448
0.976121
0.674630
0.283244
0.037470
-0.110674
-0.143673
-0.096946
0.019069
0.053719
-0.000354
0.023024
0.089355
0.125641
0.104502
0.142699
0.133121
0.142205
0.130225
0.260082
0.222558
0.245341
0.208561
0.357803
0.346932
0.292157
0.371934
0.402980
0.388484
0.406086
0.435505
0.499168
0.463491
0.528529
0.479769
0.464765
0.566097
0.470696
0.555842
0.552573
0.476625
0.485445
0.550616
0.446692
0.437045
0.424070
0.481490
0.409980
0.387407
0.417601
0.354648
0.372355
0.329848
0.392576
0.262465
0.227620
0.301985
0.232931
0.197543
0.257862
0.174520
0.169773
0.132445
0.167823
0.163572
0.092142
0.145982
0.108938
0.117175
0.077471
0.096003
-0.040395
0.081021
0.025386
0.012954
0.032757
0.013443
0.005529
0.039523
0.031408
0.081457
-0.002573
-0.104187
-0.131066
-0.059158
-0.068464
-0.076988
-0.022425
-0.072814
-0.051033
-0.068936
-0.047466
-0.050519
-0.029814
0.028843
-0.014203
-0.008950
-0.033523
0.054886
-0.079225
0.033732
0.031712
0.001646
0.005754
-0.039628
-0.084238
-0.036048
-0.006615
-0.059258
0.013635
-0.032209
0.013908
0.023969
-0.018264
0.058033
0.039444
0.095601
0.093128
0.055140
-0.004174
0.108601
0.091209
0.112761
0.159738
0.108793
0.148951
0.210890
0.148567
0.119270
0.152594
0.186187
0.109355
0.125610
0.073856
0.122693
0.035932
0.074670
0.074104
0.035091
0.056519
0.008918
0.046111
0.002238
0.004644
-0.052844
-0.030265
-0.060621
0.012134
-0.037423
0.042391
-0.036469
-0.038776
-0.092379
-0.012223
0.100778
0.102841
0.266616
0.526670
0.807423
1.198305
1.235546
1.266139
0.999922
0.723696
0.487666
0.051146
-0.101053
-0.161951
-0.219044
-0.028464
-0.028440
0.027109
-0.036895
-0.035959
0.025249
0.094650
0.111382
0.079192
0.042436
0.129745
0.199136
0.202884
0.240028
0.225093
0.143578
0.289601
0.289430
0.255827
0.304098
0.339960
0.326888
0.371789
0.384771
0.425186
0.369844
0.369233
0.401167
0.454947
0.471766
0.500624
0.424111
0.559929
0.502450
0.447852
0.531415
0.508417
0.482439
0.421131
0.441909
0.444388
0.395087
0.381993
0.347346
0.285145
0.287832
0.233054
0.237569
0.182712
0.201683
0.214585
0.275160
0.105137
0.155179
0.167578
0.102851
0.032978
0.167195
0.032693
0.044331
0.039587
0.062492
0.017419
0.017078
0.032417
0.059712
-0.055555
-0.064888
-0.003070
0.009028
-0.033314
0.035156
-0.014405
-0.031018
0.002014
-0.044047
0.003462
-0.031832
-0.032400
-0.051991
0.024010
-0.072381
-0.026499
0.005096
-0.193267
-0.116984
-0.009611
-0.035586
-0.084310
-0.078871
0.011532
-0.062484
-0.018977
0.019951
0.025716
0.017985
0.032553
0.014327
-0.022197
-0.000704
-0.057872
0.040588
-0.022349
-0.007254
0.027850
0.085777
0.038579
0.002668
0.101177
0.082370
0.032550
0.091413
0.125378
0.152287
0.100663
0.187968
0.197478
0.178601
0.131617
0.103116
0.169010
0.079134
0.162702
0.249491
0.161936
0.136112
0.087137
0.130371
0.024740
0.072677
0.060844
0.098238
0.063920
0.012054
0.077415
0.146700
0.102204
-0.057917
0.008674
0.016387
-0.019208
0.009041
0.006100
0.024182
0.019683
0.058300
0.033518
0.137167
0.214372
0.533379
0.783940
1.065131
1.257866
1.337246
1.161154
0.900939
0.507161
0.085076
-0.068130
-0.101055
-0.077158
0.034546
-0.031427
0.089296
0.059436
0.006591
0.109480
0.154821
0.169633
0.186218
0.158818
0.205564
0.267479
0.191993
0.233094
0.200627
0.354753
0.334558
0.264838
0.386585
0.392921
0.351980
0.388609
0.350480
0.484874
0.437594
0.501219
0.427158
0.545189
0.430468
0.484945
0.526260
0.591888
0.584847
0.477045
0.529182
0.543534
0.564901
0.437642
0.602347
0.486468
0.499219
0.432035
0.388160
0.441102
0.418140
0.310161
0.350031
0.401517
0.328866
0.296637
0.305068
0.259562
0.247585
0.147899
0.153852
0.257219
0.137050
0.094824
0.205742
0.137330
0.126200
0.176452
0.131842
0.098269
0.138107
0.044063
0.130298
0.062806
0.078783
0.047956
0.081469
0.064963
0.081044
0.078784
0.040908
0.082484
0.171749
0.065528
0.057880
0.044616
0.027840
0.031542
0.054688
0.031287
0.029649
0.094419
0.101927
-0.055465
0.048612
0.152633
0.108745
0.016878
0.118647
0.057601
0.042935
0.064975
0.046642
-0.013927
0.114394
0.074447
0.059946
0.073740
0.134799
0.068453
0.185462
0.099436
0.144190
0.100627
0.080749
0.085646
0.135178
0.306884
0.260480
0.214016
0.250488
0.249072
0.235040
0.180972
0.263935
0.240709
0.198600
0.176368
0.255722
0.263543
0.269269
0.211495
0.203527
0.274734
0.255826
0.335062
0.200221
0.198435
0.151705
0.177803
0.106099
0.124109
0.192288
0.144759
0.136857
0.135668
0.037439
0.084234
0.065353
0.149149
0.041399
0.132007
0.143452
0.146038
0.262251
0.461823
0.793216
0.996614
1.264484
1.361882
1.325311
1.094633
0.688793
0.304690
0.150397
-0.058479
0.036325
0.037564
0.067546
0.153737
0.121332
0.070582
0.163272
0.195521
0.159973
0.174541
0.246000
0.184127
0.332758
0.288200
0.289495
0.434574
0.274789
0.381654
0.344147
0.332610
0.394602
0.464133
0.444931
0.527353
0.497851
0.605449
0.619376
0.501232
0.496967
0.543546
0.674792
0.637855
0.701554
0.609890
0.674818
0.527687
0.610463
0.623852
0.573939
0.552859
0.595382
0.535542
0.540849
0.551858
0.544582
0.511446
0.428309
0.384319
0.404829
0.367853
0.404343
0.337272
0.202871
0.304008
0.193475
0.296174
0.217144
0.342240
0.208672
0.230686
0.243350
0.161162
0.260910
0.190432
0.163486
0.140381
0.222441
0.124101
0.137912
0.126282
0.093662
0.109096
0.106827
0.104689
0.125010
0.105990
0.068598
0.097519
0.110952
0.111195
0.120086
0.098668
0.149796
0.108329
0.112611
0.083382
0.094321
0.016263
0.051294
0.102629
0.129362
0.085530
0.117158
0.167750
0.134572
0.143923
0.103346
0.125053
0.013691
0.179238
0.112549
0.145868
0.118109
0.126922
0.156785
0.099857
0.067964
0.214015
0.103532
0.148260
0.081433
0.184503
0.114958
0.283333
0.176931
0.236983
0.207321
0.277747
0.187601
0.301012
0.300850
0.268774
0.309441
0.264831
0.396160
0.319209
0.223297
0.245793
0.284986
0.267238
0.248564
0.165815
0.215160
0.163017
0.209643
0.144343
0.137605
0.118627
0.157654
0.126034
0.112187
0.089678
0.093479
0.030790
0.091570
0.076651
0.039875
0.062267
0.177980
0.310266
0.437900
0.657861
0.979471
1.279841
1.399860
1.288396
1.146754
0.818213
0.405624
0.130215
0.013429
-0.089322
0.004331
-0.011106
0.090433
0.155340
0.099715
0.171351
0.213634
0.231597
0.199044
0.174480
0.184255
0.216301
0.274988
0.292762
0.292431
0.295328
0.394919
0.360329
0.437479
0.339249
0.426991
0.498842
0.446901
0.556366
0.528058
0.471418
0.501710
0.576209
0.422373
0.578093
0.568843
0.517133
0.616041
0.626196
0.616650
0.562119
0.463142
0.564683
0.537533
0.585000
0.534814
0.471081
0.485712
0.433536
0.557148
0.365551
0.348706
0.360579
0.233519
0.386778
0.308724
0.226141
0.384836
0.253515
0.173437
0.193928
0.239501
0.102393
0.211263
0.207998
0.171152
0.160442
0.064050
0.099736
0.044940
0.073671
-0.050864
0.083809
0.121742
0.111647
0.083454
0.099577
0.036167
0.068472
-0.003620
0.054939
-0.015078
0.123158
0.012710
0.035810
0.051874
0.049641
0.031778
0.031201
-0.042561
0.121532
0.001220
-0.033712
0.052767
0.011033
0.009747
0.008121
0.008879
-0.009725
0.026917
-0.014747
0.030742
0.049139
0.051955
-0.035245
-0.022216
0.092394
0.031555
0.033342
0.052814
0.038148
0.050617
0.051110
0.018993
0.099356
0.044702
0.156233
0.145257
0.050466
0.054300
0.172670
0.188258
0.136243
0.204035
0.194109
0.126836
0.121687
0.156776
0.137552
0.216907
0.066687
0.167438
0.155579
0.047293
0.159044
0.092161
0.063648
0.108372
0.052275
0.066231
0.008869
0.000207
0.089061
0.023524
0.022605
-0.041012
-0.054917
0.004889
-0.026175
0.010214
-0.003662
0.041896
0.074130
0.105090
0.282908
0.572189
0.770535
1.011497
1.242136
1.271220
1.105200
0.775385
0.424883
0.128254
-0.054727
-0.143125
-0.217022
-0.077923
0.031389
-0.022886
0.058088
0.046727
0.157930
0.018379
0.097156
0.148787
0.109610
0.139422
0.097426
0.115271
0.252004
0.192938
0.283610
0.191584
0.317276
0.287547
0.342942
0.345072
0.370416
0.401747
0.400807
0.433512
0.548239
0.348163
0.448817
0.485607
0.449985
0.444086
0.473676
0.540565
0.446485
0.457443
0.490285
0.554892
0.419581
0.392935
0.429017
0.398489
0.394580
0.358350
0.393005
0.316774
0.230571
0.360966
0.267919
0.302084
0.235579
0.251561
0.084520
0.179798
0.154437
0.191448
0.050149
0.048476
0.106379
0.028039
0.056090
0.074955
-0.016794
0.032732
0.027483
0.011520
0.020600
-0.049184
-0.020904
-0.022817
-0.081531
-0.066194
0.013309
-0.103252
-0.036568
-0.016916
-0.113393
-0.053011
-0.071509
-0.040109
-0.144198
-0.083961
-0.155751
-0.036050
-0.043766
-0.070413
-0.078194
-0.103260
-0.078492
0.020125
-0.074731
-0.115062
-0.031213
-0.111188
-0.057152
-0.013329
-0.065823
-0.027220
-0.025167
-0.013111
-0.113755
-0.089875
-0.136531
-0.075746
-0.051892
0.047352
0.034711
-0.033946
0.024176
-0.011696
-0.136146
0.112284
0.078533
0.018873
0.071133
0.030244
0.093914
0.074340
0.082423
0.098774
0.080655
0.153882
0.138405
0.092707
0.065417
0.152683
0.181112
0.012645
0.037058
-0.017055
0.031028
-0.015749
-0.024530
0.026271
0.052005
0.033905
-0.055671
-0.038414
-0.027919
-0.066708
-0.049527
0.004207
-0.051991
-0.033540
-0.094610
-0.099136
-0.163988
-0.011728
0.066968
0.121913
0.426795
0.564644
0.980680
1.240206
1.273058
1.078406
0.872266
0.474566
0.155364
-0.081660
-0.226315
-0.261101
-0.143311
-0.125822
-0.097485
-0.067487
-0.102693
-0.040373
0.036819
0.020761
0.038430
0.109482
-0.004147
0.005330
0.054957
0.153948
0.164105
0.201643
0.255653
0.169778
0.270884
0.238310
0.272361
0.361519
0.271682
0.319064
0.346764
0.395080
0.368905
0.402952
0.362241
0.402292
0.437955
0.408948
0.475273
0.433764
0.436577
0.432331
0.461969
0.452237
0.457290
0.381251
0.418889
0.297300
0.344859
0.288422
0.341767
0.197630
0.176346
0.264807
0.191352
0.125334
0.152678
0.185969
0.149855
0.161632
0.127348
0.061300
0.137402
0.092281
0.084390
0.153223
0.049340
0.045742
-0.110902
0.028314
-0.019353
-0.069257
0.015385
-0.057453
0.021734
-0.056870
0.030172
-0.065101
-0.024504
-0.036541
-0.033518
-0.046143
-0.045309
-0.040566
-0.077062
-0.070953
0.020677
-0.012292
-0.032166
-0.096190
-0.038184
-0.079138
0.001999
-0.054336
0.017546
-0.088090
-0.065649
-0.013363
-0.124743
-0.123360
-0.136859
-0.126119
-0.102830
-0.062106
0.070440
-0.018815
-0.039726
-0.071991
-0.020758
0.002657
0.018165
0.008147
0.091392
0.097172
0.047322
0.052959
0.064850
0.034655
0.094035
0.099370
0.063417
0.092441
0.169989
0.107270
0.103175
0.159590
0.202867
0.118262
0.118083
0.150524
0.160610
0.110235
0.191355
0.128873
0.093135
0.111121
0.051880
0.074533
0.054461
0.062862
0.091412
0.067591
0.027740
0.069622
0.007056
-0.013916
0.017790
-0.017279
0.019911
-0.008717
-0.022101
-0.059680
-0.006927
0.057568
0.202239
0.268670
0.684852
0.886994
1.155264
1.329724
1.193938
0.919094
0.595970
0.245568
-0.006261
-0.015465
-0.174988
-0.139315
-0.062635
0.017636
0.045688
0.074924
0.124525
0.087367
0.064004
0.111040
0.198909
0.251096
0.203047
0.186352
0.191125
0.223980
0.233117
0.276663
0.321469
0.327394
0.334211
0.352165
0.440518
0.418240
0.310820
0.378500
0.417475
0.477471
0.441670
0.494332
0.534235
0.483977
0.517684
0.494642
0.553865
0.571095
0.447962
0.478406
0.544870
0.529895
0.553889
0.494476
0.473005
0.381349
0.465528
0.428787
0.424922
0.398854
0.225573
0.325059
0.350236
0.313028
0.236883
0.280313
0.187261
0.140339
0.194526
0.139225
0.146321
0.050711
0.084778
0.168471
0.155384
0.074991
0.039087
0.049942
0.143133
0.010250
0.142597
0.013080
0.134402
0.047550
-0.032939
-0.063448
0.005739
0.097307
0.052553
0.013700
-0.013172
0.077430
0.004160
0.063256
0.004861
0.004422
0.079191
0.028766
-0.040818
0.012282
-0.000232
-0.031756
0.037080
-0.053759
0.021389
0.063631
-0.023057
0.010734
0.010792
0.082095
0.062186
-0.002237
0.064774
0.032966
0.078675
-0.064869
0.073020
0.031825
0.018520
0.044492
0.036053
0.157674
0.180943
0.126629
0.124186
0.138346
0.096398
0.102022
0.231823
0.193660
0.209253
0.161521
0.207453
0.204314
0.258400
0.155372
0.231349
0.154974
0.197442
0.263428
0.200561
0.128744
0.155650
0.134976
0.243525
0.222044
0.166515
0.097344
0.100406
0.092695
0.094662
0.029687
0.149653
0.055879
0.099253
0.184404
0.069011
0.067871
0.012568
0.099551
0.163405
0.232942
0.289351
0.660290
0.838030
1.175609
1.474192
1.380749
1.103200
0.871277
0.403644
0.223076
-0.004255
-0.110010
-0.092165
-0.016519
0.059010
0.106490
0.171140
0.142243
0.153579
0.132329
0.226116
0.154733
0.171864
0.288658
0.247366
0.234063
0.321230
0.328895
0.336996
0.388877
0.361875
0.415557
0.268212
0.474968
0.481507
0.470164
0.422075
0.529768
0.559516
0.526890
0.486697
0.571492
0.528966
0.515679
0.589087
0.541552
0.525796
0.588036
0.597556
0.524346
0.462384
0.503561
0.474296
0.544842
0.420234
0.478404
0.467728
0.451797
0.414420
0.335075
0.347892
0.311628
0.353104
0.257545
0.202475
0.223293
0.223857
0.285251
0.173102
0.191105
0.116008
0.076079
0.208771
0.222487
0.167120
0.150714
-0.005201
-0.023608
-0.001569
0.160714
0.074726
0.022531
0.069300
0.031455
0.096060
0.017136
0.096547
0.022529
0.062650
0.046362
0.116086
0.050092
0.137588
0.018523
0.050583
0.070600
0.003825
0.009481
-0.006291
0.020327
0.092696
0.005761
0.027238
0.106532
0.085960
0.102841
0.003453
0.053499
-0.016029
0.105159
0.015913
0.076644
0.033929
0.049592
0.046643
0.075843
0.042648
0.112080
0.006160
0.094705
0.116633
0.093300
0.093341
0.105005
0.156814
0.226287
0.104184
0.209166
0.151270
0.148039
0.178248
0.153658
0.202326
0.252450
0.224365
0.192662
0.272775
0.213675
0.154295
0.214010
0.081823
0.142782
0.129961
0.021527
0.043476
0.070318
0.139327
0.002187
0.092087
0.012734
0.093296
0.031289
0.056310
0.005431
-0.008506
-0.025906
0.050489
0.053795
0.054355
0.060011
0.076960
0.297889
0.434932
0.738880
1.124132
1.233729
1.369761
1.176709
0.837340
0.500952
0.204217
-0.084255
-0.037422
-0.074783
0.016246
-0.043925
-0.019545
0.058128
-0.016691
0.166940
0.040707
0.077491
0.118217
0.183620
0.196478
0.221378
0.190300
0.297909
0.213689
0.247432
0.222292
0.317519
0.285435
0.285299
0.351241
0.363151
0.396284
0.436102
0.373581
0.506672
0.422433
0.502237
0.551380
0.469380
0.535997
0.548101
0.555940
0.573911
0.477342
0.456519
0.542725
0.508200
0.479168
0.451723
0.436253
0.408784
0.246538
0.388752
0.360427
0.304359
0.249030
0.312189
0.258147
0.300745
0.208417
0.192173
0.197763
0.175410
0.224104
0.061616
0.139693
0.047591
0.183958
0.074462
0.072751
0.034891
0.045647
-0.006474
-0.024084
-0.059122
-0.045685
0.011870
-0.014687
0.015238
-0.042159
-0.038194
-0.121890
-0.094194
-0.016952
-0.014277
0.044924
-0.067958
-0.045317
-0.027538
0.104879
-0.071369
-0.122616
-0.018549
-0.115499
-0.088524
-0.068034
0.042463
-0.062651
-0.079111
-0.089754
-0.093204
-0.166371
-0.042205
-0.111647
-0.033593
-0.048570
-0.099131
0.010457
-0.120666
-0.062675
-0.050484
-0.045865
-0.005948
-0.106486
0.057308
-0.012170
0.027386
0.120728
0.044927
0.063052
-0.027757
-0.033555
0.125578
0.051996
0.067048
0.103455
0.109446
0.080504
0.113824
0.157235
0.121728
0.088413
0.054094
0.103661
0.066171
0.039579
0.093722
0.030375
0.037813
0.011496
0.016188
0.052043
-0.019885
-0.010845
0.025594
-0.053805
-0.024156
-0.054045
-0.062834
-0.110464
-0.102119
-0.020107
-0.046595
-0.030294
-0.041395
-0.025361
0.000561
0.139918
0.321507
0.498005
0.796207
1.192882
1.259384
1.184681
0.959230
0.450340
0.208119
-0.089530
-0.197550
-0.214171
-0.179526
-0.074007
0.000224
-0.060259
-0.084632
0.041694
-0.015938
0.114881
0.053351
0.055882
0.104795
0.026531
0.134925
0.132174
0.207071
0.170206
0.172938
0.221346
0.227572
0.246151
0.282981
0.327142
0.349260
0.332902
0.282519
0.357554
0.350688
0.347559
0.440598
0.439992
0.444189
0.421236
0.389213
0.453123
0.453248
0.423267
0.392717
0.309540
0.440424
0.395963
0.320862
0.441345
0.389382
0.292732
0.273268
0.230789
0.275170
0.229234
0.150342
0.142354
0.173810
0.129538
0.158172
0.116357
0.103546
0.019480
0.097691
0.017112
0.063727
-0.008039
-0.021603
0.027477
-0.049529
-0.077351
0.026100
-0.064869
-0.122623
-0.068943
-0.064667
-0.080834
-0.018019
-0.103530
-0.124000
-0.113366
-0.116834
-0.111299
-0.118722
-0.047388
-0.097223
-0.085475
-0.083648
-0.117754
-0.093798
-0.058532
-0.189597
-0.125041
-0.159804
-0.061469
-0.114324
-0.073383
-0.074590
-0.071474
-0.063806
-0.118751
-0.110119
-0.121565
-0.108109
-0.026783
-0.087186
-0.030383
-0.072564
-0.020794
-0.068053
0.009788
-0.030807
0.018097
-0.043748
-0.017611
-0.017589
-0.057615
0.055837
0.028869
0.016242
-0.013804
0.080846
0.052229
0.096989
0.110362
0.106628
0.097225
0.113991
0.089012
0.012087
0.007314
0.139064
0.069281
0.019873
0.075386
0.010332
-0.078936
-0.048031
0.031363
0.044123
0.001165
0.051258
-0.030641
-0.012684
-0.089504
-0.107884
-0.039953
-0.024066
-0.026333
-0.072226
-0.086701
-0.082102
-0.073274
-0.042084
-0.035691
0.024262
0.224892
0.444134
0.864401
1.042543
1.189084
1.189773
0.923512
0.629801
0.227146
-0.044677
-0.221125
-0.230882
-0.178184
-0.136433
-0.047707
-0.021536
0.019891
0.081495
0.036268
0.072595
0.076536
0.093676
0.120832
0.101008
0.144746
0.145784
0.158505
0.206687
0.252559
0.209995
0.194188
0.231667
0.212450
0.326313
0.384138
0.342756
0.363441
0.418553
0.296318
0.382627
0.419590
0.495668
0.472895
0.427312
0.421371
0.414662
0.442935
0.414832
0.449293
0.425059
0.474392
0.381123
0.376624
0.372804
0.351106
0.385049
0.305106
0.324506
0.241884
0.342155
0.328462
0.233639
0.161747
0.244188
0.185630
0.173860
0.180331
0.149787
0.133839
0.157027
0.113725
0.037733
0.062745
-0.047916
0.019572
-0.026560
0.003771
0.027315
0.006923
-0.015587
0.104482
0.005683
0.031316
0.027007
0.009927
-0.085282
-0.151205
-0.071631
-0.057186
0.124047
0.011259
0.047030
-0.001463
-0.012061
-0.060039
-0.016632
-0.063832
-0.019052
-0.064724
0.004931
0.038846
-0.011326
-0.072456
0.021033
-0.068252
0.028707
-0.003175
0.000191
-0.041362
-0.030882
-0.009239
-0.035834
0.007828
-0.007407
0.050166
0.036209
-0.045297
0.028397
0.090687
0.057171
0.082142
0.052462
0.050572
0.101729
0.108813
0.139097
0.215862
0.117639
0.121312
0.172188
0.064698
0.138274
0.072596
0.130403
0.149191
0.166625
0.305692
0.183400
0.144151
0.217531
0.168304
0.205850
0.114817
0.129017
0.133740
0.074441
0.137520
0.076811
0.012920
0.014978
0.108988
0.001898
-0.052787
0.001487
0.031735
0.079571
0.068569
-0.005556
0.102177
0.097943
0.177764
0.254086
0.553217
0.794187
1.151960
1.274702
1.365468
1.132178
0.863790
0.428250
0.188826
-0.050653
-0.138765
-0.126225
0.035350
0.101812
0.082539
-0.015599
0.050391
0.146201
0.149629
0.236381
0.190761
0.177111
0.219880
0.119961
0.221736
0.374644
0.223014
0.339997
0.337216
0.373073
0.283681
0.434453
0.413192
0.426729
0.466194
0.409367
0.503816
0.519968
0.556889
0.616396
0.516659
0.540913
0.559740
0.489560
0.555408
0.575911
0.490249
0.510732
0.624148
0.523597
0.555383
0.501052
0.453915
0.431131
0.380649
0.430963
0.390484
0.463785
0.452325
0.375700
0.396880
0.358016
0.291492
0.240362
0.226230
0.305118
0.211103
0.183599
0.236651
0.102720
0.143723
0.130600
0.168775
0.144070
0.106564
0.041803
0.151232
0.089347
0.133969
0.081300
0.095143
0.108100
0.100662
0.067909
0.025495
0.084708
0.034853
0.011593
0.046774
0.050282
0.075850
0.098988
0.043179
0.012160
0.093863
0.038545
0.041711
0.024062
0.088020
0.076972
0.030639
-0.003202
0.092841
0.007878
0.004761
0.100092
0.086768
0.025681
0.098418
0.115014
0.074421
0.030698
-0.023622
0.104654
0.135754
0.145471
0.063499
0.058969
0.081192
0.105248
0.270514
0.106946
0.103272
0.197816
0.151402
0.273549
0.163395
0.145420
0.193137
0.275277
0.243841
0.263951
0.202483
0.208471
0.278108
0.149921
0.218197
0.310186
0.193922
0.246144
0.198380
0.198424
0.212722
0.208293
0.132337
0.196367
0.199346
0.224684
0.198434
0.109537
0.167602
0.110098
0.190549
0.056861
0.114764
0.049644
0.130289
0.120042
0.154577
0.177559
0.230628
0.556583
0.808637
1.095217
1.340450
1.418302
1.216077
1.031460
0.668684
0.285261
0.084353
-0.093134
-0.064115
0.004653
0.019566
0.139710
0.159769
0.089073
0.144226
0.119700
0.301547
