0.035624
-0.003342
0.128844
0.001778
-0.021564
0.029418
-0.026402
-0.012008
0.011617
0.046708
0.055099
-0.036124
-0.002315
-0.002628
-0.003058
0.040854
0.093868
0.093369
-0.026834
0.023119
0.002282
-0.020240
0.053284
0.051803
-0.034278
-0.042391
0.037921
0.085404
0.077141
0.054295
0.100774
0.082663
0.086334
0.119074
0.103926
0.178448
0.160457
0.178027
0.159702
0.110680
0.190173
0.249683
0.107637
0.220474
0.190174
0.262868
0.182423
0.194024
0.210943
0.203262
0.159639
0.154382
0.149975
0.152480
0.176694
0.050502
0.085324
0.091330
0.069906
0.129925
0.157985
0.135853
0.068368
0.047427
0.012595
0.112420
0.022197
0.049092
0.085549
0.102198
0.003902
0.030058
0.092498
0.056953
0.080264
0.042431
-0.025315
-0.015947
0.046941
0.054285
0.064413
0.047711
-0.041173
0.063495
0.032865
0.280611
0.501022
0.914556
1.160419
1.398523
1.418291
1.295817
1.035128
0.610274
0.351484
0.068187
-0.165027
-0.226117
-0.263911
-0.176402
-0.073040
0.077560
0.008902
0.082326
0.038928
0.056479
0.110922
0.051334
0.087704
0.043232
0.107551
0.080346
0.115313
0.146298
0.139847
0.075282
0.128255
0.104351
0.076664
0.138901
0.241922
0.192299
0.229119
0.156177
0.245514
0.266942
0.253949
0.255793
0.395858
0.354966
0.389851
0.348828
0.388710
0.409588
0.401489
0.498880
0.539712
0.550313
0.561859
0.518081
0.501333
0.593925
0.602940
0.563881
0.567269
0.591378
0.561304
0.552942
0.573062
0.611125
0.608740
0.610064
0.587439
0.527244
0.566168
0.476070
0.469502
0.469088
0.409271
0.465650
0.289861
0.409522
0.338469
0.318905
0.261757
0.278867
0.316088
0.363444
0.308220
0.174772
0.261917
0.180284
0.178343
0.147349
0.086985
0.113859
0.138243
-0.016177
0.082541
0.140138
0.112006
0.102645
0.123956
0.148144
0.095585
0.104160
0.078226
0.102343
0.149268
0.085334
0.065921
0.112009
0.140436
0.145981
0.074064
0.097427
0.027769
0.081793
0.093371
0.049678
0.033352
0.181800
0.087796
0.015666
0.171406
0.081931
0.103182
0.078701
0.054054
0.059513
0.120978
0.056256
0.120471
0.062980
0.094331
0.075558
0.080977
0.097719
0.044019
0.015856
0.048621
0.095522
0.071038
0.038406
0.069959
0.040866
0.113933
0.106815
0.015646
0.065261
0.051881
0.120290
0.054493
0.063082
0.075822
0.074364
0.089043
0.156336
-0.007415
0.127100
0.028897
0.061417
0.105839
0.229375
0.053848
0.092947
0.060237
0.061044
0.186856
0.115886
0.100938
0.121573
0.099290
0.076886
0.187987
0.145800
0.114753
0.140416
0.120250
0.160723
0.120670
0.212134
0.194789
0.261109
0.223482
0.248711
0.264666
0.254134
0.240781
0.234912
0.233449
0.176089
0.246412
0.247162
0.297314
0.278269
0.177353
0.179279
0.162791
0.149918
0.133925
0.158535
0.129583
0.082807
0.145811
-0.001558
0.131312
0.081101
0.100108
0.063683
0.072251
0.041922
0.112362
0.079529
0.045665
0.068698
0.020492
0.076258
0.067918
0.072265
-0.017276
0.048559
0.035484
0.029290
-0.019235
0.074964
0.043195
0.022039
0.183229
0.385867
0.543529
0.913532
1.231489
1.397460
1.404745
1.196072
0.897494
0.581497
0.269003
-0.046801
-0.176345
-0.196060
-0.158915
-0.063353
-0.075643
0.038143
0.141955
0.050886
0.112752
0.105086
0.072112
0.107807
0.153761
0.032660
0.066319
0.053984
0.031828
0.093940
0.139449
0.079839
0.040398
0.062461
0.126139
0.187130
0.206317
0.242837
0.165826
0.234635
0.230718
0.271597
0.292753
0.375468
0.246730
0.379448
0.324779
0.358441
0.472501
0.344722
0.375162
0.407391
0.495773
0.566410
0.528629
0.512782
0.531902
0.544228
0.487832
0.533277
0.462276
0.577728
0.554475
0.529930
0.494991
0.430848
0.445105
0.525569
0.482198
0.478162
0.464490
0.422675
0.414499
0.454351
0.412621
0.326793
0.405118
0.285974
0.362725
0.261980
0.284799
0.238086
0.170585
0.198302
0.131223
0.220498
0.151978
0.254161
0.135908
0.144840
0.084594
0.087433
0.017755
0.008129
0.006172
-0.005457
0.082392
-0.020690
0.059459
0.057711
-0.021051
-0.029609
0.042801
0.006986
0.100539
0.038293
0.030442
-0.041521
0.050344
0.005280
-0.013856
0.017645
0.054766
0.005327
-0.000541
0.020869
0.031006
-0.016514
0.009758
0.025810
0.025919
0.056657
-0.047296
-0.034465
-0.056381
0.064951
0.018412
0.089691
0.018360
-0.066337
-0.069364
0.035716
0.012573
-0.072994
-0.023305
-0.035807
-0.038656
-0.047690
-0.108984
-0.021561
0.032549
0.008736
-0.006098
-0.068799
0.014827
-0.010368
0.001258
0.052090
-0.104804
-0.030407
-0.000097
-0.053569
0.003970
-0.076588
0.066060
0.080931
0.039450
0.003486
-0.042076
-0.039543
0.065834
-0.056828
-0.032961
-0.014842
-0.073208
-0.105051
0.054470
0.030393
0.003328
-0.024798
-0.052713
0.055797
0.102990
0.064533
0.061531
0.000236
0.130371
0.104523
0.082019
0.021319
0.165096
0.116429
0.136095
0.201819
0.134786
0.096726
0.032275
0.113727
0.215433
0.066368
0.114745
0.102607
0.072116
0.160874
0.035688
0.076784
0.009752
0.037584
0.058931
0.079497
0.044428
-0.010089
0.016097
-0.055796
0.055830
0.018508
0.044310
-0.068991
-0.074865
-0.073600
-0.038954
-0.042201
-0.080895
-0.001381
-0.050446
-0.066604
-0.084668
-0.013479
-0.058445
-0.082018
-0.067847
-0.075187
-0.044210
-0.123347
0.086734
0.264073
0.577697
0.803372
1.167285
1.369494
1.314970
1.076923
0.887430
0.448350
0.071858
-0.119581
-0.272298
-0.306488
-0.231299
-0.210421
-0.147105
-0.086541
-0.044779
0.028866
-0.033450
0.077895
-0.003084
0.028549
-0.047115
0.066642
0.021065
-0.043215
-0.094185
0.064579
0.082160
-0.037578
0.047673
0.032736
0.130224
0.104374
0.071839
0.076105
0.070504
0.088452
0.129430
0.107722
0.128566
0.215087
0.281279
0.267672
0.249687
0.312706
0.327054
0.285008
0.451308
0.388519
0.382700
0.405109
0.357261
0.456111
0.461198
0.516789
0.393861
0.490650
0.463032
0.405387
0.542838
0.504393
0.448978
0.468154
0.413924
0.473439
0.477847
0.433834
0.432998
0.316523
0.384256
0.353474
0.317596
0.352219
0.279290
0.273253
0.277682
0.260796
0.125937
0.140347
0.113904
0.190528
0.150024
0.128282
0.008947
0.092321
0.088008
-0.003700
-0.052634
0.090604
0.031539
0.023918
0.018131
-0.034924
-0.067012
0.013801
-0.071092
-0.007248
-0.027315
0.052581
-0.019725
0.014531
0.049714
-0.020495
-0.004401
-0.047152
-0.034205
-0.041325
-0.058433
-0.037464
-0.054396
0.068599
-0.051065
-0.025702
-0.032532
-0.037244
-0.021793
0.029733
0.029851
-0.046169
-0.015293
-0.021808
-0.017704
0.038096
-0.071387
0.022237
-0.120222
-0.046788
-0.014848
0.031037
0.004237
-0.067354
-0.004795
-0.046059
-0.092965
-0.043201
0.009614
-0.011757
-0.042587
-0.005600
-0.018250
-0.006290
0.044929
0.007232
-0.037604
-0.098279
-0.038429
-0.039454
-0.019947
-0.022146
0.027385
-0.058398
0.023964
-0.048829
0.007202
-0.090807
-0.013804
0.046452
-0.013651
0.026943
-0.017485
-0.052079
0.095605
0.017850
0.057137
-0.006376
0.073579
0.023919
0.123121
0.081788
0.166650
0.024996
0.088504
0.115391
0.114802
0.142079
0.215252
0.188848
0.169746
0.157281
0.229194
0.155184
0.125695
0.197494
0.241454
0.117644
0.170007
0.077713
0.115181
0.111878
0.041746
0.139257
0.136791
0.171025
0.071344
0.138626
0.010633
0.062650
0.092002
0.118144
0.057725
0.012801
-0.037163
-0.053484
0.046664
0.044779
0.123785
0.053733
0.013935
-0.023774
-0.039999
0.071905
-0.027758
0.044440
-0.001654
-0.012898
0.046042
0.007352
0.037438
0.020117
0.046591
0.046527
0.228615
0.323673
0.629116
1.030086
1.204713
1.392120
1.299663
1.190551
0.776748
0.486189
0.129364
-0.024981
-0.280711
-0.233866
-0.127220
-0.047364
0.012580
-0.011938
0.045110
0.033721
0.007989
0.041848
0.024705
-0.014503
0.004833
0.170156
0.023322
0.051606
0.051953
0.092052
0.107173
0.192228
0.151730
0.097327
0.113829
0.165995
0.150828
0.182793
0.222501
0.238888
0.195704
0.271594
0.258133
0.260871
0.356133
0.340051
0.278181
0.417693
0.410452
0.396952
0.398405
0.444227
0.562824
0.449543
0.493697
0.516551
0.400546
0.483496
0.533447
0.471420
0.566699
0.593006
0.558701
0.492720
0.523092
0.568529
0.500993
0.469599
0.503183
0.495622
0.501153
0.405995
0.388296
0.380750
0.344868
0.324753
0.393558
0.364864
0.340643
0.332124
0.277476
0.215769
0.218695
0.302117
0.213093
0.245957
0.201070
0.138969
0.107211
0.211423
0.080398
0.120043
0.088777
0.095515
0.180102
0.161696
0.112176
0.115239
0.161885
0.059366
0.136068
0.064420
0.087798
0.026611
0.057714
0.034423
0.152024
0.115448
0.070078
0.107029
0.142111
0.135855
0.117979
0.016671
0.067327
0.026540
0.070835
0.112073
-0.012701
0.079682
0.034996
0.068952
0.163043
0.128994
0.119658
0.093483
0.043211
0.106409
0.096786
0.088590
0.141554
0.089989
0.044343
0.154943
0.076276
0.078390
0.179954
0.042055
0.074682
0.104408
0.134138
0.098030
0.112017
0.049321
0.126724
0.042135
0.077737
0.098465
0.100961
0.149874
0.092842
0.054967
0.121199
0.059070
0.155947
0.089310
0.100175
0.092630
0.062930
0.078727
0.123981
0.081230
0.131520
0.048662
0.216425
0.146117
0.083149
0.065727
0.234491
0.138166
0.167692
0.124506
0.173125
0.173374
0.188380
0.255013
0.322010
0.193723
0.247519
0.316526
0.244709
0.226856
0.315718
0.253487
0.247934
0.229779
0.224906
0.350298
0.334685
0.220227
0.244375
0.288820
0.136720
0.254300
0.137704
0.167823
0.153995
0.161877
0.226829
0.133030
0.227474
0.134476
0.127051
0.115440
0.063686
0.196827
0.105839
0.126871
0.093613
0.143673
0.102589
0.109965
0.108538
0.101470
0.070635
0.065511
0.195414
0.086949
0.054012
0.117599
0.070522
0.019886
0.069324
0.141366
0.259315
0.401604
0.713511
0.994301
1.328051
1.491785
1.497076
1.123896
0.849490
0.512386
0.158388
-0.109980
-0.190083
-0.165974
-0.084760
-0.051267
-0.066535
0.021987
0.050369
0.057127
0.058039
0.117494
0.147789
0.088320
0.031697
0.017623
0.127612
0.057070
0.125677
0.085605
0.100258
0.219010
0.184084
0.209301
0.100907
0.228899
0.181448
0.214055
0.207361
0.298800
0.271459
0.230965
0.276922
0.334874
0.459687
0.272473
0.343079
0.400272
0.397507
0.457403
0.424331
0.472675
0.473127
0.488521
0.563692
0.507058
0.609114
0.524177
0.578061
0.568716
0.578323
0.627379
0.560895
0.645576
0.531721
0.534861
0.574137
0.601693
0.534540
0.550998
0.508104
0.500275
0.416365
0.415184
0.391997
0.393705
0.332322
0.380895
0.316423
0.377952
0.313625
0.297678
0.233370
0.235029
0.166890
0.187556
0.161755
0.217218
0.121705
0.158658
0.148707
0.121493
0.144860
0.130859
0.050633
0.032670
0.124783
0.031929
0.082861
0.106277
0.046269
0.092696
0.087459
0.079268
-0.050169
0.048636
0.083701
0.036935
0.001241
0.006701
0.056143
0.048428
0.064062
-0.014394
-0.000459
0.057919
0.063069
0.105088
-0.001308
0.041287
0.046659
0.003435
0.062289
0.100588
-0.012955
0.056642
0.053937
0.029005
0.055026
0.059810
0.089999
-0.001149
-0.001564
-0.017985
0.094569
0.006469
-0.025997
0.023047
0.014474
-0.026497
0.055774
0.040122
-0.035617
-0.024711
0.100765
0.017261
-0.029192
0.005534
-0.039482
-0.002604
0.053713
-0.023468
0.037423
0.039833
-0.018183
0.052640
-0.032734
-0.052297
0.065483
0.024971
-0.006315
-0.068314
0.047243
0.069235
0.086073
-0.019423
0.035907
0.015846
0.015793
0.025360
0.131144
0.099201
0.135597
0.025830
0.133171
0.204992
0.075213
0.188070
0.137787
0.132198
0.160862
0.212494
0.089115
0.202712
0.207632
0.161875
0.191130
0.135705
0.086986
0.191417
0.082525
0.112739
0.069847
0.125454
0.039112
0.143691
0.018234
0.036104
0.107202
0.075976
-0.025169
0.066522
0.021748
-0.068920
-0.038478
0.017139
-0.006155
-0.025835
-0.024298
-0.043814
0.013247
-0.028304
-0.084541
-0.043105
0.027582
-0.013279
0.005441
-0.025580
-0.039888
-0.047716
-0.081717
-0.061216
-0.064911
-0.006319
0.052133
0.429310
0.623445
1.035777
1.216350
1.352761
1.252299
0.959997
0.676550
0.285798
0.035967
-0.176445
-0.330970
-0.267842
-0.346951
-0.233524
-0.043808
-0.040106
-0.014526
-0.077938
-0.134122
-0.067282
-0.001538
-0.086549
-0.085582
-0.009963
0.006355
-0.033058
0.030771
-0.039646
-0.021239
0.058471
0.007722
0.005158
0.107723
0.031173
-0.014942
0.036292
0.105266
0.125067
0.152675
0.224255
0.192868
0.229517
0.236636
0.256877
0.282823
0.173364
0.306222
0.351726
0.386481
0.282949
0.362249
0.394140
0.440546
0.376858
0.411670
0.464469
0.393496
0.423921
0.364600
0.367008
0.393810
0.419590
0.417066
0.456879
0.405730
0.325049
0.458987
0.365728
0.277539
0.351595
0.331352
0.219360
0.183503
0.227268
0.242256
0.220849
0.244860
0.129269
0.129109
0.102562
0.088869
0.029341
0.094138
0.049555
0.052183
0.131366
0.078364
0.001069
-0.025079
-0.028819
-0.017833
-0.030745
0.020381
-0.036627
-0.047124
-0.003012
-0.081977
-0.041048
-0.071825
-0.098485
-0.088575
-0.118430
0.034436
-0.060703
-0.045764
-0.075003
-0.115641
-0.106059
-0.059479
-0.124966
-0.044647
-0.102038
-0.089933
-0.015401
-0.001106
-0.044809
-0.130257
-0.050172
-0.107155
-0.094058
-0.093366
-0.085015
-0.038638
-0.119484
-0.129089
-0.182915
0.034280
-0.075581
-0.068325
-0.049008
-0.081908
-0.095059
-0.079279
-0.132815
0.003594
-0.015061
-0.000344
-0.049987
-0.094503
-0.124113
-0.020898
-0.031515
-0.102358
-0.077250
-0.121931
0.041578
-0.039470
-0.017120
-0.101689
-0.122384
-0.077979
-0.078730
-0.024795
-0.088466
-0.048335
0.001619
-0.038540
0.020536
-0.092368
-0.032167
-0.071119
-0.058501
-0.035819
-0.086850
-0.078319
0.013554
-0.029589
-0.016848
-0.020800
0.017613
0.049625
0.013612
0.015046
0.090309
0.033183
0.061173
0.160752
0.105835
0.117750
0.029880
0.150319
0.171515
0.078699
0.080068
0.036375
0.093516
0.059431
0.061774
0.064739
0.059014
0.120491
0.000231
0.018071
0.042055
0.074300
-0.043107
-0.000254
-0.079318
0.012958
-0.058975
0.014536
-0.017824
-0.029146
-0.124522
-0.094969
-0.058284
-0.012314
-0.104511
-0.086594
0.013389
-0.018517
-0.093318
-0.115200
-0.060718
-0.089237
-0.047566
-0.011298
-0.063375
-0.098228
-0.121592
-0.113260
-0.070655
0.112337
0.300818
0.619110
0.939150
1.254489
1.227261
1.275873
0.979515
0.614059
0.290059
-0.021929
-0.215627
-0.306418
-0.337746
-0.255204
-0.184156
-0.120154
-0.045429
-0.057167
-0.058039
-0.047272
-0.100646
0.075690
-0.164702
-0.108817
-0.036582
-0.003929
-0.088579
0.014339
0.014575
-0.029941
0.057270
0.013876
0.079788
0.035649
0.044673
0.157190
0.056154
0.152565
0.116348
0.177066
0.115478
0.240940
0.223531
0.180635
0.159268
0.237128
0.241805
0.325594
0.338632
0.325793
0.386495
0.425374
0.331565
0.505842
0.399785
0.471419
0.365008
0.442647
0.514812
0.405509
0.508836
0.386192
0.455117
0.431556
0.495036
0.443566
0.352344
0.369787
0.356669
0.411492
0.375410
0.471530
0.330479
0.285101
0.345229
0.229742
0.290299
0.230839
0.242652
0.204626
0.226395
0.120074
0.192070
0.175299
0.159648
0.087531
0.087017
0.065669
0.146323
0.054674
0.116682
0.035719
0.021737
0.013849
0.014655
0.019412
-0.013965
0.089807
-0.046851
0.059308
0.011364
0.000702
0.044939
0.066561
-0.038094
-0.037337
0.030685
-0.056531
0.004003
0.029185
-0.000770
0.011237
0.014613
-0.030517
0.007431
0.008893
-0.004322
0.028535
-0.020937
0.007311
0.071007
0.003977
-0.054129
0.019779
0.032535
-0.025684
-0.055643
-0.024423
-0.018116
0.027765
-0.029998
-0.013941
-0.071960
-0.053774
0.013837
-0.046092
0.023235
0.039223
0.054966
0.058250
-0.013105
0.061684
0.064671
-0.009160
0.027364
0.030879
0.009618
-0.007314
0.027284
0.001447
0.028852
-0.002965
-0.026898
0.108214
0.036042
-0.006156
-0.038699
0.122129
0.036437
0.015906
0.024810
-0.016625
0.036637
0.072900
0.087466
-0.018202
0.111985
0.091553
0.074329
0.049876
0.095994
0.177945
0.098052
0.104410
0.136708
0.223851
0.170019
0.185740
0.193182
0.126473
0.174724
0.165989
0.228108
0.159759
0.167770
0.191541
0.207010
0.199703
0.143158
0.156365
0.194094
0.169247
0.124331
0.134840
0.140363
0.091552
0.126867
0.101513
0.131613
0.046456
0.078852
0.120484
0.055214
0.067410
0.107631
0.034186
0.009007
0.048149
0.109752
0.018320
0.088285
0.113198
0.033604
0.022292
0.065591
0.057297
0.039456
-0.034114
0.012211
-0.021901
-0.014392
0.089995
0.024167
0.284228
0.516823
0.799984
1.161680
1.374597
1.500000
1.325890
1.057804
0.637414
0.336794
0.042099
-0.132093
-0.234088
-0.180148
-0.099511
-0.172532
0.021540
-0.009974
0.015819
0.047719
0.102509
0.046942
-0.011591
0.003901
0.070341
0.088988
0.110843
0.059135
0.150079
0.093009
0.126681
0.165538
0.067703
0.186722
0.045548
0.229157
0.162372
0.261686
0.193018
0.122364
0.222126
0.208954
0.291071
0.244112
0.337853
0.339129
0.325746
0.291834
0.409815
0.482490
0.400895
0.464708
0.421962
0.471406
0.464366
0.491666
0.487928
0.569730
0.457484
0.523171
0.526589
0.608186
0.594274
0.622670
0.594485
0.501144
0.496291
0.495755
0.567257
0.464916
0.449233
0.430300
0.364321
0.444738
0.349375
0.344330
0.312253
0.381199
0.286235
0.246412
0.280143
0.269649
0.208959
0.190575
0.240099
0.207328
0.175550
0.173030
0.182671
0.110824
0.067806
0.103555
0.101811
0.023981
0.054701
0.211334
0.071806
0.093459
0.104079
-0.021117
0.016977
0.107222
0.001024
0.027998
0.053400
0.013083
0.030888
0.056427
0.012169
0.030150
0.067333
0.018140
0.063011
0.034318
0.017897
-0.002315
0.049964
0.076282
0.088576
0.031384
0.089862
0.069871
-0.020050
0.083292
0.065271
0.016945
0.035445
-0.004078
0.046969
-0.011283
-0.014217
-0.035723
-0.017389
0.012559
0.048799
0.059820
0.109883
0.052916
0.025041
0.043090
0.035475
0.034783
0.041709
-0.006438
0.060911
0.060001
-0.063397
-0.043610
0.086586
0.046572
0.029169
-0.027772
0.013492
0.089053
0.006475
0.030542
0.092278
0.023413
0.066140
0.054619
-0.027899
0.014345
0.046846
-0.001539
0.023512
0.053030
0.113024
0.114534
0.055128
0.079541
0.022619
0.038584
0.053557
0.152566
0.129503
0.168234
0.098325
0.140875
0.126671
0.179290
0.123491
0.176350
0.160107
0.154907
0.214816
0.216751
0.047959
0.201145
0.185698
0.228728
0.112914
0.126838
0.185922
0.137226
0.121866
0.166156
0.074688
0.052400
0.012936
0.065600
0.016533
0.083033
0.026325
0.049446
0.009408
-0.046609
0.061692
0.059810
-0.012047
0.010582
0.021266
-0.012873
0.001481
-0.037337
-0.019562
0.028634
0.018989
-0.007557
0.012572
-0.008971
-0.068608
-0.022722
0.002669
0.076761
0.187101
0.474263
0.746267
1.122916
1.364232
1.278482
1.227280
0.876741
0.540012
0.153169
-0.101600
-0.283119
-0.293194
-0.241478
-0.225539
-0.150536
-0.088768
-0.047054
-0.041613
-0.081545
-0.072857
-0.078048
0.003404
-0.009088
-0.047862
-0.002594
0.018382
0.068180
0.038791
-0.045661
0.088555
0.086042
0.031368
-0.018254
0.027235
0.044407
0.134908
0.176316
0.118897
0.069022
0.198972
0.188642
0.165382
0.233762
0.233627
0.140601
0.252265
0.278585
0.232571
0.371732
0.426339
0.290137
0.374957
0.421631
0.488181
0.466353
0.357255
0.383057
0.499572
0.487194
0.490937
0.398459
0.481398
0.511940
0.445856
0.437671
0.410057
0.468329
0.374396
0.377154
0.300496
0.296787
0.292185
0.274185
0.230704
0.203036
0.209495
0.186499
0.208372
0.134932
0.175282
0.113512
0.095053
0.079951
0.113807
0.073701
0.053549
-0.017585
0.032746
-0.040863
0.060247
0.055221
-0.063333
-0.116766
0.028642
-0.080354
-0.063045
-0.120973
-0.065166
-0.037415
-0.075621
-0.071590
-0.024285
-0.050929
-0.102898
-0.114051
-0.129317
-0.107699
-0.064571
-0.031673
-0.068036
-0.070987
-0.094111
-0.000766
-0.087789
-0.166466
-0.096970
-0.082053
-0.036601
0.023084
-0.049242
-0.107081
-0.086648
-0.080616
-0.048280
-0.098414
-0.023027
-0.073176
-0.080405
-0.120472
0.009255
-0.035560
-0.028031
-0.079175
0.007378
-0.151836
-0.087018
-0.065630
-0.027403
-0.054712
-0.178645
-0.093178
-0.142583
-0.055726
-0.114135
0.026768
-0.033330
-0.110255
-0.062617
-0.105655
-0.141411
-0.025156
-0.052682
-0.064710
-0.016122
-0.060414
-0.139604
-0.047017
-0.085253
-0.028197
-0.065207
-0.072763
-0.011808
-0.145522
-0.067980
-0.073790
0.010013
-0.068398
-0.040538
-0.017927
0.016743
0.031507
-0.023508
-0.080410
-0.054493
0.053074
0.051136
0.085658
0.024615
0.067340
0.014183
0.109745
0.019413
0.061921
0.116155
0.051621
0.080636
0.046184
0.048265
0.082072
0.071794
0.073440
0.033877
0.011006
-0.038009
0.001110
0.020352
-0.022025
-0.033073
-0.039472
0.004062
-0.038665
-0.114650
-0.081467
0.003534
-0.017667
-0.082393
-0.108730
-0.074494
-0.063871
-0.045357
-0.096395
-0.103103
-0.091047
-0.150110
-0.117027
-0.105108
-0.156606
-0.061841
-0.140260
-0.139619
-0.141066
-0.165109
-0.008869
0.114893
0.446609
0.706557
1.060814
1.292631
1.246004
1.063345
0.805731
0.474352
0.078253
-0.352531
-0.416672
-0.348241
-0.422955
-0.254736
-0.140826
-0.161037
-0.091086
-0.089703
-0.053679
-0.100715
-0.021138
0.016738
-0.116262
-0.119156
-0.080565
-0.139378
-0.060660
-0.024679
-0.065766
-0.036795
-0.029018
-0.033046
-0.016032
-0.042403
0.063192
-0.008161
0.095686
0.054864
0.044856
0.056922
0.156661
0.123410
0.169386
0.264898
0.232445
0.140804
0.211153
0.323448
0.305007
0.264726
0.360315
0.392341
0.374801
0.365606
0.367119
0.364024
0.346171
0.401678
0.463198
0.450224
0.415993
0.449801
0.417040
0.420687
0.386307
0.384215
0.371732
0.336624
0.311545
0.327055
0.304133
0.220292
0.346730
0.222050
0.252164
0.193676
0.181074
0.199370
0.102462
0.165123
0.164278
0.047322
0.117398
0.075417
0.134052
0.080565
0.118296
0.024087
-0.018282
0.010871
0.032656
-0.014107
-0.072402
0.065544
-0.035575
-0.006876
-0.054014
-0.037688
-0.069865
-0.037637
-0.054974
0.004773
-0.070437
-0.020858
-0.041225
-0.098032
-0.076128
-0.048284
-0.116959
-0.041283
-0.105955
-0.126997
-0.007114
-0.046944
-0.043483
-0.082228
-0.068784
-0.062299
-0.077953
-0.016191
-0.014744
-0.094740
-0.058934
-0.065220
-0.083014
-0.045560
0.002768
0.006490
0.015910
-0.018779
-0.045042
-0.029867
-0.078846
-0.075862
-0.073806
-0.006946
-0.007116
-0.052118
-0.019582
-0.079852
0.015099
-0.110133
-0.006410
-0.092586
-0.015006
-0.069727
-0.084930
0.063930
-0.087520
-0.024248
-0.006388
-0.058014
-0.037255
-0.099504
-0.019735
0.038182
0.067400
-0.009229
0.041403
-0.051961
0.036344
-0.002929
-0.008887
0.030974
0.006491
-0.036952
0.033094
-0.018753
0.083259
-0.076315
0.119261
0.053429
0.031219
0.084268
0.221336
0.156003
0.091878
0.173760
0.110796
0.080946
0.174073
0.199994
0.190123
0.156065
0.150310
0.209533
0.187713
0.156780
0.139456
0.144415
0.121269
0.061201
0.116435
0.129006
0.119612
0.149204
0.002017
0.073761
0.076460
-0.021085
0.098371
0.028298
0.057003
0.066995
0.085531
-0.007941
-0.012286
0.088632
-0.004024
0.069939
-0.007324
-0.027014
0.003757
-0.045277
0.043305
0.052058
0.027689
-0.047077
-0.000981
0.042735
-0.013625
-0.013287
0.087430
0.368287
0.613250
0.921520
1.253476
1.353335
1.299586
1.210739
0.878170
0.542981
0.180889
-0.057503
-0.150306
-0.253717
-0.218232
-0.095111
-0.119899
0.043063
-0.028723
0.013088
-0.009437
0.037826
0.052442
0.065676
0.033914
-0.008681
0.049016
0.150772
0.092878
0.178501
0.088508
0.106013
0.131854
0.156563
0.023260
0.115641
0.123907
0.222566
0.216224
0.273925
0.139930
0.259853
0.247138
0.318594
0.376621
0.337000
0.363981
0.298233
0.415072
0.446061
0.439149
0.491886
0.450449
0.488859
0.493021
0.514360
0.523851
0.553163
0.557248
0.504650
0.556900
0.541040
0.543298
0.560026
0.548811
0.537692
0.455601
0.546846
0.410482
0.540559
0.536620
0.530369
0.393691
0.400882
0.352027
0.423327
0.367534
0.367797
0.361000
0.425685
0.251392
0.259480
0.259356
0.242175
0.149195
0.166928
0.192592
0.334167
0.160996
0.256761
0.079812
0.195139
0.111013
0.076600
0.063450
0.073386
0.020838
0.070549
0.075013
0.096119
0.120719
0.117795
0.061484
0.006351
0.009850
0.033918
0.030404
0.106461
0.084956
0.067511
-0.004859
0.103140
0.112587
0.046863
0.081728
0.057251
0.022231
0.054755
0.005864
0.017185
0.059851
0.069442
0.088072
0.176838
0.024964
0.028901
0.104255
0.058915
0.040239
0.101931
0.066642
-0.033036
0.044912
0.178572
0.098702
0.077862
0.062402
0.042555
0.147426
0.034597
0.063154
0.169516
0.168244
0.040031
0.098170
0.047354
0.035387
0.038408
0.003672
0.089210
0.132546
0.146730
0.041809
0.025477
0.139023
0.126057
0.053579
0.035969
0.041003
0.080749
0.062386
0.003337
0.051363
0.002777
0.054433
0.116563
0.221166
0.046882
0.106622
0.179368
0.075492
0.062712
0.147414
0.145214
0.166812
0.208675
0.144186
