-0.029394
0.027952
0.036732
0.026409
0.023441
-0.045163
0.052735
-0.037104
-0.006376
0.055187
-0.057675
0.004493
0.053953
-0.043928
-0.033059
0.040717
-0.035747
0.025888
-0.011049
-0.005891
0.073441
0.061894
0.042555
0.038309
-0.053580
0.044402
0.026516
0.001729
-0.006607
0.063759
0.029101
0.074815
0.026047
0.046170
0.091394
0.068916
0.074769
0.107960
0.074263
0.104304
0.157000
0.116385
0.207846
0.180480
0.218332
0.158895
0.142251
0.151848
0.186951
0.230356
0.229400
0.187688
0.147994
0.202178
0.185650
0.176573
0.165387
0.175552
0.141585
0.121686
0.144052
0.177237
0.057036
0.148875
0.085520
0.136784
0.107514
0.111549
0.047577
0.017308
0.117067
0.050226
0.086014
0.045698
0.102315
0.065029
-0.000561
-0.001113
0.074534
0.056702
0.044035
0.042464
0.059806
0.120146
0.042867
0.095035
0.113786
0.062250
0.030450
0.019780
-0.032331
0.049121
0.062143
0.180175
0.357896
0.577348
0.907051
1.151607
1.241357
1.251591
1.120411
0.902248
0.549573
0.330073
0.006525
-0.169423
-0.243747
-0.208329
-0.154741
-0.066147
0.029376
0.035667
0.094590
0.092191
0.048880
0.087536
0.047187
0.068635
0.084867
0.020948
0.141944
0.081211
0.108476
0.117251
0.093706
0.167569
0.079956
0.157405
0.129663
0.113336
0.203193
0.148672
0.226919
0.124289
0.206471
0.206149
0.192107
0.243369
0.251173
0.217770
0.299772
0.307988
0.288342
0.363863
0.310175
0.402889
0.383750
0.384339
0.463102
0.478214
0.485427
0.493718
0.477055
0.474850
0.451287
0.477174
0.597114
0.485049
0.551461
0.549180
0.596867
0.600063
0.460889
0.549942
0.571440
0.510059
0.521510
0.526280
0.438305
0.492695
0.344723
0.433880
0.519522
0.460047
0.311240
0.285823
0.339644
0.411643
0.313121
0.238807
0.262866
0.258538
0.220641
0.262166
0.274952
0.164108
0.219393
0.175056
0.152027
0.232354
0.172916
0.215825
0.196167
0.125172
0.148668
0.194774
0.152154
0.045230
0.088083
0.091802
0.110358
0.088544
0.131396
0.063923
0.163322
0.090986
0.102682
0.069432
0.124023
0.112560
0.066604
0.078620
0.068817
0.101717
0.101684
0.102733
0.113369
0.107514
0.114901
0.198281
0.076228
0.139042
0.190139
0.067024
0.146803
0.151095
0.155786
0.122706
0.061399
0.118665
0.116636
0.127360
0.098185
0.116433
0.066286
0.086393
0.147632
0.129511
0.136844
0.158900
0.156188
0.118364
0.145767
0.069827
0.201925
0.165305
0.153977
0.125853
0.096352
0.058470
0.155801
0.071642
0.042641
0.086628
0.167853
0.187204
0.095252
0.088192
0.144466
0.099999
0.138829
0.094282
0.053264
0.148519
0.101966
0.098374
0.087881
0.139654
0.108186
0.084168
0.067599
0.134191
0.075765
0.153883
0.127474
0.081636
0.137341
0.128643
0.098412
0.123244
0.092614
0.191272
0.171314
0.247046
0.181056
0.322734
0.126487
0.136880
0.239620
0.275422
0.206192
0.205010
0.200617
0.241748
0.245965
0.316161
0.316694
0.226979
0.227396
0.237305
0.229732
0.314723
0.235867
0.195418
0.204929
0.273103
0.212665
0.196540
0.153571
0.163234
0.124983
0.153788
0.139944
0.158706
0.107392
0.112915
0.155085
0.113943
0.135258
0.153553
0.082062
0.212393
0.116828
0.147471
0.140121
0.139292
0.124083
0.101958
0.118371
0.041089
0.141354
0.155688
0.170755
0.078748
-0.000969
0.065209
0.052586
0.080040
0.060149
0.190367
0.355058
0.606549
0.894399
1.142508
1.308864
1.242626
1.137137
0.871690
0.594079
0.238712
0.071549
-0.083020
-0.201433
-0.147354
-0.108075
-0.055918
-0.025499
0.070264
0.110603
0.087221
0.051910
0.074718
0.151566
0.027145
0.167107
0.155252
0.104904
0.115743
0.192404
0.062559
0.073797
0.095590
0.140196
0.113453
0.165832
0.124131
0.200874
0.138233
0.225317
0.171620
0.186390
0.310709
0.208573
0.092954
0.273378
0.167287
0.247796
0.313636
0.273062
0.350096
0.321962
0.415629
0.380678
0.386958
0.454856
0.462471
0.479257
0.458770
0.470058
0.385432
0.503413
0.564990
0.459046
0.529070
0.509219
0.572101
0.527473
0.541842
0.501773
0.515237
0.434147
0.538445
0.501408
0.455331
0.438715
0.432432
0.436124
0.402357
0.370189
0.434485
0.321042
0.334327
0.285411
0.336812
0.304776
0.303414
0.139081
0.159743
0.250235
0.210578
0.191572
0.153153
0.154118
0.167512
0.160321
0.209842
0.114077
0.132957
0.113957
0.067619
0.130191
0.072749
0.085350
0.118221
0.029606
0.112276
0.100179
0.090734
0.070877
0.097618
0.096577
0.118954
0.069363
0.099506
0.158690
0.124922
0.026343
0.137842
0.114841
0.034659
0.049092
0.095664
0.034175
0.049485
0.106825
-0.004835
0.059752
0.072925
0.051690
0.045841
0.067620
0.049900
0.094489
0.013375
0.039491
0.060026
0.079917
0.093784
0.108018
0.071776
0.000833
0.065032
0.030568
0.073600
0.051208
0.122471
-0.002377
0.073551
0.086776
0.077439
0.074367
0.039826
0.052085
0.076817
0.011431
0.048793
0.065506
0.116425
0.045678
0.023085
0.043756
0.082198
0.015861
0.093382
0.004793
0.053854
-0.010203
0.136326
0.142130
0.057599
0.064288
0.020689
0.099044
0.060880
0.015766
0.076012
0.085828
0.072578
0.049689
0.037570
0.074080
0.084143
0.103415
0.126895
0.059678
0.088934
0.096944
0.100055
0.125726
0.201103
0.161019
0.090866
0.154471
0.201218
0.202503
0.154030
0.176705
0.165968
0.181028
0.241015
0.235573
0.190274
0.249166
0.197491
0.180216
0.223752
0.185488
0.179856
0.162849
0.152293
0.130629
0.141431
0.177309
0.138353
0.119984
0.137112
0.030210
0.185163
0.106443
0.095160
0.113301
0.053817
0.130566
0.079019
0.106677
0.024386
0.109170
0.040752
0.097834
0.036994
0.062662
0.067953
0.122090
0.039772
0.049598
0.070692
0.057670
0.088267
0.002335
0.020004
0.113906
0.003941
-0.007172
0.025910
0.116288
0.112952
0.401605
0.648548
0.850378
1.103007
1.329014
1.278816
1.090115
0.790614
0.551512
0.254531
-0.005625
-0.111664
-0.263245
-0.158420
-0.105344
-0.119406
-0.034041
0.116582
0.089731
0.069765
0.090847
0.058486
0.048073
0.111246
0.054120
0.057560
0.114585
0.110138
0.090235
0.145107
0.039933
0.080190
0.073232
0.086343
0.146915
0.131227
0.172708
0.160244
0.150165
0.139334
0.110530
0.199654
0.224712
0.242128
0.255718
0.227419
0.243017
0.236593
0.346554
0.374244
0.286699
0.423363
0.378494
0.402094
0.377460
0.461331
0.503634
0.418303
0.450025
0.486705
0.487570
0.517056
0.446903
0.591515
0.521561
0.544775
0.505266
0.528941
0.547273
0.457107
0.479395
0.562328
0.513723
0.447736
0.486417
0.490109
0.461082
0.485099
0.423024
0.410477
0.445125
0.266629
0.352036
0.304311
0.341883
0.231388
0.282185
0.206375
0.235812
0.254026
0.235989
0.168485
0.141757
0.176595
0.182610
0.203637
0.158517
0.185885
0.171196
0.161665
0.100489
0.216308
0.224390
0.159490
0.195676
0.120436
0.076168
0.111545
0.145146
0.117462
0.138876
0.055041
0.027714
0.235813
0.055333
0.161716
0.139215
0.104775
0.083539
0.126183
0.086841
0.110216
0.171687
0.080288
0.133861
0.097016
0.162584
0.125333
0.074746
0.141544
0.107615
0.099332
0.078075
0.129755
0.191169
0.133759
0.130139
0.108396
0.090844
0.084441
0.172762
0.212545
0.115563
0.150499
0.182823
0.165346
0.147169
0.158442
0.088644
0.162569
0.206597
0.156730
0.188674
0.113168
0.134337
0.158815
0.142137
0.173683
0.181328
0.153372
0.129741
0.162268
0.183541
0.123781
0.195508
0.134994
0.173483
0.178427
0.190120
0.136909
0.163797
0.129446
0.187701
0.143816
0.131783
0.240450
0.135352
0.187086
0.167446
0.193091
0.163599
0.201067
0.194170
0.217837
0.138222
0.180982
0.212965
0.215255
0.248286
0.216232
0.223872
0.200004
0.230236
0.326346
0.291649
0.210729
0.336017
0.293583
0.245456
0.260035
0.297588
0.308708
0.293576
0.329347
0.352624
0.348734
0.330250
0.336674
0.267328
0.313986
0.208340
0.254112
0.216443
0.302162
0.287255
0.298825
0.278429
0.256698
0.298515
0.175119
0.170880
0.172936
0.222364
0.249530
0.222853
0.190608
0.166335
0.179114
0.184472
0.165036
0.203504
0.197271
0.250176
0.152984
0.217314
0.211134
0.204236
0.171618
0.219925
0.167049
0.159514
0.198440
0.115717
0.157683
0.216984
0.288196
0.578631
0.852157
1.079982
1.243404
1.391334
1.361263
1.154092
0.900748
0.534455
0.355656
0.139383
0.032934
-0.056353
-0.013335
0.003211
0.128776
0.123740
0.189905
0.229877
0.167910
0.230725
0.256133
0.185533
0.223596
0.213169
0.240947
0.214906
0.231460
0.217084
0.254550
0.246393
0.256718
0.273706
0.244162
0.302660
0.305139
0.292395
0.284567
0.311958
0.296922
0.266627
0.365717
0.421880
0.347477
0.338081
0.433552
0.453666
0.370580
0.403448
0.434706
0.509304
0.492189
0.559509
0.488154
0.464376
0.567858
0.617338
0.608323
0.554287
0.602442
0.705868
0.631238
0.652502
0.588560
0.658670
0.643950
0.640439
0.744154
0.721654
0.619107
0.654643
0.622504
0.642458
0.660203
0.608395
0.610328
0.617661
0.511035
0.523507
0.503360
0.599837
0.513868
0.488792
0.440871
0.375933
0.465781
0.449659
0.460239
0.358517
0.334818
0.361015
0.350893
0.275613
0.353643
0.348001
0.272585
0.248865
0.382645
0.363148
0.263660
0.298147
0.268599
0.263160
0.280265
0.340995
0.298018
0.204380
0.258341
0.240713
0.226138
0.182541
0.241319
0.195814
0.260602
0.168991
0.250690
0.303173
0.255876
0.190074
0.195711
0.294914
0.237220
0.222703
0.193158
0.307384
0.284535
0.259124
0.181648
0.219938
0.198938
0.261631
0.363581
0.296304
0.285742
0.234428
0.233045
0.270499
0.288663
0.247159
0.282686
0.226197
0.304216
0.273151
0.263808
0.298753
0.201234
0.294060
0.193538
0.294553
0.286484
0.279235
0.305925
0.234893
0.250443
0.199586
0.270744
0.251332
0.230079
0.212072
0.225214
0.207300
0.193725
0.222847
0.257528
0.253225
0.313648
0.275324
0.335832
0.265863
0.264664
0.200873
0.236774
0.310358
0.229676
0.291255
0.236201
0.232117
0.321755
0.263161
0.257952
0.314090
0.301087
0.269883
0.271170
0.281245
0.293923
0.295140
0.340868
0.352053
0.237811
0.301149
0.299596
0.278936
0.389638
0.358473
0.377314
0.404697
0.289937
0.344929
0.321036
0.354402
0.391065
0.301809
0.374445
0.454003
0.384480
0.333215
0.369868
0.372450
0.300698
0.310547
0.318964
0.321356
0.279131
0.330055
0.370639
0.234758
0.254455
0.312245
0.188561
0.251349
0.276335
0.254721
0.200127
0.222109
0.251139
0.219020
0.178772
0.216226
0.239276
0.245690
0.269022
0.215384
0.202338
0.218618
0.248387
0.179665
0.176933
0.257087
0.254820
0.201391
0.135907
0.286000
0.236925
0.233697
0.398627
0.553739
0.803908
1.112772
1.362380
1.500000
1.337283
1.159046
0.875147
0.600219
0.264000
0.088038
0.010337
-0.024582
-0.017507
0.018603
0.103387
0.131918
0.216707
0.194507
0.164069
0.179374
0.260361
0.201915
0.228904
0.263376
0.209824
0.215158
0.269317
0.240207
0.259407
0.266551
0.250508
0.283778
0.334514
0.209866
0.283060
0.225104
0.195314
0.291583
0.399255
0.322566
0.305105
0.324690
0.319758
0.330078
0.356427
0.383737
0.420113
0.447464
0.464900
0.462523
0.542143
0.429546
0.529788
0.490677
0.557111
0.680983
0.516581
0.568922
0.550280
0.585377
0.610007
0.667237
0.647669
0.595611
0.650891
0.561652
0.577120
0.634293
0.580426
0.595691
0.585580
0.596609
0.498332
0.566028
0.544943
0.496126
0.449895
0.488606
0.467083
0.425046
0.428094
0.414459
0.406221
0.361674
0.358461
0.342368
0.308782
0.259718
0.212840
0.280993
0.265664
0.234633
0.262849
0.262606
0.194272
0.214915
0.237560
0.254128
0.238214
0.241972
0.200846
0.209341
0.201623
0.228861
0.169692
0.215528
0.142463
0.211821
0.178046
0.192904
0.158643
0.082554
0.227908
0.128625
0.140404
0.161934
0.131228
0.206359
0.123271
0.158397
0.163379
0.161815
0.206076
0.157567
0.135147
0.133100
0.181669
0.166081
0.105443
0.159642
0.170859
0.237877
0.141658
0.183309
0.177413
0.198816
0.136463
0.195247
0.141365
0.202063
0.218133
0.042621
0.078598
0.136400
0.071929
0.146341
0.183159
0.176957
0.175232
0.145403
0.194873
0.178901
0.135188
0.177801
0.118372
0.117423
0.192147
0.141113
0.216178
0.119993
0.215835
0.172339
0.125269
0.157854
0.161758
0.180411
0.201289
0.153374
0.153896
0.128610
0.238101
0.109907
0.144206
0.124646
0.148479
0.125934
0.163126
0.132912
0.166009
0.165767
0.192634
0.094091
0.143345
0.200577
0.226347
0.289624
0.208071
0.234943
0.218464
0.221015
0.252638
0.215514
0.240815
0.227105
0.321302
0.328814
0.317710
0.238779
0.243760
0.301702
0.309155
0.242852
0.310589
0.261409
0.314566
0.237958
0.254369
0.242167
0.225563
0.229901
0.206822
0.244164
0.217839
0.175790
0.222707
0.186094
0.202672
0.196251
0.134911
0.172658
0.119335
0.151248
0.089991
0.129995
0.164752
0.079772
0.190598
0.083360
0.140971
0.110046
0.146679
0.178788
0.198202
0.131558
0.104627
0.111389
0.127204
0.126153
0.240834
0.139711
0.084702
0.118222
0.155827
0.177061
0.272633
0.468508
0.798879
1.115957
1.256856
1.282966
1.366024
1.051464
0.763549
0.502728
0.226110
0.022313
-0.085442
-0.068869
-0.027442
-0.021185
0.049006
0.130892
0.182060
0.194388
0.115914
0.153557
0.130322
0.148049
0.106678
0.099285
0.149229
0.153357
0.157540
0.188230
0.188455
0.139548
0.143098
0.162404
0.141630
0.288489
0.235622
0.248291
0.143081
0.200039
0.273799
0.232640
0.265332
0.310204
0.278801
0.295565
0.308128
0.305367
0.323700
0.411799
0.417501
0.516715
0.424806
0.485207
0.477439
0.470728
0.516201
0.458861
0.479274
0.480102
0.547501
0.571615
0.581593
0.568491
0.542738
0.619118
0.575027
0.575138
0.553075
0.646678
0.521950
0.577900
0.563645
0.531187
0.639228
0.523405
0.485433
0.502942
0.450977
0.452804
0.437043
0.436827
0.423924
0.404123
0.336127
0.386411
0.305668
0.306029
0.350091
0.347441
0.258511
0.219443
0.303284
0.258133
0.280762
0.188775
0.236541
0.201843
0.225543
0.240855
0.195460
0.232277
0.185655
0.146120
0.235436
0.190196
0.243825
0.158210
0.244819
0.181336
0.193720
0.155374
0.194175
0.138774
0.201615
0.197876
0.172512
0.231975
0.109379
0.156384
0.173884
0.123628
0.190778
0.082226
0.237960
0.123963
0.178537
0.168078
0.152472
0.164539
0.201175
0.166437
0.179754
0.213235
0.251154
0.169698
0.194895
0.183693
0.199165
0.139986
0.181853
0.192634
0.213178
0.131324
0.189829
0.144443
0.143338
0.207756
0.198319
0.157840
0.243627
0.211173
0.168004
0.177892
0.159060
0.180322
0.250665
0.210298
0.144498
0.158511
0.242025
0.182821
0.152422
0.190807
0.134441
0.206630
0.230859
0.211379
0.135998
0.259041
0.181044
0.200943
0.199490
0.240095
0.231253
0.187312
0.251545
0.209622
0.245784
0.248355
0.190793
0.193885
0.243438
0.242923
0.242530
0.230807
0.191928
0.305607
0.255859
0.271449
0.283270
0.296588
0.331719
0.309474
0.348042
0.336522
0.354813
0.371863
0.372684
0.393462
0.337711
0.329177
0.368887
0.303726
0.292829
0.334541
0.385013
0.324596
0.281351
0.314666
0.321784
0.291483
0.302722
0.327802
0.280323
0.271759
0.251793
0.342176
0.306437
0.297135
0.274984
0.289170
0.227632
0.250271
0.273250
0.273764
0.209967
0.170943
0.214424
0.151163
0.269950
0.201248
0.180506
0.204088
0.157381
0.285829
0.184412
0.181127
0.284919
0.216059
0.230813
0.246284
0.223809
0.139239
0.206345
0.289325
0.424839
0.612809
0.861617
1.196702
1.349562
1.438530
1.379517
1.148765
0.795994
0.572385
0.294340
0.098040
0.017841
-0.099574
0.098230
0.148391
0.183247
0.228650
0.211196
0.258546
0.241600
0.228431
0.259195
0.257501
0.225845
0.239838
0.200516
0.259181
0.305983
0.326050
0.336560
0.283542
0.263282
0.306166
0.367889
0.339662
0.255335
0.321817
0.340599
0.332075
0.386821
0.370583
0.393413
0.296853
0.403478
0.465379
0.474651
0.429715
0.538268
0.549974
0.451246
0.565112
0.533726
0.579645
0.630955
0.625698
0.623543
0.578287
0.620479
0.638714
0.608358
0.723847
0.712761
0.692740
0.711435
0.717491
0.698711
0.696790
0.796439
0.672934
0.682555
0.643737
0.657135
0.662676
0.660815
0.630333
0.611920
0.556920
0.572781
0.531364
0.559500
0.553896
0.567237
0.528230
0.491636
0.468947
0.465889
0.445073
0.425206
0.391170
0.477219
0.341356
0.328390
0.318135
0.347688
0.296183
0.342745
0.416354
0.336188
0.296770
0.332950
0.326992
0.301577
0.330292
0.286759
0.254597
0.318552
0.320908
0.318412
0.237732
0.209274
0.290954
0.247176
0.252920
0.267112
0.235179
0.232211
0.250687
0.267133
0.261295
0.263427
0.273655
0.294614
0.312541
0.265293
0.304597
0.279775
0.285593
0.288153
0.297194
0.269751
0.286773
0.242590
0.313683
0.239177
0.294265
0.310792
0.305720
0.240067
0.281016
0.259508
0.340171
0.319611
0.263294
0.323326
0.290855
0.187909
0.266595
0.273776
0.225481
0.270629
0.239348
0.238685
0.322234
0.306288
0.316075
0.230630
0.245321
0.293118
0.280968
0.245155
0.226035
0.299266
0.312249
0.303343
0.272471
0.260794
0.275296
0.279870
0.283227
0.294756
0.205434
0.313912
0.275127
0.247515
0.288951
0.227165
0.303556
0.332293
0.305852
0.325446
0.323255
0.299643
0.209449
0.369365
0.319987
0.312177
0.305500
0.309080
0.273467
0.363250
0.336124
0.379107
0.380568
0.347119
0.365738
0.375204
0.427717
0.442083
0.502184
0.413954
0.438680
0.408079
0.404024
0.419996
0.389796
0.399220
0.462482
0.404876
0.382170
0.380816
0.373224
0.332261
0.373312
0.377064
0.314354
0.357307
0.326836
0.298170
0.328802
0.320341
0.301898
0.356620
0.217106
0.248616
0.263497
0.306609
0.283018
0.303373
0.289351
0.299558
0.269072
0.237347
0.297799
0.263249
0.226121
0.232811
0.196528
0.287579
0.253421
0.271724
0.202895
0.213439
0.189155
0.140331
0.266910
0.475615
0.662376
1.013985
1.205158
1.361121
1.489731
1.355586
1.123570
0.840858
0.508486
0.283652
0.116622
-0.001285
0.018516
0.058201
0.063595
0.168429
0.173642
0.177248
0.207023
0.272173
0.292310
0.254297
0.135329
0.218300
0.273472
0.266456
0.281065
0.256576
0.249357
0.304447
0.290516
0.277300
0.295130
0.288167
0.301812
0.270149
0.266031
0.317530
0.243002
0.363866
0.364560
0.303414
0.406619
0.328304
0.382677
0.475857
0.403064
0.439221
0.442163
0.515806
0.557934
0.539933
0.546875
0.503388
0.520879
0.567765
0.546576
0.623965
0.570326
0.612678
0.586717
0.578467
0.625408
0.677251
0.645982
0.693998
0.636766
0.608200
0.637340
0.661635
0.646065
0.623188
0.642649
0.627567
0.616024
0.593431
0.511433
0.551592
0.586313
0.512145
0.471228
0.498177
0.456406
0.430147
0.409970
0.414909
0.404923
0.400809
0.340976
0.267759
0.303438
0.310569
0.271902
0.242650
0.266424
0.230524
0.300919
0.239260
0.228509
0.224524
0.203193
0.149785
0.226372
0.224149
0.227550
0.212260
0.187786
0.220975
0.252140
0.203640
0.186775
0.215076
0.203390
0.179084
0.244273
0.187612
0.174758
0.193696
0.211843
0.247470
0.199446
0.261946
0.240765
0.159769
0.224345
0.149895
0.167227
0.171122
0.218960
0.217496
0.191666
0.242970
0.225786
0.215067
0.212713
0.210323
0.259884
0.163955
0.149331
0.208046
0.213497
0.234796
0.220718
0.212291
0.209252
0.187494
0.238528
0.175036
0.154461
0.167808
0.215318
0.243339
0.148775
0.198336
0.210370
0.183021
0.213050
0.230609
0.185507
0.257869
0.166940
0.235613
0.199399
0.162545
0.177042
0.182204
0.162357
0.165801
0.212638
0.151215
0.226667
0.193550
0.208034
0.179812
0.142986
0.213816
0.197162
0.228366
0.141541
0.116598
0.122672
0.256106
0.188363
0.248365
0.211858
0.245366
0.244642
0.282013
0.225832
0.206435
0.227523
0.275400
0.378768
0.270069
0.235739
0.240625
0.305953
0.298262
0.268751
0.280134
0.351956
0.306802
0.357896
0.257915
0.330607
0.293848
0.287220
0.296980
0.254817
0.283009
0.213414
0.234345
0.280850
0.194939
0.217934
0.292039
0.238187
0.215831
0.169721
0.161244
0.101906
0.220417
0.184146
0.143206
0.254472
0.142183
0.163867
0.226877
0.188134
0.177571
0.164311
0.176418
0.136104
0.167946
0.197447
0.224388
0.128136
0.227961
0.173943
0.157992
0.181885
0.120049
0.191335
0.162774
0.226172
0.352880
0.573244
0.878508
1.170088
1.382209
1.393306
1.276687
1.034459
0.692508
0.437001
0.138732
0.041906
-0.066319
-0.014697
-0.021209
0.037671
-0.003865
0.095987
0.184231
0.125291
0.137236
0.132723
0.142394
0.161181
0.089722
0.204765
0.202287
0.175423
0.129317
0.142185
0.169549
0.181656
0.159611
0.156590
0.175750
0.254529
0.225643
0.217692
0.259539
0.244253
0.217046
0.274522
0.252584
0.305338
0.347287
0.311355
0.275093
0.381360
0.350362
0.410505
0.399585
0.403157
0.455542
0.492487
0.496338
0.525063
0.509722
0.438587
0.598919
0.607091
0.515118
0.549790
0.580553
0.553275
0.584803
0.541855
0.639180
0.580980
0.661695
0.588059
0.579510
0.567308
0.536206
0.548002
0.559785
0.521642
0.599399
0.547037
0.495563
0.478658
0.428147
0.407265
0.439125
0.359648
0.458461
0.342590
0.392411
0.273848
0.335935
0.302016
0.278690
0.297829
0.239294
0.277670
0.254954
0.243971
0.232187
0.223268
0.206501
0.189550
0.108526
0.132666
0.159312
0.168867
0.216714
0.179072
0.186893
0.130601
0.198396
0.237816
0.181644
0.167182
0.190499
0.190348
0.164383
0.206205
0.221862
0.179985
0.120837
0.172541
0.113615
0.216286
0.222219
0.257240
0.106251
0.149394
0.226526
0.166265
0.230857
0.239697
0.201075
0.216656
0.177405
0.140668
0.175546
0.195942
0.213040
0.194957
0.217018
0.209399
0.190146
0.136654
0.216195
0.182735
0.145302
0.250103
0.241201
0.193425
0.194978
0.179923
0.215054
0.265108
0.244560
0.220288
0.214762
0.171198
0.173474
0.248778
0.209969
0.187528
0.218940
0.179023
0.204743
0.129259
0.225583
0.198253
0.207241
0.255110
0.200569
0.239145
0.147189
0.221940
0.249753
0.211485
0.204484
0.248055
0.150949
0.202278
0.262485
0.193587
0.249362
0.219742
0.224736
0.291369
0.287063
0.297139
0.283626
0.269615
0.305066
0.222411
0.275916
0.315816
0.303416
0.320335
0.243015
0.366098
0.340257
0.387449
0.310311
0.402027
0.361372
0.375273
0.341584
0.456533
0.415357
0.353755
0.441562
0.345494
0.366623
0.356565
0.335287
0.365452
0.310688
0.330062
0.226338
0.373672
0.239452
0.289805
0.263268
0.322662
0.229548
0.242328
0.199767
0.221584
0.285673
0.243742
0.187328
0.276941
0.215806
0.229899
0.204767
0.239764
0.194707
0.221767
0.232033
0.249100
0.325643
0.222995
0.179113
0.260511
0.196114
0.223293
0.177071
0.215950
0.208139
0.237589
0.398168
0.780347
1.021606
1.259741
1.463287
1.463222
1.361286
1.019928
0.786140
0.484895
0.302934
0.082894
0.077516
0.034810
0.087460
0.139377
0.146259
0.284345
0.231404
0.237003
0.168323
0.208205
0.275871
0.302686
0.266627
0.294511
0.372640
0.283285
0.306797
0.264280
0.276336
0.290466
0.308167
0.343794
0.364060
0.348620
0.382765
0.353403
0.334873
0.307592
0.321305
0.346065
0.418694
0.391904
0.376981
0.541867
0.461319
0.428456
0.475143
0.521043
0.612082
0.503702
0.544837
0.592258
0.564462
0.558486
0.651425
0.657875
0.661370
0.662666
0.651626
0.665716
0.669928
0.721698
0.748017
0.664551
0.661322
0.740875
0.713814
0.722441
0.676047
0.655470
0.707045
0.614212
0.643537
0.625450
0.650724
0.688077
0.591489
0.580440
0.598250
0.552044
0.569237
0.505319
0.504090
0.464854
0.446420
0.552918
0.478759
0.431137
0.434404
0.429214
0.402680
0.390686
0.375861
0.402703
0.268008
0.349428
0.297636
0.326840
0.328202
0.325613
0.371499
0.301163
0.352582
0.289346
0.249890
0.233326
0.290901
0.321603
0.306012
0.271559
0.268331
0.319709
0.304171
0.339162
0.281347
0.310910
0.278194
0.307081
0.284328
0.322318
0.272524
0.261804
0.335156
0.283342
0.263835
0.266794
0.304727
0.339427
0.345355
0.282889
0.336521
0.267007
0.299130
0.264596
0.305219
0.265094
0.322153
0.372659
0.362408
0.353447
0.257964
0.218335
0.358906
0.279206
0.287773
0.309725
0.281787
0.335724
0.357354
0.308676
0.330348
0.274393
0.285583
0.267169
0.336149
0.307273
0.327870
0.301714
0.298129
0.304613
0.312424
0.279418
0.334869
0.315661
0.280016
0.336898
0.331856
0.336844
0.328118
0.329588
0.254915
0.317872
0.272513
0.289890
0.331002
0.285195
0.344849
0.358330
0.338244
0.287214
0.347241
0.263293
0.311680
0.359956
0.366135
0.321416
0.343901
0.417374
0.340773
0.392608
0.437055
