-0.196076
0.055372
0.590296
-0.112170
-0.166827
-0.322284
-0.004065
-0.250110
-0.275342
-0.044351
0.046368
0.134813
0.221716
0.213355
0.168611
-0.594346
0.162984
-0.509315
0.061188
-0.173049
-0.256404
-0.608744
-0.309378
0.154730
-0.813728
0.126712
-0.224875
-0.002959
-0.054336
-0.410587
0.019660
0.428690
0.306359
-0.160399
0.245407
-0.348141
-0.188974
0.236305
0.180612
-0.282492
0.390074
-0.392676
0.498280
0.360025
-0.646870
-0.330349
0.657391
0.129214
0.763907
0.266299
0.291070
0.266842
-0.367049
-0.037074
-0.168557
-0.267510
0.108388
-0.386030
-0.290343
0.339780
-0.308162
0.140141
0.037359
-0.067817
-0.289405
0.008478
-0.161018
-0.483863
-0.443336
0.650752
0.236880
-0.283485
-0.266864
-0.183020
0.072733
0.059841
-0.285093
-0.420470
0.022380
0.101720
0.156680
0.328761
1.046837
-0.031343
-0.230278
0.075624
0.071198
0.192009
-0.389856
0.324295
0.630390
0.604036
1.296315
0.525763
0.335919
-0.090448
-0.060553
0.288729
0.189563
-0.094171
-0.082072
-0.431759
-0.311160
0.240836
0.459473
-0.065786
-0.624669
-0.195230
0.024124
0.700784
0.640863
0.352009
-0.463174
0.306835
0.287336
-0.344867
0.187874
-0.212746
0.641702
-0.008008
0.320180
0.223142
0.024980
0.202880
-0.367355
0.036326
0.358473
-0.322877
0.846769
-0.913981
0.307645
-0.433123
0.391597
0.947797
-0.452968
0.336060
0.357582
-0.082368
0.564288
0.165383
0.529941
-0.246851
0.995439
0.406246
0.142525
0.214708
0.347960
1.256173
0.894429
0.698291
-0.198920
0.847499
1.141901
0.318328
0.190479
-0.044574
0.401120
0.652043
0.729168
0.841987
0.086548
0.220353
0.008482
0.972404
-0.195119
0.108758
-0.028696
0.341695
-0.745234
0.172532
0.182901
-0.017217
-0.051582
0.039379
-0.071683
0.599547
0.403239
0.286547
0.874403
0.775035
0.158089
0.220291
0.364773
0.487647
-0.140216
-0.675708
0.119774
-0.346080
0.197523
0.563102
-0.310519
-0.258946
0.395805
-0.004467
0.380103
0.198709
-0.017763
0.058002
-0.178374
0.214864
-0.730520
0.553099
0.059197
-0.925995
0.411048
0.555276
0.192487
-0.152771
0.512998
0.046183
-0.091285
0.134819
0.082179
0.474895
-0.238507
-0.260708
-0.677939
0.061242
0.516431
0.029357
-0.762419
0.175407
0.179263
-0.131935
-0.251890
-0.113622
0.146404
0.190255
-0.128099
-0.076193
0.079200
0.623689
-0.289206
0.185012
0.391079
-0.151110
0.357370
0.340701
-0.084672
0.671006
0.144782
0.329919
0.208048
0.475578
0.524483
0.009683
0.556574
-0.106998
-0.109483
0.406930
0.484913
-0.076805
0.048366
0.052612
-0.112727
0.131535
-0.069075
-0.052826
-0.674269
0.070396
0.087930
-0.276197
0.500515
0.590772
0.099727
-0.327916
0.648340
0.439879
-0.194677
-0.519192
0.404283
0.077317
0.581155
-0.138168
0.327004
0.390180
0.339580
-0.053750
-0.145188
0.422863
-0.073494
0.184685
-0.108656
0.320268
0.532253
0.663021
0.546789
-0.033573
0.136753
0.960868
0.144421
0.347549
-0.176796
0.098232
0.190112
-0.080791
-0.395353
0.350275
0.601459
0.499798
0.232806
-0.184486
-0.230765
-0.200272
-0.229296
-0.319360
0.555418
-0.217875
0.219931
-0.085175
0.063772
-0.044775
0.244798
0.055113
-0.002363
-0.241045
0.190279
-0.000972
0.169368
-0.049724
0.058183
0.394926
0.445166
0.865609
0.244490
0.212911
0.836510
0.253825
0.727784
0.590006
0.042914
0.117240
0.185956
0.269114
-0.121776
0.222864
-0.190494
-0.491047
0.628676
0.016796
-0.208998
0.240035
-0.224761
0.188154
0.246427
-0.052873
-0.892521
-0.348224
0.358182
-0.596601
-0.250457
0.625983
0.218960
0.061105
0.551619
-0.248915
-0.080730
0.096432
-0.116754
0.206755
0.350492
0.223744
0.515174
0.175043
0.085833
0.339278
0.043544
-0.661910
-0.340731
0.120197
0.335540
0.413912
0.063120
-0.108439
0.180359
0.473456
0.254136
-0.151254
-0.170753
0.235132
0.929885
-0.454053
0.278821
0.510402
0.067027
0.238858
0.876392
0.473267
-0.122067
0.170345
-0.188686
0.300189
-0.069194
-0.470939
-0.258872
0.101757
0.982436
-0.107066
0.504472
0.004009
0.003288
0.302415
0.608263
0.231707
-0.028612
0.721742
-0.138245
-0.547757
0.370842
0.043158
-0.375358
0.129840
0.265324
-0.003608
0.175746
0.324048
-0.131620
-0.340696
0.062903
-0.368220
0.035997
-0.101927
0.395459
-0.191441
-0.352952
-0.296719
-0.154777
0.206027
0.155082
0.470355
-0.180018
0.639161
-0.297252
-0.104825
-0.083578
-0.345657
0.429898
0.363959
-0.331540
-1.112606
-0.031610
0.278857
0.111241
-0.546941
-0.766340
0.348183
0.084890
-0.602623
0.413227
0.255195
0.546304
-0.159703
0.062594
0.275602
0.144232
-0.053368
-0.525202
-0.094230
-0.413005
-0.488602
-0.297193
-0.143475
0.388823
-0.077380
0.268747
0.206314
0.034917
0.206598
0.203335
0.649547
0.247767
-0.166157
0.532711
0.184145
-0.326752
-0.197222
0.167599
0.471979
0.001218
0.307069
-0.933395
0.137271
0.551972
0.113023
-0.446665
0.228020
-0.446477
-0.429388
-0.204269
0.473182
-0.441443
-0.187289
0.313392
0.363180
-0.189536
-0.296469
-0.242790
-0.685104
0.086729
-0.387993
-0.671590
-0.539564
-0.299215
0.343463
0.358068
-0.362014
0.254488
-0.791374
-0.026061
0.781993
0.335518
0.630284
0.024020
-0.184268
0.397059
-0.647444
0.321866
0.400575
-0.030524
0.459728
-0.113778
0.098772
-0.274058
0.518965
0.108900
0.003265
-0.288462
-0.200769
-0.019152
0.432802
-0.404736
0.406876
0.210896
0.221756
-0.185804
0.148531
-0.580977
-0.095656
0.097082
0.180917
0.374369
0.108157
-0.335848
0.318689
-0.203597
-0.174076
0.320920
-0.199746
0.132806
-0.456826
0.352642
0.800898
0.414856
0.208030
0.380440
0.398498
0.697602
0.418816
-0.074452
0.339952
0.941451
-0.044100
-0.209296
-0.747006
-0.034936
-0.194799
-0.056841
-0.713771
-0.187401
0.018758
0.391712
-0.357809
0.103556
-0.324133
0.063868
-0.216451
0.562626
-0.217134
0.470851
-0.366627
0.571184
-0.355706
-0.268083
-0.165095
0.543710
0.444581
-0.095081
-0.337650
0.070409
0.111781
0.435796
0.173344
0.441468
-0.340091
0.094651
-0.323477
-0.168554
0.346904
0.341667
0.035669
0.499414
0.832485
0.114926
-0.016738
0.535969
0.289265
-0.126518
-0.318196
-0.275596
-0.054623
-0.216552
-0.022404
0.288542
0.226468
-0.108858
0.494740
0.366343
0.170709
-0.459969
0.142861
-0.155701
0.323546
0.181308
0.117645
-0.189191
-0.550061
0.375014
-0.083774
-0.804518
0.658048
-0.114966
-0.057888
-0.478316
0.269021
0.033816
0.083086
-0.620916
-0.248563
-0.017510
0.081700
-0.054386
-0.349128
0.346734
0.084862
-0.117127
-0.207973
0.311454
0.174673
0.116292
0.165139
-0.313026
0.223995
-0.094678
-0.351282
0.190475
0.151768
-0.406462
0.551022
-0.766191
-0.151308
-0.103318
-0.139362
-0.384112
0.156825
0.626283
0.044467
0.618016
-0.075458
-0.184810
0.067100
-0.102638
0.206996
0.861582
-0.103797
0.010493
-0.334537
-0.171831
-0.173911
0.145734
-0.161739
-0.081060
0.210239
0.356042
-0.141564
-0.490587
0.013949
-0.235056
-0.163409
0.059229
0.453419
-0.077650
-0.085208
0.522795
0.515369
-0.489490
0.053650
0.005178
-0.191563
0.108691
0.185934
-0.357199
-0.014300
-0.503702
-0.016073
0.372241
0.223563
-0.090591
-0.474591
0.418073
0.129339
-0.140246
0.134897
0.032394
0.294299
-0.863251
-0.152465
-0.419042
0.161942
-0.752154
-0.961011
0.374876
-0.106928
0.093014
-0.049584
-0.202959
0.163155
-0.562455
0.442690
0.286246
-0.371747
0.615857
0.246033
0.497110
0.463451
-0.020866
-0.321002
-0.215231
-0.639661
-0.344872
0.208400
0.041615
0.312425
-0.279622
0.302156
1.221280
-0.434046
-0.028247
0.133783
-0.304636
0.948879
-0.973766
0.008638
0.772706
-0.414584
-0.514476
0.457593
0.094828
0.133226
0.412764
-0.323282
0.046794
0.103030
-0.291428
0.253926
0.299993
-0.091516
-0.188926
0.684570
-0.106257
0.327396
-0.070049
0.957487
0.416734
-0.297607
-0.118490
0.150417
-0.294706
0.776356
-0.372850
-0.352775
-0.399913
-0.639166
0.188795
0.171670
0.773874
0.816073
0.329050
0.104372
0.274207
0.658738
-0.347362
-0.152102
-0.176998
-0.359521
-0.294167
0.477897
0.134210
0.091626
-0.345877
0.460371
-0.724734
-0.597376
0.213342
0.025880
-0.320440
0.163486
-0.005039
-0.136870
0.365773
0.257901
-0.038014
0.120932
0.226742
-0.100956
-0.288567
-0.007532
-0.105859
0.129763
-0.251758
-0.012668
0.324127
0.552638
-0.309664
0.034360
-0.078499
-0.308179
0.256438
0.330854
0.427749
0.117011
0.011100
0.343872
0.301799
0.347746
0.484163
0.095706
0.573629
0.198374
0.606133
0.454431
0.251690
0.667568
0.864509
0.400963
0.596567
-0.302874
-0.040184
-0.042821
0.352829
0.556504
0.185698
-0.175445
0.465443
0.140646
-0.071951
0.075389
-0.113879
0.181161
-0.168641
-0.228807
0.408794
0.199825
0.088399
-0.024350
-0.283045
-0.060012
-0.077948
0.114544
-0.353798
-0.064554
0.454576
0.516577
-0.432500
0.625742
0.184999
0.245887
0.185945
-0.699373
0.157950
0.332601
0.012357
-0.281604
0.110002
-0.206202
-0.001866
-0.188537
-0.663898
0.692001
-0.483465
0.109870
0.596401
0.171173
-0.094720
-0.426202
0.233589
-0.060848
0.288287
-0.584680
0.028447
0.330997
0.339892
0.275264
-0.465652
0.263757
-0.032938
-0.175391
0.331012
0.685140
0.000619
0.466890
-0.223251
0.251461
0.132308
-0.095147
-0.167118
0.853655
0.477664
0.161357
-0.211143
0.803110
0.147381
0.169346
0.144719
0.432495
-0.466952
-0.478344
-0.081874
0.643775
0.123412
-0.190189
-0.232611
0.473539
0.215428
-0.136886
0.998005
0.519930
0.445853
0.849206
0.807712
0.242099
0.181663
0.419938
0.093848
0.145669
-0.579429
-0.000396
-0.600458
0.244771
0.133893
0.173397
0.157459
-0.324681
-0.270398
-0.533257
0.170304
-0.477985
-0.067613
1.068532
0.231445
0.227523
-0.543878
-0.310506
0.349783
-0.223983
0.389996
-0.136027
0.148012
-0.085104
0.415526
0.080565
-0.212884
0.403381
0.015964
0.877523
0.184771
0.199438
-0.384575
-0.423202
-0.317187
0.295678
-0.100447
0.489932
0.059314
0.011273
-0.038052
-0.164561
-0.067874
0.114317
0.008076
-0.076703
-0.525963
0.584745
0.216635
-0.311117
-0.187625
-0.077139
-0.120975
0.190698
0.317326
-0.349408
-0.477411
-0.289026
0.027640
0.419260
0.084620
0.298883
0.556724
0.153562
0.022638
-0.641195
0.256285
-0.225424
0.104884
0.223735
0.801272
0.893745
1.006345
0.630183
0.417788
-0.656887
0.235799
0.360703
-0.857302
0.400507
-0.372462
-0.048497
0.002919
-0.618669
0.394397
0.461930
0.292760
-0.598976
-0.119227
0.532122
0.087525
0.039613
0.146430
0.500591
0.297721
0.478425
-0.010172
-0.530583
-0.254138
0.299348
0.325602
-0.045933
0.252972
0.728751
-0.041517
0.023723
-0.111999
0.109356
-0.245187
-0.352547
0.021267
0.170926
0.321464
0.618554
0.792165
0.657848
0.143852
-0.052840
0.145370
-0.486317
0.800762
0.288846
0.159353
0.367136
0.537537
0.420933
0.324471
0.486249
0.249053
0.687187
0.723056
0.293804
-0.570103
0.128767
0.546261
0.054563
0.826969
0.898789
0.171759
0.574113
0.392740
0.215508
0.451355
0.791484
0.250788
-0.213513
0.556614
0.082959
0.165897
-0.000130
0.673513
0.020774
0.043242
0.867348
0.024066
-0.355288
0.248284
0.182939
-0.099878
-0.010107
-0.546563
0.149209
-0.417470
0.169767
0.402447
0.594418
-0.035573
0.053696
0.351441
0.037030
0.404634
-0.083526
0.459953
0.252313
0.426991
-0.107721
0.374031
0.276620
-0.349179
0.007547
-0.087594
-0.231690
0.024574
0.650802
0.536347
-0.406026
-0.259577
-0.394701
0.007436
-0.686768
-0.783102
0.049142
-0.173508
-0.453543
0.011515
-0.031740
0.230661
-0.006157
0.238850
0.046399
-0.431329
-0.316795
-0.365612
0.034074
0.068147
0.124129
-0.185449
-0.436061
-0.485338
-0.275744
0.091562
-0.152947
0.594640
-0.100274
-0.623545
0.425163
0.330070
0.670645
0.207681
-0.802175
-0.839681
-0.294434
0.182168
0.053669
0.032665
0.085355
-0.179823
-0.112499
0.201495
0.234019
0.064093
0.123051
-0.421265
0.054251
0.007080
-0.181955
-0.549490
0.551430
-0.463263
-0.636896
-0.054330
0.352218
0.379990
0.085582
-0.365216
-0.488484
0.123592
-0.016448
-0.155659
0.000188
0.138291
-0.294963
-0.163699
-0.582715
-0.003087
-0.365337
-0.448225
0.149386
0.156637
0.353666
1.079773
-0.213898
-0.171411
-0.196245
0.019827
-0.159603
-0.159245
0.107667
0.208695
-0.247483
-0.113282
-0.091010
-0.238698
-0.429496
0.457539
0.279695
-0.108995
0.033383
-0.345056
0.297062
-0.688418
-0.301807
0.459877
-0.067295
-0.383946
-0.147207
-0.214764
-0.406333
0.510227
-0.165174
-0.443180
-0.221303
-0.481567
-0.034127
-0.640668
-0.024037
0.070142
-0.134094
-0.105340
0.100993
1.126930
0.442317
0.897124
0.321971
0.671872
0.141909
0.985866
0.028888
-0.013873
-1.037117
0.455513
0.068764
0.808029
-0.351136
0.528409
0.572431
-0.011368
-0.534444
-0.671359
0.318577
0.010747
0.188338
-0.012227
0.331978
-0.202954
-0.276544
-0.255829
0.164526
0.057385
0.350839
-0.285216
-0.139553
-0.208516
0.270750
0.485898
0.090827
-0.046683
-0.824630
0.182699
-0.202476
0.486464
0.237930
-0.162114
0.006529
0.202438
-0.173160
-0.514506
0.602220
0.569566
0.579392
0.290450
0.750532
-0.086515
0.753569
1.242139
0.605504
-0.096501
0.012599
0.013052
0.766888
-0.087543
0.407037
-0.186953
0.412082
0.175257
0.200144
0.253944
-0.439968
0.589362
0.164139
0.431699
0.549066
0.373028
0.488453
-0.185293
0.895539
0.773945
-0.028750
-0.769633
0.017737
0.302688
0.358347
0.140786
0.542242
0.110747
-0.140816
-0.531251
0.145581
-0.055342
-0.068561
0.183460
0.114017
-0.629932
0.087608
-0.132741
-0.460624
-0.113606
-0.395543
0.621076
0.145374
-0.230984
0.035980
-0.246888
-0.260178
-0.695817
-0.236973
-0.291623
-0.465056
0.328974
0.038216
0.504883
0.041506
-0.315246
0.202181
0.236235
0.507323
0.399841
-0.571008
0.292510
0.578147
0.428243
0.417945
0.449022
-0.529011
-0.470735
-0.356644
-0.037284
-1.202905
0.342410
0.416586
0.435071
-0.198135
-0.481167
0.175228
0.337107
-0.308085
0.053415
-0.864477
-0.423644
-0.323514
-0.274347
0.216359
0.556083
0.038997
0.113563
0.160813
0.208433
0.328759
-0.164338
0.134641
-0.169655
-0.212222
0.263367
-0.160988
-0.179858
-0.157442
-0.071856
-0.247254
0.237095
0.235591
0.653721
-0.151950
0.159455
0.101899
-0.407200
0.062103
0.145293
0.506505
0.126122
0.105655
0.260564
-0.150323
-0.197795
0.066315
-0.011413
-0.106989
-0.130847
0.671292
0.026746
0.478612
0.003620
-0.298957
-0.088117
0.569225
-0.069951
-0.363081
-0.355712
-0.459233
0.278466
0.201055
0.287756
0.053466
-0.778188
0.123790
-0.073504
0.614092
-0.116053
-0.149142
-0.132814
0.062082
0.294699
0.255088
-0.356220
-0.012649
-0.061825
-0.376714
0.101441
-0.373178
-0.628283
0.154590
0.210689
-0.571787
-0.403316
0.332308
0.052805
0.109970
0.534993
-0.706461
-0.609317
-0.108418
-0.468851
-0.000981
0.087148
-0.432581
-0.233916
-0.138094
-0.601849
0.123757
-0.396049
0.196735
0.306934
0.585104
0.301412
0.114681
0.395614
0.526189
0.143576
-0.441265
0.428256
0.080495
0.318808
-0.002774
-0.301096
0.367308
0.221399
-0.495027
0.166361
0.046570
0.040442
-0.413847
-0.679744
0.337487
-0.216436
0.955324
-0.221052
-0.082997
-0.050544
-0.219047
-0.366545
0.324032
-0.322077
0.305365
-0.717993
0.141964
-0.797837
-0.202413
-0.156012
0.435739
-0.087875
0.549674
0.019683
0.162774
0.175326
-0.020702
0.236222
-0.126867
0.024957
-0.405111
0.081421
-0.051093
0.155355
0.096995
0.275102
0.400431
0.269972
0.448267
-0.202419
0.393479
0.254960
0.359763
0.457326
0.358136
0.719754
0.804709
0.744595
0.736576
-0.387893
0.327304
-0.387209
0.844981
0.664002
0.558087
0.870910
0.532824
0.342244
0.068741
-0.078079
0.269765
0.519117
-0.031670
-0.106220
-0.250880
-0.045102
0.082446
0.558334
0.059495
-1.015963
0.489126
0.246894
0.578603
0.423160
0.274534
0.177517
-0.473917
-0.186384
-0.355648
0.441140
-0.138058
-0.029984
-0.207754
0.356518
0.094296
-0.100449
-0.040161
-0.088348
-0.309716
-0.405407
-0.153012
-0.409561
0.019123
0.044993
-0.065167
-0.261368
-0.054259
0.011918
0.300007
0.194964
0.334362
0.123732
-0.496918
0.344842
0.129044
-0.355228
0.259778
-0.675420
0.197849
-0.334107
-0.572222
-0.070222
0.716731
-0.236279
0.226440
-0.414660
-0.467605
-0.585918
0.592490
0.163944
-0.221456
0.006406
-0.319526
0.392305
-0.318596
0.339890
0.132453
-0.316290
-0.171328
0.621376
-0.156360
0.109545
0.209681
-0.129843
-0.102135
0.356462
-0.281818
-0.305511
-0.072298
0.102865
0.544753
-0.504259
-0.321096
0.564313
0.096532
0.403203
0.356912
0.249680
0.270257
0.628343
0.172367
0.538067
0.139605
-0.000867
0.198259
0.025090
-0.046248
0.272382
-0.438248
-0.042137
0.111842
-0.314506
0.483705
0.310753
0.130433
0.374116
-0.107668
-0.047787
-0.095849
-0.334805
-0.253441
0.044581
0.266476
0.315674
0.615396
0.353254
0.064879
0.178927
-0.323458
0.222979
0.215213
0.412558
-0.485564
-0.706440
0.229613
-0.411356
-0.603758
-0.155444
-0.235006
-0.334460
0.000029
0.165716
-0.233228
0.245997
0.533079
-0.079172
-0.011334
-0.392417
0.268228
-0.047602
0.016429
-0.390934
-0.093938
0.786351
-0.450522
-0.749559
0.091041
-0.456932
0.702263
0.252915
-0.326339
0.053824
0.045326
0.368887
0.789016
0.192809
0.691968
0.311024
0.254701
1.340797
0.402916
0.031444
0.502589
0.716218
-0.661531
0.176146
0.079662
-0.206307
0.262528
0.745647
0.495205
0.612437
0.183741
0.059339
-0.403306
-0.502721
-0.519915
-0.303062
0.038269
0.295007
0.702938
0.537269
-0.093927
-0.221584
0.424692
-0.235634
0.354623
-0.156698
-0.068984
0.069832
-0.050579
0.401424
0.066620
0.366843
-0.147748
-0.019258
0.497144
0.194840
0.484079
0.141670
0.138764
-0.163419
0.022147
-0.492467
0.863386
0.381666
-0.524754
0.416577
0.107288
0.377187
-0.035189
0.300937
0.010512
-0.599701
0.119710
0.413780
-0.183225
0.227078
0.141755
0.468018
-0.290615
0.364836
0.375885
0.009111
-0.496051
0.197920
-0.358656
0.059338
0.365376
0.319683
0.005978
-0.086044
0.220069
-0.097533
0.071425
0.646254
0.128361
-0.014261
0.849470
0.091580
-0.050599
0.088451
0.240294
0.349906
-0.284408
0.388752
-0.090884
0.377022
0.044024
0.178308
0.134812
0.452403
0.804765
-0.283781
-0.489860
-0.062132
0.104738
-0.151703
0.670370
-0.690490
-0.110635
0.146029
0.403640
-0.096592
-0.178042
-0.614532
0.629698
-0.208016
-0.090507
0.274362
-0.252164
0.145943
0.010431
0.608652
-0.289209
-0.332453
-0.200858
-0.010749
-0.028520
0.040830
0.405674
0.479281
-0.253333
0.353955
-0.121126
-0.453521
-0.457473
-0.605758
0.292605
0.109872
-0.290270
0.168396
0.379344
0.099689
-0.185277
0.484728
0.402257
0.419563
0.268101
-0.102727
-0.615611
0.168930
0.173132
0.186810
0.089911
0.218197
0.018571
0.011541
0.195917
0.183595
-0.213663
0.606694
-0.140156
0.688029
0.091936
-0.632461
-0.683622
0.377683
-0.077741
0.837225
-0.136890
-0.081012
-0.504703
0.313873
0.436820
0.107695
-1.500000
-0.380278
0.139635
0.347180
-0.143677
-0.143053
-0.381793
0.423318
-0.117282
0.661766
-0.040496
-0.340761
-0.103551
-0.045198
0.264606
-0.600037
0.354401
0.332173
0.419899
0.488237
0.423792
0.179747
-0.393100
-0.682672
-0.393206
-0.035810
-0.159006
-0.057331
-0.626844
0.149831
0.321736
0.318272
-0.133302
0.383019
-0.114954
0.107184
-0.231513
-0.123171
0.350282
0.102120
-0.698048
0.487628
-1.036797
-0.295309
-0.230118
-0.171995
-0.583837
-0.151231
-0.135569
-0.418153
-0.194818
0.305025
-0.251617
-0.396581
-0.615643
-0.634581
0.463247
-0.323668
0.357248
1.146816
0.449954
0.434907
0.912757
0.205300
1.379877
0.473515
-0.104083
-0.372691
-0.214089
0.941379
-1.001007
-0.471584
0.464546
-0.478560
0.366274
-0.326799
0.670811
0.250502
-0.413297
0.227135
0.157836
0.161708
-0.051688
0.041706
0.580218
-0.603437
0.331094
-0.176215
0.239984
-0.108119
0.183928
0.160055
0.235492
0.704992
-0.517099
-0.213892
-0.480237
0.020269
-0.399997
0.005738
-0.018723
-0.009729
-0.291869
-0.178500
-0.080439
-0.884838
0.236686
0.168595
0.184370
0.479533
0.091353
0.067630
0.534550
0.507848
0.668251
0.218043
0.149243
-0.002485
0.804704
0.274008
0.600744
0.298001
0.086789
-0.070598
0.568417
0.265708
0.232049
-0.060652
0.364558
-0.080732
0.310197
-0.564128
-0.118125
0.396169
0.530231
0.383282
0.663302
-0.165620
0.525858
0.003098
-0.237911
-0.901628
0.385464
-0.000163
0.354453
-0.206513
0.118182
-0.184268
0.327535
-0.099734
-0.237665
-0.470461
-0.518372
0.039562
-0.433168
0.401305
-0.376516
-0.170516
0.159776
0.471724
-0.606362
-0.017533
-0.064915
-0.519593
0.170259
0.024398
-0.439204
-0.093085
-0.560863
-0.292645
-0.434916
-0.269082
-0.281896
0.333214
-0.891344
0.083588
-0.110169
-0.104871
-0.259618
-0.427976
0.090291
-0.550584
0.088004
-0.506863
-0.352231
-0.686894
0.061810
0.252057
0.285116
0.303635
0.118867
-0.772328
0.065605
-0.231024
-0.174777
-0.692892
-0.342395
-0.069236
0.097227
0.005384
-0.039731
0.423696
0.270756
-0.130732
0.548353
-0.047294
-0.114105
0.033514
-0.228336
-0.017145
0.004773
-0.092314
-0.586929
-0.647197
-0.617337
0.015056
0.170191
-0.011991
-0.057172
0.200224
-0.605919
-0.169117
0.160292
0.003450
-0.140977
0.324087
-0.219286
-0.506720
0.154855
-0.089479
0.086619
0.310318
0.124049
0.092506
-0.262881
-0.985253
0.389389
0.098561
-0.327306
0.253527
0.021197
0.471389
0.240929
-0.064201
-0.294197
-0.250973
-0.548933
0.459273
0.100333
0.025991
0.033413
0.091966
0.260991
-0.029475
-0.745463
0.366446
-0.242347
0.435030
0.443845
0.324994
0.077987
0.024479
0.191624
0.049733
0.639380
0.187495
-0.314991
-0.354455
-0.413319
0.043584
0.517511
-0.289716
-0.044356
0.004739
-0.251158
0.403007
-0.339758
0.051859
0.234917
0.097764
0.371546
0.078038
-0.069117
-0.090734
-0.130241
-0.385369
-0.210883
-0.537870
-0.164580
-0.104599
0.482547
0.899200
1.035110
0.846585
0.255586
0.007274
0.495949
0.107339
-0.227251
-0.356484
0.006084
0.005701
0.403969
-0.279288
0.362355
0.595933
-0.241418
-0.516395
-0.362421
-0.049349
0.266198
-0.783944
0.066527
-0.179697
0.595767
0.057964
-0.292116
-0.449870
0.317578
-0.470753
-0.120369
0.019303
0.014247
0.174834
0.527300
-0.562553
0.539977
0.489190
0.328059
0.890538
0.006575
0.131789
0.340236
-0.331554
-0.141597
-0.163025
0.373736
0.245828
0.518802
0.008259
0.135965
0.864712
-0.170239
-0.100542
0.734318
0.166503
0.304085
-0.254822
0.300248
-0.208489
-0.285454
0.714306
0.405544
-0.423298
0.625065
-0.160900
0.692918
0.515994
0.428429
0.117077
0.102225
0.232882
-0.199780
0.417414
0.275020
-0.055393
-0.184866
-0.027587
-0.152314
0.847642
-0.509831
0.770763
-0.609895
0.218900
0.281468
-0.204622
-0.484919
0.043738
-0.651971
0.128691
-0.163253
0.100722
-0.154161
-0.525912
-0.963853
-0.132984
-0.546789
0.151154
0.300373
-0.659987
0.482421
-0.281172
-0.054440
0.773392
-0.657608
-0.221556
0.258958
-0.120044
-0.382679
0.188021
0.208710
0.165355
0.034495
-0.025107
-0.382548
0.275124
-0.651473
0.268775
0.305907
0.000417
0.534317
-0.016544
0.131722
0.059002
0.082662
-0.513270
-0.048250
-0.090703
-0.699561
0.196681
0.435471
0.078957
0.168503
0.232890
-0.178511
0.627542
0.376536
0.163591
-0.086984
-0.502501
0.426922
-0.169778
-0.036100
0.033027
0.224131
-0.009554
0.733680
-0.152916
0.614908
-0.228366
0.131148
-0.228458
-0.361200
-0.626983
-0.229013
0.063218
-0.822700
0.434183
-0.073964
-0.794355
-0.790744
-0.041961
1.164745
0.554973
-0.741824
0.097183
-0.589348
-0.055808
0.055956
0.048215
0.721336
0.574687
0.559145
0.219168
0.566231
0.122574
0.675422
-0.133196
-0.503990
0.254294
-0.622312
-0.479843
-0.403524
-0.473740
-0.310114
-0.166531
0.964653
0.025623
0.771039
0.136191
0.028446
-0.545075
-0.184699
0.251892
-0.524697
-0.311861
-0.004347
-0.128541
0.619840
0.010048
0.182237
0.103345
0.189185
-0.128539
-0.171684
0.304275
-0.007267
-0.207996
-0.169298
0.345762
0.370723
-0.111790
-0.093247
-0.129221
-0.478807
-0.130764
-0.149119
-0.012711
0.031888
-0.112093
0.006027
0.069553
0.357026
-0.524598
-0.240081
-0.238469
0.568901
0.095146
-0.180037
-0.127342
0.227801
0.696629
0.149943
0.553089
0.315139
-0.220563
0.780024
0.534958
-0.328734
0.371797
0.063399
0.297873
-0.132922
-0.584776
-0.134899
0.159548
-0.119677
0.537477
-0.371205
0.278979
0.530725
-0.038659
-0.555836
-0.553593
-0.878189
-0.349413
-0.311218
-0.151080
-0.159964
-0.033144
0.626407
0.305979
0.168596
0.288054
0.383715
0.157362
0.251673
0.120002
0.478886
-0.139884
0.313860
-0.062384
0.255152
-0.286963
0.152619
0.165501
0.201662
0.265207
-0.239473
-0.603501
0.617168
0.075462
1.036041
0.226864
0.600609
0.520494
-0.078240
-0.126155
0.075711
-0.415778
0.810212
0.452644
0.537242
-0.184924
0.611984
-0.155821
0.234420
0.984736
0.359818
0.648533
-0.152610
0.125503
-0.027295
0.625621
-0.328003
0.198228
0.323324
0.916928
-0.250668
-0.518543
0.473018
-0.339364
0.276119
0.305695
0.237731
0.288361
-0.181272
-1.047909
-0.061942
-0.284676
-0.611907
-0.092774
0.213098
0.639198
0.427158
-0.208605
0.186286
-0.602992
-0.096044
0.443864
-0.313526
-0.145375
-0.069232
