0.015798
-0.027736
0.045516
-0.005937
0.021885
-0.006213
-0.032609
0.040351
-0.028040
-0.000787
0.027628
-0.052658
0.017234
0.034375
-0.044143
-0.025654
0.029852
0.011786
0.020194
0.044930
0.019935
0.094336
0.050476
-0.036990
0.017798
0.020827
0.034510
0.088839
0.046651
0.044972
0.065213
0.097414
0.067982
0.127448
0.128353
0.078118
0.163114
0.144770
0.110862
0.132616
0.199739
0.240456
0.176730
0.272078
0.092185
0.225145
0.216700
0.204101
0.213598
0.255037
0.221220
0.226505
0.232727
0.110404
0.187190
0.166042
0.185611
0.120364
0.111347
0.098352
0.120371
0.061878
0.065670
0.095415
0.070600
0.044348
0.052166
0.065962
0.014946
0.068328
0.080042
-0.012283
0.011627
0.060516
0.028382
0.012897
0.056647
-0.052403
-0.010354
0.073422
0.031154
0.098237
0.080954
0.060441
0.065484
0.026218
-0.045124
0.030618
0.064093
0.226075
0.563889
0.829129
1.168201
1.278338
1.314307
1.275413
1.071371
0.769165
0.360036
0.146893
-0.147105
-0.219476
-0.227913
-0.181340
-0.089275
0.008676
0.004755
-0.012483
0.063435
0.011225
0.107120
0.129184
0.094503
0.073578
0.136301
0.069147
0.155074
0.031339
0.112467
0.197573
0.110687
0.124760
0.056971
0.131438
0.156701
0.159041
0.156786
0.190424
0.134672
0.164284
0.236268
0.305136
0.271675
0.249526
0.286326
0.298735
0.390451
0.395488
0.405785
0.436131
0.359413
0.458323
0.494616
0.491347
0.500394
0.511452
0.521207
0.475863
0.524893
0.628958
0.517609
0.538602
0.541527
0.545309
0.601397
0.636816
0.553710
0.584671
0.616522
0.509681
0.461317
0.524790
0.493285
0.436964
0.480399
0.445909
0.444414
0.356959
0.408983
0.261910
0.326859
0.237173
0.308356
0.302846
0.270605
0.313864
0.267688
0.252593
0.211249
0.134479
0.153087
0.129382
0.196770
0.200572
0.070962
0.131438
0.112210
0.018656
0.086980
0.141893
0.107702
0.090983
0.125682
0.092285
0.036599
0.091803
0.230809
0.122825
0.045695
0.049692
0.110389
0.153552
0.106803
0.158117
0.110579
0.033854
0.039165
0.068972
0.072790
0.140688
0.141307
0.161036
0.097892
0.008755
0.020463
0.086983
0.085734
-0.008736
0.180557
0.069146
0.112002
0.069033
0.080291
0.040038
0.114928
0.075816
-0.009782
0.088948
0.040863
0.024279
0.097364
0.014741
0.060246
0.056831
0.117433
0.092758
0.086656
0.111530
0.030364
0.113193
0.041721
0.013737
0.052136
0.192308
0.130354
0.111992
0.032184
0.083414
0.077208
0.026055
0.065432
0.095032
0.056727
0.127599
0.130698
0.082108
0.123776
0.090826
0.043323
0.087442
0.063848
0.093582
0.117164
0.108362
0.080001
0.107019
0.162367
0.171371
0.228957
0.150951
0.185533
0.201306
0.207931
0.187657
0.180897
0.176167
0.256858
0.273250
0.277018
0.175332
0.263253
0.193425
0.262377
0.302438
0.209928
0.248084
0.120857
0.152161
0.179268
0.151786
0.123925
0.142034
0.150384
0.170769
0.110173
0.154186
0.065528
0.165725
0.153668
0.086203
0.007794
0.131623
-0.001075
0.066430
0.091670
0.093578
0.033732
0.054923
-0.041130
0.086838
0.124682
0.116390
0.120799
0.071747
0.046758
0.078305
0.102072
0.059885
0.048749
0.044596
0.025622
0.021791
-0.005858
0.176616
0.404481
0.699858
0.983624
1.314738
1.500000
1.434877
1.149359
0.813876
0.495331
0.178831
-0.014796
-0.162318
-0.272784
-0.270826
-0.101860
-0.149257
0.097039
0.024707
-0.007333
0.045992
0.010077
0.062086
0.057421
0.068713
0.038521
0.118210
0.080527
0.067182
0.167753
0.106302
0.138058
0.070197
-0.006380
0.083372
0.109884
0.154477
0.054813
0.128809
0.169530
0.276386
0.140582
0.220252
0.269785
0.153754
0.284787
0.312224
0.262554
0.291650
0.344969
0.425811
0.323114
0.378823
0.435167
0.406053
0.433614
0.371663
0.461192
0.552216
0.534858
0.577825
0.591465
0.567883
0.593695
0.503202
0.499763
0.575886
0.489267
0.432617
0.517634
0.425312
0.522742
0.470394
0.360153
0.418602
0.389879
0.388006
0.288230
0.357107
0.328972
0.265723
0.259383
0.269008
0.263892
0.202043
0.182071
0.195877
0.109838
0.181987
0.059232
0.063474
0.173481
0.049884
0.176665
0.018806
0.107170
0.055499
0.038297
0.002203
0.053696
-0.023469
-0.014159
-0.002230
0.061703
0.023788
-0.017744
0.031995
0.049320
0.016265
-0.000987
-0.022973
0.017093
-0.014590
-0.036029
0.015475
-0.024732
-0.024954
0.013862
-0.030550
0.000922
0.009865
0.049577
-0.047765
0.025117
-0.019086
0.020942
-0.005887
0.009793
-0.029027
-0.074702
-0.042239
0.035049
-0.066972
-0.089889
0.032147
-0.047576
0.046024
-0.015238
-0.066802
-0.006267
0.003978
-0.077286
-0.011675
-0.057823
0.000176
-0.062587
-0.027759
-0.071506
-0.040345
-0.022339
0.031442
-0.033551
-0.020143
0.002675
-0.016479
-0.028535
0.001901
-0.021548
0.013974
0.014637
0.012465
-0.092286
-0.106705
0.034807
-0.027602
-0.000795
0.055083
-0.059684
0.016953
0.040774
-0.002342
-0.009075
-0.066607
0.001572
-0.010321
-0.046192
-0.020677
0.060817
0.065887
0.128201
0.005928
0.049585
0.088510
0.127130
0.092250
0.134967
0.087087
0.181444
0.119465
0.086044
0.075738
0.118329
0.112821
0.158994
0.100310
0.070626
0.158819
0.159871
0.137832
0.022596
0.115514
0.082981
0.017939
0.091652
0.065081
-0.004455
0.054834
-0.032410
0.036647
0.006712
-0.033895
-0.018985
-0.018523
-0.013171
0.026791
0.047136
-0.144027
-0.043633
-0.003373
-0.026893
-0.056163
-0.027612
0.001399
-0.101092
-0.064257
-0.001777
-0.009030
-0.106810
-0.043639
-0.033282
-0.056502
-0.064879
-0.076253
-0.041087
-0.000567
0.237230
0.455120
0.775253
1.172649
1.264403
1.279887
1.199439
0.912281
0.535063
0.261770
-0.057685
-0.246985
-0.362813
-0.290434
-0.301295
-0.168085
-0.096181
-0.046659
-0.123258
0.012155
-0.024728
-0.083268
0.045484
-0.046541
0.027076
0.009665
-0.049655
0.010935
0.002543
-0.076828
-0.044160
0.028737
-0.004574
-0.011571
0.069334
0.101802
0.026017
0.058697
0.060943
0.112119
0.095104
0.063854
0.109709
0.156794
0.147422
0.275075
0.264563
0.216249
0.334781
0.264935
0.266594
0.342123
0.269634
0.390083
0.348384
0.381744
0.425161
0.423957
0.461778
0.395637
0.413760
0.453475
0.477478
0.457265
0.480444
0.435784
0.449480
0.497753
0.444855
0.382697
0.392961
0.508768
0.378815
0.379647
0.389401
0.356711
0.334796
0.391815
0.198797
0.262216
0.294358
0.279216
0.173573
0.110769
0.191553
0.137902
0.124790
0.062097
0.077311
0.027716
0.051520
0.080654
0.019644
0.105051
0.081479
0.027717
-0.046516
0.016059
0.011852
0.001581
0.000652
0.009808
-0.006962
-0.026665
0.002855
-0.069394
-0.027635
0.016175
-0.056578
0.006399
-0.003095
-0.012156
-0.096604
-0.062147
-0.028303
-0.019410
0.032957
0.028817
-0.096135
0.061887
0.006991
0.027980
-0.072896
-0.004337
-0.034137
-0.053816
0.021709
0.021710
-0.110534
-0.010066
-0.018840
0.005100
0.004785
0.012682
0.015011
-0.008124
0.029929
0.029921
0.050538
0.021772
0.040206
-0.013255
-0.030955
-0.008855
-0.061392
0.017924
0.010990
-0.009898
0.035683
-0.028321
-0.093347
-0.012527
-0.029049
-0.025773
-0.027784
0.065456
0.027051
-0.035385
-0.027965
0.016731
-0.034810
0.050984
-0.032288
-0.076134
0.060206
-0.003506
0.000849
-0.006048
-0.022379
0.040836
0.066880
0.099729
0.083154
0.049516
0.053037
0.100789
0.043176
0.059472
0.047260
0.109800
0.166511
0.121214
0.113490
0.148928
0.071127
0.126350
0.144990
0.253177
0.165681
0.163783
0.219975
0.174410
0.201196
0.143300
0.218746
0.187319
0.110137
0.256596
0.159153
0.133425
0.149204
0.292838
0.139618
0.150073
0.156506
0.117654
0.098978
0.093168
0.117775
0.060432
0.112579
0.070311
0.165889
0.094088
0.044962
0.066238
0.070376
0.043551
0.013276
0.134694
0.030906
0.044004
0.122006
0.039832
0.063315
0.007576
0.023480
0.020550
0.045962
-0.007709
-0.097872
-0.067201
0.049709
0.035636
0.211718
0.469787
0.716847
1.145000
1.348157
1.408653
1.280910
1.095533
0.770012
0.476395
0.108507
-0.134768
-0.222854
-0.248125
-0.189542
-0.140979
-0.042346
-0.027333
0.066612
0.086038
0.021251
0.096537
0.091255
0.094629
0.088112
0.050650
0.069194
0.062730
0.104273
0.028154
0.140348
0.146783
0.081577
0.183321
0.146592
0.083104
0.164549
0.152541
0.177074
0.161714
0.222069
0.255238
0.177466
0.227862
0.366372
0.287316
0.288899
0.335399
0.329164
0.299549
0.382190
0.359684
0.444385
0.443492
0.465388
0.508381
0.468335
0.541604
0.484981
0.497222
0.500708
0.567550
0.661940
0.584955
0.516530
0.577278
0.607713
0.559745
0.546801
0.485393
0.494873
0.481998
0.552266
0.458120
0.414231
0.457725
0.442134
0.446706
0.445729
0.354309
0.383520
0.327605
0.282943
0.302305
0.272582
0.355459
0.190366
0.185248
0.226283
0.053364
0.209448
0.179949
0.135747
0.210933
0.115649
0.083513
0.108191
0.097918
0.088700
0.113216
0.082533
0.047507
0.109541
0.082308
0.108614
0.126335
0.138654
0.094113
0.085320
0.133116
0.128409
0.080430
0.115952
0.127920
0.117224
0.095393
0.116739
0.062450
0.117025
0.102949
0.125288
0.128724
0.034931
0.048174
0.051160
0.073862
0.016238
0.020709
0.074801
0.108123
0.073080
0.031509
0.072469
-0.005262
0.093693
0.170868
0.121597
0.004389
0.185486
0.107860
0.095032
0.063308
0.063609
0.104190
0.097885
0.025882
0.091843
0.140581
-0.019470
0.119871
0.112550
0.150944
0.136713
0.107988
0.098875
0.091528
0.129239
0.121910
0.168924
0.067886
0.107438
0.070010
0.084704
0.061276
0.049262
0.117029
0.081229
0.115540
0.088798
0.102398
0.041883
0.062408
0.087845
0.098599
0.091542
0.173681
0.133761
0.185936
0.145660
0.182477
0.220674
0.146054
0.137849
0.207356
0.297649
0.203577
0.240101
0.204870
0.204680
0.244037
0.247898
0.236456
0.288071
0.273657
0.231583
0.243837
0.205128
0.274717
0.204743
0.159154
0.204952
0.223616
0.204564
0.220033
0.136599
0.154962
0.207144
0.086352
0.123044
0.127934
0.150386
0.103928
0.146708
0.015188
0.172978
0.094161
0.067079
0.126367
0.116727
0.096938
0.023459
0.100697
0.104202
-0.044512
0.094736
0.096243
0.111579
0.136308
0.067621
0.073390
0.062790
0.006967
0.035839
0.108833
0.183309
0.490287
0.568886
1.070455
1.228833
1.445532
1.333261
1.196945
0.934099
0.568136
0.274798
-0.031652
-0.152920
-0.203426
-0.121628
-0.125962
-0.095072
-0.080963
0.096820
0.016953
0.052740
0.015406
0.087713
0.067001
0.018070
0.019471
0.063404
0.108915
0.120714
0.164880
0.071132
0.162828
0.172259
0.118231
0.195605
0.180437
0.099226
0.172174
0.197450
0.190185
0.281931
0.296682
0.214856
0.245300
0.224452
0.232169
0.305999
0.282382
0.379818
0.357519
0.400062
0.347431
0.443208
0.452047
0.427455
0.430184
0.500676
0.555801
0.483098
0.580621
0.472968
0.524999
0.461478
0.480891
0.444978
0.562329
0.487765
0.542696
0.484293
0.501941
0.487724
0.410261
0.439758
0.529855
0.521628
0.458104
0.330886
0.358437
0.332493
0.298826
0.243420
0.219419
0.295293
0.217482
0.213698
0.215607
0.133601
0.221910
0.109151
0.147646
0.114414
0.134713
0.113965
0.082612
0.116343
0.032215
0.070297
0.109449
0.094431
0.012039
0.047783
0.109794
0.029745
-0.056555
0.000388
0.059964
-0.006585
0.028677
-0.044483
-0.047959
0.022971
0.066653
-0.023740
0.012161
0.009943
-0.070429
0.000281
0.033208
-0.031137
-0.007140
-0.033896
0.066621
-0.042085
0.071529
0.014283
0.029012
-0.019936
0.028624
-0.041825
-0.044897
-0.052239
-0.021926
-0.015266
-0.044129
0.012443
-0.034986
0.045143
-0.011319
0.031406
-0.095324
0.024065
-0.074098
-0.055819
0.013247
-0.085042
-0.005010
-0.079389
0.045290
0.063785
-0.011063
-0.010072
0.030331
-0.058064
0.014805
-0.031455
0.068864
-0.030850
-0.069044
-0.063475
-0.043620
-0.022713
0.002790
-0.108666
-0.017007
-0.020346
0.018397
-0.030812
-0.024446
-0.076120
0.007118
-0.040831
0.026758
0.039221
0.010973
-0.010342
-0.057869
-0.058438
-0.050517
0.002736
0.025250
-0.015448
0.063446
-0.003690
0.094712
0.072446
0.104083
0.112276
0.178486
0.088685
0.166750
0.147414
0.199169
0.148491
0.020789
0.147058
0.109266
0.067581
0.089769
0.105468
0.111584
0.101816
0.033276
0.053914
0.018281
0.029719
0.070215
0.024701
-0.003725
0.023752
0.025293
0.000180
-0.000755
-0.043962
0.059463
-0.114186
-0.111881
0.012374
-0.036206
-0.029528
-0.069624
-0.055819
-0.138885
0.043407
-0.029153
0.041415
-0.016647
-0.050223
-0.085821
0.002838
-0.025742
-0.183799
-0.007562
-0.093301
-0.042022
0.018514
0.141694
0.373023
0.698755
1.060532
1.236722
1.300790
1.210078
0.882398
0.586524
0.155841
-0.084520
-0.219854
-0.361796
-0.259540
-0.264301
-0.180779
-0.113525
-0.074548
-0.133211
-0.050531
-0.071985
-0.037324
-0.038542
-0.029590
-0.007319
0.012123
-0.003695
-0.059050
-0.075254
-0.080351
-0.118705
-0.084167
-0.072849
-0.086211
0.011727
-0.024762
-0.021386
0.039057
0.068080
-0.003829
0.042166
0.085861
0.082341
0.147090
0.222564
0.066293
0.193577
0.228818
0.291360
0.196953
0.326035
0.233131
0.327599
0.309586
0.377328
0.328172
0.389176
0.403418
0.330887
0.402476
0.420683
0.361850
0.465851
0.411056
0.470540
0.416974
0.412716
0.430134
0.356298
0.392000
0.343531
0.373659
0.355586
0.400033
0.260731
0.278235
0.210378
0.268664
0.261707
0.269122
0.184302
0.124070
0.106362
0.135913
0.067443
0.108337
0.050458
0.058481
0.116310
0.048316
0.077168
0.024797
-0.031979
-0.054318
0.014590
0.025975
-0.015103
-0.021447
-0.037082
-0.058300
-0.106782
-0.087105
-0.002456
-0.018587
-0.013389
-0.116665
-0.020799
-0.013743
-0.060045
-0.106521
-0.021865
-0.119253
-0.092708
-0.126223
-0.084819
-0.064160
-0.126565
-0.027265
-0.114156
-0.057768
-0.102181
0.018277
-0.072022
-0.151236
-0.115066
0.014852
-0.099247
-0.065540
-0.101952
-0.070706
-0.024773
-0.068258
-0.080650
-0.111760
0.035572
-0.077002
-0.125770
-0.035686
-0.120229
-0.087464
-0.150126
-0.088540
-0.056033
-0.077450
-0.104676
-0.066717
-0.181272
-0.084350
-0.061350
-0.087997
-0.058360
-0.045366
-0.130040
-0.047326
-0.125244
-0.031356
-0.001772
-0.085128
-0.022431
-0.061209
-0.102567
0.049294
-0.094941
0.022257
-0.008007
0.002927
-0.035689
-0.019367
-0.094704
-0.008651
-0.053947
0.025512
0.001557
-0.027526
-0.034620
-0.034671
0.003929
-0.046635
0.040695
-0.041090
0.011245
0.092702
0.093393
0.015149
0.111635
0.011798
0.062908
0.098636
0.121256
0.115880
0.201168
0.127195
0.113633
0.102456
0.069425
0.108025
0.142130
0.105343
0.088122
0.053032
0.111895
0.051754
0.022965
0.054117
0.097012
-0.071498
-0.007899
0.067264
0.015880
0.025227
0.014435
-0.040450
-0.054296
0.078356
0.052449
-0.089109
-0.021596
0.029427
-0.058911
0.016988
-0.012401
-0.047234
-0.023950
-0.043251
-0.022544
-0.080572
-0.054482
0.051500
-0.026382
-0.072379
0.004297
-0.116367
-0.053769
0.023381
0.180063
0.245818
0.615736
0.923178
1.280034
1.303773
1.302603
1.061191
0.716282
0.447545
0.074293
-0.151087
-0.269504
-0.299683
-0.244194
-0.156637
-0.076000
-0.043724
-0.022592
-0.036447
-0.048667
0.002016
-0.011463
0.028793
0.110518
0.016724
0.069988
0.025109
-0.029880
-0.016485
0.013570
0.005916
0.004001
0.008956
0.037747
0.140235
0.091812
0.076729
0.203718
0.107050
0.125836
0.217857
0.141962
0.159193
0.154992
0.322781
0.265858
0.273647
0.258731
0.278892
0.401196
0.394374
0.336929
0.340193
0.316814
0.396453
0.492816
0.495750
0.537129
0.432901
0.447586
0.545713
0.444663
0.547324
0.526328
0.496279
0.447376
0.370156
0.528186
0.407883
0.433399
0.399017
0.376258
0.367510
0.359854
0.353062
0.383305
0.374246
0.286238
0.336287
0.221315
0.250504
0.240778
0.227130
0.211240
0.267736
0.176178
0.186721
0.151060
0.160804
0.135004
0.106578
0.099571
0.049265
0.034736
0.038333
0.027744
-0.006986
0.019824
0.059362
0.043705
-0.009381
0.038000
0.063785
-0.015799
0.029983
0.064341
0.047981
-0.006795
0.023585
0.020647
0.054347
0.036868
-0.009941
0.066166
0.060691
-0.023858
0.073319
0.011630
-0.021301
-0.037330
0.056977
0.088764
0.088976
0.073740
-0.003821
0.033132
0.011210
0.027234
0.026238
0.008635
0.117295
0.052698
0.022749
-0.001448
0.027991
0.075959
0.139614
-0.019500
0.057953
0.004943
0.031333
0.024641
-0.006810
-0.003598
0.047541
0.061530
0.015898
0.100633
-0.008351
0.074514
0.076649
0.010254
0.057227
-0.004836
0.021809
0.018189
0.000156
0.078705
-0.028364
0.064542
0.060290
0.024844
-0.047457
0.032202
0.066422
0.009596
0.031650
0.006318
0.142167
0.029778
0.009544
0.061166
0.156419
0.162657
0.180956
0.189984
0.104872
0.109546
-0.009165
0.096584
0.084752
0.188433
0.109387
0.164719
0.195774
0.163063
0.159794
0.174880
0.157040
0.208631
0.226755
0.251915
0.186096
0.157824
0.188107
0.193220
0.175186
0.193067
0.207172
0.181513
0.171269
0.126313
0.176684
0.092613
0.105780
0.094153
0.039090
0.083339
0.149593
0.094515
0.056541
0.032130
0.091174
0.006871
0.121352
0.084454
0.069843
0.046944
0.029611
0.035803
-0.016297
0.001905
0.054273
0.098805
-0.012588
-0.000013
0.057006
0.031102
0.026049
0.037269
-0.039409
0.063025
0.008593
0.120554
0.303486
0.611481
1.015967
1.251168
1.438314
1.272029
1.190660
0.900673
0.576740
0.326269
-0.054137
-0.174331
-0.181765
-0.206093
-0.124617
-0.042215
-0.001554
-0.008258
0.005438
0.032618
0.037184
0.050970
0.005339
-0.010198
0.041533
0.073673
0.036138
0.144369
0.058648
0.132682
0.120484
0.063474
0.129351
0.047418
0.045367
0.121805
0.059785
0.157022
0.069335
0.150713
0.250696
0.263817
0.215165
0.233466
0.226347
0.214013
0.270307
0.339091
0.344564
0.316065
0.345869
0.437267
0.367533
0.409866
0.441463
0.497020
0.509025
0.425747
0.409182
0.470641
0.490022
0.485365
0.499915
0.563852
0.460066
0.486736
0.557286
0.539665
0.474868
0.508293
0.472978
0.444837
0.491607
0.394798
0.433498
0.398509
0.347743
0.317589
0.318460
0.222327
0.266908
0.270998
0.204370
0.202597
0.170569
0.201015
0.164077
0.162082
0.130442
0.108821
0.068939
0.037503
0.052803
0.083107
0.154853
0.134294
0.007258
0.081091
0.051167
-0.027835
0.076110
0.090157
0.054785
0.064885
0.005188
0.020751
0.077127
0.011601
0.071963
0.032471
0.015115
0.006224
0.063734
0.075573
0.024409
-0.017424
-0.006794
-0.078263
-0.050554
-0.004456
0.033095
0.051541
-0.002451
-0.035490
-0.027853
0.040866
-0.111575
0.007853
-0.076586
0.047631
-0.133205
-0.122285
-0.015124
-0.029447
0.004875
-0.026479
0.026906
-0.041554
-0.000896
0.033770
-0.005747
-0.035576
-0.021830
-0.094339
0.089902
-0.031423
0.018931
-0.017178
0.008532
-0.024777
0.012414
0.029127
-0.058086
-0.004107
-0.023634
0.024427
-0.059119
-0.017253
-0.049923
0.040521
-0.092068
-0.034873
-0.051657
-0.054342
0.010353
-0.095390
0.018165
-0.035965
-0.013002
-0.064835
-0.008036
-0.041555
-0.040364
0.036241
0.064116
-0.017556
-0.069877
0.072366
-0.002098
0.091476
-0.008765
0.061163
0.087966
0.059760
0.112103
0.043897
0.186111
0.133919
0.125808
0.169183
0.130599
0.131153
0.146717
0.155447
0.087969
0.164303
0.025423
0.055051
0.155255
0.160672
0.114918
0.051135
-0.041496
0.050764
0.039073
0.045118
0.018234
0.013579
0.060929
-0.029107
-0.000994
0.033358
-0.058914
-0.039151
-0.079877
0.017975
-0.024089
0.003628
-0.091822
-0.145708
-0.049237
0.007538
-0.134582
-0.098465
-0.039064
-0.025033
-0.118290
-0.095347
-0.063983
-0.086286
-0.127549
-0.074041
-0.111210
-0.100553
0.131332
0.440459
0.661613
0.993637
1.235290
1.358388
1.259973
0.966250
0.530813
0.238807
0.050648
-0.220443
-0.416223
-0.392732
-0.261548
-0.196487
-0.125120
-0.122593
-0.135154
-0.076413
-0.068997
-0.027179
-0.090193
-0.144676
-0.051619
-0.079099
-0.029556
-0.087458
-0.129497
-0.007712
-0.060699
-0.017031
-0.048118
-0.041583
0.018064
0.057022
-0.036587
-0.001115
-0.009119
0.088144
0.014715
0.109331
0.122068
0.060426
0.120433
0.207319
0.133251
0.122502
0.195069
0.205888
0.184958
0.334047
0.287366
0.186116
0.310751
0.346690
0.384335
0.324968
0.375324
0.388670
0.345624
0.400652
0.333311
0.444622
0.400862
0.355715
0.325244
0.377144
0.427707
0.373036
0.294790
0.266628
0.272494
0.321768
0.344820
0.285901
0.282937
0.275998
0.227920
0.139191
0.153609
0.138158
0.158180
0.097811
0.063213
0.095125
0.023645
0.046955
0.013708
-0.000048
0.025650
-0.021289
-0.049451
-0.005447
0.047316
-0.025006
-0.006923
-0.048713
-0.029535
-0.081231
-0.037844
-0.038796
-0.093005
-0.081953
-0.013003
-0.111966
-0.024595
-0.005646
-0.125546
-0.086836
-0.116785
-0.121018
-0.085342
-0.096914
-0.103690
-0.044186
-0.043286
-0.091938
-0.071031
-0.108320
-0.132903
-0.028479
-0.089487
-0.167312
-0.070119
-0.150281
-0.164153
-0.078646
-0.052681
-0.134828
-0.045227
-0.100566
-0.139787
-0.067377
-0.064584
-0.162994
-0.142811
-0.121061
-0.129946
-0.058603
-0.123560
-0.058276
-0.095766
-0.057565
-0.147729
-0.076854
-0.052405
-0.103469
-0.051958
-0.112174
-0.092852
-0.097431
-0.078918
-0.032710
-0.083716
-0.137627
-0.021922
-0.093354
-0.048209
-0.063534
-0.086814
-0.074575
-0.135018
-0.057181
-0.065015
-0.145808
-0.051961
-0.053731
-0.134426
-0.093765
-0.139714
-0.002801
-0.062780
-0.098231
-0.082453
-0.009985
-0.042948
-0.015085
-0.006455
0.012962
-0.079185
0.038341
0.008460
0.084429
0.025262
0.042879
-0.037633
0.034181
0.028185
0.112393
0.116509
0.071065
-0.005894
0.084600
0.075671
0.143143
0.130133
0.050573
0.050687
0.020452
0.065741
0.094093
0.029763
0.056542
-0.007956
0.012411
-0.036342
0.004876
-0.052962
0.017196
-0.000816
0.058970
-0.079152
-0.052732
-0.133275
-0.028377
-0.078452
-0.036530
-0.030884
-0.152155
-0.087573
-0.087025
-0.062098
-0.116887
-0.030698
-0.093317
-0.031571
-0.011921
-0.051139
-0.100872
-0.183928
-0.149678
-0.110517
-0.031969
0.068876
0.309910
0.570634
0.910270
1.206948
1.276050
1.209970
1.051082
0.708476
0.408191
0.105636
-0.190198
-0.370109
-0.375971
-0.301792
-0.236201
-0.108549
-0.170209
-0.096639
-0.041215
-0.062491
-0.083588
-0.065679
-0.088755
-0.056551
-0.111599
-0.019703
0.041393
0.016246
0.043496
-0.043877
-0.070315
-0.035857
0.038571
0.024932
0.111982
0.026553
0.026816
0.079373
0.137639
0.160015
0.161740
0.145581
0.140188
0.184412
0.140109
0.227085
0.258529
0.302999
0.276206
0.326554
0.318536
0.402282
0.314637
0.385056
0.470904
0.466851
0.418364
0.389188
0.458620
0.412059
0.483571
0.504656
0.509220
0.447876
0.454362
0.458289
0.465800
0.458019
0.425660
0.519229
0.444189
0.425395
0.362133
0.372809
0.415268
0.307635
0.372003
0.361567
0.267285
0.274455
0.292929
0.212884
0.161666
0.231036
0.143675
0.129474
0.123908
0.161094
0.136103
0.074963
0.071619
0.112442
0.065949
0.054815
0.037606
0.040097
0.036254
0.007507
0.029849
0.008020
0.039312
0.040857
0.002542
-0.046250
0.020104
0.096839
0.020796
0.000895
-0.068436
-0.084155
0.086741
0.037689
-0.031778
-0.035063
0.084592
0.036060
-0.001557
0.024599
0.006417
0.025630
0.011153
-0.085574
-0.009719
0.043930
0.017326
0.009917
0.002786
0.053372
-0.083146
0.035899
0.040311
0.038770
0.080307
-0.058018
-0.019044
0.087134
0.059282
0.019216
-0.007041
0.058746
0.041909
-0.000650
0.081184
-0.043861
0.024292
-0.099422
-0.029720
0.037283
0.072825
-0.003958
0.026952
0.055820
0.021455
0.029921
0.051250
0.006686
-0.010422
0.024417
0.077609
-0.009603
0.054099
0.012180
0.020238
0.026317
0.054585
0.105038
0.017340
0.039413
0.092537
0.015074
0.007073
-0.004653
0.077494
-0.010259
0.030586
0.077109
0.111094
0.059816
0.224258
0.113813
0.084777
0.146465
0.126757
0.194016
0.163876
0.180731
0.200787
0.238501
0.206253
0.265001
0.228956
0.228310
0.230619
0.178710
0.288484
0.237134
0.157760
0.215791
0.232300
0.189284
0.201629
0.191363
0.141677
0.151272
0.159704
0.075609
0.043594
0.117336
0.017954
0.111526
0.036476
0.122231
0.090629
0.132410
0.110196
0.105635
-0.005042
0.043866
0.116545
0.024378
0.108516
0.079944
-0.006218
0.049811
0.029424
0.056769
0.074334
0.030648
0.050017
0.131926
-0.023706
-0.037695
-0.000685
0.183677
0.339871
0.574105
0.904552
1.177173
1.396710
1.444142
1.303879
0.984277
0.621904
0.324379
0.020913
-0.118898
-0.232532
-0.231801
-0.170856
-0.042835
0.033468
-0.089339
0.079304
0.116199
0.043010
0.024048
0.096965
0.014708
0.076939
0.092071
0.074993
0.096236
0.188830
0.149029
0.119806
0.089391
0.136314
0.106145
0.169315
0.129159
0.145626
0.204661
0.209841
0.241519
0.167398
0.287162
0.296779
0.219784
0.295746
0.311927
0.361858
0.339153
0.351371
0.401326
0.439416
0.376962
0.454019
0.412714
0.544906
0.605376
0.581052
0.536597
0.504728
0.525418
0.569430
0.487563
0.502135
0.543871
0.467243
0.551952
0.547609
