0.020973
0.008204
-0.065485
-0.023531
0.019770
0.026001
0.025808
0.054599
0.084591
-0.011545
0.008050
0.054958
-0.019279
0.021152
0.078609
0.093876
-0.013932
0.000796
0.027225
-0.044234
0.003651
0.004067
0.083455
0.049251
0.003793
0.017160
-0.033416
0.071320
0.021070
0.031666
0.104004
0.112652
0.068793
0.128938
0.130425
0.243270
0.205147
0.172399
0.123993
0.163937
0.238852
0.173437
0.207377
0.199073
0.267758
0.169637
0.216621
0.180895
0.193908
0.141182
0.178214
0.171809
0.093315
0.171436
0.128097
0.100146
-0.003150
0.085877
0.151027
0.035387
0.024679
0.073713
0.044330
0.186702
0.086696
0.122602
0.030811
0.081716
0.011774
0.020096
0.043809
0.030695
0.041112
0.014703
0.116525
0.075686
0.030977
0.066378
0.096412
0.346573
0.631531
0.965830
1.283121
1.396681
1.362176
1.234670
0.907448
0.533670
0.198729
-0.084398
-0.261510
-0.126333
-0.038284
-0.061515
-0.043051
-0.040567
0.036840
0.077591
0.016618
0.103254
0.176435
0.104446
0.130594
0.106569
0.135434
0.130276
0.160689
0.138129
0.174966
0.137614
0.239145
0.105984
0.255240
0.155355
0.243500
0.375662
0.254392
0.351019
0.355400
0.299459
0.396548
0.359071
0.437952
0.422063
0.411753
0.463078
0.423684
0.505139
0.483122
0.594736
0.578216
0.671356
0.578682
0.580593
0.560394
0.585889
0.633018
0.650062
0.621453
0.480972
0.522936
0.528749
0.519881
0.503789
0.407949
0.544467
0.463531
0.442120
0.437404
0.379073
0.363659
0.307296
0.400037
0.362838
0.345892
0.286801
0.224229
0.206405
0.266522
0.225405
0.270020
0.207358
0.232811
0.154743
0.181085
0.185110
0.139676
0.256989
0.108760
0.084862
0.211541
0.140205
0.188210
0.011555
0.072319
0.051081
0.123175
0.060903
0.074011
0.056853
0.138845
0.096464
0.035167
0.066634
0.128578
0.096036
0.063879
0.018096
0.030304
0.127989
0.076360
0.107403
0.079984
0.148889
0.137785
0.064552
0.091879
0.142383
0.040207
0.091363
0.150554
0.158775
0.103017
0.128583
0.041752
0.160799
0.099217
0.120051
0.037353
0.105694
0.067224
0.104129
0.072236
0.186111
0.078589
0.025431
0.169378
0.056038
0.053198
0.109626
0.094969
0.165502
0.058821
0.090244
0.080112
0.003366
0.146396
0.140648
0.087449
0.073717
0.095180
0.078420
0.121047
0.113929
0.132563
0.133925
0.246936
0.148081
0.166143
0.215011
0.215916
0.147207
0.235682
0.167161
0.182077
0.145194
0.254433
0.260143
0.230793
0.315628
0.337124
0.196740
0.200610
0.217933
0.204051
0.221078
0.296656
0.258411
0.134377
0.252183
0.148907
0.159223
0.141984
0.110129
0.114310
0.103096
0.095924
0.049649
0.141400
0.113073
0.132894
0.100597
0.052825
0.058680
0.089462
0.157225
0.085679
0.040051
0.093563
0.126195
0.042116
-0.014455
0.077122
0.049559
-0.002066
0.047394
0.121476
0.316395
0.524609
0.843351
1.211287
1.396524
1.500000
1.371795
0.986634
0.756394
0.358915
0.029269
-0.132630
-0.145555
-0.107594
-0.005117
-0.014931
0.094276
0.169728
-0.008316
0.103117
0.074708
0.018710
0.099985
0.088219
0.093902
0.044540
0.166180
0.090981
0.202729
0.131108
0.141872
0.184136
0.159894
0.271429
0.131832
0.279133
0.244551
0.280310
0.277919
0.296165
0.275256
0.400336
0.381030
0.409172
0.381559
0.464142
0.422264
0.455453
0.510143
0.520626
0.568725
0.520897
0.593592
0.620108
0.501724
0.498632
0.599881
0.587246
0.671098
0.587487
0.556935
0.544850
0.592520
0.538468
0.475863
0.445395
0.519586
0.535463
0.458674
0.477853
0.412401
0.368197
0.317232
0.229699
0.264606
0.301652
0.271825
0.188226
0.221152
0.144685
0.142855
0.215442
0.138226
0.146958
0.016806
0.079945
0.100782
0.053868
0.127189
0.039648
0.145707
0.128765
-0.004552
0.002473
0.083679
0.031687
-0.057325
0.020448
0.097416
0.011328
0.134921
0.033522
0.083570
0.050672
-0.030030
0.046994
-0.031907
0.042336
-0.007550
0.016826
0.024929
-0.057965
0.002248
0.041469
0.072453
0.023589
-0.010168
-0.001445
0.064849
0.027265
0.017345
0.067612
-0.029459
0.032965
0.011216
-0.006573
-0.017381
0.026620
0.069205
-0.001569
0.043489
0.070132
0.056397
-0.037751
0.059656
0.078486
0.057903
-0.090048
-0.103194
0.009841
0.036182
0.041235
-0.003330
0.002613
0.001090
-0.009446
-0.036651
-0.013546
0.041787
-0.008255
0.028439
0.066348
0.027207
-0.021082
0.010110
0.053343
0.007034
0.012749
0.000603
-0.032034
0.132204
-0.014810
0.048848
0.108851
0.131028
0.165527
0.130405
0.244323
0.171218
0.072612
0.077580
0.176196
0.079776
0.109594
0.147445
0.003264
0.138855
0.144851
0.119477
0.030689
0.102165
0.073822
0.056071
0.108962
0.058349
0.117447
0.023541
0.029263
0.059063
-0.012646
0.025950
0.025451
-0.018831
-0.134159
0.020103
0.051255
0.023646
-0.085752
0.056784
-0.107856
-0.009693
-0.064788
-0.055881
-0.117003
0.007177
-0.109546
-0.026961
0.010666
0.105966
0.285765
0.629177
1.041138
1.283297
1.356400
1.247682
1.002348
0.687113
0.333285
0.046412
-0.246758
-0.344369
-0.298893
-0.227213
-0.096234
-0.111118
-0.072882
-0.116989
0.017137
0.044784
-0.052376
-0.071325
-0.038350
0.038214
0.024397
0.010599
-0.004041
0.073212
0.080265
0.109103
0.042224
0.060037
0.073514
0.127815
0.160811
0.177833
0.154977
0.264821
0.219972
0.260705
0.243480
0.223614
0.309401
0.367605
0.291603
0.308767
0.375464
0.422425
0.375110
0.428462
0.455291
0.462387
0.528673
0.536537
0.462315
0.476410
0.457602
0.391789
0.488863
0.424985
0.494302
0.403416
0.402267
0.487943
0.397415
0.388758
0.361507
0.303272
0.209470
0.291959
0.384966
0.266555
0.235794
0.281733
0.186041
0.237537
0.188493
0.105271
0.087877
0.077013
0.100964
0.172819
0.067558
0.016702
0.064583
0.085846
0.004217
0.033562
-0.081391
0.024556
-0.111219
-0.019082
-0.092767
-0.070577
0.024156
-0.018507
-0.005245
-0.060204
-0.094268
0.012255
-0.091412
0.023481
-0.062522
-0.002009
-0.040736
-0.076527
0.033572
-0.121018
0.022736
-0.148932
0.010069
-0.071881
-0.029790
-0.100475
-0.068816
-0.065297
0.069367
-0.053975
0.000795
0.007140
-0.004082
0.011762
0.018594
0.004440
-0.003130
-0.033677
-0.047698
-0.048455
-0.090587
0.079718
-0.002255
-0.036677
-0.087096
0.003438
-0.065285
-0.068211
-0.009543
-0.057934
-0.004386
-0.030047
0.075230
0.017061
-0.051024
0.008722
-0.015171
-0.042787
-0.100944
-0.002085
-0.065936
0.056813
-0.004714
0.094162
0.053367
0.023172
0.052469
0.013049
0.020785
0.015995
-0.030497
0.016802
0.047435
0.094354
0.109202
0.126633
0.191391
0.119632
0.023956
0.132786
0.075639
0.109081
0.162095
0.225650
0.171124
0.194509
0.113223
0.176043
0.125169
0.130148
0.083285
0.162475
0.037580
0.022018
0.152930
0.034200
0.067866
0.029666
0.007320
0.038428
-0.023052
-0.005475
0.011923
0.011529
-0.067851
-0.009089
-0.039142
0.063995
-0.025048
0.063978
-0.107269
-0.027099
-0.051979
-0.043911
0.022280
0.030045
-0.077374
-0.109139
0.011825
0.139630
0.303441
0.590252
0.967590
1.202107
1.311261
1.389414
1.173952
0.831535
0.463110
0.111630
-0.134034
-0.239205
-0.211320
-0.173350
-0.060417
-0.044847
-0.000375
-0.003587
0.058898
0.063981
0.110586
-0.018731
0.052387
0.007573
-0.011833
0.082507
0.130430
0.126349
0.091165
0.116597
0.077044
0.137599
0.113956
0.096422
0.291993
0.137555
0.259866
0.252754
0.256378
0.196769
0.258733
0.350200
0.300588
0.443799
0.409617
0.320079
0.392242
0.407534
0.479040
0.440796
0.564567
0.491094
0.499440
0.486562
0.415876
0.444435
0.513390
0.545415
0.545763
0.515078
0.408726
0.545670
0.412244
0.472170
0.490068
0.493020
0.478952
0.502393
0.391481
0.351956
0.343957
0.460313
0.294036
0.388799
0.259085
0.219695
0.275532
0.196680
0.188513
0.222013
0.236739
0.211916
0.089781
0.089788
0.178374
0.115907
0.197223
0.111805
0.179507
0.057271
0.058060
0.094594
0.082251
0.099713
0.106003
0.029775
0.061194
-0.000749
0.079744
0.163887
0.145744
0.086276
0.015534
0.056156
0.027919
0.005390
0.061374
0.080434
0.026695
0.003366
0.000861
0.022997
0.077522
-0.047860
0.090283
0.068529
0.085210
0.041467
0.038577
0.061091
0.049775
0.038867
0.044484
0.080772
-0.006856
0.103866
0.090344
0.071414
0.078254
0.167655
0.048323
0.047639
0.140613
0.008011
0.068282
0.083047
0.142836
0.001424
0.060418
0.110800
0.081059
0.145715
0.131266
-0.018166
0.048229
0.086961
0.082416
0.009672
0.107745
0.186486
0.158502
0.019297
0.183960
0.126288
0.115176
0.077637
0.076517
0.154538
0.121272
0.244051
0.097098
0.209843
0.122413
0.152192
0.260078
0.295450
0.279351
0.295641
0.262286
0.246565
0.194476
0.206842
0.211811
0.278533
0.222169
0.212281
0.224611
0.196590
0.195015
0.189221
0.224601
0.184061
0.196868
0.177124
0.236296
0.160182
0.149536
0.217484
0.147928
0.127305
0.073810
0.087410
0.063871
0.076987
0.157755
0.052694
0.116281
0.085682
0.134748
0.075283
0.023678
0.058409
0.058973
0.103152
0.120214
0.053457
0.118441
0.113144
0.368227
0.502905
0.891496
1.152820
1.421629
1.468628
1.355979
1.076487
0.706100
0.274361
0.100206
-0.160142
-0.196742
-0.175953
-0.073397
0.040709
0.060886
0.079665
-0.001848
0.049698
0.150404
0.130399
0.101634
0.164934
0.106841
0.149239
0.208582
0.115798
0.169955
0.136712
0.211845
0.227306
0.214065
0.222495
0.372292
0.271428
0.358668
0.297781
0.391171
0.365258
0.384136
0.373140
0.393545
0.415659
0.436874
0.471541
0.442110
0.454619
0.486657
0.532541
0.528482
0.634039
0.557844
0.593378
0.621734
0.642041
0.598927
0.594648
0.551674
0.591947
0.535850
0.547843
0.584228
0.597878
0.504619
0.546560
0.446202
0.491042
0.400630
0.427967
0.366441
0.356592
0.297132
0.278577
0.321765
0.288480
0.325614
0.376040
0.373624
0.194455
0.203664
0.219589
0.312476
0.237055
0.158661
0.143274
0.173994
0.186274
0.181014
0.133676
0.235139
0.125326
0.059035
0.213511
0.130027
0.136211
0.158820
0.073085
0.065814
0.026961
0.159889
0.120612
0.100589
0.088604
0.093090
0.079580
0.056494
0.129848
0.059851
0.090638
0.080999
0.070899
0.100047
0.113178
0.057577
0.074109
0.100119
0.037502
0.113496
0.027226
0.117782
0.063941
0.083056
0.074277
0.096021
0.053365
0.047147
0.068982
0.085515
0.061231
0.092935
0.094186
0.084325
0.098603
-0.008779
0.052899
0.130816
0.022342
0.143985
0.012115
0.069250
0.101175
0.088573
0.009796
0.130651
0.105636
0.141379
0.051650
0.114796
0.080031
0.080591
0.062575
0.097539
0.119571
0.134200
0.137477
0.206820
0.132176
0.032739
0.125984
0.151583
0.161321
0.027273
0.174539
0.279491
0.232939
0.245054
0.189532
0.188634
0.189127
0.236483
0.202884
0.182994
0.169931
0.269151
0.134609
0.091387
0.090516
0.180817
0.199702
0.142061
0.190976
0.089520
0.165121
0.057800
0.132198
0.076786
0.071703
0.157831
0.049232
0.050189
0.022531
0.032715
-0.014180
0.020397
0.037268
0.032911
0.013268
0.003220
0.075814
0.026184
-0.000554
0.053180
0.081961
0.053209
0.004454
0.066366
-0.037724
0.154032
0.472680
0.634377
1.063972
1.289433
1.344392
1.316440
1.097603
0.707912
0.344729
0.050498
-0.218776
-0.205163
-0.310394
-0.213945
-0.098788
0.003645
-0.004397
-0.031623
0.085008
0.106205
0.120529
0.030645
0.023630
0.071760
0.066253
0.133288
0.026146
0.101591
0.100736
0.188138
0.151767
0.056304
0.202253
0.189217
0.159690
0.090289
0.245741
0.236163
0.309427
0.228667
0.301379
0.343679
0.334148
0.321394
0.440224
0.341780
0.406140
0.339127
0.496868
0.394251
0.479703
0.425554
0.461665
0.467956
0.479888
0.464607
0.529515
0.527679
0.484435
0.504197
0.467620
0.437184
0.510669
0.407994
0.459130
0.343200
0.364719
0.304848
0.299262
0.310983
0.348006
0.316694
0.210878
0.262149
0.252013
0.191706
0.119293
0.160316
0.167720
0.201299
0.184233
0.119042
0.055594
0.059989
0.075237
0.021947
-0.024603
0.082221
0.051489
-0.056874
-0.028268
-0.024993
-0.076085
-0.014969
-0.055220
-0.041286
0.037982
-0.026675
0.004648
-0.066765
-0.088288
0.002898
-0.083602
-0.052891
-0.000383
0.025410
-0.133335
-0.045304
0.016717
-0.058244
0.009721
-0.039579
-0.071962
-0.074591
-0.038207
-0.020259
-0.049922
-0.082440
-0.099773
-0.112593
0.003553
-0.013009
-0.104391
-0.012671
-0.071457
-0.062502
-0.067979
-0.031767
-0.073163
-0.071533
-0.088522
-0.088578
-0.173998
-0.076979
-0.071991
-0.089962
-0.050748
-0.113520
-0.012792
-0.087891
-0.111878
-0.056085
-0.075973
0.020296
-0.129432
-0.009362
-0.059479
-0.065519
-0.012511
-0.035736
-0.010941
-0.059389
-0.056536
-0.048209
-0.001126
-0.005846
0.000049
-0.017870
-0.066570
0.028080
-0.008221
0.063973
0.054785
0.085567
0.171164
0.060916
0.108519
0.064253
0.036281
0.131816
0.118114
0.083016
0.138917
0.085634
0.088806
0.037151
0.011387
0.076879
0.011272
0.068580
0.077766
0.019520
-0.054783
-0.016870
0.053292
-0.020899
0.025697
-0.007710
-0.085260
-0.132532
-0.068461
-0.005763
-0.081503
-0.043995
-0.001032
-0.072703
-0.019984
-0.076849
-0.110931
-0.086888
-0.134624
-0.013599
-0.090325
-0.169145
-0.022769
-0.067670
-0.067569
0.033557
0.172797
0.557620
0.902110
1.095540
1.302373
1.286039
1.062310
0.801548
0.452043
0.057469
-0.161789
-0.334745
-0.323755
-0.298333
-0.276273
-0.149375
-0.060087
-0.032230
-0.073065
-0.054699
-0.076878
-0.123567
-0.072666
-0.026806
-0.062944
0.003422
0.010082
-0.089066
0.002915
-0.051995
-0.008159
0.082502
0.077326
0.068598
0.065163
0.037936
0.078068
0.073749
0.139279
0.196175
0.195925
0.199525
0.221108
0.176659
0.340621
0.287625
0.419341
0.320017
0.403710
0.330172
0.360565
0.356133
0.432888
0.396777
0.520949
0.403590
0.460192
0.390561
0.396341
0.388572
0.467809
0.447419
0.429014
0.374207
0.435038
0.417554
0.388964
0.325836
0.275375
0.256761
0.294135
0.258939
0.220066
0.206584
0.155469
0.208660
0.179064
0.197021
0.115478
0.060451
0.079267
0.085287
0.099898
0.068760
0.112868
0.000074
0.056989
0.040788
-0.104316
0.006632
0.020341
-0.040630
0.035890
-0.038693
-0.029677
-0.007345
-0.057650
-0.165889
-0.001902
-0.152532
-0.076382
-0.110146
-0.011263
-0.103376
0.018986
0.003374
-0.054109
-0.032484
-0.091911
-0.003817
-0.082635
-0.052202
-0.105947
-0.019367
-0.018110
-0.089510
-0.050979
0.001622
-0.002737
-0.170180
-0.112127
0.019608
-0.077104
-0.115039
-0.114851
-0.057899
-0.008214
-0.028387
-0.158530
-0.084787
-0.114083
-0.014344
-0.057129
-0.082440
-0.042663
-0.022403
0.038224
-0.088553
-0.127397
-0.086586
-0.085081
-0.087629
-0.033203
-0.099659
0.004983
-0.029709
0.004857
-0.020386
0.020160
-0.064176
-0.077669
-0.003394
0.032478
0.009664
0.029133
0.085277
0.008362
0.058970
0.080032
0.079520
0.088425
0.154509
0.046068
0.173861
0.069623
0.144501
0.120278
0.148288
0.127271
0.127458
0.142789
0.102773
0.169997
0.143980
0.123468
0.117743
0.133027
0.080342
0.109455
0.102922
0.088284
0.139343
0.039815
0.077054
0.107395
0.052883
0.053085
0.061714
-0.017915
-0.038806
0.091075
-0.021514
0.051210
0.015604
-0.001585
0.106579
0.071866
0.001350
-0.033770
0.044854
0.039396
-0.019173
-0.048691
0.046095
0.036630
-0.051897
-0.006037
0.039946
0.107440
0.416632
0.836533
1.084132
1.420854
1.376373
1.202502
0.930465
0.569657
0.229074
-0.056711
-0.251027
-0.269353
-0.106977
-0.122973
-0.014216
-0.113969
0.032155
0.007587
0.046761
0.039212
0.005577
0.062435
0.115830
0.041683
0.014507
0.070670
0.101697
0.089394
0.072560
0.096149
0.024359
0.058893
0.174844
0.149275
0.188706
0.279467
0.169041
0.183298
0.316917
0.288525
0.316447
0.279814
0.375779
0.421746
0.398615
0.459835
0.472166
0.476748
0.434252
0.444945
0.477189
0.529796
0.483584
0.417602
0.521939
0.504459
0.544668
0.559271
0.463219
0.513683
0.457116
0.475172
0.508999
0.484910
0.465952
0.431587
0.378903
0.411946
0.342738
0.321042
0.398424
0.274387
0.398750
0.234145
0.299553
0.280907
0.281600
0.180022
0.174639
0.188250
0.212955
0.175338
0.229801
0.103788
0.183146
0.103114
0.105639
0.118830
0.062352
0.012117
0.124388
0.104877
0.009527
0.111045
0.073475
-0.011053
0.096440
0.095327
0.058930
0.024428
0.026013
0.032670
0.047068
0.060941
0.075324
0.065720
0.038715
-0.037488
0.078363
0.094314
0.052025
-0.023055
0.018416
0.062694
0.058709
0.047080
0.095683
-0.035156
0.014157
0.048584
0.020216
-0.021349
-0.022425
0.066941
0.001445
0.040410
-0.010894
0.031044
0.057643
0.032761
0.099401
-0.016734
0.038358
0.095000
0.077261
0.043775
-0.096278
0.094184
0.035839
-0.015257
0.039030
0.037918
0.052121
0.002284
0.048034
0.070600
0.020093
0.055830
0.007705
0.000833
0.088576
0.024623
0.106111
0.056627
0.169935
0.066155
0.105694
0.106752
0.124271
0.074192
0.127222
0.168356
0.220852
0.131499
0.147173
0.259123
0.257547
0.163980
0.241393
0.226982
0.193196
0.212747
0.194455
0.235036
0.262036
0.262656
0.179087
0.266694
0.188892
0.192131
0.104961
0.143873
0.172364
0.133483
0.143321
0.092348
0.060630
0.085204
0.142615
0.116585
0.063193
0.067014
0.107588
0.132312
0.014800
-0.014788
0.066514
0.016367
0.067340
0.074695
0.109064
0.107755
0.014527
-0.004223
0.022724
0.053200
0.045195
0.210397
0.380890
0.694587
1.078278
1.331188
1.492169
1.355649
1.177392
0.709362
0.464798
0.057238
-0.080685
-0.148338
-0.226066
-0.107499
-0.088246
0.004432
0.028264
0.021621
-0.019308
-0.016496
0.085193
0.198212
0.164584
0.065796
0.083841
0.068845
0.129128
0.126704
0.170002
0.132201
0.172301
0.055023
0.138173
0.140457
0.168598
0.169304
0.157136
0.216633
0.225809
0.369034
0.242966
0.395429
0.334103
0.420983
0.363846
0.398832
0.434780
0.489918
0.507872
0.531104
0.521409
0.547374
0.501048
0.545258
0.492073
0.572515
0.496396
0.591627
0.428455
0.526902
0.516612
0.491005
0.464243
0.421529
0.522316
0.467138
0.364073
0.409875
0.360133
0.363553
0.362610
0.299215
0.349109
0.325786
0.287921
0.273656
0.227128
0.220349
0.195140
0.157123
0.126623
0.072507
0.148750
0.050295
0.132505
0.093971
0.036166
0.050792
0.031920
-0.003874
0.006596
-0.038016
0.024491
0.001023
0.065203
-0.035335
0.013846
0.106413
-0.012932
-0.058650
0.063224
-0.004986
0.027893
0.054808
-0.036937
0.046780
-0.063391
-0.044668
0.049023
-0.015795
-0.014288
-0.052090
-0.012063
0.028372
-0.027763
0.011098
0.017156
-0.019895
0.014630
-0.053226
-0.004083
-0.045277
-0.087361
-0.045905
-0.007010
-0.056514
-0.100355
-0.031342
-0.023003
-0.023658
-0.024891
-0.007755
-0.023048
-0.067739
-0.056009
-0.045632
-0.020986
-0.056018
-0.015042
-0.037943
-0.066741
-0.060543
-0.027205
-0.030898
-0.092602
0.007918
0.000921
0.053101
0.001295
0.011322
-0.102897
-0.028477
-0.017900
0.023210
0.020947
0.000128
-0.019017
0.079172
0.034422
0.089430
0.028128
0.063012
0.066190
0.122200
0.103692
0.184882
0.053889
0.245107
0.042190
0.032396
0.181880
0.085454
0.187377
0.141185
0.150308
0.119680
0.086558
0.104387
0.027570
0.053241
0.131113
0.067566
0.053772
0.076518
0.021334
-0.052930
-0.048412
0.064609
0.009107
-0.063564
-0.032248
-0.019045
-0.034501
-0.044281
-0.012529
-0.034655
-0.077123
-0.066351
0.019041
-0.082138
-0.029002
-0.050965
-0.035072
-0.095320
-0.135203
-0.071971
0.021263
0.024550
0.209411
0.553496
0.800982
1.051813
1.320647
1.289732
1.031910
0.750965
0.393701
0.155464
-0.185930
-0.246431
-0.310149
-0.325797
-0.183493
-0.174647
-0.127494
-0.138971
-0.107871
-0.073806
-0.094326
-0.073144
-0.053048
-0.082933
-0.102539
-0.028377
-0.058022
0.055826
-0.004286
-0.022830
0.090741
0.043100
0.085603
0.059559
0.001922
0.167720
0.181836
0.172548
0.147957
0.150516
0.171881
0.197653
0.243174
0.274366
0.352850
0.309601
0.362812
0.249561
0.352252
0.450523
0.336928
0.414458
0.470101
0.386010
0.371382
0.433046
0.382243
0.489102
0.422898
0.441455
0.418080
0.402350
0.388396
0.413336
0.376024
0.329922
0.286067
0.355590
0.288861
0.329796
0.247814
0.272426
0.088815
0.236821
0.130700
0.232263
0.116142
0.168654
0.095168
0.097778
0.100506
0.045055
0.052282
0.051076
-0.007803
0.016499
0.015627
-0.051423
-0.013715
-0.019454
-0.030851
-0.116265
-0.059906
-0.090640
-0.010497
-0.127654
-0.049507
-0.049675
-0.122681
-0.112546
-0.120778
-0.102449
-0.115146
-0.062982
-0.185254
-0.044631
-0.148733
-0.106319
-0.081201
-0.118894
-0.051178
-0.115232
-0.153391
-0.076517
-0.079170
-0.100803
-0.046117
-0.087435
-0.066160
-0.039224
-0.058199
-0.143894
-0.088054
-0.086752
-0.165851
0.018005
-0.030006
-0.052860
-0.175128
0.005837
-0.030762
-0.142362
-0.158748
-0.070394
-0.168481
-0.019723
-0.055424
-0.146000
-0.105534
-0.042878
-0.078647
-0.112091
-0.122032
-0.091764
-0.050056
-0.084397
-0.145662
-0.070079
-0.062520
-0.072039
-0.023262
-0.066585
-0.067318
-0.157961
-0.062370
-0.064535
-0.016268
-0.117972
0.004146
0.055028
-0.071937
-0.021203
-0.032497
0.082753
0.009195
0.072368
0.121396
0.097392
0.084420
0.125723
0.054447
-0.001089
0.171599
0.056331
0.054149
0.084973
0.056707
-0.000168
0.019618
-0.007554
0.006230
0.034368
0.009592
-0.030355
-0.047220
-0.055557
-0.070823
-0.074140
0.022785
-0.109768
-0.065180
-0.083581
-0.203969
0.003863
-0.150855
-0.089329
-0.075395
-0.030878
-0.058918
-0.060576
-0.021155
-0.098378
-0.079534
-0.038449
-0.048329
-0.104773
-0.072820
-0.000552
0.082398
0.346121
0.706538
1.048382
1.245583
1.320497
1.118725
0.931134
0.551520
0.160955
-0.123166
-0.267141
-0.319598
-0.280818
-0.197764
-0.178160
-0.089703
0.040475
0.003405
-0.084777
-0.056748
-0.035756
0.008704
-0.063328
-0.036943
-0.010114
0.020593
-0.022535
0.017320
0.003546
0.027016
0.009796
0.084765
0.015264
0.129844
0.047705
0.100900
0.218789
0.151668
0.168175
0.206758
0.219953
0.257716
0.216288
0.373851
0.346272
0.298327
0.386203
0.376347
0.382952
0.331786
0.487804
0.382843
0.467898
0.449411
0.501194
0.515113
0.457557
0.438392
0.415120
0.475302
0.466384
0.472669
0.440225
0.338061
0.338504
0.343987
0.313925
0.345653
0.293783
0.338484
0.293475
0.295242
0.251862
0.238454
0.223222
0.191463
0.163696
0.085819
0.125502
0.147637
0.169318
0.121813
0.051964
-0.035109
0.072101
0.089667
0.045093
0.011918
0.022353
-0.055160
0.001829
-0.041888
-0.014501
0.024598
0.016879
-0.046784
0.010441
-0.057007
-0.013919
-0.095694
-0.056651
-0.068884
-0.031246
-0.042351
-0.025012
0.001496
-0.074591
-0.074816
0.033566
-0.034292
-0.022879
-0.044339
-0.004551
-0.021154
-0.046721
0.026213
-0.000419
-0.019303
-0.017114
-0.054611
-0.044495
-0.045276
-0.064689
0.008288
0.028855
-0.052303
0.049323
0.016218
-0.030651
-0.032016
0.051849
-0.001606
0.035943
0.107553
-0.047982
0.065994
-0.023426
-0.022413
-0.042842
0.050673
-0.000352
-0.035223
0.010162
0.052636
-0.053349
-0.087021
0.084859
-0.013264
-0.003755
0.087707
0.052805
0.076397
0.069789
0.089984
0.062863
0.063023
0.014873
0.115801
0.023931
0.125913
0.087472
0.200482
0.153009
0.119995
0.075041
0.162334
0.153512
0.141838
0.136856
0.234521
0.222024
0.197185
0.189241
0.225627
0.110336
0.189612
0.218796
0.123346
0.112330
0.165464
0.094407
0.167670
0.120489
0.094644
0.101576
0.136985
0.019913
0.094713
0.008715
0.082215
0.031512
0.157973
0.048680
0.066656
0.065747
0.054405
0.042084
-0.009125
-0.074024
0.072211
0.017676
0.093633
0.071926
0.039401
0.019642
0.034169
0.096756
0.245613
0.509504
0.708686
1.044962
1.330323
1.463037
1.372605
1.085915
0.787530
0.431125
0.127954
-0.061989
-0.227442
-0.197266
-0.131503
0.001965
0.023812
0.053635
0.074600
0.051195
0.020818
0.058389
0.078275
0.084065
0.080913
0.028640
0.056262
0.011694
0.095629
0.072759
0.147821
0.242115
0.196068
0.085181
0.219395
0.266579
0.233731
0.294412
0.265663
0.333502
0.212937
0.371757
0.296158
0.408067
0.412297
0.403987
0.406731
0.442042
0.431157
0.470536
0.523704
0.512402
0.569150
0.501177
0.475743
0.521906
0.649684
0.623663
0.563634
0.525092
0.613375
0.555303
0.532080
0.533989
0.615588
0.561136
0.474117
0.428002
0.491032
0.452188
0.361054
0.416671
0.382492
0.318583
0.279260
0.308612
0.305705
0.319266
0.328686
0.299916
0.198614
0.146528
0.196061
0.255939
0.132220
0.172047
0.154802
0.223719
0.156894
0.069086
0.078416
0.114788
0.142582
0.103784
0.184161
0.145368
0.080429
0.100296
0.134860
0.082915
0.107410
0.070701
0.103750
0.020069
0.087796
0.030258
0.058637
0.095681
0.131614
0.026280
0.001722
0.054873
0.113419
0.073650
0.113506
0.041600
0.047617
0.036765
0.183717
0.059638
0.073781
0.068421
0.091208
0.057517
0.012878
0.153142
-0.031671
0.051517
0.088162
0.045862
