0.056947
-0.006306
-0.053084
0.002218
-0.010268
0.039959
-0.004363
0.029792
-0.009269
0.026700
-0.000818
-0.016913
0.009279
0.030607
0.005409
-0.038352
-0.007310
0.029003
0.104761
-0.023833
-0.002947
-0.034360
0.145848
0.006389
0.030710
0.042857
0.085414
0.038917
0.060107
0.087868
0.042820
0.080790
0.085502
0.084136
0.094698
0.056971
0.131723
0.183644
0.185957
0.162842
0.170572
0.137586
0.163212
0.173078
0.194467
0.237697
0.308936
0.244921
0.233739
0.179199
0.166269
0.190922
0.147927
0.137587
0.214635
0.171851
0.187912
0.147667
0.082753
0.094729
-0.025490
0.128537
0.088496
0.034857
0.133346
0.011049
0.070910
0.086503
-0.014796
0.133118
0.117422
0.084594
0.104990
-0.007586
0.088525
0.062679
0.101356
-0.026483
0.015730
0.006353
0.000998
0.027746
-0.071004
0.011546
0.119226
0.204956
0.557276
0.942245
1.294132
1.480513
1.415529
1.268266
0.978492
0.656471
0.342600
0.091459
-0.104645
-0.197579
-0.116443
-0.043500
-0.092972
-0.109060
0.003269
0.074366
0.077385
0.143702
0.123431
0.147675
0.041679
0.053611
0.109349
0.150751
0.029689
0.070805
0.183930
0.125423
0.253166
0.200790
0.197568
0.151770
0.203892
0.256807
0.249126
0.191573
0.252218
0.298582
0.200602
0.359826
0.296791
0.385175
0.404266
0.400343
0.445564
0.475224
0.564328
0.410138
0.431962
0.428222
0.503727
0.522186
0.600501
0.514300
0.562557
0.629789
0.615580
0.615780
0.574634
0.490700
0.491687
0.508911
0.536887
0.642806
0.599809
0.507360
0.532270
0.470179
0.486759
0.396464
0.386535
0.451697
0.419946
0.396012
0.345101
0.362815
0.347624
0.382054
0.192003
0.221543
0.249447
0.191385
0.256130
0.084025
0.197668
0.214455
0.167513
0.205709
0.104412
0.241801
0.072941
0.184665
0.143133
0.092942
0.080330
0.139497
0.026215
0.079925
0.113881
0.016213
0.108961
0.077938
0.149808
0.019623
0.096158
0.070929
0.116694
0.027271
-0.005438
0.068714
0.064527
0.084331
0.133562
0.097636
0.050146
0.093151
0.003488
0.148314
0.086618
0.010901
0.112918
0.052772
0.081271
0.154500
0.099917
0.045387
0.068413
0.050199
0.098619
0.086835
0.146744
0.094153
0.145326
0.140411
0.134882
0.066707
0.015701
0.139908
0.066207
0.102790
0.082973
0.036390
0.041828
-0.012076
0.131554
0.145180
0.150010
0.112484
0.039252
0.053125
0.078055
0.078340
0.098685
0.044379
0.129276
0.038656
-0.018999
0.107824
0.108968
0.177004
0.111631
0.082788
0.095777
0.071643
0.119983
0.154338
0.111186
0.169342
0.063843
0.230890
0.215199
0.219808
0.195594
0.194043
0.196451
0.218578
0.242241
0.271584
0.283299
0.236164
0.217353
0.252333
0.189723
0.254493
0.204112
0.167136
0.215562
0.239030
0.171088
0.199975
0.202916
0.212889
0.165511
0.167526
0.227808
0.100190
0.084637
0.055725
0.054232
0.066451
0.017437
0.146121
0.133978
0.027424
0.066144
0.082466
0.092889
0.119407
0.048264
0.019262
0.081387
0.081589
0.089005
0.071680
0.027259
0.095346
0.060780
0.128257
-0.016425
0.083926
0.092840
0.369938
0.656031
0.972597
1.250804
1.405330
1.357335
1.221988
0.906329
0.632509
0.199651
0.000370
-0.192763
-0.223657
-0.203936
-0.140461
0.053492
-0.008457
0.057508
0.123793
0.055345
-0.034471
0.070661
0.067701
0.051991
0.098020
0.107511
0.157386
0.073528
0.081153
0.109755
0.072058
0.128781
0.144646
0.110421
0.174863
0.050042
0.103258
0.234521
0.142333
0.219340
0.245260
0.226133
0.202266
0.294264
0.299255
0.370852
0.251051
0.439597
0.365829
0.420425
0.512562
0.465195
0.484699
0.484015
0.444203
0.478208
0.558186
0.590630
0.553069
0.568887
0.474394
0.596451
0.520154
0.468123
0.501141
0.482654
0.510690
0.513091
0.423566
0.425829
0.465929
0.443883
0.420224
0.467114
0.372366
0.285146
0.294181
0.369290
0.246665
0.273965
0.266655
0.182450
0.201572
0.137328
0.130085
0.187263
0.118414
0.085047
0.161985
0.152712
0.154270
0.134181
0.129395
0.128136
0.041895
0.084853
0.068798
-0.011774
-0.002894
0.117312
0.003234
0.028286
-0.023215
0.037524
0.074609
0.019439
-0.013556
-0.008537
-0.022466
0.006052
-0.002725
-0.036157
0.073607
0.050591
-0.035392
0.019281
-0.017177
-0.003362
-0.005212
-0.022324
-0.009534
-0.076282
-0.042203
-0.011858
-0.014925
-0.025173
0.000596
-0.019763
-0.027033
0.064499
0.004462
-0.014440
-0.045889
-0.024258
0.009584
0.001092
-0.049639
-0.018059
-0.148779
0.004878
0.028538
0.034960
0.014338
-0.058904
-0.008636
-0.011898
-0.037553
-0.004592
0.064475
-0.044710
0.037954
-0.008161
-0.012216
-0.042447
0.035847
-0.024385
-0.048860
0.017537
-0.037953
-0.002285
0.008216
0.040556
0.038653
-0.056100
-0.041390
-0.013587
0.023438
0.047582
-0.012155
-0.010624
0.081361
0.034388
0.049669
0.072253
0.099636
0.111755
0.077226
0.117116
0.102882
0.093435
0.093209
0.160706
0.170667
0.142160
0.187188
0.117841
0.141278
0.144273
0.113693
0.113618
0.110641
0.137684
0.023655
0.091859
0.047769
0.033742
0.016591
-0.013657
0.032668
0.060724
0.024690
-0.028353
-0.010528
0.084782
-0.082323
0.040783
0.010731
0.022448
-0.021042
0.033988
0.075405
-0.044025
0.010504
0.004795
-0.095085
-0.044402
-0.063178
-0.023880
-0.086634
-0.053624
-0.063304
-0.033290
0.028500
0.021850
0.170158
0.556762
0.884902
1.195314
1.356420
1.317874
1.123029
0.787778
0.441754
0.141667
-0.159790
-0.254847
-0.274082
-0.294981
-0.101327
-0.206585
-0.103468
0.001309
-0.107211
-0.035100
0.004943
0.019133
-0.015028
-0.007428
-0.126279
-0.010222
-0.084962
-0.011615
-0.013810
0.003724
-0.050017
0.053323
0.116584
0.034852
0.069906
0.006819
-0.002204
0.113879
0.165616
0.165597
0.121115
0.195617
0.222118
0.234217
0.324671
0.297504
0.301337
0.263823
0.334479
0.287149
0.331362
0.369565
0.419726
0.379375
0.440770
0.412892
0.428659
0.450443
0.512786
0.502758
0.452519
0.530748
0.452665
0.343938
0.470105
0.462435
0.456128
0.400787
0.393436
0.408621
0.359938
0.291038
0.277003
0.339882
0.287912
0.289112
0.208037
0.240615
0.243489
0.245686
0.173910
0.157857
0.096089
0.096051
0.117097
0.047246
0.067218
0.048925
0.019789
0.043985
0.025097
0.026227
-0.020476
0.091488
0.042467
0.117446
0.025735
-0.016285
-0.125629
-0.017704
-0.072278
0.003525
-0.051198
-0.034556
0.030683
-0.066981
0.004476
-0.011920
-0.035400
-0.013647
-0.056415
-0.020250
-0.034661
-0.055292
0.023045
-0.011530
-0.040526
-0.073710
-0.054634
-0.024387
-0.090421
0.086103
0.007675
-0.000723
-0.013083
-0.012292
-0.030740
0.061620
0.020851
-0.030850
0.003316
0.009001
0.024512
0.056009
-0.055800
-0.131176
-0.052841
-0.029255
-0.002822
-0.094918
-0.013945
0.043350
-0.053700
-0.039953
-0.019125
-0.007148
-0.034542
-0.055363
0.012876
0.036840
-0.010574
-0.054886
-0.044016
-0.022440
-0.058428
-0.003128
-0.026401
0.018364
-0.005695
0.030148
-0.047868
0.010665
-0.026147
0.089835
0.045981
0.009475
-0.009084
0.079643
0.090674
0.039142
0.024920
0.114848
0.050150
0.151426
0.066280
0.066021
0.211917
0.161280
0.113832
0.116329
0.212185
0.169033
0.099231
0.154330
0.227673
0.113233
0.242170
0.111811
0.112904
0.188265
0.188485
0.184010
0.155813
0.114091
0.030483
0.168823
0.117520
0.011987
0.022837
0.033985
0.097687
0.049763
0.083863
0.001029
-0.071080
0.030890
0.084305
-0.043286
0.025218
0.036234
0.005507
0.055449
0.039842
-0.041346
0.034367
0.025414
0.071160
-0.027974
-0.082508
-0.116686
-0.050544
-0.024757
0.004251
0.171622
0.395429
0.657811
0.997327
1.226405
1.418605
1.310078
1.103763
0.861187
0.425294
0.174304
-0.013899
-0.165543
-0.323926
-0.179548
-0.102966
-0.006546
0.027360
0.083344
0.007114
0.000953
0.097199
-0.014290
0.010431
0.020947
-0.027702
0.060670
0.055643
0.110517
0.048573
0.104918
0.065274
0.104845
0.075008
0.117024
0.098643
0.199257
0.231328
0.196431
0.140997
0.240653
0.229839
0.324043
0.272403
0.314233
0.305972
0.442764
0.429675
0.453998
0.395398
0.455681
0.586598
0.521556
0.492104
0.520491
0.550364
0.588226
0.548903
0.580668
0.611636
0.536811
0.626737
0.516314
0.487090
0.543042
0.563441
0.627017
0.563590
0.596568
0.605411
0.511220
0.512017
0.477385
0.459502
0.508383
0.332819
0.361258
0.302857
0.372437
0.316826
0.330520
0.248282
0.172822
0.169476
0.246247
0.241286
0.194456
0.143251
0.244804
0.133608
0.117063
0.183040
0.141242
0.073082
0.078591
0.133433
0.109221
0.086560
0.194856
0.087110
0.013912
0.027421
0.026171
0.084582
0.152123
0.208387
0.002979
0.143491
0.137844
0.034425
0.151821
0.043432
0.076070
0.129504
0.058206
0.030268
0.138353
0.074829
0.139554
0.139302
0.015180
0.128184
0.079877
0.047524
0.020043
0.106996
0.047063
0.035670
0.092274
0.073685
0.095646
0.157380
0.104233
0.089277
0.136725
0.115926
0.058890
0.020944
0.002261
0.036889
0.074103
0.120163
0.051435
0.145716
0.009878
0.013885
0.061984
0.120623
0.083023
0.041458
0.125718
0.059170
0.013279
0.062105
0.070788
0.072892
0.078705
0.111680
0.091060
0.073467
0.085088
0.052682
0.046635
0.113496
0.102424
0.178040
0.164433
0.094577
0.155574
0.138084
0.219976
0.140501
0.164595
0.174952
0.174507
0.164026
0.228008
0.221732
0.220359
0.225145
0.234844
0.253268
0.295122
0.279014
0.320309
0.244472
0.270137
0.272301
0.263972
0.155745
0.296052
0.244235
0.218292
0.285066
0.204925
0.153567
0.224454
0.155648
0.087311
0.207900
0.119694
0.138213
0.069007
0.151270
0.110554
0.153159
0.192851
0.071024
0.134490
0.102404
0.124144
0.068820
0.086609
0.155782
0.026903
0.081273
0.149326
0.070772
0.053016
0.135482
0.009437
0.051922
0.045232
0.032767
0.182781
0.442540
0.695670
1.201818
1.338627
1.500000
1.431815
1.221124
0.970221
0.545760
0.202921
-0.061785
-0.175573
-0.244617
-0.164048
-0.073666
-0.030593
0.090026
0.118041
0.109161
0.027565
0.102353
0.103582
0.115787
0.114899
0.163010
0.067821
0.129526
0.134072
0.101283
0.114797
0.147006
0.173064
0.160990
0.215851
0.256517
0.155105
0.173674
0.237141
0.215103
0.282037
0.273784
0.307223
0.348180
0.315653
0.441126
0.310959
0.411365
0.407025
0.463632
0.518827
0.398578
0.453130
0.574558
0.631505
0.538431
0.578210
0.490680
0.555862
0.537769
0.592613
0.582257
0.560401
0.585219
0.533428
0.605027
0.576785
0.487386
0.525288
0.464325
0.538059
0.413448
0.383183
0.479904
0.413484
0.392279
0.328724
0.278672
0.300750
0.341245
0.190580
0.282637
0.264579
0.239557
0.273375
0.219686
0.109943
0.170988
0.130104
0.166756
0.046676
0.153687
0.113237
0.087544
0.058672
0.098315
0.083242
0.134960
0.071480
0.035517
0.101136
0.072508
0.068672
0.014887
0.048946
0.045208
0.060173
-0.019258
0.037017
0.024612
0.056978
0.086654
0.037732
-0.089646
0.052306
-0.032626
0.102937
0.012326
0.050785
0.032157
0.016433
0.011699
0.021255
0.121659
0.050060
0.024695
0.006444
-0.045962
0.066040
0.028246
0.018392
0.018956
0.009512
0.014420
0.056952
0.059630
-0.008417
0.082908
0.026982
0.019086
0.008256
0.024300
0.004408
0.058900
0.139029
0.008054
0.020232
0.003962
0.055791
-0.006841
0.016464
0.032332
0.025970
0.070176
-0.040167
-0.009075
0.066824
0.006827
0.020080
-0.003147
0.035266
0.023433
-0.095861
-0.017782
0.109079
0.019125
0.035895
0.016812
-0.011974
0.123287
0.101316
0.089639
0.043492
0.040636
0.093896
0.184535
0.147860
0.114799
0.131780
0.159251
0.116125
0.195277
0.226673
0.195933
0.135661
0.149229
0.143688
0.183498
0.091222
0.148299
0.102031
0.115218
0.151166
0.071650
0.081068
0.107479
0.040825
0.100438
0.053713
0.064343
0.072633
0.070169
0.022770
0.083362
-0.079934
-0.018127
-0.004217
-0.072190
-0.052719
0.014503
0.012505
-0.018932
-0.024299
-0.068620
0.006368
-0.058146
-0.022294
-0.029812
0.087757
-0.047216
0.011530
-0.106800
-0.063889
0.032327
0.146633
0.310424
0.652435
0.962843
1.323057
1.407754
1.303041
1.080319
0.782976
0.389960
-0.025529
-0.154879
-0.324408
-0.334074
-0.234135
-0.153087
-0.110833
-0.126438
-0.065275
-0.006257
-0.057581
-0.087398
0.029247
0.009058
-0.047031
-0.031787
0.113228
-0.050363
0.004887
0.043295
-0.024686
0.006871
-0.052398
0.063407
0.034070
0.073968
0.055744
0.052849
0.180702
0.151722
0.093173
0.213159
0.253175
0.168203
0.276035
0.267209
0.268130
0.246896
0.209561
0.271733
0.437846
0.369841
0.430633
0.359769
0.412944
0.417308
0.470211
0.461854
0.429496
0.420454
0.425831
0.495568
0.450386
0.409693
0.496377
0.434003
0.304893
0.355900
0.361776
0.450327
0.391474
0.374922
0.336162
0.259994
0.244891
0.219770
0.295462
0.235083
0.140806
0.118359
0.087918
0.129367
0.080978
0.127976
0.119697
0.075524
0.026843
-0.017497
0.031048
0.061158
0.039470
-0.035611
0.012507
0.001526
-0.022176
-0.050571
-0.058159
-0.069114
-0.096865
-0.054445
-0.008110
-0.068032
-0.107555
-0.069492
-0.027534
-0.028217
-0.055718
-0.067516
-0.031864
-0.129688
-0.131269
-0.122254
-0.031035
-0.140813
-0.130724
-0.089190
-0.101362
-0.065051
-0.150175
-0.035033
-0.075683
-0.174994
-0.117134
-0.081876
0.002982
-0.067516
-0.087626
-0.078289
-0.098439
-0.001872
-0.055500
-0.092998
-0.036442
-0.012740
-0.076186
-0.140539
-0.069370
-0.057819
-0.122619
-0.086138
-0.122810
-0.034384
-0.151698
-0.000875
-0.097602
-0.124012
-0.057425
-0.077151
-0.130858
-0.019426
-0.138129
-0.025370
-0.038074
-0.089515
-0.038214
-0.073221
-0.129781
-0.041459
-0.027434
-0.118362
-0.042681
-0.072209
-0.040556
-0.104099
-0.066240
-0.030165
-0.114174
-0.047987
-0.027447
-0.110321
-0.089559
0.013728
-0.011330
0.030960
-0.088010
0.100427
0.067696
0.154051
0.135128
0.109778
0.074698
0.084809
0.030871
0.111121
0.077814
0.135380
0.138645
0.075870
0.089561
0.125358
-0.009465
0.018167
0.053310
0.086027
-0.012525
0.030697
0.051605
0.136986
0.053294
-0.038015
-0.014303
-0.037782
-0.001735
0.024896
-0.047902
0.000153
-0.061458
-0.014080
0.013974
-0.136633
-0.046153
-0.059220
-0.046209
-0.045333
-0.046598
-0.023319
-0.017341
-0.041648
-0.095803
-0.059047
-0.097820
-0.065752
-0.138067
0.038082
0.207991
0.363630
0.780313
0.949222
1.287828
1.310703
1.219368
0.954918
0.540598
0.341006
0.036829
-0.270724
-0.314561
-0.349189
-0.205338
-0.194867
-0.109945
-0.121569
-0.067518
-0.020125
-0.000153
-0.037163
-0.078679
-0.089528
0.034200
-0.019294
0.024087
-0.059509
0.005182
0.013218
0.106179
0.081424
0.070598
0.129850
0.098530
0.072222
0.135960
0.045079
0.141032
0.064783
0.198563
0.240293
0.151283
0.150060
0.285694
0.244041
0.252943
0.245886
0.329127
0.335985
0.322963
0.381840
0.371615
0.386487
0.382284
0.441320
0.407619
0.370615
0.497560
0.468414
0.403106
0.490400
0.493292
0.477810
0.459856
0.526114
0.460034
0.353144
0.429906
0.515507
0.364500
0.433547
0.322239
0.331359
0.300717
0.283137
0.321153
0.216645
0.199734
0.200992
0.215067
0.204035
0.203580
0.157527
0.010458
0.122692
0.086638
0.127148
0.095961
0.072095
0.069621
0.092566
0.143309
0.056244
-0.022997
-0.016342
0.058784
0.045089
0.019585
0.065798
-0.016168
0.004850
-0.023229
0.068035
0.065439
-0.034232
-0.002179
-0.100085
0.042233
0.033163
0.015308
0.068031
0.065432
-0.042994
-0.029126
0.005150
0.005306
-0.050814
0.002189
0.057228
0.023816
-0.005978
-0.051997
0.045711
0.040579
-0.043129
-0.063282
0.030101
0.027016
0.013670
0.018391
-0.047439
-0.025078
0.047241
-0.037660
0.056832
-0.048409
0.053455
0.051550
0.062040
-0.087459
0.013036
0.032933
0.024959
-0.034072
-0.021407
0.021826
0.091729
-0.029883
0.042091
0.061914
-0.009566
-0.012395
-0.053544
0.073476
0.011153
0.036585
-0.014749
-0.004718
0.113038
0.052629
0.049373
0.087872
-0.012216
-0.021715
0.078067
0.078840
0.055601
-0.006088
0.022720
0.056564
0.092000
0.132980
0.152432
0.153665
0.179939
0.143009
0.157170
0.193590
0.168314
0.185503
0.195837
0.213119
0.196303
0.090127
0.294907
0.175587
0.157942
0.220775
0.152444
0.202354
0.104591
0.138895
0.166922
0.172702
0.136060
0.113048
0.120152
0.134304
0.065975
0.122399
0.033322
0.109933
0.139073
-0.024858
0.082857
0.046571
-0.010561
0.022346
0.038359
0.042322
0.086687
0.037607
-0.019662
0.002288
0.039807
0.013017
0.066200
0.029523
0.013145
-0.014395
-0.031799
0.020793
0.110943
0.254579
0.526134
0.847866
1.080593
1.354767
1.470375
1.266455
1.041483
0.786360
0.375012
0.108237
-0.149273
-0.203681
-0.205711
-0.076603
-0.140449
-0.057178
0.011336
0.120202
0.017839
0.072822
0.034977
0.061167
0.035567
0.059182
0.116682
0.034749
0.088219
0.147363
0.248144
0.141388
0.102416
0.090088
0.098934
0.177881
0.129103
0.239615
0.175226
0.132069
0.134705
0.295345
0.301227
0.236936
0.336368
0.359044
0.221099
0.377898
0.441173
0.376415
0.501517
0.378608
0.550723
0.476588
0.449579
0.452891
0.541291
0.555979
0.518145
0.470857
0.536292
0.579318
0.502526
0.531190
0.526856
0.542595
0.554102
0.510345
0.491105
0.519416
0.517836
0.462546
0.466007
0.491558
0.351007
0.442797
0.394814
0.297658
0.303353
0.351464
0.270879
0.256512
0.208690
0.258715
0.136233
0.151886
0.124858
0.165077
0.205559
0.116466
0.101744
0.104018
0.181311
0.015736
0.078399
0.112225
0.078032
0.082796
0.000098
0.051989
-0.019140
0.068968
0.074382
0.047238
0.099946
0.046599
0.016993
0.011606
0.064465
0.028390
0.052420
0.039089
-0.001856
0.054213
0.014251
0.006601
0.026005
0.072791
0.030369
0.072835
-0.031812
0.049474
-0.021943
0.051870
-0.035607
0.062376
0.036865
0.051504
0.048542
-0.023804
0.073148
0.083282
0.014345
0.086499
0.069313
0.074617
0.011981
0.071507
0.066810
0.121655
0.042710
0.066062
0.034347
0.013756
0.047868
0.018711
-0.011305
0.021192
0.023586
-0.031925
0.060556
-0.082146
0.019821
0.071965
-0.051716
0.065300
0.116379
0.042881
0.009972
0.051399
0.083401
-0.016535
0.033845
0.108006
0.042730
0.081768
-0.029268
0.076612
0.070379
0.035824
0.045150
0.047162
0.060061
0.133332
0.113338
0.162046
0.120513
0.150783
0.116562
0.093635
0.171753
0.174259
0.176855
0.180809
0.187039
0.209371
0.187490
0.097773
0.193192
0.197821
0.198100
0.115516
0.160132
0.083436
0.157281
0.115418
0.104641
0.126650
0.031556
0.030621
0.092795
0.017041
0.043868
-0.057724
0.026667
-0.014694
0.002196
0.031904
0.045412
0.039251
0.051438
-0.105710
-0.068731
0.045276
-0.054806
-0.050223
0.005897
-0.039130
-0.008684
0.061456
-0.011420
-0.044554
-0.060954
-0.048056
0.043467
0.281676
0.491319
0.762475
1.031191
1.312097
1.358243
1.231825
1.061109
0.673438
0.201118
-0.040542
-0.181189
-0.263671
-0.227128
-0.193351
-0.128217
-0.082587
-0.071791
-0.095978
0.036007
0.004872
0.011240
0.008304
0.054705
0.000192
0.074298
-0.115263
-0.034314
0.015107
0.034484
0.071655
0.060852
0.045657
0.068411
0.083225
0.030287
0.098194
0.009139
0.039718
0.189136
0.225131
0.169244
0.207307
0.173803
0.179430
0.320166
0.288310
0.271640
0.268492
0.350346
0.312508
0.360443
0.395877
0.406283
0.385787
0.381475
0.407632
0.380661
0.459595
0.455429
0.393496
0.475532
0.427476
0.410345
0.509482
0.392618
0.321862
0.304210
0.401735
0.364795
0.377233
0.395997
0.294373
0.273493
0.244261
0.281406
0.245446
0.218226
0.253610
0.185981
0.135324
0.137242
0.131234
0.094025
0.105420
0.022154
-0.026457
0.046965
0.009770
-0.001800
-0.082423
0.053562
0.004524
-0.013928
-0.098337
0.017958
-0.124762
-0.015150
-0.078209
-0.114588
-0.116316
-0.105749
-0.049811
-0.121237
0.000096
-0.081929
0.002508
-0.048677
-0.064649
-0.073365
-0.119330
-0.092607
-0.065545
-0.060195
-0.099994
-0.058852
-0.038069
-0.119349
-0.067754
-0.003976
-0.061741
-0.087979
-0.114303
-0.055750
-0.116351
-0.076633
-0.100274
-0.070849
-0.066726
-0.099573
-0.049509
-0.093480
-0.053026
-0.193240
-0.012840
-0.121994
-0.061337
-0.072742
-0.091051
-0.086844
-0.090189
-0.115471
-0.014874
-0.009644
-0.091112
-0.080588
-0.083435
-0.060802
-0.150034
-0.036680
-0.136412
-0.079945
-0.042092
-0.064733
-0.076114
-0.056625
-0.099461
-0.055337
-0.067323
-0.070044
-0.117938
-0.001490
-0.129197
-0.084417
-0.124114
-0.095013
-0.050771
-0.079342
0.024898
-0.089715
0.049565
0.007548
-0.064740
-0.052572
0.083667
0.003148
-0.039539
0.073499
0.022403
0.010694
0.123273
0.066021
0.138456
0.090950
0.108061
0.057199
0.069162
0.020377
0.061765
0.045517
0.087548
0.016313
0.050322
0.035322
0.007742
-0.063959
-0.024504
-0.029394
0.006603
-0.049580
-0.038755
-0.122151
-0.100177
-0.079056
0.015973
-0.012458
-0.100165
-0.066550
-0.074783
-0.044877
-0.135111
-0.138357
-0.058505
-0.125779
-0.100265
-0.100603
-0.150467
-0.122183
-0.063802
-0.069064
-0.084899
-0.162627
-0.174515
-0.042120
0.163072
0.459730
0.782330
1.081028
1.296987
1.293928
1.131354
0.767032
0.429928
0.163992
-0.188423
-0.331684
-0.345087
-0.324071
-0.147292
-0.158421
-0.174203
-0.077282
-0.101704
-0.056503
-0.087307
-0.187698
-0.064641
-0.124744
-0.047824
-0.091233
-0.038158
-0.019201
0.070589
-0.049053
0.053008
-0.014436
-0.047032
0.026283
0.076039
0.035795
0.053950
0.066414
0.029616
0.093267
0.055095
0.134323
0.160095
0.160085
0.213149
0.233849
0.239450
0.242875
0.289565
0.289513
0.374809
0.304881
0.338119
0.453861
0.413319
0.397771
0.421812
0.397892
0.442229
0.395632
0.335701
0.481477
0.467596
0.388474
0.378592
0.424953
0.384476
0.370761
0.420588
0.340603
0.340235
0.326072
0.305544
0.240080
0.174170
0.357153
0.160062
0.100055
0.184220
0.185462
0.216844
0.157330
0.048326
0.100747
0.150690
0.081158
0.004256
-0.017407
0.057854
0.011429
0.027866
0.057232
0.014176
-0.105958
-0.091501
-0.034262
-0.043756
-0.057205
-0.107985
-0.031114
-0.030711
0.003498
-0.063013
0.029316
-0.111933
-0.076084
0.003447
-0.053057
-0.101894
-0.001871
-0.062219
-0.067637
-0.071278
-0.025449
-0.101511
-0.152981
-0.018405
-0.175162
-0.012040
-0.091169
-0.063735
-0.061252
-0.014596
-0.015468
-0.109598
-0.045471
-0.042833
-0.071109
-0.047579
0.001441
-0.012994
0.012157
-0.083487
-0.030124
-0.087630
-0.007049
-0.010588
0.015378
-0.068275
0.030614
-0.051712
-0.029459
-0.071806
-0.012729
0.054227
-0.056752
-0.020185
0.001718
0.002876
-0.014410
-0.024777
-0.064724
-0.068045
-0.043785
0.051066
0.007923
0.005676
-0.019489
-0.057742
0.040924
-0.015158
0.003935
0.061403
0.024710
0.011033
-0.073372
-0.090381
0.061453
-0.012871
0.136472
0.048219
0.074362
0.015730
0.056214
0.106806
0.085125
0.117704
0.058077
0.103496
0.090474
0.187835
0.142951
0.178359
0.163846
0.137271
0.100794
0.175180
0.132907
0.232657
0.130800
0.100455
0.119282
0.152632
0.136063
0.130914
0.112755
0.100127
0.076663
0.038027
0.031063
0.078159
0.036645
0.059738
-0.046299
0.066785
0.036096
-0.047943
0.079625
0.052832
-0.026169
-0.001906
0.046434
0.017438
-0.043462
0.023197
0.096559
0.058680
-0.022567
-0.074969
0.030472
0.029540
-0.011512
0.026108
0.169529
0.274526
0.580086
1.019461
1.278721
1.426135
1.394866
1.123598
0.876845
0.538681
0.194308
-0.011117
-0.228799
-0.321643
-0.264706
-0.104253
-0.103704
-0.005257
0.040885
0.037049
0.058036
0.033980
0.102032
0.067754
0.052069
0.007417
0.118792
0.144340
0.015424
0.056620
0.061394
0.088769
0.198017
0.132609
0.172632
0.159173
0.160481
0.150067
0.264061
0.162613
0.219893
0.233266
0.171078
0.253838
0.289354
0.433738
0.355165
0.405832
0.408701
0.403543
0.390169
0.376883
0.514881
0.430397
0.445165
0.544332
0.492921
0.461114
0.576781
0.623964
0.532686
0.506553
0.578336
0.541528
0.511106
0.545667
0.539870
0.561831
0.545480
0.482774
0.426154
0.433605
0.454801
0.406275
0.407538
0.376763
0.372244
0.396896
0.299747
0.311421
0.309367
0.240323
0.228663
0.283730
0.247485
0.164433
0.185405
0.228377
0.192538
0.131089
0.163567
0.173297
0.179504
0.083801
0.141858
0.136629
0.094925
0.002168
0.075571
0.091716
0.056687
0.127434
0.017494
0.030531
0.029362
0.032441
0.054378
0.033425
0.074240
0.023879
0.092745
0.107309
0.042110
0.088084
0.077598
0.120026
-0.007125
0.075562
0.090747
0.079423
0.039407
0.047894
0.041281
0.044653
0.021465
0.083999
0.060503
0.032333
0.060869
0.055055
0.051915
0.079196
0.086764
0.047183
0.074787
0.044479
0.133932
0.049753
0.056034
0.052628
0.102689
0.057121
0.025126
0.096626
0.167873
0.077375
0.071392
0.101389
0.128618
0.035054
0.103331
0.056135
0.109121
0.114493
-0.037522
0.147299
0.098217
0.108328
0.086689
0.100086
0.042230
0.072954
0.066290
0.113276
0.152170
0.051047
0.170426
0.084643
0.132939
0.118441
0.143015
0.162740
0.087500
0.070715
0.203885
0.153889
0.212281
