0.012238
-0.031281
0.046068
-0.034658
0.080360
0.029173
0.005924
0.013115
-0.040600
0.005120
0.067786
0.007203
0.070387
-0.009701
0.040627
-0.038153
0.006094
0.032095
0.033481
0.037735
0.075185
0.070077
0.012476
0.063260
0.061123
0.017054
0.080267
0.066860
0.053723
0.110240
0.067910
0.114038
0.022378
0.151845
0.142193
0.133711
0.213206
0.169286
0.172733
0.170019
0.240745
0.227495
0.253309
0.201160
0.198260
0.236364
0.281738
0.148425
0.160002
0.168700
0.227638
0.247187
0.063326
0.119747
0.162090
0.119502
0.130654
0.020596
0.145140
0.061873
0.012815
0.101331
0.043318
0.038505
0.008861
0.086841
0.026264
-0.022955
0.038929
0.005933
0.013097
-0.016473
0.061609
0.005427
0.043490
0.082225
0.051609
-0.031450
0.036440
0.139038
0.255037
0.643498
0.892298
1.225824
1.399488
1.424942
1.291165
0.987171
0.673719
0.262590
0.028198
-0.143762
-0.214817
-0.128851
-0.120906
0.014966
0.009917
0.073300
0.020677
0.097656
0.102545
0.045586
0.109125
0.099471
0.106136
0.201177
0.145792
0.168537
0.118152
0.143033
0.121123
0.245114
0.236732
0.215759
0.291343
0.169168
0.293745
0.205628
0.296118
0.223702
0.311731
0.358120
0.345420
0.384313
0.408131
0.430998
0.467883
0.433726
0.408402
0.542677
0.526880
0.538877
0.559801
0.541688
0.555892
0.578876
0.642401
0.517161
0.635003
0.658863
0.587219
0.573878
0.574722
0.595102
0.558291
0.453933
0.546910
0.553874
0.557268
0.420755
0.478328
0.427132
0.446733
0.429063
0.343614
0.286261
0.315692
0.278454
0.304887
0.169228
0.247121
0.316293
0.243931
0.111237
0.192268
0.174388
0.124639
0.088204
0.117965
0.196089
0.129672
0.193063
0.078609
0.122003
0.103537
0.120342
0.027477
0.069101
0.036359
0.119840
0.141455
0.043240
0.091920
0.096267
0.171863
0.023909
0.035569
0.090403
0.133065
0.065346
0.020376
0.041007
0.051489
0.112139
0.182921
0.125160
0.206532
0.046078
0.123906
0.162517
0.163541
0.003111
0.058562
0.074129
0.089805
0.133498
0.036269
0.063926
0.090732
0.007569
0.056463
0.120761
0.089872
0.039029
0.019358
0.025542
0.022144
0.110241
0.010580
0.037951
0.076993
0.081995
0.146694
0.043211
0.126293
0.166632
0.062644
0.086761
0.164998
0.002266
0.067284
0.133596
0.126132
0.123868
0.099317
0.168690
0.162568
0.071510
0.187339
0.140757
0.181908
0.148666
0.151833
0.253501
0.214922
0.230400
0.187233
0.182814
0.233849
0.266757
0.263586
0.257563
0.297126
0.312880
0.280708
0.244674
0.267888
0.301578
0.172470
0.212848
0.164806
0.159894
0.209817
0.213584
0.135806
0.183377
0.102253
0.092991
0.162743
0.158471
0.126184
0.207826
0.090467
0.177029
0.112219
0.091537
0.074298
0.056646
0.055898
-0.026605
0.039006
0.026284
-0.003064
0.042443
0.085955
0.044124
0.015428
0.086348
0.041754
0.103723
0.024328
0.247242
0.559795
0.781487
1.171159
1.346802
1.496850
1.391584
1.074723
0.732107
0.296118
-0.003243
-0.056407
-0.158436
-0.234667
-0.184573
-0.031323
-0.031987
0.038387
0.022063
0.062398
0.105466
0.106980
0.011798
0.082717
0.148712
0.110230
0.167442
0.128499
0.154938
0.212575
0.159315
0.174255
0.211959
0.160789
0.183619
0.205285
0.276116
0.215743
0.302594
0.299585
0.259825
0.317708
0.313468
0.337110
0.396104
0.357175
0.396674
0.452720
0.492622
0.459728
0.470422
0.493548
0.463604
0.611385
0.531629
0.571153
0.532546
0.590418
0.563524
0.606536
0.537526
0.579212
0.574787
0.556575
0.485252
0.471990
0.495894
0.542988
0.376841
0.438121
0.361457
0.439441
0.303243
0.375957
0.274200
0.283300
0.251738
0.246286
0.221131
0.224395
0.157115
0.158015
0.061534
0.186056
0.194773
0.128705
0.155100
0.120165
0.140843
0.122954
0.076578
0.080489
0.035512
0.061578
0.022578
0.122932
0.034912
0.081894
-0.018618
0.044766
-0.020202
0.022715
-0.025735
0.013003
0.110896
-0.032242
0.014180
-0.044898
0.049189
0.042013
0.097130
0.099694
0.003754
0.041522
0.013479
0.043969
0.041648
0.006037
0.015140
0.038314
-0.069632
0.003597
-0.049905
-0.038298
-0.009945
0.015428
0.004316
-0.070586
0.011226
-0.012730
-0.051149
-0.036118
0.045166
0.034520
0.024210
0.066864
0.041048
-0.040135
-0.016978
-0.056494
-0.035404
-0.051569
0.011840
-0.011888
0.021033
0.063493
0.000565
0.025192
-0.029293
-0.031264
-0.025573
0.051368
-0.000595
-0.069082
-0.001582
0.052516
-0.043020
-0.012335
0.118526
0.179364
0.068655
0.071469
0.074069
0.074800
0.068148
0.113791
0.151024
0.168380
0.115947
0.111248
0.147933
0.150618
0.219367
0.132213
0.199898
0.296100
0.148686
0.192410
0.110871
0.098618
0.129481
0.095938
0.086406
0.140537
0.098876
0.013180
0.146036
0.088316
0.018831
0.036603
0.008134
0.031996
-0.038120
-0.045459
-0.026928
0.039870
0.080577
-0.046368
-0.081720
0.008063
-0.028907
-0.003848
-0.070551
-0.048779
0.009434
-0.035309
-0.107642
-0.069278
-0.102933
-0.066045
-0.013490
0.113649
0.346039
0.614508
1.045675
1.256108
1.294774
1.374816
1.045462
0.662254
0.427201
0.093686
-0.158336
-0.301375
-0.310290
-0.271864
-0.204965
-0.053667
-0.123311
0.008375
-0.012990
0.082136
-0.036026
0.041851
-0.058013
0.023601
0.024599
0.036925
0.031152
0.001866
-0.051527
0.067909
0.147425
-0.030351
0.034229
0.101853
0.167876
0.220741
0.149050
0.146415
0.224208
0.199219
0.242660
0.337359
0.324966
0.356356
0.283504
0.269557
0.421640
0.371054
0.410911
0.434092
0.362997
0.419761
0.456865
0.416174
0.453794
0.424873
0.437691
0.454376
0.441875
0.389377
0.437484
0.462510
0.451979
0.442994
0.335912
0.395293
0.454500
0.349588
0.255736
0.343946
0.345558
0.302927
0.354568
0.172495
0.173655
0.294265
0.136994
0.241641
0.222638
0.115129
0.105959
0.168781
0.081177
0.043515
-0.017056
0.034290
0.058290
0.082386
-0.001840
0.069986
-0.037753
-0.036312
0.001200
-0.052790
0.075592
-0.025737
-0.117351
0.025855
-0.070361
-0.055321
-0.026005
-0.051252
0.028947
-0.076278
-0.094341
-0.122484
-0.033958
-0.029074
-0.054736
-0.034675
-0.043346
0.034302
-0.092471
-0.062427
-0.101105
-0.058109
-0.059018
-0.006609
-0.007086
-0.016513
-0.112070
0.026859
-0.071616
-0.057090
-0.080742
-0.021911
-0.029950
-0.033980
-0.066671
0.013286
-0.058520
-0.042484
0.032122
-0.094811
-0.024286
0.011683
-0.021725
-0.116513
-0.030241
-0.052941
-0.020046
-0.034663
-0.031533
-0.005327
-0.057066
-0.009973
0.059169
0.000205
-0.021251
-0.004783
0.035288
0.028914
0.027073
-0.033622
0.053598
-0.015358
0.015906
-0.020546
0.053084
0.042681
0.059124
0.112222
0.104394
0.082309
0.118946
0.082437
0.080086
0.099179
0.214739
0.159166
0.185034
0.258645
0.128641
0.144673
0.189212
0.178331
0.110323
0.183975
0.170045
0.170016
0.069808
0.118732
0.103598
0.079813
0.070098
0.092957
0.029725
0.076421
0.016238
0.091662
-0.019199
0.016428
0.081268
0.003363
0.007257
-0.009214
0.027183
0.091189
-0.046528
-0.006478
0.000699
-0.043329
0.093811
0.001492
0.020096
0.036017
-0.072129
-0.008570
0.001511
0.032898
0.176178
0.290518
0.621397
0.956168
1.186590
1.415613
1.331186
1.181920
0.883662
0.461188
0.078796
-0.080428
-0.236769
-0.190245
-0.204480
-0.162868
-0.060373
-0.026279
-0.003739
0.016016
0.023193
0.061872
0.064961
0.108901
0.043619
0.061384
0.080504
0.088573
0.076086
0.050633
0.041533
0.154064
0.071426
0.125612
0.103704
0.177495
0.205617
0.213923
0.207258
0.142366
0.244141
0.285494
0.340139
0.285768
0.415394
0.439520
0.383385
0.402422
0.379223
0.458859
0.530956
0.483219
0.517197
0.403216
0.564295
0.530248
0.519032
0.438542
0.540153
0.559705
0.566988
0.600110
0.568464
0.595197
0.546335
0.486595
0.409900
0.488489
0.555624
0.465396
0.523249
0.476605
0.300594
0.422827
0.384962
0.376271
0.377133
0.193536
0.180625
0.274059
0.187189
0.252812
0.192064
0.081848
0.234329
0.062505
0.151924
0.150380
0.102933
0.109862
0.097640
0.027265
0.110997
0.018879
0.007876
0.062959
0.119831
0.076292
0.125609
0.074895
0.077399
0.048431
0.069062
0.043903
0.000427
-0.034087
-0.012746
0.097507
0.045381
0.125249
0.021427
0.076816
0.122120
0.010998
0.062264
0.131394
0.083685
-0.033001
0.045716
-0.000505
0.056771
0.074440
0.018203
0.022411
0.006242
0.070589
0.105339
0.063303
0.047395
-0.016758
0.035707
0.117827
0.064927
0.056812
0.104132
0.055359
0.130572
0.040841
0.053133
0.086473
0.104358
0.061289
0.142091
0.155151
0.130341
0.062506
0.060842
0.225642
0.020701
0.055425
0.077795
0.115006
0.094771
0.101755
0.077811
0.084842
0.126636
0.083884
0.138594
0.095768
0.233654
0.217695
0.147886
0.190252
0.218130
0.206536
0.246424
0.242451
0.254460
0.165243
0.353817
0.287284
0.264977
0.220140
0.220757
0.273889
0.287562
0.262700
0.356598
0.275594
0.217361
0.258616
0.220910
0.172979
0.138085
0.212583
0.105258
0.093193
0.150489
0.129609
0.146171
0.220423
0.144825
0.146276
0.220971
0.119232
0.101745
0.090151
0.126008
0.052954
0.118178
0.039299
0.080695
0.093782
0.112996
0.080015
0.053060
0.055351
0.086954
0.057512
0.134504
0.108980
0.381039
0.563470
0.999904
1.265403
1.462434
1.454787
1.345837
1.067523
0.612782
0.367720
-0.052624
-0.169594
-0.182857
-0.197788
-0.084665
0.001217
0.130826
0.042578
0.042812
0.044962
0.138637
0.066565
0.114010
0.164843
0.111471
0.114003
0.191912
0.113904
0.176961
0.206393
0.158225
0.222217
0.259471
0.208581
0.201914
0.191102
0.248786
0.305467
0.246328
0.346191
0.368780
0.366715
0.403209
0.448551
0.440500
0.443038
0.439412
0.487566
0.537459
0.567792
0.552177
0.511246
0.578094
0.564192
0.581418
0.635492
0.577365
0.686118
0.534816
0.553735
0.578494
0.542239
0.555984
0.525285
0.514156
0.571529
0.495199
0.504765
0.532872
0.459036
0.475332
0.474276
0.478142
0.380476
0.326621
0.382768
0.290272
0.303653
0.349761
0.315372
0.252693
0.266578
0.247220
0.190974
0.250655
0.107165
0.106942
0.192073
0.139274
0.147693
0.129142
0.129664
0.180264
0.149251
0.105686
0.090234
0.074197
0.078921
0.092516
-0.007320
0.067067
0.085478
0.026888
0.106873
0.021007
0.008766
0.097505
0.084254
0.052679
0.061348
0.063755
0.053822
0.037350
0.078459
-0.017485
0.024916
0.083407
0.050512
0.070023
0.062858
0.040147
0.069645
0.094440
0.071204
0.077711
0.022532
0.116210
0.089069
0.019575
0.076870
0.129892
0.028070
0.036876
0.101912
0.057993
0.050541
0.099266
0.064515
0.132914
0.013008
0.015995
0.153813
-0.001927
0.053321
0.049010
-0.005279
0.089096
0.123621
0.109823
0.063412
0.068855
0.080809
0.079520
-0.069114
0.000501
0.115956
0.078958
0.012587
0.095914
0.043271
0.080257
0.136517
0.090717
0.137342
0.121209
0.200881
0.191304
0.153184
0.191500
0.154014
0.234677
0.245081
0.165079
0.305680
0.262660
0.211775
0.195316
0.196820
0.187640
0.185238
0.178449
0.163529
0.163694
0.121010
0.093568
0.166735
0.152264
0.111553
0.060407
0.040890
-0.004174
0.103146
0.037028
0.022852
0.119509
0.020623
0.037591
0.117487
0.036880
0.105271
0.016792
-0.011726
0.071963
0.095689
-0.004531
-0.009776
-0.028067
-0.041375
-0.088156
-0.083900
0.071911
0.242816
0.434163
0.768989
1.080068
1.368761
1.401062
1.349826
1.029075
0.625412
0.335893
0.087950
-0.185579
-0.342864
-0.329408
-0.155589
-0.077152
-0.093454
-0.012874
-0.062155
0.038904
0.028563
-0.015795
-0.022759
0.074511
0.023230
0.064012
0.063665
-0.069700
0.118718
0.046514
0.072077
0.010318
0.233520
0.118229
0.123695
0.178682
0.192286
0.241911
0.253649
0.161665
0.225934
0.253407
0.376232
0.310437
0.283632
0.367818
0.400832
0.485421
0.336140
0.423022
0.375617
0.441021
0.448403
0.532731
0.361809
0.539294
0.436019
0.538609
0.410867
0.448361
0.448643
0.485418
0.485817
0.408068
0.369597
0.517712
0.448916
0.382910
0.363050
0.347259
0.325429
0.279625
0.362762
0.312315
0.297532
0.217389
0.265171
0.263077
0.203306
0.117376
0.150792
0.099119
0.130181
0.183852
0.065151
0.065742
0.032451
0.024860
0.068817
-0.037859
0.032138
0.101538
-0.074580
0.044851
0.012586
0.038087
-0.089835
-0.079284
-0.108553
-0.094119
-0.110199
-0.084593
-0.045775
-0.102073
-0.142628
0.012854
-0.053163
-0.098241
-0.043341
-0.124305
-0.037423
-0.128172
0.027982
-0.015643
-0.038727
-0.159759
-0.126022
-0.127452
-0.045527
-0.102745
-0.029088
-0.108770
-0.124103
-0.044681
-0.054272
-0.105069
-0.051697
-0.080213
-0.138499
-0.014313
-0.095763
-0.022012
-0.087855
-0.033275
-0.016573
-0.143366
0.010818
-0.138926
-0.106489
-0.058168
-0.072585
-0.095646
-0.113198
-0.028980
-0.084323
-0.007124
-0.080770
-0.138694
-0.048144
-0.096890
-0.076713
-0.071459
-0.030494
-0.058718
-0.103908
-0.092550
0.015617
-0.036279
-0.018957
-0.066428
0.023986
0.034960
-0.027904
0.017276
-0.000641
0.045314
0.092463
0.084541
0.065818
0.054471
0.076470
0.138566
0.099820
0.086437
0.167536
0.120862
0.131223
0.140913
0.077889
0.045254
0.130400
0.009193
0.006709
0.062420
-0.011399
-0.001017
-0.026154
-0.081685
0.028823
0.024814
0.023246
-0.026868
-0.131335
-0.038758
0.006312
-0.007368
-0.047391
-0.072596
-0.091110
-0.081239
-0.029929
-0.065404
-0.057227
-0.083834
-0.045990
-0.110741
-0.045057
-0.079562
-0.029419
-0.082384
-0.048703
0.042061
0.318880
0.558161
0.917022
1.159667
1.313633
1.275785
1.036720
0.687599
0.248035
0.051484
-0.178969
-0.366907
-0.377658
-0.239435
-0.152799
-0.087661
-0.087098
-0.087306
-0.099339
-0.040731
0.026978
-0.068432
-0.013244
-0.123976
0.026047
-0.057212
0.085255
-0.028230
-0.016028
0.042024
0.061517
0.058552
0.040888
0.033431
-0.012069
0.060769
-0.004805
0.132426
0.122067
0.197440
0.194603
0.210856
0.258083
0.227291
0.286198
0.345237
0.325133
0.308609
0.380390
0.395510
0.351016
0.348655
0.445810
0.424476
0.419320
0.438361
0.509349
0.477885
0.416946
0.502511
0.446610
0.420956
0.371980
0.408158
0.481345
0.355704
0.364332
0.288116
0.233038
0.409463
0.273567
0.319711
0.302018
0.227487
0.199666
0.159158
0.141763
0.148471
0.081217
0.088906
0.023385
0.080389
0.125916
0.068773
0.089147
0.039348
0.045838
0.017017
0.018644
-0.002905
-0.097920
0.016914
0.035965
-0.027214
-0.037003
-0.064003
-0.024646
-0.115068
-0.041234
-0.027821
-0.068655
-0.027603
-0.046387
-0.024288
-0.019245
-0.017060
-0.036109
-0.042616
-0.080103
-0.092543
-0.031243
-0.033798
-0.042914
-0.094183
-0.073141
-0.108530
-0.074962
-0.116379
-0.026478
0.002004
0.009809
-0.046666
0.088272
0.021806
-0.054601
-0.071529
-0.025738
-0.078389
-0.061559
-0.046434
-0.039186
-0.040817
-0.073119
-0.001312
-0.069334
-0.031259
0.006585
-0.053624
-0.036678
-0.012446
-0.137517
0.019660
-0.056240
-0.010522
-0.002828
0.040000
0.026729
-0.043118
-0.022571
0.059947
0.009874
-0.004134
0.018067
0.068905
0.050263
0.059091
0.044063
0.029715
0.079510
0.099479
0.045125
0.098386
0.040055
0.093486
0.009462
0.174476
0.075481
0.130578
0.089072
0.191979
0.120515
0.155045
0.260272
0.137048
0.133546
0.154137
0.206228
0.142914
0.108942
0.130079
0.134177
0.119441
0.091427
0.115739
0.031683
0.127919
-0.041042
0.027705
0.108165
0.064386
0.048967
0.015770
-0.050892
0.022662
0.049724
0.082847
0.004069
0.005237
-0.008405
0.072039
-0.011882
-0.026248
-0.045692
-0.045781
-0.057270
-0.091072
-0.038478
-0.090751
-0.095425
-0.049637
0.140730
0.326922
0.600396
0.843854
1.310467
1.440927
1.368619
1.223977
0.875878
0.522522
0.119889
-0.059836
-0.251613
-0.178034
-0.203353
-0.193626
-0.029622
0.029781
0.055611
0.076620
0.018891
0.011218
0.100635
0.043834
0.061518
-0.016924
0.092761
0.141991
0.072498
0.048923
0.113420
0.076287
0.174176
0.114065
0.156377
0.159864
0.198373
0.229340
0.205906
0.289843
0.365259
0.315762
0.394636
0.301814
0.352472
0.348800
0.364516
0.431376
0.453021
0.435393
0.444732
0.382555
0.537451
0.475024
0.549890
0.568229
0.554168
0.459172
0.470555
0.476067
0.464091
0.501723
0.506774
0.547791
0.492318
0.560075
0.519032
0.426912
0.451899
0.530981
0.370434
0.411445
0.449646
0.352391
0.400602
0.248488
0.239547
0.182125
0.224203
0.269923
0.198162
0.226309
0.259079
0.133904
0.138130
0.116212
0.145486
0.142437
0.105895
0.127904
0.176585
0.061102
0.064930
0.083870
0.112487
0.038904
0.066457
0.071388
0.004536
0.051280
0.099211
0.056446
0.000130
0.112668
0.124375
-0.009959
0.078546
0.055068
0.040106
0.078769
0.137755
0.047801
0.024739
-0.062361
0.082802
0.002945
0.020603
0.112193
0.013968
-0.034166
0.105888
0.071554
0.001901
0.095652
0.048375
0.024884
-0.043400
-0.025279
0.011178
0.069458
0.023054
0.070909
0.091694
-0.002867
0.022943
0.044507
0.034856
0.030355
0.050085
0.092777
0.073422
0.128768
0.049281
0.027865
0.082960
0.094133
-0.008386
0.042535
0.079830
0.033811
0.089621
0.100382
0.049437
0.091865
0.046820
0.026536
0.133483
0.114622
0.139967
0.084903
0.059699
0.100339
0.131741
0.045929
0.182291
0.118960
0.075806
0.186569
0.117311
0.185080
0.237058
0.199939
0.157065
0.191444
0.198206
0.240363
0.196883
0.218355
0.180551
0.138136
0.251352
0.211853
0.144961
0.119725
0.215551
0.109002
0.061920
0.098945
0.120807
0.082453
0.049986
0.040791
0.087010
0.089156
0.068193
0.100379
0.010768
0.024863
0.077993
0.077622
0.050181
0.080827
0.099047
0.036362
0.049172
0.106174
0.048787
0.044363
-0.041882
0.123130
0.053745
0.067741
0.265862
0.494853
0.813118
1.227381
1.350479
1.500000
1.296304
1.027224
0.673960
0.234315
-0.005635
-0.137651
-0.319233
-0.229803
-0.166492
-0.053962
0.050967
0.041492
0.096025
0.062354
0.132149
0.090215
0.103172
0.090806
0.017244
0.061814
0.045195
0.084967
0.172390
0.236348
0.131641
0.147513
0.148787
0.114078
0.157079
0.199103
0.275460
0.232263
0.208598
0.272329
0.314321
0.320525
0.319064
0.309550
0.358565
0.452823
0.443645
0.455935
0.432705
0.372737
0.518448
0.444148
0.424968
0.569347
0.496046
0.453958
0.472915
0.538538
0.572054
0.567824
0.553709
0.548022
0.549301
0.543508
0.397262
0.421920
0.469423
0.473078
0.369008
0.372474
0.336879
0.353023
0.260970
0.365439
0.331965
0.297098
0.216989
0.252375
0.208298
0.239426
0.133102
0.201398
0.139921
0.043096
0.074584
0.025645
0.047854
0.104073
0.055082
0.115329
0.024535
0.018174
0.078211
0.027957
0.012155
0.036313
0.033870
0.037003
0.003225
-0.078968
-0.061472
-0.053125
-0.087885
-0.056992
0.015980
0.031720
-0.039337
0.010143
-0.008743
-0.014961
-0.040546
-0.111722
0.037643
-0.050441
0.012296
-0.023683
-0.115367
0.045706
-0.055725
0.020501
-0.089381
0.004342
-0.050538
-0.008996
-0.044055
-0.030566
-0.077093
0.009257
-0.039862
-0.070019
-0.036598
-0.113479
-0.061091
-0.036145
-0.076659
-0.006198
-0.049266
-0.034220
-0.056427
-0.010861
-0.001024
-0.076655
0.017513
-0.005165
-0.066338
-0.039714
-0.072351
-0.062285
-0.101639
-0.037864
-0.077971
-0.053731
0.011999
-0.007151
-0.075188
0.065898
0.054426
0.027660
0.150007
0.002077
0.082518
0.024921
-0.024538
0.134817
0.092392
0.050930
0.052005
0.072659
0.113133
0.152952
0.098723
0.089293
0.148489
0.106887
0.042560
0.176804
0.156724
0.176454
0.106781
0.130035
0.084644
0.124978
0.125700
0.023992
0.056479
-0.009405
0.105933
0.033186
0.040035
-0.020165
-0.057341
-0.027551
-0.070442
-0.010178
-0.076013
-0.078904
0.002545
-0.050868
-0.132237
-0.091299
-0.022335
-0.102006
-0.039644
-0.025404
-0.106877
-0.128724
-0.108089
-0.048236
-0.080232
-0.058789
-0.033321
0.125035
0.300471
0.628812
1.036488
1.216753
1.336900
1.251014
1.009394
0.640257
0.243331
-0.087257
-0.268007
-0.348558
-0.297672
-0.296804
-0.126567
-0.148531
-0.091012
-0.060986
-0.017529
-0.047788
-0.051342
-0.054097
-0.010626
-0.099384
-0.030201
-0.071223
0.025093
-0.005153
0.009507
0.021318
-0.040045
0.063271
0.030351
0.090142
0.111507
0.078937
0.211070
0.145064
0.120620
0.118501
0.276604
0.246414
0.263928
0.250116
0.258453
0.292068
0.339485
0.379738
0.322747
0.257481
0.327685
0.386544
0.313470
0.393196
0.406375
0.328451
0.385774
0.393675
0.346346
0.387982
0.412522
0.378708
0.321460
0.397602
0.384596
0.309752
0.307899
0.253200
0.328228
0.212187
0.217708
0.254555
0.238939
0.228594
0.142902
0.083905
0.105613
0.052174
0.068617
0.052365
0.021558
-0.014109
0.051667
0.031459
-0.106102
-0.071710
0.005653
-0.049186
-0.147397
-0.054484
-0.029833
-0.145496
-0.037112
-0.152392
-0.052608
-0.121042
-0.035232
-0.051621
-0.117289
-0.087829
-0.111764
-0.237874
-0.049307
-0.098781
-0.158964
-0.089445
-0.037280
-0.122774
-0.056652
-0.147579
-0.086331
-0.077063
-0.046488
-0.139655
-0.102990
-0.025295
-0.103846
-0.057190
-0.094122
-0.062379
-0.083767
-0.078201
-0.051619
-0.113671
-0.153515
-0.127252
-0.040690
-0.041029
-0.087772
-0.174997
-0.091273
-0.129087
-0.064904
-0.091265
-0.091082
-0.037435
-0.109487
-0.038593
-0.173827
-0.004298
-0.079152
-0.005978
-0.171501
-0.146654
-0.125337
-0.079352
-0.071771
-0.042681
-0.020000
0.036121
-0.068894
-0.146092
-0.062445
-0.052342
-0.108147
-0.086438
-0.035549
-0.025299
-0.087227
-0.045993
0.013163
-0.016062
0.005041
0.010771
0.025780
0.037459
0.067413
0.077871
0.063432
0.126335
0.059758
0.110174
0.079473
0.065392
0.085863
0.048160
0.126272
0.015405
0.054372
0.055404
0.037310
-0.010008
0.087839
-0.003927
-0.019482
-0.085216
-0.010278
-0.106243
-0.028712
-0.029054
0.018631
0.016784
-0.022581
-0.091682
-0.083854
-0.073265
-0.004272
-0.003531
-0.045543
-0.093792
-0.018354
-0.055135
-0.106863
-0.085320
-0.114040
-0.056086
-0.074550
-0.152991
-0.144661
-0.150709
0.034165
0.345412
0.564681
0.933208
1.224136
1.328836
1.259761
1.136848
0.782006
0.320675
0.027033
-0.145525
-0.302397
-0.342424
-0.290242
-0.139575
-0.133030
-0.047528
-0.070641
-0.013244
-0.045350
0.033871
-0.043721
-0.072146
-0.006764
-0.031811
-0.062119
0.012692
0.079394
0.083456
0.040005
0.058311
0.085644
0.058867
0.072273
0.130477
0.168212
0.190931
0.250903
0.244222
0.121193
0.246324
0.278357
0.287190
0.181561
0.333323
0.353194
0.401438
0.437618
0.308139
0.359691
0.457706
0.441501
0.379617
0.479430
0.493575
0.352998
0.505797
0.432687
0.516473
0.497640
0.468735
0.403295
0.471099
0.402247
0.370000
0.418224
0.429045
0.352078
0.330942
0.317458
0.297478
0.354933
0.245397
0.236664
0.199231
0.206897
0.136988
0.195462
0.312265
0.102703
0.149970
0.174235
0.009955
0.048434
0.110188
0.114766
0.069388
0.099219
0.039387
-0.020496
0.079909
-0.044487
-0.062125
0.051692
0.145276
0.049869
0.048379
-0.000254
0.069996
-0.004202
0.006188
0.045866
0.012188
-0.008466
0.005037
-0.020023
-0.011899
0.041549
-0.037779
0.011990
0.081755
-0.001943
-0.013753
-0.053498
0.080017
0.052047
-0.004701
-0.013430
-0.002974
-0.017466
0.055173
-0.008795
-0.034756
0.112019
0.016926
0.028398
-0.034849
0.038520
-0.013415
0.022884
-0.004029
0.043455
-0.010914
0.039788
0.005818
-0.001240
0.015530
0.052483
-0.012570
0.064215
-0.061118
-0.023301
0.010469
-0.053583
0.092938
0.033702
0.046194
-0.007957
0.063281
0.010221
0.071321
0.086091
0.130892
0.017216
0.061204
0.074643
0.087294
0.072496
0.026203
0.035234
0.073374
0.160704
0.150622
0.091808
0.215010
0.243110
0.150672
0.192594
0.220564
0.279375
0.241898
0.165150
0.263751
0.179282
0.202485
0.149516
0.328054
0.160349
0.188288
0.207431
0.228102
0.226898
0.143832
0.087247
0.180200
0.201142
0.074769
0.184979
0.118357
0.100234
0.083516
0.006200
0.129324
0.040545
0.103139
0.119567
0.029691
0.060983
0.118158
0.039673
0.036393
0.028475
0.075291
0.132451
0.024947
-0.002447
0.053440
0.021837
0.011974
0.009097
0.113910
0.364460
0.696541
1.037997
1.172196
1.395138
1.372309
1.315091
0.954267
0.590654
0.195644
-0.016660
-0.120621
-0.252713
-0.188448
-0.093839
-0.030272
0.004652
0.096178
0.118077
0.052233
0.049645
0.096026
0.158275
0.030080
0.098596
0.167132
0.072538
0.114262
0.153349
0.124740
0.153831
0.210145
0.244392
0.218045
0.132451
0.274739
0.289465
0.272686
0.344541
0.292600
0.315480
0.383053
0.363830
0.388933
0.392264
0.450989
0.440825
0.510005
0.494388
0.492752
0.552805
0.583999
0.487092
0.593540
0.624821
0.566397
0.627951
0.585258
0.524647
0.625754
0.535673
0.491540
0.571190
0.568748
0.536242
0.446545
0.443490
0.539123
0.510007
0.468886
0.467027
0.441106
0.425515
0.377597
0.312095
0.324192
0.336072
0.208054
0.200680
0.219579
0.266693
0.255835
0.263987
0.204639
0.169827
0.078382
0.255373
0.162019
0.116136
0.090734
0.058794
0.144240
0.136450
0.085920
0.104223
0.080007
