-0.040869
0.023504
-0.038645
0.009264
-0.005678
-0.005753
0.042883
0.059251
0.102232
0.032995
-0.011196
-0.026469
0.068510
-0.020994
-0.069711
-0.036995
0.029662
-0.052961
-0.020375
-0.002039
0.044845
0.007257
0.110593
-0.050435
0.037956
0.040305
0.156636
0.032659
0.061750
0.076377
0.137693
0.173281
0.184872
0.127588
0.128293
0.136073
0.185645
0.217763
0.123152
0.208119
0.203832
0.129419
0.185431
0.117340
0.172401
0.233931
0.172556
0.122272
0.177006
0.107235
0.181870
0.188140
0.204926
0.169858
0.109376
0.104417
0.095196
0.035344
0.105586
0.033925
0.051575
0.022268
0.037877
0.063281
0.023738
0.096297
0.117394
0.032079
0.086078
0.037988
0.016325
0.020154
-0.003851
0.029722
0.030853
-0.019892
0.016088
0.025289
0.008702
-0.043589
0.143877
0.228669
0.456680
0.772300
1.134342
1.330183
1.445097
1.325349
1.027574
0.726404
0.319819
0.032896
-0.130119
-0.212965
-0.190901
-0.163283
-0.038510
0.006641
0.042811
0.015712
0.022275
0.130661
0.092988
0.094962
0.117471
0.139047
0.152062
0.197165
0.017598
0.180823
0.135103
0.168374
0.148401
0.186344
0.153936
0.125122
0.215027
0.237434
0.252818
0.303762
0.271717
0.311171
0.303048
0.368608
0.352515
0.381874
0.428104
0.437917
0.449263
0.437311
0.507517
0.508117
0.538923
0.518118
0.541343
0.590393
0.508520
0.559267
0.572857
0.616751
0.604378
0.616586
0.565801
0.516870
0.576414
0.527505
0.565446
0.476170
0.494465
0.510675
0.501142
0.484415
0.414595
0.494394
0.389839
0.411068
0.349221
0.290738
0.337862
0.285397
0.254468
0.239026
0.257115
0.307417
0.241592
0.225668
0.255638
0.107965
0.244480
0.147699
0.115892
0.181827
0.153918
0.170132
0.171384
0.100948
0.102812
0.142333
0.053411
0.102397
0.068183
0.123764
0.097686
0.133786
0.154587
0.098645
0.071371
0.117497
-0.041923
0.018451
0.043177
0.146686
0.099715
0.129997
0.197205
0.057746
0.095359
0.035587
0.047435
0.079576
0.117699
0.058637
0.016517
0.024196
0.063750
0.086696
0.014523
0.065213
0.135849
0.134926
0.060715
0.158916
0.058194
0.016894
0.136436
0.099491
0.037368
0.071373
0.007217
0.009105
0.134560
0.140695
0.004616
-0.003953
0.060490
0.112637
0.120828
0.089676
0.157596
0.064226
0.030593
0.060566
0.141006
0.096685
0.097141
0.134027
0.097169
0.075645
0.169551
0.208111
0.151439
0.103962
0.167912
0.162232
0.100669
0.200800
0.176572
0.114314
0.135718
0.266068
0.154168
0.222078
0.204773
0.263631
0.358232
0.254282
0.186030
0.289544
0.212132
0.258638
0.226005
0.201740
0.278278
0.160146
0.193298
0.157385
0.088581
0.251562
0.110467
0.240418
0.073922
0.069242
0.081297
0.132979
0.129388
0.130126
0.123955
0.027403
0.121860
0.097993
0.099666
0.028198
0.062438
0.133922
0.103790
0.107312
0.110983
0.097429
0.047761
0.129029
0.065110
0.059639
0.010012
0.038793
0.073633
0.298279
0.427225
0.817412
1.045490
1.343684
1.388024
1.393721
1.145472
0.797439
0.449018
0.156097
-0.107613
-0.199315
-0.134772
-0.175538
-0.018061
0.036520
0.058888
0.084572
0.049886
-0.007033
0.096125
0.108753
0.018683
0.129641
0.076522
0.095100
0.126305
0.080137
0.086976
0.157192
0.156669
0.249340
0.169460
0.122109
0.204951
0.214599
0.278091
0.267470
0.232728
0.333249
0.284470
0.402107
0.324900
0.325342
0.354609
0.382712
0.458884
0.547149
0.442626
0.489046
0.535386
0.471026
0.452366
0.494184
0.476529
0.536018
0.518962
0.570910
0.604039
0.548944
0.516648
0.493823
0.626298
0.490930
0.524564
0.487320
0.440436
0.509862
0.357187
0.489588
0.350208
0.395168
0.318963
0.333852
0.318995
0.266156
0.293610
0.267406
0.225202
0.164849
0.208788
0.205578
0.104030
0.102515
0.124736
0.082073
0.187577
0.095606
0.173571
0.071417
0.040982
0.058225
0.038344
0.040600
0.050367
0.003346
0.026216
0.048333
-0.003271
0.000117
-0.005739
0.020106
0.051662
0.038652
0.047100
0.030729
-0.026477
-0.034179
0.001235
-0.034388
0.040032
-0.021641
0.077350
0.071299
-0.089142
0.067966
0.058184
0.056310
0.027439
-0.057393
-0.075305
-0.028320
0.028783
-0.024968
0.023293
-0.038409
-0.014828
-0.005960
0.000673
-0.024682
0.019070
0.075361
0.019703
-0.038066
-0.043415
-0.039971
-0.003607
0.027352
-0.100799
0.016938
-0.023576
-0.008543
0.049130
0.121282
0.017862
0.075118
-0.102256
-0.025534
-0.032696
0.045255
0.000484
0.026619
0.059785
0.024382
-0.009239
0.019435
0.009347
0.044208
0.015889
0.076296
0.039058
0.123540
0.014839
0.010195
0.121724
0.017245
0.116407
0.161840
0.145309
0.085278
0.103290
0.137919
0.139015
0.086514
0.162196
0.155939
0.107711
0.160447
0.134578
0.126769
0.134636
0.098359
0.073828
0.131181
0.108647
-0.012547
0.023974
0.023999
0.049441
0.045285
-0.021138
0.045162
-0.000185
-0.010162
-0.043467
0.036986
-0.013894
0.018370
0.017187
-0.018456
-0.055081
0.002269
0.031766
-0.002446
-0.004447
-0.003460
-0.070655
-0.030850
-0.035882
-0.066253
-0.059467
-0.098701
-0.040080
-0.015052
0.275806
0.560499
0.946211
1.196295
1.354768
1.356230
1.144287
0.776419
0.398105
0.082496
-0.164155
-0.280813
-0.298448
-0.308260
-0.191644
-0.118839
0.011017
-0.000674
0.014167
0.017484
-0.014488
-0.057648
-0.083072
0.046883
0.015548
-0.036530
0.006762
0.041041
0.057254
0.009674
0.076724
0.101878
0.136273
0.074589
0.133257
0.172107
0.186032
0.090377
0.193974
0.207567
0.175592
0.247955
0.312011
0.299234
0.295357
0.240082
0.310131
0.307184
0.375581
0.396439
0.315945
0.385534
0.330957
0.499974
0.490190
0.363858
0.362438
0.448960
0.506081
0.421784
0.431459
0.402165
0.491090
0.490725
0.446450
0.408397
0.424670
0.369586
0.293886
0.325787
0.319013
0.364421
0.255493
0.228647
0.263591
0.247691
0.174299
0.238234
0.248248
0.015871
0.060549
0.136018
0.074952
0.092771
0.099062
0.090401
0.013346
0.095225
0.071918
0.015817
0.052498
-0.004743
0.048024
0.013750
-0.058585
0.003248
-0.039009
-0.075608
0.044338
0.022707
0.036501
-0.111388
-0.050383
-0.014325
-0.064448
-0.052661
0.076343
-0.036721
-0.009099
-0.021734
-0.142854
0.052594
-0.018116
0.005532
0.008579
-0.053884
-0.030954
-0.104482
-0.065261
-0.029185
-0.019580
-0.027877
0.003277
-0.055171
0.006261
0.056939
-0.086984
0.015751
0.020844
-0.019888
-0.081688
0.044467
-0.113308
-0.081863
-0.034966
-0.072031
-0.002393
-0.012454
0.026561
-0.050306
-0.095601
-0.041342
-0.012184
-0.086740
-0.019222
0.004622
-0.045372
0.030259
0.048964
0.020336
0.012996
0.070047
-0.006014
-0.024946
-0.047150
-0.045994
0.136760
-0.011092
0.006423
-0.047374
-0.050963
-0.020781
0.049050
-0.003649
-0.036711
0.083951
0.044771
0.169820
0.187217
0.076800
0.170907
0.111126
0.075372
0.175574
0.174517
0.176986
0.165655
0.089445
0.229154
0.046430
0.214661
0.122227
0.142021
0.183874
0.130530
0.160709
0.072115
0.087391
0.125119
0.045121
0.084116
0.061914
0.037636
0.068669
0.077694
0.057091
0.019220
0.102195
0.012784
0.042439
0.032444
-0.013593
0.030935
0.027552
0.016309
-0.021256
-0.157842
-0.005359
-0.083274
-0.020121
-0.106016
-0.017419
-0.056082
0.094206
0.161995
0.572768
0.778824
1.156808
1.371374
1.404636
1.032719
0.974103
0.563674
0.227149
-0.089213
-0.096358
-0.271624
-0.147498
-0.107619
-0.011456
0.007950
-0.016891
-0.001115
0.131709
0.018781
0.037519
0.102262
0.092293
0.002954
0.105317
0.056671
0.150501
0.013382
0.120683
0.112382
0.082679
0.148367
0.148225
0.216410
0.218018
0.170817
0.211539
0.305291
0.316308
0.276790
0.288244
0.323194
0.289855
0.290237
0.398033
0.458808
0.381950
0.443441
0.469710
0.474907
0.435246
0.503600
0.491103
0.475894
0.484752
0.573152
0.532971
0.549828
0.581294
0.494469
0.461731
0.493542
0.493453
0.485276
0.517872
0.487623
0.474174
0.392037
0.431696
0.416909
0.407729
0.415361
0.360614
0.365503
0.337919
0.328229
0.261508
0.290283
0.262499
0.279572
0.202568
0.191844
0.264809
0.217157
0.152335
0.113667
0.192005
0.162401
0.135771
0.041588
0.050738
0.119887
0.112123
0.043733
0.147118
0.073238
0.076876
0.025504
0.158287
0.096568
0.064658
0.017774
0.146417
0.065619
0.013178
0.040203
0.091709
0.094532
0.037335
0.019547
0.051851
0.147087
0.083794
0.081187
0.088213
0.069275
0.003122
0.044756
0.043545
0.111396
0.070353
0.045211
0.102299
0.068823
0.100347
0.050557
0.070525
0.073792
0.111043
0.102981
0.086288
0.076392
0.091814
0.091510
0.093060
0.077934
0.061502
0.082890
0.036746
0.079770
0.008384
0.050908
0.093353
0.124493
0.152572
0.132673
0.044838
0.059436
0.076689
0.179437
0.062460
0.131241
0.015801
0.117048
0.022520
0.122841
0.150135
0.108006
0.217845
0.200528
0.193083
0.190158
0.095780
0.213707
0.136525
0.188365
0.107566
0.200918
0.185203
0.161371
0.216181
0.222572
0.272465
0.266281
0.285246
0.235524
0.286198
0.282336
0.184727
0.213141
0.209418
0.269502
0.195347
0.220679
0.191045
0.172753
0.191272
0.147342
0.117550
0.189141
0.163160
0.135086
0.096598
0.090147
0.123942
0.124125
0.130570
0.115916
0.079764
0.078784
0.104457
0.051530
0.037828
0.131635
0.082303
0.094907
0.071926
0.013271
0.129828
0.036480
0.042319
0.096994
0.191500
0.230805
0.509663
0.796923
1.182365
1.500000
1.465084
1.427895
1.055415
0.766909
0.439175
0.098253
-0.089868
-0.091192
-0.102510
-0.014023
0.029619
0.044228
0.075649
0.059179
0.025372
0.146489
0.106181
0.097223
0.157029
0.085750
0.119835
0.076487
0.217090
0.147436
0.233101
0.115748
0.176961
0.256011
0.268261
0.293394
0.266965
0.281893
0.233422
0.283084
0.263176
0.461257
0.455719
0.402130
0.377020
0.411094
0.403445
0.489401
0.427722
0.433905
0.525621
0.518041
0.567977
0.530046
0.540971
0.590199
0.570648
0.607456
0.637933
0.550867
0.570697
0.504359
0.646576
0.544529
0.547053
0.567747
0.533811
0.491842
0.505748
0.474089
0.451698
0.439315
0.402584
0.517956
0.406267
0.422917
0.316449
0.286222
0.330212
0.316266
0.290259
0.317664
0.229554
0.228343
0.258817
0.138263
0.230892
0.111903
0.124905
0.229464
0.134059
0.121342
0.041870
0.157930
0.036378
0.152239
0.028086
0.076228
0.085990
0.076372
0.149643
0.111042
0.064611
0.166123
0.038509
-0.021638
0.142278
0.027431
0.066789
0.109950
0.064808
0.092920
0.021881
-0.028167
0.067937
0.024210
0.102740
0.066033
0.060580
0.068900
0.082697
-0.006167
0.076774
0.103244
0.030235
-0.006071
0.063800
0.005149
0.079976
0.046024
0.155637
0.080612
0.001953
0.014708
0.020713
0.085547
0.079127
0.032461
0.025156
0.055243
0.060388
0.046811
0.074425
0.044497
0.007676
-0.004178
0.088475
0.105287
0.043751
0.014844
0.009498
0.091803
0.076609
0.020041
-0.026674
-0.025703
0.105128
0.058383
0.044450
0.067580
0.048046
0.113729
0.145258
0.127465
0.114894
0.075118
0.120582
0.163419
0.165975
0.165967
0.140786
0.127841
0.192303
0.176745
0.144742
0.161770
0.115679
0.221134
0.219200
0.175601
0.167672
0.167841
0.220700
0.162935
0.224007
0.098030
0.190558
0.120633
0.108962
0.014797
0.126815
0.067016
0.081412
-0.029089
0.029845
0.137814
-0.036277
0.046861
0.013193
0.089289
-0.001197
-0.093686
-0.026269
0.048784
-0.024603
-0.031412
-0.012725
0.017518
0.053191
0.087544
-0.028712
-0.117990
-0.025457
-0.019281
0.035216
0.147354
0.279571
0.564595
0.957042
1.193436
1.438841
1.348865
1.052105
0.720026
0.392789
0.183750
-0.112564
-0.261833
-0.232597
-0.224647
-0.124914
-0.104373
0.050235
-0.035212
0.024053
-0.040708
-0.001705
0.002204
0.004319
0.016830
-0.037705
-0.034882
0.089940
0.001869
-0.013022
0.016332
0.061478
0.068003
0.096146
0.110589
0.086480
0.203927
0.151252
0.162056
0.209537
0.179459
0.218833
0.248868
0.279161
0.213938
0.371312
0.297065
0.378535
0.350094
0.355070
0.379633
0.442440
0.420891
0.480564
0.435621
0.564725
0.526160
0.469496
0.470004
0.441811
0.473562
0.420087
0.495587
0.390977
0.475863
0.293945
0.389074
0.372246
0.357150
0.368696
0.387224
0.345907
0.256096
0.218167
0.246211
0.233912
0.131448
0.158679
0.232200
0.196900
0.192601
0.110493
0.138700
0.048973
0.084810
0.069857
0.088962
0.104821
0.023194
0.008142
0.007757
-0.007860
-0.009947
-0.107748
-0.065440
-0.058452
-0.081292
-0.026418
-0.038122
-0.032988
-0.067866
-0.037509
-0.115733
-0.011340
-0.112066
-0.056040
0.008701
-0.098939
-0.029608
-0.002852
-0.022027
-0.091263
-0.052740
-0.047182
-0.085560
0.023110
-0.128962
-0.129130
0.057663
-0.025274
-0.004143
-0.066488
-0.009287
-0.083745
-0.078610
-0.032677
-0.072157
-0.116279
-0.042292
-0.096061
-0.042699
-0.069420
-0.044401
-0.094778
-0.027171
-0.059464
-0.097199
-0.020953
-0.129547
-0.109235
-0.035812
-0.089878
-0.107434
-0.167628
-0.117763
-0.085223
-0.081768
-0.068038
-0.075472
-0.083995
-0.069520
-0.070029
-0.027761
-0.017600
-0.115330
-0.084723
-0.106164
-0.037740
0.000401
0.049363
-0.014719
0.038220
-0.022607
-0.018492
0.022708
0.010011
-0.003612
0.010721
0.033093
0.167232
0.091513
0.152144
0.145937
0.019546
0.146048
0.007857
0.055511
0.097625
0.062476
0.123716
0.071456
0.117634
0.053136
0.042657
0.049189
0.019011
-0.047157
0.082932
0.038159
0.018310
-0.092904
0.009070
-0.008789
-0.043969
-0.088990
-0.112679
-0.041127
-0.117036
-0.006191
-0.033839
-0.061121
-0.044034
-0.013953
-0.050739
-0.059990
-0.075911
-0.030276
-0.116764
-0.061318
-0.072269
-0.075453
-0.056449
-0.040859
-0.121972
-0.010985
0.064819
0.442791
0.816667
1.084200
1.310489
1.275919
1.104159
0.789024
0.455573
0.135879
-0.171376
-0.329227
-0.279799
-0.297021
-0.270957
-0.195867
-0.055467
-0.089015
-0.022930
0.006256
-0.100769
-0.035481
-0.033065
-0.037834
-0.103088
-0.026015
-0.040640
-0.063457
0.014970
-0.030916
-0.011624
0.036936
-0.023064
-0.024159
0.110306
0.049187
0.064969
0.153180
0.165121
0.112638
0.166495
0.207083
0.227464
0.271107
0.307595
0.234521
0.276056
0.340894
0.367945
0.414550
0.379913
0.369413
0.331194
0.424222
0.430148
0.466030
0.462150
0.448135
0.426255
0.485335
0.446099
0.422699
0.424787
0.368063
0.424899
0.450531
0.394209
0.407069
0.377475
0.342259
0.338609
0.319387
0.226668
0.227631
0.217618
0.222721
0.264251
0.105782
0.124016
0.074961
0.131157
0.143245
0.107184
0.006691
0.090352
0.088290
0.098110
-0.039610
-0.022099
0.041374
0.041853
-0.057901
-0.038976
0.074742
0.009465
-0.085387
-0.023348
-0.036557
-0.164814
0.026788
-0.037036
-0.047655
-0.101701
-0.012341
-0.018669
0.018927
-0.003585
0.042048
-0.073578
-0.008770
0.052435
0.020584
-0.000936
-0.082202
0.007070
-0.027174
-0.033382
-0.089209
-0.026751
0.017499
-0.042860
-0.017055
0.012959
0.083332
0.004509
-0.113547
-0.045286
-0.117603
-0.029968
-0.041645
-0.038840
0.038761
-0.059329
-0.032103
0.035350
0.042169
-0.030521
-0.075405
-0.005290
-0.047358
0.060983
-0.039856
-0.050785
0.009258
-0.012429
0.001965
-0.047582
0.035016
-0.047375
0.032803
-0.022800
-0.050992
0.026281
0.087688
0.004554
-0.060106
-0.007023
-0.043729
0.060431
0.082904
0.152095
0.097593
-0.005077
0.082244
0.038066
0.034850
0.136054
0.086630
0.134325
0.152160
0.132273
0.183594
0.108122
0.262257
0.213956
0.189565
0.182919
0.256375
0.163548
0.114127
0.099260
0.216279
0.195682
0.116714
0.117431
0.140133
0.168766
0.087166
0.158000
0.083109
0.182033
0.076666
0.093786
0.033642
0.035248
0.072947
-0.007093
0.039443
-0.018618
-0.027222
-0.063870
0.069432
0.037251
-0.005831
0.014513
0.085945
-0.055961
-0.004137
0.072398
-0.038528
-0.061567
-0.002159
0.043006
0.138158
0.246924
0.473327
0.830634
1.129582
1.364183
1.447401
1.234706
0.982420
0.642747
0.245441
0.061478
-0.182792
-0.223186
-0.244956
-0.166144
-0.060044
-0.010424
0.014545
0.030074
0.118464
0.122477
0.049307
0.097371
0.089272
0.032221
0.012062
0.103758
0.123878
0.039764
0.061276
0.146809
0.113171
0.135043
0.202169
0.223733
0.194813
0.197953
0.286906
0.266022
0.236858
0.267392
0.249337
0.300307
0.384543
0.337397
0.323795
0.392272
0.398698
0.442964
0.374271
0.476787
0.447744
0.449181
0.555018
0.600203
0.551501
0.555247
0.587984
0.559385
0.508815
0.495353
0.539463
0.565867
0.534254
0.579781
0.497459
0.471998
0.447010
0.440445
0.427595
0.404869
0.397252
0.320408
0.418857
0.284504
0.376403
0.261494
0.243436
0.250709
0.216594
0.274333
0.223013
0.179616
0.162111
0.197201
0.129842
0.070129
0.126159
-0.007008
0.045146
0.103796
0.055077
0.119971
0.048534
0.102032
0.014239
0.059388
0.023247
0.041577
0.114051
0.016987
0.040176
0.055468
0.064170
0.073116
0.008527
0.052381
0.084391
0.025826
0.023433
0.060965
-0.018220
0.019756
0.058081
0.076838
-0.045451
0.063307
0.063924
0.017580
0.098553
0.003669
0.109719
0.115324
-0.034281
0.042143
0.033970
-0.001046
-0.021660
0.009239
0.007295
0.122209
-0.039681
0.037882
0.060364
0.050000
0.024695
0.028720
-0.006557
0.120655
0.120350
0.127725
0.054163
0.007270
0.055208
0.093800
-0.005248
0.115248
0.035646
0.050627
0.066879
0.044222
0.098416
0.027607
-0.012737
0.105120
0.101806
0.067801
0.090699
0.074440
0.055720
0.045901
0.145423
0.019404
0.063648
0.103201
0.130050
0.223696
0.166337
0.132044
0.149602
0.168226
0.190634
0.248634
0.240467
0.166080
0.170710
0.174352
0.171231
0.246647
0.236270
0.149234
0.270698
0.117714
0.187906
0.185870
0.166338
0.148258
0.080830
0.045084
0.071047
0.158668
0.084532
0.124306
0.111285
0.029952
0.076956
0.047026
0.053077
-0.047082
0.093717
0.088701
0.030951
0.002266
0.060702
0.008845
0.014570
0.038702
0.003004
0.073011
-0.028424
0.083856
-0.033831
0.007498
0.008623
0.209657
0.360421
0.723425
1.089989
1.286361
1.434832
1.268192
1.131892
0.682348
0.396015
0.130073
-0.131297
-0.251446
-0.209160
-0.186044
-0.163034
-0.115373
0.053206
-0.076731
-0.013080
0.034554
0.062402
0.169103
0.010641
0.080746
0.132130
0.053964
0.088196
0.025765
0.081512
0.164270
0.084708
0.154658
0.112006
0.169665
0.112116
0.147700
0.177229
0.188797
0.226468
0.218200
0.328756
0.328267
0.392733
0.288719
0.298287
0.376939
0.368171
0.432650
0.454894
0.442772
0.348363
0.501018
0.448360
0.539552
0.482724
0.510585
0.405979
0.489719
0.531656
0.471319
0.470967
0.457207
0.527586
0.485568
0.457570
0.335416
0.414590
0.429391
0.411916
0.416739
0.313787
0.285528
0.264481
0.261770
0.246016
0.206401
0.251372
0.276551
0.158341
0.175238
0.179850
0.023861
0.127041
0.147475
0.139548
0.070164
0.062526
0.058979
-0.009717
0.028392
0.031325
0.003984
0.067873
-0.085625
-0.037121
-0.054641
-0.031482
0.050772
-0.037097
0.046352
-0.063852
-0.083764
0.027067
0.014023
-0.037368
0.031494
-0.037408
-0.019857
0.002997
-0.040303
-0.055715
0.007598
-0.067363
-0.075844
-0.046518
-0.004481
-0.033387
-0.034584
0.004275
-0.112987
-0.007779
-0.124006
-0.047077
-0.073835
0.010559
-0.107036
-0.084151
-0.015915
-0.136479
-0.114863
-0.042771
0.037278
-0.014159
-0.068278
-0.051537
-0.068786
-0.022899
-0.074461
-0.113744
-0.095915
-0.010767
-0.054656
-0.080015
0.001200
-0.109649
-0.139103
-0.073696
-0.108439
-0.048349
-0.065180
-0.008699
-0.121019
-0.071201
-0.032351
-0.012317
-0.100944
-0.049406
-0.003447
0.011788
0.009489
-0.072935
0.036393
-0.031682
-0.059003
0.096618
0.049686
0.033717
0.128769
0.073054
0.096901
0.030352
0.019876
0.138081
0.179649
0.139261
0.103481
0.158331
0.113605
0.016639
0.230282
0.028840
0.117680
0.114158
0.072038
0.042252
-0.009592
0.025249
0.042066
0.057727
0.058063
0.023239
-0.017990
-0.045205
0.023094
-0.017740
-0.087110
-0.063491
-0.022549
-0.078558
-0.024605
-0.103077
-0.126543
-0.076519
-0.037903
-0.081103
-0.046453
-0.068797
-0.047021
-0.103503
-0.043238
-0.093960
-0.098120
-0.061700
0.026782
0.265477
0.419823
0.762834
1.124375
1.315848
1.299995
1.102224
0.731053
0.387531
0.092470
-0.216484
-0.258774
-0.440867
-0.322062
-0.180880
-0.134199
-0.124612
-0.123851
-0.088511
-0.122298
-0.126247
-0.049479
-0.121646
-0.034132
-0.096059
-0.043714
-0.073881
-0.100840
-0.073287
0.061537
-0.054165
-0.012289
0.034094
0.058923
0.018913
0.030955
0.104604
0.059857
0.157177
0.185151
0.215639
0.207195
0.125253
0.226462
0.270381
0.258805
0.195907
0.360078
0.329163
0.309009
0.410387
0.382218
0.357112
0.366406
0.389641
0.332750
0.362896
0.467700
0.366216
0.374154
0.361967
0.382067
0.326101
0.385747
0.366019
0.315329
0.308119
0.317346
0.269072
0.267713
0.277670
0.255665
0.199046
0.243161
0.242786
0.199319
0.052811
0.187057
0.093327
0.075426
0.063745
0.052099
-0.004241
0.051483
-0.009829
-0.089176
-0.035759
0.002259
-0.000814
-0.086487
-0.063999
-0.063359
-0.137900
-0.058049
-0.050301
-0.098266
-0.058716
-0.059948
-0.071134
-0.059660
-0.166954
-0.152196
-0.061751
-0.154883
-0.093885
-0.109016
-0.050436
-0.088398
-0.112850
-0.134023
-0.135806
-0.139913
-0.063795
-0.167440
-0.154424
-0.099334
-0.099346
-0.053120
-0.065146
-0.050157
-0.126308
-0.078193
-0.067361
-0.078231
-0.173200
-0.017679
-0.081256
-0.066386
-0.142000
-0.000516
-0.022718
-0.096478
-0.071910
-0.066571
-0.045328
-0.093712
-0.091207
-0.121763
-0.181710
-0.105662
-0.080204
-0.073415
-0.051500
-0.061263
-0.111546
-0.046389
-0.084613
-0.028638
-0.049730
-0.085645
-0.081055
-0.148248
-0.046612
-0.087778
-0.088501
-0.081731
-0.140074
-0.038738
-0.061931
-0.010367
-0.062881
0.006976
-0.045898
-0.041181
-0.004301
0.022487
-0.026242
0.053829
0.053545
0.107029
0.043983
0.158392
0.085799
0.073637
0.137902
0.099037
0.081174
0.120114
0.094907
0.049562
0.142005
0.083431
0.033054
0.053519
0.062265
-0.032114
0.024158
0.036058
0.056508
0.014819
-0.014852
0.060882
0.008442
-0.007742
0.000863
-0.009752
0.012831
-0.068781
-0.037092
-0.085814
-0.088967
-0.081858
-0.023105
-0.036038
-0.069656
-0.045391
-0.058537
-0.142870
-0.005593
-0.064395
-0.059261
-0.124783
-0.086689
0.054230
0.211002
0.389920
0.834120
0.984798
1.230577
1.304109
1.152620
0.963962
0.524196
0.257959
-0.044298
-0.264865
-0.327532
-0.324097
-0.154545
-0.128409
-0.020319
0.025287
-0.042757
0.001584
-0.058699
-0.012318
0.025829
-0.077328
0.026492
-0.069651
0.004712
0.083839
0.074597
0.038628
0.044714
0.044124
0.094953
0.094080
0.148667
0.119963
0.147313
0.224151
0.203729
0.197315
0.211522
0.289675
0.367067
0.209153
0.304301
0.435698
0.305151
0.395658
0.336089
0.414908
0.333931
0.397187
0.460919
0.545115
0.409139
0.496499
0.480588
0.486608
0.583744
0.483407
0.490917
0.510989
0.503777
0.531451
0.452817
0.450239
0.471807
0.432870
0.405998
0.360069
0.435213
0.327514
0.309048
0.283466
0.214581
0.357764
0.186872
0.185797
0.234263
0.186734
0.217745
0.162197
0.221046
0.188520
0.074648
0.062056
0.092033
0.092336
0.164547
0.131155
-0.007469
0.002817
0.102385
0.020623
0.034486
0.023981
0.061429
0.039034
0.032456
-0.033949
0.026194
-0.042641
0.015643
0.046399
0.069992
0.030095
0.087585
-0.007854
-0.028192
-0.012243
-0.037599
0.056212
0.005718
0.054975
0.035748
0.104464
-0.004859
0.069639
0.046614
0.104280
-0.015948
0.051230
0.014975
0.029240
0.001703
0.118945
-0.045211
0.067687
0.027609
-0.045330
0.039994
0.045694
0.008090
-0.005692
-0.009150
-0.002716
-0.008409
0.003178
0.058214
0.000881
0.053765
0.036782
0.032840
0.015674
0.086636
-0.014294
-0.034482
0.035769
0.027099
0.082268
0.037755
0.031382
0.101354
0.021388
0.042037
0.033625
0.027409
0.174615
0.059286
0.150097
0.076386
0.090912
0.059625
0.122609
0.109651
0.108068
0.122378
0.178109
0.112493
0.185414
0.202808
0.161535
0.201304
0.214497
0.212361
0.309600
0.243517
0.234095
0.253339
0.178377
0.201252
0.158461
0.201752
0.220957
0.156772
0.184095
0.181603
0.195427
0.145548
0.099109
0.140027
0.086673
0.110026
0.148492
0.113688
0.121482
-0.007287
0.140474
0.071865
0.106489
0.074599
0.091317
0.002867
0.155626
0.002413
0.038824
0.072467
0.112418
0.072487
0.076176
0.063082
-0.025728
0.053074
0.136623
0.162710
0.473477
0.826554
1.103085
1.406555
1.465646
1.320043
1.045274
0.725707
0.371938
0.136670
-0.097205
-0.179626
-0.232127
-0.070264
-0.061615
0.003532
0.044782
0.002608
0.120919
0.106434
0.052093
0.116681
0.211358
0.085191
0.092371
0.164161
0.192231
0.195149
0.115551
0.158474
0.202069
0.191505
0.163204
0.222100
0.124556
0.304731
0.316649
0.286665
0.305612
0.327553
0.342905
0.334922
0.454411
0.400506
0.358896
0.477051
0.367367
0.487094
0.548958
0.566406
0.469578
0.557449
0.544227
0.545438
0.568079
0.553874
0.560101
0.584119
0.519523
0.611583
0.572099
