0.073780
-0.073083
-0.017632
-0.055211
-0.092728
-0.042485
-0.040588
-0.065470
-0.050380
0.018422
-0.037245
0.070523
-0.007073
0.063446
-0.018084
-0.020307
-0.009995
0.038771
0.052351
0.117034
0.004894
0.105035
0.076368
0.123864
0.083388
0.060943
0.076335
0.149884
0.196619
0.199465
0.155563
0.238551
0.174475
0.162990
0.212713
0.203140
0.148165
0.144438
0.133031
0.304213
0.191502
0.180787
0.175911
0.149528
0.133685
0.220219
0.112732
0.234355
-0.000541
0.229013
0.038984
0.152946
0.033028
0.044809
0.015147
-0.059592
-0.007613
0.016382
0.068663
0.000715
0.016141
0.056038
0.117261
0.123207
0.182663
0.253753
0.590547
0.853022
1.075778
1.485382
1.342620
1.308077
1.076520
0.697499
0.367259
0.021634
-0.061312
-0.145607
-0.122001
0.052257
0.018818
0.062437
0.084906
0.133308
0.144943
0.149434
0.165036
0.228217
0.176206
0.157531
0.136874
0.159176
0.304479
0.285531
0.327027
0.273511
0.383374
0.455247
0.388661
0.383805
0.415316
0.423497
0.494321
0.415039
0.546612
0.519709
0.551558
0.545785
0.579070
0.629601
0.578789
0.644070
0.621801
0.531743
0.599353
0.608363
0.584292
0.585266
0.496076
0.621625
0.596868
0.567304
0.518618
0.409469
0.539432
0.484762
0.498358
0.383769
0.512439
0.372655
0.331319
0.344760
0.294382
0.260681
0.231064
0.327289
0.260933
0.255260
0.237302
0.176791
0.195078
0.171805
0.190584
0.145055
0.285375
0.128943
0.143963
0.111800
0.011911
0.181355
0.112799
0.181088
0.100114
0.122530
0.071793
0.095440
0.113632
0.082008
0.053937
0.032175
0.136043
0.131496
0.089326
0.100888
0.123669
0.092867
0.038563
0.076056
0.095395
0.016558
0.073693
0.155542
0.048206
0.103421
0.185774
0.024567
0.036433
0.120480
0.196721
0.204012
0.093654
-0.008346
0.154772
0.042406
0.151407
0.061934
0.123829
0.128012
0.129817
0.124134
0.169662
0.080304
0.129363
0.120791
0.154132
0.124093
0.185333
0.207585
0.206144
0.206761
0.214945
0.275394
0.221039
0.326996
0.251798
0.258571
0.246664
0.407906
0.218938
0.232374
0.267225
0.321956
0.292744
0.262360
0.234729
0.271282
0.240202
0.186271
0.287433
0.203725
0.222733
0.206995
0.193367
0.083970
0.084544
0.150030
0.076187
0.141771
0.089369
0.101294
0.138883
0.103655
0.042923
0.176315
0.119567
0.078022
0.111061
0.139663
0.135647
0.357662
0.501240
0.783179
1.055773
1.323764
1.500000
1.451378
1.136887
0.750537
0.450308
0.131440
-0.012574
-0.147742
-0.032117
0.050891
0.018914
0.109505
0.163266
0.151305
0.129742
0.143224
0.105534
0.203738
0.181571
0.161016
0.193228
0.248228
0.273577
0.261076
0.312073
0.320129
0.412018
0.338161
0.370613
0.545233
0.478292
0.435174
0.495519
0.499647
0.518649
0.479880
0.540139
0.649858
0.581019
0.597392
0.654361
0.597297
0.584127
0.629958
0.600504
0.628899
0.565190
0.558435
0.565318
0.558759
0.621272
0.485691
0.531159
0.515802
0.462444
0.439361
0.435622
0.429353
0.460878
0.421367
0.366296
0.321507
0.310982
0.285278
0.301280
0.272087
0.179957
0.198024
0.278444
0.238838
0.258324
0.121600
0.142999
0.197028
0.068547
0.134943
0.175733
0.063076
0.115520
0.124623
0.052847
0.108321
0.075377
0.044847
0.100906
0.059673
0.141340
0.124130
0.071233
0.053092
0.004890
0.073537
0.042381
0.054786
0.072038
-0.016832
0.097126
0.014760
0.029302
0.076811
0.068066
0.091097
-0.035231
-0.000588
-0.010353
0.026190
0.084456
0.038395
-0.055296
0.041343
0.109048
0.098731
0.031455
0.034637
-0.033897
0.086172
0.060265
0.014533
0.186441
0.040553
-0.018157
0.059999
0.062369
0.114404
0.059126
0.121478
0.121898
0.186460
0.190590
0.119476
0.080601
0.175048
0.229297
0.184874
0.178030
0.170648
0.239858
0.221813
0.155747
0.144475
0.220627
0.238740
0.193886
0.193181
0.205484
0.145297
0.206500
0.130492
0.141913
0.156949
0.191200
0.038012
0.153776
0.108729
0.027317
0.105859
0.086696
0.120521
0.017799
-0.008943
0.010585
0.023983
0.076293
0.068919
0.112047
-0.071286
0.035689
-0.068455
0.046210
0.045613
0.348173
0.506943
0.877353
1.090869
1.339686
1.333856
1.257591
0.839675
0.529987
0.209862
-0.017306
-0.158921
-0.152279
-0.068516
-0.012225
0.024838
0.054644
0.128253
0.059660
0.088787
0.104723
0.132366
0.085960
0.102505
0.189870
0.121411
0.133721
0.192632
0.133624
0.170310
0.208265
0.320290
0.319649
0.274651
0.377959
0.327274
0.347031
0.381776
0.469959
0.400448
0.450464
0.339984
0.520957
0.464121
0.507261
0.521050
0.501584
0.524267
0.487307
0.619275
0.463250
0.611753
0.437077
0.578276
0.451954
0.516752
0.432401
0.420865
0.397838
0.381073
0.314124
0.407887
0.372948
0.241378
0.286075
0.153652
0.245086
0.170006
0.207163
0.123454
0.178061
0.111534
0.100337
0.086202
0.131632
0.058729
0.085538
0.095910
0.086264
0.025709
0.118700
0.094063
-0.042257
0.005297
0.044843
-0.048439
0.024686
-0.055748
-0.034152
-0.016790
-0.099551
0.059346
-0.025507
-0.012560
-0.042421
-0.084608
0.012381
-0.030291
0.013564
-0.012089
-0.051477
-0.033690
-0.079203
0.015778
-0.054463
-0.057472
-0.067426
-0.019485
-0.089854
-0.024545
-0.046870
-0.090439
-0.059837
-0.044000
-0.050435
-0.061257
-0.117086
-0.008291
-0.056453
0.056114
-0.030584
-0.034650
0.024593
0.095875
-0.001451
0.010093
0.015411
-0.072090
0.052547
0.057837
0.057821
0.010995
0.054978
0.067432
0.002307
0.141212
0.052419
0.088139
0.071073
0.116938
0.101540
0.154880
0.176438
0.080313
0.198665
0.188800
0.142392
0.128676
0.144069
0.122987
0.070029
0.137835
0.025841
0.109441
0.148071
0.072928
0.145247
0.025883
0.084167
-0.032060
-0.037701
-0.113315
-0.029550
-0.031978
-0.022528
-0.009503
-0.005332
-0.070905
-0.017709
-0.011212
-0.055144
-0.028340
-0.028451
0.038930
0.119881
0.398282
0.561224
0.945878
1.298594
1.419218
1.332198
0.984413
0.662428
0.170657
-0.066851
-0.127862
-0.159626
-0.118133
-0.129321
-0.021611
-0.053239
0.007499
0.077820
0.013400
-0.029484
0.067495
-0.009183
0.114858
0.004429
0.127886
0.146179
0.269743
0.186010
0.166765
0.214552
0.249858
0.217735
0.245166
0.280747
0.270274
0.308290
0.315739
0.357774
0.346022
0.376803
0.371866
0.447076
0.507657
0.484780
0.401300
0.470608
0.562571
0.503270
0.493826
0.484917
0.487433
0.550409
0.494333
0.506982
0.466460
0.446536
0.401795
0.410281
0.402556
0.376632
0.408764
0.384263
0.264773
0.290846
0.307367
0.218986
0.292146
0.259114
0.217769
0.189958
0.137610
0.079605
0.076534
0.125405
0.055520
0.052872
0.091866
0.107542
-0.049205
0.025943
0.025396
0.051815
0.028257
-0.002947
-0.034288
0.024120
0.042888
0.034428
-0.098869
0.061426
-0.024143
-0.003510
-0.019804
-0.018798
0.007775
0.001458
-0.037742
-0.063690
0.060950
-0.109375
-0.055062
0.107818
-0.016668
-0.002069
-0.036835
0.055667
-0.061249
-0.067693
-0.022689
0.006507
-0.058302
0.019578
0.025474
0.012915
-0.013546
0.056562
-0.013327
0.014985
0.033258
0.032800
0.021989
0.045173
0.007018
0.066141
-0.009995
-0.003438
0.012456
0.065942
0.054476
0.049834
0.060438
0.165430
0.103556
0.148342
0.055004
0.153449
0.158395
0.236799
0.184745
0.196136
0.204453
0.247388
0.180653
0.170403
0.242764
0.199030
0.207052
0.239870
0.147518
0.138824
0.191399
0.169592
0.152580
0.094488
0.132240
0.132893
0.185361
0.108600
0.025331
0.102483
0.083942
0.123132
0.108056
0.037964
0.007522
0.052033
0.052209
0.124743
-0.015043
0.044872
-0.056696
-0.002391
0.101641
0.204156
0.304199
0.605169
0.976789
1.260607
1.462114
1.464692
1.209387
0.914579
0.535977
0.178905
-0.023851
-0.145611
-0.121498
-0.091542
-0.016275
0.079254
0.123640
0.102616
0.149132
0.131707
0.201304
0.161660
0.186397
0.154423
0.211943
0.212218
0.309674
0.166688
0.158486
0.330721
0.348060
0.373899
0.360281
0.355909
0.445714
0.338300
0.523890
0.443779
0.548926
0.441930
0.526691
0.530138
0.589445
0.511836
0.557343
0.600155
0.592154
0.573323
0.627561
0.560699
0.619775
0.494493
0.555791
0.642888
0.501790
0.505121
0.565881
0.515716
0.489442
0.429454
0.414218
0.400266
0.382863
0.447833
0.314328
0.384573
0.388116
0.232677
0.363343
0.291130
0.253640
0.243765
0.237149
0.194483
0.237805
0.212137
0.194119
0.127398
0.150197
0.147668
0.148558
0.136916
0.129889
0.062642
0.084708
0.201671
0.096981
0.093704
0.101982
0.122333
0.078631
0.098066
0.075634
0.107553
0.044974
0.077578
0.154006
0.161341
0.093886
0.003116
0.124864
0.034418
0.065239
0.144069
0.076549
0.045528
0.151885
0.071260
0.083623
0.071211
0.062349
0.143948
0.092427
0.096529
0.147283
0.120191
0.006006
0.090854
0.118475
0.137012
0.004158
0.133303
0.067481
0.127908
0.166500
0.152717
0.127888
0.144646
0.183357
0.122688
0.187723
0.180411
0.246674
0.203091
0.249793
0.158506
0.202540
0.242059
0.163023
0.182276
0.298670
0.259703
0.246699
0.259758
0.238699
0.349750
0.328955
0.299594
0.213567
0.295319
0.196972
0.305460
0.209719
0.240099
0.247750
0.203160
0.150808
0.146015
0.120823
0.194174
0.215931
0.127888
0.103778
0.138195
0.154860
0.141827
0.090407
0.082677
0.105819
0.109501
0.059943
0.180437
0.161046
0.135953
0.261534
0.499098
0.755271
1.187242
1.365087
1.471337
1.311441
1.129457
0.758214
0.455938
0.131111
-0.099050
-0.001854
0.015657
0.063845
0.138666
0.134758
0.234958
0.123693
0.136016
0.181710
0.188646
0.085931
0.292331
0.240368
0.290018
0.332728
0.339192
0.314658
0.327616
0.366826
0.390681
0.376011
0.432464
0.447702
0.512546
0.484647
0.506827
0.419310
0.501520
0.544445
0.617767
0.623901
0.581563
0.633282
0.647958
0.616282
0.585505
0.583560
0.628681
0.628174
0.632677
0.653996
0.577478
0.593236
0.545815
0.608505
0.478161
0.489567
0.434697
0.480308
0.395569
0.462341
0.419511
0.288964
0.322547
0.358046
0.346817
0.295387
0.268117
0.231634
0.239414
0.177453
0.252003
0.222869
0.242232
0.121133
0.134495
0.154891
0.188156
0.192364
0.139999
0.209803
0.041924
0.084645
0.164381
0.086796
0.004876
0.091455
0.076017
0.058819
0.067598
0.043545
-0.012232
0.124844
0.058315
0.069241
0.125593
0.032238
0.049131
0.092977
0.089891
0.052568
0.027649
0.133537
-0.011482
0.019183
0.010002
0.088061
-0.010220
0.132429
0.038410
0.059899
-0.033085
0.148847
0.091247
0.100630
0.061874
0.110548
0.073450
0.005421
0.110425
0.019609
0.062106
0.069039
0.068380
0.135179
0.047019
0.118625
0.109815
0.155504
0.157613
0.075846
0.084402
0.196617
0.200592
0.127092
0.150640
0.133465
0.256159
0.213279
0.193352
0.195346
0.250563
0.246254
0.224763
0.170167
0.122609
0.251411
0.158818
0.145794
0.212594
0.214250
0.133238
0.137299
0.230069
0.158235
0.146007
0.183638
0.096136
0.075224
0.101648
0.134102
0.124912
0.018836
0.026295
0.083857
0.022755
0.009438
-0.003075
-0.003516
0.035671
0.043592
-0.004520
0.214616
0.373567
0.623273
1.022194
1.270989
1.354904
1.311862
1.179439
0.802693
0.508235
0.088825
-0.065893
-0.159746
-0.036141
-0.143710
0.003973
0.042461
-0.004864
0.006686
0.055399
0.149380
0.085107
0.101016
0.076450
0.178250
0.187451
0.132061
0.142503
0.159050
0.262268
0.195051
0.301765
0.218441
0.240687
0.435998
0.405146
0.385055
0.443868
0.372909
0.405711
0.406097
0.375002
0.516270
0.531238
0.445475
0.454589
0.491527
0.506065
0.459132
0.544902
0.444449
0.489855
0.521192
0.533638
0.373535
0.524317
0.479257
0.494779
0.488343
0.463247
0.456439
0.389010
0.351641
0.326461
0.372960
0.371478
0.243072
0.246484
0.206009
0.173257
0.200571
0.137231
0.147826
0.174934
0.163188
0.180469
0.111777
0.111899
-0.036955
0.023048
0.089025
-0.037790
0.020829
0.059343
-0.068871
0.001139
-0.015127
-0.069181
0.019895
0.000657
-0.071357
-0.082083
-0.035170
-0.087157
0.003434
-0.044188
-0.084891
0.012033
-0.024295
0.045330
-0.046410
0.054431
-0.055541
-0.001848
-0.054945
-0.040673
-0.037272
-0.034770
-0.085253
-0.081732
-0.057217
-0.011751
-0.046852
-0.002752
-0.080678
-0.082388
-0.056741
-0.034631
-0.119273
0.016563
-0.055503
-0.070499
-0.025923
0.027877
-0.007017
-0.048016
-0.047770
0.048856
-0.062523
0.028410
0.005397
-0.021169
0.071638
0.084506
0.039212
0.064699
0.025040
0.033243
0.100625
0.041973
0.200273
0.162130
0.103448
0.137812
0.083872
0.025318
0.080384
0.054103
0.081020
0.100202
0.122573
0.038705
0.072811
0.046534
0.076426
0.074585
0.055814
0.006555
0.049498
0.017442
0.057446
0.018146
-0.040618
-0.042221
0.033632
-0.049658
-0.063045
-0.060314
-0.030867
-0.143216
0.005500
-0.087947
-0.082343
-0.096955
0.099152
0.212836
0.445885
0.717978
1.067086
1.305375
1.356881
1.150648
0.829865
0.527610
0.162190
-0.142046
-0.239085
-0.283452
-0.188919
-0.112314
-0.026443
-0.096628
-0.063345
-0.067464
0.046858
-0.031853
0.049290
0.053460
0.055781
0.090234
0.124738
0.037882
0.164739
0.134018
0.161726
0.205911
0.125064
0.228758
0.205606
0.198291
0.314570
0.270393
0.397971
0.294146
0.371979
0.347587
0.462467
0.370643
0.391144
0.442276
0.445797
0.449079
0.488264
0.457120
0.361134
0.421222
0.473287
0.520859
0.428739
0.418989
0.405231
0.488124
0.279997
0.396990
0.344702
0.195211
0.339992
0.382331
0.151366
0.175209
0.261819
0.170014
0.102423
0.182045
0.085659
0.155393
0.130165
0.134060
0.084700
-0.046880
-0.000388
-0.054343
-0.002420
0.125015
-0.132863
-0.024585
-0.049831
-0.062455
0.010068
-0.017145
-0.035661
-0.077155
-0.110234
-0.035820
-0.101145
-0.078569
-0.086874
-0.047394
-0.095329
-0.050468
-0.110044
-0.050227
-0.137596
-0.104714
-0.141440
-0.100901
0.013450
-0.027323
-0.021896
0.001896
-0.064599
-0.042547
-0.058572
-0.013502
-0.028750
-0.081909
-0.115445
-0.123452
-0.054911
-0.058506
-0.124128
-0.065866
0.004763
-0.096790
-0.181403
0.029090
-0.079012
0.017655
-0.099101
-0.096355
-0.032533
0.001482
0.028981
-0.001195
-0.064596
-0.028854
0.065634
-0.060951
0.013568
-0.022927
0.117187
0.105020
0.091003
0.141866
0.121161
0.181196
0.088892
0.084475
0.077509
0.114185
0.085777
0.145040
0.119869
0.142105
0.068286
0.067656
0.068397
0.076378
0.122034
0.089317
0.039103
-0.074386
-0.038824
-0.020366
-0.008961
-0.018702
-0.006364
-0.082524
-0.116851
-0.071889
-0.069615
-0.060133
-0.006086
-0.124981
-0.169868
0.062249
-0.014903
0.013453
0.001014
0.108926
0.328037
0.598248
0.993131
1.278004
1.287005
1.282561
1.144230
0.699595
0.262480
0.008924
-0.141688
-0.210722
-0.286596
-0.092975
-0.062426
-0.022441
-0.024055
-0.022471
0.028688
-0.014898
0.062656
0.083535
0.090862
0.148321
0.162818
0.151623
0.243248
0.214130
0.224276
0.197932
0.203551
0.161942
0.267077
0.393684
0.287563
0.245241
0.342252
0.374021
0.453915
0.416257
0.483472
0.517357
0.530187
0.441664
0.361313
0.494939
0.491500
0.567906
0.520621
0.528705
0.533088
0.516599
0.523654
0.462092
0.419311
0.468744
0.382462
0.346747
0.458166
0.468138
0.339137
0.353152
0.211255
0.319789
0.329982
0.223913
0.216520
0.289289
0.154439
0.208845
0.143416
0.189026
0.108141
0.104539
0.055089
0.090933
0.064946
0.061919
0.075018
0.051594
-0.030297
0.014280
0.054480
-0.026049
0.024501
0.011778
0.028097
-0.026893
0.050131
-0.021903
0.119827
-0.002361
0.054013
0.055385
-0.045726
-0.007850
-0.040774
0.073296
0.034322
-0.067030
0.011947
0.054864
0.068833
0.006922
0.039673
-0.068556
0.021640
0.014824
0.013752
0.007324
0.131120
-0.021644
0.044087
0.019232
-0.049914
0.039710
-0.006507
0.002462
0.066062
0.010608
0.014853
0.007396
-0.034409
-0.002210
0.080128
0.131550
0.108858
0.104471
0.121787
0.127604
0.100452
0.023354
0.140040
0.173674
0.184129
0.188395
0.101242
0.201601
0.115804
0.148151
0.156271
0.131038
0.153529
0.192895
0.210669
0.258687
0.269745
0.206544
0.192976
0.190700
0.163491
0.140837
0.163765
0.188909
0.179239
0.197377
0.230499
0.095026
0.152425
0.063444
0.116619
0.093099
0.038652
0.034614
0.086289
0.043559
-0.006278
0.028406
0.003158
0.103993
0.083221
0.042953
0.090611
0.151081
0.283865
0.551395
0.950318
1.217788
1.338937
1.375041
1.251128
0.974054
0.584242
0.226109
-0.075989
-0.116680
-0.119995
-0.098315
0.050619
0.023443
0.094366
0.177224
0.090068
0.099124
0.118564
0.171170
0.134246
0.174761
0.213168
0.226303
0.202736
0.262043
0.300375
0.254609
0.211317
0.328879
0.331246
0.306489
0.250534
0.369591
0.451424
0.392781
0.394346
0.491717
0.440088
0.609391
0.569345
0.649470
0.612819
0.541354
0.576640
0.576113
0.649477
0.548405
0.608621
0.559065
0.591028
0.515752
0.535077
0.466173
0.523921
0.536016
0.525331
0.540748
0.519914
0.380846
0.364238
0.422111
0.308472
0.376530
0.238912
0.254352
0.278657
0.212345
0.259162
0.239629
0.149347
0.177262
0.144644
0.182008
0.203340
0.130689
0.147468
0.140200
0.221629
0.111153
0.042664
0.125984
0.046750
0.080717
0.041482
-0.008149
0.032925
-0.012785
0.049232
0.037542
0.077777
0.017571
0.070248
0.007451
0.025040
0.072467
0.067522
0.019918
0.014785
0.013581
0.021991
0.055833
0.094274
0.032263
0.014994
0.123635
0.022421
0.108540
-0.009620
0.026502
0.106760
0.047332
0.059993
0.025993
0.052152
0.035230
0.018286
0.023531
0.076221
0.065138
0.054251
0.005390
0.037464
0.132160
0.105314
0.043220
0.116109
0.111622
0.111859
0.142000
0.133411
0.123183
0.050586
0.146409
0.155140
0.135731
0.229263
0.180635
0.168224
0.169525
0.202973
0.218080
0.234514
0.211777
0.231442
0.196087
0.185215
0.262644
0.115868
0.190049
0.145581
0.115664
0.101474
0.097549
0.055155
0.147530
0.098255
0.080618
0.087553
0.071507
0.079356
0.047209
0.010913
0.061376
-0.045063
0.033209
0.059546
-0.044411
0.091709
0.085658
-0.000767
0.071545
0.201637
0.440576
0.758918
1.075129
1.300665
1.379028
1.246653
1.045534
0.667677
0.269729
0.016383
-0.072433
-0.128072
-0.085249
0.016690
0.028007
0.074428
0.017411
0.091958
0.094964
0.040841
0.161495
0.127790
0.098610
0.154292
0.185356
0.118527
0.149921
0.279283
0.257906
0.339047
0.367855
0.366418
0.263472
0.255957
0.302918
0.398991
0.387865
0.396236
0.509104
0.423620
0.468071
0.414449
0.545148
0.558875
0.473367
0.579657
0.527647
0.581180
0.610364
0.513199
0.509698
0.441884
0.445164
0.451035
0.512689
0.419951
0.423024
0.425295
0.446617
0.435797
0.316163
0.336075
0.383100
0.296014
0.276884
0.276969
0.251392
0.200761
0.170167
0.201408
0.084614
0.140978
0.108032
0.104744
0.056625
0.044193
0.012577
0.019277
0.104037
-0.021434
0.012271
-0.063027
-0.000522
0.025822
-0.009052
-0.122126
-0.092377
0.019121
-0.086253
-0.024306
0.001771
-0.072527
0.108167
-0.062763
-0.079466
0.053724
-0.019955
-0.052556
-0.066045
0.019315
-0.000357
0.088231
0.037311
-0.032756
-0.024428
-0.080901
0.015107
-0.058269
-0.055312
0.007736
0.008799
-0.094828
-0.061575
-0.064667
0.037362
-0.015606
-0.028544
-0.059386
0.022760
-0.043407
-0.097011
-0.108352
0.015771
-0.014915
0.026931
-0.020046
0.001226
0.031706
0.018066
0.025676
0.008652
-0.023945
0.019348
0.096315
0.011878
0.079953
0.073624
0.077517
0.120704
0.196427
0.160683
0.114134
0.080665
0.152615
0.139296
0.106388
0.084094
0.041449
0.035359
0.138205
0.080812
0.074474
0.098796
0.157955
-0.014249
0.014907
-0.015572
-0.086568
0.014883
0.006681
0.030330
0.001658
0.008045
-0.058023
-0.028408
-0.040227
-0.027677
-0.125732
-0.056598
-0.093701
-0.126733
0.055277
-0.069875
0.039436
0.256529
0.552898
0.771643
1.180868
1.299717
1.338591
0.999122
0.674165
0.270602
0.064626
-0.155244
-0.287388
-0.353455
-0.163073
-0.145965
-0.086281
-0.104799
0.036633
-0.086950
-0.007220
-0.005035
0.079014
-0.013969
-0.026124
0.161206
0.134330
0.055612
0.150806
0.088635
0.063971
0.160774
0.196576
0.166229
0.287735
0.165393
0.251108
0.359572
0.328264
0.301878
0.335796
0.349098
0.383643
0.420647
0.327721
0.477194
0.564536
0.441592
0.449794
0.447367
0.536109
0.455055
0.422123
0.368439
0.363469
0.416032
0.348873
0.384901
0.404669
0.316724
0.298194
0.331468
0.226742
0.264857
0.172576
0.111162
0.210254
0.138124
0.045001
0.215655
0.092322
0.077569
0.115097
0.067140
0.055318
-0.002650
0.041389
0.058044
-0.024847
-0.068801
-0.013003
-0.004363
-0.027551
-0.032209
-0.074022
-0.083961
0.014933
-0.015358
-0.110316
-0.126522
-0.058723
-0.029673
-0.099151
-0.108010
-0.075991
-0.094396
-0.116886
-0.111076
-0.043548
-0.076816
-0.111840
-0.095768
-0.082007
-0.093962
-0.148279
-0.037860
-0.149932
-0.055104
-0.113825
-0.098400
-0.049829
-0.108642
-0.114946
-0.086876
-0.119658
-0.083618
-0.166895
-0.014918
-0.051910
-0.154923
-0.091622
-0.029782
-0.085791
-0.004400
-0.024248
-0.157423
-0.010638
-0.190651
-0.048271
-0.176793
-0.099766
0.039025
-0.010449
-0.034039
0.051501
0.010309
-0.009708
0.052787
0.039922
0.052080
0.123250
0.050356
0.096619
0.032951
0.108168
0.084064
0.149732
0.053553
0.096939
0.093491
0.093581
0.071686
-0.005713
0.031471
0.059071
-0.011440
-0.039659
-0.018224
-0.105321
-0.026847
-0.059611
-0.055067
-0.074911
-0.046891
-0.071851
-0.102898
-0.019591
-0.113425
-0.073677
-0.098891
-0.083795
-0.097024
-0.174040
-0.019608
0.004803
0.207560
0.394911
0.757489
1.037284
1.171825
1.382246
1.126349
0.880918
0.564866
0.046928
-0.053212
-0.256870
-0.213610
-0.218052
-0.157077
-0.053233
-0.084570
-0.063376
0.020724
-0.039032
0.007308
-0.045847
0.012475
0.049299
0.098276
0.037049
0.081757
0.056706
0.182638
0.081683
0.165222
0.160053
0.164424
0.198040
0.207072
0.291780
0.347338
0.305438
0.387056
0.408843
0.389632
0.402847
0.365239
0.440979
0.449048
0.482798
0.551096
0.541415
0.541166
0.384036
0.466130
0.421366
0.472291
0.386147
0.382565
0.402787
0.324724
0.475425
0.326878
0.362683
0.419367
0.306195
0.240023
0.199378
0.291267
0.174531
0.283033
0.220897
0.249518
0.141695
0.165469
0.080267
0.054908
0.075510
0.022682
0.129993
0.064524
0.023503
0.076141
0.047398
0.119905
-0.013884
0.008942
-0.013169
-0.020038
-0.030410
-0.080965
-0.000285
-0.054488
-0.074362
-0.029975
0.009715
-0.060371
-0.006963
-0.027879
0.033497
-0.059380
0.030384
0.031303
-0.004566
-0.040985
0.084920
-0.039233
0.005165
-0.001583
-0.068645
0.000997
-0.103201
-0.045834
-0.049853
0.068820
-0.052279
0.073299
0.003020
-0.011577
0.018225
-0.016879
-0.013601
-0.027870
-0.122776
0.049895
-0.062658
-0.025420
0.046715
0.074115
0.017514
-0.005317
-0.012536
0.047443
0.037953
0.055326
0.100407
0.115849
0.135747
0.059717
0.110760
0.087652
0.147037
0.113303
0.187099
0.237757
0.105569
0.177608
0.235711
0.285159
0.258981
0.189426
0.189861
0.052389
0.190099
0.258043
0.124772
0.128427
0.122105
0.136140
0.040025
0.114150
0.086977
0.163229
0.111492
0.061268
0.082245
0.015780
0.133796
0.004374
-0.014688
0.076201
-0.023106
0.002372
0.026063
0.102910
-0.043676
0.004436
0.129720
0.188311
0.348903
0.629816
0.916685
1.298539
1.445183
1.338002
1.121895
0.774204
0.526473
0.166624
0.026762
-0.159969
-0.147470
-0.035769
0.026061
0.065481
0.059863
0.107908
0.059858
0.156392
0.111339
0.144310
0.219159
0.144414
0.238089
0.225252
0.207005
0.322523
0.284605
0.435593
0.347377
0.398795
0.383729
0.326448
0.390542
0.331459
0.393486
0.417716
0.447314
0.441444
0.516046
0.463219
0.408406
0.535361
0.567523
0.535881
0.597454
0.647961
0.558262
0.569179
0.617196
0.551942
0.455760
0.565494
0.552632
0.494161
0.561734
0.406100
0.494681
0.392189
0.403191
0.469497
0.392912
0.385836
0.266329
0.356935
0.333702
0.272527
0.283456
0.216491
0.258148
0.254583
0.221338
0.105842
0.166884
0.216687
0.168577
0.170034
0.089429
0.128147
0.160296
0.103453
0.122125
0.090242
0.124285
0.083734
0.113262
0.016106
0.074489
0.064092
0.162897
0.100412
0.066993
0.123773
0.116884
0.044917
-0.034611
0.090009
0.087137
0.007211
0.158496
0.060254
0.063379
0.076682
0.017280
0.040630
-0.036103
0.095306
0.001895
0.072836
0.060510
0.073987
0.027189
0.059651
0.025643
0.161056
0.130515
0.119056
0.058282
0.103373
0.006074
0.127077
0.033839
0.189530
0.154483
0.113648
0.086099
0.100754
0.146139
0.124039
0.079788
0.139565
0.163904
0.119889
0.305636
0.276680
0.159077
0.139395
0.168952
0.181849
0.260367
0.194933
0.266372
0.222067
0.296604
0.322952
0.196290
0.245810
0.192748
0.260006
0.230323
0.278857
0.199465
0.246940
0.209431
0.210244
0.148412
0.083980
0.228947
0.164048
0.137658
0.056009
0.040198
0.041996
0.127477
0.107474
0.110370
