0.022455
0.004553
-0.037586
0.038916
0.002373
-0.031961
-0.051789
0.042036
0.003317
-0.034687
-0.023953
-0.049372
0.026954
0.023783
0.024080
-0.024420
-0.004366
-0.062834
0.027490
0.114274
0.024303
0.032972
0.096392
0.043324
-0.004026
0.069167
0.057069
0.041239
0.043542
0.229961
0.103125
0.087539
0.153026
0.172950
0.150671
0.205154
0.105098
0.203867
0.178338
0.189731
0.207533
0.122601
0.248381
0.223653
0.207157
0.208207
0.189095
0.237818
0.218644
0.184130
0.218347
0.112968
0.113067
0.252024
0.096950
0.163771
0.121333
0.026879
0.003823
0.031384
0.143231
0.039652
0.072400
-0.000092
0.018887
-0.004437
0.038176
0.118277
0.036241
0.126725
0.067879
0.013413
0.100352
-0.002850
0.005245
-0.003422
-0.072192
0.039954
0.194137
0.265227
0.487336
0.901755
1.153597
1.500000
1.403322
1.173759
0.852830
0.571134
0.214837
-0.063488
-0.164436
-0.214699
-0.089012
-0.082665
-0.027294
0.039872
0.049081
0.102898
0.104252
0.092621
0.031135
0.114502
0.061953
0.079165
0.104666
0.062672
0.190974
0.093804
0.146438
0.158039
0.205574
0.166790
0.229275
0.191501
0.256222
0.318924
0.314803
0.320207
0.268831
0.337847
0.369967
0.357481
0.365591
0.388529
0.423083
0.494823
0.425386
0.528282
0.547895
0.473513
0.476836
0.495703
0.597822
0.620067
0.520039
0.557731
0.549297
0.518150
0.593237
0.558529
0.532482
0.523255
0.505158
0.498546
0.516324
0.461665
0.452131
0.452172
0.475153
0.370729
0.395996
0.342816
0.356778
0.276296
0.326142
0.262122
0.287237
0.248207
0.197236
0.304972
0.246421
0.120399
0.176696
0.165775
0.182214
0.243508
0.167778
0.132535
0.168054
0.092031
0.156091
0.051411
0.074079
0.066678
0.205565
0.060327
0.092418
0.117340
0.038061
0.099291
0.093709
0.138876
0.099142
0.141059
0.081670
-0.000572
0.092945
0.079124
0.100926
0.136852
0.071465
0.094940
0.039599
0.097495
0.146519
0.085159
0.101635
0.087260
0.123914
0.120288
0.090846
0.091699
0.105070
0.057355
0.055992
0.014227
0.144955
0.068471
0.133946
0.069016
0.111774
0.045426
0.061074
0.101739
0.134667
0.112091
0.113940
0.115857
0.089748
0.085206
0.109579
0.129905
0.062626
0.059676
0.081908
0.122100
0.074834
0.091411
0.098895
0.069939
0.080680
0.102495
0.097828
0.164236
0.134388
0.076436
0.164230
0.129396
0.137070
0.140291
0.168660
0.219684
0.252335
0.187392
0.196452
0.193439
0.257170
0.241750
0.183625
0.249115
0.221638
0.215797
0.194162
0.310548
0.251839
0.225109
0.232391
0.182421
0.197644
0.210675
0.181592
0.162595
0.123856
0.143002
0.112059
0.200577
0.138379
0.185064
0.059732
0.184874
0.107013
0.055779
0.076106
0.044780
0.138628
0.094454
0.045615
0.018954
0.061661
0.026159
0.112676
0.120626
0.073182
0.088711
0.042975
0.094300
0.131852
0.183849
0.570529
0.951395
1.094163
1.404545
1.349387
1.247456
1.025150
0.628709
0.199633
-0.002701
-0.177213
-0.158522
-0.153048
-0.130285
0.024692
-0.006186
0.058382
0.098558
0.090466
0.097644
0.087196
0.065458
-0.002144
0.077178
0.038438
0.080772
0.096062
0.092657
0.163639
0.204682
0.188973
0.115392
0.133965
0.313905
0.196933
0.228338
0.207687
0.250702
0.279262
0.318916
0.386583
0.280525
0.339929
0.365935
0.376853
0.430301
0.462972
0.498429
0.524291
0.535472
0.489882
0.535601
0.560265
0.536081
0.533095
0.522097
0.552787
0.510326
0.497684
0.518883
0.469675
0.545043
0.462130
0.432131
0.500847
0.434311
0.412922
0.418753
0.405790
0.374873
0.337575
0.242213
0.391483
0.256520
0.355493
0.325851
0.233519
0.238573
0.187088
0.182279
0.234756
0.131911
0.142942
0.044767
0.101554
0.019227
0.061145
0.115753
0.100005
0.163935
0.079381
-0.020533
0.070855
0.032622
-0.023887
0.059033
0.019585
0.095930
0.107951
0.083291
0.005748
0.018044
0.045151
0.010385
-0.001218
0.048162
0.035057
0.038185
0.011839
0.068696
0.033253
-0.110066
0.013097
-0.034058
0.024024
-0.015649
-0.011422
0.036456
0.014610
-0.031699
-0.062471
0.062564
-0.026626
-0.022659
-0.008827
0.037405
0.041215
0.015289
0.060596
0.025745
-0.090411
0.048869
-0.058083
0.047355
0.037811
0.051163
0.066310
0.032672
0.012256
0.005545
-0.069415
0.044071
0.059644
-0.023980
0.002572
0.071968
-0.010350
-0.048490
-0.031895
0.046384
0.023561
0.042204
-0.028131
0.009141
0.037568
0.152500
0.064519
0.056930
0.148427
0.073243
0.085476
0.078728
0.065089
0.192378
0.153729
0.061063
0.074528
0.193348
0.193027
0.131148
0.178905
0.129985
0.207797
0.218851
0.218219
0.137989
0.086081
0.126709
0.143312
0.100186
0.078172
0.003657
0.047979
0.045964
0.133013
0.034756
0.021041
-0.004295
-0.015894
-0.043090
0.014884
-0.051310
-0.035438
0.028513
-0.055892
-0.039515
-0.050019
-0.054423
-0.027564
-0.046441
-0.071433
-0.033592
-0.040031
-0.094649
0.005675
-0.139233
0.012071
0.056783
0.320254
0.682023
0.941446
1.263356
1.309404
1.231677
1.021941
0.734165
0.256278
0.072495
-0.211949
-0.229016
-0.298785
-0.252559
-0.123844
-0.168624
-0.026797
-0.030999
-0.033702
0.018421
-0.110708
-0.003728
0.040885
-0.027733
0.007210
-0.004908
-0.015815
0.059353
0.025145
0.083413
0.041406
0.126196
-0.003393
0.182511
0.160103
0.078743
0.122962
0.161614
0.252698
0.235165
0.206378
0.283751
0.256659
0.345981
0.276600
0.312470
0.332620
0.379041
0.393799
0.379110
0.341176
0.450818
0.483742
0.373291
0.425178
0.436110
0.480486
0.432134
0.436717
0.509419
0.441067
0.421802
0.410228
0.420040
0.397715
0.370152
0.298756
0.351004
0.329258
0.236908
0.370007
0.174849
0.219552
0.188890
0.226685
0.220437
0.251866
0.195314
0.055601
0.133808
0.134415
0.065728
0.070623
0.081831
0.066360
0.001332
0.058490
0.055820
-0.022216
-0.023592
-0.004919
-0.034525
0.019744
-0.032694
0.044033
-0.014816
-0.023177
-0.015144
-0.017698
-0.051279
-0.007885
-0.071554
-0.048314
-0.060501
-0.092424
-0.030902
-0.020096
-0.026924
-0.066632
-0.077341
-0.096062
-0.092491
-0.016000
-0.004564
-0.070538
-0.091629
-0.041296
-0.078701
-0.010655
-0.049597
-0.014978
-0.040935
0.023193
0.016107
-0.013998
-0.009335
-0.080564
0.001840
-0.029218
-0.034802
-0.055991
-0.144237
-0.073175
0.026714
-0.053785
-0.076129
-0.056221
-0.079924
-0.002958
-0.008746
-0.019916
0.047126
-0.054401
-0.056487
0.004028
0.019342
-0.003480
-0.100977
-0.015347
0.040793
0.021390
-0.056381
-0.120320
0.039228
-0.024429
0.036751
0.013455
0.038907
0.109840
0.077342
0.122924
0.090129
0.076521
0.173247
0.120426
0.166146
0.121950
0.091995
0.115323
0.053038
0.197921
0.147620
0.262056
0.172884
0.154539
0.174246
0.179970
0.182535
0.102950
0.041121
0.054763
0.009183
0.005603
0.100820
0.062798
0.069281
0.077465
0.030681
0.061039
0.109284
-0.020819
0.013643
-0.023389
-0.008134
0.043214
0.005432
0.002063
-0.039843
0.067856
-0.083028
0.055528
0.000318
0.004560
0.025785
-0.007557
-0.019086
0.026893
0.059789
0.281780
0.552120
0.799247
1.111363
1.346859
1.326822
1.239773
0.804807
0.493240
0.123151
-0.093304
-0.273406
-0.315424
-0.221459
-0.104540
-0.054766
-0.014365
0.003655
-0.019927
-0.007606
0.066469
0.080681
0.045180
0.031435
0.090260
0.089251
0.040505
0.055372
0.037902
0.098107
0.096440
0.104969
0.166833
0.182674
0.192366
0.263588
0.189670
0.263498
0.263405
0.191416
0.342548
0.327764
0.215475
0.262387
0.279709
0.344612
0.342016
0.470544
0.431073
0.476104
0.457388
0.467843
0.427089
0.494815
0.518103
0.604349
0.565264
0.525499
0.508714
0.508752
0.512378
0.549045
0.425846
0.583251
0.479828
0.480556
0.466071
0.422075
0.463958
0.341129
0.370514
0.411769
0.316263
0.376094
0.319718
0.189813
0.270635
0.196182
0.201440
0.106916
0.229547
0.117894
0.189902
0.157321
0.082362
0.092806
0.091393
0.091106
0.165720
0.112235
0.020508
0.086969
0.012671
0.090784
0.037184
0.101258
0.041622
0.122785
0.116635
0.004308
0.036691
0.032104
0.076117
0.040490
0.102914
0.073038
-0.056758
0.074387
0.095585
0.017298
0.139440
0.079654
-0.007805
0.063848
0.109831
0.081869
0.040581
0.098723
0.014669
0.133720
0.099655
0.045892
0.044180
0.181854
0.090085
0.030203
0.096842
0.120363
0.122462
0.031181
0.039400
0.011410
0.080800
0.057453
0.058560
0.095516
0.097347
0.130994
0.053146
0.019368
0.058512
0.036185
0.086156
0.039083
0.072070
0.058342
0.130155
0.096812
0.100626
0.016719
0.083810
0.159132
0.096469
0.092642
0.189227
0.148329
0.193570
0.078051
0.163487
0.198045
0.159390
0.194716
0.205300
0.280087
0.210953
0.299839
0.230273
0.220476
0.212211
0.240351
0.268451
0.203215
0.226247
0.189093
0.235125
0.254098
0.208034
0.158927
0.209570
0.209903
0.232529
0.168050
0.217436
0.205657
0.223471
0.152814
0.153532
0.116881
0.151846
0.127525
0.092120
0.128029
0.061649
0.084088
0.130325
0.137389
0.162182
0.116346
0.150908
0.074365
0.016166
0.069770
0.073625
0.080030
0.097509
-0.009030
0.083462
0.162364
0.265370
0.470859
0.867453
1.220866
1.392366
1.435403
1.387097
0.954233
0.674495
0.278350
0.033461
-0.047435
-0.104120
-0.168558
-0.071974
-0.039266
0.035457
0.076620
0.185424
0.124109
0.056420
0.072372
0.122384
0.081247
0.115528
0.164762
0.185230
0.137766
0.167603
0.125724
0.232256
0.181769
0.234737
0.220257
0.275202
0.387983
0.279262
0.290289
0.371414
0.355077
0.244611
0.412544
0.443982
0.376478
0.359758
0.427393
0.454405
0.456086
0.458377
0.476049
0.571158
0.564812
0.530280
0.536945
0.591155
0.607980
0.593884
0.653764
0.674239
0.659943
0.607845
0.572291
0.621488
0.563585
0.528673
0.561792
0.531066
0.472416
0.454245
0.465069
0.370491
0.400284
0.298824
0.413816
0.349677
0.365135
0.247839
0.244504
0.269450
0.270837
0.243928
0.148591
0.173528
0.118858
0.222198
0.257167
0.158043
0.112335
0.073049
0.130988
0.188782
0.077661
0.132556
0.042146
0.140050
0.064113
0.082297
0.092199
0.086515
0.038213
0.105248
0.091966
0.077541
0.069500
0.021688
0.123924
0.018695
0.112024
0.030092
0.045140
0.059907
0.077677
0.051990
0.124388
0.071707
0.014292
0.054154
0.067906
0.059097
0.107595
0.103542
0.029667
0.092147
0.092447
0.080440
0.035461
0.047922
0.038624
0.103959
0.023386
0.006787
0.015356
0.054921
0.050481
0.073951
0.057883
0.110748
0.057532
0.078266
0.053607
0.110415
0.073630
0.069716
0.000901
0.058285
0.085439
0.102756
0.072906
0.114719
0.071040
0.003570
0.055489
0.078403
0.069838
0.070361
0.115890
0.067796
0.121798
0.099601
0.143074
0.167756
0.086377
0.164830
0.176421
0.159734
0.232073
0.097403
0.123680
0.221207
0.124481
0.204268
0.187949
0.311681
0.164870
0.171270
0.190364
0.155943
0.258411
0.135283
0.189163
0.179732
0.116310
0.148425
0.097008
0.107584
0.056466
0.130403
0.089169
0.019212
0.033698
0.018098
0.032610
0.053814
-0.015810
0.025669
-0.028271
0.020891
0.045310
-0.075328
0.036654
-0.015282
0.039707
-0.003762
0.002923
0.012486
0.068716
-0.015149
0.034248
0.176106
0.444589
0.751229
1.002315
1.270956
1.325079
1.276008
1.095004
0.691741
0.351911
0.035308
-0.159373
-0.263943
-0.156480
-0.211104
-0.002513
-0.101328
0.008098
0.046852
-0.026331
-0.038436
0.009789
0.039649
0.078494
0.126065
0.070753
0.000538
0.121909
0.142590
0.130603
0.022987
0.032109
0.028109
0.144291
0.110543
0.211466
0.116762
0.185929
0.246783
0.252915
0.239892
0.292077
0.265843
0.281232
0.322210
0.328997
0.410533
0.458971
0.425357
0.446725
0.400181
0.444308
0.441770
0.492301
0.502481
0.468525
0.495485
0.474526
0.462774
0.550997
0.514216
0.442186
0.438735
0.431884
0.343726
0.471773
0.416314
0.367942
0.336503
0.309511
0.342512
0.281537
0.236486
0.279472
0.185358
0.174212
0.250089
0.167027
0.069071
0.132754
0.068120
0.154010
0.073258
0.068256
-0.008334
0.018416
0.101285
0.091361
0.040574
-0.055673
-0.062753
-0.008362
-0.048374
-0.068625
-0.003559
-0.107938
0.008620
-0.053625
-0.036665
-0.011510
-0.161542
-0.025681
-0.095671
0.015051
-0.051894
-0.065197
-0.101316
-0.003361
-0.046871
-0.038894
-0.026309
-0.053182
-0.019277
-0.086214
0.017115
0.017758
-0.084768
-0.050629
-0.022301
-0.018739
-0.016511
-0.064622
-0.040026
-0.054938
-0.111836
0.017499
-0.015176
-0.024172
0.050218
-0.114285
0.014732
-0.116762
-0.023140
-0.024516
-0.053905
-0.050053
-0.050458
-0.068051
-0.067238
-0.098410
-0.064880
-0.117348
-0.012697
-0.121056
-0.110065
-0.055777
-0.079784
-0.046504
-0.002261
-0.016504
-0.092025
-0.109029
-0.128602
0.018573
-0.048059
-0.089563
-0.018032
0.009706
-0.000409
0.021347
0.026822
0.002125
0.009185
0.019126
0.051796
0.124107
0.091682
0.096070
-0.006657
0.053076
0.099184
0.111526
0.083302
0.035346
0.090014
0.071955
0.071181
0.114682
0.144604
0.088815
0.075438
0.046437
-0.007513
-0.000545
0.003670
0.011984
-0.013439
0.020256
0.024592
-0.032383
0.013141
-0.071867
-0.074600
-0.023719
-0.084349
-0.095341
-0.025466
-0.124181
-0.050776
-0.146425
0.014704
-0.030817
-0.120487
-0.119298
-0.107757
-0.077205
-0.045173
0.013201
0.027966
0.243549
0.536315
0.808381
1.091157
1.268152
1.255267
0.984971
0.669166
0.501464
0.058972
-0.186264
-0.253987
-0.349071
-0.262527
-0.257877
-0.100366
-0.053417
0.002968
-0.105931
-0.058770
-0.043376
-0.078597
-0.051725
-0.021650
-0.045731
-0.025886
-0.001232
0.024840
0.026699
-0.023739
0.108851
0.050069
0.072434
0.056862
0.071982
0.069993
0.086494
0.131287
0.186831
0.132103
0.225804
0.199031
0.194449
0.292034
0.253552
0.306555
0.308626
0.336117
0.375167
0.366610
0.391381
0.373887
0.330448
0.400977
0.367466
0.427148
0.470644
0.412338
0.438818
0.398580
0.401692
0.458821
0.445927
0.460063
0.407854
0.363267
0.312301
0.352821
0.276791
0.189199
0.176898
0.218524
0.210346
0.264923
0.232411
0.127202
0.188461
0.172508
0.083947
0.145437
0.027537
0.093390
0.083513
0.069077
-0.005009
0.065076
0.061018
-0.033693
-0.094717
-0.110138
-0.070332
-0.059628
-0.010925
-0.018175
0.023449
0.057666
-0.060590
-0.082468
-0.020233
-0.067513
-0.030301
-0.047135
-0.004411
-0.176646
0.002568
-0.088794
-0.042136
-0.098286
-0.022492
-0.047690
0.023976
0.031645
0.035815
-0.078615
-0.089062
-0.064690
-0.002678
-0.015134
-0.049239
-0.030004
-0.063199
-0.063142
-0.022808
-0.116761
-0.070286
-0.060993
0.075931
-0.085575
-0.083988
-0.042002
-0.017218
-0.052406
-0.099115
-0.052879
-0.112132
-0.057976
-0.039359
-0.057328
-0.019266
0.043076
-0.062632
-0.033733
-0.026119
-0.042681
-0.004072
-0.016606
-0.016977
-0.025484
-0.078117
-0.032153
0.030715
-0.042125
0.055974
0.018582
-0.001694
-0.020633
0.096475
0.034161
0.066299
0.096773
0.057584
0.076538
0.104215
0.035139
0.057535
0.145601
0.043369
0.071285
0.073471
0.043894
0.092434
0.151125
0.201834
0.129999
0.206871
0.206700
0.123573
0.072438
0.123341
0.144774
0.048867
0.019263
0.021075
0.066744
0.015141
0.087285
0.014332
-0.021920
0.116907
0.002070
0.053580
0.008804
0.025685
0.023490
0.048602
0.010249
0.018368
0.008321
-0.041011
0.001689
0.012930
0.064526
-0.021479
-0.043634
-0.008750
-0.009358
-0.007629
0.076031
0.149488
0.452358
0.755756
1.055275
1.285939
1.333343
1.281718
0.968072
0.568449
0.241041
-0.004252
-0.155704
-0.338685
-0.180588
-0.159380
-0.119742
0.015559
0.014182
0.016838
0.056803
0.010631
0.044551
0.022742
0.081822
0.135900
0.012848
0.074384
0.093480
0.086297
0.077848
0.158945
0.079909
0.148675
0.192495
0.129747
0.276767
0.113225
0.240553
0.270151
0.225603
0.322159
0.285073
0.304104
0.350452
0.406574
0.381497
0.312177
0.424328
0.393773
0.494663
0.473098
0.459783
0.467652
0.557614
0.546711
0.453193
0.532978
0.470078
0.504774
0.495745
0.462270
0.412632
0.468530
0.495300
0.463785
0.400394
0.452212
0.459714
0.395071
0.397417
0.357748
0.296848
0.380493
0.347916
0.303030
0.246762
0.249376
0.295737
0.187571
0.195684
0.114311
0.195692
0.109234
0.054612
0.117200
0.119276
0.084809
0.166183
0.043386
0.121316
0.048688
0.043284
0.078599
0.067295
0.072459
0.088873
0.020274
0.083945
0.050675
0.056471
0.041025
0.006647
0.023758
0.012895
0.090441
0.074487
0.106260
0.065743
0.051535
0.095428
0.050278
0.074563
0.062457
0.037293
0.040005
0.112252
0.055649
0.019738
0.020059
0.077236
0.076138
0.011118
0.110964
0.084114
0.073241
0.086601
0.018411
0.031992
0.054387
0.099896
0.063204
0.056010
0.046941
0.020260
0.022441
0.011765
0.015626
0.045520
0.074990
0.003025
0.092165
-0.027292
0.086098
-0.040438
-0.014881
0.023946
0.074383
-0.024238
0.055066
0.076581
0.064774
0.087451
-0.063557
-0.024099
0.140063
0.051442
0.071174
0.082736
0.152660
0.197110
0.132941
0.195434
0.195884
0.089944
0.155452
0.193529
0.207726
0.187118
0.235267
0.214856
0.278774
0.264609
0.209758
0.244022
0.226053
0.211134
0.291289
0.213544
0.121538
0.188258
0.246025
0.145443
0.126528
0.115802
0.118209
0.120884
0.119802
0.054859
0.105755
0.083992
0.093135
0.119895
0.105996
0.001085
-0.010038
0.042980
0.082403
0.091552
-0.021653
0.095325
0.042981
-0.001152
-0.007532
0.013425
-0.026836
-0.008061
0.077995
0.108977
0.240734
0.504863
0.702421
1.005192
1.294887
1.418597
1.310897
1.110273
0.716317
0.389468
0.071445
-0.130398
-0.205899
-0.203702
-0.061003
-0.066204
0.053254
0.075974
0.022006
0.075154
0.012696
0.094672
0.105588
0.099065
0.114568
0.078887
0.065703
0.120482
0.095526
0.180046
0.202135
0.173755
0.168267
0.149831
0.234186
0.168089
0.169071
0.241545
0.184726
0.178288
0.311214
0.301055
0.317031
0.280856
0.404147
0.418093
0.446283
0.382949
0.471721
0.469503
0.447680
0.557027
0.510129
0.474500
0.462461
0.546047
0.603086
0.472194
0.497856
0.563066
0.541731
0.492157
0.532712
0.418499
0.428629
0.422938
0.515213
0.401691
0.271212
0.355917
0.343308
0.366175
0.324679
0.321057
0.339324
0.235002
0.180997
0.219688
0.190714
0.167831
0.224556
0.108449
0.218022
0.076014
0.076635
0.093923
0.118276
0.144071
0.104669
0.015113
0.028780
0.067941
0.094022
0.091982
0.050072
0.083292
0.097487
0.049392
-0.020929
0.032584
-0.040457
0.006263
-0.015114
0.013606
-0.011305
-0.005013
-0.041527
0.012384
0.027696
0.018931
-0.018478
-0.073645
-0.048388
-0.015856
0.000605
-0.045693
-0.017662
-0.045734
0.059997
-0.062019
0.003548
0.026246
-0.063849
0.030423
0.000645
0.038801
-0.004187
-0.035659
-0.041587
0.049419
0.002800
-0.053926
-0.095348
0.016641
0.012371
-0.064666
-0.002226
0.019499
-0.091944
-0.072615
-0.010604
-0.012347
0.034363
-0.016172
-0.045776
-0.054816
-0.019094
-0.057097
-0.015006
-0.017538
-0.049107
0.021388
0.026586
-0.102021
0.015366
-0.000105
0.033499
0.015610
0.054585
0.055051
0.096673
0.062859
0.100486
0.140688
0.068894
0.031678
0.103710
0.097118
0.133694
0.188249
0.137166
0.144142
0.140531
0.099916
0.096213
0.075913
0.096746
0.138955
0.136523
0.095013
0.043767
0.000941
-0.004841
0.076926
0.038247
0.027237
-0.010715
-0.044590
-0.015179
-0.011824
0.008450
-0.119667
0.003452
-0.007987
-0.095411
-0.059085
-0.018649
-0.005995
-0.094777
-0.039139
-0.088784
-0.024544
-0.036048
-0.094905
0.011618
-0.127311
-0.155593
-0.038156
0.082430
0.201141
0.517472
0.831629
1.134518
1.278143
1.291882
1.113225
0.776138
0.483480
0.020226
-0.166603
-0.309122
-0.360362
-0.231920
-0.216907
-0.136918
-0.092263
-0.132521
-0.072744
-0.009565
-0.028842
-0.081112
-0.002635
-0.016739
-0.064163
-0.029332
-0.019566
-0.027706
0.027944
-0.007484
-0.042104
0.035856
0.089328
0.045879
0.087040
0.135143
0.152506
0.098329
0.071371
0.239013
0.235337
0.188354
0.288583
0.231981
0.276809
0.270627
0.290684
0.250329
0.355435
0.351001
0.408122
0.373920
0.355141
0.418279
0.401308
0.403070
0.479850
0.411882
0.484102
0.425235
0.337174
0.347304
0.357379
0.336680
0.306500
0.381191
0.365891
0.309797
0.200008
0.231031
0.176053
0.231076
0.208828
0.159430
0.148000
0.059580
0.138469
0.126489
0.147106
0.067260
0.060665
0.072569
-0.004398
0.027555
0.008613
0.042619
0.021659
0.037061
-0.102533
-0.128003
-0.078850
-0.053682
-0.110481
-0.050918
-0.116782
-0.053685
-0.094755
-0.081449
-0.057694
-0.099154
-0.066467
-0.215042
-0.138581
-0.118757
-0.004938
-0.099492
-0.035647
-0.088419
-0.021134
-0.134293
-0.084455
-0.060054
-0.071125
-0.080989
-0.066089
-0.115435
-0.095723
-0.122634
-0.105558
-0.130120
-0.089477
-0.038310
-0.160664
-0.098216
-0.099257
-0.098303
-0.089915
-0.109790
-0.085537
-0.085666
-0.050499
-0.114718
-0.125242
-0.074573
-0.181347
-0.108696
-0.121103
-0.071938
-0.081492
-0.079192
-0.070950
-0.127432
-0.075614
-0.125453
-0.077938
-0.080602
-0.048660
-0.090559
0.003792
-0.072810
-0.107997
-0.046149
-0.133018
-0.072529
-0.133877
-0.067742
0.015102
-0.062418
-0.066667
-0.033763
0.040085
0.042245
0.020308
0.014866
-0.017159
0.067886
-0.008317
0.050074
0.064619
0.053327
0.126141
0.046568
0.049287
0.126746
0.101316
0.087502
-0.010969
0.003627
0.095810
0.029826
0.119684
0.100596
-0.027856
-0.011544
0.046183
-0.019786
-0.068984
-0.060011
0.023261
-0.062696
-0.021687
-0.102663
-0.059650
-0.107426
-0.151660
-0.020403
-0.092251
-0.158796
-0.112810
-0.082041
-0.031364
-0.036228
-0.080238
-0.114806
-0.032122
-0.089140
-0.094084
-0.006347
0.130875
0.444859
0.721533
1.029914
1.154754
1.229382
1.052338
0.825864
0.475771
0.202585
-0.177827
-0.288840
-0.289305
-0.285223
-0.243564
-0.098349
-0.079408
-0.031551
-0.092068
0.053435
-0.038472
-0.080903
-0.014544
0.001853
-0.013138
-0.024774
0.002232
-0.090011
0.062219
0.038823
-0.018239
0.032222
-0.018340
0.073206
0.064835
0.127116
0.145146
0.150388
0.201324
0.163787
0.172137
0.235904
0.225436
0.242854
0.266928
0.389655
0.323170
0.426361
0.350765
0.359313
0.337915
0.363946
0.474759
0.423161
0.461754
0.366517
0.443815
0.377365
0.413992
0.455825
0.440374
0.477577
0.352508
0.421771
0.355898
0.392467
0.305459
0.434285
0.296356
0.258102
0.305835
0.274116
0.247652
0.195295
0.271639
0.118370
0.137079
0.166890
0.181705
0.168530
0.127160
0.141230
0.124665
0.078495
0.071209
0.045335
0.091403
0.094326
-0.046598
-0.033626
0.049537
0.033521
0.042613
-0.034901
0.037044
-0.015208
-0.090657
0.070661
0.048648
-0.074212
0.034405
0.019120
-0.006970
0.002218
-0.006053
0.024889
-0.007438
-0.025919
-0.068354
-0.003974
-0.009390
-0.050883
-0.033234
0.104866
0.044087
0.037044
-0.041687
0.026812
-0.033985
-0.051426
-0.037804
-0.036038
-0.041122
-0.038205
0.030045
-0.046748
-0.073620
-0.001326
0.026710
-0.013436
-0.016505
0.001304
-0.000474
-0.057597
-0.011250
0.001758
-0.007063
0.003076
-0.027840
0.010192
0.001971
-0.059941
0.045580
0.007219
-0.012767
-0.024147
0.017233
-0.004667
0.052267
-0.048710
0.047727
0.064534
0.004442
0.015600
-0.021147
0.063299
0.092939
0.067469
0.137821
0.068102
0.061881
0.133531
0.049014
0.112218
0.161435
0.209697
0.183799
0.119614
0.247897
0.294354
0.157136
0.133916
0.170881
0.229484
0.229155
0.084691
0.155955
0.207740
0.195806
0.103462
0.116042
0.174559
0.154803
0.048273
-0.028705
0.099884
0.106931
0.115858
0.125872
0.022748
0.051399
0.109085
-0.041792
0.031800
0.031494
0.015182
-0.074766
0.140923
0.001928
0.046545
0.033272
0.039274
0.016539
0.085940
-0.024747
-0.022568
0.043683
0.111006
0.129492
0.357953
0.719951
1.089098
1.318965
1.367910
1.321618
1.173207
0.737216
0.329623
0.071127
-0.136368
-0.255128
-0.164178
-0.115781
-0.067288
-0.002988
0.043938
0.027889
0.026071
0.045580
0.061709
0.020451
0.129470
0.049496
0.054996
0.185412
0.087749
0.091465
0.150094
0.121805
0.222173
0.220746
0.218077
0.173947
0.296723
0.271975
0.297928
0.260717
0.320744
0.383585
0.322186
0.325130
0.340027
0.373131
0.424831
0.417346
0.448648
0.488333
0.447863
0.472358
0.499725
0.530185
0.554665
0.505881
0.550777
0.571388
0.648212
0.515126
0.643881
0.567437
0.592788
0.515163
0.524602
0.532477
0.469571
0.459940
0.350105
0.445159
0.424885
0.442851
0.417545
0.430223
0.339035
0.336773
0.317120
0.269546
0.321119
0.288579
0.311356
0.163288
0.214695
0.160917
0.207482
0.219380
0.205389
0.174275
0.088013
0.125501
0.095933
0.148550
0.146473
0.125814
0.138021
0.112786
0.063931
0.101424
0.101704
0.003947
0.155720
0.044843
0.081423
0.066132
0.175376
0.127180
0.106520
-0.017169
0.084051
0.061437
0.118433
0.060680
0.044289
0.075076
0.094478
0.060110
0.118894
0.071141
0.005097
0.043008
0.068706
0.028630
0.005902
0.074465
0.017962
0.065731
0.063229
0.030293
-0.010154
0.022045
0.103412
