0.024147
-0.087373
0.152005
0.093821
0.020815
0.101872
-0.033887
-0.029438
0.012090
0.008401
0.005055
0.053367
0.089176
0.071254
-0.046375
0.021658
0.023833
0.041637
0.053086
-0.014996
0.044104
0.092503
0.015219
0.001074
0.063958
0.047861
0.014794
-0.023023
0.076012
0.101346
0.079532
0.061915
0.065904
0.023739
0.057110
0.108974
0.067528
0.064116
0.082403
0.120164
0.147518
0.090459
0.180315
0.174631
0.185752
0.171919
0.128067
0.259559
0.162743
0.156609
0.148519
0.136897
0.275767
0.149327
0.224310
0.175866
0.135562
0.151485
0.217270
0.185673
0.124034
0.148643
0.103961
0.129846
0.144666
0.139442
0.033302
0.131034
0.077496
-0.087094
0.065103
0.082779
0.145626
0.018648
0.088366
-0.006527
0.078653
0.091175
-0.012798
0.021353
0.083774
0.006821
0.041284
-0.009187
0.080643
0.058220
0.023300
0.034399
0.023129
0.065204
0.026457
0.052829
0.022249
0.104470
0.333670
0.645293
0.939768
1.241299
1.500000
1.358518
1.286362
0.922177
0.630425
0.278806
0.085782
-0.150223
-0.235828
-0.221030
-0.130544
-0.068441
-0.015390
0.035759
0.088251
0.102107
0.054889
0.103691
0.015510
0.047631
0.063384
0.013074
0.075059
0.129694
0.195983
0.178749
0.077881
0.040544
0.103928
0.114779
0.135686
0.098796
0.102687
0.168616
0.192069
0.199767
0.240687
0.203291
0.225783
0.279184
0.257904
0.242104
0.340719
0.367874
0.333910
0.329939
0.398249
0.375535
0.383032
0.424462
0.425399
0.401140
0.466199
0.410268
0.471843
0.495540
0.480349
0.498239
0.521599
0.603664
0.567296
0.506439
0.578182
0.571512
0.575738
0.548550
0.582559
0.466874
0.495302
0.456586
0.501633
0.461461
0.520566
0.499205
0.353622
0.459529
0.337062
0.419727
0.352662
0.345067
0.336184
0.289008
0.197465
0.219029
0.225399
0.196852
0.246678
0.188011
0.200244
0.151621
0.156716
0.240470
0.242294
0.106888
0.162886
0.212282
0.082876
0.068251
0.165522
0.147783
0.155239
0.104192
0.081305
0.053233
0.110985
0.048615
0.072042
0.047439
0.164099
0.080090
0.137900
0.135934
0.116389
0.039052
0.071308
0.158105
0.132536
0.136172
0.107167
0.106301
0.087335
0.111578
0.113369
0.079671
0.030910
0.110887
0.130606
0.089635
0.051530
0.105206
-0.017693
0.128510
0.173490
0.114453
0.000281
0.195932
0.070540
0.060958
0.048735
0.119110
0.043371
0.034300
0.022101
0.104805
0.079911
0.117134
0.145518
0.080025
0.087372
0.037905
0.084902
0.068153
0.090983
0.067314
0.061890
0.073949
0.101492
0.070466
0.140473
-0.017161
0.105730
0.048279
0.121788
0.100410
0.120989
0.126774
0.084449
0.168880
0.060518
0.055646
0.100284
0.140953
0.128813
0.021332
0.121428
0.039711
0.097147
0.088560
0.053877
0.109238
0.162666
0.048037
0.155919
0.107036
0.106601
0.200309
0.293317
0.166349
0.156712
0.158049
0.226443
0.265138
0.162898
0.204617
0.287315
0.202032
0.227605
0.313431
0.231934
0.224371
0.261218
0.294203
0.288585
0.189822
0.211456
0.119151
0.196833
0.193103
0.170244
0.185348
0.106933
0.131334
0.047798
0.078091
0.097593
0.081567
0.099554
0.076457
0.064585
0.000167
0.054790
0.057104
0.090707
0.100715
0.042826
0.022653
0.032767
0.096303
0.026411
0.109173
0.046527
0.119715
0.042565
0.085893
0.059208
0.046462
0.031364
0.001694
-0.055649
-0.033796
0.033962
0.187388
0.408487
0.647415
1.034646
1.299994
1.405404
1.318313
1.186722
0.866111
0.594567
0.242071
-0.073385
-0.171709
-0.220739
-0.232158
-0.179089
-0.132941
-0.003769
0.023662
0.022301
0.035355
0.020858
0.045920
0.095366
0.006670
0.036737
0.083991
0.025253
0.079612
0.020212
0.061153
0.137571
-0.006742
0.037414
0.103143
0.090256
0.056295
0.173583
0.084995
0.113257
0.151577
0.110030
0.134812
0.195796
0.200703
0.219666
0.146923
0.179641
0.250433
0.295467
0.190404
0.320911
0.307520
0.354705
0.414669
0.461708
0.385395
0.469251
0.357243
0.432638
0.442587
0.509870
0.512906
0.454884
0.459387
0.449537
0.425010
0.530752
0.480639
0.526250
0.423225
0.567258
0.416833
0.447040
0.475321
0.351764
0.389963
0.349122
0.289262
0.341029
0.264314
0.230254
0.310230
0.286921
0.239742
0.152728
0.272471
0.097494
0.125564
0.238232
0.174851
0.098619
0.172263
0.074819
0.051552
0.098247
0.098496
0.028353
0.056225
0.024502
0.091336
0.060138
0.019403
-0.034904
-0.040407
0.077241
-0.015727
0.035648
-0.001342
0.003937
0.027006
-0.032945
0.055159
0.025413
-0.043109
-0.016597
-0.005245
-0.023343
0.000272
-0.057153
-0.016193
0.014667
-0.057366
-0.016002
-0.070583
-0.051011
0.001342
-0.049352
-0.091707
0.007624
-0.007429
-0.064771
-0.027219
-0.062893
-0.056046
-0.027092
-0.021318
-0.060600
0.039781
0.021671
-0.054259
-0.011475
0.038825
-0.068321
-0.037317
0.023806
-0.048585
-0.006019
-0.021651
-0.059382
-0.056966
-0.034591
-0.011839
0.010505
0.000541
-0.037503
-0.040757
-0.039704
-0.093125
0.036196
-0.025071
-0.070557
0.002179
-0.078293
-0.048511
-0.002327
-0.041918
0.035168
0.076809
0.008973
-0.041947
-0.039542
-0.073740
0.015760
-0.040418
-0.099153
0.048099
0.025110
-0.045516
-0.085449
0.008400
0.041573
-0.055178
-0.072490
0.007121
0.005029
-0.052775
0.073035
0.051429
-0.031493
0.106688
0.020914
0.025196
0.054529
0.123954
0.070603
0.133263
0.094904
0.092013
0.043603
0.093094
0.109249
0.159422
0.059143
0.138836
0.160678
0.039966
0.112804
0.138668
0.112911
0.002344
0.141291
0.043410
0.046547
0.053731
0.054863
0.049594
0.013036
-0.007988
0.008764
-0.045421
0.019134
-0.025633
-0.000351
0.066853
-0.077863
-0.060192
-0.024720
-0.070049
-0.057701
-0.058440
-0.098536
-0.028643
-0.040701
-0.048117
-0.017180
-0.037538
-0.077197
-0.047464
-0.018915
-0.072057
-0.165211
-0.082289
-0.118436
-0.111790
-0.006768
-0.021880
0.336471
0.574278
0.894433
1.201520
1.343742
1.293310
1.090845
0.744188
0.504342
0.183169
-0.101784
-0.291896
-0.288138
-0.283749
-0.322728
-0.167871
-0.089290
-0.072172
-0.055301
-0.084868
-0.044144
0.020912
-0.013458
-0.035942
0.003692
0.029378
-0.032198
-0.109878
-0.037590
0.030999
-0.040742
0.004638
-0.018358
-0.030515
-0.016761
0.037420
0.033447
0.065564
0.034947
0.046274
0.005362
0.101092
0.056786
0.166207
0.041728
0.084806
0.150697
0.182017
0.244696
0.284045
0.260106
0.201081
0.295078
0.346787
0.355310
0.423889
0.334399
0.420347
0.401491
0.422735
0.506276
0.367868
0.434162
0.472246
0.408595
0.479220
0.491536
0.472436
0.487043
0.449136
0.416021
0.379576
0.436301
0.420271
0.358740
0.384199
0.456512
0.353019
0.352574
0.342040
0.262449
0.242469
0.223287
0.201827
0.278649
0.094941
0.142287
0.228030
0.164326
0.117085
0.079107
0.072533
0.126293
0.068125
0.071680
0.064952
0.093111
0.105975
-0.003852
0.046241
-0.015222
0.014801
0.023328
0.012427
-0.006855
0.036862
0.024212
0.086919
-0.035481
0.021922
0.020794
-0.088421
-0.052631
0.011328
-0.038874
0.010777
-0.017747
-0.012082
-0.011359
0.019394
-0.013455
-0.042463
0.021352
-0.005236
-0.031571
0.001665
0.082940
0.014579
-0.013292
0.039075
0.066130
0.040524
0.047998
-0.054798
0.111333
-0.010705
0.069711
0.033743
-0.063071
0.027633
0.027278
0.074623
0.089842
-0.099713
0.008443
0.060723
-0.042025
0.023625
0.090656
-0.006000
0.067257
-0.050050
0.015242
0.053533
0.002263
0.084972
0.017010
-0.023293
0.075101
0.028858
0.032999
0.025965
-0.030432
0.079969
-0.001116
0.022013
0.060299
0.066047
0.035364
0.019033
0.004334
0.007094
0.000357
0.009058
0.023097
0.062554
0.079094
0.043312
0.032365
0.082590
0.024306
0.028160
0.026782
0.044938
0.102089
0.056894
0.079849
0.114400
0.056448
0.122651
0.127047
0.148029
0.203122
0.093087
0.176276
0.228839
0.157204
0.172634
0.179868
0.187717
0.108975
0.212861
0.243604
0.212377
0.243520
0.141151
0.273225
0.169899
0.155033
0.168739
0.107782
0.181509
0.132636
0.088023
0.162161
0.198128
0.087833
0.118598
0.022404
0.057040
0.067187
0.078812
0.030176
0.061875
0.111575
0.068439
0.071049
0.040661
0.029130
0.106271
0.080785
-0.015947
0.009881
-0.052247
0.167086
0.013843
0.136136
-0.000043
0.075944
0.098931
0.003298
0.030830
-0.030797
0.014770
0.074710
0.227178
0.485775
0.715148
1.059779
1.281849
1.411314
1.339514
1.133491
0.904122
0.459845
0.288214
-0.034179
-0.169091
-0.213635
-0.120126
-0.037526
-0.079395
0.029549
0.072795
0.155050
0.061795
0.071897
0.098811
0.086665
0.090263
0.069274
0.125545
0.139663
0.077853
0.069458
0.105896
0.096685
0.114196
0.090486
0.149619
0.058492
0.132850
0.207631
0.122299
0.083782
0.210904
0.250008
0.212885
0.131635
0.293565
0.231578
0.259971
0.247511
0.276579
0.262574
0.322538
0.337847
0.457938
0.370553
0.431607
0.466344
0.404395
0.488460
0.544272
0.579339
0.627333
0.596467
0.592033
0.510813
0.587195
0.515314
0.622939
0.580877
0.533963
0.585905
0.544082
0.620117
0.620610
0.511650
0.583030
0.513716
0.538171
0.420735
0.420440
0.412758
0.357316
0.345847
0.393171
0.309587
0.366041
0.239724
0.219370
0.265936
0.194571
0.204994
0.178484
0.219329
0.179438
0.176222
0.094655
0.120667
0.153779
0.136682
0.191784
0.144613
0.200955
0.146191
0.096397
0.085975
0.102775
0.087290
0.130500
0.101036
0.095710
0.091392
0.161609
0.083875
0.071259
0.143720
0.074268
0.114498
0.159997
0.052639
0.038047
0.165825
0.079904
0.011837
0.036772
0.043742
0.029953
0.076468
-0.005978
0.102823
0.018849
0.003116
0.048509
0.157749
0.079333
0.129164
0.065340
0.135260
0.058618
0.104812
0.133807
0.061456
0.059630
0.114875
0.118033
0.086209
0.130059
0.131722
0.101257
0.028733
0.018032
0.053632
0.038392
0.046485
0.150279
0.043969
0.048871
0.052805
0.137414
0.066818
0.117605
0.086942
0.048044
0.069476
0.037611
-0.007541
0.070641
0.175941
0.133396
0.122366
0.180204
0.062556
0.076476
0.095732
0.084960
0.064738
0.120718
0.120690
0.095453
0.050041
0.038398
0.155685
0.094886
0.127080
0.158888
0.137157
0.099813
0.058883
0.166330
0.112515
0.104077
0.208524
0.118816
0.194831
0.134716
0.162311
0.184370
0.196521
0.286498
0.202818
0.146596
0.254745
0.246515
0.228972
0.219538
0.200611
0.232609
0.261989
0.182108
0.299641
0.282596
0.196323
0.207208
0.159408
0.124750
0.173167
0.153061
0.096268
0.071120
0.095041
0.122471
0.126275
0.164020
0.081033
-0.012087
0.084917
0.061984
0.080446
0.041737
0.089516
0.005609
0.086360
0.129453
0.080046
0.033633
0.050102
0.014654
0.052752
0.009440
0.024737
0.058168
0.015981
-0.044602
0.067381
0.011084
-0.048122
-0.103900
0.073683
0.222508
0.468514
0.759547
1.058973
1.325669
1.384351
1.357376
1.175034
0.767425
0.361344
0.081031
-0.153334
-0.206697
-0.305691
-0.253077
-0.099426
-0.048279
0.005983
0.019466
0.045997
0.001087
0.082251
-0.001050
0.067604
0.015653
0.068450
0.087840
-0.006878
0.087822
0.061360
0.063441
0.060623
0.114909
0.102957
0.048017
0.072126
0.052399
0.035596
0.178225
0.119000
0.113619
0.172079
0.203549
0.062491
0.174880
0.183507
0.178663
0.233077
0.250863
0.208696
0.239676
0.321273
0.292145
0.363903
0.348120
0.349614
0.409427
0.460375
0.482225
0.331575
0.521462
0.422200
0.443128
0.550418
0.524209
0.558650
0.478955
0.460017
0.513999
0.387454
0.494196
0.489950
0.439768
0.483550
0.437142
0.346971
0.348844
0.383280
0.319020
0.332277
0.311868
0.268432
0.318055
0.244886
0.171148
0.153310
0.145913
0.184758
0.243558
0.231887
0.109533
0.145406
0.067843
0.028645
0.162566
-0.000010
0.094011
0.091777
-0.006578
0.030916
0.104937
0.017578
0.061205
-0.012599
-0.045869
-0.010955
-0.067100
-0.028563
-0.006491
0.010827
-0.040850
-0.060559
-0.020655
-0.025055
-0.048747
-0.006227
0.004737
0.039205
-0.122783
-0.066991
-0.081843
-0.117059
-0.049786
0.000640
-0.072280
-0.038737
-0.005012
-0.021162
-0.063390
0.005078
-0.032415
0.018855
-0.084056
0.013863
-0.014600
0.009566
-0.049100
-0.032936
-0.046744
-0.072699
-0.020472
-0.006048
-0.023931
0.001374
0.005714
-0.036587
-0.063655
0.009729
-0.018621
0.019960
-0.023390
-0.085348
-0.013408
-0.100193
0.016302
0.000023
-0.019263
-0.029681
-0.051036
-0.052299
-0.094025
-0.075405
0.030125
-0.172707
0.016925
-0.106775
-0.001714
-0.099234
-0.036410
-0.096379
-0.133884
-0.083274
-0.020072
-0.068148
-0.046116
-0.065202
-0.064271
-0.046014
0.004298
-0.120271
-0.102378
-0.085150
-0.002341
-0.043470
-0.088264
-0.033017
0.000896
0.009131
-0.017311
0.088456
0.037300
0.069918
0.036431
0.053689
0.021285
0.091295
0.074513
0.126494
0.103866
0.115092
0.073938
0.096240
-0.008363
0.040919
0.107723
0.078570
0.125742
-0.027595
0.194463
0.051847
0.092704
0.026591
0.083358
-0.014553
0.073155
0.003996
-0.035868
0.035610
-0.062015
-0.177696
-0.084087
-0.016307
0.026220
-0.077831
-0.076793
-0.117640
-0.111300
-0.083783
-0.003706
-0.001692
-0.121967
-0.076510
-0.056774
-0.091183
0.020102
-0.063175
-0.024467
-0.069938
-0.062529
-0.062140
-0.053709
-0.110243
-0.058486
-0.119832
-0.064969
-0.038109
0.079312
0.374577
0.593332
0.998553
1.194900
1.297383
1.207917
0.958445
0.626265
0.309132
-0.056450
-0.166633
-0.345114
-0.436523
-0.350544
-0.200597
-0.184630
-0.120960
-0.070603
-0.056214
-0.063341
-0.001171
-0.010498
-0.061363
-0.089859
-0.055273
-0.119081
-0.054415
0.006243
-0.022924
-0.093706
-0.059671
-0.031337
-0.027296
0.054803
0.091879
0.033872
0.016009
-0.002000
0.027137
-0.006243
0.034131
0.105724
0.059900
0.100639
0.062978
0.205780
0.123181
0.148345
0.229558
0.218201
0.258872
0.284904
0.295031
0.299489
0.267726
0.319429
0.357045
0.347158
0.299925
0.363396
0.346945
0.438847
0.395349
0.466056
0.389760
0.429087
0.449562
0.366959
0.426432
0.412757
0.438393
0.370912
0.363236
0.330181
0.318138
0.324213
0.246347
0.224280
0.254434
0.189564
0.322803
0.230711
0.168846
0.208044
0.184747
0.145271
0.192977
0.008464
0.131705
0.100972
0.010798
0.086175
-0.043425
-0.042130
0.074027
0.039878
-0.078489
0.057924
-0.101795
-0.000378
0.080748
0.021669
-0.079832
-0.015912
-0.072153
-0.023521
-0.074009
-0.061308
-0.085607
-0.028647
-0.091390
-0.040993
-0.007763
-0.036582
-0.002387
-0.012396
-0.148008
-0.049108
-0.005112
-0.086480
-0.017488
-0.063090
-0.034001
-0.032143
-0.010751
-0.078605
-0.043122
-0.045013
-0.024321
-0.068870
-0.008073
-0.164634
-0.012931
-0.012511
-0.009515
-0.024154
-0.131359
-0.183305
0.039313
-0.030028
-0.088268
-0.049586
-0.018496
-0.108050
-0.108852
-0.064116
-0.042895
0.026392
0.002952
-0.043589
-0.028845
-0.007718
-0.095651
-0.069923
-0.018784
-0.107592
-0.019051
-0.049605
-0.042776
-0.058286
-0.053582
-0.003706
-0.084756
-0.029740
-0.034698
-0.054658
0.016691
-0.044287
-0.006309
-0.086638
-0.023301
0.011207
-0.035463
0.064248
-0.087334
0.027753
-0.029217
0.001872
0.054080
0.007140
-0.002098
-0.020759
-0.063494
-0.014200
-0.024471
-0.064639
0.088667
0.124967
-0.017786
0.025412
0.117394
0.140226
0.058347
0.125895
0.154369
0.098082
0.122343
0.144365
0.145605
0.178551
0.154279
0.117492
0.200871
0.157007
0.142544
0.210117
0.180583
0.071612
0.188624
0.150063
0.080247
0.049498
0.026482
0.035608
0.100447
0.028862
0.035185
0.001829
0.081649
-0.016843
0.005366
-0.015533
-0.027695
-0.041798
0.107496
0.051273
-0.047714
-0.014241
-0.002668
-0.019613
0.077690
0.017125
0.005910
0.033644
0.059628
0.058774
0.039368
0.028221
0.001462
-0.126225
-0.058258
-0.121254
-0.002715
0.009722
0.031188
0.252954
0.440277
0.785086
1.147505
1.340614
1.332484
1.247529
1.011271
0.715366
0.317074
0.049911
-0.166850
-0.293939
-0.217812
-0.295183
-0.142882
-0.061464
-0.023035
-0.056482
0.008490
0.029102
0.088099
-0.000807
0.020526
0.063524
0.004130
0.045815
-0.004534
0.017578
0.026688
0.044582
0.023622
0.052900
0.023758
0.096991
0.098043
0.051816
0.098435
0.130194
0.114593
0.126943
0.139945
0.154566
0.139495
0.134632
0.208533
0.175007
0.235294
0.284645
0.299765
0.345202
0.356143
0.407635
0.357700
0.298101
0.398300
0.437161
0.422707
0.556762
0.398133
0.503343
0.516890
0.469598
0.495165
0.502450
0.508913
0.578710
0.527130
0.466811
0.571643
0.493134
0.540588
0.407553
0.365223
0.460070
0.404664
0.425262
0.458211
0.377741
0.412317
0.393547
0.339938
0.288299
0.282292
0.232985
0.239710
0.251566
0.241956
0.237415
0.193489
0.158101
0.129196
0.213994
0.169577
0.146813
0.117446
0.126916
0.180656
0.136505
0.072995
0.073701
0.004690
0.029973
-0.006595
0.096611
0.042967
0.056288
0.058167
0.056630
-0.024272
0.112113
0.096372
0.049097
0.053315
0.001050
0.059547
0.054760
0.007409
0.067703
0.010865
0.039082
0.100717
0.054027
0.035252
0.055997
0.041145
0.058608
0.009678
-0.005743
0.027281
0.067824
0.038540
-0.010901
-0.009752
0.064079
0.010048
0.060294
0.100921
0.012766
-0.006662
0.035408
0.023399
0.143735
0.025058
0.115758
0.055895
0.033747
0.096874
0.033574
0.021130
0.037088
0.068764
0.060605
0.025766
0.028378
0.065346
0.117402
0.095619
0.063640
0.017691
-0.016079
0.023528
0.087691
0.023321
0.014527
-0.025361
-0.002439
0.084333
0.048046
-0.011004
-0.014802
0.053832
0.041329
0.021405
0.060017
0.077448
0.049661
0.028155
0.005669
0.066692
0.025345
0.043544
0.070595
0.008526
0.064545
0.127441
0.145431
0.096278
0.127092
0.111848
0.084550
0.078742
0.133349
0.157402
0.106719
0.167103
0.186438
0.151495
0.151973
0.183387
0.219065
0.174774
0.176544
0.244217
0.263067
0.135856
0.120764
0.176017
0.159299
0.155407
0.098934
0.166961
0.147080
0.154393
0.085942
0.136846
0.079464
0.067833
0.072920
0.069717
0.062179
0.082485
0.022719
0.047003
0.046055
0.082401
-0.016613
0.052851
0.007900
-0.018075
-0.019290
0.021118
0.083449
0.002397
0.092560
0.093780
0.013931
-0.027014
0.031788
0.034976
0.020575
-0.064453
-0.172162
-0.102683
-0.020088
0.108565
0.222969
0.493468
0.838974
1.097649
1.238936
1.427708
1.245781
0.995807
0.584466
0.183974
0.021108
-0.228652
-0.230183
-0.311734
-0.324795
-0.145467
-0.041578
-0.128693
-0.003726
-0.008335
0.014184
0.057224
-0.024402
0.036969
0.032602
-0.017368
0.036835
-0.004756
0.000526
0.099339
0.069711
0.003899
0.113653
0.016155
0.060061
0.036193
0.067511
0.124392
0.114541
0.058496
0.082824
0.107767
0.111869
0.133045
0.248091
0.234509
0.152741
0.158205
0.261152
0.181571
0.261493
0.285066
0.299338
0.352044
0.365132
0.362258
0.385526
0.369430
0.446884
0.380253
0.404338
0.418960
0.381295
0.450336
0.481697
0.450045
0.489622
0.458869
0.447393
0.468340
0.403457
0.469530
0.503972
0.408076
0.373277
0.306711
0.398791
0.334529
0.413338
0.368488
0.256047
0.322868
0.324663
0.237276
0.248098
0.164018
0.202742
0.185751
0.135940
0.157423
0.122378
0.059960
0.048407
0.085588
0.087749
-0.007519
0.012188
0.031196
0.103531
0.060972
0.009843
-0.063433
-0.056850
-0.005061
-0.023835
-0.045872
-0.067778
-0.045701
-0.054662
-0.065408
-0.125382
-0.074856
-0.010152
-0.058342
-0.010436
-0.054756
-0.080426
0.006858
-0.058235
-0.021296
-0.069522
-0.081787
-0.004929
-0.049116
-0.100053
-0.000185
-0.038247
-0.109652
0.009520
-0.060187
-0.087747
-0.016946
-0.125131
-0.010395
-0.092965
-0.127642
-0.038008
-0.080627
-0.093636
-0.128653
-0.061164
-0.091830
-0.108009
-0.139973
-0.081272
-0.122698
-0.102252
-0.073130
-0.047518
-0.145232
-0.069805
-0.048313
-0.074609
-0.059934
-0.049397
-0.053680
-0.005670
-0.145624
-0.097497
-0.095869
-0.070422
-0.104235
-0.095830
-0.085169
-0.088917
-0.071482
-0.084848
-0.047768
-0.106092
-0.180150
-0.093793
-0.093680
-0.097699
-0.070835
-0.036929
-0.148617
-0.073817
-0.060393
-0.105900
-0.057126
-0.163584
-0.036068
-0.024568
-0.057053
-0.045363
-0.104250
-0.057802
-0.075228
-0.052495
0.007008
-0.050344
0.019000
0.091643
0.009195
0.048948
0.123915
0.089912
0.126133
0.168984
0.007916
-0.007330
0.101429
0.073852
0.075469
0.065005
-0.001470
0.089632
0.043928
-0.040476
0.005550
0.034992
0.040314
-0.017691
0.040967
0.021051
-0.044809
-0.007657
-0.009484
-0.060562
-0.080128
-0.064366
-0.039119
-0.052020
-0.042366
-0.026174
-0.064429
-0.049775
-0.061275
-0.036256
-0.015130
-0.027067
-0.070464
-0.097664
-0.120557
-0.112236
-0.085060
-0.084643
-0.071822
-0.208217
-0.048422
-0.122167
-0.195916
-0.124844
-0.131899
-0.192303
-0.065976
0.120327
0.399626
0.688077
0.977402
1.265154
1.314399
1.086726
0.880041
0.541505
0.147107
-0.086424
-0.213657
-0.359593
-0.304533
-0.369918
-0.198785
-0.193797
-0.091456
-0.068607
-0.043292
-0.059920
-0.133808
-0.091842
-0.124557
-0.047509
-0.069553
-0.034406
-0.022308
-0.103438
-0.106553
-0.013195
-0.099923
-0.054966
0.000115
0.023688
-0.057465
-0.023725
-0.080295
0.106336
0.025122
0.090553
0.019011
0.028137
0.095629
0.056401
0.098886
0.077146
0.128257
0.155542
0.167718
0.205431
0.196649
0.223031
0.264845
0.241619
0.199183
0.217094
0.288111
0.336396
0.429883
0.445666
0.353406
0.380764
0.378683
0.388910
0.413227
0.396000
0.370315
0.467839
0.326117
0.372538
0.393412
0.388704
0.327250
0.393907
0.371224
0.341920
0.245360
0.181141
0.250008
0.264266
0.177100
0.143871
0.140163
0.212416
0.110897
0.151249
0.056532
0.079758
0.089032
0.099634
0.068873
0.005428
-0.017633
0.081169
0.026374
0.015311
-0.044496
-0.047036
-0.022803
-0.051023
-0.022526
-0.070314
-0.013502
-0.067627
-0.041696
-0.096138
-0.057294
-0.152933
-0.047928
-0.092882
-0.094596
-0.168744
0.010093
-0.120601
-0.031907
-0.096198
0.048253
-0.120440
-0.118481
-0.051833
-0.038157
-0.138526
-0.043200
-0.088896
0.046737
-0.065972
-0.030325
-0.054881
-0.053431
-0.024866
-0.020528
-0.021240
-0.100891
-0.062554
-0.043520
-0.117736
-0.038609
-0.052177
-0.075537
-0.087278
0.024402
-0.045377
-0.069333
-0.008914
-0.008036
-0.102489
-0.109503
-0.039245
-0.025739
-0.052164
-0.061969
-0.037976
-0.074222
-0.028292
-0.038909
-0.017844
-0.096583
-0.023699
0.001442
-0.031608
-0.084227
-0.083164
-0.066742
-0.007782
-0.052518
-0.046902
-0.047052
-0.131299
0.048448
-0.068275
-0.034739
-0.053921
-0.034216
-0.006523
-0.108701
0.019820
0.005481
0.037136
-0.019098
-0.078016
-0.006308
0.001551
-0.031660
0.029875
-0.006842
0.061695
0.008471
0.007507
0.050776
0.007073
0.054827
0.008987
0.057689
0.082874
0.144506
0.097831
0.185431
0.055088
0.107157
0.129831
0.132609
0.048119
0.141656
0.117818
0.073325
0.143620
0.120536
0.093322
0.141275
0.088513
0.040067
0.137202
0.081824
0.031596
0.023378
0.071867
0.014375
0.040407
0.032064
-0.026756
0.070474
0.060735
-0.008932
-0.049843
-0.009499
0.007041
-0.005749
0.073158
0.030580
0.083247
-0.005287
0.049918
0.035744
0.006322
-0.015064
0.037554
-0.071904
0.008340
-0.058185
0.047357
0.004119
-0.020440
-0.037697
-0.009029
0.038188
0.297295
0.619386
0.801460
1.235152
1.349765
1.350911
1.165193
0.885322
0.595530
0.313171
-0.059513
-0.258011
-0.238629
-0.269370
-0.167645
-0.154428
-0.134611
-0.060609
-0.012581
-0.017402
-0.000856
-0.002106
-0.108982
0.046392
0.035747
0.029875
-0.038246
0.073903
0.036622
0.081831
0.052453
0.054907
0.081514
0.061011
0.076375
0.070723
0.115274
0.050850
0.105695
0.106196
0.175285
0.128201
0.158624
0.106641
0.178552
0.163823
0.254914
0.326474
0.304713
0.317275
0.255546
0.348552
0.425080
0.386924
0.383801
0.399470
0.469310
0.397263
0.452948
0.440064
0.543876
0.487122
0.507027
0.488973
0.536691
0.501217
0.551640
0.475075
0.510236
0.618345
0.504914
0.492661
0.441001
0.433723
0.464571
0.487268
0.403063
0.398923
0.445665
0.474324
0.346316
0.416462
0.362913
0.309300
0.329773
0.215330
0.212401
0.296784
0.200776
0.248081
0.159618
0.189884
0.195172
0.177437
0.138951
0.093628
0.089570
0.143734
0.135965
0.148380
0.180493
0.131458
0.097603
0.048422
0.096450
0.064609
0.072627
0.064928
0.063267
0.144103
0.008135
0.089293
0.122227
0.136178
0.044362
-0.008521
0.092087
0.076942
0.119575
0.110331
0.032933
0.111892
0.099490
0.117999
0.041034
0.065176
0.046160
0.044324
0.024704
0.040592
0.006724
0.033361
0.030401
0.002522
0.042359
0.121326
0.129333
0.107146
0.077859
0.035192
0.048949
0.099759
0.089643
0.111987
0.027116
0.094028
0.126685
0.124045
0.106565
0.087248
0.125406
0.025915
0.170488
0.063168
0.093405
0.072709
0.044859
0.081064
0.085192
0.032539
0.069204
0.081779
0.081270
0.048955
0.038816
0.122024
0.098600
0.066207
0.057931
0.045528
0.116127
0.034762
0.143886
0.040445
0.055578
0.035869
0.009134
0.053660
0.184878
0.153474
0.109130
0.124045
0.052343
0.164923
0.087386
0.175683
0.132635
0.097469
0.108038
0.146933
0.196251
0.217318
0.138211
