-0.028210
0.056506
-0.031116
0.005136
-0.045533
-0.020056
-0.030821
0.057216
-0.031538
-0.025720
0.015245
0.037291
0.046549
0.060447
0.101976
0.008879
-0.008979
0.079933
0.027070
0.094654
0.083110
0.053480
0.035569
0.016418
0.141973
0.085969
0.281711
0.158473
0.093056
0.117635
0.237982
0.104868
0.160629
0.226360
0.158960
0.189835
0.216371
0.173422
0.221453
0.290337
0.249071
0.186462
0.181817
0.209088
0.113222
0.177281
0.095878
0.145380
0.170972
0.197742
0.048157
0.050262
0.103871
0.109809
0.033061
0.060662
0.112555
0.100988
0.051435
-0.037146
0.069358
-0.064370
0.066970
0.030848
0.040503
-0.018983
0.105202
0.217825
0.429747
0.668288
1.062286
1.306619
1.483569
1.415763
1.096121
0.918692
0.469034
0.151160
-0.034496
-0.136373
-0.109715
-0.091178
-0.036241
0.040801
0.169071
0.065173
0.180652
0.158475
0.128635
0.165573
0.210815
0.183642
0.145557
0.134640
0.179712
0.214060
0.197121
0.223806
0.318200
0.313134
0.398452
0.379231
0.382476
0.394784
0.376046
0.496292
0.451379
0.424758
0.470513
0.650092
0.437704
0.542542
0.598845
0.504878
0.551236
0.557728
0.599383
0.596405
0.499981
0.508862
0.616766
0.613281
0.635732
0.544209
0.534989
0.502147
0.546171
0.587507
0.468847
0.394914
0.432071
0.463049
0.323767
0.379978
0.313833
0.407735
0.257892
0.259699
0.270809
0.338916
0.236801
0.246166
0.211952
0.266486
0.188086
0.157206
0.203345
0.217024
0.117852
0.094337
0.200401
0.226175
0.116515
0.072943
0.181581
0.039175
0.171136
0.046900
0.102763
0.091572
0.115788
0.083452
0.025620
0.052675
0.008203
0.166469
0.036168
0.145563
0.023831
0.093336
0.011130
0.105625
0.149138
0.086264
0.095536
0.091273
0.087288
0.132458
0.035550
0.091254
0.118997
0.150299
0.115500
0.107377
0.094074
0.077451
0.132470
0.055947
0.076163
0.177809
0.159138
0.021668
0.111862
0.033157
0.095221
0.153873
0.067658
0.045422
0.120554
0.134219
0.205218
0.104501
0.108201
0.166082
0.202226
0.227160
0.123853
0.207268
0.213841
0.208204
0.225600
0.288631
0.233055
0.334541
0.245856
0.294384
0.287471
0.268649
0.258878
0.311120
0.252157
0.264052
0.290538
0.297104
0.270926
0.315905
0.150735
0.238543
0.239816
0.133664
0.195413
0.098700
0.156415
0.153232
0.180615
0.103765
0.099440
0.118871
0.033029
0.094887
0.043921
0.099754
0.043626
0.047113
0.122580
0.134621
0.160628
0.079836
0.326110
0.489672
0.695524
1.105621
1.363743
1.467789
1.393578
1.230602
0.814402
0.254085
0.072060
-0.113393
-0.032938
-0.124612
-0.031265
0.052911
0.019624
0.097230
0.078385
0.164181
0.156045
0.069472
0.180891
0.186036
0.229396
0.142919
0.207200
0.225885
0.186065
0.213468
0.353731
0.352934
0.299237
0.283374
0.353272
0.408874
0.437927
0.437814
0.471331
0.475764
0.527865
0.463176
0.570065
0.620437
0.589169
0.597641
0.645238
0.541353
0.617787
0.649096
0.614384
0.695475
0.589275
0.579336
0.571771
0.521741
0.533849
0.481665
0.581838
0.566573
0.547171
0.537697
0.484479
0.490046
0.367175
0.394444
0.396337
0.364551
0.316840
0.315289
0.313674
0.320233
0.210659
0.230780
0.112369
0.212779
0.154684
0.226801
0.105328
0.255502
0.153107
0.102224
0.144486
0.062347
0.098889
0.125659
0.093699
-0.006220
0.057810
-0.008561
0.107083
0.032147
0.127128
0.093053
0.023467
-0.032608
0.137785
0.039255
0.067207
0.019266
0.097519
-0.021350
0.100536
0.063821
0.008006
0.130545
-0.003396
0.086354
-0.022749
0.004946
0.043543
0.091326
0.073141
0.078590
0.096197
-0.035370
0.027736
0.002979
0.029968
0.002651
0.077925
-0.007360
0.085560
0.040887
0.121184
0.000827
0.141539
0.006786
0.077798
0.083720
0.025066
-0.027314
0.099833
0.080882
0.012585
0.086713
0.154012
0.102576
0.107771
0.136835
0.120764
0.209088
0.102369
0.182504
0.153838
0.166359
0.210386
0.239372
0.231435
0.151187
0.217501
0.234424
0.168332
0.198595
0.124234
0.165021
0.150218
0.124649
0.115184
0.134803
0.156115
0.119026
0.070011
0.104340
0.105767
0.054542
0.024551
0.004529
0.029746
-0.008866
0.006495
0.119475
0.020568
0.001120
0.065365
0.008724
0.060031
0.110783
-0.007212
-0.004803
0.110640
0.201781
0.422737
0.788014
1.154828
1.344606
1.338868
1.288043
1.003272
0.589506
0.142775
-0.111412
-0.142571
-0.190398
-0.181681
-0.040709
0.008766
0.065173
-0.011932
-0.006162
0.054770
0.068683
0.175738
-0.017888
0.022332
0.044365
0.229543
0.061021
0.221021
0.122806
0.147547
0.128263
0.255710
0.204769
0.261710
0.272209
0.312926
0.325273
0.366184
0.335875
0.387246
0.361516
0.428563
0.512610
0.396319
0.406644
0.447051
0.532229
0.532740
0.466514
0.437747
0.495923
0.555799
0.461258
0.479350
0.521428
0.507051
0.402987
0.563916
0.417810
0.365320
0.403212
0.355975
0.461240
0.336951
0.368111
0.265506
0.224790
0.258240
0.185332
0.204450
0.133410
0.196849
0.231419
0.102119
0.079198
0.014516
0.110079
0.048832
0.058240
0.091702
-0.012898
0.029522
0.012108
-0.015301
0.051719
0.019286
0.014808
-0.054620
-0.131693
-0.089163
-0.039979
-0.044701
0.005336
-0.000855
-0.007392
-0.017558
-0.060355
-0.044493
-0.014579
-0.086392
-0.048345
-0.026133
0.004672
-0.017027
0.005493
-0.097377
-0.043591
-0.041826
-0.031696
0.040489
-0.075684
0.018338
0.029189
0.007506
-0.013470
-0.088449
-0.014801
0.012087
-0.017654
-0.139467
0.032102
-0.106384
0.006739
-0.006946
0.011661
0.027726
-0.078460
-0.028964
-0.095821
0.058373
0.015808
0.050479
-0.080310
0.012914
0.048115
-0.057575
0.007180
-0.034853
0.068838
0.098693
0.108314
0.039867
0.122126
0.091929
0.160739
0.179420
0.082683
0.032366
0.059512
0.191921
0.033095
0.130981
0.173374
0.105903
0.121281
0.084439
0.078031
0.076992
0.115928
0.135119
0.118559
0.069426
0.011410
-0.006490
0.051898
0.055321
-0.030671
0.044318
0.071062
0.010063
0.054468
-0.039617
-0.004513
0.010376
-0.062106
-0.029345
-0.057281
0.004623
-0.009106
-0.045882
0.056743
0.306205
0.462574
0.838495
1.120487
1.348455
1.267044
1.199161
0.837109
0.413354
0.104173
-0.159394
-0.229940
-0.171685
-0.119206
-0.096529
-0.000607
-0.063684
-0.012248
-0.009975
0.052896
0.092973
0.043848
0.061666
0.050694
0.115505
0.142476
0.209989
0.071001
0.182746
0.182123
0.198503
0.136174
0.197059
0.214329
0.289313
0.345168
0.427416
0.294300
0.292995
0.416788
0.417462
0.523610
0.421201
0.468457
0.525841
0.463283
0.506883
0.402018
0.422443
0.452640
0.503098
0.468093
0.472538
0.420172
0.534874
0.531857
0.468371
0.437863
0.455647
0.472126
0.405919
0.401783
0.346054
0.325278
0.314073
0.350162
0.376897
0.237580
0.149141
0.150457
0.260939
0.251486
0.161256
0.132215
0.117590
0.176815
0.167408
0.008475
0.067264
0.042463
0.041507
0.032109
0.010757
0.104848
0.037042
-0.049865
0.042537
0.042069
0.018785
-0.032208
-0.014305
0.061100
-0.084827
-0.008267
0.008532
0.057736
-0.048888
-0.034341
0.035697
-0.020648
0.000788
-0.016465
0.016923
0.044269
-0.040429
0.074371
-0.095820
-0.029835
0.001701
-0.024884
-0.018856
-0.005009
0.019374
-0.010426
-0.040634
0.030719
0.105667
0.031720
0.036915
-0.050702
-0.018689
-0.043649
-0.011184
0.101427
0.067711
0.058130
0.013877
0.108141
0.014696
0.040367
0.102340
0.014183
0.084519
0.101656
0.071990
0.145562
0.077593
0.163402
0.149081
0.135200
0.102396
0.217583
0.184683
0.111985
0.162599
0.234552
0.228303
0.293529
0.238414
0.200676
0.179584
0.245490
0.194055
0.253639
0.248024
0.256104
0.069295
0.143769
0.151869
0.271987
0.176778
0.130205
0.145317
0.122508
0.056459
-0.021959
0.031508
0.137760
0.068504
0.081041
0.058324
0.045456
0.101657
0.094316
0.101365
-0.040966
0.070446
0.009629
0.168868
0.160192
0.217729
0.408851
0.735285
1.012173
1.316307
1.456460
1.411515
1.157410
0.847205
0.400307
0.131839
-0.051119
-0.060815
-0.095701
-0.073029
0.071836
0.021055
0.037241
0.148036
0.075416
0.123803
0.155120
0.101463
0.203414
0.152570
0.239337
0.198705
0.271518
0.279348
0.234092
0.274257
0.302810
0.269653
0.332345
0.341707
0.411932
0.359429
0.439217
0.448808
0.516760
0.532151
0.491545
0.475848
0.546547
0.546343
0.546497
0.545072
0.579337
0.722733
0.496060
0.646591
0.586024
0.624941
0.549425
0.618169
0.565878
0.646562
0.556772
0.633155
0.589230
0.494838
0.520007
0.476640
0.422697
0.399224
0.451134
0.388094
0.430326
0.417706
0.396162
0.277509
0.255244
0.329123
0.264286
0.209020
0.201871
0.230097
0.237685
0.249229
0.157661
0.123079
0.170080
0.169094
0.130691
0.127487
0.192969
0.116184
0.146628
0.047323
0.094658
0.076715
0.133821
0.071703
0.213765
0.097445
0.154565
0.133249
0.098609
0.131103
0.059622
0.073490
0.059577
0.102572
0.118898
0.065177
0.146216
0.088532
0.150399
0.044627
0.010511
0.131755
0.123891
0.094591
0.144252
0.171707
0.081388
0.086528
0.009285
0.137338
0.124546
0.143034
0.095584
0.095869
0.137060
0.085506
0.119606
0.111718
0.117602
0.168416
0.082872
0.091266
0.172196
0.118127
0.206368
0.054159
0.176875
0.207033
0.231905
0.165003
0.224578
0.189737
0.190525
0.220208
0.279170
0.175444
0.187641
0.344546
0.337313
0.337246
0.333657
0.292664
0.229455
0.134804
0.309922
0.362805
0.261263
0.200786
0.229065
0.241526
0.272883
0.270374
0.170753
0.075483
0.176279
0.168934
0.243906
0.052033
0.139175
0.147108
0.144241
0.144662
0.103525
0.051596
0.035242
0.224550
0.074091
0.174067
0.080898
0.096722
0.056579
0.237161
0.298446
0.596512
0.819513
1.177149
1.390380
1.500000
1.350035
1.091884
0.750906
0.288783
0.114633
-0.046926
-0.089143
-0.022936
0.000138
0.027378
0.153028
0.104581
0.227795
0.072148
0.135034
0.117114
0.209289
0.296144
0.196832
0.208074
0.266243
0.196404
0.262882
0.294867
0.314082
0.324634
0.317434
0.379846
0.337860
0.405719
0.338130
0.461593
0.440288
0.507519
0.470326
0.531901
0.585637
0.702672
0.682918
0.566948
0.627925
0.630174
0.680492
0.665455
0.588321
0.634257
0.540032
0.632677
0.588251
0.602995
0.632156
0.549500
0.523504
0.517937
0.575661
0.529718
0.421210
0.457284
0.494852
0.372903
0.383207
0.356702
0.424186
0.283608
0.385243
0.279008
0.286270
0.199547
0.204120
0.215477
0.186742
0.194139
0.156448
0.177291
0.195384
0.135335
0.051539
0.155751
0.105864
0.135708
0.108674
0.126084
0.096470
0.107253
0.077419
0.054273
0.182312
0.059704
0.025182
0.074551
0.042870
-0.047045
0.069469
0.045213
0.014070
0.138082
0.091371
0.002894
0.096062
0.037215
0.035961
0.006567
0.055128
0.126140
0.046542
0.023929
0.020768
0.012620
0.038834
0.057794
0.009189
0.001632
0.034470
0.059433
0.057777
0.054616
0.047603
0.000553
-0.053816
-0.017718
0.090696
0.107343
0.035774
0.130789
0.062277
0.054464
0.046712
0.069699
0.059859
0.119643
0.146725
0.088665
0.095000
0.218111
0.211209
0.125142
0.120590
0.170837
0.106061
0.125864
0.151070
0.254981
0.203379
0.214690
0.158672
0.179894
0.219412
0.171827
0.133492
0.152093
0.061018
0.250674
0.128865
0.150793
0.116108
0.063358
0.129946
0.071119
0.033467
0.164524
0.095798
0.094356
-0.013543
0.039902
0.024121
0.047611
0.048895
-0.037080
0.020925
0.005085
0.027345
-0.023183
0.047124
-0.042545
0.050572
0.264512
0.501090
0.840804
1.160104
1.309335
1.367648
1.235388
0.910748
0.517655
0.197611
-0.074884
-0.041647
-0.300381
-0.130593
0.052275
0.003962
0.023433
0.004224
0.084321
0.006317
0.121238
0.122301
0.115789
0.112751
0.145372
0.110952
0.181821
0.158459
0.141307
0.148477
0.207593
0.242569
0.239790
0.205141
0.243556
0.260406
0.233243
0.370381
0.335281
0.321513
0.413289
0.432256
0.426198
0.419892
0.430639
0.502144
0.532023
0.432005
0.465683
0.452870
0.506064
0.470841
0.484686
0.474020
0.450388
0.579979
0.494542
0.455929
0.372646
0.367127
0.340193
0.421866
0.392796
0.298152
0.249170
0.327767
0.205042
0.253249
0.200512
0.228904
0.211674
0.134988
0.157974
0.093136
0.131030
0.067596
0.080230
0.058348
0.042920
0.102233
0.044656
-0.074963
-0.051320
-0.085407
0.033741
0.020673
-0.014881
-0.028585
-0.023132
-0.027440
-0.119455
-0.056299
-0.117441
-0.005726
-0.043407
-0.118519
-0.092775
-0.065787
-0.059840
-0.040975
-0.003992
-0.118097
-0.025870
-0.054847
-0.047418
-0.048652
-0.099037
-0.121693
-0.154023
-0.080389
-0.140753
-0.094802
-0.084144
-0.123525
-0.045502
-0.112261
-0.091324
-0.014707
-0.118063
-0.130254
-0.018154
0.025450
-0.074040
-0.055472
-0.075319
-0.069270
-0.087056
-0.117176
-0.043715
-0.032673
-0.009084
-0.036482
-0.062939
-0.011330
-0.124429
-0.034763
0.056007
-0.026039
-0.009770
0.013977
-0.009563
0.037674
0.114436
0.105381
0.054147
0.193354
0.106508
0.110780
-0.008598
0.099941
0.043527
0.109244
0.018768
0.107419
0.020677
0.081103
0.032532
0.035098
0.041312
-0.054306
0.085155
0.007570
0.003222
-0.037247
-0.110592
-0.015491
0.009538
-0.012331
-0.115382
-0.092885
-0.106976
-0.007213
-0.015523
-0.075755
-0.101552
-0.140589
-0.057735
-0.112170
-0.105037
-0.016947
-0.026110
0.199342
0.514927
0.874304
1.080600
1.343154
1.291232
1.160352
0.750319
0.392950
0.068397
-0.196552
-0.261172
-0.277744
-0.214359
-0.150323
-0.090415
-0.025783
-0.070415
-0.020847
-0.080884
0.034671
-0.084999
-0.015081
0.011875
0.141069
0.071738
0.089811
0.105581
0.111988
0.132694
0.173136
0.191235
0.228234
0.258720
0.170533
0.228693
0.242166
0.303874
0.346599
0.289608
0.344145
0.438254
0.381829
0.425018
0.353290
0.472151
0.481037
0.438837
0.522866
0.552156
0.501023
0.429869
0.385406
0.451075
0.356570
0.370595
0.428321
0.356404
0.415292
0.345913
0.339303
0.407880
0.305418
0.201781
0.269548
0.284268
0.229845
0.237697
0.136557
0.178348
0.151153
0.011666
0.132391
0.102020
-0.023328
0.019451
0.016052
0.048663
-0.028639
0.020921
0.001720
0.089208
-0.039430
0.000089
0.033720
-0.033377
0.037561
-0.033310
-0.079535
0.001876
-0.043474
0.012007
-0.056630
-0.015122
-0.041809
-0.073925
-0.108549
-0.041632
-0.094319
-0.026502
-0.145898
-0.065124
-0.039377
-0.062033
-0.194916
-0.038372
-0.088960
-0.052634
0.016125
-0.005151
-0.105847
-0.011372
-0.080944
-0.024862
-0.089041
0.018221
-0.101925
-0.095594
-0.056738
-0.044743
-0.057326
0.053937
-0.074017
-0.093536
-0.024837
-0.078685
-0.110044
-0.040206
0.010996
-0.026987
-0.034243
0.016704
-0.026863
0.041991
-0.058119
0.002909
-0.034305
0.067181
0.051284
0.103406
0.076040
0.056638
0.040662
0.116835
0.190441
0.249934
0.023441
0.108779
0.151912
0.157695
0.143744
0.178937
0.117530
0.116882
0.135709
0.140237
0.121187
0.117103
0.062438
0.053197
0.039580
-0.008969
0.032660
0.051066
-0.015050
0.045050
-0.036717
0.020231
0.032111
-0.037172
0.054213
-0.025348
-0.097966
-0.028060
-0.042038
-0.062720
-0.043374
-0.011131
-0.105709
0.083818
0.279618
0.329883
0.691957
0.966784
1.390549
1.371114
1.349049
1.078585
0.735513
0.350166
0.053617
-0.194658
-0.171961
-0.172594
-0.126993
-0.022641
-0.103434
-0.040987
-0.029819
0.125234
0.074688
0.053416
0.065983
0.081188
0.079552
0.158439
0.176845
0.095567
0.241615
0.174754
0.243294
0.275287
0.268739
0.252399
0.291922
0.286208
0.388049
0.332726
0.379210
0.475414
0.372504
0.461111
0.565711
0.431091
0.479188
0.497078
0.553869
0.570594
0.556259
0.536955
0.547744
0.522578
0.450275
0.486133
0.478978
0.568140
0.597929
0.476725
0.450663
0.421004
0.416016
0.382009
0.452583
0.334721
0.334146
0.293925
0.300214
0.340663
0.288272
0.258050
0.217567
0.211386
0.222904
0.156212
0.164994
0.191349
0.215444
0.120372
0.117769
0.085838
0.024115
0.067270
-0.003222
0.037876
0.032826
0.069796
0.043659
0.118510
0.071226
0.023255
0.012241
0.013666
-0.014650
0.016764
0.061957
0.064027
-0.000355
0.016093
0.113288
0.033747
0.054365
0.078609
0.055842
0.056360
-0.030490
0.013695
0.109245
0.100559
0.067398
0.059716
0.153544
0.079603
0.040268
0.076106
0.039743
0.080395
0.056653
0.057335
-0.004592
0.014066
0.091797
0.065990
-0.032097
0.091986
0.028244
0.114945
0.113231
0.032594
-0.006911
0.034914
0.031620
0.035776
0.187145
0.114650
0.090195
0.108516
0.148325
0.087910
0.047720
0.248474
0.188815
0.231225
0.199203
0.246455
0.248265
0.127610
0.300966
0.146679
0.204882
0.230321
0.220395
0.243122
0.243909
0.316243
0.183115
0.184590
0.183586
0.238509
0.183132
0.219482
0.171725
0.170466
0.169499
0.150567
0.089107
0.085509
0.093159
0.131049
0.072409
0.094383
0.069019
0.068067
0.155564
0.118384
0.111024
-0.004083
-0.032881
0.124281
0.050146
-0.014649
0.154999
0.319663
0.533394
0.783920
1.147720
1.382648
1.452505
1.394571
1.089514
0.625152
0.352155
0.020514
-0.146810
-0.264662
-0.089264
0.032357
0.080714
0.143954
0.004598
0.049229
0.123277
0.071597
0.135023
0.100816
0.130330
0.190388
0.194698
0.171284
0.229290
0.250775
0.378604
0.263924
0.332538
0.242730
0.297200
0.348451
0.324752
0.273822
0.483774
0.444543
0.446032
0.560263
0.469197
0.453216
0.541971
0.453822
0.600602
0.541618
0.534700
0.695247
0.646825
0.575665
0.590685
0.608644
0.616720
0.533740
0.654554
0.513412
0.559409
0.482469
0.420181
0.405361
0.371928
0.563882
0.468722
0.320168
0.294942
0.341630
0.338775
0.275286
0.249266
0.347420
0.266298
0.242266
0.205791
0.188519
0.225972
0.135690
0.147302
0.152875
0.200395
0.117481
0.077517
0.095746
0.040143
0.098239
0.034008
-0.001679
0.074488
0.090518
0.052881
0.059684
0.087921
-0.054130
0.040758
-0.022061
0.020315
0.015097
0.038908
0.084718
-0.006033
-0.027667
0.033373
0.047909
0.032472
-0.008548
0.069553
0.043930
0.084382
0.052703
0.060476
-0.010065
0.033035
0.063228
-0.008824
0.069652
0.024934
0.044580
-0.026169
0.125457
0.048236
0.016518
0.093389
0.034313
0.006798
0.016476
-0.062399
0.067110
0.103842
0.050813
0.053064
0.065423
0.079862
0.038559
0.048942
0.165425
0.084928
0.072821
0.024806
0.064939
0.102077
0.150874
0.161376
0.143772
0.110706
0.209385
0.103665
0.216749
0.191396
0.197709
0.150252
0.237170
0.097138
0.221607
0.205216
0.136179
0.073877
0.119340
0.072039
0.103070
0.131006
0.111348
0.085700
0.013300
-0.016067
0.050676
0.010744
0.110935
0.036742
0.018942
0.056532
0.008449
-0.058208
-0.039578
0.023771
-0.059309
0.041349
-0.024232
0.000314
-0.050283
0.007576
0.069072
0.244203
0.528925
0.918428
1.152669
1.391454
1.361135
1.214240
0.878321
0.452500
0.091487
-0.095898
-0.181053
-0.147105
-0.133029
-0.150399
-0.021334
-0.003719
0.063822
0.075197
0.026144
0.043498
0.059643
0.118057
0.088126
0.077676
0.195073
0.137830
0.065815
0.218269
0.254233
0.139823
0.238475
0.248083
0.243997
0.265092
0.316306
0.287456
0.333069
0.364078
0.379110
0.353607
0.406777
0.415831
0.369392
0.492209
0.372404
0.420494
0.455893
0.490381
0.535856
0.539704
0.458593
0.505542
0.434631
0.456821
0.476671
0.460668
0.381649
0.438735
0.380392
0.293609
0.328787
0.311877
0.247995
0.206336
0.312503
0.213895
0.188525
0.139688
0.164896
0.106810
0.115527
0.032884
0.053314
0.040994
0.037844
-0.003196
0.018914
0.017744
-0.008396
0.049382
-0.018871
-0.046239
-0.100078
-0.052575
-0.071304
-0.023975
0.004654
-0.013228
-0.060643
-0.095655
-0.093214
-0.112401
-0.038969
-0.057323
0.058614
-0.065152
-0.049855
-0.083639
-0.112225
-0.076745
-0.116411
-0.078815
-0.093064
-0.108906
-0.064936
-0.053467
-0.017911
-0.043368
-0.121808
-0.141607
-0.127430
-0.067787
-0.056919
-0.097247
-0.093961
-0.171021
-0.052971
-0.076611
-0.105232
-0.107475
-0.094146
-0.055550
-0.129721
-0.117904
-0.033692
0.020985
-0.081940
-0.060905
-0.083965
-0.031749
-0.053283
-0.046993
-0.103449
-0.039160
0.007616
-0.021298
-0.001523
-0.040700
0.105878
0.010830
0.154206
0.063865
0.066040
0.129587
0.108062
0.167749
0.119849
0.052542
0.122346
0.005851
0.079023
0.138922
0.142498
-0.028977
0.066794
0.039771
0.042122
-0.052990
-0.012896
0.031718
0.036337
-0.047516
-0.021653
-0.037554
-0.036314
-0.047362
-0.094984
-0.080762
-0.037325
-0.093886
-0.173081
-0.023073
-0.099853
-0.146880
-0.088847
-0.082463
0.004751
-0.109172
-0.097136
0.075832
0.291355
0.513995
0.881744
1.123181
1.286218
1.290366
1.064864
0.613835
0.350508
0.019447
-0.239565
-0.244574
-0.248812
-0.197949
-0.144682
-0.035264
-0.041454
-0.081686
-0.087731
-0.025610
-0.000195
0.034972
0.052510
-0.006251
-0.007720
0.049460
-0.014559
0.039082
0.171185
0.098520
0.100029
0.167847
0.166967
0.153439
0.192167
0.243658
0.183734
0.342718
0.307714
0.344831
0.340853
0.302249
0.429922
0.380595
0.419646
0.368136
0.399709
0.395602
0.417224
0.492701
0.451207
0.386263
0.390131
0.426213
0.453507
0.453340
0.407295
0.381064
0.336239
0.282461
0.298724
0.255950
0.361851
0.249642
0.243310
0.204689
0.216480
0.187344
0.189292
0.133130
0.077717
0.119061
-0.022947
0.043459
0.020730
-0.016254
0.109430
0.063612
0.029702
-0.079637
-0.012608
-0.000278
-0.030439
-0.083468
-0.063511
-0.141957
-0.179007
-0.046842
-0.151998
-0.121458
-0.050172
-0.070922
-0.063931
-0.029629
-0.116298
0.001965
-0.056227
-0.126394
-0.075231
-0.026868
-0.068325
-0.027463
-0.153054
-0.131513
-0.058031
-0.044712
-0.046636
-0.136913
-0.110729
-0.036368
-0.008961
-0.070337
-0.079288
-0.080712
-0.101842
-0.145704
-0.113776
-0.119606
-0.148208
-0.089815
-0.053500
-0.043420
-0.091663
-0.095591
-0.088183
-0.075204
-0.039368
-0.106216
-0.039273
-0.084263
-0.045089
-0.093058
-0.079810
-0.048412
-0.019838
0.022662
0.019802
-0.017020
0.014778
0.012548
0.031452
0.068558
0.110267
0.020130
0.147716
0.100506
0.114725
0.047257
0.117716
0.174145
0.083289
0.153422
0.177300
0.142590
0.087991
0.116471
0.097478
0.044780
0.010800
0.054650
0.053156
0.055271
0.007282
0.022904
-0.026875
-0.015079
-0.011780
-0.010167
0.003855
-0.066912
0.027295
0.026193
-0.026250
-0.003932
-0.054702
-0.081505
-0.129991
-0.080399
-0.033684
0.002730
0.162462
0.325842
0.687279
0.934740
1.237341
1.411252
1.205710
1.036991
0.628109
0.331494
-0.032730
-0.185055
-0.176350
-0.217867
-0.166152
-0.142157
0.002387
-0.010851
0.038501
0.106798
0.097264
0.077775
0.064181
0.138227
0.101713
0.216891
0.131375
0.176917
0.239980
0.251919
0.191507
0.098860
0.245024
0.309474
0.271673
0.264269
0.314165
0.352241
0.383675
0.382111
0.370883
0.358965
0.426217
0.481332
0.483370
0.512625
0.478578
0.439182
0.503357
0.554764
0.449657
0.460154
0.568335
0.531649
0.510017
0.403678
0.517908
0.498637
0.477453
0.454226
0.475894
0.439516
0.340637
0.282728
0.335272
0.370484
0.249620
0.207441
0.347378
0.286832
0.252617
0.183270
0.221736
0.277853
0.172696
0.155263
0.157649
0.067694
0.155180
0.105934
0.049445
0.114959
0.143158
0.174329
0.016875
-0.025840
0.173271
0.034317
-0.045650
0.017158
0.109517
-0.010532
0.092170
0.118944
-0.004791
-0.039899
-0.016633
0.069043
0.061819
0.062675
-0.016725
-0.058515
0.007844
0.047974
0.049054
0.108813
0.029102
0.000074
0.064844
-0.050322
-0.056595
0.039246
0.004395
0.083813
-0.062556
0.030315
-0.010958
-0.004565
0.070828
0.062370
0.015215
-0.019878
0.025457
0.014477
0.021351
0.067482
0.092351
0.085214
0.152222
0.080624
0.043184
0.081952
0.081281
0.072567
0.104756
0.114598
0.047689
0.101110
0.175181
0.101911
0.201971
0.223979
0.186407
0.187799
0.181677
0.240363
0.269782
0.164778
0.259831
0.245979
0.154197
0.190482
0.268600
0.248188
0.202657
0.332212
0.168302
0.197016
0.252238
0.204944
0.198895
0.180714
0.082414
0.127596
0.107479
0.114953
0.154685
0.121624
0.073187
0.066363
0.038235
0.075306
0.081768
0.117808
0.020090
0.040922
0.021576
0.068984
0.075065
0.034216
0.074649
0.282372
0.515074
0.899487
1.190809
1.498414
1.494559
1.345385
0.980703
0.667776
0.300951
0.070626
-0.098399
-0.167161
-0.126193
0.030694
0.095287
0.003766
0.118034
0.166857
0.171220
0.105802
0.100199
0.190461
0.227769
0.200980
0.202202
0.239057
0.205572
0.289184
0.378676
0.222520
0.309555
0.380791
0.339531
0.456363
0.420326
0.446091
0.435582
0.434425
0.393597
0.490210
0.494173
0.464766
0.580561
0.461129
0.539486
0.555431
0.597717
0.599977
0.489822
0.674776
0.528518
0.516283
0.547533
0.624243
0.566321
0.633895
0.576352
0.487811
0.600881
0.486419
0.421485
0.487395
0.440750
0.428681
0.437842
0.336067
0.235101
0.357785
0.262538
0.308916
0.244922
0.214189
0.302145
0.130973
0.248181
0.139838
0.089938
0.173514
0.181047
0.107841
0.177861
0.132686
