-0.049064
-0.036181
0.001595
-0.093706
0.123154
0.020890
-0.020817
-0.016777
-0.023449
-0.022469
-0.037078
0.000493
-0.003430
0.016338
0.014299
0.033443
0.021357
0.039209
-0.001718
0.014664
-0.009906
0.046181
-0.000295
-0.030719
0.050799
0.018947
0.008315
0.029565
0.020170
0.049362
0.081301
0.007562
-0.001704
0.025536
-0.008599
0.071074
0.042682
0.011949
0.061438
0.076183
0.039277
0.101433
0.074202
0.172826
0.168019
0.244948
0.099195
0.166157
0.124389
0.204279
0.207026
0.200352
0.180251
0.182307
0.156236
0.146530
0.236878
0.224159
0.294065
0.151844
0.144176
0.043059
0.221037
0.123645
0.103832
0.157915
0.125649
0.167199
0.124021
0.097362
0.047302
0.080738
0.066289
0.079739
0.056986
0.043221
0.049005
0.085490
0.040014
0.086423
0.026908
0.004109
0.096135
0.037036
0.003668
0.009414
-0.000456
0.046777
0.003696
0.056690
0.024253
0.006223
0.070810
0.052495
0.034597
0.047268
-0.013219
-0.062671
-0.022341
-0.001450
0.076495
0.369634
0.675361
1.030402
1.265098
1.500000
1.331191
1.274881
0.944355
0.657589
0.308572
0.009943
-0.078365
-0.276036
-0.210448
-0.248611
-0.050278
-0.019798
0.018844
0.011694
0.044781
0.069153
0.137213
0.103938
0.007825
0.116568
0.037075
0.091546
0.111111
0.062805
0.060282
0.158472
0.124375
0.015580
0.087906
0.143785
0.111118
0.129040
0.144918
0.149206
0.176636
0.200136
0.179869
0.125566
0.165657
0.091365
0.226259
0.272026
0.195371
0.249429
0.212165
0.278197
0.314783
0.313510
0.298686
0.346247
0.392145
0.452752
0.354327
0.446015
0.438653
0.469232
0.502048
0.546227
0.496845
0.502670
0.440859
0.517169
0.483580
0.551109
0.574490
0.513465
0.544873
0.653845
0.589214
0.552994
0.615429
0.545082
0.573171
0.461750
0.448217
0.441045
0.416872
0.465052
0.414162
0.371000
0.297037
0.354579
0.310516
0.294966
0.333466
0.298731
0.250178
0.296140
0.251952
0.150941
0.216063
0.202196
0.134483
0.175235
0.119538
0.153003
0.259353
0.079645
0.141917
0.107761
0.107683
0.185356
0.119016
0.112029
0.125558
0.093262
0.143468
0.079377
0.064407
0.066964
0.158031
0.030016
0.092455
0.068406
0.128933
0.071419
0.011064
0.135622
0.098677
0.062440
0.108588
0.155348
0.079483
0.093356
0.086414
0.099455
0.054331
0.143512
0.090802
0.109874
0.034349
0.109609
0.098056
0.079548
0.099308
0.137967
0.178157
0.041583
0.055389
0.147758
0.091023
-0.003429
0.124526
0.052552
0.107864
0.081408
0.066562
0.136577
0.147492
0.098750
0.066896
0.095437
-0.024873
0.073483
0.019131
0.142116
0.087406
0.022903
0.077376
0.030907
0.112073
0.078251
0.113481
0.080827
0.088750
0.017583
0.062976
0.038932
0.122785
0.146582
0.056826
0.114809
-0.076812
0.070500
0.030435
0.045029
0.054461
0.082788
0.094456
0.111671
0.112256
0.081041
0.163240
0.044408
0.022436
0.082833
0.087879
0.098701
0.012868
0.083408
0.121898
0.157377
0.113488
0.049315
0.152325
0.075092
0.188521
0.129598
0.130680
0.175878
0.147981
0.152884
0.207743
0.235633
0.185024
0.169201
0.242258
0.212917
0.200052
0.245229
0.239126
0.281851
0.151394
0.227488
0.161930
0.226937
0.203743
0.159076
0.234263
0.170071
0.268639
0.107155
0.130781
0.097717
0.053694
0.113460
0.113764
0.132735
0.044238
0.071022
0.154693
-0.012853
0.065705
0.030602
0.058390
0.020209
0.097213
0.034922
0.021493
0.011332
0.086859
0.019873
0.028591
0.074271
0.027246
0.090873
-0.014899
0.000386
0.024028
0.041153
0.038502
0.011342
0.058668
-0.065144
0.048031
0.005888
-0.085186
0.162749
0.320611
0.632136
0.922351
1.130069
1.309679
1.422263
1.177184
0.910374
0.690837
0.292064
0.022543
-0.165537
-0.221248
-0.225316
-0.243273
-0.130649
-0.092382
-0.063110
-0.033951
0.030287
0.047266
0.091196
0.002503
-0.023252
0.046951
0.035752
0.032276
-0.030107
0.049329
0.008525
0.041307
-0.097384
0.076834
0.020198
-0.032558
0.055052
0.047672
0.073985
0.057008
-0.035225
0.090409
0.126450
0.079825
0.174970
0.075780
0.140127
0.095362
0.203855
0.150285
0.152738
0.300511
0.185776
0.283201
0.201118
0.354678
0.336229
0.334327
0.300508
0.400363
0.380387
0.401394
0.456539
0.405365
0.465763
0.492629
0.419407
0.372794
0.469992
0.537636
0.559510
0.476838
0.562549
0.407652
0.445492
0.471261
0.458983
0.405184
0.439034
0.421006
0.331398
0.372605
0.293557
0.361237
0.291287
0.338893
0.268968
0.265760
0.264697
0.233496
0.214042
0.204657
0.215592
0.068019
0.190347
0.104257
0.128131
0.084230
0.111092
0.121745
0.101262
0.008811
0.010471
0.006117
0.006427
0.034696
0.020951
-0.052571
0.006824
0.008091
0.039504
-0.015405
-0.096866
-0.038979
0.007096
-0.051070
-0.019248
-0.016176
0.010717
-0.069612
-0.076640
-0.053983
0.003860
0.016272
0.046070
-0.026444
-0.054496
-0.065469
-0.061744
-0.060130
-0.038971
0.041190
-0.050121
0.086435
-0.002461
-0.032973
-0.085142
-0.057131
-0.012100
-0.065540
-0.072787
-0.052055
-0.016287
0.017871
-0.030259
-0.043912
-0.018172
-0.064158
-0.029914
-0.074956
-0.106327
-0.027556
0.005230
-0.066721
-0.038252
-0.019708
-0.103702
-0.034757
-0.049122
-0.009678
-0.077713
-0.029433
-0.034530
-0.123079
-0.034295
-0.020848
-0.008432
-0.086173
-0.052539
-0.005052
-0.050679
-0.051610
-0.044049
-0.022451
-0.045041
-0.050940
-0.009518
-0.091908
-0.000501
-0.034626
-0.041824
0.005968
0.029841
0.006974
0.002837
-0.034713
-0.021372
-0.081971
0.011574
-0.145352
-0.004949
-0.038184
-0.024936
0.051340
-0.033595
-0.054951
-0.008940
0.060653
-0.037566
0.009013
-0.063388
0.037724
-0.012062
0.034688
0.015815
0.083980
0.106670
0.056604
0.145864
0.096839
0.108619
0.035782
0.172071
0.150169
0.122914
0.098761
0.129939
0.078499
0.171825
0.085695
0.157847
0.082784
0.108519
0.078289
0.133593
0.070244
0.087305
0.085312
0.148383
0.035849
0.112591
0.037214
0.005712
0.031007
0.076009
-0.014455
-0.005172
0.038873
-0.049112
0.051578
-0.025101
-0.041614
-0.033826
-0.018952
-0.011100
-0.019351
-0.017011
0.004674
-0.015394
-0.105691
-0.061873
-0.008044
-0.016556
-0.005205
-0.034602
-0.064007
-0.082525
-0.003011
-0.052863
-0.065066
-0.126753
-0.118248
-0.065357
0.042874
0.205890
0.455947
0.766810
1.113758
1.249205
1.324269
1.125748
0.974591
0.608494
0.290631
0.026327
-0.131726
-0.348861
-0.338564
-0.277971
-0.249376
-0.190905
-0.197494
-0.006678
-0.066269
-0.042328
-0.039989
-0.041547
-0.030630
0.028332
-0.079778
-0.024624
0.055387
-0.053857
0.021925
-0.045281
-0.000320
-0.006032
0.021022
-0.058606
0.025647
0.044792
0.027165
-0.078594
-0.009940
0.054121
0.039429
0.098635
0.079788
0.085214
0.096900
0.081309
0.076710
0.113077
0.104710
0.237344
0.300023
0.184395
0.298408
0.215234
0.357605
0.255677
0.257387
0.348874
0.401759
0.395713
0.329681
0.435389
0.372368
0.470760
0.504770
0.379360
0.450917
0.474155
0.397342
0.427889
0.499662
0.434654
0.460612
0.480437
0.485794
0.471918
0.443322
0.387649
0.364808
0.381782
0.371452
0.318552
0.334727
0.273108
0.306242
0.302886
0.247802
0.331815
0.257165
0.221928
0.203757
0.172065
0.152928
0.149789
0.173967
0.111485
0.060919
0.040699
0.081592
0.032911
0.084437
0.098850
0.008426
0.062639
0.069740
0.155907
-0.085824
0.076330
0.059195
-0.002908
0.119490
0.006644
-0.049509
0.063983
-0.004574
-0.030330
-0.024360
-0.005460
0.053928
0.050886
-0.007104
-0.039373
0.054020
0.082215
0.023094
0.005006
0.003831
0.078862
0.009684
0.064105
0.067807
0.088469
0.047949
-0.018450
0.068938
0.092107
0.051097
-0.074090
0.047021
0.070767
0.051985
0.052426
0.080316
0.040434
0.076624
0.027592
0.042563
-0.013346
0.016653
0.068413
0.019905
0.073056
0.082404
0.079689
0.050744
0.000127
0.078032
0.029373
0.036304
0.049597
0.036496
0.006702
0.038433
0.044345
0.030556
-0.012296
0.048630
0.052189
0.053934
0.048883
0.016836
0.052217
0.049457
0.054282
-0.046771
0.070725
0.078687
0.083264
0.027258
0.043858
0.065110
0.062615
0.020743
0.104578
-0.001482
0.047652
0.057595
0.105241
0.040951
0.014656
0.115934
0.032440
0.107374
0.030497
0.101831
0.136626
0.117606
-0.007161
0.144960
0.097711
0.221313
0.075127
0.122047
0.191244
0.235164
0.146335
0.147529
0.165094
0.204078
0.245338
0.200129
0.222695
0.231216
0.223587
0.175452
0.218744
0.319307
0.173599
0.249328
0.259291
0.198308
0.238219
0.218602
0.105167
0.158413
0.153801
0.193713
0.109810
0.191026
0.087583
0.151678
0.183857
0.091610
0.083302
0.158754
0.084636
0.144643
0.026291
0.074847
0.095371
0.108377
0.086897
0.039363
0.084107
0.030297
0.049599
0.061161
0.002112
0.101803
0.106706
0.124650
0.022177
0.078899
0.061218
0.065831
0.138563
-0.019544
0.018296
0.127426
-0.090648
-0.044433
0.085355
0.234413
0.552748
0.858229
1.120145
1.288602
1.432649
1.354762
1.107173
0.678300
0.425629
0.165279
0.000024
-0.185258
-0.212489
-0.222538
-0.043677
-0.029679
0.009401
0.005340
0.034529
0.096109
0.095067
0.041678
0.134807
0.042665
0.111418
0.082547
0.078381
0.088145
0.070825
0.126961
0.150033
0.058291
0.137385
0.178493
0.113663
0.125810
0.174850
0.147302
0.100785
0.131987
0.131376
0.237214
0.219841
0.194403
0.225880
0.215937
0.300624
0.253395
0.289858
0.200914
0.317776
0.313446
0.349809
0.331095
0.274496
0.416013
0.401874
0.392974
0.367437
0.501449
0.543876
0.441085
0.468700
0.538273
0.601306
0.529444
0.547811
0.604012
0.592646
0.503673
0.513689
0.599152
0.557269
0.594949
0.564133
0.526998
0.500882
0.504347
0.459128
0.488348
0.390072
0.455130
0.521329
0.410945
0.344709
0.407533
0.272644
0.298990
0.228208
0.282662
0.261767
0.289397
0.235771
0.273771
0.192022
0.217106
0.244423
0.230605
0.198026
0.092304
0.141718
0.125609
0.182740
0.158879
0.057683
0.086000
0.105416
0.091457
0.032538
0.065501
0.165751
0.076234
0.153807
0.103431
0.127435
0.023366
0.128460
0.017749
0.125014
0.126842
0.055586
0.080115
0.135419
0.087854
0.053946
0.051493
0.094739
0.114584
0.041608
0.104799
0.055761
0.034673
0.086587
0.029275
0.032360
0.039815
0.075638
0.156602
0.032318
0.039237
0.072360
0.053732
0.032352
-0.036581
0.078829
0.029019
0.092628
0.035688
0.000197
0.091873
0.089251
0.076052
-0.055913
0.114332
0.030604
0.105459
0.053260
0.024483
0.048426
0.073106
0.082036
0.018303
-0.000828
-0.021714
0.017978
0.085652
0.083437
-0.016382
0.071877
0.072331
0.048153
0.023499
0.092746
0.070557
0.083584
0.027471
0.095501
0.113987
0.041315
0.012788
0.060089
0.036673
0.087879
0.038089
0.051804
0.068018
0.064488
0.049372
0.089598
0.068763
0.007534
0.031457
0.065257
0.080046
0.027666
0.041095
0.069459
0.038460
0.069549
0.134322
0.093691
0.120701
0.191870
0.061866
0.091072
0.103004
0.162295
0.224111
0.191505
0.215051
0.153987
0.184320
0.151011
0.149056
0.198210
0.161968
0.189872
0.200793
0.142138
0.126748
0.175276
0.110569
0.162146
0.138088
0.108803
0.073146
0.071422
0.004986
0.081628
0.082175
0.134123
0.084716
0.022841
0.027413
0.112687
0.053506
-0.033282
-0.069546
0.109250
0.006695
0.008814
0.037792
0.044312
0.008442
-0.029553
-0.028206
0.051468
-0.010447
0.023240
0.041572
0.045268
0.064109
-0.000523
0.033306
0.061148
0.013488
-0.056081
-0.095810
-0.066009
-0.114130
-0.027311
0.000643
0.070551
0.494311
0.720226
1.086365
1.241258
1.350385
1.298135
1.027555
0.676572
0.427511
0.148373
-0.141829
-0.186620
-0.322203
-0.308534
-0.233646
-0.211951
-0.037194
-0.066711
0.023368
0.003737
0.003003
-0.015756
-0.052877
-0.010152
-0.036686
-0.051796
0.011319
-0.022193
0.005488
-0.000644
-0.021107
0.088480
0.016984
-0.019520
-0.007225
0.012332
0.012014
-0.051556
-0.005291
0.007235
-0.010081
0.012384
0.111359
0.085682
0.004028
0.090019
0.016126
0.161489
0.091656
0.202618
0.223954
0.152472
0.249998
0.170332
0.307926
0.162607
0.267919
0.315004
0.336910
0.345008
0.387155
0.382639
0.504614
0.355307
0.431599
0.413061
0.470887
0.416673
0.431592
0.482049
0.401688
0.396052
0.392523
0.322250
0.354978
0.493995
0.378418
0.420611
0.431600
0.303084
0.321883
0.337212
0.239309
0.315383
0.169351
0.230243
0.249310
0.226176
0.192069
0.087607
0.167394
0.138807
0.087108
0.080509
0.145080
0.072835
0.068411
0.068785
0.071248
0.033231
0.077738
0.041974
-0.021246
-0.008917
-0.002005
-0.055054
-0.039687
-0.061138
-0.068045
-0.054905
-0.019103
-0.030380
-0.048232
-0.044035
-0.009057
0.037228
-0.060699
-0.066899
-0.081212
-0.083339
-0.023528
-0.053352
-0.090720
-0.034022
-0.006007
-0.025247
0.004365
-0.063719
-0.092180
-0.041099
-0.074861
-0.092212
-0.070246
-0.017726
-0.105228
-0.078423
-0.055632
-0.043441
-0.044419
-0.077966
-0.070695
-0.064247
-0.136928
-0.131017
-0.105686
-0.028742
-0.106622
-0.083107
-0.109488
-0.112711
-0.102412
-0.046623
-0.158190
-0.048424
-0.060302
-0.048740
0.007069
-0.159613
-0.043552
-0.107626
-0.025204
-0.046602
0.018085
-0.057350
-0.043458
-0.103436
-0.011577
-0.036076
-0.042817
-0.136991
-0.098052
-0.097537
-0.038636
-0.083388
-0.098548
-0.008185
-0.165406
-0.159624
-0.055526
-0.075457
-0.094306
-0.124916
-0.036265
-0.075778
-0.047209
-0.065177
-0.070652
-0.053959
-0.034249
-0.082868
-0.143317
-0.107653
-0.030352
-0.051669
-0.033964
-0.117818
-0.058113
-0.134584
-0.004730
0.052468
0.025521
-0.078847
-0.014431
0.003252
0.001085
-0.063552
0.022060
-0.036858
0.007728
-0.008563
0.086389
0.087240
0.053718
0.086150
0.137102
0.147742
0.120740
0.090702
0.065259
0.143644
0.097454
0.077703
0.040100
0.049617
0.006722
0.111851
0.065276
-0.129540
0.000926
0.030699
-0.094876
-0.074333
-0.026145
-0.103137
-0.058393
-0.068779
0.026550
-0.070618
-0.017040
-0.098171
-0.104250
-0.053502
-0.074472
-0.128295
-0.182807
0.025945
-0.090906
-0.075671
-0.049479
-0.069445
-0.086108
-0.102286
-0.015516
-0.079428
-0.044832
-0.055236
-0.116943
-0.133236
-0.130184
-0.151704
-0.060198
-0.082972
0.084107
0.344039
0.602304
0.929571
1.194308
1.241151
1.223328
1.028516
0.691916
0.449364
0.094794
-0.127993
-0.238977
-0.328269
-0.349564
-0.262746
-0.208446
-0.156396
-0.170235
-0.115171
-0.025033
-0.082322
-0.071956
-0.058987
-0.060389
-0.037518
0.067502
-0.024272
-0.031347
-0.081419
-0.047441
-0.021709
-0.114565
-0.014239
0.032058
-0.076157
0.013284
-0.037214
0.000647
-0.016909
0.078494
0.006043
0.027240
0.016211
-0.010459
0.029510
0.020566
0.091661
0.105077
0.121932
0.192717
0.145703
0.190397
0.241385
0.198388
0.192217
0.264511
0.265929
0.337984
0.339908
0.344922
0.372007
0.420157
0.342601
0.415211
0.413124
0.446728
0.430341
0.430164
0.500537
0.413845
0.447818
0.460866
0.517034
0.393166
0.468183
0.453404
0.410821
0.438953
0.395050
0.360913
0.330191
0.351504
0.298545
0.263608
0.265216
0.267362
0.264267
0.176391
0.220222
0.180318
0.095182
0.096087
0.121136
0.103039
0.099450
0.192460
0.094137
0.100326
0.110823
0.045238
0.061541
0.003123
0.064331
0.058483
-0.052402
0.000734
-0.000676
-0.035435
0.005266
0.020560
-0.038283
-0.140800
-0.022588
0.041826
-0.000008
-0.078770
-0.023614
-0.110652
0.025220
0.025995
0.018939
-0.076037
0.066902
-0.022972
-0.007504
0.006328
-0.017921
-0.020313
-0.030577
-0.017804
-0.013947
-0.011821
0.015943
0.007915
0.002434
0.029459
-0.008162
0.051060
-0.001803
-0.050244
0.003715
-0.012412
-0.003188
-0.016932
0.035176
-0.023785
-0.088522
0.018406
0.000929
0.097472
-0.026693
0.037925
-0.016935
-0.002053
-0.051695
0.027141
0.032400
-0.039385
0.043778
0.058338
0.108279
0.073982
0.056509
0.012402
0.051649
0.041222
0.019472
0.025896
0.067239
0.045614
-0.065588
-0.098968
0.153009
0.039703
-0.027700
0.019807
-0.015973
-0.036881
0.031783
0.004414
0.004221
-0.035151
0.093703
-0.018463
0.051391
0.023396
0.021232
0.021005
0.062374
-0.022510
0.035574
0.068736
-0.018683
0.121183
-0.004083
0.066992
0.069920
0.078143
0.147018
-0.011457
0.187229
0.063680
0.062169
0.188477
0.111042
0.150776
0.189880
0.162921
0.171725
0.168840
0.171558
0.152839
0.237221
0.214300
0.259679
0.252225
0.204450
0.240775
0.175489
0.179974
0.216084
0.181741
0.160088
0.070014
0.113707
0.082377
0.182875
0.092073
0.099993
0.060360
0.106248
0.047075
0.040462
0.104864
0.056600
0.100328
0.045717
0.017545
0.077096
0.057026
-0.045267
0.039144
0.008436
0.033719
0.049115
0.000457
0.020886
0.033323
0.016713
0.031249
0.061316
-0.031853
0.005612
0.038118
0.047931
0.010738
-0.032888
0.048252
-0.035820
-0.014890
-0.000763
-0.059239
0.124343
0.321575
0.704826
0.986027
1.267829
1.371323
1.329798
1.156697
0.853444
0.567009
0.299034
0.021700
-0.200594
-0.233293
-0.326181
-0.209138
-0.139841
-0.098315
0.004116
-0.050037
0.048867
0.046948
-0.026837
0.030298
0.005533
0.102490
0.018198
-0.028235
0.095019
0.067367
0.011959
0.074874
0.037936
-0.030250
0.066105
0.078776
0.115960
0.029733
0.152689
0.109110
0.140613
0.195136
0.165432
0.152093
0.098204
0.150386
0.121203
0.255089
0.178804
0.238335
0.193200
0.253127
0.247151
0.297537
0.260104
0.298763
0.336144
0.339619
0.411048
0.350754
0.442080
0.408286
0.380749
0.391539
0.490667
0.484943
0.444556
0.413964
0.557949
0.644309
0.562610
0.488715
0.513023
0.539202
0.498057
0.556747
0.463788
0.449220
0.427746
0.499074
0.436554
0.418035
0.341333
0.354483
0.344201
0.330611
0.274031
0.277067
0.291952
0.215426
0.220772
0.259280
0.242527
0.201650
0.252329
0.242242
0.139488
0.133238
0.111330
0.125680
0.132581
0.082869
0.047052
0.027365
0.039542
0.014252
0.074391
0.022452
-0.036301
0.042616
0.100662
0.091876
0.013279
-0.052626
-0.011979
0.090339
-0.042699
-0.012724
0.109889
0.014466
0.010214
0.000207
0.078802
0.075108
0.068492
0.027991
0.063263
0.004987
-0.011030
0.062326
0.031669
-0.033795
0.066899
0.023392
-0.025765
-0.063708
0.062219
0.003928
0.085322
-0.068041
-0.038212
-0.040838
0.100246
0.044833
0.120956
-0.022389
0.034957
0.013575
0.016000
0.004620
0.005155
-0.027368
0.011664
-0.000681
-0.003497
0.000188
0.074183
0.000483
-0.074647
-0.000164
-0.012021
0.036836
-0.083352
-0.036143
-0.015093
-0.033106
0.067878
0.027831
0.007446
0.002553
-0.019416
0.019532
0.079585
0.014094
0.041584
0.019135
0.069099
0.015526
-0.057820
-0.007546
0.009183
0.005736
0.047483
0.063855
-0.019024
0.009368
-0.073693
-0.004687
-0.018541
0.024978
-0.039524
0.016701
0.072246
-0.027415
0.012719
0.003163
0.015306
0.074856
0.047256
0.020122
-0.029652
0.076730
0.005361
0.048598
0.085324
0.066324
0.034440
0.208769
0.042767
0.064024
0.116728
0.065496
0.118331
0.072136
0.142797
0.135856
0.187641
0.135144
0.202594
0.127478
0.116984
0.097750
0.098732
0.094994
0.095848
0.115752
0.048667
0.089552
0.052090
-0.005231
0.066003
-0.046374
0.064191
0.058843
-0.032932
-0.064485
-0.000406
-0.031614
-0.051440
0.071550
-0.084407
-0.075684
-0.054970
0.007228
-0.010261
-0.107045
-0.083911
-0.005140
-0.052958
-0.076805
-0.017784
0.027893
-0.057791
-0.117149
-0.087884
-0.068044
-0.059628
-0.091143
-0.034262
-0.042274
-0.104984
-0.187500
-0.126257
0.016140
0.303602
0.595834
0.858002
1.095780
1.263712
1.270683
1.129545
0.822205
0.554107
0.206039
-0.069162
-0.207462
-0.283854
-0.389369
-0.349715
-0.271753
-0.165991
-0.145178
-0.115092
0.016150
-0.054806
-0.063115
-0.013521
-0.043639
-0.064299
-0.035987
-0.053832
-0.085322
-0.030357
-0.046699
-0.044295
-0.043940
-0.087795
-0.037777
-0.082358
-0.058758
-0.078243
-0.009204
-0.019591
-0.082629
-0.006846
-0.017703
-0.035658
0.096133
0.061346
0.020659
0.128694
0.011178
0.058103
0.036615
0.116562
0.060859
0.136559
0.204207
0.182769
0.246301
0.184094
0.268279
0.253171
0.219799
0.274369
0.279585
0.382814
0.339298
0.342404
0.449595
0.272005
0.416219
0.396334
0.333774
0.385444
0.447490
0.386386
0.375625
0.358871
0.387961
0.361337
0.374463
0.389257
0.242591
0.237534
0.296299
0.320862
0.244308
0.286610
0.212065
0.150156
0.222326
0.156318
0.147937
0.173261
0.065638
0.064746
0.078152
0.010149
0.006240
0.005667
-0.016350
0.025518
-0.038999
-0.044383
-0.002769
-0.060050
0.026121
-0.081586
0.006222
-0.005654
-0.095496
-0.060649
-0.095020
-0.084650
-0.097809
-0.077191
-0.129713
-0.035770
-0.021531
-0.042482
-0.165880
-0.113321
-0.032721
-0.015795
-0.064208
-0.113102
-0.060657
-0.095889
-0.081846
-0.064006
-0.065603
-0.115472
-0.082840
-0.050934
-0.144113
-0.122418
-0.099926
-0.083612
-0.095049
-0.135611
-0.111566
-0.154664
-0.083377
-0.131578
-0.083163
-0.110184
-0.099845
-0.155957
-0.103169
-0.150204
-0.082340
-0.109591
-0.092435
-0.150121
-0.103930
-0.119751
0.002297
-0.060667
-0.098519
0.013681
-0.015889
-0.062528
-0.068762
-0.132594
-0.042172
-0.134573
-0.088595
-0.165908
-0.097481
-0.115126
-0.154135
-0.064369
-0.095624
-0.075137
-0.040369
-0.114526
-0.063308
-0.158698
-0.099485
-0.121518
-0.149381
-0.061940
-0.048722
-0.097512
-0.091526
-0.032513
-0.121483
-0.138821
0.004582
-0.098117
-0.112758
-0.095057
-0.041189
-0.073096
-0.048478
-0.113114
0.004069
-0.054497
-0.115818
-0.105399
-0.123141
0.005754
0.027127
-0.024123
-0.015653
0.030825
-0.020118
0.010929
-0.002166
0.096370
0.018240
0.109372
0.038820
0.091261
0.105545
0.084127
-0.013315
0.073180
0.106410
0.049433
0.049618
0.126330
0.150439
0.012253
0.064856
0.061514
0.064035
0.088636
-0.028986
-0.027599
0.000904
0.011362
-0.056780
0.060523
-0.128262
-0.100972
-0.007448
-0.054001
-0.036796
-0.017533
-0.047441
-0.000915
0.001236
-0.049091
-0.009971
-0.052590
-0.036449
-0.083386
-0.075631
-0.036695
-0.068097
-0.125464
-0.064150
-0.049106
-0.024076
-0.092905
-0.039844
-0.064438
-0.079706
-0.043871
-0.123532
-0.152470
-0.150590
-0.157626
-0.157947
0.012920
0.189237
0.421394
0.772692
1.080687
1.303494
1.231718
1.160771
0.949612
0.609069
0.264240
-0.040633
-0.214979
-0.302837
-0.274048
-0.321448
-0.240863
-0.195511
-0.139464
-0.057325
-0.030664
-0.055615
0.060532
-0.065492
-0.052579
-0.050089
-0.027762
0.005251
-0.083028
-0.005402
-0.053303
0.046405
0.077267
0.035263
-0.049204
-0.006189
0.018555
0.038490
-0.010579
-0.015856
-0.012066
0.076314
-0.014423
0.078337
0.013101
0.110842
0.129605
0.147322
0.073318
0.113351
0.110203
0.154875
0.161924
0.199131
0.275192
0.278699
0.335407
0.295336
0.262328
0.335090
0.382474
0.239378
0.365035
0.397584
0.469253
0.360500
0.474599
0.406788
0.378130
0.396704
0.414051
0.500666
0.394607
0.449896
0.526403
0.439284
0.389441
0.413412
0.426101
0.383607
0.444384
0.344797
0.435422
0.292031
0.368302
0.323563
0.287685
0.249444
0.232588
0.265186
0.293081
0.174872
0.164109
0.141027
0.083512
0.130579
0.144078
0.103010
0.036070
0.157144
0.082736
0.043502
0.036371
0.083562
0.032552
0.114087
0.002218
0.061017
0.051351
0.038547
0.064318
0.109674
0.025642
0.044224
0.023246
0.056133
0.060689
-0.039290
0.035932
-0.035727
-0.012952
0.084657
0.030439
0.055097
-0.015167
0.063738
-0.009549
0.074198
0.019294
0.085349
0.020619
0.056838
0.069567
0.051991
0.050521
0.033322
0.089988
0.043342
-0.006532
0.032220
0.049686
0.065088
0.089018
0.072667
0.027341
-0.012179
0.110252
-0.027472
0.041894
0.038496
0.008212
0.010361
0.038920
-0.031261
0.028480
0.026887
0.048565
0.051710
0.075921
0.060899
0.045415
0.024589
0.091593
0.149615
0.052611
0.041903
0.037979
0.015756
0.087571
0.070166
0.051100
0.050291
0.064533
0.131985
0.008895
0.079694
0.031755
0.092071
0.104412
0.107888
0.019032
0.041323
0.080476
0.090410
0.058183
0.101045
0.105660
0.082695
0.050678
0.046214
-0.022199
0.032794
-0.019894
0.021058
0.070945
0.086158
0.059422
0.095904
0.019028
0.056939
0.031877
0.111885
0.181552
0.116898
0.125373
0.207068
0.147851
0.159387
0.170867
0.097213
0.193063
0.210480
0.182528
0.181176
0.250648
0.207494
0.210315
0.183588
0.170828
0.276723
0.240405
0.209450
0.171628
0.181095
0.174862
0.121920
0.144537
0.122562
0.144795
0.074937
0.127359
0.113860
0.117655
0.082475
0.070403
0.058999
0.011985
-0.044797
0.125484
0.035077
0.048061
0.016835
0.063067
0.124804
0.030571
0.031578
0.019865
0.156995
0.028498
0.045903
0.045196
0.110657
0.041278
0.061488
0.032563
0.075859
0.088576
0.088577
0.086348
0.126532
0.005700
0.024319
-0.050272
0.049427
0.250182
0.534108
0.884705
1.136618
1.435502
1.451569
1.255520
1.049533
0.741401
0.483939
0.211598
-0.101211
-0.195042
-0.293393
-0.224478
-0.141905
-0.119965
0.018230
0.067679
0.061459
0.041304
0.022028
0.110700
0.002140
0.053773
0.139021
0.043884
0.097471
0.069097
0.172289
0.072817
