0.017860
0.200462
0.133268
0.095727
-0.203384
-0.247650
-0.315666
0.393714
-0.564914
-0.309282
-0.477408
0.039076
0.060950
-0.087595
0.303027
-0.315349
-0.141403
-0.554426
-0.402015
0.117582
-0.136586
0.563380
0.004894
0.223636
-0.010795
0.425355
-0.798637
-0.194526
-0.118548
-0.274832
-0.527617
0.628456
0.527792
-0.442542
0.061526
0.352250
0.318782
-0.280556
-0.055919
0.529374
-0.214883
0.501012
-0.009306
0.176650
0.167455
-0.328655
0.315678
0.087175
-0.259629
0.474200
0.651651
0.495029
0.251085
0.108533
-0.257245
0.787898
-0.391760
-0.171546
-0.185454
0.021048
-0.357854
-0.053522
0.595428
0.536742
-0.235370
-0.191573
-0.456481
0.081850
0.242577
0.159431
0.134270
0.412117
0.847844
0.120279
0.643227
0.175869
0.198523
-0.212189
-0.153374
0.488723
0.209426
0.005902
-0.247281
-0.134072
-0.236840
-0.105905
0.479244
0.337789
0.474734
1.062817
1.312406
0.805447
0.470665
-0.685587
-0.486378
0.136791
-0.022526
-0.143186
-0.721831
0.119249
-0.136880
-0.906186
-0.259857
0.008443
-0.385819
-0.358604
0.362795
-0.301200
0.489102
-0.833895
0.104821
0.693761
-0.083042
-0.120115
0.243121
0.038482
-0.207831
-0.415695
-0.354454
-0.338665
-0.098892
-0.295652
-0.467077
-0.226553
0.454957
0.277373
0.117209
-0.185725
-0.729390
-0.015473
0.500469
0.119558
-0.028370
-0.154191
-0.048561
0.336621
0.455261
0.005945
0.183937
0.249829
-0.416717
0.099726
1.036030
0.455205
0.323273
1.119596
0.720453
-0.346986
0.883183
0.575157
0.302601
1.022666
-0.202826
0.543373
0.474225
-0.140050
-0.085254
-0.184837
1.135599
-0.266166
0.555521
0.623799
0.772828
0.753143
0.114642
1.484591
0.125837
-0.065108
-0.138587
0.189668
0.025693
-0.402063
0.139251
0.454839
0.150451
-0.388323
-0.441012
-0.149805
-0.015550
-0.063191
-0.300332
-0.193324
-0.636874
0.275559
0.012300
0.580344
0.192396
0.467581
0.042568
0.425966
-0.106350
-0.330879
-0.036477
0.347931
0.481185
-0.054136
-0.281832
-0.235184
-0.235225
0.409247
-0.370424
0.723966
0.299540
0.708005
0.792232
0.487106
0.291937
-0.177652
0.377004
-0.205227
-0.409020
0.237700
-0.152443
-0.048433
0.103844
0.212589
-0.016744
0.329412
0.121711
-0.181157
-0.574348
0.434139
0.547475
-0.122525
0.284104
0.034358
-0.327171
-0.142525
-0.274480
0.339942
0.554426
0.762524
-0.210624
-0.501595
0.111848
-0.203606
-0.114376
-0.342085
-0.295113
0.123756
-0.023023
0.540450
-0.001974
0.128293
-0.025153
-0.368808
0.603751
0.465858
0.087584
-0.304419
0.033923
-0.176634
0.007513
0.333465
-0.670767
0.005436
0.346578
-0.400289
0.308142
-0.213778
0.197136
0.744792
0.585010
0.321331
-0.285141
-0.123963
0.463730
-0.067099
-0.547272
1.316519
-0.018304
0.330870
-0.051033
0.184200
0.073961
-0.015050
0.213806
0.305554
0.000439
0.068424
-0.104494
0.788425
-0.046479
-0.185679
0.044132
-0.083229
0.439926
-0.421707
-0.743977
-0.763232
-0.660407
0.623771
0.231921
-0.381769
0.304014
0.233622
-0.038689
0.196328
-0.936926
-0.055695
-0.291990
0.420093
-0.162130
-0.549864
0.519739
0.930689
0.046099
-0.197585
-0.040089
0.470649
0.274461
0.758438
0.838890
0.721870
-0.325753
0.478303
0.341596
0.590220
0.642068
-0.140896
-0.167873
0.148663
0.598693
-0.097708
-0.167620
-0.792020
0.427157
-0.708830
-0.626741
-0.384501
0.854149
0.558986
0.836443
0.276029
0.105566
0.089810
-0.719968
0.198896
-0.088973
0.252633
0.172390
-0.279256
0.516423
0.229111
-0.170549
-0.072569
0.021715
0.122440
0.175300
0.549347
-0.069802
0.687124
-0.117155
0.787309
0.106231
-0.069697
0.089722
0.589829
0.005477
0.346760
0.207385
0.715529
0.529447
-0.179139
0.213449
0.605281
0.962707
0.182872
0.025948
0.148733
0.367853
0.786512
0.643432
0.025021
0.336545
-0.035497
-0.227597
-0.026738
0.031135
-0.712506
0.158846
0.274108
0.543575
-0.251210
0.031153
-0.008731
0.460182
0.691584
0.075824
-0.218416
0.011324
0.247399
-0.099226
0.092022
1.032261
0.020594
0.110307
0.028022
-0.554121
0.406811
0.222447
0.698039
0.232617
-0.066276
0.342786
-0.527022
0.162524
0.004152
-0.095781
-0.324413
-0.179848
-0.737506
-0.295523
-0.076023
-0.080691
0.257748
-0.425888
0.458940
0.412335
-0.975516
-0.019490
0.099573
0.256285
0.086703
-0.031922
0.293978
-0.616721
0.294515
0.080250
-0.094104
-0.819275
-0.124133
0.289580
-0.280380
0.196634
0.772131
-0.096856
0.184310
0.120443
-0.192428
-0.266551
0.385338
0.272432
-0.070831
-0.357998
0.258651
0.265452
-0.270437
-0.318161
0.743963
-0.225721
0.340724
0.806317
0.732714
-0.296099
0.055732
-0.103958
0.297286
-0.141894
0.531991
-0.562402
0.848949
0.227596
0.202838
-0.173940
-0.397765
-0.502878
0.298979
-0.161407
0.163675
0.018267
0.093745
-0.146678
-0.219107
0.152816
-0.239411
-0.403798
-0.427818
-0.226173
-0.059114
1.155450
-0.102207
0.091873
0.361343
-0.465759
0.621666
-0.444330
-0.034402
-0.018398
-0.099962
-0.123045
-0.158106
-0.317712
0.262508
0.154123
0.658744
-0.091685
-0.208300
-0.349214
0.028854
-0.192398
-0.382479
0.015245
-0.537324
0.125604
0.269676
0.011649
-0.198057
0.266226
0.149296
-0.206480
0.569638
-0.414870
0.189205
0.103939
0.246364
0.334956
0.419855
0.389379
-1.012702
0.127200
0.114200
-0.033797
0.575418
-0.310133
0.216038
0.405873
-0.269548
0.745956
-0.253053
-0.332257
-0.986447
1.055470
0.177604
0.166070
0.256033
0.466515
0.946047
0.780610
0.404562
0.577361
0.366772
0.691072
-0.069602
-0.773117
-0.083650
-0.314579
0.820344
-0.823960
-0.594433
0.160505
0.218251
-0.747109
0.153096
-0.677018
-0.998913
0.195940
0.271070
0.225444
0.265653
0.106688
-0.413245
0.464023
0.529760
-0.077612
0.315331
-0.116615
0.228604
-0.199910
-0.150147
-0.385420
0.258915
0.565200
-0.023782
-0.240065
-0.802229
0.229458
0.110120
0.453662
0.198795
0.067683
0.567515
-0.202693
0.035109
-0.116664
-0.779906
0.157809
0.757950
0.001324
0.739695
-0.682407
-0.052508
0.037928
0.418639
0.622817
0.820971
0.051933
0.439410
0.558226
0.175993
-0.083542
0.587043
0.150607
0.556932
0.559726
0.166991
0.853206
-0.288699
0.019649
-0.116826
0.187593
0.634501
0.678038
0.304198
-0.010450
0.076179
0.053482
-0.273866
0.588894
-0.487246
0.052978
-0.206978
0.225621
-0.765645
-0.076429
0.897637
0.508479
-0.042784
-0.077955
-0.305390
-0.085253
-0.097172
0.743035
-0.554349
0.475930
-0.081065
0.789488
-0.278264
0.627113
0.304019
-0.490272
0.019756
-0.047613
-0.369293
-1.136409
-0.174791
0.551123
0.490336
-0.235356
-0.461426
-0.044436
0.190591
-0.024607
0.802708
0.250593
0.120958
0.152829
-1.136135
-0.601441
-0.935896
0.210099
0.588970
0.240992
0.161069
-0.372498
-0.008190
0.641090
-0.363133
-0.284903
0.389588
0.152626
-0.340929
-0.527368
-0.629712
-0.197714
0.345567
-0.235403
0.204768
0.031378
-0.343715
0.023067
0.221667
0.126254
-0.134356
0.001407
-0.396063
-0.408048
0.529787
0.507127
0.585137
-0.062746
-0.001505
0.030820
-0.582269
0.211790
0.563719
0.257264
-0.397681
-0.322238
-0.102597
-0.374423
0.170854
0.091883
0.265089
0.235875
-0.082208
0.326495
-0.289057
0.478730
-0.353463
-0.073876
0.195411
-0.125348
0.286422
0.130474
-0.108161
-0.076588
0.189293
-0.304747
-0.000632
0.439734
-0.123233
0.377410
-0.116534
-0.250621
0.213001
-0.058998
-0.429437
0.194743
-0.585135
0.861992
-0.071657
-0.967250
-0.253076
-0.075229
0.489026
0.108659
0.091144
0.019294
0.243834
0.007716
0.727006
0.209840
0.372987
0.007186
-0.111968
-0.384161
-0.277008
0.911709
-0.497595
0.447707
0.257082
0.297861
0.004811
0.478952
-0.290046
0.402128
0.117814
0.817829
1.160335
1.372698
0.804660
1.301057
1.035614
-0.253501
0.207295
0.157843
0.312826
0.364809
-0.967248
-0.111750
0.042057
0.058249
0.422932
-1.162693
-0.194272
0.001225
-0.269286
0.232960
-0.639248
-0.169570
0.020299
-0.054847
0.456482
-0.027507
-0.230680
0.127400
-0.384093
-0.178067
0.654875
-0.059422
-0.097377
0.392842
-0.180623
-0.662123
0.367452
0.384506
0.230173
-0.263060
0.098519
0.288857
-0.465201
0.519051
0.112244
0.852517
0.312131
0.219355
0.253230
0.372978
0.125613
-0.061311
0.257067
0.010692
0.880396
0.466241
0.222756
-0.572709
1.312708
0.972177
0.447351
0.333422
0.017661
0.382178
0.006831
-0.013153
-0.196666
-0.202028
0.660932
0.131302
-0.177425
0.824191
0.236683
-0.136590
0.747708
0.141618
0.258085
0.133282
-0.143557
-0.250944
-0.456744
0.453251
-0.021353
0.484854
0.850941
0.338990
-0.045478
-0.176234
0.035904
-0.176015
0.056918
-0.465976
0.550763
0.057258
0.469662
0.192437
0.588362
-0.407096
0.015690
-0.748843
-0.055811
0.418304
0.006073
-0.059845
0.221628
-0.439036
-0.331179
-0.685770
0.912947
0.022695
0.072363
-0.453188
-0.008126
0.905719
0.715450
0.189367
-0.241915
-0.289096
-0.144691
-0.043968
0.130054
0.220936
0.769898
-0.215728
-0.358351
-0.197173
0.002724
0.462936
-0.261418
0.602318
0.591839
-0.347275
-0.059706
-0.293573
-0.043980
-0.356268
0.309054
-0.193292
0.199828
0.478839
0.161717
0.345480
0.329965
-0.230668
-0.148719
-0.142314
0.009316
0.248444
0.547611
0.052403
-0.018427
0.420795
0.396286
-0.238497
0.030426
0.058822
0.597120
-0.136267
0.142473
0.067067
0.291856
-0.007271
0.032820
-0.244701
-0.174672
0.476980
0.349487
0.294638
0.290841
0.418744
0.028486
0.297585
0.229226
-0.420651
0.462304
0.053647
-0.541212
0.550512
0.689931
0.556190
0.418475
0.223208
1.466542
-0.110939
0.444615
0.851099
0.522179
-0.108276
0.079196
-0.194196
-0.171210
-0.139577
0.026568
0.386090
0.790865
0.210781
0.303213
0.250387
0.268337
-0.148385
-0.001711
-0.144049
0.337936
0.357014
-0.009302
1.015491
0.273477
-0.385844
0.350761
0.420271
-0.390580
0.484675
0.174519
-0.118833
-0.396417
-0.077870
0.214354
-0.693532
-0.319598
-0.135323
0.995264
0.070168
0.328493
0.585333
0.441221
1.113813
0.477580
1.112146
0.849832
0.418518
0.004705
0.012733
0.142598
-0.153002
-1.163283
-0.294134
-0.326537
0.042511
0.126838
-0.250733
0.601383
0.410512
0.828813
-0.033169
0.098083
0.419689
0.577691
0.277863
-0.247626
0.142528
0.653434
-0.500457
0.829551
0.312151
-0.459411
-0.324450
0.737525
1.130426
0.017109
0.294394
-0.900985
0.155426
-0.222219
-0.210857
-0.043724
0.744991
-0.052537
0.488593
0.186418
0.236743
0.172776
0.589829
0.216190
0.361332
-0.012206
0.098175
0.818417
-0.025886
0.366765
0.392855
0.197450
0.586772
-0.323446
0.635857
-0.411780
0.281695
0.014173
0.508155
0.948402
0.080246
0.517765
-0.263804
0.803271
1.199390
0.207711
-0.110334
0.226481
0.399525
0.491484
-0.639343
0.778406
0.031945
-0.063049
0.105329
0.021580
0.015790
0.711717
-0.626085
-0.142347
0.271995
0.659800
-0.151617
0.491206
0.568428
-0.094045
0.007520
-1.107277
-0.929586
-0.270167
0.029714
-0.293269
0.033388
-0.516893
-0.061159
-0.467926
0.335144
0.163564
-0.081198
-0.435389
-0.061049
0.685960
0.551750
-0.037761
0.451340
0.479763
0.142426
-0.465788
-0.004775
0.839960
0.342821
-0.028379
0.095968
0.003102
0.228276
0.345307
-0.497773
0.029572
0.168992
0.021734
0.325482
0.210803
-0.145495
-0.034313
0.376390
0.324609
0.508426
0.233853
0.218757
0.641462
0.076717
0.156119
-0.144959
0.270293
0.077967
0.096046
0.130621
0.221249
0.071688
0.600305
-0.134336
0.200672
0.042640
-0.483521
0.672464
0.384591
0.444227
0.130398
0.815884
-0.518691
-0.162652
0.062756
0.196723
0.093804
0.130865
-0.447929
-0.153925
-0.673954
-0.188139
0.036690
0.741239
0.291714
0.266021
0.933012
0.324577
0.186423
-0.062262
-0.375037
0.391424
0.218807
-0.198688
1.007318
-0.044409
0.355131
-0.889140
-0.157596
0.080772
0.316959
-0.286727
-0.014121
0.540327
-0.363561
0.145325
-0.474585
-0.237636
0.042826
0.061554
-0.415670
-0.208781
-0.004217
-0.143299
-0.333966
0.151024
-0.271249
-0.405337
0.454471
0.680069
0.401744
0.129562
0.166792
-0.277294
0.621297
-0.010612
0.243431
-0.384030
0.401323
-0.101868
0.012531
-0.200542
0.039454
-0.278112
0.241158
0.031157
0.529905
-0.240345
0.094434
0.453288
0.445033
0.477612
0.943007
0.443093
0.624834
0.748645
1.409176
0.713646
0.591669
0.133931
-0.720438
-0.355445
-0.027006
0.148079
-0.246681
-0.414192
-0.517718
-0.196012
-0.488994
0.006007
-0.422398
-0.394510
0.275006
0.015141
-0.072661
0.082654
0.577462
0.748770
-0.354309
0.608190
0.403174
0.215528
0.218138
0.722079
0.231508
-0.530523
0.711432
-0.084685
0.034291
0.718409
-0.092424
0.089187
0.528002
0.088368
0.287566
0.184003
-0.504518
0.485460
-0.014796
-0.307941
0.311546
-0.087590
0.343842
0.259625
0.045802
0.721328
0.142163
0.379705
0.169570
-0.106002
0.622037
0.240005
0.370080
-0.046143
-0.236570
0.332013
0.742920
-0.406827
-0.402505
0.180362
-0.032975
-0.294191
0.583974
1.029417
0.883626
0.422964
0.111219
0.409394
0.540132
0.076352
0.479943
-0.018480
0.248685
-0.024939
0.472162
0.113042
0.713410
0.586491
-0.180151
-0.362198
-0.207752
-0.129908
-0.137481
-0.648481
0.979883
-0.531022
0.419112
0.189853
-0.097047
0.067525
-0.135217
0.155176
0.667890
-0.011277
-0.678912
-0.198517
0.289442
0.226638
0.084344
-0.376565
0.303238
0.001620
-0.669330
-0.229600
0.741869
-0.160105
0.562874
-0.042236
0.146180
-0.405877
-0.073871
0.308020
0.146859
-0.047264
-0.090010
-0.767559
-0.168331
-0.173234
-0.348878
0.008252
0.925427
-0.407228
0.158527
0.340957
-0.885376
0.835973
-0.061186
0.224138
-0.013471
0.392811
-0.005463
-0.490003
0.420011
0.002489
-0.047797
-0.644430
0.380774
0.204723
0.155635
-0.578295
-0.524317
-0.158750
-0.336982
-0.080788
0.525376
-0.663171
0.242600
-0.356136
0.353400
0.475244
-0.029828
0.289677
-0.541441
-0.347007
-0.980107
-0.822659
-0.704353
0.635096
-0.172688
-0.656393
0.023228
0.324488
-0.712877
-0.662976
0.111542
-0.439792
-0.123504
0.315347
0.937002
0.408255
-0.614923
0.511279
-0.422075
-0.552646
-0.316388
-0.644420
-0.252901
-0.295647
0.328551
0.121084
-0.153516
-0.083244
-0.392072
-0.688784
0.021503
0.580293
-0.435444
-0.216598
0.207337
0.309721
-0.317986
0.773685
-0.616578
-0.342634
-0.044996
-0.770477
-0.268837
-0.328320
-0.061374
-0.340422
0.662367
-0.621104
-0.465754
-0.654955
0.007881
0.003332
0.372299
0.388808
0.165551
0.408121
0.084478
0.350584
-0.150485
-0.008105
0.355184
-0.188877
-0.015364
0.357208
0.657174
1.500000
0.985061
0.465300
-0.472051
-0.413256
0.111835
0.071761
-0.817160
-0.029130
-0.015400
-0.100679
-0.398167
0.166393
-0.255074
-0.701246
-0.071264
0.229625
-0.369057
-0.091560
0.873610
0.218154
-0.153562
0.773715
-0.092825
0.562926
-0.297470
-0.276171
0.926035
0.589163
0.433510
0.334873
0.015631
-0.167795
-0.794602
0.528364
0.064438
0.206227
-0.434947
0.002472
0.519387
1.030816
0.856973
0.073388
-0.265052
0.751598
-0.432192
0.640869
0.818074
-0.093565
0.156612
0.230013
-0.460018
0.029148
0.459694
0.082778
-0.140786
0.219217
-0.099892
-0.403721
0.232618
0.031312
0.366826
0.267687
1.080889
0.198749
0.670870
-0.065188
0.074317
0.569954
0.102625
-0.307278
-0.398734
-0.076681
0.047877
0.156265
0.010723
0.179665
-0.038232
-0.084442
-0.087872
0.749517
-0.169928
-0.490804
-0.596400
-0.552601
1.123283
-0.210632
-0.471238
-0.028550
-0.259240
-0.151549
0.068148
0.496882
0.374161
0.248616
-0.343281
-0.192497
-0.075419
-0.394518
-0.015597
0.676004
-0.290088
-0.467666
-0.034639
0.171654
-0.167743
0.549663
-0.245048
-0.555985
-0.454139
0.133524
0.128232
-0.418230
0.054371
0.331135
0.062713
0.046118
0.135019
0.118856
0.609164
0.129629
-0.341002
-0.627282
0.367080
0.405491
0.654845
0.100922
0.018139
0.041734
-0.219062
0.437525
-0.514884
-0.436847
-0.122212
0.347712
0.424345
-0.235960
0.176972
-0.044894
-0.274088
-0.171632
0.430855
0.330345
-0.070786
-0.130614
-0.716891
0.557596
0.214697
-0.050750
0.332811
0.633978
0.430845
0.274273
0.090959
0.746414
-0.533778
0.475487
-0.494598
0.781736
-0.171128
-0.236271
-0.176599
-0.760269
0.514728
0.246808
0.347599
0.412705
0.667619
0.289543
0.314464
0.102068
-0.047866
0.325417
1.015931
0.444588
0.228666
-0.037544
0.555921
0.803256
-0.142889
-0.020710
0.515864
0.096787
-0.138065
0.384098
0.322872
0.248596
-0.172665
0.458055
-0.126601
0.254460
0.298481
0.430905
-0.028314
0.426175
0.543317
0.260565
-0.617322
-0.371887
0.092722
0.586982
-0.405287
-0.409757
0.011969
-0.211943
-0.142781
-0.072177
-0.285449
0.628293
-0.741071
-0.776479
-0.423031
0.040237
-0.075332
-0.846983
0.794759
0.114962
0.316813
0.465876
0.670688
0.822289
1.421184
0.742841
0.676496
0.415892
0.937032
-0.043208
0.093913
-0.687886
0.369020
-0.181705
0.168466
-0.029342
0.840243
-0.346137
0.057180
0.362851
0.000189
-0.006526
-0.138712
0.356501
0.582350
0.728095
-0.299457
0.458969
0.195586
-0.048920
0.551225
0.459012
0.254448
0.156182
-0.077560
0.775695
-0.146079
-0.493280
-0.269566
0.254717
0.177306
-0.187375
0.512899
0.312867
0.220801
-0.091306
0.138157
-0.098684
-0.034657
-0.061097
-0.620266
0.509289
0.059748
0.517654
0.537883
0.269080
0.461658
-0.019074
-0.192828
0.588582
0.308585
0.031454
0.846994
0.500090
0.364465
0.415117
0.044901
0.517013
0.455808
0.750339
0.758124
-0.130585
-0.298803
0.084805
-0.117020
0.234665
0.054163
0.816089
-0.878165
0.171088
0.376822
0.378668
-0.216499
0.092499
0.318663
-0.393721
0.138781
-0.139535
-0.143580
-0.017017
-0.233890
0.012425
-0.466300
0.187699
0.188713
0.452164
0.052363
0.004443
-0.018306
0.061332
-0.063084
-0.156569
0.141513
-0.104505
0.845648
0.675048
0.043087
-0.195980
0.002574
-0.069709
0.437658
-0.769520
0.348308
-0.352154
-0.511528
-0.257283
0.032340
0.166313
0.844638
-0.119043
-0.086065
-0.441333
0.408266
0.194531
0.138342
0.225641
0.241950
0.179322
0.020340
0.333515
0.343825
-0.432655
0.442092
-0.151400
0.181639
0.451641
0.690443
-0.516990
-0.555664
-0.233700
0.320184
-0.289347
-0.046179
-0.238366
-0.341151
0.451037
-0.148378
-0.279061
0.199493
0.446574
-0.414917
0.024027
0.495345
0.591974
0.334105
0.109882
-0.017078
0.026441
0.164383
0.011788
0.423024
0.520890
-0.017188
-0.233813
-0.232191
0.768289
-0.607437
0.251040
-0.224691
-0.257256
0.184779
0.082292
0.957367
0.116644
0.367017
-0.012255
-0.131275
0.222423
-0.261947
0.225013
0.160536
0.281044
-0.203147
0.386492
0.058524
-0.262590
0.107462
-0.344172
-0.096505
0.340866
-1.151772
0.810474
-0.106307
0.327484
0.062239
0.005230
0.087958
-0.114250
-0.319727
0.041263
-0.305860
0.296662
-0.409201
-0.105231
0.049379
0.709348
0.193116
0.141713
0.147745
0.033832
-0.016587
0.018688
-0.442706
-0.564247
-0.064871
0.363229
-0.509854
-0.074927
-0.151668
-1.149265
0.078034
-0.126340
-0.578346
0.258511
0.182784
0.565507
0.569504
0.957395
0.900367
0.677556
0.531604
0.909261
0.801025
0.623746
-0.334940
-0.158845
-0.441637
-1.009294
-0.024343
-0.573236
0.015249
-0.224027
-0.149006
-0.185556
-0.382673
-0.869708
0.516489
0.593862
-0.360449
-0.647777
0.264456
-0.552078
-0.060368
-0.516689
-0.649783
0.032268
-0.863709
0.369834
-0.457641
-0.386915
-0.239225
0.214348
0.291001
0.187665
-0.282610
0.153686
-0.258166
0.195445
0.079370
0.046442
-0.370694
0.205337
-0.075158
1.074885
0.889493
-0.649554
0.322965
-0.027908
0.310522
0.451897
0.680762
0.682989
0.539336
0.340816
-0.186776
0.517194
0.479819
0.313478
0.729655
0.289422
-0.000174
0.436575
0.196248
-0.269090
-0.282321
0.195829
0.249199
0.160939
0.106677
-0.117388
0.494411
-0.056110
0.166458
0.091469
0.279023
0.426398
-0.318579
0.496030
0.001855
-0.136978
0.021590
-0.235694
0.282507
-0.081926
-0.148564
-0.417874
0.187221
-0.052320
0.217164
0.354466
0.044924
-0.202296
0.100108
-0.140644
-0.254498
0.514926
0.406750
0.148788
0.724495
-0.269394
0.183574
0.058041
-0.070672
0.795789
0.003163
-0.041017
-0.656564
0.637236
0.224612
0.080294
1.150586
-0.220840
-0.721819
0.344677
0.053482
-0.093027
0.164662
0.370041
-0.404165
-0.418645
0.831231
0.110608
0.666081
-0.586352
0.046746
-0.766323
0.782451
-0.501059
-0.153697
0.268796
0.089518
0.002659
0.127284
-0.115339
0.623075
0.168282
-0.208745
-0.838895
-0.937191
-0.419854
0.591511
0.340727
-0.149217
0.015374
0.007996
-0.432181
0.044161
-0.926387
-0.473648
-0.667583
0.066925
-0.220620
-0.495304
0.383090
0.244340
0.397024
-1.179761
-0.768842
-0.389291
0.467801
0.107742
0.077064
-0.315546
-0.323265
-0.014738
-0.162610
-0.873122
-0.261449
-0.376992
0.093040
-0.039669
0.517004
0.348526
0.263838
0.345675
-0.518301
0.452426
0.478704
1.050349
0.646407
-0.070551
0.044082
0.420948
0.455638
0.471918
0.600523
0.176020
0.074768
-0.183732
-0.385547
-0.517660
0.249022
0.148580
0.933031
-0.442011
0.353669
-0.548316
-0.406208
0.081099
-0.227651
-0.004568
0.077103
0.074875
-0.641009
-0.322261
-0.067689
0.621391
-0.027359
0.085055
-0.181263
-0.478047
-0.021690
0.592796
-0.081806
1.013866
-0.146217
-0.180329
0.568719
-0.018834
0.698070
0.438275
0.977248
0.224868
0.560630
0.741774
0.173445
0.307268
0.069720
0.053150
-0.520315
-0.161585
-0.994218
-0.946731
-0.043448
0.038891
-0.402529
-0.026074
0.100719
0.448194
0.004220
0.448364
0.181982
-0.164450
-0.114266
-0.266196
-0.633048
0.116326
0.186023
-0.317665
-0.060225
0.056476
-0.333566
-0.358110
-0.620077
0.172081
-0.049554
-0.369578
0.611201
-0.114600
0.908564
0.499351
-0.049391
-0.114889
0.015951
0.157480
-0.206768
0.072088
0.693424
-0.388396
0.229444
0.203841
0.117013
-0.344218
0.248040
0.095105
1.056135
0.196962
-0.027341
-0.056062
0.419544
0.783239
-0.042629
0.254514
-0.116714
0.627894
0.443741
-0.043559
0.481951
0.495930
-0.399482
-0.101039
-0.072454
0.741490
0.311823
0.440143
-0.221058
-0.192727
0.254214
-0.182278
0.687566
0.247069
0.832560
-0.002231
-0.067295
0.307409
-0.021875
0.306916
0.637894
0.344091
0.543946
0.310625
-0.291716
0.199072
0.397872
0.154455
-0.097875
-0.936183
-0.265403
-0.052588
0.293604
-0.463746
-0.563712
0.807603
0.242745
0.268778
-0.125875
-0.324290
-0.228579
-0.202073
-0.079063
0.351487
0.015332
0.309225
-0.199174
-0.029709
0.324277
0.619371
-0.171056
-0.266522
0.111383
-0.640639
0.018951
-0.619060
-0.082301
0.912075
-0.339587
-0.464790
-0.474161
0.131953
-0.140375
-0.055371
0.723705
-0.458305
0.610816
-0.069215
-0.138977
-0.171572
-0.805218
-0.185251
-0.443171
-0.358242
-0.045298
0.002748
-0.644248
-0.649692
0.680301
-0.019732
0.101290
-0.595299
-0.254177
0.645902
-1.392293
-0.110112
-0.415828
-0.388220
0.342436
-0.462798
-0.236012
0.194361
-0.526925
-0.156876
0.773844
0.107518
-0.353558
0.176321
0.202624
-0.464716
0.285408
-0.069012
-0.089595
-0.657677
-0.037036
0.090619
-0.582544
-0.415106
0.093878
-0.030399
-0.414863
0.062790
0.219218
0.101221
-0.507230
-0.542340
-0.545733
-0.190474
-0.114361
0.518656
-0.220917
0.679813
-0.249196
0.096163
-0.491545
-0.206073
-0.019531
-0.076582
0.090941
-0.195077
0.833743
0.422718
-0.432571
-0.628089
-0.076951
-0.340192
-0.186336
-0.408186
0.603261
-0.031804
0.522584
-0.091352
-0.206527
-0.559122
0.316899
-0.440539
-0.340677
-0.190880
-0.327989
0.049581
-0.122181
0.138615
-0.007178
0.290536
0.355645
-0.749886
1.013843
0.239309
0.429507
0.217733
0.318942
0.594496
0.692023
0.261529
-0.602261
-0.432973
0.518064
0.297376
0.163724
-0.289649
-0.180604
0.002699
0.176299
0.243471
-0.225426
0.010250
0.127468
-0.005803
0.099105
-0.075680
-0.361740
0.156093
-0.622879
0.489932
0.293221
-0.216544
0.164915
0.143070
0.572480
-0.008254
0.344593
0.579891
0.263017
-0.275574
-0.044550
-0.393257
0.263884
-0.475012
0.072182
0.414641
-0.023572
-0.893542
-0.109401
0.744528
-0.340298
0.824429
0.420050
0.828085
0.468165
0.087461
-0.007504
0.573104
0.461367
0.157567
-0.330216
0.270892
0.225128
0.366086
0.262293
0.665739
0.312972
0.136291
0.421230
0.099863
0.288186
0.427377
-0.617497
0.322925
0.263712
0.025908
0.605333
0.094108
0.256243
0.343319
0.269040
-0.424813
0.307615
0.234211
-0.507228
-0.060467
-0.111345
-0.255333
0.554210
-0.498333
0.642852
0.065521
-0.205283
-0.045934
0.063088
-0.421340
-0.310105
0.331205
0.514700
-0.382007
0.027272
0.662108
0.442673
0.263340
0.020535
-0.195827
-0.620850
-0.451229
-0.288466
-0.065963
0.327040
-0.088260
0.018278
-0.290060
-0.025996
0.530907
0.718598
-0.619720
0.139871
-0.767295
-0.564056
-0.655285
-0.414609
-0.222146
-0.378450
-0.128581
-0.583947
0.078492
-0.369522
-0.000216
-0.125824
-0.404194
0.722069
-0.710246
0.156830
-0.318696
-0.046923
-0.520766
0.077725
-0.551328
-0.373411
0.594375
0.466610
0.181775
-0.412633
-0.029342
-0.035779
0.046640
0.238931
0.052076
0.516226
0.026438
0.379978
-0.007588
0.306199
1.431471
0.425354
-0.330062
-0.175429
-0.535926
-0.344882
0.255456
-0.251388
-1.296267
-0.044621
-0.193894
-0.357521
-0.854771
0.000144
0.028781
0.253722
-0.641736
-0.109066
0.049471
0.004121
-0.024301
0.169207
-0.190825
