-0.009114
-0.001912
0.053532
0.063040
0.053975
0.104919
0.017206
0.001020
-0.016343
0.045309
0.050280
0.030514
0.076768
0.017446
0.053613
0.056675
0.088970
0.071460
0.138620
0.139754
0.138083
0.110966
0.087447
0.077456
0.157602
0.154663
0.150069
0.211351
0.192696
0.221083
0.200199
0.225261
0.190879
0.201012
0.196548
0.216571
0.199841
0.238470
0.200154
0.114668
0.089039
0.197945
0.157409
0.143457
0.125567
0.150364
0.086629
0.161925
0.087621
0.012029
0.012827
0.048680
0.124441
0.124996
0.059681
0.124486
0.094405
0.232528
0.190766
0.466498
0.659920
0.934234
1.300438
1.372058
1.395846
1.094080
0.750532
0.420615
0.138050
0.076644
-0.115472
-0.007815
0.052055
0.025025
0.133003
0.107952
0.072268
0.203054
0.213236
0.240688
0.242878
0.257482
0.263212
0.291766
0.284102
0.349557
0.394655
0.352392
0.346688
0.380343
0.367437
0.500536
0.377709
0.482924
0.532171
0.550294
0.599314
0.617160
0.600519
0.596450
0.589213
0.654968
0.507677
0.601780
0.573123
0.593552
0.555977
0.550118
0.611469
0.547519
0.601564
0.578476
0.416007
0.451695
0.495486
0.519813
0.528741
0.340092
0.420453
0.330272
0.329918
0.362738
0.263230
0.229659
0.287601
0.255545
0.254518
0.287301
0.230818
0.214590
0.207475
0.139137
0.115122
0.067724
0.111110
0.149741
0.065352
0.136369
0.124971
0.043218
0.111891
0.095682
0.108635
0.084935
0.120388
0.168466
0.071101
0.132688
0.123892
0.067027
0.137626
0.092537
0.121870
0.025486
0.030680
0.039866
0.085497
0.097059
0.136359
0.153986
0.089670
0.151424
0.144055
0.130718
0.102119
0.144433
0.040357
0.179729
0.078787
0.147643
0.114240
0.218103
0.097329
0.173672
0.124086
0.171180
0.191076
0.250035
0.141648
0.228605
0.197129
0.272444
0.247686
0.195068
0.329232
0.321928
0.249379
0.327944
0.327090
0.286286
0.288510
0.276888
0.255710
0.244950
0.222171
0.175638
0.237212
0.236508
0.179786
0.234801
0.194840
0.142528
0.200018
0.121537
0.129958
0.215830
0.013218
0.068868
0.126420
0.129556
0.090371
0.250947
0.080734
0.066953
0.161928
0.118727
0.291859
0.408456
0.774291
1.061577
1.292076
1.488506
1.355026
1.097411
0.713110
0.391791
0.125722
-0.064141
0.071520
0.007001
0.098338
0.151216
0.213337
0.200690
0.218561
0.185599
0.200764
0.249278
0.255541
0.293323
0.291727
0.335394
0.351218
0.386993
0.384633
0.495346
0.480899
0.319352
0.428830
0.540384
0.467457
0.565650
0.516087
0.603432
0.590636
0.596281
0.664867
0.555806
0.667814
0.682210
0.593978
0.608310
0.683266
0.687602
0.635708
0.564481
0.492539
0.601279
0.586618
0.499897
0.561740
0.397159
0.472272
0.473288
0.463345
0.434404
0.383410
0.369728
0.340251
0.338859
0.268121
0.251237
0.282522
0.224103
0.231535
0.143642
0.171152
0.098709
0.181644
0.120432
0.170744
0.073012
0.166888
0.111485
0.133274
0.144621
-0.014895
0.083304
0.060620
0.143434
0.031345
0.095622
0.028575
0.085171
0.073912
0.127062
0.085351
0.101029
0.126681
0.078547
0.084034
0.005752
0.026886
0.083241
0.089595
0.069848
0.048358
-0.010122
0.125463
0.057633
0.048891
0.060946
0.080343
0.020302
0.104037
0.114102
0.072090
0.043380
0.034086
0.059646
0.194550
0.067541
0.147521
0.153038
0.124927
0.073451
0.061438
0.120179
0.214528
0.177134
0.227067
0.197165
0.228881
0.206466
0.205123
0.226018
0.209993
0.227631
0.238453
0.282907
0.317733
0.056190
0.218681
0.249069
0.192927
0.196190
0.107997
0.058636
0.187367
0.136521
0.228516
0.075810
0.100892
0.054543
0.086721
0.067825
0.044928
-0.009742
0.080651
0.118746
0.008843
0.090845
0.046092
0.132358
0.224490
0.427227
0.712165
1.105289
1.339497
1.341692
1.366782
1.022186
0.597532
0.243257
0.100938
-0.050788
-0.085553
-0.046224
-0.028217
0.066664
0.045822
0.076559
0.090760
0.110906
0.214237
0.112641
0.221722
0.137259
0.278445
0.212294
0.270760
0.299425
0.352127
0.244350
0.320863
0.462746
0.361685
0.409199
0.477179
0.428992
0.504733
0.510553
0.505245
0.515125
0.529331
0.574877
0.551034
0.480018
0.542968
0.470017
0.516994
0.544608
0.456424
0.493840
0.569981
0.504148
0.458004
0.470359
0.346673
0.403974
0.438990
0.371812
0.314478
0.305909
0.281363
0.306609
0.240691
0.223854
0.215703
0.265467
0.162422
0.197607
0.079095
0.143765
0.110615
0.049875
0.094591
0.077854
0.096525
0.010830
0.170626
0.100807
-0.005628
0.056299
0.005607
0.092630
0.039690
-0.038136
-0.065309
-0.018030
-0.004086
-0.024008
0.055060
-0.117021
-0.022386
-0.036159
0.030185
-0.065270
0.000861
-0.071818
-0.032061
-0.001575
-0.038145
-0.050223
0.004714
-0.052570
-0.016105
0.034691
0.013073
0.099950
-0.043610
0.003252
0.003626
-0.020019
-0.001906
-0.050511
-0.016532
0.041370
0.023215
0.083379
0.011246
0.016294
-0.031726
0.102623
0.020890
0.099152
0.094929
0.127486
0.101242
0.183685
0.019358
0.187323
0.064094
0.161322
0.049465
0.174556
0.098152
0.157888
0.098237
0.062442
0.157125
0.150653
0.074946
0.039073
0.024816
0.096510
0.130971
0.077681
0.024682
0.049906
0.039600
0.025073
-0.040692
0.019882
0.003225
-0.011986
-0.059363
0.010108
-0.000879
-0.016821
-0.022582
0.072949
0.277797
0.429816
0.741950
1.005443
1.214062
1.330771
1.261392
0.900130
0.602957
0.168241
-0.043479
-0.142554
-0.170571
-0.128619
-0.015820
-0.036792
-0.003311
0.052641
0.081814
0.109453
0.146874
0.072388
0.146182
0.215772
0.127450
0.196940
0.125580
0.167715
0.240223
0.250782
0.288803
0.191202
0.283854
0.371789
0.371535
0.403056
0.374329
0.463725
0.490205
0.509696
0.455265
0.509104
0.358321
0.421812
0.456312
0.595215
0.555040
0.522904
0.406669
0.455525
0.415606
0.478607
0.421053
0.342633
0.424070
0.355769
0.376520
0.295465
0.348119
0.281860
0.228996
0.229981
0.231715
0.153803
0.220034
0.162173
0.140549
0.091163
0.113010
0.033712
0.081300
0.064609
0.019837
0.070564
0.017587
0.011580
-0.039133
-0.008292
-0.076575
-0.037301
0.030133
-0.003364
0.026903
0.008562
0.032678
-0.069895
-0.055468
-0.035861
-0.011881
-0.037358
-0.059275
0.018217
-0.102847
-0.115177
-0.091179
-0.098504
-0.095275
-0.024395
-0.045094
-0.025143
0.004780
-0.014082
-0.017330
-0.033857
-0.005462
0.000923
-0.007235
0.042704
0.029717
-0.037374
0.015873
0.000433
-0.002615
-0.058608
-0.059171
-0.000781
0.045360
-0.033127
-0.004506
0.062717
0.119000
0.151618
0.124010
0.135446
0.106224
0.173223
0.214402
0.130504
0.115503
0.019175
0.133506
0.141281
0.214388
0.156620
0.168690
0.139652
0.130637
0.117898
0.113347
0.191000
0.096486
0.091603
0.058012
0.034352
-0.017090
-0.028869
0.106885
0.112340
0.025737
0.020327
-0.018321
0.003292
0.061484
-0.019365
-0.023747
0.006404
0.021008
0.092181
0.238847
0.468037
0.865440
1.112309
1.320082
1.382822
1.250990
0.909480
0.572435
0.246970
0.010169
-0.231990
-0.094433
-0.051975
-0.025803
-0.028390
0.098545
0.118972
0.074958
0.173490
0.217082
0.172078
0.115105
0.162305
0.226788
0.225191
0.232830
0.237497
0.266344
0.287058
0.331181
0.387362
0.362646
0.463404
0.416485
0.487759
0.469739
0.371817
0.493403
0.542430
0.514929
0.490125
0.635663
0.591326
0.567193
0.548774
0.553056
0.553523
0.497589
0.500748
0.501551
0.456832
0.466557
0.436846
0.408217
0.485840
0.411091
0.361427
0.359788
0.343072
0.386938
0.350506
0.313916
0.278283
0.187019
0.258941
0.205498
0.272516
0.204127
0.137255
0.222647
0.152175
0.124955
0.108554
0.017761
0.108897
0.094215
0.050353
0.018449
0.080727
0.060769
0.103010
0.075753
0.043231
0.000345
0.053898
0.050870
0.012727
0.063555
0.035246
-0.002777
0.090306
0.029955
0.080486
0.114347
0.047983
0.017462
0.033983
0.074331
0.010937
0.053115
0.063313
0.094740
0.024710
0.089782
0.086206
0.065233
0.051076
0.096685
0.045933
0.095983
0.108523
0.027298
0.143150
0.106862
0.056954
0.100099
0.072827
0.195825
0.114250
0.131355
0.147975
0.127760
0.154474
0.262744
0.174227
0.209049
0.292032
0.290778
0.327520
0.282094
0.195153
0.296283
0.261463
0.237354
0.270207
0.226669
0.181019
0.189991
0.168669
0.196733
0.102640
0.207317
0.253362
0.104160
0.164660
0.139359
0.111224
0.078680
0.171376
0.155701
0.120738
0.110424
0.128668
0.077660
-0.001647
0.130005
0.271964
0.403028
0.703621
0.835707
1.231820
1.500000
1.452084
1.349402
0.954554
0.673767
0.232759
0.049353
0.005236
0.047361
0.032581
0.134801
0.123234
0.111082
0.117117
0.189621
0.231641
0.293806
0.293514
0.215005
0.270188
0.343490
0.348128
0.357145
0.418780
0.348741
0.414374
0.425599
0.403866
0.492295
0.430710
0.519170
0.508358
0.497865
0.599740
0.495865
0.491981
0.592684
0.596633
0.605068
0.597657
0.590478
0.617877
0.566651
0.622527
0.587920
0.580916
0.590164
0.629050
0.582666
0.610938
0.560410
0.573617
0.423867
0.519779
0.425476
0.426372
0.411833
0.415559
0.359854
0.392770
0.465604
0.266678
0.153886
0.258978
0.260684
0.202615
0.209085
0.206394
0.199288
0.217376
0.213654
0.151793
0.242007
0.223247
0.109440
0.188883
0.208717
0.099770
0.106783
0.159963
0.098342
0.103129
0.048503
0.093443
0.156463
0.126108
0.025368
0.097807
0.089575
0.112713
0.056067
0.046975
0.121320
0.184103
0.114267
0.089874
0.125847
0.115355
0.134207
0.145679
0.096348
0.014145
0.164991
0.166383
0.113735
0.092370
0.105724
0.175881
0.131067
0.132746
0.180176
0.122094
0.190218
0.171148
0.140831
0.122209
0.187399
0.311476
0.349367
0.189835
0.270932
0.230735
0.225525
0.234707
0.214125
0.267503
0.275657
0.220612
0.245570
0.201502
0.257476
0.308306
0.097039
0.265522
0.288748
0.248060
0.167494
0.170976
0.237942
0.154197
0.157944
0.146234
0.070439
0.133627
0.164982
0.095251
-0.032425
0.116611
0.073729
0.134361
0.077396
0.131159
0.209708
0.276771
0.389272
0.622101
0.940455
1.281781
1.458706
1.376330
1.241008
0.834132
0.591155
0.264246
0.053590
-0.012081
0.015591
0.131010
0.092267
0.071782
0.169026
0.198622
0.228153
0.216766
0.187705
0.243732
0.179548
0.222200
0.285188
0.257322
0.343616
0.371965
0.419923
0.338858
0.382711
0.410904
0.472855
0.498549
0.450636
0.518133
0.529475
0.585975
0.525921
0.607289
0.662821
0.653972
0.542750
0.615923
0.556015
0.647983
0.512249
0.589464
0.590865
0.616610
0.597827
0.499488
0.536082
0.472034
0.497807
0.498490
0.480467
0.417010
0.352325
0.327932
0.324962
0.274222
0.319375
0.338391
0.318955
0.272056
0.255426
0.216062
0.183463
0.191725
0.185359
0.164177
0.229503
0.081394
0.124321
0.151907
0.111316
0.103853
0.093427
0.031053
0.055308
0.010048
0.059387
0.023464
0.103507
0.044818
0.124857
0.112001
0.086638
-0.013980
0.028453
0.059791
0.075910
0.011325
0.111136
0.002807
0.111276
-0.022399
-0.034854
0.032725
0.034558
0.031818
0.040777
0.029881
0.095185
-0.013329
0.083293
-0.009148
0.084508
0.068219
0.066963
0.022537
0.086647
0.137037
0.045579
0.070327
0.055120
-0.003643
0.031674
0.150624
0.113163
0.181872
0.115532
0.135705
0.148528
0.167310
0.119200
0.234098
0.250483
0.168777
0.081069
0.206153
0.166810
0.225669
0.242713
0.156811
0.180047
0.137333
0.165744
0.103531
0.068770
0.046685
0.062819
0.036288
0.072662
0.127930
-0.015434
0.029151
0.049607
-0.006746
0.075846
-0.027364
0.060071
0.027052
0.024945
-0.034020
0.018644
0.143079
0.294213
0.557883
0.884732
1.192796
1.328270
1.288824
1.134003
0.802229
0.389159
0.105229
-0.053087
-0.098728
-0.150314
-0.023059
0.086191
0.042017
0.054870
0.042175
0.122487
0.238614
0.089898
0.093465
0.194297
0.121604
0.201001
0.238636
0.243402
0.284836
0.282600
0.230904
0.364118
0.199188
0.407468
0.436159
0.399399
0.368993
0.387469
0.448386
0.513666
0.507649
0.427636
0.513586
0.511497
0.470111
0.522654
0.484603
0.505036
0.516426
0.501467
0.501396
0.410485
0.460603
0.398032
0.405944
0.401571
0.339447
0.314758
0.209655
0.213564
0.315717
0.284363
0.192204
0.152225
0.195388
0.289962
0.145111
0.165598
0.105806
0.132813
0.018327
0.134585
0.030464
0.050628
0.059950
-0.065577
0.065863
-0.004684
-0.049470
0.066584
0.031636
-0.084107
-0.037839
-0.017657
-0.086786
-0.079727
0.066057
-0.061416
0.013219
-0.070664
0.010242
-0.024576
-0.064680
-0.078971
-0.063092
-0.069040
-0.116926
-0.098335
-0.054449
-0.040142
-0.027818
0.037285
-0.089292
-0.080111
-0.016125
-0.025298
-0.029164
-0.083379
-0.095658
-0.122555
-0.077453
-0.024736
0.028442
-0.037874
-0.031300
0.009059
-0.009837
-0.095544
0.010568
0.008467
0.031397
0.001197
0.019688
0.022877
0.051245
0.085792
0.077295
0.135337
0.094061
0.051554
0.077414
0.122828
0.084474
0.153266
0.147053
0.140408
0.158104
0.041315
0.061998
0.053295
0.091992
0.111865
0.045673
0.030294
0.005683
-0.019753
0.042680
-0.084981
-0.021318
0.030472
-0.041780
0.000329
-0.057165
-0.077365
-0.033971
-0.089498
-0.055493
-0.021500
0.107418
0.179234
0.578139
0.815434
1.064468
1.323910
1.257822
1.041137
0.774028
0.308069
0.064683
-0.108521
-0.197699
-0.106524
-0.095402
-0.105803
0.019670
-0.068632
0.027907
-0.011577
0.099401
0.035051
0.076783
0.127134
0.108303
0.207639
0.138223
0.111881
0.125957
0.197479
0.323174
0.223962
0.328663
0.331149
0.275682
0.386052
0.367186
0.412041
0.328072
0.500291
0.361106
0.493687
0.502971
0.392009
0.477532
0.479245
0.432036
0.534818
0.455251
0.433363
0.420124
0.415334
0.313189
0.363202
0.376198
0.366620
0.358853
0.258783
0.331356
0.241033
0.274077
0.225192
0.219165
0.132684
0.220436
0.111433
0.049061
0.103858
0.122687
0.030915
0.070667
-0.004361
0.022106
-0.057544
-0.010084
0.030066
0.012230
-0.006259
-0.030776
-0.007583
-0.029571
-0.057741
-0.030539
-0.130414
-0.050775
-0.054819
-0.083902
-0.045550
-0.038654
-0.049658
-0.124431
-0.044195
-0.056367
-0.088160
0.048498
-0.094247
0.061859
-0.056609
-0.017966
-0.108491
-0.075870
-0.069994
-0.095427
0.048327
-0.029129
-0.097879
-0.016160
-0.204084
-0.085355
-0.078171
-0.086411
-0.011729
0.023731
-0.019881
-0.031193
-0.107963
0.068699
-0.067619
0.099768
0.085844
-0.016796
0.120641
0.052548
0.052020
0.065223
0.056746
0.079195
0.122537
0.107960
0.121054
0.186733
0.163881
0.130061
0.189767
0.159494
0.170911
0.126965
0.148742
0.054237
0.103617
0.140301
0.125374
0.114645
-0.009612
-0.014123
0.052415
0.013945
0.001645
0.025969
0.017205
0.010594
0.038599
-0.063655
0.039701
-0.026199
0.037054
0.013387
-0.012356
0.134188
0.393523
0.519402
0.938446
1.194476
1.360995
1.319587
1.095447
0.711282
0.284526
0.026761
-0.072339
-0.115571
-0.061969
-0.070006
-0.038006
0.031046
0.109712
0.081175
0.048186
0.133553
0.100670
0.156832
0.137028
0.229155
0.227062
0.260478
0.188286
0.244249
0.354089
0.234097
0.380762
0.373299
0.301346
0.321714
0.450635
0.381645
0.440325
0.411191
0.409728
0.505339
0.485276
0.466201
0.608513
0.491722
0.431345
0.489245
0.552553
0.487162
0.492693
0.522612
0.541883
0.463622
0.429849
0.426473
0.408215
0.496877
0.386120
0.309219
0.192925
0.366097
0.286402
0.235195
0.241131
0.199615
0.197945
0.223912
0.286975
0.214754
0.108810
0.129428
0.081902
0.086506
0.038609
0.046892
0.075568
0.048540
0.019061
-0.017948
0.034322
0.007960
0.080715
-0.060056
-0.037315
-0.047278
0.030436
0.102255
0.061937
-0.000464
0.108186
0.043872
0.067647
0.027762
-0.007760
-0.042700
-0.048254
0.049428
-0.048464
0.052395
0.084845
0.026958
0.005270
0.059015
0.002766
0.008794
0.089996
0.063234
0.063947
0.045798
0.041451
0.060076
-0.040420
0.085901
0.047765
0.052238
0.060383
0.055899
0.081860
0.176380
-0.000668
0.109861
0.195322
0.145244
0.118220
0.107343
0.203805
0.123528
0.162359
0.215978
0.210197
0.206964
0.178220
0.188983
0.261136
0.275067
0.267000
0.127282
0.185220
0.124878
0.153273
0.141901
0.162196
0.259222
0.135534
0.086184
0.129705
0.161220
0.091696
0.121836
0.077458
0.081329
0.106544
0.042710
0.036882
0.141279
0.058861
0.072669
0.147558
0.255970
0.480625
0.654696
0.994516
1.370986
1.430022
1.349928
1.140148
0.748703
0.320156
0.140761
-0.032042
-0.134862
-0.027778
-0.035407
0.109523
0.152859
0.084234
0.178161
0.244236
0.191937
0.213614
0.229329
0.181837
0.238567
0.213883
0.340050
0.299345
0.314477
0.354339
0.400753
0.421566
0.494260
0.426944
0.434594
0.479489
0.566651
0.416297
0.508561
0.549781
0.546359
0.571540
0.501544
0.551347
0.548294
0.618925
0.581705
0.631338
0.526341
0.573578
0.601743
0.532780
0.454880
0.519514
0.586599
0.398780
0.431217
0.363205
0.416282
0.327843
0.379026
0.365614
0.362864
0.299371
0.236808
0.261704
0.272380
0.243793
0.224648
0.097499
0.184503
0.144119
0.121615
0.126992
0.181801
0.100884
0.076655
0.083098
0.179344
0.078832
0.098568
-0.115773
0.068043
0.015130
0.129266
0.107191
0.135891
0.077101
0.028571
0.032540
0.020533
0.075033
0.100878
0.043065
0.059016
0.055800
0.045957
-0.009038
0.030588
0.014527
0.061772
0.085688
0.037888
0.078908
-0.010666
-0.029342
0.000322
0.145950
0.089968
0.108801
0.034915
0.106592
0.060460
0.015045
-0.022847
0.052141
0.093907
0.038307
0.169613
0.200617
0.176183
0.113354
0.115703
0.194602
0.184102
0.181922
0.209721
0.201324
0.178508
0.223511
0.239866
0.176011
0.224570
0.161541
0.141793
0.173817
0.104180
0.227679
0.219591
0.108351
0.048644
0.097689
0.111764
0.126153
0.066749
0.135889
0.088734
0.149113
0.116482
0.105993
0.117540
0.068644
0.061226
0.012713
0.118468
0.043797
0.085473
0.189541
0.267593
0.465224
0.743675
1.097881
1.222806
1.433930
1.337246
1.035338
0.725451
0.338231
0.155629
-0.091007
-0.133974
0.020988
-0.033715
0.031010
0.152785
0.161469
0.116692
0.156180
0.209065
0.115523
0.204318
0.197841
0.176273
0.256736
0.231282
0.253781
0.231737
0.311781
0.366178
0.401084
0.441637
0.398411
0.393754
0.435410
0.544306
0.462887
0.522687
0.493493
0.474721
0.595482
0.585378
0.530350
0.695232
0.552862
0.526946
0.629215
0.512852
0.509940
0.521991
0.480177
0.521646
0.419182
0.414195
0.406774
0.341131
0.421818
0.351783
0.370539
0.253290
0.285027
0.252058
0.250898
0.276077
0.257222
0.137661
0.088198
0.105851
0.045898
0.141345
0.052361
0.088425
0.039381
0.070122
-0.012554
0.080442
0.071916
0.053336
-0.027691
-0.013994
-0.041695
0.088091
-0.024114
-0.043260
-0.013037
0.008425
0.017478
0.038234
0.052828
-0.048311
0.003550
0.013586
-0.054579
-0.022091
-0.082828
-0.034370
-0.077718
0.002215
-0.014520
-0.004396
-0.031190
-0.050011
0.029083
-0.008526
0.037910
0.019101
-0.047592
-0.061349
0.064280
0.003989
-0.021421
-0.055646
-0.039864
-0.008940
0.027393
0.031684
-0.000305
0.065197
0.024409
0.011810
0.085938
0.071333
0.153586
0.102286
0.093459
0.122884
0.124014
0.163977
0.120017
0.002849
0.186815
0.127399
0.166249
0.158481
0.154087
0.137322
0.189631
0.181250
0.114972
0.122522
0.036437
0.122474
0.064333
0.094523
-0.027299
-0.028286
0.063188
-0.018855
0.004707
-0.043556
-0.008324
-0.063274
-0.074618
-0.014931
0.039231
-0.005582
0.003380
0.099086
0.410554
0.667858
0.920649
1.242330
1.303810
1.130090
0.898869
0.478780
0.119841
0.033555
-0.177101
-0.149504
-0.172172
-0.112913
-0.005515
0.080984
0.025083
0.108276
0.031418
0.043304
0.164482
0.061365
0.179919
0.120542
0.157402
0.141779
0.138577
0.236933
0.219689
0.291591
0.223303
0.293517
0.347431
0.302579
0.355505
0.419817
0.396427
0.400630
0.430938
0.456067
0.465340
0.464472
0.421754
0.494759
0.386294
0.477448
0.415319
0.400910
0.430094
0.444568
0.339790
0.302401
0.374363
0.291269
0.372252
0.347471
0.267128
0.298502
0.270600
0.224272
0.210184
0.195148
0.140756
0.194995
0.269211
0.109381
0.059093
0.059768
0.010115
0.071020
-0.030818
0.004093
-0.007507
-0.009438
-0.111769
-0.026007
-0.083644
-0.017121
-0.116976
-0.002057
-0.144244
-0.157170
-0.107955
-0.064826
-0.100236
-0.099172
-0.108859
-0.019736
-0.167871
-0.050980
-0.102969
-0.155861
-0.218274
-0.138382
-0.031124
-0.101428
-0.092303
-0.104199
-0.165604
-0.104059
-0.076224
-0.129364
-0.145930
-0.068073
-0.074212
-0.149252
-0.162811
-0.108683
-0.049921
-0.071682
-0.083747
-0.073651
-0.051480
0.007782
-0.065909
-0.035760
-0.108806
-0.014770
-0.045973
0.015138
-0.034241
0.078655
0.042077
0.126403
0.069847
0.046796
0.029151
0.058760
0.060975
0.101209
0.017180
0.093096
0.061107
0.093126
0.103196
0.065866
0.071029
0.026666
0.033382
-0.041683
0.016452
0.044609
0.020362
-0.016195
-0.055856
-0.066035
-0.066554
-0.177109
-0.140875
-0.152716
-0.031480
-0.081485
-0.060863
-0.045997
-0.038674
-0.040364
0.030632
0.136651
0.393629
0.631425
0.956789
1.301897
1.274290
1.069264
0.751728
0.428824
0.159722
-0.120151
-0.257794
-0.205881
-0.072280
-0.062380
-0.016740
0.017763
-0.003735
-0.030533
0.038133
0.047798
0.041333
0.033903
0.039357
0.149558
0.230874
0.181612
0.198456
0.173732
0.192259
0.179665
0.245879
0.275893
0.416165
0.347146
0.405884
0.388940
0.362929
0.340971
0.474660
0.415391
0.451344
0.431823
0.514660
0.505066
0.463101
0.415201
0.458626
0.455595
0.435373
0.440579
0.324928
0.354976
0.423216
0.299330
0.378177
0.333012
0.294697
0.251968
0.206846
0.176409
0.273786
0.213404
0.156886
0.135710
0.058826
0.162077
0.108288
0.079807
0.114351
0.063732
0.000720
0.015457
0.056576
-0.009112
0.051504
-0.002267
-0.052098
0.006976
0.021659
-0.000025
-0.084147
0.079976
-0.030021
-0.063612
-0.068744
-0.029038
-0.075894
-0.083233
-0.072085
-0.044633
-0.109683
-0.107665
-0.079935
0.007946
-0.097355
-0.079608
-0.019223
-0.135252
-0.042167
-0.035023
-0.155290
-0.021843
-0.018243
0.022624
-0.129215
-0.033299
-0.037025
-0.103097
-0.087891
0.036762
-0.065662
-0.012608
0.011544
0.001407
-0.008352
-0.023364
-0.032245
0.054918
-0.015904
-0.020649
0.072818
0.012665
0.109380
0.094119
0.058865
0.137871
0.057655
0.168341
0.149264
0.189575
0.090085
0.072022
0.129115
0.146832
0.145179
0.168546
0.076132
0.154016
0.088559
0.091011
0.144770
0.119867
-0.025263
0.092341
0.068151
0.009902
-0.088512
0.019594
-0.001536
-0.033500
-0.062560
0.038078
0.029861
-0.103448
0.016973
0.065923
0.165844
0.241974
0.479133
0.792040
1.123260
1.376877
1.358169
1.193107
0.927032
0.549055
0.205070
-0.016202
-0.086993
-0.153046
-0.099644
-0.084558
0.060319
0.133031
0.082184
0.196751
0.158378
0.091459
0.099002
0.184566
0.204154
0.186026
0.314714
0.260143
0.289811
0.308481
0.287259
0.387551
0.384721
0.365419
0.489266
0.474191
0.368157
0.504153
0.520375
0.499454
0.462772
0.541377
0.605702
0.528527
0.470843
0.455901
0.513442
0.506120
0.500219
0.579234
0.564009
0.514017
0.559231
0.488643
0.453589
0.466181
0.491564
0.387403
0.356799
0.349351
0.287899
0.346441
0.284496
0.296713
0.243674
0.169201
0.209093
0.179838
0.197538
0.185200
0.240734
0.155973
0.096278
0.092070
0.150318
0.136123
0.115425
0.136392
0.126777
0.185178
0.097846
0.032311
0.055900
0.105718
0.068780
-0.053662
0.048293
0.005791
0.060356
0.062882
0.039569
0.106249
0.033229
0.040514
0.039997
0.081179
0.074388
0.086920
0.097508
-0.015979
0.012288
0.016981
0.042847
-0.043383
0.015887
-0.023800
-0.040437
0.024900
0.103370
0.095188
0.092579
0.034308
0.134708
0.132329
0.159760
-0.000823
0.060905
0.140185
0.068268
0.118302
0.133488
0.159200
0.188180
0.181903
0.200078
0.143698
0.184285
0.177942
0.163293
0.247536
0.262460
0.215879
0.202648
0.248022
0.261622
0.224564
0.251968
0.244362
0.222155
0.282426
0.203616
0.170969
0.189804
0.118945
0.024726
0.176736
0.105907
0.164616
0.106812
0.059398
0.087034
0.078991
0.101421
0.072431
0.138327
0.060740
0.128781
0.175535
0.215218
0.424022
0.624733
0.861258
1.211583
1.456968
1.444960
1.232065
0.928238
0.491911
0.205788
0.018819
-0.087281
-0.001013
0.016999
0.062910
0.199745
0.054003
0.157093
0.253992
0.225739
0.231500
0.224869
0.197693
0.314326
0.347652
0.350090
0.283356
0.416579
0.392084
0.327336
0.387057
0.410846
0.515794
0.439965
0.493577
0.477622
0.607598
0.542188
0.634400
0.575778
0.653121
0.510807
0.545263
0.604238
0.589956
0.520546
0.588967
0.571588
0.615789
0.502171
0.530520
0.586007
0.575315
0.506008
0.508455
0.477703
0.490739
0.488484
0.485284
0.355662
0.398598
0.412169
0.321530
0.288818
0.322661
0.326493
0.255740
0.246164
0.186417
0.184919
0.146864
0.194961
0.173441
