0.002289
-0.014772
0.054335
0.000870
0.028774
0.056002
0.027257
-0.011645
0.011661
0.006396
0.028333
-0.093624
0.054493
-0.007188
0.037581
0.062310
-0.011941
0.055625
0.086729
0.007039
0.070369
0.008420
-0.028602
-0.038412
-0.029667
0.071331
0.098010
0.004572
0.024599
0.101030
0.006190
0.051202
0.026293
0.059286
0.169895
0.124693
0.023891
0.076824
0.108599
0.165404
0.115549
0.169290
0.119892
0.190908
0.209786
0.231571
0.187534
0.217217
0.207040
0.201814
0.177222
0.179396
0.307107
0.100990
0.181458
0.203207
0.136440
0.142517
0.087149
0.087242
0.132951
0.117981
0.111496
0.068166
0.031370
0.131685
0.039231
0.073810
0.081932
0.049268
0.000225
0.041918
0.124429
0.110075
0.044631
0.060235
0.041283
0.048267
-0.021676
0.057134
-0.040174
0.057088
0.036625
0.060985
0.059840
0.086204
0.023584
-0.063650
-0.009108
-0.068095
-0.027393
0.014197
0.278855
0.457321
0.774150
1.073532
1.318176
1.428691
1.352211
1.141633
0.804195
0.369123
0.148360
-0.134053
-0.126879
-0.240476
-0.146632
-0.074391
0.011414
0.044548
-0.017187
0.148602
0.109862
0.105996
0.034565
0.082239
0.081107
0.092379
0.016798
0.078479
0.121728
0.103628
0.179086
0.104708
0.077246
0.156270
0.055212
0.180927
0.157943
0.118505
0.145175
0.228967
0.224520
0.252896
0.252973
0.241264
0.277839
0.300589
0.294106
0.411501
0.394344
0.364237
0.398753
0.391809
0.460153
0.404419
0.466955
0.462838
0.447543
0.421770
0.485588
0.547207
0.578638
0.497260
0.539863
0.577737
0.584706
0.589504
0.563233
0.603195
0.598868
0.620023
0.532433
0.450385
0.617658
0.532339
0.526543
0.475741
0.432460
0.427262
0.496352
0.417557
0.378020
0.389761
0.258426
0.328108
0.270077
0.186097
0.209309
0.331120
0.231985
0.248076
0.205123
0.152137
0.208852
0.106045
0.177716
0.151437
0.124085
0.137744
0.138180
0.063402
0.080912
0.026413
0.127808
0.186210
0.207031
-0.002977
0.154384
0.144512
0.122797
0.094686
0.103770
0.094954
0.102262
0.021206
0.111185
0.061238
0.129049
0.130128
0.018203
0.115862
0.073526
0.148066
0.116520
0.126917
0.016823
0.149465
0.143042
0.032693
0.095068
0.035216
0.003768
0.092833
0.109796
0.088427
0.047873
0.003011
0.097833
0.082633
0.090540
0.120293
-0.009870
0.073833
0.133621
0.087755
0.035161
0.105618
0.045223
0.084439
0.067762
0.039044
0.108533
0.064562
0.144998
0.041377
0.009615
0.123150
0.138817
0.002566
0.057668
0.090908
0.064805
0.066818
0.150288
0.049055
0.062096
0.104802
0.119960
0.100361
0.108581
0.029336
-0.010485
0.059536
0.129374
0.132602
0.139618
0.067525
0.154219
0.072534
0.106749
0.064892
0.130324
0.078145
0.057964
0.124796
0.059730
0.140634
0.129339
0.235686
0.115326
0.220215
0.191427
0.282889
0.258289
0.225424
0.175688
0.262336
0.250214
0.154162
0.192164
0.202006
0.215559
0.225632
0.210266
0.216435
0.207187
0.181150
0.242932
0.119298
0.230960
0.112007
0.091324
0.109316
0.123337
0.082466
0.092006
0.094912
0.108813
0.094639
0.031649
0.067080
0.030011
0.098997
0.111383
0.112720
0.114209
0.103798
0.077658
0.015214
0.098514
-0.008918
0.089997
0.080499
0.010696
0.082842
0.071661
-0.007652
0.052446
0.048315
-0.027360
-0.049048
-0.134369
0.077426
0.252615
0.552287
0.865783
1.187717
1.444519
1.431611
1.297557
1.054176
0.824815
0.360775
0.178736
-0.154409
-0.260922
-0.291490
-0.209043
-0.158228
-0.002603
-0.058601
0.049991
0.030872
0.090976
0.093165
0.069138
0.129092
0.045154
0.049670
-0.024247
0.003087
0.090024
0.092599
0.065128
0.059000
-0.010489
0.089909
0.097074
0.124665
0.072541
0.071005
0.087832
0.201257
0.174452
0.223776
0.183746
0.224942
0.228686
0.193186
0.298337
0.182935
0.341766
0.309745
0.305001
0.318929
0.362869
0.359702
0.445960
0.433864
0.476293
0.515544
0.417443
0.478478
0.560701
0.487337
0.512314
0.490343
0.408324
0.440157
0.527453
0.470263
0.508247
0.442731
0.451033
0.473667
0.368952
0.428708
0.393218
0.345853
0.381294
0.385169
0.404526
0.333126
0.292408
0.304594
0.259763
0.221384
0.282419
0.204561
0.285306
0.193148
0.143853
0.248659
0.067975
0.191134
0.062782
0.095367
0.060340
0.080584
-0.026258
0.079070
0.089184
0.023801
0.024971
0.067313
-0.051403
0.078425
-0.068977
0.010742
0.020901
-0.005276
-0.047982
0.140084
0.005045
-0.039457
-0.053616
0.039122
-0.091352
-0.027486
-0.027886
-0.033085
-0.015594
-0.008063
-0.056592
0.005129
0.078730
-0.026834
0.008365
-0.023902
0.016778
0.064741
-0.032996
-0.071773
-0.062742
0.017692
-0.037529
-0.006150
-0.115888
-0.095135
-0.019698
0.011078
-0.003746
-0.079829
-0.012682
-0.071617
-0.057691
0.031214
-0.004416
-0.024109
-0.027147
-0.021840
-0.144570
-0.016534
-0.038181
-0.061309
-0.093576
-0.025947
-0.104665
0.011237
-0.076551
-0.014658
-0.073744
0.020660
-0.040887
-0.069136
-0.062537
0.012420
-0.070163
-0.014768
-0.045998
-0.040553
-0.080032
0.046583
0.069341
-0.102911
-0.054987
-0.065404
-0.006376
0.002865
-0.022463
0.050579
-0.023321
0.020453
-0.058458
-0.065895
-0.051312
0.028627
-0.024832
0.076924
0.053223
0.029953
0.109897
0.050789
0.065866
0.123180
0.123147
0.140986
0.107215
0.151443
0.106396
0.147904
0.235534
0.163275
0.050769
0.143741
0.049730
0.025843
0.007978
0.045232
0.079591
0.022989
0.025380
0.048521
0.026135
0.003081
0.069493
-0.020504
-0.022953
0.006009
0.044618
0.014364
0.050739
0.038842
-0.045946
-0.048989
-0.131876
-0.052398
0.040230
-0.082301
-0.026548
-0.057042
-0.084236
0.029085
-0.064324
0.033759
0.013330
-0.023282
-0.107243
-0.069276
-0.106116
-0.039133
-0.206985
-0.082783
-0.038149
-0.006605
0.077548
0.388026
0.885079
1.034801
1.294600
1.387709
1.245448
0.920198
0.636913
0.239446
0.046767
-0.166903
-0.394574
-0.342961
-0.337712
-0.258467
-0.115365
-0.156303
-0.091845
-0.048126
0.012597
-0.034818
0.019304
0.015708
-0.120212
-0.063212
-0.013743
-0.052438
-0.060447
0.012957
0.026002
-0.046869
-0.013054
0.056688
-0.017673
-0.005609
0.047740
0.037940
0.005691
0.050477
0.067894
0.095892
0.134954
0.071084
0.230803
0.116956
0.171908
0.183118
0.274093
0.272294
0.254689
0.287080
0.332860
0.310820
0.342346
0.415658
0.441161
0.485445
0.453245
0.493133
0.458970
0.497632
0.498740
0.458442
0.476793
0.450035
0.450795
0.566628
0.490243
0.440261
0.461399
0.413367
0.493371
0.389821
0.304694
0.394881
0.400617
0.398898
0.237200
0.327939
0.292262
0.344262
0.218968
0.282691
0.158123
0.184389
0.225309
0.099480
0.089523
0.086261
0.075775
0.084322
0.117152
0.106325
0.104535
0.027416
0.047791
-0.000444
-0.030616
-0.004328
0.038976
-0.051737
0.032323
0.000120
0.054953
-0.003926
0.009343
-0.086382
0.047347
-0.026745
-0.034842
-0.079394
-0.007574
-0.005646
-0.002652
0.103863
0.029869
-0.025574
-0.073669
0.043446
-0.068627
-0.007689
0.029425
0.025914
-0.000933
0.049643
0.073937
0.013381
-0.008838
-0.008911
0.010233
0.051149
0.036784
-0.050709
-0.025535
-0.020645
-0.002067
-0.032685
-0.011452
0.005490
-0.061706
0.010226
-0.008836
0.007644
-0.046765
-0.049715
0.058415
-0.043260
-0.082438
-0.087258
0.043926
-0.096442
0.041048
0.024755
0.080664
0.048101
0.059913
0.029689
0.041035
0.013654
0.020326
-0.031445
0.029889
0.071814
0.091028
0.056145
0.040619
0.067430
-0.026450
-0.000415
0.050879
0.052035
0.037733
0.032741
-0.040152
0.061107
0.047383
0.004749
0.109655
-0.011979
0.061924
0.087054
0.022570
-0.033728
0.122240
0.031752
0.118862
0.095041
0.154874
0.130592
0.185141
0.140779
0.183950
0.156078
0.232975
0.195590
0.155473
0.253471
0.236954
0.236917
0.194179
0.167524
0.166267
0.262590
0.262596
0.199715
0.154098
0.244238
0.132198
0.139976
0.109011
0.125127
0.102280
0.119388
0.083221
0.129507
0.131514
0.119536
0.037881
0.138049
0.009627
0.119424
0.055754
0.122375
0.080014
0.163961
0.017822
-0.022772
0.060214
0.055713
0.073826
0.069564
0.085116
0.039577
0.063066
0.036128
0.001673
0.064712
-0.017768
-0.022921
0.062467
0.084726
0.334374
0.540374
0.915102
1.143218
1.500000
1.485384
1.250684
1.062061
0.677279
0.411798
0.009616
-0.177948
-0.255383
-0.297372
-0.199351
-0.048532
-0.055242
0.057762
0.004058
0.033310
0.050013
0.044531
0.063262
0.113159
0.093229
0.106190
0.064636
0.179838
0.118582
0.054291
0.122642
0.123372
0.085111
0.141203
0.187699
0.173757
0.177420
0.165043
0.243967
0.213419
0.193445
0.263691
0.284583
0.226372
0.318952
0.296310
0.354528
0.310652
0.271616
0.381707
0.434623
0.409840
0.377544
0.385601
0.491789
0.498843
0.545907
0.470245
0.490160
0.536717
0.540505
0.481984
0.538306
0.565765
0.585726
0.559859
0.649633
0.525234
0.611124
0.563585
0.551224
0.514734
0.554472
0.493820
0.583463
0.486472
0.483340
0.487692
0.481832
0.399494
0.437544
0.356408
0.392645
0.305090
0.325264
0.338341
0.291084
0.237180
0.200885
0.281661
0.161783
0.172700
0.239543
0.243627
0.128117
0.072975
0.087579
0.108118
0.039595
0.153685
0.091044
0.110558
0.154306
0.117053
0.037374
0.202916
0.011964
0.139087
0.141796
0.021442
0.090182
0.113762
0.094741
0.097269
0.030920
0.074886
0.034798
0.135343
0.175493
0.099111
0.074225
0.104822
0.122954
0.044697
0.080836
0.131583
0.088689
0.101070
0.064541
0.089748
0.152674
0.130470
0.092260
0.082071
0.139766
0.081024
0.069534
0.058007
0.046866
0.054145
0.071608
0.111993
0.091930
0.028961
0.021419
0.028249
0.041981
0.101977
0.042640
0.059368
0.184880
0.111145
0.133572
0.124319
0.126371
0.070264
0.089451
0.058458
0.177271
0.089238
0.089329
0.063931
0.020303
0.092673
0.081524
-0.018399
0.111408
0.141870
0.086111
0.106741
0.093232
0.118254
0.095955
0.150137
0.046014
0.129740
0.035216
0.059336
0.181697
0.177333
0.124823
0.063565
0.108194
0.054716
0.166519
0.235827
0.169085
0.099425
0.201302
0.198754
0.214801
0.161761
0.274983
0.253540
0.215819
0.195925
0.212042
0.265886
0.196988
0.269305
0.184445
0.233298
0.197698
0.246109
0.250821
0.237193
0.156881
0.115479
0.154141
0.184915
0.161723
0.128608
0.134124
0.148955
0.162006
0.094048
0.114861
0.041451
0.056482
0.055745
0.143611
0.107290
0.129562
0.060142
0.035014
0.009558
0.047378
0.093396
0.032475
-0.008993
-0.014090
0.002756
-0.008173
0.076110
0.087275
0.153854
0.003954
0.094345
0.006958
0.047387
0.071801
0.152200
0.290192
0.630979
0.928148
1.214142
1.398519
1.409044
1.285311
1.028347
0.625219
0.237263
0.065170
-0.158404
-0.289623
-0.195659
-0.191448
-0.088939
-0.089256
0.000993
0.023705
0.024419
0.058093
0.021638
-0.034431
0.083828
0.121559
0.096412
0.096187
0.143637
0.087514
0.119927
0.122930
0.087231
0.052388
0.090179
0.000184
0.165262
0.185568
0.143397
0.144218
0.099008
0.140623
0.125162
0.175287
0.149652
0.228586
0.220488
0.266996
0.294066
0.334919
0.399902
0.356054
0.316771
0.423840
0.409914
0.381051
0.361026
0.399346
0.418980
0.392901
0.500511
0.521705
0.496841
0.495608
0.485731
0.497236
0.551046
0.538070
0.490175
0.435528
0.486336
0.487103
0.584348
0.461605
0.481698
0.460777
0.440099
0.413042
0.368159
0.335172
0.304969
0.297911
0.343315
0.256057
0.192424
0.329935
0.143408
0.153960
0.128791
0.195018
0.099778
0.145736
0.082475
0.122599
0.136571
0.043777
0.052889
0.066892
-0.063765
0.022024
-0.003018
-0.010237
0.082307
0.039566
0.002546
-0.062091
-0.015351
0.032675
-0.014597
0.016822
-0.014652
-0.029096
0.037976
-0.077699
0.016377
-0.007390
0.042223
-0.016120
-0.036863
0.032504
0.047823
-0.059711
-0.081107
-0.065224
-0.040235
-0.016440
0.029289
-0.045066
0.007762
-0.035518
-0.107403
-0.035298
0.018372
-0.057704
-0.023176
0.008203
-0.081336
-0.069284
-0.058027
-0.084014
-0.040016
-0.052165
0.035349
-0.019280
-0.041693
-0.083505
-0.010666
-0.056544
-0.044116
-0.085280
-0.095354
-0.097758
-0.019754
-0.068805
-0.002926
-0.023528
-0.037247
-0.043428
-0.031359
-0.104018
-0.102466
-0.045219
-0.113603
-0.078034
-0.059410
-0.083417
-0.009394
-0.043929
-0.087711
-0.054711
0.011961
-0.014019
0.047028
-0.105683
0.017994
-0.003768
-0.047992
0.065192
0.013392
-0.041270
0.053491
0.040215
0.017182
-0.009932
0.008443
-0.007658
0.020455
0.044687
0.030719
-0.003304
0.123264
0.031905
0.052783
0.134790
0.059097
0.076271
0.149236
0.075626
0.170519
0.122952
0.125864
0.111236
0.084522
0.061945
0.078562
0.099490
0.036075
0.032256
0.105377
0.072062
-0.030534
-0.046836
-0.084326
-0.000193
-0.021553
-0.027503
-0.044727
-0.104836
-0.028904
0.018592
0.030574
-0.088968
-0.079972
-0.040316
-0.030608
-0.119654
-0.113782
-0.001780
-0.076514
-0.003251
0.018017
-0.124036
-0.033617
-0.038206
-0.059783
-0.109959
-0.040642
-0.138476
-0.016831
-0.174503
-0.191014
-0.129394
-0.050706
0.191949
0.520271
0.857299
1.139368
1.347564
1.238290
1.145454
0.889616
0.540160
0.194841
-0.126856
-0.337120
-0.386807
-0.341971
-0.344313
-0.154962
-0.157012
-0.120746
-0.120302
-0.136841
-0.045272
-0.090873
-0.174671
-0.089771
0.003993
-0.019073
-0.015003
-0.043074
-0.067625
0.024130
-0.097365
-0.020819
-0.103745
-0.047523
-0.034088
0.018862
-0.088187
-0.056503
0.069627
0.058591
0.074275
0.071808
0.108716
0.102036
0.169451
0.139427
0.216410
0.140683
0.257673
0.159869
0.141551
0.273776
0.322659
0.248260
0.268323
0.361473
0.314746
0.271310
0.428179
0.373220
0.421145
0.444088
0.450760
0.455210
0.528378
0.409499
0.412175
0.414708
0.336677
0.458302
0.411215
0.338882
0.416583
0.411941
0.265166
0.294287
0.277933
0.165149
0.350465
0.278999
0.280887
0.180671
0.211244
0.169327
0.143617
0.102865
0.069349
0.164476
0.129562
0.077938
0.080550
0.031330
-0.011982
0.045045
0.053931
-0.020493
0.073931
0.033135
-0.040439
-0.057505
-0.021222
-0.060461
-0.008818
-0.085328
0.033603
-0.035480
-0.065997
-0.164303
-0.039122
0.075176
-0.089472
-0.065435
-0.098286
-0.022217
-0.038221
-0.030701
-0.033579
-0.036047
-0.073450
0.001883
-0.099354
-0.051007
-0.028924
-0.042549
-0.083693
0.013011
-0.015276
-0.083275
-0.076397
-0.075272
-0.079883
-0.012848
-0.056846
-0.032466
-0.124404
-0.085757
-0.043118
-0.025698
-0.014050
-0.062586
-0.039130
-0.050672
0.000131
-0.062181
0.009097
-0.072284
-0.033261
-0.035733
-0.087685
-0.014649
-0.055263
0.029854
-0.037532
-0.062187
-0.075918
-0.076295
-0.122114
-0.045135
0.026525
0.000124
-0.057235
-0.026753
-0.073763
-0.031224
-0.060462
-0.034160
-0.080377
-0.120084
-0.067480
0.028948
-0.004993
-0.022195
-0.034768
-0.027530
-0.002070
-0.053881
0.005525
-0.089016
-0.055037
0.007808
0.021705
-0.014379
-0.075850
0.079744
0.077192
0.017220
0.055588
0.000702
0.081799
0.081121
-0.009679
0.229362
0.047622
0.070983
0.103513
0.111049
0.104734
0.112489
0.107225
0.150295
0.133248
0.179841
0.151387
0.193109
0.092193
0.105748
0.136551
0.112451
0.114616
0.114436
0.051648
0.017189
0.004622
0.098230
0.008856
0.133716
-0.054441
0.035712
0.020596
-0.053228
-0.064914
-0.026127
-0.007145
0.103565
0.017772
-0.004451
-0.130135
0.013663
-0.017526
-0.018556
-0.025200
-0.024465
-0.011822
0.062795
0.007301
0.046635
-0.070388
-0.017507
-0.079678
-0.006104
-0.062416
0.005749
0.299087
0.571736
0.932168
1.183856
1.400814
1.401325
1.202844
0.925462
0.570345
0.227365
-0.047747
-0.196672
-0.275499
-0.365829
-0.267352
-0.106529
-0.042136
-0.022127
0.048752
0.000017
0.011181
0.072098
0.072540
0.029579
0.013094
0.089309
0.018387
-0.004248
-0.022202
0.018480
0.112234
0.008068
0.005233
0.041250
0.063514
0.070177
0.073006
0.154129
0.027662
0.120073
0.149962
0.142855
0.290115
0.153816
0.209037
0.224512
0.186642
0.279539
0.327212
0.339128
0.295070
0.343380
0.278740
0.367922
0.426412
0.474968
0.481390
0.455347
0.453266
0.497106
0.463603
0.535612
0.501768
0.560684
0.499863
0.561921
0.542812
0.525583
0.450425
0.549289
0.543395
0.453916
0.424227
0.417225
0.463096
0.497821
0.427857
0.411612
0.407865
0.316430
0.354142
0.297623
0.332349
0.231422
0.275333
0.254223
0.302720
0.160173
0.172983
0.128715
0.094347
0.051458
0.193326
0.101104
0.081996
0.119435
0.082036
0.114447
0.085573
0.070415
0.023167
0.103957
0.118216
0.018059
0.065261
0.065007
0.083698
0.016988
0.029574
0.052285
0.128104
0.026750
0.081372
0.017018
-0.014265
0.069476
0.078510
0.048085
0.002704
0.017423
0.014789
-0.007560
0.029912
0.043102
0.092307
0.064789
0.081516
-0.080332
0.092881
0.073729
0.045240
0.086608
0.084614
0.009330
0.033358
0.094927
0.090322
0.036897
0.020266
0.036624
0.094243
0.033658
0.004940
0.015672
0.038537
0.029647
-0.027993
0.049319
0.092580
0.066977
0.110053
0.083155
0.001096
0.016507
0.034837
0.073297
-0.004798
0.040238
-0.001672
0.022361
0.035142
0.113696
-0.034587
0.039635
0.126613
0.110080
0.004195
0.086746
0.144580
0.115685
0.072406
0.053723
0.108232
0.101275
0.115657
-0.036018
0.033758
0.074845
0.108802
0.118988
0.071825
0.077661
0.046648
0.116002
0.075039
0.116081
0.101965
0.202251
0.126398
0.177800
0.173716
0.145775
0.200174
0.204045
0.289275
0.179165
0.253993
0.235671
0.254262
0.135249
0.152113
0.221613
0.192903
0.227910
0.136007
0.222631
0.176338
0.150461
0.242725
0.190804
0.147525
0.172095
0.151034
0.109127
-0.018470
0.024933
0.115964
0.009103
0.072286
0.000204
0.076381
0.032650
0.042602
-0.043917
0.028090
0.090377
0.010852
-0.047961
0.034355
-0.003277
0.068673
0.057130
0.023280
0.017398
-0.011635
-0.014761
-0.047259
0.024720
0.003305
-0.044351
0.051502
0.048471
0.297110
0.635464
0.929279
1.361155
1.361824
1.473009
1.313471
0.854052
0.586800
0.240398
-0.018921
-0.302160
-0.269361
-0.327625
-0.164109
-0.114134
-0.006439
-0.059025
-0.041369
-0.001116
0.078091
0.085603
-0.011139
0.068181
0.067843
0.007005
0.000633
0.043955
-0.000145
0.051874
0.024523
0.065858
0.008623
-0.007316
0.107988
0.117729
0.076890
0.119609
0.168856
0.159521
0.162574
0.168189
0.144716
0.205875
0.217814
0.216010
0.253676
0.273175
0.295665
0.240700
0.361288
0.329272
0.359031
0.400595
0.399895
0.421134
0.443825
0.393973
0.420048
0.455857
0.437438
0.485734
0.430060
0.560999
0.475256
0.479946
0.510750
0.533831
0.502456
0.524210
0.495589
0.454832
0.405490
0.423375
0.468456
0.483069
0.352780
0.317019
0.338571
0.318633
0.271081
0.272148
0.309703
0.252258
0.220821
0.164363
0.125489
0.208238
0.133851
0.084668
0.083308
0.039814
0.113593
0.086426
0.048060
0.045052
0.044174
-0.039876
0.042329
0.039307
-0.001482
-0.000897
-0.001967
0.037757
0.034372
-0.022635
0.042987
0.056062
-0.035714
-0.025581
-0.066267
0.030613
-0.056126
0.009590
-0.014281
-0.052811
0.013949
-0.008013
-0.017390
-0.018498
0.001030
-0.121468
0.009286
-0.068977
-0.048366
-0.006761
-0.028643
-0.014458
-0.044697
-0.047378
-0.084470
-0.087608
-0.076699
-0.077083
-0.010077
-0.005206
0.003640
-0.060627
-0.060748
-0.023320
-0.033204
-0.097920
-0.052719
-0.086563
-0.040913
-0.104386
0.030801
-0.022842
-0.099565
-0.132392
-0.076564
-0.091974
-0.071903
-0.035773
-0.098671
-0.050440
0.008817
-0.086325
-0.005927
-0.054574
-0.135678
-0.148793
-0.038066
0.008401
-0.078385
0.018307
-0.040914
-0.135789
-0.042556
-0.120100
-0.017347
-0.103931
-0.040478
-0.032423
-0.019078
-0.082344
-0.088229
-0.054186
-0.031997
-0.063653
0.088073
-0.036019
-0.064318
0.009429
-0.088732
-0.034140
0.017268
0.046259
0.024478
0.034722
0.028949
0.082000
0.043058
0.068206
0.135316
0.113894
0.130566
0.084683
0.009263
0.132461
0.100877
0.152249
0.095855
0.121841
0.073740
0.051485
0.146044
0.034376
0.061062
0.076964
-0.024323
-0.070709
-0.063393
-0.054196
-0.047830
-0.036167
-0.055818
-0.086604
-0.069336
-0.033678
0.007953
-0.091155
-0.048679
-0.100678
-0.060756
-0.155889
-0.109783
-0.099820
-0.073448
-0.067828
-0.050198
-0.008499
-0.134227
-0.091235
-0.149388
-0.117783
-0.126199
-0.093499
-0.157650
-0.179792
-0.081607
0.015920
0.239621
0.479412
0.813342
1.211991
1.370015
1.217167
1.063983
0.781374
0.448205
0.110509
-0.080445
-0.341732
-0.478028
-0.344507
-0.281749
-0.322422
-0.228545
-0.090714
-0.092759
-0.092716
-0.107718
-0.116197
-0.001679
-0.095036
-0.088224
-0.045742
-0.010498
-0.007956
-0.020466
-0.093739
-0.059312
-0.074246
-0.056966
-0.028810
-0.074185
-0.005768
0.074010
0.059437
0.009118
0.061142
0.038559
0.051503
0.055811
0.012958
0.166243
0.116703
0.197226
0.186742
0.170641
0.244477
0.212780
0.244513
0.221508
0.240002
0.284447
0.364721
0.353077
0.355417
0.413803
0.347054
0.405523
0.407089
0.441952
0.410184
0.437179
0.496783
0.487988
0.461647
0.366647
0.366937
0.403970
0.335791
0.354213
0.409432
0.269713
0.243660
0.209826
0.327263
0.314924
0.276483
0.212777
0.207645
0.151376
0.146586
0.089742
0.088578
0.079631
0.009724
0.056154
0.000451
0.005147
0.013791
0.023433
0.001250
0.006465
-0.028550
-0.031997
-0.024589
0.058185
-0.118120
-0.064895
-0.088971
-0.087607
-0.044296
-0.094359
0.010605
-0.095933
-0.137452
-0.116385
-0.063032
-0.147658
-0.081938
-0.131274
-0.051424
-0.089601
-0.135626
-0.055416
-0.081288
-0.063705
-0.138910
-0.147766
-0.104608
-0.138265
-0.110486
-0.088917
-0.124374
-0.059393
-0.011626
-0.120278
-0.051746
-0.137210
-0.070949
-0.104867
-0.100193
-0.082132
-0.096614
-0.010584
-0.058025
-0.053689
-0.076085
-0.151823
-0.071134
-0.080162
-0.056792
-0.088122
-0.118259
-0.033099
0.000706
-0.000159
0.004971
-0.049344
-0.111199
-0.122823
0.046722
-0.049344
-0.063569
-0.060545
-0.055806
-0.028224
-0.095200
-0.103959
-0.076698
-0.072059
-0.100748
-0.125591
-0.057026
-0.020512
-0.044259
-0.092508
-0.100423
-0.076884
-0.098964
-0.046901
-0.038726
-0.044324
-0.047146
0.038661
-0.038589
-0.085208
0.000949
0.020003
0.000537
0.003986
-0.022663
-0.025218
0.096307
-0.030249
0.100502
0.069387
0.073732
0.096256
0.077499
0.101989
0.142399
0.062756
0.164602
0.061811
0.177941
0.125683
0.162301
0.158480
0.077766
0.088941
0.010068
0.039775
0.115691
0.009038
0.050737
0.080067
0.118537
0.092945
0.105648
0.029337
0.056042
-0.064499
0.013004
-0.046655
-0.066335
-0.053351
0.003435
-0.058112
-0.053433
-0.092819
0.076541
-0.032326
-0.077628
0.022040
-0.003295
-0.101450
-0.006381
-0.046527
-0.017070
-0.055599
-0.024878
0.013607
0.025154
-0.075640
-0.040738
-0.072057
-0.096458
-0.059749
0.152776
0.346514
0.720921
0.964376
1.161645
1.339260
1.370154
1.131266
0.839091
0.467616
0.221720
-0.062636
-0.231398
-0.318266
-0.312669
-0.159698
-0.158853
-0.112307
-0.064137
-0.010886
0.030651
-0.007579
0.046553
-0.023426
0.047335
0.061836
-0.055527
0.037031
0.047214
-0.011229
0.077960
0.062704
0.073530
0.113874
0.096769
0.026321
0.048005
0.124497
0.079974
0.158295
0.198171
0.056409
0.145951
0.182616
0.210713
0.275341
0.253043
0.255980
0.259802
0.324671
0.289245
0.330014
0.444417
0.425065
0.363166
0.408392
0.398212
0.492444
0.483319
0.527062
0.467394
0.477861
0.584135
0.492242
0.523936
0.546806
0.538916
0.534799
0.537096
0.469792
0.469591
0.486308
0.507650
0.424044
0.481436
0.541383
0.483421
0.403785
0.375954
0.363635
0.413755
0.306920
0.270744
0.201313
0.233161
0.272338
0.197081
0.235305
0.197577
0.210590
0.118886
0.142960
0.068375
0.153478
0.216846
0.105413
0.049214
0.094909
0.135226
0.016456
0.168201
0.071112
0.072431
0.145671
0.141041
0.114102
0.018692
0.082614
-0.004266
0.137836
-0.015876
0.032301
-0.007552
0.008247
0.060803
0.071539
0.084709
0.077160
0.054045
0.101851
0.020663
0.082668
0.084743
0.059722
0.097444
0.071051
0.042004
0.093818
0.030635
0.112744
0.092826
0.176521
0.056850
0.057992
0.099318
0.037703
0.051055
0.083315
0.097475
0.007991
0.058282
0.063043
-0.054104
0.097027
0.043572
0.028979
0.024435
0.051598
0.097146
0.043116
0.034243
0.124804
0.101217
0.087449
0.083777
0.082497
0.017369
0.098369
0.091584
0.064892
-0.002405
0.069902
0.043002
0.077163
0.107209
0.063441
0.096888
0.072883
0.100776
0.090047
0.034901
0.046202
0.055692
0.145684
0.073875
-0.005412
0.004958
0.083193
0.107777
0.137891
0.149138
0.055244
0.149761
0.099668
0.128736
0.062897
0.143261
0.140930
0.125896
0.091637
0.318154
0.144712
0.184750
0.129350
0.218869
0.187978
0.238784
0.224548
0.315549
0.232126
0.231954
0.214363
0.176643
0.208266
0.271600
0.228056
0.254975
0.250012
0.195573
0.132679
0.160421
0.137335
0.184822
0.118643
0.121302
0.178744
0.063034
0.037062
0.145180
0.091429
0.121250
0.076173
0.038462
0.087450
0.027545
0.057273
0.040357
0.025476
0.079498
0.104405
0.081408
