0.078151
0.002556
0.011476
-0.016072
0.055800
-0.050678
0.021200
0.041505
-0.029368
0.027516
-0.033549
0.022298
0.063587
-0.004161
-0.041282
-0.033275
-0.055840
-0.011975
0.026905
0.063462
0.016487
0.031664
-0.038222
-0.000608
0.033982
0.107049
-0.023844
0.074955
0.122335
0.179806
0.173877
0.115797
0.096134
0.130258
0.096171
0.126802
0.188904
0.214820
0.189861
0.233455
0.144345
0.229395
0.217217
0.151449
0.200005
0.228744
0.226514
0.257835
0.156033
0.256108
0.138061
0.171427
0.176236
0.143647
0.105432
0.171171
0.014640
0.090156
0.035563
0.067178
0.122648
0.068334
0.092829
0.012525
0.088714
0.026514
0.062408
-0.016693
0.032719
0.146404
-0.021253
-0.001471
0.127408
0.100343
0.030389
0.081007
-0.007095
-0.006616
0.157579
0.277610
0.629546
0.932243
1.230670
1.435896
1.452227
1.229842
0.812175
0.505305
0.211334
-0.032293
-0.198495
-0.243515
-0.124227
-0.036684
-0.036082
0.025258
0.037813
0.063352
0.179821
0.070324
0.062767
0.119682
0.137657
0.085088
0.111623
0.107791
0.156162
0.156657
0.154145
0.135142
0.150895
0.211637
0.253375
0.175375
0.232915
0.269142
0.393710
0.290416
0.327823
0.337278
0.418752
0.351719
0.396360
0.369983
0.442973
0.478334
0.531183
0.503665
0.456333
0.561222
0.501105
0.571235
0.553137
0.603557
0.572257
0.638496
0.636296
0.560732
0.641168
0.543656
0.556939
0.527210
0.474815
0.498607
0.460602
0.523850
0.446758
0.476691
0.465927
0.406734
0.457382
0.408082
0.300612
0.379316
0.280383
0.287898
0.259957
0.280704
0.245711
0.267853
0.225936
0.110037
0.206412
0.230294
0.191971
0.155272
0.119231
0.137926
0.118623
0.175031
0.144871
0.143829
0.100702
0.103507
0.158565
0.112185
0.007511
0.144608
-0.002271
0.113015
0.043190
0.110363
0.072165
0.037461
0.122807
0.123947
0.180849
0.138458
0.156449
0.067381
0.087403
0.083682
-0.004183
0.086834
0.144853
0.112739
0.081748
0.130658
0.039906
0.092042
0.079178
0.047605
0.058594
0.102291
0.067226
0.068149
0.157114
0.188449
0.123034
0.133195
0.128690
0.084519
0.024581
0.067214
0.081306
0.064325
0.042880
0.062548
0.180466
0.171089
0.095073
0.111719
0.035618
0.053768
0.183633
0.155788
0.171720
0.074490
0.141117
0.090483
0.178068
0.060875
0.059256
0.073586
0.119925
0.157803
0.207700
0.190952
0.195374
0.229282
0.137514
0.228784
0.294355
0.302413
0.271104
0.274735
0.304037
0.231580
0.318534
0.239448
0.251681
0.228271
0.242566
0.255788
0.261683
0.210233
0.209180
0.183733
0.216500
0.130277
0.174666
0.149649
0.114321
0.240886
0.136310
0.188918
0.182220
0.102129
0.092553
0.093820
0.109967
0.178630
0.132086
0.089602
0.128616
0.082707
0.152940
0.087288
0.099416
0.143766
0.051789
0.040970
0.043105
0.055733
-0.031452
0.040381
0.210253
0.225520
0.641979
0.910426
1.189623
1.428167
1.455015
1.377868
1.075686
0.675672
0.270532
-0.016935
-0.184954
-0.208605
-0.140856
-0.144741
-0.016613
0.040581
0.130052
0.101164
0.115283
0.137145
0.069573
0.199198
0.139511
0.151247
0.140722
0.161757
0.114501
0.077927
0.241403
0.174321
0.262287
0.258980
0.168387
0.270442
0.144818
0.217865
0.253913
0.240141
0.281178
0.362918
0.403660
0.415496
0.435961
0.385860
0.352614
0.466037
0.415654
0.445405
0.510187
0.539410
0.575322
0.477613
0.511437
0.579076
0.585839
0.592952
0.623250
0.580157
0.544453
0.616105
0.585437
0.524494
0.601554
0.550437
0.535542
0.550879
0.448693
0.361396
0.325118
0.447334
0.411237
0.304172
0.327588
0.317075
0.277230
0.231468
0.245923
0.257027
0.229807
0.152965
0.173430
0.136566
0.161599
0.075922
0.112002
0.101519
0.069882
0.011166
0.077192
0.060743
0.133037
0.053695
0.084185
-0.004783
-0.009026
0.025611
0.010083
-0.000827
0.012781
0.013359
0.044099
0.072396
-0.042560
-0.013099
0.032219
-0.011697
0.033455
0.079760
-0.005206
0.005665
0.038544
0.022562
-0.026285
-0.018852
0.085130
0.025430
-0.012245
0.025657
0.020139
0.031193
-0.034062
0.064972
0.070953
0.065171
0.015316
-0.002129
0.014805
0.032088
0.029277
-0.009147
-0.036009
-0.135283
-0.003625
0.001346
0.048084
0.051171
-0.045497
-0.019689
0.031340
-0.013660
-0.050313
0.057474
-0.007746
0.079068
-0.110605
-0.024279
-0.030317
-0.000574
0.000293
-0.024957
-0.003657
-0.003421
-0.056852
0.058583
0.051545
0.036847
0.052568
0.112960
0.125609
0.022846
0.134655
0.127289
0.086079
0.027342
0.132137
0.212746
0.143098
0.189582
0.157553
0.148783
0.166558
0.118471
0.268832
0.218892
0.118185
0.143872
0.118202
0.097332
0.165983
0.074995
0.079563
0.102680
0.094130
0.051190
0.135413
0.036682
0.060879
-0.059429
0.006990
0.030235
-0.011753
-0.001082
-0.030242
-0.119004
-0.009956
-0.014727
0.043491
-0.041759
-0.037907
-0.029527
-0.042224
-0.093860
0.011355
-0.009288
-0.149656
-0.074733
0.020938
0.163149
0.238759
0.603315
0.911538
1.239020
1.353429
1.268326
1.052608
0.663394
0.316089
0.023449
-0.167784
-0.258480
-0.334183
-0.248105
-0.189743
-0.105739
-0.071403
-0.035245
0.013879
-0.020428
0.011998
-0.022236
0.032716
-0.002814
0.006315
-0.012979
0.021428
0.066306
-0.016306
0.088841
0.113761
0.136707
0.151738
0.146386
0.090153
0.117025
0.225074
0.237004
0.276535
0.219455
0.180828
0.384402
0.212521
0.313269
0.359474
0.321032
0.402893
0.373085
0.384606
0.441026
0.451394
0.449915
0.427622
0.489095
0.447366
0.515906
0.548906
0.538926
0.478272
0.441115
0.412371
0.451863
0.467422
0.416101
0.429774
0.377087
0.309512
0.342341
0.272647
0.263648
0.326197
0.303339
0.206272
0.234617
0.232241
0.229533
0.119029
0.159686
0.088183
0.101494
0.158002
0.074170
0.087499
0.051756
0.038443
0.016528
0.035720
-0.015549
0.013050
-0.006765
-0.005236
-0.016151
0.069475
0.071313
0.039584
-0.013850
-0.012858
-0.067478
-0.073405
0.003401
0.016207
0.026390
0.029475
-0.081113
-0.097948
0.067628
0.000759
-0.064185
-0.030644
0.033433
-0.034017
-0.035912
-0.016028
-0.064487
-0.051841
0.036392
-0.032492
-0.020489
0.033193
-0.052028
-0.008488
-0.071266
-0.113368
-0.094521
0.032997
-0.040570
-0.106514
-0.103440
-0.022048
-0.000209
-0.012031
-0.051370
0.013411
-0.069843
-0.034971
-0.023482
-0.033481
-0.075646
-0.072830
-0.005541
-0.022396
-0.066952
-0.079360
-0.036744
-0.029431
0.026599
-0.013898
0.071854
-0.038338
0.030596
-0.011249
-0.013710
-0.010909
0.072896
0.051843
0.121446
-0.057920
0.101426
-0.068199
0.111276
0.092065
0.066215
0.141430
0.126169
0.163726
0.153226
0.145576
0.122018
0.160025
0.180614
0.126531
0.202694
0.106190
0.052503
0.151696
0.101722
0.209408
0.107707
0.039165
0.029731
0.083705
0.119443
0.101840
0.037714
0.025754
0.007199
0.031383
0.049879
0.097851
0.123331
0.035452
-0.045526
0.112814
-0.031527
0.079941
0.006383
-0.002725
0.009686
0.113109
-0.016241
0.001104
-0.000748
-0.023773
0.029554
0.003718
0.032679
0.079570
0.010356
0.299074
0.548228
0.900709
1.230387
1.450070
1.373597
1.176958
0.848242
0.447406
0.201773
-0.054668
-0.178478
-0.321820
-0.206750
-0.126141
-0.039854
-0.044895
0.043192
-0.014675
0.059907
0.072971
0.029022
0.011128
0.026632
0.070083
0.083966
0.076940
0.053920
0.114651
0.179942
0.089963
0.081089
0.063294
0.239713
0.181869
0.183199
0.299704
0.297466
0.263490
0.302152
0.261875
0.253786
0.359770
0.305473
0.366170
0.380678
0.512236
0.466763
0.485756
0.462364
0.492709
0.522703
0.516482
0.552499
0.593586
0.540750
0.567406
0.578493
0.482936
0.559361
0.422261
0.563226
0.579126
0.474081
0.519776
0.369327
0.467966
0.457917
0.422412
0.461924
0.510890
0.370791
0.354504
0.311417
0.364121
0.280542
0.154721
0.188378
0.146072
0.266238
0.216693
0.176452
0.172646
0.217331
0.141508
0.087797
0.185850
0.128617
0.048837
0.154841
0.058977
0.106442
0.076055
0.145582
0.053573
0.069151
0.137044
0.089329
0.082614
0.061724
0.183743
0.130100
-0.001914
0.057058
0.119701
0.043988
0.037400
0.030671
0.039771
0.045094
0.080795
0.061487
0.055367
0.083440
-0.000043
0.035093
0.031490
0.121038
0.052335
0.079129
0.032572
0.048235
0.081104
0.020954
0.089128
0.006272
0.034359
0.070174
0.004647
0.069926
0.102802
0.090046
0.053651
0.080254
-0.035897
0.069686
0.114611
0.047436
0.013946
0.050060
0.037332
0.088159
-0.009392
0.161224
0.021043
0.012070
0.073921
0.148991
0.117100
0.093195
0.140050
0.107824
0.141699
0.125211
0.153260
0.143254
0.113662
0.070852
0.130501
0.147161
0.202166
0.179375
0.233884
0.224075
0.251701
0.285841
0.272588
0.193296
0.276485
0.269709
0.300097
0.287716
0.313745
0.225658
0.285796
0.283194
0.229340
0.227006
0.095281
0.230952
0.215595
0.237960
0.175177
0.110519
0.181200
0.224578
0.124886
0.139104
0.078326
0.131705
0.139689
0.085449
0.095101
0.123012
0.177770
0.106376
0.051644
0.020682
0.026849
0.019384
-0.017461
0.021981
0.170459
0.071490
0.144807
0.051909
0.080909
0.121438
0.331330
0.601391
0.879554
1.190459
1.500000
1.443874
1.344162
1.088227
0.707713
0.335152
0.022266
-0.093819
-0.243867
-0.159664
-0.023409
0.044849
0.070961
0.091095
0.052416
0.165319
0.099125
0.099924
0.099334
0.167941
0.131062
0.120922
0.173679
0.114832
0.137890
0.192958
0.142297
0.269751
0.233813
0.327155
0.255960
0.295164
0.283463
0.272608
0.232538
0.346396
0.307528
0.529057
0.478610
0.381609
0.459431
0.413096
0.597791
0.467864
0.529196
0.516147
0.575418
0.539507
0.571317
0.610525
0.565158
0.564720
0.563965
0.581482
0.558123
0.559670
0.616594
0.545083
0.592195
0.539913
0.513167
0.565736
0.569574
0.538709
0.505301
0.483567
0.493933
0.495571
0.404206
0.345225
0.236500
0.364588
0.300975
0.260457
0.260401
0.263292
0.172656
0.256364
0.253051
0.168571
0.113338
0.205219
0.082606
0.213228
0.139291
0.056399
0.224939
0.090633
0.121838
0.056677
0.100915
0.121631
0.146741
0.040724
0.116667
0.084742
0.046530
-0.001301
0.154838
0.077509
0.023011
-0.011745
0.080028
-0.002427
0.076739
0.097703
0.040695
0.030978
0.077719
0.059551
0.124224
0.143707
0.060649
0.047462
0.131387
0.133222
0.111568
0.080195
0.038285
0.066578
0.085537
0.101254
0.120254
0.076354
0.054463
0.044051
0.065009
0.055902
0.080651
0.148518
0.086328
0.068340
0.113994
0.095277
0.073619
0.092397
0.028223
0.054207
0.070493
0.106172
0.123113
0.043408
0.096124
0.055692
0.094134
0.056038
0.165356
0.093114
0.060786
0.075665
0.087683
0.157193
0.177122
0.114447
0.175879
0.166484
0.142397
0.101226
0.166297
0.145764
0.206651
0.143219
0.142945
0.206795
0.247529
0.146660
0.163451
0.165169
0.255622
0.122031
0.185068
0.157859
0.207801
0.232504
0.204611
0.133675
0.126344
0.163206
0.143793
0.088537
0.057929
0.095959
0.167141
0.077379
0.050310
0.129382
0.063776
0.104105
0.084949
0.046553
0.100534
0.006512
0.087316
0.099982
0.033560
0.009119
0.049927
0.050490
0.072046
0.043779
0.013430
-0.014148
0.034689
0.101850
0.164402
0.448783
0.735707
1.031360
1.252141
1.453306
1.258297
1.068362
0.729108
0.368455
0.107070
-0.088728
-0.222670
-0.314811
-0.131228
-0.181573
0.018498
-0.021931
0.006633
0.056510
0.097124
-0.027567
0.034072
-0.005627
0.034447
0.032856
0.032170
0.142528
0.035376
0.091778
0.043932
0.154132
0.061017
0.076820
0.191814
0.205875
0.230763
0.236036
0.199291
0.172339
0.220399
0.333034
0.353483
0.327903
0.308176
0.297186
0.387498
0.444174
0.449092
0.381269
0.366291
0.542564
0.484681
0.486752
0.494499
0.492733
0.588313
0.516368
0.502213
0.531992
0.388039
0.415999
0.405642
0.449432
0.540383
0.420644
0.364436
0.410572
0.444643
0.383453
0.298664
0.335653
0.287154
0.256784
0.247486
0.266285
0.162803
0.192794
0.106742
0.156453
0.160474
0.138458
0.133423
0.074104
0.100940
-0.069689
0.107409
0.015147
0.018997
-0.048301
-0.018330
0.009174
-0.030681
-0.030044
-0.013118
0.110561
-0.022087
-0.001624
-0.021621
-0.092800
-0.017102
0.047974
-0.078064
-0.030321
-0.071981
-0.114021
0.009659
-0.125205
-0.065105
-0.080840
-0.039632
0.019433
-0.023361
-0.035309
-0.052948
-0.068918
-0.003620
-0.010917
-0.034719
-0.101953
-0.051112
-0.101103
-0.094859
-0.059989
-0.091696
-0.041185
-0.080900
-0.052441
-0.045570
0.018314
-0.068733
-0.062548
-0.036882
-0.177566
-0.091419
-0.050589
-0.010786
-0.016455
-0.083762
0.041532
-0.090949
-0.085627
-0.118900
-0.056781
-0.108218
0.025580
-0.034901
-0.048208
-0.021836
-0.068950
-0.109742
-0.047682
-0.038137
-0.044321
0.008847
0.000268
-0.008269
-0.008059
0.034503
0.019216
0.067559
0.047825
0.014015
0.048628
0.030838
0.070364
0.073616
0.094048
0.091582
0.067411
0.059512
0.155796
0.114309
0.154716
0.025433
0.105004
0.125796
0.128440
0.011055
-0.013966
0.005073
0.083678
0.067784
0.004886
0.015692
0.005247
0.038948
-0.019201
-0.053151
-0.059060
-0.070284
-0.092076
-0.006611
-0.082454
-0.011894
-0.004226
-0.046833
-0.109446
-0.078698
-0.048431
-0.086272
-0.132761
-0.068604
-0.117231
-0.128797
-0.137919
-0.088123
-0.117965
0.053088
0.328533
0.552689
0.808939
1.167990
1.274168
1.280206
1.107152
0.753005
0.438331
0.125235
-0.194731
-0.275481
-0.320158
-0.304562
-0.253012
-0.172068
-0.132327
-0.131331
-0.086115
-0.048227
-0.068694
-0.033438
-0.021993
-0.072920
-0.028146
0.068729
-0.053956
0.040116
-0.095192
0.076659
-0.008546
0.130511
0.115632
0.080235
0.083603
0.035743
0.138614
0.086658
0.179980
0.185886
0.178318
0.208576
0.282724
0.302378
0.296623
0.251189
0.359292
0.325812
0.364067
0.358985
0.402464
0.523514
0.371142
0.401397
0.427708
0.425557
0.477773
0.425061
0.458104
0.416929
0.467738
0.450732
0.447480
0.405865
0.345299
0.376756
0.345137
0.373549
0.360967
0.333215
0.231451
0.217355
0.240084
0.198249
0.264493
0.149044
0.154243
0.094632
0.060209
0.053583
0.106848
0.168672
0.093577
0.018625
0.019978
0.021216
0.042218
0.055395
0.081632
-0.055024
-0.056563
-0.011978
-0.048509
-0.030550
-0.122771
-0.025194
-0.152974
-0.041398
-0.113969
-0.011642
0.000101
-0.099798
-0.052828
-0.017237
-0.048159
-0.068245
-0.024872
-0.043900
-0.047204
-0.058545
-0.098240
-0.129745
-0.040441
-0.034663
-0.079999
-0.053684
-0.002792
-0.031338
-0.023093
0.018354
-0.062226
-0.010592
-0.047917
-0.089144
-0.040533
-0.046779
-0.019813
-0.122484
-0.004951
-0.073941
0.055823
-0.023599
0.011472
-0.115831
0.023723
-0.050965
-0.065577
-0.057924
-0.053491
-0.010666
-0.132235
-0.012193
-0.003073
-0.072770
-0.068228
0.000687
0.007640
-0.060438
-0.029134
0.013654
-0.010692
-0.001651
-0.024925
-0.002959
0.006805
-0.044608
0.001957
0.047413
0.111841
0.153533
0.060076
0.027754
0.140537
0.186197
0.053795
0.078315
0.127567
0.210256
0.203560
0.162920
0.168457
0.104575
0.121764
0.177669
0.174137
0.224040
0.135760
0.207646
0.226819
0.133169
0.005776
-0.008532
0.060620
0.087963
0.122085
0.025774
0.038649
0.006264
0.052023
0.000770
-0.041036
0.015872
0.024890
-0.000913
0.098569
0.015301
-0.074782
0.031796
-0.043437
-0.113727
-0.087703
-0.110465
0.003410
0.004638
0.036009
-0.098785
0.025774
0.098246
0.258978
0.357595
0.793243
1.122580
1.382244
1.329677
1.261667
1.011334
0.585891
0.180103
-0.023184
-0.132778
-0.308718
-0.293893
-0.054665
-0.020234
-0.061412
-0.013521
-0.002393
0.023259
0.009592
-0.038038
0.064803
-0.037261
0.070296
0.105796
0.054653
0.098951
0.067541
0.081190
0.108980
0.149707
0.072960
0.163186
0.215598
0.190907
0.145183
0.182588
0.287580
0.276151
0.304060
0.279009
0.322300
0.273837
0.379940
0.449959
0.395273
0.447229
0.421731
0.503831
0.574009
0.528804
0.463019
0.446269
0.580571
0.564690
0.506836
0.447158
0.538278
0.553812
0.562821
0.425185
0.533406
0.497939
0.503272
0.454117
0.506123
0.422220
0.484743
0.414884
0.308683
0.334377
0.295082
0.324170
0.289054
0.250639
0.275873
0.241996
0.235476
0.145993
0.145227
0.204821
0.189332
0.087500
0.214491
0.127842
0.170280
0.099157
0.047871
0.090920
0.077497
0.059332
0.073736
0.073006
0.076958
0.031528
0.047764
0.081199
0.038660
0.157705
0.025394
0.082436
0.084046
0.025833
0.080739
0.046588
-0.022435
0.092726
0.082623
-0.019497
0.018568
0.037466
0.060174
0.142753
-0.000895
0.066809
0.080641
0.077293
0.076620
0.078421
-0.049043
0.010877
0.009501
0.000249
0.040768
0.001208
-0.046200
0.081454
0.036603
0.117553
0.035909
0.108121
0.056483
0.058822
-0.008101
0.102979
0.033980
0.067419
0.048496
0.093523
0.091280
0.040978
0.062804
0.046185
-0.027374
0.130510
0.022378
0.065690
0.077710
0.013870
0.087394
0.102656
0.083507
0.157816
0.143324
0.120035
0.116598
0.011356
0.162137
0.113551
0.020821
0.151054
0.214686
0.217812
0.255824
0.226441
0.214456
0.235354
0.179128
0.223354
0.190498
0.283410
0.237689
0.229516
0.162544
0.199556
0.137539
0.124669
0.148408
0.183718
0.125543
0.056424
0.141874
0.129815
0.127463
0.069379
0.074702
0.012203
0.097355
0.073767
0.135342
0.042063
0.059899
0.145389
0.047680
0.050039
0.053963
0.063241
0.098709
-0.064477
-0.007975
-0.026516
0.035707
-0.062642
-0.015948
0.047271
0.061094
0.080866
0.133749
0.479283
0.744311
1.032323
1.243239
1.400262
1.368791
1.040431
0.780010
0.397924
0.023305
-0.139521
-0.225773
-0.175220
-0.227384
-0.092465
0.006293
0.052101
0.108288
0.084123
0.023357
0.095545
0.121873
0.054525
-0.006292
0.074923
0.101859
0.118685
0.090799
0.155761
0.057138
0.071765
0.133465
0.178951
0.174335
0.225291
0.127481
0.239849
0.404726
0.384941
0.358724
0.306979
0.353983
0.388601
0.381591
0.420525
0.413036
0.515459
0.505690
0.410392
0.467493
0.442995
0.484813
0.537591
0.523290
0.523001
0.503028
0.617878
0.563744
0.521867
0.564016
0.523477
0.494927
0.532197
0.399479
0.474171
0.483816
0.349301
0.436350
0.406411
0.338177
0.312498
0.313597
0.299548
0.240454
0.272567
0.137440
0.251302
0.207393
0.183254
0.114177
0.189644
0.139147
0.156560
0.147493
0.127360
0.079366
0.102805
0.085320
0.040356
0.008565
0.031903
0.085656
0.109610
0.043976
0.050447
0.025280
0.120520
-0.012228
0.094824
-0.003069
-0.003859
0.009959
0.011776
0.038112
0.083518
0.012724
-0.011707
-0.035205
0.115181
0.022483
-0.006816
0.021329
-0.076997
0.061370
0.001159
-0.031294
0.044629
-0.038629
-0.001432
-0.023068
-0.015537
-0.020633
-0.019845
-0.129082
-0.079957
-0.131379
-0.047076
-0.058554
-0.015775
0.020275
0.046526
-0.008327
0.071164
-0.055025
0.036215
0.012043
-0.039146
0.002912
-0.159269
-0.041569
-0.015530
0.011503
-0.027280
-0.030630
0.007139
0.032634
0.055913
-0.055586
-0.004980
0.045834
-0.032170
-0.008018
0.063000
-0.045574
0.035055
0.138538
-0.031410
-0.005270
0.027463
0.052706
0.060038
0.075223
0.071028
0.134974
0.019832
0.153083
0.104349
0.147412
0.232435
0.146748
0.114353
0.097278
0.125832
0.192386
0.117940
0.086179
0.136761
0.090577
0.051418
0.137840
0.068136
0.014641
0.098549
0.063256
0.005743
0.051314
-0.007580
0.029603
-0.050379
-0.065877
-0.017515
-0.083523
-0.065873
-0.069891
0.046398
-0.112816
-0.013474
-0.048489
-0.094749
0.016625
0.001729
0.010417
-0.099456
-0.030553
-0.035103
-0.087344
-0.123057
0.061939
0.230999
0.523973
0.802428
1.068673
1.281856
1.300788
1.185979
0.708468
0.410034
0.056263
-0.163693
-0.190063
-0.318627
-0.271935
-0.266184
-0.148041
-0.027326
-0.083004
-0.056095
-0.030498
-0.055189
-0.066363
-0.073999
-0.027758
-0.065291
0.027192
-0.083065
0.034667
0.007799
-0.009424
0.067540
0.094078
0.089366
0.095973
0.100985
0.124332
0.029248
0.157637
0.198657
0.147799
0.178348
0.273923
0.293570
0.262179
0.298375
0.408955
0.320569
0.357745
0.363638
0.394292
0.452935
0.356826
0.366957
0.417908
0.401755
0.440104
0.415778
0.492192
0.407767
0.417908
0.448763
0.473019
0.390685
0.446501
0.389134
0.345312
0.243225
0.324046
0.296403
0.324620
0.191042
0.286801
0.222322
0.212371
0.274586
0.152556
0.131393
0.095062
0.036459
0.026820
0.059147
0.047062
0.012399
-0.018758
-0.016781
-0.080696
-0.052665
-0.033702
-0.062762
-0.103253
-0.012145
-0.025777
-0.155243
-0.112897
-0.080294
-0.142910
-0.106064
-0.164178
-0.094970
-0.121019
-0.053874
-0.141803
-0.074291
-0.066186
-0.088258
-0.046698
-0.091367
-0.090448
-0.092646
-0.100928
-0.091115
-0.044014
-0.035556
-0.127367
-0.091294
-0.049033
-0.068659
-0.105249
-0.084005
-0.131447
-0.118131
-0.107955
-0.102348
-0.105409
-0.142838
-0.070449
-0.083354
-0.058126
-0.099624
-0.037954
-0.076763
-0.083663
-0.077466
-0.052288
-0.146301
-0.098871
-0.117143
-0.146794
-0.113722
-0.110462
-0.106357
-0.088975
-0.115024
-0.145390
-0.104914
-0.045126
-0.067386
-0.068426
-0.055443
-0.133321
-0.112182
-0.016075
-0.018665
-0.062846
0.026796
-0.054076
-0.193728
-0.090340
-0.061433
-0.089395
0.008562
-0.024898
0.025604
0.051510
0.100609
0.004868
0.079115
0.101411
0.059131
0.172492
0.031151
0.070608
0.113196
0.080840
0.138415
0.028204
0.072658
-0.002706
-0.025788
0.017921
0.014920
0.019456
0.056724
-0.003058
0.027288
-0.062956
-0.048542
-0.014526
-0.074658
-0.055256
-0.070390
-0.001088
-0.143847
-0.075269
-0.097814
-0.032157
-0.115342
-0.071568
-0.072351
-0.034806
-0.077333
-0.149793
-0.077429
-0.124528
-0.102877
-0.156228
-0.117578
-0.067605
0.079792
0.436070
0.643887
1.045316
1.299172
1.358027
1.195007
0.926334
0.560580
0.196218
-0.118977
-0.301765
-0.384008
-0.275481
-0.318315
-0.209953
-0.108283
0.034874
-0.028807
0.020814
-0.031408
-0.070798
-0.005839
-0.034946
-0.077781
-0.066760
-0.005620
0.007376
0.029826
0.017320
0.021718
0.002662
0.078489
0.059877
0.102495
0.101015
0.176722
0.126112
0.116840
0.168262
0.270609
0.276179
0.217601
0.267124
0.310890
0.321404
0.369855
0.483531
0.430768
0.414461
0.370641
0.462720
0.410122
0.406109
0.474254
0.453491
0.480804
0.459189
0.540068
0.344464
0.391885
0.426127
0.451635
0.491954
0.501589
0.435987
0.401045
0.264102
0.323147
0.375307
0.285729
0.369535
0.296083
0.261811
0.227791
0.172666
0.259425
0.131040
0.225157
0.182285
0.082444
0.169785
0.164496
0.062768
0.014581
0.012904
0.015131
0.019018
0.094863
-0.026395
0.057055
-0.055313
-0.002106
0.035763
0.067595
-0.000947
-0.054130
-0.036533
-0.035131
-0.053689
0.005222
0.085380
0.019644
-0.020700
-0.053393
-0.008561
-0.032455
-0.018473
0.017431
-0.045097
-0.023368
0.076615
-0.069370
0.038255
-0.026120
-0.093948
0.029552
0.029518
-0.112438
-0.016179
0.072089
-0.034744
0.110811
-0.013786
0.027312
-0.001558
0.017531
-0.006108
0.032417
-0.068412
0.080083
-0.094692
0.057241
-0.073568
-0.017634
-0.005627
-0.008449
-0.052526
-0.004018
-0.101151
-0.045857
-0.014532
0.020216
0.030590
-0.048795
0.018080
0.083591
-0.015567
-0.104613
0.079429
0.045000
-0.019982
0.013129
0.055770
0.041733
0.051233
0.047613
0.042914
0.058578
0.065050
0.088244
0.106366
0.139193
0.088880
0.126481
0.113238
0.151678
0.201694
0.238611
0.172856
0.170732
0.173744
0.207870
0.184498
0.089819
0.227244
0.210304
0.282383
0.114140
0.116784
0.194723
0.192966
0.065531
0.100947
0.231556
0.053154
0.134091
0.100271
0.023806
0.098248
0.056297
0.136186
-0.001216
0.052015
0.137133
0.028243
-0.026616
-0.030749
0.021205
-0.004858
0.015099
0.041568
0.039177
0.047178
0.003465
0.117126
0.065636
0.102733
0.272533
0.464546
0.764194
0.995076
1.350267
1.453282
1.401697
1.124797
0.818537
0.411622
0.038385
-0.188846
-0.284649
-0.181930
-0.106487
0.013567
-0.106849
0.094959
0.089584
0.075994
0.067945
0.000557
0.078676
0.133995
0.072470
0.097773
0.098942
0.124207
0.066235
0.093490
0.141089
0.107063
0.138674
0.265964
0.213324
0.239652
0.239887
0.293277
0.277838
0.363723
0.317684
0.288797
0.356694
0.440324
0.431528
0.487731
0.461402
0.571186
0.443206
0.506741
0.461315
0.479260
0.481608
0.536927
0.573073
0.586561
0.576978
0.577822
0.614040
0.600503
0.539977
0.648530
0.524459
0.510816
0.581764
0.558031
0.555684
0.487551
0.482253
0.458613
0.429492
0.504888
0.424312
0.322361
0.336708
0.291719
0.303433
0.264929
0.257675
0.163132
0.241710
0.210407
0.237890
0.194706
0.244790
0.167888
0.157060
0.119390
0.178484
0.093652
0.211701
0.079125
0.042658
0.059573
0.115521
0.045417
0.046171
0.076398
0.070576
0.059682
0.115968
0.108535
0.128826
0.004527
0.100819
0.066838
0.078999
0.052439
0.047924
-0.014431
0.108191
0.006892
0.092493
0.057107
0.086169
0.110411
0.136271
0.039493
0.107252
0.086428
0.080712
0.067364
0.004382
0.088130
0.121508
0.014756
0.098164
0.078953
0.079290
0.012750
