-0.071211
-0.019673
-0.002445
-0.046846
0.063226
0.018654
-0.026630
0.041377
0.046556
0.005918
0.020058
0.024905
0.022511
0.062697
-0.051416
-0.017441
0.065139
0.022384
0.017699
0.002360
0.021008
0.009736
0.050961
0.016142
0.042910
-0.009382
0.040877
0.059720
0.028830
-0.004816
0.022750
0.011062
-0.012530
-0.022394
0.026190
0.052461
0.049005
0.057536
0.055568
0.049502
0.081321
0.081519
0.146992
0.067724
0.136875
0.172956
0.198895
0.084856
0.131162
0.143612
0.184972
0.136371
0.195520
0.101671
0.277600
0.283872
0.296713
0.166357
0.240169
0.127730
0.139337
0.184470
0.210433
0.150303
0.135372
0.116438
0.085237
0.206329
0.105017
0.019390
0.082897
0.044128
0.080584
0.113102
0.126354
0.037838
0.062516
0.056457
0.091940
0.038837
0.020663
0.064740
0.118818
0.066212
0.045423
0.072021
0.051845
0.043787
-0.029708
0.059646
0.074428
0.040067
0.067926
0.036946
0.023012
0.067989
0.013251
-0.050721
-0.020032
0.069742
0.197002
0.407380
0.616332
1.005722
1.354058
1.446977
1.346133
1.261219
0.969141
0.576570
0.283350
0.018931
-0.142654
-0.250296
-0.184466
-0.192155
-0.126795
-0.091845
-0.023217
0.096680
0.014426
0.031690
0.062559
0.068413
0.028333
0.080878
0.069282
0.119970
0.093803
0.036606
0.171632
0.029955
0.124557
0.022741
0.216185
0.131469
0.091725
0.183028
0.078784
0.163021
0.143147
0.093302
0.137010
0.151263
0.208644
0.193305
0.187049
0.185741
0.236812
0.260080
0.232806
0.218937
0.310210
0.394875
0.370600
0.368190
0.395727
0.378608
0.376994
0.387457
0.492639
0.487796
0.396973
0.495159
0.513739
0.525227
0.447227
0.560478
0.580164
0.546592
0.549283
0.559022
0.536488
0.527576
0.588185
0.520930
0.483438
0.532673
0.494685
0.447387
0.467115
0.483599
0.371732
0.404744
0.410128
0.434435
0.407245
0.449907
0.324440
0.298554
0.245066
0.252290
0.267637
0.167529
0.235499
0.134681
0.209127
0.179802
0.143504
0.147900
0.196580
0.194789
0.125744
0.152431
0.181076
0.095038
0.094612
0.154459
0.062934
0.065691
0.113940
0.100172
0.091470
0.052622
0.103747
0.169606
0.081592
0.027412
0.090817
-0.000078
0.138351
0.062382
0.057080
0.104167
0.136159
0.102981
0.086026
0.003178
0.118795
0.023827
0.105891
0.085429
0.081113
0.135592
0.047850
-0.018341
0.106446
0.061416
0.027193
0.114920
0.079503
0.077939
0.045002
0.093671
0.024577
0.140954
0.042859
0.075816
0.067815
0.131206
0.033729
0.019873
0.066718
0.092955
0.061313
0.141804
0.044323
-0.037132
0.043983
0.048410
0.123328
0.107758
0.033406
0.091926
0.023567
0.099868
0.075429
0.094975
0.101106
0.098134
0.115664
0.029384
0.082925
0.067937
0.105761
0.027722
0.061124
0.003783
0.027900
0.089071
0.098408
0.007717
0.041879
0.039181
0.083294
0.041421
0.071518
0.097949
0.011952
0.069712
0.072381
0.148743
-0.000847
0.012133
0.084557
0.054402
0.092561
0.003684
0.136379
0.124965
0.097657
0.020668
0.136561
0.119028
0.146050
0.123742
0.120729
0.221249
0.135586
0.148639
0.197859
0.200213
0.264815
0.229061
0.155527
0.194451
0.237651
0.207676
0.175988
0.124795
0.173231
0.192687
0.223796
0.201821
0.215031
0.136395
0.173248
0.117139
0.128548
0.143437
0.079020
0.074051
0.108939
0.101332
0.064255
0.071370
0.088359
-0.025246
0.055702
0.077736
-0.005338
0.097684
0.088955
-0.014048
0.027629
0.048732
0.046952
0.022000
-0.033710
0.039686
0.020614
0.077473
0.024589
0.083354
-0.060325
-0.012677
0.148011
0.074219
0.032139
-0.057587
-0.028726
-0.050246
-0.012129
0.138108
0.282532
0.575541
0.869462
1.252946
1.393902
1.301965
1.212191
0.965076
0.619737
0.299658
0.039091
-0.144353
-0.285926
-0.233618
-0.252969
-0.181643
-0.048940
-0.040235
-0.015460
-0.018647
0.029131
-0.042077
0.018886
0.037601
0.043680
0.033220
-0.011857
0.096478
0.083746
0.010730
-0.020865
0.042694
0.037746
0.010724
0.063704
0.055487
0.078068
0.076684
0.030992
0.042352
0.121205
0.043122
0.071228
0.143718
0.144788
0.108601
0.175779
0.177065
0.163953
0.176582
0.240930
0.233707
0.281310
0.249060
0.286633
0.282997
0.314364
0.318547
0.400551
0.355922
0.278508
0.419523
0.386368
0.465151
0.411603
0.426729
0.489647
0.462011
0.460456
0.476754
0.423941
0.439322
0.517160
0.449734
0.469563
0.448941
0.532935
0.458779
0.388096
0.422996
0.294614
0.380690
0.365523
0.371380
0.269012
0.254996
0.294898
0.239303
0.236178
0.163095
0.203257
0.184300
0.109656
0.129153
0.139782
0.062441
0.079355
-0.016652
0.079617
0.039583
-0.012907
0.072322
0.019519
0.055222
-0.008876
-0.062002
-0.012765
0.013811
0.039448
-0.016235
-0.021006
0.014133
0.003265
0.031143
-0.023231
-0.015783
-0.017832
-0.039412
-0.035240
0.006916
0.006851
-0.055576
-0.009504
-0.092659
0.017634
-0.046056
-0.047099
0.003290
-0.054214
-0.010345
0.056623
-0.001551
-0.043241
-0.060325
0.026860
-0.059873
-0.001560
0.009157
-0.038705
-0.037790
-0.056804
-0.006051
-0.113789
-0.028925
-0.038229
-0.027091
-0.026898
-0.021731
-0.072279
-0.040805
-0.052597
0.016213
-0.037555
-0.024057
-0.041307
-0.002815
-0.062717
-0.064459
0.042766
-0.050267
0.009770
0.026423
-0.025305
0.009354
-0.040665
-0.073050
-0.013755
-0.091610
-0.043708
-0.042422
-0.059591
-0.077084
-0.036232
-0.005405
-0.060932
0.016509
-0.017610
-0.023638
-0.067211
-0.071180
-0.083761
-0.003171
-0.052929
-0.061681
0.044295
-0.066349
-0.025165
-0.017597
-0.023187
0.002180
0.046933
0.004447
-0.001759
-0.022105
-0.070661
-0.023573
-0.068871
-0.006796
-0.127302
-0.057729
-0.018260
-0.016090
0.010977
0.018661
0.011663
0.047969
0.027873
0.026186
0.106305
0.138501
0.081783
0.079544
0.118030
0.128844
0.131618
0.095626
0.169669
0.185051
0.083005
0.087652
0.159669
0.069735
0.174349
0.098907
0.111217
0.004152
0.068012
0.040235
-0.039238
0.078893
-0.012321
0.047883
0.072044
0.063421
-0.063268
-0.049741
-0.027673
-0.063829
0.025973
0.005695
-0.062198
-0.060545
-0.060112
-0.032738
0.022170
-0.036790
-0.048277
-0.000551
-0.055228
0.000231
-0.079448
-0.082340
-0.072146
-0.100511
-0.078387
-0.066345
-0.080576
-0.086361
-0.054460
-0.096159
-0.134615
-0.120874
0.062528
0.252280
0.571813
0.875201
1.045445
1.237247
1.318534
1.148889
0.856975
0.571898
0.341720
0.124075
-0.169555
-0.290234
-0.337955
-0.250409
-0.178131
-0.200349
-0.080557
-0.073561
0.026302
-0.029017
-0.109371
0.016103
-0.066098
0.002476
-0.037428
0.050867
-0.029487
-0.125999
-0.002622
0.048315
-0.001192
-0.013520
0.087468
0.016992
-0.088727
-0.012698
-0.069416
-0.018811
0.048883
0.017459
0.021481
0.055692
0.046687
0.076864
0.077661
0.127784
0.114619
0.159612
0.235090
0.177817
0.158154
0.251686
0.292052
0.241939
0.241838
0.290841
0.305778
0.335409
0.350336
0.367764
0.411217
0.329651
0.429556
0.581425
0.464752
0.473735
0.461583
0.475317
0.421317
0.467192
0.485953
0.467555
0.530448
0.479004
0.447234
0.519066
0.446925
0.407901
0.389414
0.342781
0.363467
0.385930
0.286170
0.350150
0.349349
0.277955
0.266974
0.327503
0.305930
0.228331
0.259662
0.216829
0.162095
0.188647
0.142504
0.167912
0.073306
0.082477
0.142591
0.138530
0.084682
0.010148
0.013167
0.093757
0.050354
-0.021144
0.016789
0.091069
0.028672
0.063910
-0.059984
-0.011617
0.041449
0.054368
0.063442
0.026886
-0.024960
0.039760
0.001793
0.039102
-0.079710
0.012133
0.057098
0.069127
0.023344
0.031959
-0.011234
0.094869
0.055514
0.036974
-0.033330
0.020748
0.003256
0.057659
0.047601
0.014335
0.004542
-0.011876
0.055420
0.102123
0.096736
0.037274
-0.024278
0.066994
0.014621
0.064708
-0.010396
0.061963
0.043808
0.015123
0.079676
0.030378
0.014608
0.050978
0.118966
0.018601
0.061158
0.149683
-0.046005
0.151132
0.075832
0.051996
0.095562
0.003527
0.053715
0.021103
0.048011
0.064205
-0.000783
0.075216
0.010686
0.072904
-0.000367
0.089082
0.005036
-0.000153
0.094960
0.025176
0.036520
0.083246
0.070118
0.030081
0.089163
0.053670
0.060187
0.070649
0.074135
0.041532
0.001592
0.079407
0.092313
0.103525
0.058371
0.091720
0.004817
0.110199
0.021928
0.153041
0.107836
0.126954
0.078519
0.097864
0.110408
0.221810
0.165690
0.161119
0.214898
0.308272
0.181057
0.216857
0.178941
0.251600
0.266851
0.213006
0.257603
0.205448
0.263186
0.273152
0.196689
0.199987
0.214303
0.276886
0.182598
0.188915
0.186090
0.192423
0.149566
0.166842
0.095869
0.133875
0.173229
0.142231
0.080087
0.129280
0.080378
0.108331
0.074079
0.069536
0.080898
0.061097
0.081166
0.039488
0.022160
0.089875
0.041528
0.057072
0.163174
0.060556
0.041790
0.098789
0.089435
0.067477
0.122853
0.087499
0.067419
0.112258
0.072328
0.023472
-0.040747
-0.045640
0.015528
0.090645
0.367415
0.522881
0.957991
1.177842
1.374155
1.500000
1.297834
1.061435
0.781893
0.445158
0.170220
-0.040671
-0.247551
-0.228118
-0.161024
-0.065180
-0.063256
0.041201
0.057233
0.136093
0.023587
0.141567
0.104458
0.141775
0.100315
0.073762
0.088329
0.120570
0.102970
0.137121
0.109942
0.041760
0.168863
0.043534
0.174359
0.009423
0.085669
0.152774
0.175833
0.140666
0.147528
0.090876
0.241747
0.258610
0.169253
0.150449
0.213171
0.233317
0.292619
0.329374
0.350132
0.287743
0.330811
0.325200
0.351761
0.355699
0.385282
0.412224
0.319030
0.485070
0.484503
0.426458
0.445147
0.523824
0.519396
0.509290
0.590328
0.552353
0.427674
0.534559
0.511666
0.533375
0.622143
0.512630
0.490236
0.516552
0.488393
0.514217
0.502686
0.517918
0.486078
0.439290
0.388751
0.411230
0.377392
0.412481
0.390700
0.364430
0.287699
0.313423
0.333925
0.287287
0.287220
0.238791
0.178711
0.228030
0.193082
0.239034
0.167620
0.133451
0.205584
0.101650
0.152266
0.113999
0.125260
0.018587
0.145926
0.146115
0.107652
0.111094
0.055904
0.130513
0.115224
0.134382
0.050484
0.004322
0.070093
0.042994
0.047863
0.052889
0.079275
0.079074
0.071613
0.073064
0.121413
0.057450
0.124638
0.097018
-0.009644
0.068071
0.070081
0.139232
0.117753
0.018387
0.033491
0.075070
0.036445
0.051419
0.048247
0.003693
0.065336
0.027835
0.066757
0.080571
0.107205
0.078461
0.016524
0.028719
0.067847
0.007463
0.033968
0.144073
0.031482
0.091653
0.082185
0.050893
0.044044
0.069169
0.023218
0.091449
0.084315
0.139500
0.037004
0.097208
0.015541
0.022560
0.017195
0.077479
0.062205
0.055997
0.019886
-0.012305
0.098557
-0.060391
0.036322
0.019871
0.112875
0.023575
0.035885
0.007337
0.055114
0.070520
0.067156
-0.017068
0.031333
0.027809
0.038857
0.006119
0.045390
0.002823
0.002491
-0.003095
-0.015131
0.002332
-0.005868
0.057657
0.032750
0.099495
0.035218
0.048855
0.071650
0.219318
0.086602
0.114942
0.197208
0.086477
0.072050
0.111208
0.180454
0.139249
0.265795
0.217788
0.226504
0.147539
0.184543
0.215844
0.176234
0.203613
0.153019
0.178180
0.157275
0.172899
0.140853
0.186871
0.145261
0.208726
0.090899
0.166885
0.101048
0.090955
0.090162
0.001718
0.001392
0.034816
0.008293
-0.033218
-0.003513
0.014608
0.011076
0.013428
0.052187
0.039298
0.001101
-0.007798
0.003060
0.012402
0.046528
-0.072705
-0.037033
-0.049328
0.084392
0.017167
0.046003
-0.032983
-0.013734
0.046349
-0.008794
-0.025465
-0.018154
-0.004905
-0.121429
-0.045564
0.017922
0.163114
0.333359
0.709496
1.035027
1.320443
1.321645
1.302187
1.037821
0.779083
0.330902
0.154990
-0.160030
-0.291773
-0.305962
-0.266227
-0.298783
-0.163437
-0.044546
-0.030359
0.011286
-0.035128
-0.017023
0.060749
0.016752
0.042928
-0.024459
-0.015121
-0.024625
-0.037703
-0.041158
-0.034514
-0.056209
0.012880
-0.014032
0.000356
-0.033886
0.047766
0.034832
0.116156
0.063304
-0.050339
0.133567
0.063261
0.041802
0.086117
0.096671
0.105830
0.112473
0.143982
0.114353
0.209002
0.234077
0.160100
0.227053
0.242451
0.258452
0.243365
0.319384
0.282252
0.325592
0.310205
0.314546
0.415994
0.453909
0.397146
0.383609
0.383791
0.385051
0.442917
0.440425
0.438524
0.438673
0.414229
0.448692
0.413507
0.375903
0.394502
0.431484
0.380041
0.329270
0.373787
0.353149
0.329663
0.274914
0.260213
0.217991
0.211333
0.261316
0.187992
0.079597
0.176303
0.190338
0.113058
0.064947
0.011883
0.116916
0.088468
0.053441
0.077694
0.015576
-0.062653
0.045967
0.033337
0.082246
-0.038288
-0.058301
-0.001173
0.035814
-0.084121
-0.035282
-0.014675
0.019813
-0.100535
-0.070544
-0.079705
-0.036613
-0.060403
-0.094967
-0.065990
-0.075522
-0.038633
-0.030819
-0.093805
-0.084355
-0.039089
-0.099138
-0.137421
-0.128923
-0.043790
-0.072611
-0.082647
-0.072564
-0.026664
-0.068474
-0.049742
-0.106368
-0.030037
-0.073904
-0.091806
-0.021068
-0.050555
-0.096566
-0.022661
-0.045736
-0.097275
-0.093269
-0.094504
-0.005059
0.000203
0.040988
-0.085498
-0.049116
-0.103182
-0.091432
-0.098290
-0.060613
-0.107388
-0.016718
0.019359
-0.073599
-0.084131
-0.088262
-0.068558
-0.109626
-0.104055
-0.073466
-0.084535
-0.077506
-0.061194
-0.057881
-0.078942
-0.009524
-0.083051
-0.043157
-0.099372
-0.073842
-0.052333
-0.143671
-0.053807
-0.024408
-0.136680
-0.101613
-0.069958
-0.116374
-0.105027
-0.008472
-0.037235
-0.090701
-0.027039
-0.054642
-0.072759
-0.117360
-0.075855
-0.133252
0.020516
-0.011988
-0.023439
-0.156693
-0.047231
0.033837
-0.023778
0.008613
-0.062642
-0.013649
0.003353
-0.033045
-0.019501
0.032734
0.008938
0.025293
0.003997
0.058836
0.071317
-0.038097
0.083014
0.148932
0.057656
0.098609
0.057147
0.012025
0.063916
0.029038
0.123234
0.073885
0.012542
-0.147803
-0.005577
-0.006523
0.014299
-0.075839
-0.102851
-0.006976
-0.034745
-0.011863
-0.091577
-0.035530
-0.036015
-0.065311
-0.026777
-0.132079
-0.051996
-0.003433
-0.098169
-0.025746
-0.090311
-0.034714
-0.104089
-0.090871
-0.079254
-0.052554
-0.027004
-0.067354
-0.025112
-0.013964
0.024429
-0.115493
-0.027648
0.008702
0.012526
-0.162678
-0.135491
-0.159571
-0.037169
0.092827
0.280846
0.630337
0.918177
1.224903
1.330802
1.181306
0.973275
0.739911
0.502593
0.175003
-0.165782
-0.308144
-0.342183
-0.372006
-0.288256
-0.241617
-0.152118
-0.113143
-0.090119
-0.062511
-0.063535
-0.079371
-0.092550
-0.008457
-0.095408
0.004590
-0.043727
-0.063907
-0.078529
-0.068688
-0.040746
-0.058192
-0.106787
0.010272
-0.009451
0.015105
-0.015471
0.006604
0.011480
-0.009197
-0.013513
0.038178
0.047663
0.021634
0.049161
0.090751
0.087532
0.043145
0.087252
0.106735
0.144482
0.137601
0.254430
0.175435
0.261615
0.200480
0.276212
0.283700
0.339072
0.321102
0.374544
0.368719
0.347398
0.332144
0.363615
0.396063
0.414011
0.511582
0.488853
0.514274
0.463638
0.492840
0.435675
0.505036
0.424044
0.440475
0.459339
0.383230
0.430519
0.360450
0.379792
0.332074
0.336423
0.192171
0.291774
0.262518
0.260116
0.173991
0.225432
0.235643
0.176180
0.106995
0.150334
0.158212
0.112619
0.169940
0.129485
0.046643
0.024519
0.022781
0.078553
0.100469
0.097209
0.054331
0.132754
-0.090512
-0.010510
0.059983
-0.069727
0.037575
0.017275
0.010888
0.019272
-0.000538
-0.027323
-0.022657
-0.005056
0.033337
-0.014671
-0.001327
0.031059
0.022783
0.035307
0.012176
0.073677
-0.004348
0.019329
-0.022974
0.037304
0.055770
-0.042658
-0.106424
0.064825
-0.020171
0.053992
-0.039171
0.005128
0.036169
0.043262
-0.020683
0.021096
0.021287
0.007522
0.012781
-0.044937
0.033991
0.021550
0.044016
0.059851
0.086008
-0.049620
0.076079
-0.036201
-0.006091
-0.024619
0.025414
0.034068
0.033821
-0.031100
0.012369
0.044747
-0.018865
0.040697
-0.012349
-0.011098
-0.032833
-0.001843
0.039689
-0.013260
0.035456
-0.002535
0.050332
-0.042647
0.022444
0.033977
-0.052115
0.039694
0.028333
0.075334
-0.022265
-0.014867
0.035975
0.024611
0.109187
0.023402
0.072129
0.001252
-0.011380
0.094535
0.050620
-0.029964
0.037407
0.080099
0.103581
0.007466
0.015233
0.125347
0.135034
0.047003
0.109501
0.080202
0.090407
0.140001
0.061478
0.109026
0.079957
0.119974
0.164178
0.245781
0.157917
0.165408
0.187792
0.228959
0.206419
0.254638
0.263697
0.275787
0.160316
0.256838
0.166205
0.118357
0.171261
0.169753
0.133113
0.159665
0.110333
0.144588
0.108515
0.101807
0.097456
0.064874
0.146533
0.109159
0.041434
0.093002
0.019766
0.025451
0.003893
0.110707
0.101599
0.040935
-0.005389
0.062896
0.003239
0.084726
0.053928
0.026438
0.050586
0.066103
-0.062522
0.050182
0.054676
0.066505
-0.003920
0.024115
0.131735
0.031567
0.028174
0.103425
-0.000487
-0.070804
0.008915
0.138883
0.377151
0.636800
0.974470
1.285557
1.334206
1.342374
1.120385
0.894094
0.586167
0.274090
0.021662
-0.192330
-0.182550
-0.265924
-0.253851
-0.078277
-0.026009
0.000902
0.006721
0.078976
0.058486
0.003399
0.022254
0.011552
0.027060
0.045567
0.052121
0.042239
0.058693
0.020335
0.068621
0.072029
0.185877
0.080670
0.039349
0.144709
0.148381
0.005864
0.051548
-0.022265
0.083695
0.157887
0.122285
0.080871
0.188899
0.116003
0.124771
0.144446
0.128621
0.162170
0.244871
0.256221
0.250903
0.230577
0.260372
0.279901
0.331700
0.275111
0.425863
0.392926
0.397525
0.372961
0.479285
0.442049
0.460030
0.529100
0.537368
0.508037
0.547339
0.500183
0.574612
0.599095
0.530636
0.481842
0.436563
0.476137
0.526602
0.506388
0.430504
0.428971
0.497148
0.383831
0.365335
0.393235
0.307575
0.268998
0.322138
0.295967
0.263211
0.252347
0.194181
0.239433
0.209977
0.249134
0.069102
0.166091
0.085592
0.156864
0.156667
0.202518
0.197717
0.045755
0.108704
0.101752
0.139877
0.042884
0.068497
0.116115
0.035454
0.018813
0.039251
0.006144
0.040721
0.001686
0.046494
0.088194
0.023056
-0.034120
0.037581
0.011717
0.033709
0.005313
0.090290
-0.022563
-0.052624
0.048146
-0.013989
-0.037772
0.071074
-0.006138
0.008686
-0.015720
0.041522
0.075410
0.033519
0.048194
-0.010681
0.039382
0.004343
0.014313
0.065236
0.103466
0.056062
-0.015715
0.007969
-0.029574
0.003995
0.025493
0.018976
-0.039240
0.042032
0.026627
-0.018954
0.015972
0.031733
0.002374
0.016949
-0.011385
0.072430
0.010083
-0.024847
0.032474
0.047835
-0.001489
0.011078
-0.157900
0.006788
-0.003398
0.011041
0.050451
-0.017402
0.002136
0.055806
0.018263
0.078598
-0.005000
-0.019245
-0.036994
0.000720
-0.013110
-0.074845
0.000702
0.015419
0.014588
-0.033824
-0.013062
-0.052809
-0.065943
-0.083651
0.078459
0.023261
0.026680
-0.029074
0.036103
0.003195
-0.050080
0.044749
-0.014218
0.006791
0.024417
0.041560
0.029943
0.052287
0.074855
0.088671
0.066178
0.075512
0.083889
0.068491
0.137466
0.168968
0.150274
0.127418
0.068038
0.110027
0.171161
0.223027
0.163506
0.140037
0.108598
0.130693
0.124540
0.070682
0.174486
0.043238
0.084329
-0.001630
0.029395
-0.012980
0.043130
-0.006026
0.003192
0.022337
-0.030999
0.033549
-0.002696
0.019357
0.020825
-0.013386
-0.041433
-0.018211
-0.059451
-0.037894
-0.068915
-0.097265
-0.082506
-0.116330
-0.022370
-0.028683
-0.006472
-0.079149
-0.074913
-0.052032
-0.058682
0.008821
-0.014529
-0.074693
-0.035917
-0.094290
-0.152602
-0.182811
-0.049659
0.005621
0.203487
0.495631
0.770093
1.078885
1.291437
1.274801
1.121869
0.834383
0.453837
0.219069
-0.052342
-0.260844
-0.382062
-0.352709
-0.351245
-0.247571
-0.165667
-0.150356
-0.112854
-0.128605
-0.071119
-0.052097
-0.129071
-0.037510
-0.031008
-0.016979
-0.097430
-0.015821
-0.027684
-0.101682
0.022029
0.035549
-0.060941
-0.109178
-0.060132
0.012445
0.011641
-0.111319
0.020361
0.000356
0.002090
0.046768
-0.020373
0.093900
0.032732
0.029161
0.022636
0.121015
0.121942
0.057076
0.090742
0.048238
0.140508
0.195097
0.094526
0.261846
0.275723
0.233560
0.192532
0.303548
0.262478
0.328695
0.379487
0.325357
0.316106
0.364255
0.406815
0.364329
0.401265
0.437839
0.436683
0.410671
0.476839
0.441059
0.377986
0.354206
0.348092
0.332136
0.331594
0.306035
0.304222
0.309019
0.234049
0.268229
0.265133
0.151686
0.197166
0.179767
0.120857
0.106646
0.091601
0.056600
0.094207
0.114206
0.043504
-0.026970
0.047216
0.028566
0.011252
0.011149
-0.000344
-0.035972
-0.042917
-0.099290
-0.034613
-0.074678
-0.046135
-0.005267
-0.178517
-0.077148
-0.047587
-0.085351
-0.059082
-0.021393
-0.102938
-0.120393
-0.096020
-0.078986
-0.104154
-0.126940
-0.112575
-0.103216
-0.103359
-0.040171
-0.067656
-0.083499
-0.086579
-0.115683
-0.195964
-0.136077
-0.064919
-0.076009
-0.089393
-0.161077
-0.063751
-0.077378
-0.067420
-0.083450
-0.023117
-0.158015
-0.090178
-0.082554
-0.104216
-0.078464
-0.062818
-0.164975
-0.132421
-0.162505
-0.091859
-0.039245
-0.065026
-0.069541
-0.045416
-0.115395
-0.062533
-0.114119
-0.083522
-0.169823
-0.048443
-0.068595
-0.032961
-0.119510
-0.101352
-0.111593
-0.016943
-0.111520
-0.078944
-0.217617
-0.081016
-0.100711
-0.108038
-0.076456
-0.043564
-0.055798
-0.102740
-0.029231
-0.084788
-0.048387
-0.085407
-0.029374
-0.080690
-0.013565
-0.143261
-0.138124
-0.100210
-0.109915
-0.051696
-0.018600
-0.031751
-0.034501
-0.076778
-0.121939
-0.096051
-0.103981
-0.121448
-0.130096
-0.062668
-0.110611
-0.020764
-0.048125
0.000467
-0.073035
0.023631
0.003648
0.047377
-0.018261
-0.053432
0.029301
0.085442
0.014638
0.101913
-0.000432
0.142565
0.040073
0.089246
0.054119
0.081979
0.079724
0.071960
0.053486
0.061143
0.104731
0.047120
-0.017880
0.084657
-0.024587
0.019039
-0.015448
0.016865
-0.056760
-0.026669
0.018466
-0.033486
-0.017903
-0.094695
-0.078469
-0.071427
-0.156409
-0.012681
-0.005291
-0.073399
-0.054691
-0.084610
-0.107528
-0.058988
-0.015667
-0.052244
-0.105967
-0.071504
-0.014705
-0.044894
-0.068080
-0.018108
-0.045635
-0.043268
-0.101689
-0.060168
-0.066059
-0.136863
-0.063566
-0.148686
-0.089608
0.063588
0.183732
0.477023
0.810977
1.021258
1.333555
1.319287
1.188225
0.853217
0.548284
0.234040
0.036466
-0.132547
-0.286282
-0.338348
-0.299177
-0.242913
-0.209691
-0.111573
-0.098030
0.006894
-0.050762
-0.061484
0.054143
-0.023640
-0.033501
0.000424
-0.025978
0.007072
-0.014928
-0.115740
0.073361
-0.001235
-0.067821
0.010843
0.072805
-0.010502
-0.019797
-0.019011
0.027492
-0.051798
0.093956
-0.010357
-0.012130
0.040249
0.046447
0.064382
0.063515
0.137019
0.063215
0.217262
0.102529
0.148246
0.259100
0.212564
0.252877
0.211942
0.299762
0.322587
0.330692
0.379370
0.380933
0.365783
0.372362
0.424824
0.448409
0.476176
0.421598
0.389239
0.529221
0.428690
0.465604
0.515127
0.453502
0.414720
0.422075
0.415913
0.396796
0.431479
0.354347
0.375949
0.346407
0.429933
0.407425
0.324596
0.367495
0.300752
0.304324
0.241146
0.182853
0.216861
0.237311
0.164827
0.193315
0.121432
0.113746
0.177055
0.156159
0.010660
0.058549
0.027076
0.153572
0.053694
0.007498
-0.070017
0.106548
0.087951
0.105788
0.009550
0.040243
0.048168
0.022296
-0.017619
0.161862
0.076594
0.000520
0.019026
0.016750
0.014430
-0.047527
0.007732
0.112125
-0.017802
-0.007332
0.050284
0.037225
0.016432
-0.037916
-0.024120
0.019775
0.048264
-0.091986
0.093396
0.034857
0.017056
-0.019248
0.033417
0.072762
0.077586
0.017466
-0.082789
0.003561
0.085616
0.060772
0.021851
-0.004605
0.111191
0.082838
0.027967
0.127271
0.139009
0.055051
0.068387
0.036390
0.100358
0.005280
0.011653
0.011022
0.107347
-0.010548
0.034429
-0.017315
0.023903
0.031496
0.016637
0.032730
0.071436
-0.011899
0.044654
0.054111
0.086284
0.019753
0.122421
-0.003001
0.044254
0.050104
0.094420
0.065198
-0.011266
-0.064898
0.007738
0.024777
0.061595
0.031970
0.087043
0.106997
0.071760
0.145748
-0.021795
0.085980
0.028843
0.103742
0.067965
0.049631
0.050057
0.054331
0.094891
0.109674
0.065609
0.118422
0.138709
0.034467
0.135105
0.102415
0.101770
0.132432
0.163586
0.180570
0.169686
0.169215
0.167038
0.241357
0.174201
0.254867
0.223798
0.205957
0.217094
0.233472
0.253225
0.136825
0.241783
0.141180
0.241241
0.276986
0.200572
0.189481
0.180498
0.156166
0.210328
0.227874
0.133788
0.140357
0.077975
0.112418
0.067855
0.033683
0.076100
-0.048303
0.140149
0.054229
0.005570
0.096343
0.056946
0.037593
0.126973
0.086936
0.036568
0.074840
-0.041341
0.092161
0.139313
0.102995
0.032862
0.066079
0.013880
0.098274
0.052954
-0.074777
0.008784
0.065066
0.070369
-0.026808
-0.008985
0.014203
0.268059
0.561965
0.870693
1.202243
1.335625
1.434653
1.326720
1.032498
0.795039
0.457457
0.119425
-0.135461
-0.195127
-0.209048
-0.232802
-0.184803
-0.112168
-0.071687
0.103821
0.070206
0.045764
0.075982
0.099949
0.085688
0.127203
0.137254
0.058004
0.191272
0.063731
0.143553
0.068272
