0.011422
0.080949
-0.002000
-0.025089
0.009467
-0.011946
-0.054307
0.055754
0.026916
0.058733
0.065283
0.056475
0.023814
0.021207
-0.060808
0.023629
0.024211
0.116956
0.073836
0.001809
0.124160
0.086159
0.070118
0.120689
0.045856
0.022320
0.171865
0.089065
0.157164
0.129401
0.134658
0.184483
0.248500
0.197528
0.159727
0.186411
0.213561
0.180872
0.171686
0.234878
0.222710
0.214135
0.210845
0.164961
0.182234
0.231519
0.306008
0.148227
0.174449
0.136490
0.092615
0.180912
0.129225
0.155190
0.144193
0.120883
0.082924
0.061495
0.117419
0.032298
0.026340
0.033713
0.096953
0.086882
0.105942
0.015068
0.092451
-0.013475
0.108390
-0.033194
0.047643
0.058934
0.133770
0.240457
0.442249
0.656804
1.072286
1.350045
1.432886
1.386226
1.087301
0.761634
0.403229
0.086152
-0.057231
-0.097500
-0.185021
-0.035172
0.041436
-0.007506
0.102375
0.122329
0.084466
0.112064
0.189367
0.153503
0.081333
0.211407
0.214345
0.223748
0.180481
0.202902
0.174337
0.207556
0.287754
0.244770
0.236391
0.244947
0.321430
0.316117
0.345085
0.373349
0.329664
0.432835
0.409341
0.438985
0.504647
0.456842
0.496440
0.452191
0.509715
0.608709
0.551975
0.580924
0.584137
0.618752
0.460809
0.642206
0.591479
0.669062
0.512164
0.586278
0.581133
0.592224
0.499865
0.603698
0.548302
0.390563
0.527414
0.467206
0.376785
0.434686
0.487980
0.326676
0.368388
0.417997
0.331232
0.317222
0.263422
0.215826
0.279354
0.170718
0.161763
0.282525
0.090529
0.118234
0.135858
0.158374
0.175475
0.163930
0.147378
0.083185
0.060945
0.029525
0.129405
0.081342
0.111539
0.150822
0.094892
0.134411
0.069074
0.068707
0.124360
0.156325
0.071050
0.125030
0.128269
0.060905
0.103831
0.100475
0.104960
0.167166
0.059870
0.110166
0.108641
0.089547
0.137406
0.013792
0.027342
0.042896
0.059151
0.065505
0.017235
0.150434
0.174222
0.053365
0.055259
0.043057
0.144289
0.031200
0.096865
0.130671
0.071069
0.122965
0.049479
0.089725
0.184323
0.004851
0.145433
0.067932
0.064026
0.041566
0.115676
0.137415
-0.007567
0.156085
0.123528
0.129665
0.115384
0.130596
0.230460
0.180124
0.165858
0.244805
0.212827
0.251175
0.209086
0.339949
0.260113
0.320951
0.292541
0.200748
0.373483
0.215376
0.280276
0.257713
0.270162
0.262814
0.237987
0.198622
0.198827
0.229535
0.286459
0.226624
0.202797
0.258010
0.186439
0.147755
0.136428
0.184939
0.192397
0.150103
0.127670
0.166063
0.075241
0.160468
0.055211
0.108368
0.178175
0.093308
0.186007
0.089974
0.120761
0.133786
0.086632
0.052455
0.057905
0.097638
0.322737
0.529214
0.813110
1.195056
1.349670
1.490865
1.268736
1.049545
0.674841
0.253829
0.015768
-0.177804
-0.100491
-0.181490
-0.052867
0.006565
0.153212
0.049582
0.166054
0.138156
0.136298
0.139867
0.230520
0.099725
0.181546
0.125935
0.151912
0.178006
0.237798
0.292945
0.173692
0.234306
0.209010
0.228231
0.244440
0.307634
0.329966
0.349667
0.387560
0.452001
0.402988
0.446835
0.397902
0.510808
0.537705
0.603357
0.556765
0.490550
0.491190
0.520948
0.579664
0.516572
0.646392
0.544139
0.579849
0.549293
0.534796
0.507257
0.539366
0.498069
0.565803
0.445408
0.503180
0.506011
0.429874
0.366546
0.466378
0.382214
0.382956
0.306495
0.257203
0.239747
0.280169
0.324341
0.259006
0.169904
0.197135
0.265635
0.163059
0.195090
0.150777
0.163445
0.118310
0.121481
0.093483
0.147319
0.102853
0.098363
0.089397
0.107924
0.101912
0.160444
0.065528
0.080326
0.083545
0.032458
0.059322
-0.008487
0.013903
-0.032760
0.135937
-0.005289
0.025123
-0.047275
0.023621
0.019408
-0.008670
-0.049267
0.049469
0.009512
0.027591
-0.009054
0.020187
-0.023002
-0.002507
0.083800
0.025120
0.073043
0.063234
0.015638
0.035370
0.026944
0.038479
-0.014815
0.007706
0.028140
-0.010319
-0.030589
-0.035133
-0.016513
0.019933
0.004180
-0.028578
-0.012914
-0.015380
-0.012292
0.037351
0.030033
0.077517
0.032213
0.093744
0.038550
-0.023330
0.074286
0.158918
0.059818
0.007686
0.003579
0.075662
0.142968
0.033083
0.052896
0.106617
0.160744
0.147076
0.127317
0.168060
0.208457
0.109996
0.190669
0.235477
0.177684
0.263995
0.144446
0.140326
0.119789
0.135932
0.149950
0.120661
0.078335
0.128648
0.125529
-0.021421
0.015383
0.092642
0.029601
0.030016
-0.032227
0.105622
0.033895
0.031823
0.042238
0.013838
0.013176
0.057792
0.004319
0.004458
-0.048170
0.085117
-0.025082
-0.041627
-0.074711
-0.025688
0.009928
0.054584
0.217410
0.527393
0.859331
1.144029
1.371538
1.360087
1.160198
0.944387
0.453786
0.133135
-0.183604
-0.193127
-0.263650
-0.213666
-0.091434
-0.052369
-0.045766
-0.069410
-0.056418
-0.020494
0.024237
-0.044641
0.099649
0.071423
-0.025293
-0.014290
0.190363
0.100757
0.107288
0.049845
0.108836
0.129437
0.071913
0.185044
0.271949
0.192097
0.171176
0.298442
0.344358
0.249866
0.285245
0.344139
0.405178
0.357463
0.359334
0.348381
0.363062
0.433786
0.455274
0.495023
0.520148
0.475487
0.550246
0.494081
0.528790
0.487048
0.495368
0.470331
0.418852
0.478369
0.421293
0.450744
0.444094
0.376732
0.321449
0.354091
0.222400
0.259799
0.286100
0.301799
0.229859
0.208183
0.262498
0.105330
0.158049
0.146781
0.174368
0.179813
0.138462
0.060984
0.043757
0.101706
0.101376
0.028664
0.036181
0.001502
0.008170
0.007891
-0.039065
-0.007464
-0.062809
-0.004735
-0.008827
-0.073848
-0.009311
0.032444
-0.026129
-0.086520
0.004163
-0.021206
-0.055207
-0.039567
-0.104623
-0.034356
-0.090439
-0.010750
-0.010798
-0.038870
-0.086222
0.015314
-0.073647
-0.018937
0.037204
-0.125634
-0.076534
-0.051290
-0.017572
-0.125037
-0.110116
-0.017740
-0.051769
-0.062204
-0.045643
-0.022654
-0.054559
-0.034223
-0.126763
-0.102343
0.039614
-0.028876
-0.141889
-0.083335
-0.054421
-0.050001
-0.103331
-0.077554
-0.112846
0.000124
-0.059600
0.064266
-0.010214
-0.097457
-0.020160
-0.051416
-0.039831
0.024930
0.014548
0.099947
-0.028163
0.111844
0.060839
0.082658
-0.097187
0.118398
0.187916
0.075178
0.109308
0.135954
0.143468
0.140246
0.226218
0.140889
0.193263
0.093236
0.151599
0.169879
0.207330
0.107610
0.117181
0.102161
0.060213
0.102814
0.062840
0.049271
0.049274
0.019267
0.043342
0.065162
0.009797
0.031520
-0.028919
-0.021649
-0.056252
0.058443
-0.106839
0.014765
-0.011111
-0.034941
0.049083
-0.056984
0.007607
-0.049213
-0.072311
-0.002614
0.143538
0.253829
0.546653
0.903985
1.217145
1.331541
1.353268
1.169701
0.715635
0.375487
0.041861
-0.087557
-0.224583
-0.295722
-0.118946
-0.064262
-0.062198
-0.003490
-0.069999
0.092855
0.001840
-0.051414
-0.054416
0.102276
0.095764
0.028579
0.172461
0.141925
0.128082
0.212392
0.122728
0.130745
0.149782
0.171243
0.131484
0.305605
0.190522
0.291924
0.301240
0.274076
0.308175
0.308973
0.401704
0.346358
0.442451
0.366908
0.423500
0.474576
0.394574
0.497358
0.601508
0.469960
0.584625
0.550980
0.522497
0.563046
0.607156
0.521901
0.467619
0.531705
0.441057
0.547146
0.411255
0.405236
0.498073
0.390533
0.439401
0.384567
0.298620
0.342330
0.339078
0.308260
0.258885
0.266597
0.126032
0.175156
0.247461
0.180808
0.174497
0.143499
0.135984
0.233588
0.130364
0.067023
0.032754
0.195379
0.107756
-0.044182
0.085330
-0.011530
0.075960
0.106981
0.092387
0.104882
-0.019344
-0.007349
-0.004961
0.077663
0.030079
0.076487
0.029317
0.090898
0.017390
0.029952
0.065682
-0.005984
0.089999
0.040391
0.004322
-0.011720
-0.019609
0.047691
0.051004
0.110483
-0.006837
0.118704
0.052147
0.034504
0.047422
0.031088
0.092768
-0.005747
0.095029
0.101585
0.028103
0.052706
0.001498
0.055106
0.055640
0.032275
0.097218
0.038488
0.061310
0.070055
0.057508
0.028929
0.086001
-0.039129
0.107496
0.117165
0.056483
0.015720
0.022820
0.098423
0.133256
0.199873
0.123261
0.138539
0.133352
0.228146
0.016147
0.191408
0.199164
0.207771
0.251926
0.196322
0.263177
0.241633
0.200959
0.166663
0.243865
0.253170
0.183477
0.267581
0.262259
0.241158
0.202587
0.223652
0.265953
0.222175
0.193371
0.157350
0.231516
0.155756
0.196510
0.173289
0.097249
0.119548
-0.010974
0.128039
0.097016
-0.009252
0.158978
0.100240
0.043501
0.022918
0.054191
0.102058
0.137180
0.069749
0.009006
0.113601
0.041962
-0.003780
0.150465
0.117429
0.470963
0.746884
1.098409
1.277975
1.500000
1.427392
1.142384
0.843402
0.521125
0.142716
-0.045456
-0.156423
-0.150658
-0.051390
0.013983
0.000160
0.110990
0.047722
0.147570
0.139310
0.123280
0.118864
0.124202
0.115229
0.161655
0.188261
0.169262
0.183484
0.228001
0.252370
0.290577
0.288288
0.270576
0.345420
0.308768
0.321456
0.361153
0.345321
0.445943
0.409952
0.476685
0.514586
0.539264
0.533626
0.511994
0.514325
0.525235
0.540017
0.624824
0.642541
0.642232
0.628861
0.633026
0.656494
0.662753
0.571436
0.626294
0.534105
0.694284
0.564684
0.594599
0.452193
0.533708
0.488464
0.474630
0.518867
0.543131
0.433790
0.430839
0.412729
0.384898
0.332833
0.388712
0.262823
0.339816
0.244908
0.187281
0.295152
0.191510
0.084857
0.206479
0.074016
0.175440
0.099648
0.163178
0.094195
0.128108
0.181749
0.199902
0.124547
0.170242
0.119997
0.140386
0.194393
0.083479
0.092773
0.105948
0.012086
0.137417
0.023910
0.043093
-0.030151
0.185001
0.022356
0.088737
0.151270
0.038153
0.031585
0.010378
0.103069
0.160918
0.067018
0.023668
0.048610
0.046487
0.150163
0.075769
0.060511
0.027528
0.098528
0.016304
0.094130
0.077920
0.132881
0.125261
0.112646
0.046826
0.102059
0.044245
0.042816
0.076732
0.080566
0.133191
0.060892
0.073126
0.130330
0.061793
0.060763
0.141800
0.055366
0.068533
0.099275
0.159518
0.120915
0.191208
0.098625
0.081230
0.139175
0.233870
0.204483
0.315477
0.178821
0.168163
0.229444
0.194997
0.163898
0.232083
0.227369
0.276136
0.232406
0.277825
0.223736
0.205788
0.271013
0.326352
0.235971
0.295419
0.192708
0.180864
0.162195
0.168889
0.097576
0.126611
0.161043
0.134007
0.165174
0.162594
0.093738
0.031548
0.040186
0.054301
0.087900
0.123810
0.031566
0.127702
0.065576
0.093245
0.118028
0.103664
0.048075
0.027039
-0.006064
0.052508
0.109071
0.212563
0.401685
0.778553
1.191463
1.292529
1.491859
1.416929
1.115319
0.690448
0.392484
0.062251
-0.103392
-0.176870
-0.042071
-0.052037
-0.044403
0.104094
0.053459
0.123291
0.042157
0.091444
0.022482
0.146130
0.072143
0.154315
0.145894
0.150583
0.084855
0.148787
0.169724
0.188190
0.202532
0.262886
0.287822
0.238173
0.242599
0.280116
0.268543
0.285112
0.305467
0.312724
0.409478
0.457297
0.435735
0.408179
0.441959
0.492950
0.548624
0.505454
0.583146
0.456826
0.629967
0.613423
0.550891
0.573707
0.609686
0.531072
0.478495
0.573275
0.444980
0.535443
0.491068
0.455216
0.493026
0.538279
0.433727
0.438613
0.439512
0.357746
0.285682
0.288560
0.266746
0.284565
0.293954
0.247486
0.180345
0.191680
0.130987
0.226010
0.120740
0.166562
0.116378
0.106463
0.064326
0.032200
0.147527
0.044623
-0.023961
0.052747
-0.031715
0.080860
0.007847
0.021640
-0.002763
-0.020579
0.151765
0.109602
0.019660
-0.005622
-0.004608
-0.073079
-0.017003
0.077161
0.027389
0.015814
-0.182127
0.111969
0.001713
-0.016517
0.006435
-0.070466
0.011038
-0.096964
0.045280
0.003304
-0.032613
-0.000641
0.009285
-0.058227
-0.064346
0.004975
-0.039144
-0.011765
0.073220
-0.063612
0.019422
-0.009364
0.036286
-0.042651
-0.078566
-0.070057
-0.041656
-0.041437
0.004454
-0.040663
-0.093124
-0.047610
-0.020042
-0.042267
-0.055356
-0.070253
-0.007268
-0.004292
0.073692
0.060609
0.071824
0.014017
-0.010087
0.130937
-0.030676
0.051942
0.065645
0.001345
0.048525
0.093806
0.128108
0.101067
0.097896
0.143735
0.214873
0.164946
0.062892
0.112087
0.164424
0.149943
0.114479
0.085130
0.111065
0.115670
0.159002
0.054058
0.017192
0.069157
0.039162
0.067670
-0.002263
0.010784
-0.032404
-0.034932
-0.009002
-0.052720
-0.021068
-0.022076
-0.097205
-0.072540
-0.081012
-0.058240
-0.085947
-0.074454
-0.094813
-0.052908
-0.098388
-0.181629
-0.059433
-0.000749
0.267827
0.372529
0.730810
1.078262
1.332268
1.289521
1.266149
0.905168
0.591076
0.216226
-0.140417
-0.250175
-0.321959
-0.247468
-0.129914
-0.156087
-0.063197
-0.104978
-0.065792
-0.077745
-0.051092
0.021560
0.020929
0.093140
0.040670
0.114730
0.045649
-0.023056
0.049745
0.027084
0.062515
0.091177
0.111387
0.101814
0.194897
0.198253
0.210063
0.278579
0.233551
0.345878
0.242121
0.226091
0.291176
0.286111
0.298552
0.426637
0.379924
0.394592
0.422767
0.377633
0.456248
0.414855
0.484419
0.514290
0.501921
0.496140
0.369647
0.374407
0.448610
0.356437
0.327262
0.339970
0.399896
0.408342
0.364769
0.322327
0.179270
0.194216
0.241824
0.190668
0.225810
0.139239
0.075114
0.104788
0.090323
0.106000
0.171237
0.159922
0.085003
-0.045402
-0.008422
0.013032
-0.026784
0.038153
-0.045067
0.008705
-0.174497
-0.067691
0.012678
-0.003575
-0.046327
-0.156428
-0.031168
-0.051517
-0.112755
0.001831
-0.057422
-0.096146
-0.075560
0.050277
-0.116690
-0.086671
-0.039742
-0.079783
-0.056189
-0.109493
-0.102650
-0.103506
-0.025813
-0.014697
-0.049484
-0.101298
-0.151555
-0.054455
-0.110476
-0.019897
-0.158506
-0.086765
-0.095493
-0.038036
-0.114982
0.011160
-0.142049
0.058822
-0.102672
-0.037045
-0.129357
-0.137696
-0.070453
0.027954
-0.173206
-0.051610
-0.030877
-0.089023
-0.099113
-0.161756
-0.012426
-0.002607
-0.047900
-0.095396
-0.019311
-0.031069
-0.007457
0.000691
0.028260
-0.082783
-0.040473
-0.027800
0.029874
0.032788
0.030016
-0.008958
0.114642
0.116629
0.094191
0.099483
0.075769
0.080169
0.082023
0.057077
0.158523
0.098551
0.054835
0.091819
0.080560
0.109711
0.100747
0.009427
0.083999
0.111196
-0.018734
0.028807
0.037330
-0.049342
-0.018111
0.010046
-0.104987
-0.074965
-0.083306
-0.050070
-0.009969
0.000470
-0.017671
-0.038270
-0.046148
-0.020581
-0.039940
-0.078283
-0.046636
0.007190
0.002395
-0.038608
-0.055037
-0.017721
0.046590
0.234764
0.421298
0.753137
1.104081
1.397381
1.265630
1.162013
0.864921
0.436188
0.205407
-0.108967
-0.241241
-0.270029
-0.188918
-0.144914
-0.075580
-0.076463
-0.017617
-0.059433
-0.021976
-0.065292
-0.000410
0.091791
0.034634
0.083510
0.014987
0.037204
0.050882
0.088234
0.136402
0.153408
0.068931
0.124405
0.140589
0.164926
0.242449
0.283749
0.250560
0.323388
0.277197
0.332097
0.311557
0.315264
0.383253
0.311634
0.351076
0.466401
0.468235
0.505043
0.438125
0.489983
0.524368
0.440583
0.461816
0.456230
0.484893
0.537350
0.459282
0.485693
0.371055
0.379820
0.378848
0.416730
0.376691
0.333338
0.440618
0.295612
0.269982
0.305837
0.180590
0.152177
0.306730
0.266440
0.247954
0.194569
0.237524
0.173650
0.146445
0.106158
0.066560
0.056685
0.067952
0.043071
0.118305
0.059574
0.058075
0.070787
0.024845
-0.030166
0.059489
-0.033464
0.035736
-0.002696
-0.046791
-0.128646
0.002077
-0.005362
-0.012214
-0.034920
-0.031036
0.066398
-0.033361
0.058079
0.091189
0.065311
-0.030899
-0.067439
-0.050820
0.004185
-0.015110
-0.055917
-0.022916
0.014713
-0.035429
-0.024364
-0.064894
0.000592
0.041398
0.034120
0.004605
-0.054050
0.107784
0.023307
0.021180
-0.060202
0.021133
0.044979
0.019161
0.042166
-0.001044
0.061776
-0.004744
0.031374
-0.023387
-0.003422
-0.040115
0.009559
0.070358
-0.046056
-0.023798
0.025767
0.097699
0.099056
0.037487
0.034764
0.080378
0.047347
0.080326
0.150044
0.112945
0.135260
0.151777
0.155873
0.161471
0.097529
0.165929
0.170037
0.154906
0.147088
0.174158
0.207008
0.189083
0.246791
0.200730
0.179475
0.082276
0.197996
0.108185
0.197375
0.181609
0.087244
0.154131
0.070533
0.068930
0.123295
0.099321
0.157549
0.051531
0.026258
0.112534
-0.057471
0.025824
0.023766
0.071810
-0.012278
0.063099
0.052759
0.017675
0.031939
0.120889
0.043074
-0.023587
-0.008012
0.156477
0.146780
0.322091
0.641907
0.907971
1.236707
1.383950
1.416042
1.213292
0.912952
0.457857
0.173540
-0.100056
-0.085309
-0.175164
-0.123712
0.010063
0.004040
0.067176
0.057743
0.035324
0.059719
0.058784
0.056460
0.105669
0.122001
0.066625
0.151388
0.209536
0.223930
0.193456
0.178502
0.251968
0.164770
0.280550
0.246227
0.131336
0.221792
0.261360
0.304601
0.338830
0.355156
0.429058
0.441695
0.435926
0.495653
0.374413
0.422911
0.486839
0.441288
0.607748
0.618335
0.570557
0.598486
0.569436
0.554435
0.562838
0.559045
0.528819
0.579536
0.498093
0.538565
0.525519
0.474189
0.423185
0.502949
0.319597
0.445723
0.380696
0.378124
0.515871
0.254721
0.311451
0.286974
0.267494
0.333456
0.201094
0.256563
0.261967
0.255083
0.142870
0.112268
0.100406
0.158781
0.170127
0.108960
0.077789
0.112681
0.151668
0.146414
0.093464
0.073829
0.048404
0.110368
0.102801
0.109440
0.151499
0.104458
0.078118
0.059683
0.126858
0.004880
-0.035538
-0.035806
-0.001972
-0.026472
0.040400
0.058087
0.012366
0.090198
0.024172
0.069360
0.099295
0.014890
0.067417
0.080966
0.035702
0.012343
-0.021554
0.101596
0.050991
0.026172
-0.013168
0.021942
0.070341
0.056950
-0.015199
-0.010765
0.025608
0.015342
0.015194
0.044559
0.055787
0.007307
0.073735
0.063834
-0.068369
0.032661
0.053846
0.041899
0.095610
0.104095
0.052885
0.115162
0.035935
0.135894
0.109907
-0.022600
0.089059
0.063031
0.175759
0.141134
0.137350
0.223025
0.123784
0.150429
0.162638
0.190783
0.247521
0.209955
0.143515
0.208845
0.201246
0.206692
0.188885
0.214769
0.216491
0.187694
0.220393
0.010882
0.180943
0.151898
0.114049
0.180106
0.138084
0.087105
0.131319
0.110151
0.019263
-0.000058
0.036678
0.025415
0.051340
0.048806
-0.037612
0.060228
0.026815
0.075156
0.039657
0.105205
-0.035869
0.092090
0.055384
-0.019758
0.012614
0.052372
0.146987
0.422100
0.604991
0.993798
1.177196
1.412071
1.317065
1.158408
0.764269
0.330528
0.071113
-0.213687
-0.165660
-0.256214
-0.154388
-0.112398
-0.055149
0.009622
0.015938
0.117074
0.049074
0.041757
0.068244
0.088740
0.119973
0.013700
0.093407
0.070188
0.051689
0.149066
0.162753
0.155055
0.245541
0.253088
0.188664
0.206178
0.295446
0.300918
0.259680
0.334331
0.283260
0.300013
0.309287
0.429697
0.386216
0.500867
0.436029
0.421217
0.472602
0.427050
0.500246
0.561151
0.445137
0.558679
0.482034
0.528442
0.425945
0.460705
0.493019
0.470932
0.453579
0.441434
0.368171
0.397653
0.358943
0.337486
0.403208
0.290368
0.305797
0.271383
0.248799
0.284769
0.191976
0.261124
0.136662
0.131954
0.013738
0.118108
0.141946
0.158346
0.096592
0.024458
0.031944
0.069648
0.042123
0.016383
0.023770
-0.014657
0.032378
-0.071919
0.036893
-0.039122
-0.027741
0.032366
-0.101168
-0.060477
-0.019279
-0.000360
-0.096491
-0.096039
-0.081821
-0.042877
-0.114813
-0.067256
-0.010418
-0.103475
-0.030763
-0.064573
-0.048164
-0.028779
-0.039487
-0.074192
-0.029630
-0.133925
-0.019966
-0.143127
-0.038179
-0.009448
-0.090952
-0.029893
-0.024760
-0.035009
-0.058183
-0.079633
-0.058561
0.020749
-0.079134
-0.087583
-0.063284
-0.034413
-0.068069
-0.088912
-0.139372
-0.044634
-0.125168
-0.086428
-0.025561
0.008183
-0.024115
-0.111220
-0.019897
-0.021233
-0.032704
-0.113424
-0.006805
-0.064156
0.060721
0.034235
0.072403
0.042569
0.054543
0.091265
0.099670
0.050508
0.020011
0.039126
0.078154
0.114607
0.093289
0.038042
-0.004014
0.083916
0.024994
0.144850
0.137423
0.021458
0.072925
0.051546
0.034983
0.099468
0.104292
0.047383
0.016887
0.007542
0.092954
-0.056848
-0.105066
-0.012162
-0.032632
-0.045503
-0.042138
-0.118395
-0.029247
-0.084664
0.018726
-0.014890
-0.136485
-0.081513
-0.110124
-0.101053
-0.119675
-0.045844
-0.136648
-0.067103
-0.044253
0.114652
0.274848
0.647972
0.892129
1.221050
1.226147
1.237369
0.921866
0.609123
0.198679
-0.111430
-0.224423
-0.320744
-0.310997
-0.330266
-0.144224
-0.057287
-0.095721
-0.090598
-0.055440
-0.034800
-0.041289
-0.073123
0.011960
-0.117954
0.025996
0.023255
0.088345
0.012642
0.019682
0.087358
0.069684
0.056625
0.081929
0.196214
0.207807
0.090920
0.165939
0.207695
0.183990
0.343872
0.258931
0.293005
0.292120
0.282964
0.312184
0.288326
0.411396
0.352305
0.448123
0.389548
0.383014
0.420897
0.454633
0.432680
0.468124
0.449586
0.474294
0.445812
0.365486
0.372323
0.371030
0.341371
0.322977
0.251166
0.335274
0.212298
0.260423
0.184385
0.169981
0.164485
0.150089
0.078360
0.198151
0.097612
-0.020205
0.074740
0.014001
0.089173
-0.034099
-0.052868
-0.020913
-0.001024
0.004123
-0.038516
-0.006343
-0.021735
-0.089784
-0.140105
-0.082376
-0.066716
-0.077834
-0.059389
-0.089214
-0.098438
-0.023551
-0.029870
-0.059983
-0.049197
-0.051658
-0.019981
-0.129376
-0.203404
-0.128315
-0.064976
-0.042698
-0.059952
-0.109121
-0.115950
-0.112510
-0.165800
-0.093928
-0.098637
-0.083175
-0.095574
-0.105231
-0.157793
-0.022574
-0.034995
-0.091096
-0.161648
-0.102701
-0.125848
-0.001988
-0.113222
-0.016704
-0.135791
-0.010957
-0.098112
-0.099788
-0.007506
-0.137361
-0.033617
-0.064500
-0.067839
-0.036407
-0.069489
-0.080838
-0.141984
-0.037818
-0.069437
-0.083377
-0.051186
-0.027688
0.010307
-0.082556
-0.041881
-0.003023
-0.109160
0.075194
0.032130
0.081986
0.019938
0.040273
0.064786
0.114143
0.042493
0.115487
0.077667
0.072925
0.047305
0.123087
0.156959
0.130533
0.217642
0.064666
0.139631
0.090734
0.139388
0.042202
0.044097
0.093532
0.029890
0.017127
0.045570
0.006721
0.004555
0.023414
0.055933
-0.055196
0.014979
-0.005446
0.011213
0.048631
-0.092985
-0.168494
-0.100164
-0.078697
-0.040741
-0.143045
-0.033091
-0.020872
-0.039664
-0.025892
-0.063756
0.134897
0.374551
0.638859
0.998062
1.269968
1.349930
1.193777
0.981142
0.609288
0.262419
-0.085889
-0.218586
-0.234389
-0.282421
-0.166476
-0.083812
-0.098326
-0.070107
-0.003120
-0.052119
0.062751
0.047684
0.040473
0.094620
0.049830
0.077369
0.152728
0.060988
0.125120
0.088374
0.130658
0.149669
0.147143
0.065960
0.207845
0.262378
0.247066
0.261628
0.218529
0.332440
0.333885
0.402264
0.348248
0.385982
0.353749
0.474788
0.482173
0.391513
0.546837
0.527956
0.445958
0.513191
0.477592
0.473716
0.512266
0.476454
0.477181
0.441227
0.436635
0.572026
0.463777
0.395865
0.456003
0.412605
0.418040
0.308089
0.313732
0.380278
0.421745
0.303915
0.303572
0.279563
0.255415
0.212885
0.206371
0.230986
0.154629
0.108605
0.130173
0.154587
0.144232
0.053143
0.045323
0.056763
0.153815
0.045125
0.057278
-0.005780
0.065581
0.005307
-0.004674
0.004776
0.050011
-0.002275
-0.016285
-0.034084
0.048952
0.079935
0.024911
-0.013729
-0.003147
0.040121
0.044090
0.060649
0.025174
0.087375
0.077679
-0.015053
-0.041916
0.078876
0.015778
0.046478
0.039360
0.140124
0.004171
-0.034700
-0.012155
-0.059261
-0.019827
0.020172
0.064355
0.060424
-0.055020
0.135987
0.047265
-0.016763
0.033384
-0.016403
-0.016509
0.059589
0.005030
-0.005752
0.029619
0.071175
0.056129
0.113611
0.074119
0.062328
0.017812
0.062543
0.069128
0.043907
0.119304
0.090379
0.087271
0.128995
0.019260
0.098240
0.134635
0.039751
0.115485
0.075115
0.109429
0.211468
0.117468
0.265523
0.213496
0.123407
0.223262
0.215973
0.238073
0.260659
0.182814
0.223653
0.168354
0.187071
0.236322
0.158018
0.223321
0.196218
0.114732
0.154512
0.140487
0.167373
0.032927
0.075621
0.104501
0.041704
0.044917
0.079265
0.094365
0.054871
0.126167
0.008010
0.092745
0.142041
0.019158
0.109007
0.002631
0.079389
0.057943
-0.002616
0.070673
0.126743
0.130448
0.364154
0.570644
0.887718
1.274756
1.421451
1.326511
1.325917
1.037010
0.623547
0.301958
-0.032288
-0.113416
-0.194789
-0.129037
-0.011657
0.022127
0.006664
0.121339
0.111552
0.101515
0.124500
0.107836
0.132776
0.070404
0.120874
0.210600
0.217840
0.231376
0.249671
0.233944
0.165079
0.281079
0.230694
0.275702
0.341740
0.337656
0.377110
0.423073
0.339540
0.398149
0.453169
0.395578
0.446194
0.500398
0.470210
0.451062
0.592045
0.559950
0.565444
0.578684
0.574432
0.581162
0.588478
0.647524
0.655949
0.618748
0.571045
0.577748
0.606522
0.496099
0.481215
0.582453
0.548655
0.503434
0.397991
0.475614
0.444539
0.403131
0.454702
0.382635
0.335910
0.331589
0.294837
0.311235
0.234257
0.222769
0.253827
0.186596
0.191101
0.157495
0.172567
0.149532
0.195520
0.116128
0.057502
0.121917
0.125991
0.156634
0.130195
