0.010352
0.115056
-0.007032
0.071659
0.010636
0.051697
0.041422
0.042516
-0.018023
-0.049305
0.022167
0.027898
0.061392
-0.018135
0.033436
-0.028329
0.022235
-0.028131
-0.053936
-0.076240
-0.012242
0.020731
0.011128
0.085179
0.044144
0.032492
-0.013777
0.007572
0.010090
0.068968
0.234374
0.110952
0.129626
0.204408
0.075503
0.154015
0.155672
0.223052
0.228304
0.160648
0.274132
0.163919
0.193753
0.179532
0.172318
0.147988
0.219915
0.129660
0.180287
0.177107
0.114904
0.135746
0.107538
0.089654
0.054004
0.166340
0.060755
0.070343
0.065010
0.158280
0.085871
0.130014
0.068749
0.044014
0.034068
-0.030832
0.074245
0.133812
-0.001152
0.096122
0.037455
0.019270
0.072583
0.068281
0.088846
0.089405
0.064109
0.092408
-0.018620
-0.011261
0.107518
0.197250
0.525323
0.749701
1.132987
1.377172
1.358372
1.357509
1.104036
0.751280
0.320949
0.006613
-0.189051
-0.186679
-0.205719
-0.145045
-0.059048
0.054950
0.041413
0.072608
0.066512
0.081689
0.174983
0.057114
0.063015
0.181352
0.118923
0.222659
0.085049
0.231101
0.090839
0.097163
0.219655
0.171893
0.158873
0.183283
0.279818
0.196191
0.249978
0.268183
0.274967
0.363558
0.315601
0.317418
0.377833
0.403633
0.337080
0.429713
0.348642
0.471656
0.515291
0.534847
0.539057
0.516081
0.488031
0.598406
0.611013
0.555537
0.578222
0.630981
0.644977
0.552102
0.537553
0.505512
0.562533
0.572554
0.581608
0.589665
0.485607
0.457682
0.529472
0.464245
0.450297
0.485802
0.411014
0.381850
0.327747
0.342365
0.266000
0.314552
0.295913
0.269484
0.236656
0.304552
0.204435
0.117405
0.149796
0.190149
0.153991
0.093093
0.173516
0.175637
0.088692
0.125616
0.065524
0.101581
0.119013
0.101479
0.103881
0.050405
0.104215
0.011574
0.198257
0.138383
0.059685
0.037695
0.078506
0.046280
0.096733
0.051393
0.071577
0.104475
0.061471
0.072250
0.055289
0.146055
0.114567
0.011849
0.026641
0.042395
0.101605
0.097654
0.115322
0.135114
-0.001113
0.075058
0.110618
0.141732
0.109822
0.101402
0.095261
0.067260
0.056499
0.084950
0.179067
0.048973
0.098638
0.101409
0.187892
0.065928
0.058864
0.100187
0.036025
0.082534
0.064343
0.062445
0.153223
0.120842
0.089099
-0.015876
0.094325
0.103863
0.089060
0.046118
0.157765
0.074713
0.174104
0.107388
0.149089
0.033631
0.177593
0.147662
0.132399
0.177143
0.118123
0.105114
0.084830
0.128971
0.228044
0.221031
0.252655
0.241683
0.196308
0.209664
0.194675
0.284686
0.218296
0.242555
0.163838
0.184032
0.248056
0.257228
0.232169
0.240314
0.188702
0.202028
0.245037
0.239041
0.114543
0.132798
0.148770
0.144322
0.032380
0.143863
0.087476
0.145028
0.099496
0.119583
0.136226
0.055384
0.099503
0.105101
0.070546
0.080533
0.060852
0.099418
0.134766
0.021948
0.062590
0.079720
0.046423
0.020312
0.045109
0.016536
0.071113
0.255218
0.447956
0.712720
1.081364
1.340479
1.384220
1.405846
1.178988
0.775333
0.427178
0.080230
-0.106027
-0.163186
-0.206551
-0.091646
-0.035537
-0.051770
0.108875
0.048333
0.102671
-0.014438
0.163986
0.056476
0.066870
0.067562
0.085824
0.127488
0.146529
0.132899
0.187383
0.095036
0.152875
0.213795
0.117217
0.205248
0.164080
0.217251
0.178637
0.226774
0.321272
0.254649
0.266750
0.295702
0.337354
0.278450
0.381631
0.426842
0.381262
0.491954
0.460973
0.469133
0.561856
0.539402
0.490104
0.523734
0.479684
0.641123
0.619829
0.487172
0.523960
0.623554
0.462500
0.519129
0.558257
0.597538
0.500514
0.418437
0.402481
0.413831
0.467525
0.416206
0.418490
0.375966
0.338201
0.320557
0.298309
0.262491
0.275931
0.286882
0.143772
0.229984
0.184716
0.111732
0.174038
0.141471
0.096958
0.130031
0.115792
0.097627
0.103601
0.048902
0.031969
0.022435
0.090138
0.026629
0.025375
0.049629
-0.000318
0.002157
-0.058738
0.061738
-0.027793
-0.024188
0.104331
-0.003365
-0.042542
-0.054682
-0.019494
-0.005731
0.153519
-0.048502
0.064015
0.022122
-0.014456
-0.045004
-0.009145
0.034064
0.052765
-0.064210
0.047147
0.028202
-0.062345
0.011368
0.002802
0.022619
0.031205
0.060636
-0.054889
-0.022863
-0.053881
-0.030899
-0.005404
-0.015340
0.102789
-0.027902
0.027403
-0.117104
-0.029047
0.000571
0.030676
0.059864
-0.041605
-0.062315
-0.035315
-0.032218
-0.021930
0.017199
0.020876
-0.005981
0.041894
-0.045312
-0.023871
0.065155
0.100894
-0.002229
0.001042
0.011001
0.034951
0.024659
0.016909
0.105545
0.069620
0.042019
0.030389
0.040097
0.064960
0.091317
0.054594
0.053146
0.079901
0.143056
0.196283
0.096871
0.162962
0.211192
0.203008
0.118040
0.140148
0.143614
0.039922
0.139592
0.125653
0.129142
0.071861
0.028779
0.116386
0.083123
0.050298
0.052698
0.074066
0.030717
-0.031221
0.053626
0.027950
0.109924
0.034954
-0.042985
-0.010338
-0.053649
-0.077059
0.065826
-0.049534
-0.029340
-0.031805
-0.070755
-0.025024
-0.027354
-0.037700
-0.006245
0.011040
-0.045102
-0.086161
-0.124379
-0.062783
0.135061
0.218257
0.564963
0.918713
1.148318
1.248680
1.261095
1.087948
0.800097
0.464329
0.057507
-0.151814
-0.303410
-0.241095
-0.206631
-0.212577
-0.117050
-0.186395
-0.005494
0.020782
0.042766
-0.006375
0.006146
-0.076043
-0.011854
0.049189
0.018110
0.097900
-0.029382
0.092512
-0.012756
-0.014334
0.138672
0.043621
0.025189
0.055328
0.110184
0.179171
0.073668
0.238636
0.195485
0.186439
0.250654
0.252228
0.254526
0.312877
0.383827
0.315630
0.344918
0.336006
0.365263
0.496753
0.419812
0.414761
0.459826
0.469117
0.492136
0.483062
0.502906
0.446808
0.526928
0.476731
0.487271
0.465563
0.484075
0.390779
0.422206
0.383616
0.355475
0.351934
0.293334
0.351429
0.354201
0.239028
0.230814
0.200943
0.323151
0.219020
0.215286
0.181416
0.155378
0.097131
0.129613
0.150778
0.033939
0.117583
0.001686
0.043132
0.064603
0.014812
0.050142
0.029889
0.037242
-0.027635
-0.059851
-0.127712
0.003115
-0.012399
-0.007540
0.053170
-0.002146
0.000386
-0.085367
-0.038485
-0.074932
-0.044101
-0.045988
-0.009786
-0.074200
-0.099999
-0.024582
0.028794
-0.049525
0.059839
-0.006119
-0.037345
-0.082604
-0.057998
-0.099662
-0.013316
0.030465
-0.035148
-0.099964
-0.128852
-0.012322
-0.003143
-0.020420
-0.054982
-0.048151
-0.007626
-0.044337
-0.047315
0.007857
-0.053122
-0.044665
-0.040277
-0.084348
-0.122245
-0.021572
-0.056709
0.088181
-0.112076
0.007409
0.003030
-0.033441
-0.021263
0.006678
-0.048183
-0.035415
-0.006259
0.014677
-0.041686
0.063244
-0.076654
-0.010560
0.040327
0.022888
-0.004286
-0.031266
0.008634
0.040246
0.077309
0.042379
0.036858
0.039860
0.086386
0.079254
0.127284
0.148314
0.190769
0.116009
0.135968
0.117546
0.138824
0.160292
0.147153
0.115953
0.175683
0.164085
0.106267
0.172935
0.138688
0.158618
0.202581
0.085542
0.109880
0.108818
0.083031
0.079710
0.104948
-0.005121
0.077931
0.059858
0.010898
-0.000157
0.052993
0.063702
0.042815
0.004366
-0.044685
0.093013
0.039080
0.048976
-0.021652
-0.010334
0.020889
0.000988
-0.039335
0.011871
-0.027801
-0.078159
0.032793
0.004195
-0.090478
0.062094
0.197145
0.495413
0.851587
1.120281
1.402071
1.343458
1.191076
0.953817
0.653295
0.285341
0.028458
-0.200960
-0.281518
-0.172512
-0.083643
-0.102119
0.027710
0.054740
0.044320
0.049538
0.068304
0.030897
-0.013498
0.086617
0.115009
0.094304
0.069859
0.171806
0.139580
0.080228
0.096529
0.126531
0.084245
0.140829
0.190207
0.130597
0.173658
0.234626
0.182545
0.283758
0.301698
0.310214
0.344121
0.283598
0.279712
0.401065
0.355164
0.463583
0.430314
0.569295
0.504102
0.449952
0.489741
0.511315
0.554631
0.541349
0.510212
0.504136
0.567328
0.485541
0.547828
0.522720
0.572461
0.468260
0.521565
0.442227
0.465521
0.450481
0.510670
0.372177
0.412365
0.372285
0.320166
0.349129
0.338760
0.389906
0.263225
0.257031
0.275433
0.157851
0.264955
0.193358
0.216695
0.204919
0.142522
0.146443
0.022680
0.131960
0.136365
0.140279
0.120549
0.110825
0.076250
0.149193
0.107253
0.094936
0.121974
0.101402
0.074627
0.076780
0.099327
0.088514
0.109484
0.046229
0.090245
0.066422
0.075219
0.073869
-0.033565
0.071514
0.084969
0.076938
0.065369
0.082647
0.040756
0.041267
0.041421
0.055484
0.021905
0.066938
0.043603
0.107348
0.104658
0.095906
-0.053288
0.029133
0.053027
0.095929
0.090942
0.022203
0.176378
0.059449
0.126310
0.075523
0.038223
0.056488
0.038348
0.035237
0.107978
0.103110
0.095935
0.049641
0.127800
0.090658
0.089685
0.064019
0.098629
0.072713
0.079123
0.102960
0.116822
0.136538
0.159134
0.096737
0.198764
0.164763
0.102348
0.159021
0.084123
0.143723
0.084414
0.164923
0.157223
0.125249
0.160968
0.181280
0.133075
0.203404
0.215619
0.244040
0.278647
0.213391
0.230117
0.278898
0.246905
0.212072
0.301199
0.283337
0.287688
0.340955
0.266570
0.317097
0.176195
0.267589
0.293439
0.178946
0.108495
0.216043
0.077579
0.223863
0.177047
0.131149
0.213264
0.193539
0.103693
0.204025
0.061040
0.151990
0.078212
0.047964
0.146713
0.125406
0.047861
0.107510
0.096877
0.166417
0.036409
0.071680
0.026682
0.070295
0.072375
0.034492
0.112125
0.073514
0.241581
0.452581
0.780262
1.114950
1.420212
1.453363
1.298312
1.137311
0.717921
0.418033
0.024449
-0.087814
-0.159396
-0.174251
-0.110813
-0.075715
-0.002974
0.089270
0.108292
0.132224
0.073751
0.152078
0.170004
0.151989
0.145996
0.076768
0.121447
0.164257
0.152293
0.115013
0.198192
0.179874
0.251507
0.218578
0.330364
0.189123
0.196136
0.219192
0.325328
0.229599
0.308862
0.276524
0.331837
0.364465
0.435904
0.324393
0.395260
0.439585
0.490373
0.483028
0.487908
0.445568
0.557952
0.561322
0.541586
0.524901
0.548214
0.600462
0.567544
0.553837
0.536218
0.563192
0.598219
0.475282
0.560932
0.656106
0.479493
0.581883
0.496849
0.450873
0.515257
0.351533
0.369831
0.395044
0.368932
0.299550
0.316399
0.332158
0.229657
0.266275
0.278295
0.347740
0.200731
0.231591
0.153076
0.234495
0.264855
0.215867
0.084910
0.123524
0.103473
0.156654
0.116562
0.066590
0.088300
0.130307
0.099022
0.075516
0.135125
0.012176
0.093974
0.114205
0.030258
0.031724
-0.011889
0.146463
0.056980
0.085984
0.059297
0.016405
0.102272
-0.020388
0.015819
0.039773
0.037806
0.054150
0.068506
0.028477
0.102949
0.016269
0.013156
0.036236
0.120066
0.022637
0.008387
0.079001
0.045888
0.100251
0.103446
0.032889
0.092383
0.100840
0.074388
0.017406
0.057707
0.107153
0.011294
0.056793
0.072019
0.006616
0.041204
0.063506
-0.002053
0.044727
0.074044
0.040820
0.079645
-0.015216
0.124968
0.025721
0.078657
-0.001870
0.083556
0.072492
0.035960
0.012701
0.097330
0.089539
0.055556
0.008897
0.057007
0.109610
0.075398
0.009706
0.045879
0.122187
0.186847
0.146358
0.143144
0.109207
0.177983
0.202616
0.185408
0.233111
0.188487
0.237836
0.209536
0.190587
0.233368
0.169000
0.128802
0.187491
0.207629
0.149152
0.139322
0.154008
0.145379
0.125013
0.144336
0.126768
0.034947
0.119965
0.045007
0.029990
0.020723
0.015569
0.010950
0.046511
-0.006905
0.061649
0.066129
0.090993
0.016675
-0.068951
-0.039677
-0.037218
0.018191
0.028177
-0.006922
0.002789
-0.060454
-0.058787
-0.030378
-0.024337
0.027862
0.313798
0.639940
0.926478
1.192170
1.369890
1.317325
1.127056
0.800606
0.346296
0.165369
-0.103523
-0.247728
-0.309867
-0.269708
-0.158475
-0.047900
-0.079302
-0.025407
-0.010666
0.013155
0.054786
0.030412
-0.024994
-0.033197
0.040100
-0.035571
0.014186
0.077173
0.074883
0.091921
0.079775
0.140888
0.062077
0.097896
0.127628
0.114483
0.119447
0.185189
0.157678
0.254006
0.201759
0.237246
0.234761
0.302969
0.281703
0.358717
0.286643
0.409875
0.394689
0.416953
0.322094
0.518215
0.445643
0.484044
0.382396
0.470501
0.399021
0.430104
0.466321
0.431922
0.416299
0.365253
0.462058
0.433555
0.351632
0.394931
0.376735
0.323283
0.333035
0.374142
0.301997
0.306573
0.206928
0.264331
0.225687
0.216391
0.239105
0.174319
0.082990
0.151814
0.137495
0.136379
0.066780
0.083082
0.071009
0.058018
0.016285
0.047896
-0.013896
-0.029986
0.032280
-0.050246
0.014254
-0.033457
-0.053054
-0.067920
0.002246
-0.038978
-0.047497
-0.064639
-0.087376
-0.054569
-0.088656
0.003186
-0.055934
-0.031544
-0.004199
-0.119927
0.019230
-0.030309
-0.110511
-0.159967
-0.097671
-0.113078
-0.068903
-0.166538
-0.061436
-0.010274
-0.088031
0.007006
-0.035161
-0.044103
-0.042567
-0.042380
-0.030263
-0.090258
0.036612
-0.059235
-0.027250
-0.100424
-0.117951
-0.109768
-0.036723
-0.123933
-0.045274
-0.096256
-0.102620
-0.137063
-0.085678
-0.003168
-0.086324
-0.105961
-0.039712
-0.073512
-0.076240
-0.096133
-0.068026
-0.095478
-0.064029
-0.040952
-0.055363
-0.057554
-0.016084
-0.057022
-0.084391
0.014303
-0.063152
-0.074216
-0.011527
-0.052331
-0.013577
0.053588
-0.004712
0.055859
-0.022487
-0.052028
0.061718
0.064835
0.060781
0.064290
0.117140
0.091202
0.019016
0.046693
0.197528
0.118178
0.124983
0.081816
0.065509
0.147391
0.084703
0.043344
0.026830
0.090693
0.058054
0.053070
-0.001108
0.018056
-0.047934
0.014344
0.037247
-0.025685
-0.006484
-0.081907
-0.018490
-0.066032
-0.052770
-0.049488
-0.073503
-0.084740
-0.026674
-0.104368
-0.025369
0.012848
-0.049176
-0.124393
-0.097856
-0.086040
-0.129045
-0.039763
-0.095338
-0.161603
-0.086087
-0.032715
0.249325
0.484950
0.755599
1.058630
1.280660
1.249826
1.086844
0.649697
0.499670
0.082759
-0.134756
-0.302168
-0.270452
-0.248977
-0.183484
-0.145587
-0.008514
-0.140049
-0.120144
-0.057943
-0.025091
-0.083347
-0.036685
-0.054014
-0.025353
0.002877
-0.070464
-0.063612
-0.056506
-0.017560
-0.018341
0.006505
-0.028378
0.113035
0.014637
0.059065
0.034901
0.134338
0.169399
0.121715
0.149394
0.226849
0.213711
0.266654
0.263844
0.303934
0.258160
0.317271
0.275606
0.381457
0.411981
0.402076
0.434737
0.443153
0.414617
0.433010
0.379065
0.472809
0.509514
0.450290
0.442818
0.432156
0.423077
0.438608
0.364095
0.395898
0.359993
0.374134
0.280732
0.268344
0.290854
0.276337
0.340645
0.225832
0.243973
0.215012
0.203702
0.121161
0.178226
0.157009
0.087993
0.156989
0.021627
0.084598
0.050908
-0.001658
0.077687
0.033564
0.021902
-0.001649
0.013207
-0.005070
0.003119
-0.006873
-0.030061
-0.078156
-0.006840
0.062450
0.014065
0.034332
-0.041313
-0.049065
0.005600
-0.059617
-0.078473
-0.044551
0.019315
-0.107402
-0.049495
-0.031023
-0.022178
-0.013823
-0.009793
-0.072201
0.000410
-0.128220
-0.000147
0.010887
0.042217
-0.037441
0.007801
-0.017790
-0.030550
-0.064304
-0.055453
-0.083679
-0.010022
0.017085
-0.108507
0.020316
-0.043089
0.039510
-0.001552
-0.074294
-0.013953
0.046816
-0.039960
-0.103275
-0.045573
-0.103004
-0.037041
-0.048634
-0.132966
-0.040532
-0.069750
-0.069056
-0.044858
-0.038733
-0.103619
-0.032131
0.046922
0.025798
-0.052560
-0.023958
-0.046800
-0.038119
0.049549
-0.030924
0.061870
-0.002719
0.037070
0.134815
-0.029904
0.059846
0.094318
0.107586
0.125732
0.070480
0.064082
0.092202
0.107740
0.086059
0.163110
0.213117
0.192569
0.133922
0.115010
0.203731
0.109862
0.187079
0.136660
0.129377
0.168927
0.107659
0.065390
0.107149
0.085573
0.102637
0.125613
-0.005360
0.008685
0.004868
0.041912
0.038407
0.158542
0.026940
0.037710
-0.017298
0.051999
0.009435
0.002516
0.005459
-0.085213
0.050924
0.048308
0.036861
-0.050494
0.094706
-0.019516
-0.007677
0.035869
-0.014925
-0.018557
0.048893
0.226259
0.495321
0.910048
1.104757
1.355945
1.500000
1.271201
0.881185
0.570615
0.215555
0.006022
-0.177843
-0.256809
-0.083762
-0.180430
-0.044358
0.059622
-0.094374
0.025312
0.036117
0.045741
0.127861
0.068476
0.122725
0.104571
0.049780
0.127065
0.025477
0.077867
0.124691
0.116369
0.134931
0.121236
0.152452
0.143145
0.230329
0.259462
0.196143
0.206586
0.245320
0.342495
0.284901
0.318362
0.334804
0.411567
0.348993
0.366438
0.368215
0.410143
0.409940
0.539217
0.477064
0.516770
0.436949
0.575566
0.510114
0.529478
0.574372
0.567412
0.579205
0.581535
0.596032
0.501508
0.524011
0.525958
0.478802
0.456501
0.554684
0.452442
0.461118
0.415623
0.408951
0.389247
0.352714
0.377974
0.403764
0.345108
0.281983
0.243625
0.209619
0.235300
0.208089
0.103338
0.127564
0.077686
0.142215
0.194439
0.170849
0.110192
0.166705
0.044018
0.076862
0.029267
0.072318
0.076510
0.096482
0.065630
0.035139
0.037541
0.014041
0.083611
0.012115
0.041989
0.045827
-0.013985
-0.051274
0.043820
-0.014295
0.013347
0.019976
0.107462
0.047766
0.064027
-0.014037
0.021928
0.064124
0.055474
0.078433
0.089796
0.136166
0.045943
0.068901
0.063185
0.053673
0.080625
0.035420
0.066829
0.056052
0.027036
0.058011
0.080594
0.072901
0.086453
0.182846
0.067939
0.071301
0.116537
0.077030
0.045428
0.057470
0.016488
0.023784
0.003857
0.003068
0.015384
-0.009823
0.024757
0.074778
0.082514
0.057426
0.093538
0.078799
0.006786
0.073040
0.076676
0.078561
0.022166
0.092122
0.095009
0.123741
0.089024
0.083237
0.133423
0.082715
0.175286
0.175071
0.138891
0.235859
0.218275
0.153657
0.240320
0.232238
0.172385
0.209999
0.168606
0.230439
0.200031
0.178013
0.191470
0.245794
0.097183
0.108977
0.160668
0.176649
0.223276
0.126465
0.097807
0.134006
0.138312
0.166190
0.139418
0.115757
0.116292
0.039985
-0.023868
0.089719
0.049399
0.039044
-0.002000
0.033181
0.092759
-0.004530
0.051951
0.037925
0.045310
0.080062
0.000369
-0.009946
0.000400
0.042959
-0.067239
0.020591
0.026011
0.136616
0.168487
0.415605
0.665994
1.011460
1.284117
1.353554
1.340330
1.086870
0.778483
0.499545
0.071467
-0.217336
-0.207616
-0.160902
-0.227832
-0.142622
-0.113855
-0.034061
-0.040005
-0.003695
-0.020580
-0.024816
0.035758
0.068408
0.046565
0.016487
0.054169
0.047122
0.108495
0.080257
0.072541
0.173784
0.065540
0.148105
0.066403
0.068548
0.094987
0.163384
0.181222
0.241316
0.287421
0.190830
0.223514
0.250724
0.314866
0.332684
0.414531
0.339133
0.373254
0.327425
0.468293
0.424864
0.414072
0.405553
0.481412
0.465840
0.527609
0.398605
0.482436
0.481904
0.550885
0.400046
0.415434
0.480576
0.461315
0.436876
0.495659
0.373058
0.382480
0.411969
0.324986
0.401450
0.329591
0.322646
0.347834
0.269398
0.271006
0.156667
0.161761
0.143891
0.139614
0.162412
0.104291
0.119069
0.209948
0.114366
0.041854
0.039327
0.080752
0.031299
-0.026770
0.054034
-0.037506
0.093766
-0.050319
-0.015272
-0.026061
-0.026100
-0.013151
0.083464
-0.028981
0.027932
-0.002445
-0.042475
-0.080365
-0.030396
0.002260
-0.079077
-0.069667
-0.058125
-0.004005
-0.007463
-0.015929
-0.061588
0.009227
-0.015854
0.042160
-0.006425
-0.126070
-0.120858
-0.115287
-0.050314
-0.032575
-0.026847
-0.067258
-0.138114
-0.076677
-0.087229
-0.004551
-0.080516
-0.073119
-0.021523
-0.052739
0.000369
0.001760
-0.128726
-0.101574
-0.148669
-0.077014
-0.034703
-0.035736
-0.010989
-0.005733
-0.055217
-0.042417
-0.075399
-0.125936
-0.070781
-0.095428
-0.063315
-0.065131
0.018039
-0.019363
-0.112460
-0.086578
-0.033428
0.034321
-0.007121
-0.063934
-0.055281
0.030716
-0.056979
-0.033660
0.014838
0.000278
-0.011843
0.020452
-0.003210
0.122177
0.112879
0.080218
0.020502
0.060925
0.157667
0.168235
0.134350
0.151081
0.072487
0.055790
0.163811
0.082280
0.151249
0.009013
0.026467
0.142459
0.071880
0.078486
0.072704
0.053385
0.012385
-0.038530
0.057828
-0.075653
0.007445
0.023056
-0.020949
0.001991
-0.028427
-0.046420
-0.115774
-0.133650
-0.063247
-0.004449
-0.119337
-0.110271
-0.114834
-0.067559
-0.051780
-0.121034
-0.030211
-0.098014
-0.158620
-0.155372
-0.097172
-0.004282
0.198515
0.459299
0.798895
1.039215
1.278185
1.248284
1.088398
0.674234
0.432076
-0.032490
-0.212285
-0.362920
-0.232108
-0.299896
-0.199282
-0.243005
-0.164083
-0.164953
-0.084498
-0.054008
-0.155672
-0.024714
-0.079400
0.008636
-0.045937
-0.016788
-0.040457
-0.021186
-0.035125
0.019588
0.062078
0.066548
0.083403
0.012862
0.101456
0.124655
0.140025
0.175438
0.067955
0.141861
0.197200
0.135453
0.234201
0.177971
0.207353
0.273348
0.328841
0.386565
0.332792
0.369920
0.389914
0.379982
0.353592
0.335794
0.429748
0.396268
0.364337
0.428797
0.415657
0.394714
0.408647
0.358033
0.407821
0.340986
0.358418
0.346760
0.408146
0.330989
0.271719
0.203992
0.177390
0.251269
0.265167
0.265879
0.223238
0.175101
0.184379
0.154339
0.138431
0.073719
0.078031
0.061077
0.033317
0.093041
-0.041489
-0.015926
0.004769
-0.070083
-0.073366
-0.034048
-0.029208
-0.018550
-0.058480
-0.095118
-0.103019
-0.109936
-0.149079
0.030779
-0.077007
-0.074148
-0.109829
-0.049833
-0.082218
-0.084471
-0.072163
-0.038911
-0.105947
-0.146248
-0.054107
-0.121348
-0.166632
-0.144479
-0.073177
-0.043570
-0.174716
-0.110055
-0.068588
-0.095152
-0.124892
-0.140344
-0.076092
-0.139430
-0.120610
-0.111937
-0.040440
-0.025307
-0.068835
-0.113513
-0.053127
-0.056534
-0.059683
-0.066758
-0.198110
-0.117369
-0.083607
-0.097564
-0.103482
-0.189801
-0.119117
-0.107088
-0.013317
0.001366
-0.116854
-0.059310
-0.036037
-0.137336
-0.084954
-0.093182
-0.087656
-0.084173
-0.131499
-0.121936
-0.057623
-0.144939
-0.102248
-0.132721
0.033315
-0.087590
-0.113087
0.041862
-0.126637
-0.079275
-0.045072
-0.031057
0.028123
-0.005184
0.087773
-0.017545
0.084056
0.087627
0.047145
0.081483
0.029557
0.079532
0.059403
0.130041
0.129507
0.095928
0.188509
0.119494
0.082514
0.169198
0.107993
0.166494
0.053083
0.032952
-0.001275
0.008274
0.093001
0.011389
0.114714
0.067006
-0.040542
0.006480
-0.037847
-0.105884
0.008229
-0.029187
-0.027722
-0.014674
-0.083221
-0.072175
-0.036817
-0.038941
-0.076575
-0.009383
0.040029
-0.080521
-0.107399
-0.092956
-0.053752
-0.027109
-0.051008
0.010466
0.183993
0.449146
0.760216
1.132098
1.311445
1.364321
1.109130
0.920290
0.509575
0.209152
-0.100568
-0.364640
-0.223684
-0.241227
-0.188815
-0.107545
-0.157240
-0.091842
-0.053260
0.000153
-0.065942
0.006196
-0.035579
0.019885
0.037038
0.054152
0.053714
0.087134
0.037783
0.063749
0.097377
0.108110
0.062841
0.055903
0.094610
0.133191
0.030174
0.179167
0.196730
0.220650
0.164041
0.281813
0.286442
0.285183
0.259983
0.331946
0.302338
0.419716
0.393688
0.397270
0.418752
0.501645
0.423107
0.405169
0.539591
0.435877
0.384904
0.543701
0.407994
0.516683
0.473649
0.498721
0.507948
0.444136
0.467852
0.392177
0.482294
0.367372
0.365631
0.430016
0.352832
0.383975
0.352716
0.356358
0.259337
0.278013
0.262115
0.273579
0.232744
0.281489
0.223157
0.147634
0.096284
0.188688
0.146891
0.071077
0.087986
0.032304
0.049808
0.016592
0.110106
0.067955
0.068512
0.066786
0.049278
0.069205
0.005943
0.045083
0.041554
0.040018
-0.006306
0.008767
0.086973
0.010497
-0.009906
0.031742
0.058784
0.004882
-0.005357
0.008198
-0.026955
-0.003861
0.038082
0.023169
0.004013
0.021223
0.025577
-0.001329
0.036977
0.066058
-0.011448
-0.003976
-0.022810
-0.012312
0.045889
0.015437
0.064656
0.037588
0.125757
0.054979
0.010565
0.049159
0.081295
-0.022460
0.048827
0.053395
0.011391
-0.034029
0.026001
0.055668
0.109583
0.035730
0.082193
0.073384
0.035437
-0.004626
-0.005940
0.060424
0.083916
0.121523
-0.005181
0.091416
0.053172
0.069310
-0.016905
0.053422
0.005669
0.122771
0.112016
0.042996
0.079384
0.088050
0.123437
0.118214
0.146290
0.196668
0.095400
0.112179
0.150452
0.149690
0.229414
0.301167
0.186393
0.206054
0.240829
0.220724
0.202323
0.268305
0.293065
0.146612
0.255653
0.259422
0.146154
0.233548
0.242518
0.143844
0.152112
0.206042
0.089287
0.180077
0.110742
0.145944
0.115615
0.032057
0.122610
0.129045
0.079473
0.118269
0.082187
0.104223
0.049218
0.122100
0.064606
0.072005
0.120416
0.035679
0.023632
0.018775
0.134643
0.072127
0.033231
0.096186
-0.017411
0.103760
0.246346
0.515501
0.773444
1.167130
1.364251
1.489179
1.336476
1.072579
0.734944
0.408466
0.081636
-0.142018
-0.123647
-0.153237
-0.090584
0.010973
-0.087408
-0.000377
0.104400
0.040645
0.014809
0.029557
0.131040
0.056469
0.053301
0.049038
0.068692
0.135225
0.160755
0.160570
0.195416
0.163902
0.238978
0.228693
0.206161
0.192651
0.291523
0.193020
0.262062
0.266427
0.297661
0.336435
0.348891
0.351357
0.347723
0.407656
0.449445
0.458274
0.399241
0.501513
0.529972
0.507439
0.517105
0.509640
0.500686
0.588382
0.537109
0.553507
0.606988
0.574938
0.496518
0.520729
