0.514427
-0.102489
-0.202586
-0.644192
-0.640794
0.157393
-0.219163
0.336496
-0.022418
-0.330473
-0.398183
0.225500
-0.178133
-0.061325
0.532024
0.298972
-0.574182
-0.314698
0.290811
-0.256135
0.134690
-0.215343
-0.221155
-0.211021
-0.293755
-0.205950
-0.121690
0.439171
-0.115162
0.370648
0.055318
0.341867
-0.122455
0.159010
-0.053776
0.269558
0.199776
-0.289576
0.772477
-0.041071
0.355195
-0.379306
0.224846
-0.014892
0.299154
-0.064867
0.331367
0.804865
0.130434
0.212284
0.287859
0.268103
-0.402979
0.020673
-0.351830
0.091005
0.117774
0.118147
-0.479925
0.066633
-0.085961
-0.066719
-0.198132
-0.091456
-0.035480
0.376603
0.526343
-0.315359
0.178520
0.014427
-0.235706
0.077241
0.301273
0.095364
-0.737393
0.744513
1.075811
1.333194
1.057042
1.158707
0.441706
0.237654
0.390813
-0.742097
-0.519284
-0.424174
-0.069827
0.281099
-0.094082
0.051022
-0.844705
0.120849
-0.258574
-0.164577
0.358300
-0.275009
0.179973
0.430302
0.353175
-0.455778
-0.361193
-0.303424
-0.205325
-0.040947
0.448444
-0.326811
0.318670
-0.309523
0.252460
-0.159541
-0.002410
0.040267
0.085611
0.003339
0.294935
-0.076452
0.247162
-0.019969
0.317634
0.406947
-0.416794
0.330692
-0.565518
-0.227944
0.255759
0.441629
0.669847
0.722459
0.492565
0.259760
0.172810
0.125193
0.166675
-0.203132
0.641556
0.018824
-0.232638
-0.426734
-0.276029
0.074640
-0.450350
-0.290811
-0.645464
0.428512
0.446561
-0.326168
0.336258
0.462509
-0.370398
-0.252400
0.011319
0.678860
-0.207167
0.080885
-0.103677
0.008187
-0.001417
0.228953
0.015068
0.287502
-0.044702
-0.254927
-0.052107
0.106093
-0.295280
0.393009
-0.079209
0.430127
0.170835
-0.552709
0.049140
-0.179956
0.582576
0.312083
0.238379
-0.565829
0.613492
0.005932
-0.229965
0.038497
0.275702
-0.111708
0.111550
0.233439
0.018471
-0.134226
0.078302
0.103994
-0.375830
0.443657
-0.596434
-0.759159
0.397862
-0.319048
-0.068708
0.240467
-0.509471
-0.164165
-0.303009
-0.289978
0.128711
0.283797
-0.128621
0.276220
-0.170326
-0.594820
-0.314450
-0.210741
0.356518
0.208281
0.695191
0.141340
-0.564585
0.131176
-0.370125
-0.160916
0.102280
0.568773
-0.149333
-0.004116
0.263237
-0.167219
-0.001234
-0.155833
-0.142129
0.395801
0.371527
-0.268810
-0.022720
0.014714
-0.119074
0.436242
0.091242
0.205841
-0.400190
0.470876
0.099043
0.682299
0.423893
-0.217000
0.219210
-0.409220
-0.163548
0.489957
0.424381
0.136631
0.107419
-0.433931
0.612052
0.035470
-0.017402
0.266850
0.084393
-0.474151
0.318841
0.296780
-0.520286
-0.439499
0.161834
-0.268786
0.904172
0.055321
-0.015966
0.055438
0.140972
-0.143248
0.119079
0.070490
0.532298
0.439166
0.704258
0.577455
0.226765
0.728381
0.078435
-0.734331
0.265015
0.094435
0.037270
0.167571
0.284009
-0.230389
-0.181443
-0.447083
-0.286101
-0.269624
0.031134
-0.202041
0.500872
-0.036553
0.607457
0.863266
0.054655
-0.257667
0.064887
0.617665
0.271143
-0.257828
0.141113
0.153139
0.183590
0.166908
0.077478
0.218604
-0.162488
-0.276031
-0.066468
0.670968
-0.443756
0.673929
-0.173932
0.526845
-0.074335
0.818156
0.519114
-0.105715
0.606497
0.414773
-0.016890
0.191308
0.380088
0.248220
0.756167
0.249787
0.459842
0.199023
0.445548
0.024511
0.031052
-0.109877
0.207725
-0.056789
-0.081731
0.300594
0.520082
-0.169744
0.375402
0.029305
0.620949
-0.207642
0.614931
-0.598274
0.142731
-0.055471
0.644199
0.190801
0.363642
0.003060
-0.532855
-0.221574
-0.005315
0.423993
0.141917
-0.020930
-0.247826
-0.161904
0.268382
0.143357
0.047810
-0.079790
0.293431
-0.154234
-0.244812
0.159042
-0.161905
0.225541
-0.927362
-0.258692
-0.310320
-0.514153
0.050844
-0.074631
-0.505274
0.265195
0.151593
0.273678
-0.302243
-0.323596
0.638118
0.016599
0.779667
-0.289719
0.355540
-0.632316
0.069175
-0.361154
0.270680
0.437260
-0.597860
-0.476370
0.120194
0.261605
-0.075560
0.292412
0.558087
0.003446
0.045383
0.073037
0.306395
-0.241457
0.306420
-0.125211
0.051448
0.072834
0.153754
-0.303075
0.468724
0.166024
0.400615
0.080347
0.427273
0.221460
-0.233525
0.307617
0.011516
-0.472880
0.204641
-0.401697
0.240781
-0.418796
0.493872
-0.153499
0.272056
0.042832
0.156031
0.229792
0.301117
0.169303
0.358037
-0.074133
0.575251
-0.382533
0.045843
-0.132499
-0.372739
0.192513
0.438424
-0.041834
0.222012
0.151604
0.102459
0.495118
0.119320
-0.166757
0.123476
0.669000
0.221029
-0.274363
0.302250
-0.117052
0.134493
-0.253215
0.425712
-0.178692
0.185349
0.248316
0.132573
0.357985
-0.096171
0.578699
0.119514
1.500000
0.628349
0.317970
-0.109049
0.057350
0.082161
-0.350168
-0.077577
-0.273951
-0.604696
-0.654347
-0.096081
0.400246
0.390603
0.204780
0.502002
-0.197927
-0.049631
0.666373
0.359764
0.113589
0.462100
-0.052827
-0.344826
0.022629
-0.183856
-0.059349
-0.486371
-0.450561
0.119404
0.438591
-0.250681
0.781742
-0.030680
-0.007452
-0.387112
0.023769
-0.005458
0.635218
0.502809
0.346711
0.880167
-0.096291
-0.285476
-0.160338
0.699569
0.549943
0.409157
-0.162704
0.594040
0.117753
-0.113629
-0.254615
0.670289
-0.209998
0.217639
-0.200392
0.791067
-0.059815
0.468131
0.270420
-0.088320
-0.705231
0.125254
0.017105
0.204827
-0.107302
0.899448
0.027799
-0.044524
-0.073802
-0.049157
-0.388484
0.161816
0.163658
0.005416
0.116405
0.069529
0.137322
0.236763
0.495457
-0.166128
0.421827
0.059243
0.225236
0.010966
-0.449226
0.370427
-0.167976
0.348840
0.311720
0.179873
0.374125
-0.621907
-0.010073
-0.153841
-0.598831
0.434547
0.271490
0.197809
-0.057746
-0.229327
-0.244118
0.732216
0.206399
-0.125837
-0.367788
-0.926550
0.388144
0.933686
-0.407567
0.275506
-0.858227
-0.128499
-0.044529
-0.079144
0.308726
-0.139832
-0.018539
-0.196330
-0.452843
0.102087
-0.218056
-0.076632
-0.125760
0.230502
0.133995
-0.177350
-0.101484
-0.248269
0.339261
-0.156424
-0.552954
-0.011694
-0.442430
-0.147771
-0.421400
-0.139234
-0.313427
-0.490515
-0.096853
0.371068
0.366536
-0.047994
0.060064
-0.155570
0.071627
-0.584876
-0.007634
-0.204283
-0.101873
-0.474793
0.271553
0.434604
0.488815
0.416034
-0.139858
0.269384
0.303081
-0.181415
0.554694
-0.047248
0.435351
0.567956
-0.340856
0.187080
-0.293876
-0.063502
0.009610
0.334300
-0.315083
-0.020665
0.132526
0.422805
0.038212
-0.076993
-0.115074
0.053314
-0.176359
-0.507504
-0.469776
-0.008487
-0.352945
-0.183641
-0.281366
-0.236332
-0.355430
-0.089562
0.092247
0.099816
0.057948
0.535086
0.845181
0.432877
0.656686
0.122280
0.059420
0.341324
-0.145981
0.060763
-0.055223
0.051573
0.494735
0.263968
-0.278028
-0.393172
0.346182
0.471943
-0.036022
0.184845
0.257339
-0.208822
0.278534
-0.043263
-0.129049
-0.401324
-0.083534
0.534824
-0.141116
0.135866
-0.330390
0.217329
-0.360188
0.203967
0.392891
-0.151782
-0.230257
0.159628
0.098381
0.212772
0.027058
0.414451
-0.013299
-0.409063
0.014909
-0.096245
0.247227
0.014245
-0.170424
-0.508792
0.139434
0.757526
0.719402
0.268178
0.204554
-0.577501
0.568438
0.110500
0.401338
0.036303
-0.015244
0.647368
0.473841
-0.388647
0.328667
0.055386
0.077214
0.096157
0.157966
0.010844
-0.128342
0.429055
0.241785
-0.220253
0.145785
-0.472892
0.000836
-0.463043
0.358295
-0.076756
0.001965
-0.251035
-0.836729
0.236870
0.422496
-0.363418
0.165833
-0.387654
-0.146527
0.595561
-0.072308
0.758166
-0.339460
-0.263422
-0.098222
0.267361
-0.022307
-0.107664
0.299069
0.408532
-0.314777
-0.056310
-0.590332
-0.025329
-0.499878
0.531755
-0.137879
0.093336
0.225499
-0.531839
-0.089905
0.037916
0.044800
-0.858122
-0.096430
0.420451
0.455371
0.110510
-0.212516
0.125743
0.067024
-0.041721
0.343282
1.049711
0.143781
0.106593
-0.150294
0.124128
-0.143939
-0.103518
0.184868
-0.067860
-0.397143
-0.366346
-0.069624
-0.288725
0.607731
-0.037686
-0.110948
0.485122
0.253235
0.084127
-0.116715
0.242273
-0.167302
-0.046352
0.041263
-0.184530
0.706972
0.118782
-0.766645
-0.098482
-0.067781
0.357739
0.010828
0.463132
-0.181995
0.031322
-0.271263
0.373395
-0.231416
0.081495
0.218832
-0.257466
0.046763
-0.052495
0.115615
0.420530
0.181453
-0.068767
0.416925
-0.039987
-0.305649
-0.117546
-0.444507
0.494170
0.468510
0.314351
0.215337
0.106777
0.439150
-0.317819
0.574451
0.060861
0.218758
0.371324
0.052068
0.470395
0.145682
-0.132228
0.062568
-0.061272
0.596852
0.469934
0.176260
0.844391
0.306195
0.376390
1.010939
-0.062419
-0.193561
0.071840
-0.718461
-0.366487
-0.065092
-0.098717
0.100579
-0.187618
-0.443564
-0.575805
0.124734
-0.507338
0.482062
0.283292
0.543841
0.181269
0.937932
0.510844
-0.003637
-0.188398
0.058100
0.027686
0.100184
0.450561
0.481644
0.435247
-0.112519
-0.176601
-0.134292
0.258963
0.302592
0.572426
0.594610
0.174138
0.378449
0.348706
-0.486225
-0.141501
0.515538
0.338155
0.149183
0.156788
1.092630
0.113850
0.670942
-0.139891
0.548003
0.197206
-0.037521
0.048795
-0.146707
0.377377
0.233396
0.656617
-0.181957
0.321953
0.302422
0.849513
0.069309
-0.356819
0.220329
-0.031195
0.421262
0.770368
0.498660
0.669536
-0.317512
0.123819
0.047405
0.484455
0.087541
0.172086
-0.251799
-0.117907
0.445019
0.161377
-0.512918
0.194044
-0.360907
0.480134
-0.015974
0.156535
0.281551
0.248379
-0.293761
-0.157199
0.689417
0.301796
0.350260
0.047890
0.319676
-0.663732
0.629699
-0.110376
0.123451
-0.019239
0.462186
0.024872
0.248047
0.518265
-0.441813
-0.061699
0.006427
-0.593420
-0.337389
-0.131603
-0.120872
0.070967
-0.044679
-0.109082
0.158270
0.112102
0.160416
-0.323652
0.285611
-0.296330
0.158809
0.259267
-0.250070
0.100852
0.144776
0.042056
-0.142005
0.808124
0.005738
0.160511
-0.126741
-0.292905
-0.103230
-0.201900
0.357691
-0.005488
0.072807
0.546465
-0.221647
0.294597
-0.338125
0.135029
0.447718
0.357841
-0.368742
0.239672
0.449978
0.147064
0.080864
0.516859
0.268212
0.242487
0.348493
-0.164221
-0.029887
0.050068
0.577798
1.065412
0.162709
-0.462709
0.104589
0.478639
0.084527
0.324282
0.093046
-0.926074
-0.236653
0.297305
0.017803
-0.375307
-0.115456
-0.114476
0.270073
-0.099210
0.012506
-0.173014
-0.413006
-0.016658
0.186959
-0.084226
-0.272825
-0.466995
-0.128522
-0.054262
0.334864
0.074389
0.109597
0.367504
0.557265
0.212601
-0.122113
0.417423
0.437058
0.633698
0.142711
0.225011
0.462600
0.170870
-0.204970
-0.289478
-0.178198
0.037208
0.178167
0.466712
0.360254
0.119015
0.397628
-0.143962
-0.446784
0.337936
-0.496890
0.319752
0.219038
-0.076927
0.526860
-0.620155
0.362642
0.117815
-0.199668
-0.231189
0.184575
-0.299811
0.319205
-0.377400
0.324505
0.762964
0.241698
0.238631
0.324241
-0.158736
0.404156
0.668282
0.129412
0.570704
0.069140
0.006190
0.219006
0.301766
-0.240610
0.517760
-0.287436
0.843004
0.012080
0.220272
-0.124220
0.645812
-0.022471
0.142526
-0.034443
-0.046120
0.696798
0.360469
0.600554
-0.052091
0.376243
0.029084
-0.282818
0.076011
0.059202
-0.676114
0.298477
0.298835
0.489943
0.078186
-0.462179
0.625998
-0.554961
0.181266
-0.382223
-0.098560
0.248570
-0.259358
0.176404
0.505061
-0.311291
0.324899
0.035423
0.541994
-0.254205
0.236746
-0.128535
-0.010809
-0.634160
0.445687
0.519270
-0.232387
-0.206469
0.457759
0.140606
0.448771
-0.499071
0.283015
0.566876
-0.162255
0.409230
0.133928
-0.174656
-0.451831
-0.381008
0.660032
0.019511
-0.951416
-0.032219
-0.253688
-0.760768
0.119102
-0.254954
-0.097530
0.069710
-0.414472
0.394065
0.056173
0.161084
-0.121750
-0.078388
0.232924
-0.005122
-0.282560
-0.220274
-0.368035
-0.472702
0.215443
0.003892
0.050141
-0.045170
-0.006300
-0.134084
0.505865
0.134695
-0.071918
-0.226266
-0.368912
0.516828
0.452425
0.179076
0.457511
0.400126
-0.390458
-0.342594
0.007754
-0.183156
-0.213753
0.371256
-0.289342
-0.388029
0.168850
0.238006
0.311574
0.228361
0.118135
0.196602
0.198499
0.100916
0.133087
-0.235214
-0.407623
0.064923
0.187659
-0.243160
-0.336385
-0.117365
0.083778
0.212261
0.078264
-0.229824
0.130572
0.309439
0.248019
0.407757
0.454286
-0.175639
0.050379
-0.210994
0.050540
0.020152
0.476519
-0.534832
-0.238817
0.176623
0.063402
0.555412
0.274964
1.145063
0.191519
0.618118
0.298293
0.442889
0.148633
0.169890
0.160307
-0.240131
-0.145619
-0.360584
0.083749
-0.382325
0.500954
0.109225
-0.249675
0.091461
0.148021
-0.118777
-0.114046
0.260893
0.051502
0.154839
-0.077911
0.152756
0.420245
-0.028321
0.259667
0.061862
-0.088618
0.287454
0.861757
0.197538
0.033740
0.202429
-0.218784
0.203633
0.769977
0.371199
-0.345234
-0.144326
-0.246382
0.540280
-0.156469
0.399091
0.698508
0.518184
0.616983
0.054969
0.185400
0.035315
0.472534
0.181738
0.452877
0.693964
-0.240509
0.317493
0.385727
0.248031
-0.233865
0.717248
0.120857
0.300104
-0.053353
0.910972
0.306076
0.380354
-0.351554
0.293395
-0.207776
-0.228316
0.397386
-0.112816
0.267899
0.167855
0.486573
0.287108
0.730832
-0.128183
-0.383800
0.640187
-0.152040
-0.161934
-0.272324
0.309325
0.226431
-0.044830
-0.019731
-0.137084
-0.035127
0.384817
-0.103208
0.182132
-0.220570
0.272394
-0.370821
-0.348678
0.064612
0.287322
0.213563
-0.199391
-0.216255
-0.102720
-0.461231
-0.133160
0.525601
-0.291610
-0.195599
0.427236
-0.273819
1.040619
-0.204626
-0.564893
-0.097995
0.303562
-0.667881
-0.567320
-0.138273
0.015835
-0.332505
-0.033738
0.521075
-0.302834
0.109785
-0.202407
-0.066441
0.493828
0.217630
0.248980
0.148466
0.549808
-0.270458
-0.341049
-0.131200
-0.044390
-0.202784
-0.262334
0.148798
0.362841
-0.025965
-0.444081
-0.286816
-0.256358
0.329087
-0.057231
0.117347
0.097534
0.088792
-0.409812
0.799437
-0.474303
0.060358
0.415108
0.557066
-0.020530
0.051142
0.372901
-0.535567
-0.568898
-0.589279
0.168977
-0.256042
-0.024807
-0.005123
-0.454272
0.396327
0.794628
0.078781
0.113054
-0.666581
0.279957
0.447758
-0.652877
0.243872
-0.118883
0.103945
0.121923
0.561669
0.053073
0.146823
-0.136892
0.254890
0.070838
-0.469488
-0.836066
-0.086990
0.283061
0.473099
0.326672
-0.066416
-0.394228
-0.451798
1.052624
0.212070
0.830380
0.209172
0.473928
0.498737
0.372283
-0.741839
-0.022218
-0.082484
-0.043430
0.015832
-0.057270
-0.206920
-0.344733
0.149865
-0.236641
0.248742
-0.099088
0.166307
0.057756
0.295872
0.038103
-0.359044
-0.175018
-0.149171
-0.512142
-0.465089
-0.232995
0.460500
-0.045801
0.324318
0.089229
0.490370
-0.082268
0.638544
0.006164
0.589819
0.299735
-0.002785
0.036043
0.278645
0.495210
-0.053345
-0.101356
0.243360
0.645913
0.513561
0.578659
0.563296
0.259205
0.497390
0.003768
0.174089
0.107483
0.504168
0.990522
0.061020
-0.171524
0.247037
-0.018041
0.031382
0.165579
0.082534
0.220450
0.662426
-0.470398
-0.073831
-0.046406
0.054825
-0.199397
0.222602
0.219491
-0.578913
0.073285
0.155638
0.170223
0.237389
-0.140118
-0.199882
0.203948
0.145914
0.191136
0.295833
-0.316325
-0.257699
-0.452954
0.101612
-0.123743
-0.146239
-0.332526
-0.078269
0.023403
-0.199698
-0.020769
0.049794
-0.117140
-0.666684
0.418058
-0.104557
0.089527
-0.052269
0.111764
-0.305953
-0.161866
-0.782667
-0.195771
-0.405377
0.076463
-0.168385
-0.104654
-0.020450
-0.194589
-0.025261
0.217424
-0.146742
-0.009357
-0.089744
0.147326
-0.458813
0.222504
-0.366556
0.230487
-0.838293
-0.416960
-0.292550
0.531805
-0.612813
0.449071
0.123286
-0.046130
-0.148206
-0.331189
0.398808
-0.077736
-0.104163
-0.037320
0.119672
0.572154
-0.206044
-0.360963
-0.009955
-0.039500
0.072097
0.270207
0.176375
0.268674
-0.188964
-0.363841
0.030332
0.155981
0.665849
-0.449624
0.177517
0.263189
-0.279883
0.273462
0.001572
0.172237
-0.203701
-0.022753
-0.010472
-0.065710
0.339623
0.410513
-0.485308
0.381507
-0.103431
-0.100283
0.275687
0.180643
0.060837
0.014628
0.547531
0.469472
0.302743
-0.112617
0.164573
0.154760
-0.354659
-0.063368
0.029041
-0.251996
0.673055
-0.332265
-0.164940
0.429178
-0.360703
-0.404847
0.224413
-0.488815
0.255023
0.117584
0.513675
0.691229
0.709403
0.389152
0.502022
0.519999
0.214740
-0.037153
0.031382
-0.253082
0.033919
-0.180386
0.660876
0.505491
-0.007598
0.356308
0.001384
0.539397
0.055983
-0.188363
-0.163014
0.383234
-0.605811
0.200214
0.148207
-0.196823
-0.202849
0.124347
-0.133420
0.211146
0.596571
-0.059321
0.088820
0.689442
-0.633707
-0.066886
-0.209974
0.547419
0.267038
-0.026325
0.027901
-0.282287
0.432078
0.263221
0.515897
0.043851
0.042925
0.138732
0.519437
0.176483
-0.277595
0.823287
0.194127
0.708410
0.840106
-0.328313
0.443625
0.197287
0.199552
-0.426720
-0.112043
0.692062
0.552181
0.201422
0.226911
0.136802
0.643153
-0.106816
0.041431
0.535815
0.334751
0.091294
-0.152766
0.015370
0.034752
0.162787
0.527530
0.626921
0.020745
-0.146647
0.197437
-0.233970
0.701076
-0.236506
0.298448
-0.545713
-0.145963
0.361519
0.343409
0.031608
0.998586
0.123089
-0.250931
-0.030732
-0.000764
0.148620
0.419702
0.149024
-0.552261
0.015523
-0.131700
-0.261145
0.165271
-0.192345
0.580518
-0.389164
0.163728
0.298101
0.278162
-0.676449
-0.155627
-0.352311
-0.268399
0.226104
0.047367
-0.173121
0.364623
0.330893
0.094946
-0.040883
-0.309031
0.220611
0.505867
0.533411
-0.115101
-0.262850
0.216610
-0.315759
-0.103631
-0.438558
-0.247974
0.664217
0.048246
0.061240
-0.241446
0.113133
0.221044
0.124938
0.746637
-0.092004
-0.167747
0.113386
0.463805
0.269947
-0.567775
-0.012676
-0.107877
-0.132991
-0.078819
0.227533
0.111649
-0.015315
0.055689
-0.083635
0.203779
-0.345829
-0.439235
-0.696529
0.023399
0.078486
-0.067997
0.178012
0.218123
0.047269
0.719534
0.353539
-0.274652
-0.366401
-0.195907
-0.416834
0.196700
-0.085250
-0.041995
0.229728
0.003633
-0.453566
0.326505
-0.229321
0.020191
0.153655
-0.058244
-0.198759
-0.121680
-0.206242
-0.067132
-0.912263
0.341519
0.450010
0.096839
0.091287
0.292910
0.285765
0.499684
0.861373
0.446443
0.402078
0.376460
0.771201
0.000907
-0.553334
-0.021603
-0.503266
-0.296439
-0.154973
-0.489677
0.112217
0.288514
-0.785688
-0.208342
-0.127977
0.314588
0.059734
-0.086953
-0.038418
0.317989
-0.185381
0.106212
0.528930
0.919530
0.077442
0.054772
-0.097533
-0.775221
0.177799
0.089852
0.133850
-0.112460
0.057818
0.375573
0.284390
0.664565
0.241408
0.224779
-0.174487
0.400892
0.667499
0.357136
-0.084996
-0.289572
0.862354
0.697431
0.336975
0.426115
0.425888
0.526470
0.689218
0.890477
0.166344
-0.141917
-0.324157
-0.217982
-0.119285
0.018078
0.083235
-0.228670
0.201702
-0.453837
0.616158
0.408637
-0.456724
0.559005
0.558050
-0.219714
-0.052298
-0.189113
-0.354877
0.140330
-0.182251
0.709091
-0.058293
0.472645
0.431709
0.224325
-0.363472
-0.401954
-0.566131
-0.022113
0.023336
0.295736
-0.519905
0.241981
0.327530
0.164003
0.572293
-0.064838
-0.444239
0.306484
0.404200
0.685654
-0.231745
0.213944
0.117488
-0.367154
-0.771581
0.339631
0.404502
-0.183267
-0.822377
-0.014536
0.135550
0.159637
-0.311086
0.957886
0.222313
-0.431327
0.562760
-0.409340
0.133434
-0.584845
0.047708
-0.004077
0.187842
-0.166657
0.077846
0.220614
0.500848
-0.495931
0.330000
0.043112
0.084153
0.471188
-0.335501
-0.131322
-0.324598
-0.171851
-0.285590
0.152012
0.144320
0.023593
-0.163964
-0.044305
0.012414
-0.060907
0.158982
0.617066
-0.585014
0.011336
-0.057099
-0.100950
0.308855
-0.058500
0.143248
-0.190603
0.248154
-0.268726
-0.032402
0.152685
0.505775
0.525160
0.162473
0.354959
0.043580
0.506389
0.312247
-0.017795
0.282720
0.399607
-0.404321
-0.087263
-0.414788
-0.294008
0.429931
-0.245167
-0.085299
-0.534004
-0.122801
0.031155
0.344372
0.541072
0.041031
-0.206846
-0.205409
-0.188565
-0.145254
0.035772
-0.211284
0.294530
0.727597
-0.216369
0.057218
0.244346
0.095751
-0.187719
0.518218
0.835378
0.392150
0.772982
0.390557
-0.481512
0.400870
0.239070
0.235450
0.088574
-0.356556
0.042272
0.012329
-0.315314
-0.087703
0.249890
-0.057721
-0.086718
0.188879
-0.006839
-0.425988
0.899667
-0.331095
0.362470
-0.441914
-0.225100
0.041285
0.705783
0.424928
0.656586
-0.376990
-0.469899
0.653087
0.365559
0.414921
-0.030242
0.248476
0.393524
-0.135604
0.234368
0.394803
0.427170
0.307178
-0.506413
0.470067
0.760235
-0.285650
0.684221
0.369796
0.775866
0.220468
0.670927
0.408583
0.476738
0.030473
0.504560
0.412393
0.447478
0.209812
0.155601
-1.146255
-0.542496
-0.013590
-0.103389
0.848710
0.346219
0.522643
-0.120968
0.517261
0.252166
0.370170
0.212753
0.086234
0.068487
0.111569
0.370097
0.593958
-0.326481
0.484011
0.264582
-0.414939
-0.244543
0.294754
-0.628029
0.137129
0.212826
0.396034
0.123933
-0.475593
0.596344
0.816332
-0.237404
0.296638
-0.435368
0.167699
-0.148613
-0.250148
0.573637
0.247214
-0.355342
0.013520
-0.262903
0.060060
-0.171726
-0.560031
0.152643
-0.231763
-0.219089
-0.198409
-0.040581
-0.091688
0.390101
0.448838
-0.187942
-0.081678
-0.098443
-0.047523
-0.053538
-0.336145
0.527582
0.194336
-0.106893
0.036925
-0.409020
-0.390628
-0.149489
0.012079
-0.280308
0.252054
-0.128871
-0.766847
-0.382194
-0.149089
0.051159
0.127398
-0.306793
-0.081765
-0.114829
-0.280234
0.192178
-0.036457
-0.020648
0.329425
-0.130972
0.469670
-0.077992
0.032597
0.307501
0.124486
0.160326
-0.240968
-0.191944
-0.003533
-0.172809
0.063143
0.707049
-0.047501
-0.189267
-0.224457
0.218991
0.217296
-0.064080
0.289671
0.332583
0.707447
0.141369
0.657486
-0.426513
-0.107415
-0.235737
-0.324399
0.008853
0.297949
0.080471
-0.184797
0.733886
0.175688
-0.356269
0.604514
-0.345965
-0.740577
0.363908
-0.641274
-0.754976
-0.002710
-0.676123
-1.118590
-0.525117
0.157671
-0.365790
0.601868
0.246838
0.268541
0.785227
1.293832
1.028855
0.698889
0.980144
0.244848
0.073374
-0.330254
-0.194469
0.586008
-0.051193
0.085818
-0.005262
0.695318
-0.098610
0.025179
0.373669
0.680650
-0.423004
0.418034
-0.047940
0.063931
0.242057
0.089676
-0.074259
0.451272
0.762072
-0.158757
0.710235
-0.113797
0.371867
-0.643896
0.310412
0.268299
0.684634
0.395204
0.188170
0.579417
0.375519
0.441939
0.863974
-0.106342
0.047116
-0.159610
0.056589
0.322570
0.358015
-0.028619
0.795733
0.644785
-0.150185
-0.332258
0.165760
0.160118
0.228139
0.355728
-0.181170
0.140789
0.347555
0.286513
0.276715
-0.016308
0.190889
0.232260
0.085914
0.283482
0.044726
-0.117668
0.152192
0.201065
0.148152
0.666649
-0.374854
-0.744977
0.506884
-0.006550
-0.342970
0.091490
0.873744
0.285116
-0.593527
0.283744
-0.273955
-0.128334
0.713487
0.036826
-0.105047
0.419857
0.659597
0.059255
0.155978
-0.458046
0.319088
0.117018
0.466978
-0.631841
-0.013892
-0.265372
0.325400
-0.647634
0.402500
-0.200395
0.072075
0.032735
-0.559667
-0.030774
-0.854701
0.105929
-0.294190
-0.171543
-0.171560
-0.542732
0.043060
-0.311048
-0.418546
-0.319779
0.645232
-0.359948
0.312581
-0.176962
0.807282
-0.061027
0.749455
-0.157313
-0.289272
0.057175
-0.489191
0.156178
0.005214
0.072323
0.287116
-0.497367
0.491075
0.104090
-0.110774
0.341797
-0.040294
0.553663
0.303528
0.098370
-0.200467
0.314388
0.035486
-0.007713
0.067075
0.152314
-0.784877
0.002687
0.332800
0.249164
-0.016926
-0.541359
0.503161
0.256274
0.493326
0.584681
0.297758
-0.115423
0.375115
0.334014
0.218618
-0.106732
-0.157672
0.795886
-0.149035
0.409963
-0.109355
0.182711
-0.284267
0.018795
0.175735
0.081200
0.244410
-0.017639
0.395332
0.244521
0.076800
0.550475
0.152057
0.102558
0.206383
0.158906
-0.276135
-0.061159
-0.699491
0.086649
-0.429683
0.225161
0.104950
0.078484
0.614766
0.130951
-0.098938
0.332037
0.455873
0.862130
1.376122
0.810384
0.269032
0.357845
0.549409
0.459666
-0.079664
-0.273633
0.352699
0.096000
0.069858
0.458448
0.373185
0.243458
-0.388951
0.443617
-0.297661
0.235991
0.297159
-0.143745
0.321090
-0.419129
0.444608
0.332064
-0.245895
-0.248984
-0.268029
0.052550
0.265463
0.659939
-0.065172
0.312231
0.007440
0.099860
0.385765
0.557043
0.018963
0.243585
0.664527
-0.231787
-0.111259
-0.056466
0.556692
0.434898
0.600835
0.540810
0.579624
-0.003268
0.177916
0.385034
0.790995
0.525096
0.120858
0.311690
0.452400
-0.186977
0.394029
0.397258
0.272251
0.306112
0.171929
-0.363291
0.685513
0.072076
-0.303185
0.193991
-0.269949
-0.241756
0.365016
-0.056486
-0.337086
0.257567
0.063516
0.806958
0.386406
-0.255250
0.312258
0.026662
0.248915
0.302003
-0.018295
-0.028889
-0.069091
-0.697655
-0.287504
0.533223
0.604041
0.054323
0.163636
0.013570
-0.200574
0.483561
0.540426
0.064015
0.002453
0.473435
-0.293029
-0.391846
0.023922
0.141079
-1.049410
-0.140695
0.228463
-0.506668
-0.186912
0.378361
0.174124
0.129563
0.285094
-0.389582
0.209729
-0.253494
0.004825
-0.101408
