0.229764
-0.742189
-0.491853
0.333001
-0.781813
-0.088999
0.034303
0.066807
-0.369146
0.418706
0.040349
-0.133629
-0.382471
0.566108
0.291053
-0.337840
-0.281303
-0.271598
0.288873
0.110686
0.845334
0.229095
-0.227040
0.111818
-0.342172
-0.531253
0.706786
0.101574
-0.061349
-0.115410
0.094382
0.128999
-0.050165
0.336060
-0.282402
-0.031383
0.332480
-0.998345
0.264401
-0.009766
-0.214366
0.579309
0.211136
-0.126119
-0.222386
-0.115817
0.439464
0.173130
-0.833922
0.460584
-0.331055
-0.638169
-0.169256
0.583568
-0.013332
0.294640
-0.275910
0.769692
-0.364637
0.244458
0.689378
-0.325594
0.476629
0.366464
0.411358
0.008675
-0.680618
0.226902
0.399639
0.239878
0.141777
-0.124357
0.097544
0.238817
-0.157617
0.508839
0.093928
0.524495
-0.142169
0.650037
-0.351865
-0.007025
0.431581
0.207585
-0.080816
0.058147
-0.415652
0.354001
-0.033267
0.337565
-0.279269
-0.153567
0.055101
-0.218723
0.116005
-0.060734
-0.115691
0.005037
0.400500
0.396702
-0.339982
-0.473563
0.336925
0.411632
0.062238
-0.114943
-0.642566
0.198047
-0.042020
-0.073470
0.091182
-0.024935
-0.448808
0.146460
-0.155968
0.074909
-0.339231
0.191930
0.000917
0.158811
0.573385
0.066432
0.426452
1.386005
0.346089
0.699132
1.224466
0.499109
0.261651
0.697637
0.030324
0.092414
0.862542
-0.339984
0.549453
0.073504
-0.220377
0.405365
-0.053565
0.159254
0.576664
-0.127713
0.183739
0.110042
-0.117464
-0.575511
0.079361
0.277005
0.057834
0.352476
-0.118088
-0.485520
0.381237
0.087864
0.050336
-0.709868
-0.187738
-0.128244
-0.716143
0.024086
0.321625
0.106766
0.101960
0.227344
0.157355
-0.097157
0.420952
0.140602
0.051721
0.734139
0.217137
-0.733081
-0.000824
-0.109436
-0.280911
0.379039
0.327407
0.615620
0.304610
-0.000683
0.032930
0.116236
0.331299
0.411472
0.123678
0.056620
0.200064
0.031561
-0.498449
0.540032
-0.226692
0.315674
0.150887
0.675085
1.163372
0.038665
0.796332
0.781820
0.292898
0.434545
-0.130348
0.300481
0.064350
0.091482
0.248728
0.218458
-0.124759
0.072861
0.606111
-0.335672
0.411239
0.480852
0.804458
0.446383
-0.369208
0.189651
0.640038
0.376508
-0.725167
1.048804
0.329902
0.485843
0.751463
-0.253469
0.139740
-0.444544
0.571008
0.739821
0.040797
-0.100410
0.041816
0.680516
0.400329
0.899147
-0.136165
-0.376172
-0.147854
-0.158108
-0.082133
0.123239
-0.080807
-0.272866
0.031198
-0.266185
-0.083798
0.344980
-0.024121
-0.175210
-0.027936
0.177217
0.045553
0.709699
0.250206
-0.471525
0.267058
0.015735
-0.365920
-0.763480
-0.241659
-0.399802
0.389331
-0.140215
-0.179391
-0.403995
-0.395767
-0.556869
-0.265212
-0.118183
0.233239
0.714413
0.566976
-0.327084
-0.380019
0.284965
-0.095311
0.162813
0.066479
0.308794
0.277920
-0.245086
-0.210901
-0.227574
-0.527708
0.367424
0.034889
-0.454618
0.098012
0.417618
0.061676
0.346570
-0.452266
-0.756431
0.057802
0.060566
-0.036398
0.520211
0.144573
0.377024
0.074809
-0.085963
-0.509003
-0.238961
-0.430267
-0.240570
-0.240516
0.376146
-0.275118
-0.272798
-0.418929
0.336224
-0.354127
-0.156139
0.346604
-0.208861
-0.301508
-0.097185
0.111135
0.037881
-0.366577
-0.462886
-0.003315
-0.397747
0.078889
-0.421542
0.421008
0.116774
-0.119070
-0.171669
0.442632
-0.394814
0.772816
-0.205496
0.013653
-0.221802
0.048184
0.359836
0.284142
-0.093607
-0.015207
0.276056
-0.352344
-0.292756
-0.795439
0.415951
0.193952
0.319484
-0.422420
0.012371
0.338065
0.224389
0.007202
-0.056533
0.194256
0.235144
-0.489688
-0.131747
-0.193653
0.607422
-0.016220
0.469777
0.095607
0.381001
0.446860
-0.472240
0.636343
-0.420846
-0.277217
0.500848
-0.216929
-0.228290
0.432258
-0.077195
0.230113
-0.549359
0.529411
0.417325
0.290191
-0.176187
-0.213926
-0.477378
0.280115
-0.191277
-0.314454
-0.601253
-0.194805
-0.179176
-0.015108
0.198165
0.035689
0.577292
-0.114014
0.810124
-0.817365
0.239138
-0.475508
0.428469
0.267428
-0.024467
-0.355119
0.016981
-0.448561
-0.647511
0.327306
-0.137827
0.375318
0.313581
0.410741
0.119259
-0.305366
0.053205
0.358829
0.291335
0.112690
0.479931
-0.042918
0.107636
0.075716
-0.297136
-0.302833
0.080013
0.001931
-0.408003
0.111382
-0.115494
0.047549
-0.112580
-0.606995
-0.183078
0.127148
-0.402927
-0.297658
0.037165
-0.530097
-0.162465
-0.008547
0.463356
0.134272
0.614626
0.724661
0.718428
0.730420
-0.174949
-0.141767
0.131826
0.286546
-0.200458
-0.512172
0.034908
0.523110
-0.346383
-0.357790
-0.577543
-0.175936
1.077252
-0.775030
-0.213362
0.518524
0.088202
0.112550
-0.063856
-0.282680
0.439590
-0.048258
-0.063265
0.088294
0.133202
0.020595
-0.122728
0.153138
0.568543
-0.129832
0.476409
0.318429
0.047489
-0.425662
0.182927
-0.382125
-0.671877
-0.369899
0.248185
-0.075560
-0.402766
-0.380531
-0.217933
0.045980
0.243455
0.031981
-0.382249
0.392864
0.075150
-0.022878
0.241842
0.662189
0.503218
-0.449075
-0.309602
0.828785
0.104441
-0.072409
0.171225
0.302336
-0.445184
-0.264575
0.624679
0.519443
0.608586
-0.189628
0.976311
0.323799
0.471686
0.790807
0.893547
0.385039
0.208839
0.707092
0.147279
1.121516
0.097121
0.081220
0.768177
0.217514
0.666628
0.005297
-0.182164
0.188655
0.053101
0.054436
-0.009792
-0.206267
-0.205068
-0.146762
-0.438172
-0.144449
-0.374761
0.119339
0.099308
0.171582
0.269184
-0.248809
0.656953
0.216309
0.338859
0.334114
-0.180668
-0.461323
-0.072154
0.233761
-0.228949
-0.197442
-0.150490
-0.024901
-0.063146
0.127116
-0.547166
0.184649
0.212724
-0.217565
0.403077
0.588358
0.085696
-0.512982
-0.366426
-0.544124
0.219662
-0.174998
-0.362311
0.122897
0.367405
0.319594
-0.107085
-0.133744
0.036494
0.859637
0.209056
-0.297888
-0.523562
0.213572
0.209075
-0.186888
0.880770
-0.041270
-0.063746
0.004725
-0.254531
0.082416
-0.188207
0.167828
0.328303
-0.258667
0.194254
-0.598906
-0.051621
-0.207493
-0.190703
0.841625
0.308443
-0.218518
0.279186
0.100586
0.519486
0.207278
-0.337033
-0.620561
-0.102896
0.546869
0.060337
0.589547
-0.158933
0.116481
-0.242070
-0.305844
0.116021
0.023207
-0.816921
-0.485007
-0.099009
-0.353791
0.367021
0.507523
0.064830
0.122296
-0.152512
-0.051811
-0.352256
-0.156500
-0.323024
-0.377126
0.113772
-0.842563
-0.805193
-0.907024
0.008571
0.393627
0.063714
-0.062109
0.061538
0.395934
-0.038801
-0.022810
-0.383191
-0.286261
0.088459
-0.043889
-0.179817
0.491330
0.297474
0.608305
-0.075316
0.373638
-0.441160
-0.615852
0.083575
-0.297365
-0.216237
0.337444
-0.460751
0.279058
0.551021
-0.543877
-0.222140
-0.352017
0.421908
0.152638
-0.069908
-0.453259
0.134768
0.221569
-0.396063
-0.117848
-0.166939
0.093799
-0.628350
0.635941
-0.139057
0.289806
-0.005928
0.318876
0.582318
-0.040086
0.273553
0.080570
0.451761
0.221854
0.304607
0.062079
0.333069
-0.309874
0.009035
-0.001393
0.015626
-0.072708
0.626172
0.089781
0.249969
-0.052818
0.025420
-0.554767
-0.412619
0.048776
-0.478097
0.511171
0.578848
-0.366289
0.158896
-0.173360
0.146572
-0.131202
0.267960
0.310142
0.691656
-0.348793
0.206912
-0.149770
-0.456440
0.431526
-0.052708
-0.176819
0.162760
-0.518064
-0.062852
-0.006431
-0.488111
0.044742
0.055320
0.105338
-0.640388
0.416120
-0.313642
0.027247
0.126959
-0.700214
0.010077
0.487497
-0.792600
-0.408779
0.071613
-0.457138
-0.055677
0.412320
0.048549
0.666829
1.049407
0.286196
-0.011666
0.376517
-0.093587
0.044617
0.055659
1.075521
0.062220
1.161909
0.928584
0.813818
0.762372
-0.197679
-0.064265
0.173904
0.586497
0.289514
-0.420492
-0.634906
-0.227562
0.026200
-0.018564
0.257073
0.229413
0.624242
0.455586
0.073903
0.276986
0.024385
-0.015684
0.192915
0.229687
-0.139911
-0.570250
0.177840
-0.355501
-0.191258
0.243843
0.609280
-0.299958
0.027440
-0.737221
-0.041516
-0.561359
-0.171645
0.005322
-0.220152
-0.243473
-0.471213
0.391287
0.103188
-0.259237
-0.324532
-0.282855
-0.036263
0.583307
0.386409
0.019591
-0.092091
-0.434599
0.103254
0.464551
0.483365
0.072247
-0.381655
-0.321271
0.985428
0.272465
0.226920
0.487818
0.229464
0.208908
0.521218
0.393015
1.450809
0.276983
0.532297
0.443242
0.125116
0.683911
-0.051218
0.639302
0.443724
-0.041604
1.306022
0.946745
0.307252
0.556266
0.700594
0.511956
0.346678
0.077226
0.230930
0.200161
-0.319346
0.221040
0.124619
0.620340
0.944173
0.230929
0.215103
-0.347149
-0.225125
0.108338
0.277439
0.267515
0.521436
0.156189
0.606099
0.118218
0.268560
0.467670
-0.056215
0.146233
0.301644
0.196928
0.027743
-0.362027
0.034928
-0.053969
-1.210224
-0.745798
0.057910
-0.185368
0.101052
0.303888
0.325836
-0.143809
0.007901
0.212936
0.309539
-0.113016
-0.312057
0.708338
-0.648995
-0.327753
-0.465490
0.403379
0.219102
0.129409
0.057512
0.802628
0.011198
0.599079
-0.029575
-0.115007
0.030352
-0.387714
-0.092870
0.098078
0.392440
-0.242307
0.182312
0.436634
-0.310545
-0.223199
-0.005024
0.425114
-0.254716
-0.786146
-0.062363
0.252658
-0.386453
-0.193006
0.628019
-0.200879
0.159375
-0.436916
-0.215355
-0.061431
0.007331
0.017423
-0.352984
-0.421654
-0.755081
0.010833
-0.472257
-0.172343
0.455416
0.127893
-0.212687
0.067189
-0.202404
0.477551
-0.232338
0.489009
-0.176599
0.077945
-0.109858
-0.057888
-0.410847
-0.229929
-0.230755
-0.168424
0.127679
-0.054137
0.332280
0.883966
-0.018207
-0.120031
-0.205113
0.142282
-0.257663
-0.212464
0.099900
0.067499
-0.208367
0.675699
0.147234
-0.015916
0.034728
0.225085
0.229191
0.359041
0.215096
-0.440992
-0.133282
0.076585
-0.040960
-0.649275
0.202626
-0.391448
-0.336904
-0.065238
-0.150893
0.140791
-0.019611
0.053826
-0.049010
-0.208726
-0.328109
0.224408
0.574633
-0.333479
-0.548035
0.088770
0.501728
-0.023290
0.451777
0.220336
0.491587
0.230581
-0.355771
0.071889
0.161014
-0.601970
-0.133880
-0.865005
0.145756
0.026792
0.239176
0.374873
-0.257704
0.149024
0.015122
0.629468
0.325773
0.415701
0.311156
0.326385
0.626675
0.278531
0.267769
-0.077279
0.477067
-0.388451
-0.045335
0.265300
-0.206260
0.392315
-0.151570
0.183421
0.001509
0.358456
-0.697461
0.641261
-0.781720
0.277745
0.424407
0.029328
-0.212681
0.273112
0.297971
0.215829
-0.647484
0.129591
0.412211
-0.007582
-0.122530
-0.069550
-0.061668
-0.026719
-0.658271
0.266308
-0.368001
0.154867
-0.249326
-0.687674
0.252836
0.094430
0.127731
-0.133213
-0.315195
-0.343506
0.000257
0.135255
0.584304
-0.195322
0.664923
0.220795
-0.704165
-0.262423
0.275654
0.145336
-0.131300
0.369934
0.351210
0.365759
0.211011
0.845247
0.337121
0.550372
0.943794
1.017973
0.734604
0.067052
0.193067
0.003133
-0.340917
-0.278994
-0.299986
-0.160224
0.094459
-0.213693
0.179119
0.120209
0.220184
0.256632
0.506902
-0.384101
0.020467
-0.663595
0.196198
0.081287
0.088178
0.508429
-0.639446
0.332454
0.100624
0.325544
-0.198687
-0.438178
-0.221212
-0.245227
0.212966
-0.170971
0.665781
-0.648882
-0.864144
0.375092
0.356762
0.023773
0.312118
0.171083
-0.315915
-0.234495
0.542188
0.414068
-0.096748
-0.005504
0.079423
-0.077280
-0.191897
-0.455370
0.374065
-0.114873
0.041119
-0.399980
0.108243
-0.306176
-0.027933
0.164442
-0.327896
-0.436454
0.270813
0.095527
0.291207
0.684758
-0.034034
0.784210
0.775538
0.609691
0.050405
0.300644
0.339072
-0.152425
0.169481
-0.717444
0.476876
0.191506
0.563663
0.259799
0.793243
0.372266
0.041773
0.243875
0.625085
0.344617
-0.293003
0.553049
-0.032694
0.009108
0.193633
-0.112003
-0.211095
0.013854
-0.436495
-0.231816
-0.468287
-0.398525
0.823123
-0.216272
0.381642
0.015282
0.089451
-0.098079
0.210821
0.375433
0.310474
0.239502
0.093036
-0.470698
-0.096070
0.860193
-0.426455
0.225591
-0.001749
-0.216182
-0.218822
-0.326244
0.374045
0.067395
0.122825
0.569116
0.318558
0.252824
-0.010649
0.056084
-0.341556
0.208669
0.106811
-0.042774
-0.321172
0.680285
0.182111
0.583974
0.468597
-0.530349
0.153912
0.358674
-0.068477
0.238375
-0.186850
-0.637795
-0.041865
0.056413
-0.790638
0.009478
-0.083282
0.449377
-0.244938
0.900684
-0.302712
-0.256408
0.168205
-0.213262
-0.144785
0.250348
-0.422096
-0.781621
-0.141247
-0.073248
0.263930
0.598298
0.170906
-0.767086
-0.380707
0.136719
-0.383201
1.004468
-0.247368
0.355736
0.146691
-0.034964
0.173898
0.060218
0.042714
-0.267767
0.148725
0.355196
0.357884
0.242612
-0.855431
-0.260223
0.165132
0.243590
-0.037830
0.056769
-0.398820
-0.344874
0.174963
0.243490
-0.082739
-0.023974
0.023016
0.504358
-0.762853
-0.417852
0.087061
-0.091652
-0.067941
-0.755942
-0.166090
0.858331
-0.564296
0.073282
-0.270522
-0.219388
-0.007362
-0.561925
-0.189439
0.085555
-0.159566
-0.421827
-0.168968
-0.058809
0.535614
-0.175547
0.950763
0.272221
-0.207173
-0.068246
-0.006443
0.039509
0.442687
-0.384926
-0.271139
0.127881
-0.027065
0.745046
-0.393211
0.041997
-0.475879
0.326626
-0.420533
0.415144
-0.012562
-0.278674
-0.240182
0.121304
0.655224
0.454638
-0.283241
-0.245111
-0.461409
-0.042276
0.265541
-0.043657
0.059808
0.507572
-0.021914
0.147818
0.316389
-0.384205
-0.246742
0.025251
-0.618943
0.282918
-0.455634
-0.214699
-0.062886
0.354903
0.314799
0.527467
-0.410455
0.037721
0.470392
-0.180218
-0.123209
-0.647615
0.202957
0.053404
-0.233191
-0.435002
0.261583
-0.199215
0.314803
-0.183875
-0.095876
-0.561427
-0.124670
-0.148052
0.092861
-0.423115
0.037392
-0.201018
-0.501410
-0.093993
-0.159543
0.212724
0.313798
0.521222
0.357546
-0.520153
-0.040339
-0.061180
0.216191
-0.529662
0.359759
-0.482895
-0.008554
-0.355103
0.173369
-0.616519
-0.202697
-0.142208
-0.207944
-0.388852
-0.088364
-0.437186
0.710407
0.375284
0.165214
0.696867
0.789585
0.871261
0.556634
-0.027662
-0.112657
-0.344732
-0.516317
-0.217822
-0.006892
-0.388681
0.097872
-0.157314
0.499906
-0.649426
-0.370643
-0.246285
-0.065457
0.152127
-0.030746
0.120058
0.307977
-0.490260
0.250133
0.362366
0.450617
-0.119188
-0.163965
-0.136795
-0.788255
0.340211
0.723142
-0.048574
0.592210
0.330063
0.044249
0.406484
0.852365
0.273040
0.351458
-0.458443
0.001103
-0.484636
0.759987
-0.366026
0.246757
-0.108289
0.138542
0.329974
-0.380150
-0.168367
-0.331094
0.577603
-0.350892
0.340452
-0.706888
0.182020
0.500748
-0.265689
0.000865
0.011842
0.684978
0.315153
0.220756
0.456621
0.089397
-0.159000
0.523387
-0.760180
0.325110
0.197377
0.206911
0.293771
0.391659
0.158395
0.084782
-0.116738
0.044811
0.343953
0.328740
-0.679764
-0.182814
0.036266
0.812327
-0.277283
0.626126
0.155719
-0.861937
0.453616
0.473095
-0.430000
0.174928
0.173918
-0.164421
1.079059
-0.086332
0.356761
0.461945
0.234670
-0.160980
0.413799
0.072237
-0.033940
-0.486754
0.172208
-0.078635
-0.481126
-0.670879
-0.192588
-0.259629
0.328992
0.667087
-0.005091
-0.480935
-0.105876
-0.252773
-0.014189
-0.102416
0.368589
-0.296253
0.384718
0.565724
-0.090815
-0.047952
-0.332886
-0.159920
0.454165
0.293317
0.005581
0.219785
-0.228905
-0.067962
-0.737852
-0.176523
-0.078362
1.086332
-0.192196
-0.122510
-0.381333
0.096609
0.085353
0.125728
0.159175
-0.417495
-0.349199
-0.109341
-0.159735
0.810932
0.194587
-0.413185
0.404195
0.238804
-0.039143
-0.423592
-0.348432
-0.081416
-0.018929
-0.059460
-0.295725
0.373817
0.075747
0.202170
-0.158901
-0.206014
-0.138480
-0.003660
0.107932
-0.191339
0.103444
0.518172
-0.007308
-0.111140
-0.536507
0.351517
-0.333977
-0.070934
0.501710
0.045265
-0.116489
0.390031
-0.329570
0.187759
-0.099976
0.091726
0.231489
0.578643
-0.330005
-0.239266
0.572883
-0.094739
-0.173990
0.158449
-0.209493
-0.286535
-0.757181
0.573134
-0.262881
0.125031
0.112589
0.138378
-0.106150
-0.366972
-0.278840
0.748662
0.167177
-0.129203
-0.481094
-0.447236
-0.577314
0.207913
0.390722
-0.693470
-0.232445
0.464670
-0.425056
-0.498345
0.058502
0.016863
0.346270
0.156596
0.222201
0.022538
0.002528
0.394883
-0.030817
-0.047303
0.062025
0.272590
0.472827
-0.256307
0.014346
0.160396
-0.090334
0.107802
0.386038
0.015666
0.446654
0.111313
0.259450
0.027294
0.026717
0.445235
0.112674
0.022724
0.573130
-0.041962
0.133405
0.253002
-0.101579
-0.194981
-0.138481
-0.580593
0.541500
-0.823458
0.081461
-0.275662
0.044751
0.068006
0.578036
0.496714
0.183298
-0.223805
-0.051647
-0.421935
1.500000
-0.059072
0.540947
0.095775
-0.482580
0.027164
-0.544982
-0.865999
-0.790021
0.530517
0.089057
-0.124777
0.105355
0.203037
0.067663
0.179816
-0.186042
0.010623
0.096092
0.089293
0.729755
-0.375542
0.052435
0.422499
-0.348215
0.332554
-0.512982
-0.196416
0.994015
-0.359609
0.541488
-0.153487
0.091934
-0.254470
0.087785
-0.018747
0.240364
-0.032180
-0.134546
-0.128216
-0.623340
-0.074392
-0.034409
-0.231859
0.272657
0.332494
0.418895
0.600515
0.518368
0.884643
0.697844
0.603547
0.765230
0.376534
0.127653
-0.411281
0.628254
-0.041263
-0.349820
-0.123900
-0.319132
-0.122418
0.515287
-0.552039
0.303803
-0.002012
-0.065248
0.644818
-0.092247
-0.034162
-0.130175
0.716469
0.117470
-0.180016
0.356182
0.120437
-0.237639
-0.184505
0.400621
-0.662326
-0.011184
0.626983
-0.242064
-0.707727
-0.448706
0.303889
0.542275
0.060659
-0.013923
0.528967
-1.005030
0.615035
-0.338739
-0.211355
0.229407
0.328827
0.087017
0.483491
0.016622
-0.169159
-0.263863
0.688061
0.052123
0.244307
0.038924
0.738403
-0.554125
0.001102
-0.317183
0.130204
0.050955
0.071738
0.363409
-0.228445
-0.042937
0.319136
-0.055937
0.291074
0.304717
0.265358
-0.330839
0.178842
0.821541
0.246297
0.093229
0.850025
0.462438
0.154492
0.703207
0.410888
-0.082546
0.515755
0.297284
-0.134936
0.696081
0.262830
0.425812
-0.316956
0.414129
0.015886
-0.689414
0.206233
-0.109149
0.289230
0.107955
0.280750
0.614989
-0.528428
0.735480
0.240018
0.091506
0.317412
0.755063
0.238535
0.220869
-0.290671
-0.120291
-0.235715
0.192326
0.327602
0.167532
-0.696213
-0.169772
0.692372
-0.689758
0.208199
0.502102
-0.085082
0.867106
-0.445250
0.086787
-0.032229
0.387115
-0.291019
0.044176
-0.138378
-0.233316
0.146853
0.335197
-0.023399
0.446554
0.259783
-0.454564
0.382382
0.022113
0.221680
0.034767
0.209779
-0.335461
0.188838
-0.294468
-0.073062
0.390743
0.439800
-0.336951
0.321075
0.386371
0.598166
-0.036795
-0.332702
-0.244548
-0.064127
0.215847
0.101935
0.166362
0.065658
0.484566
-0.692993
-0.409478
0.185960
-0.673092
-0.674637
0.011591
-1.003001
0.436343
-0.585145
0.642734
0.116130
-0.175589
-0.087276
-0.113851
0.319213
-0.267170
-0.106142
0.375818
0.065432
0.485111
-0.081735
0.287448
0.154629
0.221209
0.106367
0.057261
0.335843
-0.408686
-0.129959
-0.512048
0.404907
0.092034
0.439900
-0.154677
-0.128529
-0.416790
0.091025
-0.336702
-0.011253
-0.701247
-0.120124
0.172843
0.074347
-0.160347
0.155116
-0.161556
-0.152883
0.039382
-0.580096
0.149358
0.040604
-0.095852
-0.247423
0.023982
0.191350
0.078268
-0.471708
0.091055
-0.513604
0.011286
-0.039005
-0.309025
0.690376
-0.058638
0.454818
-0.367178
0.160804
-0.880884
0.314411
-0.654521
0.443584
-0.879602
-0.305199
0.083627
0.484892
-0.076606
-0.167843
-0.114644
-0.062974
0.218363
-0.080141
0.171237
-0.247870
0.205638
0.326066
-0.209362
0.433626
0.960332
0.223622
0.409854
0.445345
0.583215
-0.208560
-0.366299
0.366957
0.237084
-0.186726
0.306091
0.091114
-0.298910
-0.292248
0.344796
-0.209606
0.318860
-0.561061
-0.101938
0.702733
0.223711
0.393990
0.047280
-0.239754
-0.054364
-0.380238
-0.787724
0.013437
-0.095692
-0.716088
-0.428321
0.342772
0.596177
0.160402
0.053909
0.488803
-0.219147
-0.572409
0.174455
-0.197953
-0.170841
-0.579516
0.010229
0.207720
0.108696
0.682868
0.339075
-0.533184
-0.560972
-0.051162
-0.262587
-0.181673
0.188091
-0.108811
0.227749
0.293857
-0.069079
0.174505
-0.240392
0.060197
-0.015101
-0.202693
0.126384
0.674935
0.003563
0.518259
1.008228
0.625312
0.672007
0.390584
0.804570
0.080407
-0.315702
0.159166
-0.152840
-0.279385
0.028271
0.030518
-0.042391
0.206583
-0.313291
-0.263698
0.324475
0.009538
-0.150302
0.189413
0.535349
-0.667736
0.067073
0.199946
0.188876
-0.012146
-0.020511
0.319945
0.094198
0.106316
-0.297805
-0.754407
-0.267853
0.086600
0.122322
0.137564
-0.453275
-0.796594
-0.070025
0.233746
0.046495
0.544639
0.266457
0.116699
0.192125
0.536784
-1.117777
0.070582
-0.375194
-0.098711
-0.348472
-0.042546
-0.181423
0.092085
0.153998
-0.379839
0.427557
-0.291396
-0.165756
-0.184269
-0.289842
-0.283045
0.423665
0.149246
-0.073794
-0.286611
-0.178952
-0.062240
0.963954
0.309069
-0.410731
0.076520
-0.822195
-0.316962
0.286201
-0.179242
-0.045744
0.471773
-0.239722
-0.477335
0.034277
-0.163919
0.132717
-0.235333
0.573743
0.084373
-0.306734
0.626431
-0.244779
-0.280413
0.268522
0.024545
0.524119
-0.254803
0.456697
0.642549
-0.533406
0.444014
0.412197
-0.073513
-0.006823
-0.057511
0.220112
0.418881
-0.241283
-0.025172
0.031951
-0.112537
-0.092540
0.213293
0.112597
-0.313225
0.078567
-0.175160
-0.670326
0.376960
0.275688
-0.164977
-0.222907
0.509749
0.287036
0.190949
0.491625
-0.141635
0.462512
0.360461
-0.138429
0.303242
-0.118831
0.241349
0.038621
0.027586
-0.445198
-0.195138
-0.271788
0.055071
-0.026653
0.221082
-0.170801
0.218392
-0.160545
0.238028
0.220411
0.125539
0.087223
0.059267
-0.622065
-0.028397
0.110701
0.574595
0.411008
0.398417
0.394419
0.214036
0.027488
0.396091
-0.362831
0.209334
-0.104161
-0.178233
-0.254258
-0.135252
-0.104361
-0.910998
-0.107320
-0.106631
-0.014523
-0.043071
0.061506
0.210298
0.188582
-0.224810
0.118524
-0.187221
-0.531950
-0.385173
0.781079
-0.493481
0.119023
0.061529
-0.666765
0.188489
0.629831
-0.473180
-0.019097
-0.191630
-0.133147
-0.562863
0.720763
-0.467493
-0.378970
0.441364
-0.131991
0.102494
-0.096430
-0.410919
0.583960
0.044245
-0.227485
-0.263768
-0.218355
-0.200396
-0.254940
-0.141290
-0.168509
-0.107972
-0.267101
-0.828727
-0.279286
-0.013282
-0.044266
0.049903
-0.093224
0.245616
-0.317169
-0.106648
-0.713960
-0.285295
0.134206
0.067277
-0.071484
-0.122521
0.369790
0.389725
0.370449
0.822732
-0.175440
0.429223
0.041282
0.240910
-0.235711
0.328116
-0.473818
0.394764
-0.053568
-0.249071
0.431109
-0.087011
0.004837
0.401922
0.410413
-0.304357
0.574962
-0.061563
0.304629
-0.122239
-0.115959
0.394598
-0.397747
-0.296005
0.645753
0.372933
-0.437876
-0.031717
-0.220161
0.337521
0.130292
0.465953
0.493682
-0.233178
0.500074
-0.640036
0.295500
0.081443
0.111669
-0.057778
0.210241
-0.068804
-0.006388
0.462123
-0.186770
0.036065
0.240587
-0.198359
0.414423
0.540363
0.030781
0.126424
-0.592298
-0.013149
-0.205511
-0.441816
-0.473008
0.157462
0.334144
0.087374
0.402066
-0.203356
-0.270517
-0.284561
0.110211
-0.264371
-0.186863
0.105341
-0.590441
-0.612632
-0.428553
0.124231
0.292576
0.353820
0.008847
-0.092195
0.410510
0.020995
-0.194900
-0.487447
-0.078766
-0.006757
-0.032588
0.136096
0.161669
1.000935
0.665242
0.884697
0.885604
0.436612
0.470823
0.227419
-0.162853
-0.353273
0.599096
-0.822480
-0.193379
0.606787
-0.576316
-0.185263
0.073949
0.282233
0.234585
0.230455
0.654208
0.535767
-0.358525
-0.119234
-0.127402
0.174140
-0.332595
0.129752
0.362425
-0.147768
0.016984
0.499541
0.352495
-0.555481
-0.017448
0.320653
-0.268744
-0.652700
-0.330998
-0.210516
0.056567
0.023158
0.170955
-0.234439
-0.062341
0.087271
-0.522639
0.146724
0.737794
0.011575
0.410212
-0.462576
-0.276966
-0.021675
-0.225646
0.000755
0.052300
0.389439
-0.366611
-0.058431
0.022687
0.153682
-0.943051
-0.089649
0.264823
-0.080917
-0.386638
0.061677
-0.384585
0.426792
-0.369944
0.302883
-0.222363
0.137087
0.104340
0.309703
-0.183278
0.376436
-0.112107
0.034529
0.735762
0.331297
0.660931
0.530367
0.420023
1.009809
-0.089735
-0.491844
0.148469
-0.051227
-0.295004
-0.044055
0.813513
0.142093
0.527532
0.055220
0.110830
-0.152589
-0.940527
0.819883
-0.037987
-0.126200
0.593026
0.180865
0.204258
0.611690
0.506117
0.010787
-0.034701
-0.319997
-0.304202
-0.609457
0.051924
0.139016
-0.036623
-0.529909
0.192508
-0.136848
-0.093006
0.385708
-0.252060
0.232927
0.337272
1.011040
0.279151
-0.083174
-0.128125
0.387131
-0.420188
0.209243
0.805917
1.308596
-0.133587
0.051280
0.033874
0.353190
-0.330924
-0.392961
0.131790
0.058132
-0.339651
-0.269175
0.035175
0.243062
0.116652
0.319550
0.366157
0.073398
0.345818
0.142919
-0.028282
-0.457519
0.128620
0.308535
-0.036602
-0.055319
0.157661
0.434307
-0.211808
-0.375608
0.396767
0.067800
0.035978
-0.074697
-0.160035
0.361516
-0.288805
0.166710
0.404719
0.709646
0.615433
-0.014856
0.163491
-0.448664
-0.225597
-0.180463
-0.515347
0.326237
-0.109777
-0.777583
0.001773
-0.214091
0.084935
0.040095
0.396263
0.265085
-0.058497
0.079791
-0.122205
0.009731
0.026681
