-0.013051
0.013208
0.034135
-0.007339
0.000183
-0.092580
-0.014703
-0.012692
0.038241
-0.034980
0.036621
0.006208
-0.011533
-0.041155
0.002406
0.026596
0.034939
-0.050403
0.041894
0.042566
0.034483
0.020983
0.089491
0.088212
0.078332
0.023986
0.090547
0.098037
0.176067
0.151703
0.118283
0.121435
0.280931
0.266838
0.113572
0.228928
0.130056
0.163797
0.274995
0.131208
0.116517
0.150034
0.158750
0.180164
0.200009
0.228135
0.205211
0.202235
0.108232
0.025184
0.053600
0.090836
0.002782
0.142123
0.059168
0.125485
0.010205
0.104349
0.116005
0.078202
0.038243
0.044267
0.081859
0.000094
0.024537
0.063007
-0.018140
0.056088
0.010924
0.001284
0.027076
0.033993
0.096085
0.224550
0.460814
0.735623
1.079578
1.332623
1.414764
1.251311
1.091224
0.747071
0.377199
0.083052
-0.069306
-0.231178
-0.193930
-0.036442
0.093456
0.083072
-0.030030
0.117943
0.053688
0.074648
0.124242
0.190373
0.082532
0.145045
0.127939
0.167947
0.130465
0.180611
0.186060
0.213843
0.274559
0.221609
0.258373
0.268490
0.296587
0.351573
0.321391
0.407653
0.446721
0.386372
0.388351
0.352877
0.441527
0.476347
0.549458
0.526630
0.537400
0.577038
0.591480
0.571642
0.566180
0.616416
0.553732
0.605728
0.687518
0.571861
0.701236
0.578909
0.520282
0.570807
0.504909
0.493221
0.530703
0.429043
0.455800
0.483770
0.400051
0.345532
0.410282
0.330733
0.325590
0.320882
0.305145
0.260295
0.230763
0.181707
0.199347
0.269144
0.234696
0.192819
0.225836
0.125859
0.199767
0.106519
0.137453
0.127744
0.080965
0.018806
0.127610
0.034321
0.139408
0.123602
0.114650
0.076267
0.031465
0.077703
0.085268
0.064276
0.069115
0.018245
0.060055
0.146519
0.144422
0.053344
0.186511
0.070078
0.122296
0.142311
0.091766
0.153545
0.193662
0.064571
0.075768
0.093220
0.112140
0.127987
0.132898
0.075116
0.064653
0.122348
0.009141
0.080223
0.087048
0.087780
0.034595
-0.008604
0.114883
0.057746
0.027972
0.068166
0.103426
0.023619
0.097778
0.120958
0.054483
0.084312
0.047820
0.034827
0.082143
0.103338
0.034213
0.132255
0.108760
0.078883
0.137463
0.078054
0.181812
0.207994
0.108282
0.177071
0.182629
0.233154
0.105349
0.224911
0.166053
0.214977
0.306443
0.257364
0.298567
0.320822
0.293431
0.275897
0.238052
0.295282
0.243377
0.204395
0.236716
0.221385
0.175075
0.172704
0.217640
0.144265
0.274753
0.139722
0.165445
0.023818
0.063629
0.051153
0.145641
0.090618
0.118128
0.169653
0.042690
0.057420
0.117033
0.150823
0.061152
0.054492
0.165796
-0.000258
0.088992
-0.052302
0.128852
0.082713
0.290904
0.581108
0.865442
1.143066
1.403047
1.397948
1.392730
1.050542
0.691353
0.357649
0.054407
-0.082807
-0.157978
-0.180057
-0.053027
0.020008
0.095207
0.086912
0.084905
0.136328
0.067006
0.106053
0.148354
0.122997
0.158922
0.118475
0.072641
0.218813
0.223294
0.346370
0.197705
0.197143
0.187248
0.243794
0.249229
0.296840
0.320716
0.355193
0.381962
0.404728
0.304143
0.442112
0.467282
0.543909
0.511267
0.453410
0.531187
0.449396
0.465881
0.638642
0.539527
0.624697
0.569070
0.479909
0.597401
0.574854
0.562723
0.590827
0.551917
0.539425
0.499930
0.576625
0.445382
0.503565
0.387897
0.429837
0.435949
0.464556
0.413797
0.348228
0.325290
0.293312
0.316498
0.264817
0.275569
0.236789
0.246145
0.267363
0.149048
0.224949
0.116982
0.173810
0.164946
0.168893
0.109429
0.135989
0.180758
0.154916
0.068826
0.069405
0.104682
0.065351
0.026366
-0.005421
-0.000821
0.034108
0.023547
0.056019
0.038584
-0.004113
-0.062412
0.037693
0.029836
-0.011374
-0.087730
0.034987
0.029027
0.021070
-0.057691
-0.057243
0.005818
-0.032168
0.043200
-0.008041
0.037211
0.056861
0.004150
0.002922
-0.035002
0.089234
0.035054
-0.050315
-0.002849
-0.000151
-0.026540
-0.006490
-0.026628
-0.018072
-0.023893
0.002938
0.051255
0.063924
0.064721
0.073206
0.015588
0.005014
-0.039900
0.014303
0.003343
0.028267
0.013281
0.010937
0.020291
0.117919
0.068200
0.118709
0.052295
0.095040
0.017083
0.092784
0.148164
0.194815
0.134630
0.136445
0.085664
0.191137
0.173320
0.205032
0.120988
0.176818
0.194750
0.118122
0.178578
0.151164
0.155673
0.096401
0.205089
0.124624
0.119913
0.088054
0.058708
0.161352
0.099636
0.042286
0.081700
0.116405
-0.041621
-0.021854
0.070526
0.023574
-0.012974
0.059814
-0.052688
0.015627
0.001155
0.017806
-0.042556
-0.026093
-0.057101
0.011685
0.017955
0.019006
0.029805
-0.076681
0.084267
0.279914
0.456941
0.807241
1.116746
1.319782
1.379207
1.233803
0.899860
0.479213
0.181585
-0.098385
-0.216389
-0.244824
-0.218385
-0.074765
-0.014254
0.022576
0.038268
0.021930
0.051526
0.010776
0.069175
0.040272
-0.024984
0.056784
0.022828
-0.035150
0.170362
0.137782
0.123066
0.114563
0.194689
0.125595
0.245444
0.306791
0.092177
0.329689
0.233499
0.202031
0.296538
0.290643
0.347654
0.444165
0.359874
0.362706
0.431199
0.356247
0.423428
0.417323
0.458000
0.565060
0.471113
0.473813
0.553789
0.472029
0.480532
0.499502
0.564601
0.510775
0.458980
0.446029
0.418875
0.386395
0.382994
0.356358
0.382995
0.320302
0.168480
0.291786
0.244392
0.239657
0.193370
0.230677
0.188707
0.124352
0.198310
0.141965
0.189804
-0.012458
0.134424
0.085963
-0.050667
0.066013
-0.005515
0.073890
0.051946
0.044486
-0.103025
-0.012191
-0.064593
-0.045141
0.027684
0.013053
-0.055105
-0.032442
-0.011430
-0.100445
-0.102068
-0.022979
-0.039265
-0.009190
-0.016811
-0.071149
-0.041761
-0.021831
-0.003113
-0.087955
0.010313
0.012468
-0.039483
-0.064416
-0.067570
-0.126474
0.003047
-0.079832
0.044624
-0.009296
0.000430
-0.066227
-0.023457
-0.069715
0.001999
-0.076157
0.061192
0.072703
0.009511
-0.049093
-0.000887
-0.027765
-0.104285
-0.032360
-0.015580
-0.003497
-0.010223
-0.054617
-0.045637
-0.039430
-0.047862
-0.005099
0.021412
-0.067227
0.029258
0.001334
-0.007337
0.053859
-0.041036
0.040457
0.053802
-0.024428
0.047451
0.062477
0.133403
0.129528
0.090867
0.113181
0.014769
0.117690
0.106550
0.087459
0.216535
0.078186
0.171924
0.103771
0.236835
0.089170
0.148281
0.069664
0.092023
0.212539
0.102043
0.089179
0.053209
0.166280
0.088038
0.001955
-0.057965
0.009154
0.085276
-0.035062
-0.058980
-0.070476
0.027767
0.011596
0.012733
-0.019208
-0.013763
-0.015887
-0.088919
0.037398
-0.071836
-0.083703
-0.096812
0.005422
-0.013475
0.152414
0.282085
0.545098
0.859645
1.140574
1.332063
1.252680
1.115805
0.822937
0.450030
0.138777
-0.069387
-0.263681
-0.249644
-0.119692
-0.194091
-0.093570
-0.010376
0.000340
-0.005295
0.023228
-0.046213
-0.035627
0.015625
0.111956
0.156776
0.136501
0.048469
0.086820
0.138886
0.088132
0.169258
0.123452
0.147119
0.293093
0.193251
0.237483
0.311782
0.308700
0.369653
0.400621
0.338930
0.445463
0.395373
0.465075
0.421438
0.386435
0.356055
0.519797
0.485084
0.510979
0.510970
0.556518
0.463627
0.529267
0.490924
0.590584
0.457959
0.440878
0.502860
0.512199
0.459302
0.408068
0.522390
0.408044
0.454253
0.358825
0.299443
0.431573
0.389114
0.313711
0.344890
0.247008
0.278621
0.224698
0.269848
0.219340
0.173166
0.119576
0.108064
0.163346
0.200313
0.065568
0.049765
0.140301
0.049618
0.092272
0.108104
0.065581
0.069024
-0.018161
0.065243
0.011631
0.049181
0.055409
0.082039
0.083270
0.022124
0.075489
0.028123
-0.046944
0.007576
-0.012721
0.076268
-0.008721
0.040394
-0.035659
0.060422
-0.011384
0.096814
0.046721
0.069256
0.014733
0.044735
0.044976
0.093700
0.025964
0.043087
0.036925
-0.006964
-0.006478
0.009426
0.025569
0.000780
0.028251
-0.024437
0.042273
0.062546
0.156785
-0.018432
-0.000871
0.067850
0.002795
0.110076
0.059136
0.024115
0.003093
0.021090
0.099589
0.030171
0.071803
0.042997
0.003401
0.128318
0.066509
0.155007
0.055000
0.113006
0.095883
0.075182
0.083511
0.121652
0.168763
0.200472
0.197977
0.274858
0.242574
0.182597
0.216777
0.233697
0.277338
0.205160
0.273777
0.273541
0.301921
0.247332
0.235026
0.181876
0.184481
0.237293
0.140113
0.138315
0.149047
0.193064
0.175911
0.149012
0.114354
0.131676
0.019848
0.079538
0.066013
0.204530
0.012178
0.111699
0.078236
0.067266
0.098219
0.070415
0.160444
0.001304
0.064533
0.070012
0.038372
0.001046
0.125325
0.225005
0.505651
0.694232
1.053256
1.287969
1.458699
1.500000
1.187517
0.825452
0.436680
0.132979
-0.041254
-0.225297
-0.224252
-0.053242
-0.059599
0.071649
0.064261
0.079025
0.147962
0.153413
0.133723
0.215933
0.050557
0.126282
0.165430
0.110892
0.209723
0.187148
0.205112
0.254773
0.217577
0.268088
0.214323
0.262643
0.351322
0.326409
0.385401
0.302536
0.462926
0.523271
0.469881
0.467975
0.585956
0.549149
0.505696
0.516871
0.615767
0.529028
0.569540
0.542628
0.616568
0.638182
0.648044
0.663208
0.626486
0.664760
0.673476
0.651281
0.583069
0.471545
0.551738
0.575553
0.447051
0.486437
0.506821
0.439739
0.469757
0.438292
0.463290
0.412332
0.362383
0.328049
0.250532
0.332730
0.331664
0.280775
0.354261
0.173535
0.245502
0.230094
0.183439
0.169503
0.173253
0.147182
0.111500
0.051980
0.164922
0.222338
0.124570
0.080631
0.168657
0.118426
0.204577
0.056411
0.082229
0.078217
0.121356
0.105359
0.052333
0.154599
0.140937
0.055077
0.100843
0.131141
0.061121
0.103599
0.168449
0.063631
0.038422
0.055380
0.040813
0.041686
0.019852
0.029783
0.006098
0.025056
0.136452
0.056993
0.017277
0.080432
0.034440
0.095827
0.070165
0.106319
0.128681
0.100297
0.101889
0.116967
0.085967
0.107069
0.163110
0.075792
0.118622
0.117596
0.078789
0.033675
0.175485
0.087458
0.078733
0.171240
0.137745
0.121115
0.141309
0.093463
0.188894
0.123643
0.129993
0.260215
0.196716
0.261479
0.230044
0.155077
0.219172
0.308627
0.270302
0.307577
0.262435
0.226801
0.225656
0.166334
0.345396
0.310333
0.319665
0.183037
0.221681
0.216104
0.281314
0.279074
0.191365
0.253517
0.252952
0.160711
0.111515
0.143502
0.182183
0.073847
0.167222
0.116436
0.053510
0.169177
0.102985
0.061385
0.074139
0.092015
0.059521
0.047898
0.040578
0.053710
0.090181
0.090949
0.035669
0.058462
0.088590
0.133026
0.158134
0.482969
0.759502
1.109011
1.341707
1.352606
1.406222
1.214888
0.825638
0.327704
0.131717
-0.056366
-0.117479
-0.127054
-0.052477
0.011792
0.003969
0.135247
0.083469
0.108054
0.117042
0.108326
0.147362
0.134700
0.162872
0.086298
0.173212
0.118632
0.141815
0.214534
0.291482
0.267704
0.219464
0.283153
0.332492
0.323386
0.304101
0.335120
0.328800
0.406612
0.379769
0.408541
0.389018
0.454716
0.456117
0.441467
0.440816
0.510946
0.510164
0.471643
0.487085
0.591996
0.589728
0.510162
0.538413
0.497361
0.584081
0.519194
0.556756
0.531922
0.531710
0.460137
0.467592
0.439323
0.421436
0.432714
0.376715
0.384936
0.330587
0.302033
0.340634
0.248911
0.236593
0.223053
0.222331
0.213847
0.157971
0.158303
0.134289
0.143665
0.141699
0.061341
0.047283
0.171196
0.096631
0.067932
0.002006
0.022520
0.064796
-0.014067
0.056082
0.048866
-0.094737
-0.036135
-0.000476
0.025073
-0.112469
0.048346
-0.064676
0.057562
0.040626
-0.009061
0.003793
-0.008683
0.022716
-0.033618
-0.019069
0.012228
0.103880
-0.019608
-0.064210
-0.043606
0.070767
0.002137
0.036106
-0.011583
0.001210
-0.053625
0.015802
-0.011660
-0.062036
-0.031940
-0.037791
0.000548
0.021317
-0.005548
-0.029426
-0.010890
-0.027950
-0.027731
0.021794
-0.058962
-0.044298
-0.067302
0.002598
0.004422
0.019671
0.018256
-0.043097
-0.021025
0.038311
-0.029657
-0.032023
0.004481
0.019225
0.019475
-0.024134
-0.006807
0.122639
0.021727
0.045498
0.139431
0.097693
0.106085
0.118626
0.196300
0.107045
0.104782
0.099505
0.121634
0.145624
0.108297
0.132367
0.179938
0.150292
0.169596
0.122440
0.081489
0.157717
0.105308
0.187439
0.080566
-0.005938
-0.013825
0.023208
0.010976
-0.041114
-0.014297
0.078205
-0.004400
0.032480
-0.095955
-0.012099
-0.033298
-0.082939
-0.049459
-0.032391
-0.038733
-0.024215
0.051415
-0.018423
-0.004409
-0.084001
-0.068022
-0.003192
0.155313
0.425090
0.648786
1.058629
1.319127
1.379753
1.249020
0.924108
0.543868
0.119770
-0.018092
-0.195703
-0.283868
-0.260407
-0.148591
-0.076475
-0.082558
-0.043013
-0.117085
-0.061828
-0.080591
-0.034844
0.024680
0.093647
0.017610
-0.001170
0.026191
0.086466
0.025910
0.091653
0.121850
0.025997
0.108463
0.282917
0.108905
0.156152
0.240078
0.182750
0.255151
0.234111
0.245290
0.225118
0.284959
0.418647
0.337552
0.335040
0.318703
0.382630
0.392253
0.345862
0.398009
0.410212
0.444109
0.430475
0.447570
0.405327
0.478588
0.457003
0.424115
0.359396
0.336722
0.402816
0.322580
0.338110
0.332473
0.307824
0.326448
0.265583
0.224777
0.325116
0.185347
0.124449
0.139838
0.142840
0.062941
0.079536
0.017892
0.145344
0.067576
0.025137
0.056616
-0.039274
-0.025697
-0.042746
0.033048
0.034433
-0.056725
-0.047902
-0.022420
0.043126
-0.011958
-0.101881
-0.041705
-0.082729
-0.017147
-0.100384
-0.096043
-0.083749
-0.091785
-0.109856
-0.084945
-0.138476
-0.127804
-0.058045
-0.069298
-0.125286
-0.032083
-0.008288
-0.137582
-0.152524
-0.026271
-0.070567
-0.117412
-0.048480
-0.141007
-0.028663
-0.098775
-0.026526
-0.110845
-0.098679
-0.149644
-0.027686
0.027156
-0.123756
-0.032819
-0.084052
-0.020909
-0.088123
-0.061715
-0.033416
-0.059282
-0.102520
-0.022388
-0.017977
-0.070110
-0.115354
-0.019317
-0.049655
-0.070965
-0.006196
-0.122328
-0.066104
-0.018168
-0.065251
-0.074022
-0.011612
-0.024079
-0.009453
-0.022038
0.078711
0.041951
0.083345
0.059770
0.081726
0.009590
0.136453
0.037720
0.147799
-0.038454
0.126300
0.126149
0.095246
0.124609
0.079986
0.074003
0.173123
0.100926
0.099279
-0.015485
0.030544
0.082244
0.023381
-0.000176
0.001794
0.046347
-0.042175
-0.010870
-0.022038
0.045619
-0.075950
-0.002404
0.001444
-0.037268
-0.112798
-0.066551
-0.009508
0.036675
-0.006833
-0.046930
0.007282
-0.084229
-0.062228
-0.060194
0.015651
0.008954
0.135628
0.460385
0.792137
1.093437
1.300626
1.315118
1.232256
0.819885
0.417613
0.150929
-0.109043
-0.278488
-0.268906
-0.222662
-0.098820
-0.052266
-0.128862
-0.004061
-0.056417
0.010115
0.051978
-0.023241
-0.010682
-0.076436
-0.009459
0.089447
0.015673
0.148945
0.148472
0.146662
0.089898
0.117564
0.202912
0.135921
0.223234
0.217669
0.200904
0.222488
0.239375
0.244919
0.296090
0.417106
0.304972
0.451094
0.469255
0.378667
0.366231
0.413676
0.350066
0.466596
0.490551
0.470221
0.457879
0.515883
0.406645
0.416767
0.465199
0.439406
0.481298
0.443664
0.464764
0.388002
0.433362
0.395559
0.344492
0.274211
0.409108
0.306995
0.265788
0.246418
0.162887
0.316535
0.160079
0.245461
0.173698
0.176860
0.057427
0.134244
0.210585
0.086201
0.064282
0.108739
0.132632
0.042208
0.045428
0.046102
0.020099
0.020873
0.088645
0.116484
-0.004819
0.068251
-0.077280
0.061456
0.020140
-0.009641
-0.097045
0.026894
-0.032823
0.070358
-0.010280
-0.025309
-0.026559
-0.083254
0.047112
0.032471
-0.036745
0.006881
-0.055254
0.023004
0.048042
0.002670
0.012262
-0.052863
-0.017890
-0.018220
-0.010974
-0.036016
-0.068416
0.065755
-0.053700
-0.062116
0.015156
0.006286
-0.057730
0.032945
0.015762
0.048596
0.023203
0.001940
0.003646
0.000995
-0.035874
-0.028233
0.001723
0.084549
0.028193
-0.016971
-0.004892
0.012346
0.088059
-0.038393
0.069803
0.086158
0.072919
0.083836
0.139041
0.178822
0.100998
0.118640
0.119836
0.263523
0.046819
0.130758
0.144184
0.148137
0.168887
0.155359
0.249368
0.194196
0.215947
0.185371
0.248263
0.164422
0.175926
0.204837
0.203240
0.138254
0.067763
0.162390
0.081246
0.181908
0.101213
0.153835
0.047646
0.052821
0.123216
0.137422
0.037787
0.062532
0.053533
-0.009539
0.084653
-0.025231
0.067699
0.039559
0.018628
0.072382
0.027007
-0.001824
0.087475
0.029026
-0.020025
0.165259
0.165050
0.348092
0.580792
0.951107
1.165564
1.474310
1.460118
1.117166
0.922154
0.453857
0.175583
-0.103795
-0.108555
-0.228256
-0.168766
-0.063587
0.058722
0.023176
-0.030016
0.019006
0.134504
-0.009693
0.034161
0.212726
0.204944
0.096227
0.068476
0.155754
0.213870
0.205277
0.191417
0.247384
0.202063
0.177956
0.227951
0.255501
0.311918
0.336921
0.331887
0.324011
0.307097
0.368969
0.456037
0.353120
0.479084
0.452093
0.460905
0.405072
0.525462
0.497746
0.533891
0.482651
0.566442
0.550812
0.581255
0.528065
0.551728
0.577050
0.597050
0.463671
0.493809
0.474081
0.569413
0.442376
0.420233
0.507976
0.451666
0.425807
0.372131
0.363877
0.299055
0.386482
0.328453
0.294100
0.257885
0.298007
0.227012
0.176978
0.217526
0.131738
0.204375
0.107478
0.174239
0.133929
0.136946
0.097617
0.060702
0.060803
0.112974
0.047172
0.020061
-0.003479
0.071294
0.056245
0.083115
0.038633
0.076635
0.032559
0.048905
0.082023
0.042623
0.038192
0.031029
0.099652
-0.047291
0.027070
0.115248
-0.100253
0.065052
0.068789
0.028175
0.101030
0.050298
0.059349
-0.031061
0.016976
-0.029991
0.026807
-0.002790
0.059506
0.141245
0.064863
0.119460
0.101724
0.066640
0.015895
0.061128
0.081491
0.043754
0.036162
0.060951
0.050843
-0.027796
0.027632
0.027725
0.069148
0.039272
0.016054
0.059617
0.040094
0.036556
0.038581
0.077763
0.007638
0.074117
0.114010
0.023736
0.112237
0.090310
0.106139
0.152800
0.161855
0.229712
0.120643
0.165410
0.269934
0.156976
0.121500
0.169035
0.290657
0.198084
0.150640
0.245646
0.290037
0.180484
0.218114
0.194333
0.226571
0.209960
0.149683
0.101092
0.204329
0.133097
-0.040747
0.122346
0.089088
0.059764
0.111575
0.053054
0.019860
0.087002
-0.040261
0.042614
0.005020
0.018838
0.003046
-0.002218
0.054955
0.049717
0.056895
0.043358
0.036838
-0.043249
0.010490
-0.000568
0.170210
0.291012
0.678362
0.957730
1.286860
1.364252
1.375451
1.053056
0.816802
0.438136
0.054658
-0.114079
-0.247261
-0.248655
-0.120324
-0.065498
0.029356
-0.046750
-0.009487
0.000225
-0.005188
0.009737
0.059518
0.157613
0.104371
0.107627
0.028448
0.079654
0.083644
0.120862
0.160027
0.133493
0.178090
0.192682
0.171372
0.241380
0.267999
0.212707
0.247631
0.337751
0.365375
0.324547
0.308579
0.276115
0.401513
0.363000
0.438034
0.454338
0.518468
0.514010
0.468907
0.436326
0.484010
0.485416
0.505986
0.410953
0.533157
0.435358
0.469537
0.451025
0.443810
0.383582
0.394473
0.309093
0.451531
0.276185
0.359448
0.388192
0.326796
0.253567
0.298980
0.232430
0.228341
0.180734
0.198754
0.156085
0.226591
0.181561
0.098093
0.147873
0.099254
0.098652
0.019210
0.044492
0.038031
-0.017026
0.004386
-0.052976
0.023269
-0.016253
-0.028633
-0.064690
-0.021009
-0.011232
-0.057453
-0.050179
-0.096637
-0.033420
-0.051195
-0.067660
0.019301
-0.013417
-0.009821
-0.024186
-0.059050
-0.127189
-0.035247
-0.020936
-0.023264
-0.095721
-0.117628
-0.031746
-0.026855
-0.071358
-0.046293
-0.126010
0.030076
-0.161283
-0.027751
0.030612
-0.059110
-0.093843
-0.041365
-0.058505
-0.037099
-0.044141
-0.140033
-0.044515
-0.164961
0.077169
-0.047594
-0.144728
-0.123804
0.035262
-0.069376
-0.033260
-0.060754
-0.094875
-0.080613
-0.042735
-0.000573
0.007171
-0.050025
0.001671
-0.059160
0.007552
0.002066
-0.016871
-0.032780
-0.044515
0.093122
0.015218
0.045893
0.047303
0.010317
0.120973
0.085836
0.105264
0.087720
0.060368
0.226333
0.125278
0.125651
0.071200
0.071837
0.098875
0.087707
0.077171
0.100032
0.020291
-0.044904
0.053521
-0.011251
-0.059458
-0.133731
-0.001056
0.048390
0.063522
-0.011913
-0.099995
-0.071568
-0.037082
-0.038548
-0.041489
-0.044492
-0.031022
-0.078971
-0.044814
-0.111093
-0.065307
-0.183915
-0.041713
-0.082834
-0.103457
-0.062243
0.055773
0.282682
0.623776
0.965686
1.196589
1.288127
1.251411
1.052131
0.606233
0.211402
-0.063666
-0.365270
-0.295079
-0.276435
-0.188590
-0.197846
-0.139425
-0.011014
-0.120055
-0.113296
-0.076980
-0.042234
-0.010397
-0.112622
0.010130
-0.080104
0.030985
-0.052542
0.080759
0.029722
0.022235
-0.009760
0.099102
0.044240
0.094085
0.148576
0.171238
0.219722
0.138181
0.157367
0.202644
0.255181
0.317224
0.336238
0.247204
0.329879
0.264641
0.443148
0.425169
0.340307
0.448297
0.317788
0.448244
0.407975
0.385399
0.415562
0.366345
0.351363
0.386316
0.408180
0.312405
0.344891
0.304764
0.364586
0.329459
0.313558
0.199385
0.273081
0.142955
0.197569
0.145438
0.177298
0.204627
0.153116
0.020435
0.062373
0.043024
0.092607
0.022076
-0.007025
-0.044670
0.037970
-0.050227
-0.025764
-0.022007
-0.066297
-0.000506
0.022818
-0.044960
-0.104554
-0.070443
-0.049098
-0.046413
-0.159899
-0.074175
-0.116477
-0.068690
-0.151305
-0.130742
-0.007250
-0.095792
-0.055122
-0.029256
-0.115681
-0.105818
-0.126539
0.001306
-0.173541
-0.113350
-0.024276
-0.128034
-0.223115
-0.058680
-0.086828
-0.062469
-0.019378
-0.110401
-0.081722
-0.041100
-0.039053
-0.096020
-0.061865
-0.103535
-0.078625
-0.119724
-0.031421
-0.059223
-0.049359
-0.071150
-0.069613
-0.131885
-0.124049
-0.074067
-0.083370
-0.100317
-0.052451
-0.056609
-0.026733
0.000478
-0.072973
-0.100361
-0.032146
-0.085504
-0.053456
-0.038881
0.010801
0.041906
-0.053444
-0.012757
0.004915
-0.020821
0.022515
0.024500
0.060488
0.042685
0.107354
0.102477
0.078523
0.082413
0.161588
0.064906
0.128219
0.102274
0.076826
0.044048
0.097270
0.033079
0.156283
-0.022620
0.047436
0.089399
0.026606
0.059857
0.019471
0.038573
0.015194
-0.078674
-0.004619
-0.052432
-0.056314
-0.054013
-0.052341
-0.039067
-0.033797
-0.064816
-0.089943
0.021173
-0.023582
-0.013366
-0.020017
-0.128927
-0.112014
-0.093440
-0.091852
0.002135
0.164538
0.364419
0.704820
1.061167
1.251589
1.253280
1.151476
0.934500
0.570579
0.198233
-0.072998
-0.184682
-0.242780
-0.198200
-0.153817
-0.091592
-0.009444
-0.043679
-0.091857
-0.029855
-0.035168
0.041064
0.058915
0.076732
0.036169
0.059261
-0.013361
0.069628
0.109796
0.127131
0.085350
0.219629
0.118419
0.164014
0.199745
0.245772
0.231286
0.186333
0.309646
0.316963
0.292130
0.274151
0.387588
0.444486
0.377890
0.466566
0.439846
0.453562
0.366376
0.570190
0.479175
0.439201
0.478834
0.444623
0.447947
0.458648
0.476507
0.541151
0.469045
0.504412
0.408015
0.437587
0.423525
0.371322
0.351774
0.453323
0.390947
0.371927
0.311676
0.386950
0.303920
0.277526
0.261267
0.225032
0.227797
0.205766
0.093718
0.133988
0.139338
0.167229
0.061466
0.146515
0.080416
0.074020
0.138168
0.049736
0.085744
0.053813
0.045316
0.047525
0.022791
0.069608
-0.011313
0.021741
0.023036
0.009778
-0.008215
-0.004922
0.003540
0.082404
0.030091
0.049158
0.003297
0.050755
0.033996
-0.074471
0.061128
0.015316
0.042903
0.011497
0.002464
0.040745
-0.026334
0.047830
0.024981
-0.009872
0.116757
-0.006700
0.051843
0.021006
0.019919
-0.020722
0.013777
0.070281
0.033734
-0.069885
-0.031908
0.026549
-0.046073
0.055877
0.025241
0.095425
0.045321
0.076610
0.024793
0.089522
0.039105
0.022517
0.072773
0.073774
0.034173
0.089166
0.036658
0.084745
0.132062
0.073973
0.025013
0.119575
0.096525
0.165448
0.195988
0.212148
0.187156
0.223361
0.258492
0.188206
0.251700
0.274579
0.159524
0.195010
0.180078
0.207390
0.299647
0.332430
0.251836
0.213135
0.119041
0.184023
0.285427
0.261085
0.163390
0.078795
0.117916
0.196474
0.133439
0.125078
0.111296
0.107105
0.084017
0.132688
0.066564
0.074097
0.067167
0.079783
0.063633
0.076578
0.028304
0.031816
0.108306
0.051514
0.053548
0.009065
0.025476
0.094665
0.153676
0.342433
0.578522
0.890672
1.204305
1.334196
1.418635
1.325277
1.031221
0.572597
0.280602
0.055342
-0.150935
-0.180357
-0.155156
-0.020595
-0.022358
0.071995
0.080364
0.171150
0.156265
0.104584
0.090589
0.131345
0.165489
0.120037
0.267143
0.124266
0.116090
0.209798
0.183685
0.231008
0.280288
0.243193
0.251054
0.344799
0.383167
0.359028
0.360306
0.374298
0.317986
0.374443
0.442123
0.451650
0.467017
0.464668
0.535344
0.575654
0.576620
0.544933
0.547034
0.537923
0.480259
0.566205
0.584591
0.667698
0.599341
0.619624
0.543640
0.524564
0.473015
0.536758
0.595147
0.512944
0.474205
0.488005
0.446194
0.489728
0.428854
0.374240
0.296980
0.327218
0.374348
0.319160
0.389797
0.323163
0.238556
0.228021
0.223325
0.115643
0.251451
0.141346
0.125089
0.159649
0.069213
0.086282
0.110984
0.141942
0.112737
0.092575
