0.086746
-0.044325
-0.044211
-0.037405
-0.049304
0.026689
0.018892
0.030929
0.061546
0.034929
0.000554
0.007934
0.008104
0.063707
0.043412
0.050463
0.089470
0.079703
0.050497
0.098047
0.052556
0.119578
0.058474
0.051051
0.050123
0.122006
0.128150
0.089972
0.195956
0.190288
0.122101
0.105121
0.144423
0.188923
0.178763
0.252043
0.212647
0.152339
0.176844
0.136691
0.086930
0.216208
0.140640
0.166918
0.173592
0.118914
0.179975
0.154875
0.102186
-0.020360
0.130769
0.114038
0.103878
0.024156
0.018410
0.025184
-0.003759
0.057478
0.031577
-0.030664
0.093148
0.040879
0.075451
0.010848
0.100189
0.060204
0.106099
0.403788
0.618202
0.900354
1.134051
1.287855
1.388169
1.210612
0.847421
0.472242
0.123594
-0.035427
-0.047985
-0.063779
0.006320
0.080211
0.114776
-0.054125
0.039477
0.178696
0.104439
0.059452
0.132385
0.229520
0.190846
0.135055
0.142077
0.240564
0.247888
0.261683
0.300459
0.319191
0.239996
0.364082
0.303958
0.369276
0.349574
0.395315
0.418877
0.406061
0.400979
0.506673
0.476406
0.620711
0.555735
0.469993
0.585228
0.539537
0.546068
0.579652
0.554203
0.543528
0.593859
0.620288
0.600573
0.585515
0.543048
0.601258
0.474700
0.569860
0.423227
0.382280
0.469237
0.523852
0.467381
0.453536
0.424822
0.355043
0.274150
0.257299
0.239119
0.237542
0.213778
0.152713
0.230111
0.166854
0.164744
0.160578
0.159394
0.243514
0.107712
0.184622
0.114237
0.111947
0.091810
0.089272
0.099639
0.134049
0.133695
0.084876
0.002256
0.086532
0.103897
0.199474
0.104239
0.099424
0.182608
0.117426
0.099226
0.052186
0.073200
0.217906
0.035140
0.142736
0.109150
0.110529
0.024087
0.040645
0.092741
0.087276
0.079520
0.064564
0.096183
0.038539
0.009441
0.129021
0.015625
0.053944
0.041124
0.118275
0.114128
0.126077
0.015518
0.039543
0.080689
0.086873
0.109159
0.024762
0.035168
0.163100
0.105382
0.176378
0.143505
0.144887
0.145668
0.136460
0.191869
0.232432
0.228646
0.195513
0.210574
0.208319
0.242598
0.225414
0.273271
0.228019
0.304900
0.268624
0.191912
0.310465
0.298399
0.283974
0.228026
0.257998
0.202981
0.290413
0.163785
0.216301
0.275403
0.183692
0.108249
0.088919
0.156362
0.206911
0.105718
0.095882
0.144296
0.111933
0.125796
0.078052
0.114022
0.075936
0.043857
0.151881
0.101583
0.045347
0.142104
0.126057
0.256439
0.293252
0.436204
0.800551
1.015020
1.307323
1.500000
1.431212
1.130019
0.815238
0.499236
0.065577
-0.053833
-0.047453
0.010106
0.014224
0.120335
0.134385
0.161943
0.179878
0.060275
0.161354
0.198155
0.199875
0.204381
0.191731
0.151654
0.142245
0.238716
0.303608
0.285911
0.337556
0.313459
0.342025
0.375239
0.335431
0.459183
0.427985
0.395357
0.482309
0.488405
0.474220
0.526899
0.521216
0.504119
0.560259
0.547495
0.552398
0.580351
0.611482
0.608995
0.515339
0.614289
0.536536
0.566181
0.502248
0.550690
0.533960
0.543091
0.486572
0.438533
0.438173
0.422631
0.482951
0.421806
0.353952
0.345151
0.350606
0.338266
0.280072
0.223506
0.253439
0.190130
0.260933
0.273209
0.284127
0.253547
0.177634
0.131101
0.179564
0.187949
0.096648
0.073183
0.175880
0.092987
0.087539
0.102676
0.071880
0.011704
0.093301
0.084328
0.024644
-0.004765
0.033457
-0.012692
0.054537
0.085239
-0.063811
0.136200
-0.029044
-0.045308
0.072182
0.061176
0.002900
0.043840
0.079210
0.047648
0.053714
0.026978
0.052869
0.005409
0.067445
0.044508
-0.036394
0.043813
0.040315
-0.019830
0.068949
0.089404
0.030177
0.010956
-0.025427
0.011727
0.036074
0.019709
0.016284
0.077516
0.074130
0.029937
0.030767
0.125071
0.102713
0.091535
0.028011
0.147220
0.122684
0.097886
0.109453
0.159603
0.170769
0.163173
0.133670
0.216583
0.178320
0.083363
0.174163
0.158807
0.168699
0.198577
0.232895
0.159530
0.128294
0.180861
0.103743
0.205567
0.171989
0.163536
0.109113
0.034289
0.048583
0.079074
0.041977
0.161471
0.067336
0.083480
0.030735
0.061615
0.063644
0.050371
-0.040853
0.062863
0.032295
0.047070
0.017206
-0.017489
0.040648
0.038982
-0.056402
-0.039721
0.091932
0.373726
0.471951
0.802335
1.114891
1.232548
1.314475
1.153872
0.898823
0.514664
0.114538
-0.080877
-0.228362
-0.192526
-0.141933
-0.053797
0.010238
-0.008972
0.027486
-0.006115
0.079215
0.060215
0.087515
0.119045
0.139604
0.125638
0.144844
0.138223
0.141981
0.186892
0.210522
0.217654
0.200719
0.205265
0.269338
0.301759
0.396621
0.405812
0.257256
0.371118
0.400942
0.455941
0.427788
0.494169
0.429006
0.401485
0.484562
0.468293
0.547719
0.507129
0.506672
0.485804
0.524434
0.487436
0.409847
0.439391
0.445978
0.355711
0.420191
0.362969
0.386271
0.355030
0.394954
0.375170
0.345513
0.266272
0.294403
0.217166
0.229723
0.162081
0.183151
0.156115
0.193872
0.183389
0.157029
0.090176
0.090750
0.035055
0.092269
0.098179
0.032305
0.051101
0.010477
0.011127
-0.023399
0.010521
-0.023164
-0.040067
0.057727
-0.009903
-0.005298
-0.015801
-0.075745
0.006618
-0.075288
-0.060547
0.027174
-0.067277
0.014243
-0.077212
-0.025745
-0.002523
0.011801
-0.021173
-0.008852
-0.003625
-0.033468
-0.025173
-0.126981
-0.017751
-0.060001
0.006395
-0.044606
0.000586
-0.072726
0.007202
-0.000308
-0.041329
-0.079098
-0.011017
-0.059365
-0.050675
-0.021133
-0.053198
-0.056230
0.025222
-0.042233
0.000590
0.032672
0.032075
0.035180
0.042355
-0.083421
-0.029369
0.034213
0.050383
0.068202
-0.004066
0.060227
0.056867
0.118106
0.136437
0.143680
0.074913
0.142678
0.138048
0.146536
0.085679
0.194410
0.155131
0.141534
0.158521
0.122064
0.121912
0.099026
0.149710
0.148669
0.104024
0.046473
0.071699
0.089186
0.067089
-0.019442
0.008490
0.052494
0.028703
0.010412
0.048211
-0.027372
-0.019178
0.004976
-0.058925
-0.008552
0.019293
0.010071
-0.015062
0.000277
0.015803
0.038680
0.186768
0.307116
0.613911
0.909365
1.169016
1.271818
1.277806
1.065461
0.719746
0.309865
-0.042825
-0.163202
-0.276232
-0.102169
-0.068214
-0.092191
-0.040872
-0.050211
-0.039083
0.002106
-0.012924
0.012244
0.085185
0.237276
0.076415
0.131834
0.073971
0.105076
0.138038
0.141746
0.078445
0.254859
0.217955
0.223311
0.233098
0.279078
0.309937
0.380809
0.155383
0.388542
0.329218
0.389160
0.436014
0.443125
0.357127
0.423254
0.460494
0.454838
0.598013
0.474589
0.483276
0.543718
0.482848
0.468443
0.451571
0.431747
0.439002
0.501423
0.394892
0.434096
0.354171
0.376916
0.359762
0.355784
0.284534
0.288387
0.187401
0.254980
0.232836
0.232390
0.242661
0.265648
0.086739
0.166651
0.024908
0.133153
0.069512
-0.005435
0.077017
0.116653
0.004453
0.109511
-0.029382
-0.008686
-0.056742
0.079674
0.019257
0.008217
0.046130
0.054186
0.017002
0.036286
0.015081
0.045407
0.029988
0.001377
-0.017128
0.030386
0.037835
-0.018007
0.027667
0.012420
-0.027962
0.047048
-0.018967
-0.069919
0.077636
0.058634
0.060303
-0.128983
-0.086839
-0.016588
0.037688
0.083727
0.056578
-0.018182
-0.001143
0.032653
0.012992
-0.008508
-0.068273
0.007700
0.001782
0.016171
-0.024773
0.034158
-0.063964
-0.010179
0.046197
0.017628
-0.003788
0.130638
0.064771
0.065307
0.076513
0.085688
0.034299
0.124674
0.154006
0.107021
0.115470
0.149434
0.186787
0.094480
0.239475
0.231260
0.127669
0.188675
0.091411
0.266243
0.147859
0.223705
0.176263
0.153164
0.174104
0.123547
0.209472
0.109815
0.119258
0.155452
0.081666
0.089709
0.137999
0.039514
0.002993
0.006686
0.134067
-0.001684
0.059511
0.115058
-0.001178
0.034788
-0.005593
0.031813
0.084383
0.001082
0.070555
0.080263
0.141126
0.308853
0.517804
0.721836
1.124005
1.334560
1.371787
1.261141
0.945854
0.577748
0.167315
-0.001088
-0.008663
-0.121598
-0.074088
0.020144
0.044531
0.033381
0.100105
0.117893
0.010413
0.159560
0.172467
0.151464
0.163831
0.129394
0.203412
0.213832
0.206884
0.220273
0.278058
0.259927
0.290012
0.435434
0.411305
0.380950
0.483262
0.446859
0.492263
0.459914
0.514808
0.440096
0.514963
0.588516
0.616210
0.533472
0.648687
0.515831
0.527016
0.553422
0.609590
0.546887
0.554272
0.528488
0.630093
0.598717
0.565626
0.516727
0.490922
0.626801
0.479272
0.482639
0.378016
0.404654
0.397584
0.338208
0.303101
0.390741
0.343427
0.378749
0.270122
0.307789
0.187536
0.235908
0.202174
0.193027
0.180142
0.246403
0.135282
0.233934
0.160223
0.115371
0.185508
0.139113
0.191912
0.195139
0.010736
0.068466
0.118453
0.148361
-0.027456
0.128767
0.056153
0.054410
0.108100
0.030639
0.149980
0.095950
0.075229
0.161660
0.169075
0.067821
0.115992
0.073834
0.159344
0.069105
0.134172
0.071158
0.023955
0.128864
0.140294
0.111366
0.055416
0.070281
0.073663
0.156954
0.085646
0.119902
0.053678
0.110270
0.136097
0.085789
0.165690
0.086704
0.107847
0.113366
0.132908
0.154555
0.087080
0.113971
0.104295
0.094296
0.144955
0.147829
0.126815
0.210258
0.142341
0.093514
0.152332
0.253408
0.185220
0.224538
0.242804
0.151666
0.279494
0.285400
0.273456
0.211290
0.328116
0.287056
0.177419
0.348812
0.236284
0.292516
0.228087
0.192053
0.177797
0.177203
0.285595
0.228676
0.121472
0.160796
0.197461
0.129769
0.152479
0.140065
0.110161
0.201698
0.087130
0.133357
0.166893
0.173963
0.061009
0.156190
0.039762
0.088805
0.095667
0.130503
0.163506
0.204664
0.404600
0.682682
1.071726
1.188528
1.463097
1.435440
1.130209
0.905701
0.472901
0.198854
-0.097169
-0.024832
-0.083784
-0.039781
0.050352
0.158364
0.180219
0.076237
0.106081
0.113591
0.137258
0.164162
0.217154
0.271098
0.228118
0.232560
0.226432
0.286623
0.310381
0.251622
0.344577
0.380318
0.291056
0.348011
0.302262
0.431696
0.508295
0.514941
0.511783
0.465323
0.497317
0.469913
0.453451
0.460293
0.629626
0.504651
0.564926
0.648477
0.548736
0.572632
0.539720
0.554111
0.583726
0.621636
0.610920
0.519510
0.514277
0.481589
0.518437
0.480683
0.508860
0.429460
0.525312
0.371657
0.321330
0.392720
0.369147
0.276458
0.375997
0.240586
0.242730
0.337252
0.214062
0.133666
0.199296
0.171693
0.181463
0.134441
0.188037
0.126951
0.182953
0.122074
0.110074
0.035146
0.086320
0.132748
0.125325
0.057107
0.123882
0.064190
0.152344
0.086099
0.003350
0.042780
0.094418
0.086663
0.036508
0.054311
0.022632
0.053142
0.039305
0.041767
0.101929
0.037097
0.094441
0.093095
0.092431
0.051890
0.019262
0.061304
0.004262
0.096489
0.104224
0.026517
0.109051
0.053565
0.114811
-0.007167
0.065110
0.005712
0.065530
0.038108
0.122048
-0.020929
0.069920
0.036093
0.050887
0.003187
0.068566
0.101237
0.096467
-0.010548
0.026032
0.067453
0.157449
0.127333
0.160692
0.180215
0.191251
0.217703
0.271738
0.155466
0.220443
0.291785
0.254672
0.253067
0.108588
0.130332
0.219820
0.133946
0.143664
0.186773
0.143649
0.099592
0.163599
0.134585
0.172116
0.132976
0.103638
0.123833
0.133205
0.041737
0.078825
0.062801
0.097295
0.056946
0.053051
-0.108513
0.005212
0.095464
0.026580
0.009104
0.003502
0.009724
-0.001414
-0.025866
-0.028250
0.147522
0.290751
0.509685
0.713314
1.098877
1.243968
1.419720
1.200007
1.003996
0.613542
0.176573
0.038438
-0.124707
-0.195863
-0.115542
-0.127176
-0.057639
0.053031
0.005139
0.045726
0.098443
-0.001055
0.109186
0.097771
0.051085
0.145471
0.088346
0.132643
0.151017
0.173880
0.226372
0.187896
0.245493
0.272615
0.281445
0.248412
0.290026
0.349015
0.377679
0.374984
0.292633
0.403488
0.429529
0.420740
0.499765
0.434423
0.490816
0.473930
0.394876
0.464012
0.483455
0.449112
0.458718
0.503607
0.479259
0.545090
0.552928
0.426161
0.336460
0.389787
0.378404
0.400337
0.401704
0.322297
0.332757
0.270404
0.186163
0.250819
0.235132
0.135713
0.185795
0.195753
0.145565
0.092468
0.132383
0.147994
0.044797
0.110926
0.124016
0.054606
-0.011268
0.034723
0.002156
0.027461
0.050688
0.016075
-0.010529
0.049609
0.040723
-0.123369
-0.079435
-0.031733
-0.080653
-0.002676
-0.046380
-0.008619
-0.025675
-0.142039
-0.000504
-0.048765
-0.069489
-0.107764
-0.027223
0.025882
-0.024618
-0.093412
0.065265
-0.068052
0.001177
-0.052663
-0.155715
-0.101659
0.020371
-0.101553
-0.052572
-0.144115
-0.089048
-0.029611
-0.022759
-0.047099
-0.066900
-0.094933
-0.069995
-0.131157
-0.143352
-0.008822
-0.118288
0.000017
0.018962
0.006342
-0.026810
0.013726
-0.083830
-0.039976
-0.005500
0.049429
0.005089
0.029008
0.007251
0.042127
0.078008
0.057967
0.089801
0.138682
0.113643
0.125580
0.057221
0.130101
0.156981
0.044047
0.075208
0.044946
0.085117
0.072111
0.063141
0.054116
0.017015
-0.021837
0.014989
-0.002782
0.016182
-0.057828
0.040255
0.009493
-0.015779
0.088394
-0.042448
-0.043462
-0.098481
-0.033939
-0.063539
-0.036297
-0.087215
-0.025846
-0.066612
-0.070973
-0.021534
-0.028868
-0.082791
0.045517
0.268303
0.404467
0.781772
1.165915
1.206168
1.318714
1.017148
0.689775
0.310981
-0.031044
-0.183129
-0.207946
-0.289236
-0.173660
-0.104787
-0.080611
-0.070530
-0.063070
-0.033931
0.030533
-0.028637
-0.032918
-0.042424
0.053509
-0.025363
0.025211
-0.009340
0.099474
0.160510
0.120202
0.070123
0.210906
0.153859
0.126856
0.342769
0.181152
0.250393
0.274831
0.371276
0.295308
0.298511
0.410896
0.361449
0.424013
0.404180
0.402471
0.419283
0.380218
0.490816
0.348309
0.459525
0.464567
0.413660
0.377321
0.451104
0.432839
0.341473
0.363801
0.366407
0.397573
0.285878
0.279427
0.268546
0.327345
0.190684
0.262458
0.231342
0.110181
0.221696
0.131413
0.126500
0.141424
0.138631
0.128863
0.081611
-0.000094
0.027794
-0.002648
-0.038185
-0.042999
-0.033744
-0.116256
-0.106616
0.052351
-0.076508
-0.044042
-0.014862
-0.052015
0.014024
-0.113666
-0.085239
-0.094403
-0.083594
-0.014219
-0.127882
-0.054407
-0.083444
-0.073157
-0.068699
-0.075964
-0.061200
-0.002069
-0.148073
-0.065520
-0.058715
-0.036842
-0.096005
-0.026633
-0.074966
-0.017757
0.007824
-0.068106
-0.041532
-0.031547
-0.138064
-0.047640
-0.126116
-0.054460
-0.031537
-0.042053
0.015732
-0.014574
-0.030679
-0.090190
-0.009945
-0.154673
-0.026348
-0.088742
-0.012597
-0.066100
0.023536
0.031505
0.072262
0.019692
-0.002532
0.068021
0.109261
0.076942
0.072776
0.081740
0.045918
0.133173
0.111710
0.161885
0.129290
0.109253
0.076680
0.210972
0.083333
0.078947
0.184789
0.012488
0.074996
0.094893
0.083371
0.113198
0.011289
0.065452
0.096069
0.051261
0.013522
0.063902
-0.003977
-0.009411
-0.014166
-0.048416
0.091417
-0.060450
-0.015501
-0.123391
0.014119
-0.021340
0.033776
-0.121655
-0.032203
-0.055503
-0.053250
0.043810
0.136469
0.390445
0.651058
0.997875
1.208381
1.365386
1.215026
1.031443
0.551148
0.230862
0.021413
-0.110373
-0.142678
-0.174258
-0.103753
0.054884
0.035062
0.088761
-0.016000
0.077199
0.093572
0.146301
0.043877
0.056026
0.163213
0.138475
0.156815
0.141521
0.199663
0.179906
0.184899
0.226728
0.179654
0.205660
0.282739
0.295575
0.314034
0.279213
0.341542
0.406797
0.291497
0.450675
0.464796
0.469486
0.437565
0.445525
0.572857
0.482393
0.524864
0.493399
0.481617
0.482953
0.487944
0.481109
0.558688
0.493163
0.567308
0.426158
0.431230
0.409371
0.370421
0.379773
0.404247
0.280585
0.335422
0.352579
0.323862
0.293085
0.235942
0.267706
0.168364
0.262038
0.159504
0.157497
0.130217
0.153695
0.136603
0.081804
0.066077
0.142439
0.090365
0.144388
0.067469
0.074304
0.035796
0.047409
0.062488
0.065979
0.067081
0.017809
0.066452
-0.012539
0.100890
0.065769
0.034948
0.024776
0.004555
-0.035315
0.066086
0.040431
0.016788
0.075233
0.050716
0.064254
0.104113
0.031360
-0.000474
0.064093
0.113542
0.034710
0.010843
0.031458
0.003382
-0.030982
0.054834
0.055989
-0.010804
0.106109
-0.028849
-0.007116
0.015157
0.031491
-0.000142
0.036454
0.116162
0.015760
-0.000860
0.048599
0.047026
0.032724
-0.012804
-0.004955
0.044452
0.105615
0.093018
0.067142
0.116748
0.167544
0.160293
0.259765
0.188811
0.175059
0.158902
0.193270
0.163871
0.163957
0.211392
0.230182
0.251478
0.138118
0.259024
0.207038
0.224565
0.219495
0.186396
0.134793
0.177002
0.107704
0.136305
0.195790
0.133580
0.101892
0.117516
0.067513
0.009555
0.095042
0.002060
0.078592
0.108502
-0.009262
0.040503
0.067716
0.113999
0.106618
0.096974
-0.048707
0.072587
0.112117
0.113074
0.292671
0.585318
0.900455
1.165890
1.418858
1.386870
1.205377
0.884884
0.584168
0.266339
-0.032527
-0.136795
-0.170659
-0.058509
-0.021491
0.058320
0.075510
0.097163
0.034963
0.179407
0.123008
0.151858
0.192597
0.165081
0.138325
0.178222
0.209607
0.282428
0.260212
0.241244
0.258333
0.255546
0.300844
0.352132
0.329470
0.374627
0.427106
0.400177
0.421553
0.420840
0.532331
0.490841
0.520186
0.522997
0.560470
0.501842
0.543957
0.554539
0.524267
0.495981
0.589795
0.532354
0.646079
0.532379
0.522017
0.515797
0.487795
0.400015
0.486909
0.485692
0.345187
0.392178
0.378517
0.332123
0.371592
0.384953
0.338431
0.378306
0.230038
0.309528
0.258538
0.258312
0.173930
0.136160
0.164249
0.084096
0.144323
0.143341
0.074983
0.110464
0.070198
0.089330
0.091972
0.066753
0.055541
0.093017
0.052225
0.102795
0.054362
0.054611
0.115391
0.002985
0.107539
-0.034617
-0.012718
0.071773
-0.023544
-0.026462
0.128263
-0.031422
0.072790
0.024822
0.006123
0.048136
0.028813
0.049610
0.027889
0.032179
0.065224
-0.055108
-0.023390
0.033953
0.103900
0.074005
0.052239
0.077962
0.010990
0.019221
0.014550
0.067025
0.050909
-0.066249
-0.019572
0.079705
-0.034773
0.009469
0.050150
0.049272
-0.024504
0.041443
0.051761
0.040796
0.079527
0.139682
0.088119
0.123618
0.117421
0.171435
0.185202
0.085778
0.175026
0.244815
0.192934
0.212923
0.178997
0.188054
0.221938
0.215028
0.258540
0.199011
0.186253
0.162984
0.143547
0.159050
0.131455
0.106982
0.144566
0.106123
0.102157
0.107892
0.063744
0.097089
0.103881
0.080731
-0.017599
0.039221
0.006110
0.087353
0.134876
-0.007926
-0.010837
0.039501
-0.014099
-0.054229
-0.047652
-0.039815
0.050791
0.041797
0.173671
0.259544
0.673964
0.971158
1.156921
1.345370
1.261471
1.099965
0.602662
0.341816
0.024443
-0.132415
-0.164937
-0.169065
-0.078164
-0.087316
0.023384
-0.034046
0.008196
0.023417
0.046045
0.121895
0.129505
0.121872
0.097212
0.081052
0.152775
0.197173
0.143681
0.179505
0.229709
0.302604
0.201689
0.241440
0.279616
0.212339
0.302903
0.222905
0.322055
0.339694
0.315748
0.460723
0.404910
0.450339
0.490309
0.461598
0.475322
0.426521
0.501401
0.410728
0.463607
0.513263
0.483104
0.486608
0.475213
0.443588
0.431533
0.407846
0.396077
0.406218
0.373656
0.400929
0.297825
0.339173
0.213436
0.263319
0.130582
0.278490
0.196379
0.172972
0.144864
0.180697
0.151050
0.148892
0.079103
0.022364
0.050294
0.093938
0.074847
0.024005
-0.043582
0.011245
0.031729
-0.032839
-0.057575
0.032583
0.012309
-0.039189
-0.102529
-0.034440
-0.036544
-0.084537
-0.125801
-0.054336
-0.110853
-0.047430
-0.019301
-0.143344
-0.080165
-0.020128
-0.034704
-0.039857
-0.002277
-0.135051
0.015229
-0.036373
-0.015371
-0.030278
-0.055499
-0.111598
-0.023182
0.016511
-0.107148
-0.121811
-0.087505
-0.042825
-0.091254
0.038167
-0.089677
-0.149743
-0.058791
-0.038359
-0.028934
-0.053074
-0.015161
-0.101203
-0.036060
-0.062006
0.025136
-0.065546
-0.024104
-0.060154
-0.013390
-0.084537
-0.037310
-0.053580
0.012089
0.014269
-0.043928
-0.000557
-0.018013
0.084269
0.124921
0.079877
0.063821
-0.068176
0.077252
0.117941
0.063851
0.093043
0.138259
0.061906
0.120258
-0.009482
0.072351
0.034702
0.027716
0.078959
0.037595
-0.029410
-0.032923
0.010555
-0.032681
-0.020559
-0.092617
-0.084063
0.029358
-0.081602
-0.065508
-0.009762
-0.054075
-0.033045
-0.104279
-0.100346
-0.057147
-0.040832
-0.090417
-0.106277
-0.001138
0.183881
0.322490
0.692905
0.895371
1.200539
1.236449
1.140618
0.833254
0.534443
0.150355
-0.111715
-0.152232
-0.335192
-0.293964
-0.132113
-0.164649
-0.008418
-0.005140
-0.040304
-0.019864
0.023776
-0.047903
0.020450
0.036466
-0.021982
0.045309
0.108420
0.122169
0.009369
0.149198
0.122442
0.183154
0.225189
0.147201
0.243089
0.250229
0.279940
0.228051
0.252223
0.300005
0.413051
0.394862
0.382349
0.342006
0.455125
0.480337
0.450736
0.340393
0.401633
0.435896
0.428991
0.362399
0.360958
0.460225
0.337381
0.361425
0.332295
0.397306
0.342276
0.437073
0.255314
0.344756
0.238178
0.230239
0.200835
0.238175
0.185601
0.194687
0.123632
0.096912
0.084609
0.054110
0.111725
-0.025133
0.183903
0.017100
-0.045425
-0.060589
0.060823
-0.022006
-0.041612
0.011813
-0.045323
0.030171
-0.136641
-0.070066
-0.054906
0.006803
-0.039109
-0.059345
-0.095422
-0.036499
-0.040643
-0.079151
-0.098731
-0.051619
-0.101427
-0.104742
-0.043402
-0.083617
-0.085491
-0.063228
-0.108452
-0.090192
-0.148957
-0.102620
-0.051596
-0.181830
-0.067519
-0.018526
-0.146607
-0.143693
-0.048611
-0.132793
-0.116177
-0.133247
-0.086054
-0.064144
-0.112613
-0.114667
-0.028546
0.021306
-0.101950
-0.096286
-0.041444
-0.094358
-0.064145
-0.118606
-0.044759
-0.009093
-0.019747
-0.048589
0.005463
-0.119692
-0.022692
0.052053
-0.025224
0.118197
0.084768
0.024583
0.098282
0.059916
0.052565
0.070011
0.011778
0.134532
0.159011
0.074561
0.091632
0.085352
0.072797
0.051202
0.119590
0.010056
0.074147
0.082257
0.010050
0.108830
0.087875
0.066441
-0.012956
0.039972
0.062327
-0.008060
-0.087109
-0.038610
-0.028872
-0.028080
-0.018300
-0.047429
-0.034550
-0.084875
-0.061396
-0.065794
-0.095129
-0.112824
-0.075089
0.007637
0.118339
0.233502
0.536120
0.916722
1.176031
1.307448
1.186486
0.969916
0.699365
0.363498
0.033039
-0.220182
-0.251196
-0.226672
-0.177001
-0.060607
0.003464
0.053016
-0.029555
-0.014969
-0.002372
0.043065
0.054193
0.043227
0.044127
0.033143
0.035316
0.141871
0.084108
0.200878
0.076391
0.124579
0.245196
0.229399
0.251385
0.274872
0.331635
0.288866
0.333695
0.367839
0.322430
0.464460
0.400219
0.499889
0.427489
0.413331
0.494051
0.477215
0.450028
0.513373
0.507007
0.536329
0.409971
0.491888
0.500778
0.496435
0.462110
0.475277
0.458040
0.432935
0.331163
0.306577
0.264278
0.345050
0.282645
0.322515
0.219336
0.286636
0.247428
0.160520
0.172854
0.277567
0.164355
0.125806
0.079513
0.138265
0.075354
0.117621
0.063590
-0.022808
-0.018027
-0.000564
0.028875
-0.012712
0.013126
0.001075
0.031245
0.002763
0.038856
0.092244
0.086724
0.052423
0.041037
0.049782
0.065970
0.010542
0.037283
0.029525
0.021327
0.000088
0.056867
0.059024
0.069039
-0.018052
0.073196
0.029663
0.011564
0.066753
0.115882
0.019134
0.089428
0.012372
-0.004656
-0.020449
-0.037699
0.071247
-0.059158
0.007004
0.067219
0.075209
0.105881
0.038015
0.030508
0.056462
0.034058
0.026334
0.082345
-0.004531
0.075186
0.073514
-0.007795
0.074578
0.082619
0.111891
0.037624
0.166484
0.061844
0.070504
0.023906
0.142170
0.147800
0.158992
0.120534
0.158217
0.187394
0.141541
0.183366
0.190433
0.179274
0.244327
0.269992
0.260685
0.201258
0.193099
0.102589
0.174648
0.275073
0.195466
0.038409
0.082670
0.101782
0.104530
0.159136
0.086843
0.101028
0.065184
0.026414
0.032905
0.023126
-0.005096
0.053264
0.118266
0.019366
0.057289
0.119125
0.053909
0.077188
0.076625
0.092259
0.288193
0.520480
0.801240
1.059587
1.239431
1.397764
1.279008
1.041855
0.631526
0.371115
0.037575
-0.206869
-0.119998
-0.060117
0.049601
-0.018196
0.024963
0.091853
0.074681
0.074077
0.189472
0.154805
0.170494
0.215237
0.172916
0.210413
0.172901
0.164319
0.254748
0.334167
0.253483
0.247291
0.322838
0.333500
0.415814
0.383005
0.404275
0.423104
0.501949
0.365283
0.396860
0.561925
0.488542
0.594828
0.467619
0.550766
0.525677
0.593257
0.598051
0.522649
0.573775
0.587943
0.522284
0.523112
0.552810
0.588354
0.545810
0.502579
0.432623
0.492812
0.441589
0.400952
0.455123
0.475154
0.260604
0.396387
0.345740
0.315136
0.252957
0.216999
0.333561
0.286091
0.220604
0.188784
0.198432
0.232588
0.183774
0.174352
0.146975
0.225968
0.179195
0.174726
0.153626
0.027038
0.175247
0.134175
0.113597
0.135118
0.103056
0.063844
0.168806
-0.001524
0.092526
0.072033
0.060834
0.192823
0.084831
0.119376
0.052642
0.153982
0.101128
0.129218
0.106705
0.041415
0.016441
0.098936
0.116489
0.049393
0.073348
0.058876
-0.024666
-0.007159
