-0.020842
0.029609
0.053595
-0.029655
0.045830
-0.077809
0.019924
0.053104
-0.002272
0.081861
-0.021216
-0.016782
0.083284
0.100864
-0.005501
-0.030636
0.131166
0.001429
0.091184
0.019312
0.042868
0.082223
0.056678
0.016271
-0.009068
0.065685
0.122620
0.086429
0.084297
0.038022
0.180433
0.143870
0.238517
0.213952
0.175336
0.198932
0.085198
0.260778
0.178578
0.229799
0.222120
0.128566
0.218311
0.196926
0.220769
0.205070
0.130596
0.232834
0.162769
0.108058
0.141287
0.033482
0.097545
0.145756
0.054705
0.101353
0.103320
0.070989
0.044137
0.042163
0.064743
0.041313
0.084669
0.123885
0.041214
0.003186
0.018423
0.002741
-0.005691
0.077945
0.210193
0.497262
0.705232
1.060867
1.309581
1.383019
1.289691
1.040419
0.706077
0.382925
0.072546
-0.162531
-0.207842
-0.076149
-0.037852
0.001926
0.037693
-0.022389
0.055072
0.169209
0.151878
0.119281
0.165014
0.120882
0.151299
0.187742
0.214443
0.222343
0.186227
0.218250
0.239386
0.251367
0.284569
0.298953
0.319558
0.378101
0.394471
0.393100
0.391132
0.340618
0.425952
0.439505
0.553415
0.404254
0.446947
0.484915
0.537593
0.571764
0.589439
0.543153
0.595138
0.586611
0.586389
0.601477
0.498757
0.603616
0.560195
0.607495
0.499496
0.541731
0.606199
0.470941
0.446367
0.443975
0.494962
0.428355
0.449501
0.340057
0.325701
0.374328
0.297706
0.326953
0.304863
0.308229
0.247799
0.213445
0.214264
0.215552
0.120224
0.084792
0.154040
0.184813
0.217473
0.176743
0.137693
0.144754
0.155446
0.029964
0.057013
0.124103
0.080360
0.116520
0.066200
0.125038
0.075688
0.129791
0.046138
0.140031
0.084366
0.057454
0.082107
0.112774
0.110428
0.135775
0.059147
0.091006
0.138807
0.106799
0.076246
0.078121
0.052102
0.082917
0.116029
0.105295
0.096977
0.067578
0.127388
0.005591
0.126408
0.052991
0.055452
0.090425
0.070643
0.163613
-0.048970
0.039949
0.176383
0.175447
0.123675
0.093414
0.020691
-0.007670
0.140388
0.210362
0.013498
0.016054
0.097015
0.109106
0.085997
0.177881
0.127096
0.197105
0.093633
0.096299
0.202454
0.273786
0.201241
0.206753
0.190001
0.284675
0.236675
0.302121
0.260547
0.217227
0.195769
0.363090
0.283849
0.295326
0.260766
0.243656
0.287563
0.309728
0.211469
0.176920
0.225752
0.151375
0.166809
0.258513
0.203445
0.125213
0.120840
0.060294
0.189776
0.040119
0.171272
0.057264
0.078259
0.088821
0.122762
0.079403
0.139220
0.063045
0.002550
0.046567
0.113001
0.117072
0.146453
0.159501
0.350962
0.599677
0.951137
1.148541
1.478969
1.377542
1.273804
0.980621
0.523776
0.235896
-0.023796
-0.187429
-0.158301
-0.080494
0.007686
0.001514
0.098701
0.062292
0.070455
0.121938
0.124933
0.140386
0.146861
0.186625
0.188884
0.202596
0.195418
0.228120
0.128568
0.178322
0.273401
0.213001
0.372545
0.299760
0.372792
0.334961
0.428510
0.406234
0.383959
0.594035
0.344875
0.534001
0.545649
0.514281
0.512374
0.503450
0.523772
0.568493
0.561535
0.579743
0.516923
0.507194
0.536705
0.573662
0.553902
0.534107
0.550617
0.575915
0.513340
0.512286
0.489807
0.408484
0.375607
0.398564
0.392820
0.379145
0.379492
0.327346
0.351374
0.341842
0.275277
0.206941
0.177570
0.263299
0.253947
0.130649
0.112235
0.218413
0.198156
0.113501
0.139419
0.146748
0.129053
0.187352
0.049808
0.141772
0.137583
0.110552
0.037845
0.060487
0.052971
0.029141
0.037266
0.097322
0.054431
0.120892
0.160918
0.023394
0.110706
0.022179
0.114160
0.053174
-0.012163
0.025425
0.089555
0.027382
0.048616
0.015798
0.059697
-0.002608
-0.006611
0.042693
-0.034343
-0.009436
0.011998
0.006340
0.007189
0.056405
0.081000
0.042896
0.039239
0.040650
0.039674
0.038210
0.000443
0.112557
0.061846
0.024087
0.088045
0.054437
0.096013
0.010258
0.038986
0.055361
0.046469
0.077480
0.028431
0.061740
-0.011417
0.098879
0.006033
0.101429
0.076724
0.097617
0.094290
0.150642
0.101205
0.181258
0.204906
0.211563
0.100009
0.142733
0.173529
0.168381
0.231520
0.266319
0.182600
0.175976
0.140894
0.108415
0.178911
0.148761
0.091829
0.166772
0.140676
0.118281
0.093427
0.116739
0.064572
0.026537
0.060073
0.065081
0.034634
0.008675
-0.091234
0.010261
0.060274
0.025249
-0.029587
-0.019272
-0.034804
0.066808
-0.040770
-0.050180
-0.010135
-0.052481
0.059066
0.167224
0.426950
0.690351
0.948907
1.193878
1.389044
1.267839
0.952056
0.635204
0.285112
0.007481
-0.201215
-0.237947
-0.141242
-0.142670
-0.031391
-0.069520
-0.004649
0.004024
0.105634
-0.026793
0.065683
0.028281
0.088436
0.009518
0.153750
0.047888
0.140744
0.148494
0.131665
0.184939
0.238008
0.114546
0.218016
0.230539
0.252186
0.237857
0.189620
0.261233
0.288527
0.324427
0.378038
0.357816
0.382888
0.416376
0.479928
0.453337
0.424186
0.408385
0.468147
0.529943
0.469640
0.479028
0.434197
0.484812
0.516932
0.455625
0.428186
0.446381
0.357219
0.459627
0.361954
0.368735
0.292317
0.275828
0.398216
0.269898
0.234365
0.241944
0.287779
0.176700
0.229319
0.135866
0.126281
0.143790
0.106474
0.223497
0.138493
0.012610
0.023709
0.123502
0.002763
-0.001312
-0.041520
-0.033429
-0.084986
0.003442
-0.059428
0.047214
-0.017282
-0.048366
-0.076739
0.000027
-0.067049
0.010722
-0.154266
-0.055631
0.029865
-0.034298
-0.013581
-0.010054
0.026034
-0.056667
-0.036068
-0.038126
-0.114651
-0.128888
-0.058096
0.009168
-0.039830
-0.001667
-0.008078
-0.035598
0.018663
-0.037477
0.009327
0.010041
-0.072018
-0.105437
-0.093621
-0.044023
-0.006980
-0.054052
-0.079683
-0.067840
-0.057189
-0.007034
-0.012083
0.040365
-0.023260
-0.029604
-0.032846
-0.079986
-0.103968
0.066074
-0.060159
0.057728
0.110943
0.024088
-0.006669
0.052876
0.063598
0.031220
0.066578
0.015396
0.072706
0.099873
0.089744
0.063813
0.094336
0.121163
0.115416
0.056010
0.091552
0.139560
0.140134
0.082466
0.147303
0.113106
0.105551
0.113513
0.103106
0.153764
0.036085
0.105483
0.159812
0.098688
0.051351
0.041698
0.001589
-0.086220
0.073569
0.053151
0.042150
0.005997
0.034633
-0.088065
-0.030497
-0.001219
-0.034316
-0.096815
0.008422
0.033295
-0.002758
-0.051409
-0.059198
-0.006087
0.093534
0.172718
0.467612
0.795761
1.186614
1.299536
1.320818
1.096147
0.805719
0.417971
0.062401
-0.107255
-0.236518
-0.292292
-0.214167
-0.114990
-0.101974
-0.091894
-0.079730
-0.075239
0.016245
0.025907
0.064524
0.056875
0.022669
0.018356
0.119742
0.058680
0.139290
0.024647
0.160024
0.089769
0.212555
0.134780
0.311154
0.290123
0.289633
0.321218
0.296098
0.331923
0.355650
0.346312
0.274080
0.452014
0.316096
0.421151
0.381324
0.432351
0.480437
0.535545
0.409220
0.435047
0.531448
0.532029
0.544741
0.474659
0.498730
0.503900
0.448565
0.392817
0.429514
0.436252
0.360928
0.415990
0.391821
0.317872
0.339120
0.378029
0.297702
0.281397
0.201458
0.194812
0.206423
0.281699
0.230578
0.120127
0.095944
0.113753
0.054582
0.098310
0.064611
0.023604
0.110729
0.048810
0.126830
0.074288
0.046831
0.056943
-0.002597
0.125157
0.032106
-0.028915
-0.021801
0.016580
0.048477
0.039515
0.008885
0.016405
-0.043211
-0.011986
0.066358
0.009439
0.016236
-0.035334
0.008005
-0.009538
-0.026334
0.062169
0.078067
-0.007024
0.013287
0.045325
0.025487
0.122528
0.057878
-0.003989
-0.009250
0.039760
0.061541
0.057758
0.032681
0.013683
0.086511
-0.005085
-0.026473
0.037138
0.087244
0.091708
0.057828
0.024732
0.006999
0.073240
0.017589
0.030153
0.030706
0.012029
0.072486
0.094090
0.085739
0.133831
0.077706
0.078769
0.044865
0.106311
0.160915
0.169517
0.167134
0.125438
0.141876
0.242819
0.158480
0.152846
0.217111
0.159261
0.240864
0.222331
0.312160
0.219117
0.207700
0.241443
0.154997
0.209681
0.257440
0.113213
0.159188
0.149952
0.158661
0.176965
0.124859
0.061482
0.095689
0.097155
0.052229
0.049080
0.056342
0.058233
0.106421
0.064586
0.066766
0.090170
0.068450
0.079518
0.062944
0.055075
-0.002669
0.050513
0.058648
0.125072
0.194488
0.428947
0.684750
1.100556
1.290862
1.393010
1.310960
1.061937
0.768169
0.448905
0.115472
-0.091624
-0.232572
-0.129068
0.025751
0.035067
0.061731
0.117178
0.122980
0.142958
0.110079
0.102798
0.230821
0.130582
0.118131
0.167204
0.163568
0.199766
0.217330
0.196201
0.201204
0.276980
0.270931
0.301310
0.369915
0.372397
0.398919
0.335667
0.471098
0.417378
0.405429
0.469841
0.471214
0.515124
0.550199
0.572155
0.591950
0.536583
0.600720
0.599281
0.598545
0.583448
0.511853
0.625941
0.544392
0.553739
0.595558
0.508975
0.503943
0.548952
0.518690
0.497677
0.428092
0.490108
0.430580
0.443135
0.489960
0.427537
0.409053
0.374655
0.337876
0.270345
0.364614
0.270620
0.239606
0.220131
0.238709
0.187033
0.183143
0.193300
0.256760
0.130069
0.182051
0.255715
0.093946
0.123720
0.140807
0.082345
0.108469
0.143574
0.102617
0.130040
0.179484
0.088313
0.071144
0.095495
0.113818
0.126220
0.177151
0.129380
0.090540
0.101750
0.042909
0.123744
0.122668
0.081037
0.092744
0.073320
0.101114
0.027789
0.094722
0.077812
0.088996
0.123164
0.089254
0.109993
0.084712
-0.006567
0.083416
0.102371
0.076788
0.129931
0.013718
0.120384
0.066786
0.104122
0.094433
0.191601
0.055287
0.074315
0.052575
0.096496
0.082672
0.099277
0.097985
0.163097
0.116448
0.191909
0.164219
0.161470
0.174630
0.156441
0.162926
0.157795
0.201402
0.334350
0.190117
0.254439
0.226030
0.149958
0.217833
0.216814
0.271928
0.249010
0.358517
0.276154
0.189758
0.283786
0.160050
0.232195
0.183626
0.225667
0.266332
0.210445
0.204107
0.261213
0.178718
0.223701
0.138407
0.135248
0.143352
0.137694
0.126781
0.168689
0.232920
0.046806
0.072668
0.089933
0.148302
0.060423
0.152927
0.007999
0.053699
0.151145
0.029591
0.011291
0.100250
0.221136
0.282269
0.703764
0.904743
1.227938
1.459557
1.500000
1.241240
0.958403
0.609722
0.287785
-0.061517
-0.131204
-0.074010
-0.067850
-0.067149
0.140341
-0.033504
0.122397
0.081104
0.145962
0.117004
0.157248
0.090601
0.075127
0.156177
0.127647
0.233740
0.158232
0.240078
0.239762
0.328128
0.252833
0.332822
0.347082
0.282285
0.354980
0.372138
0.380462
0.423794
0.454876
0.528060
0.510005
0.392487
0.495709
0.536972
0.388602
0.552731
0.513378
0.529916
0.523128
0.587921
0.597338
0.486722
0.573186
0.562390
0.520329
0.582504
0.500609
0.433727
0.493148
0.439851
0.420806
0.425041
0.463940
0.383651
0.326094
0.377594
0.356970
0.300029
0.307881
0.216978
0.257626
0.272223
0.188911
0.250376
0.225929
0.077901
0.170348
0.125179
0.131020
0.125125
0.136483
0.105077
0.151023
0.026969
0.017917
0.156265
0.114628
0.031935
-0.041784
0.002426
0.029209
0.060383
0.080985
0.081630
-0.039827
0.085428
0.019484
0.086873
-0.020084
0.083615
0.069304
-0.084775
0.023417
-0.018401
0.022846
0.000951
0.018044
0.081384
-0.005225
-0.047939
0.107481
0.053213
0.067361
0.067240
0.031986
-0.014390
0.080530
0.001912
0.066646
0.026317
0.059630
0.008308
0.059036
-0.010671
-0.078239
-0.000544
-0.078431
-0.015351
0.029663
-0.059082
0.046896
0.019649
-0.042860
0.031410
0.056525
-0.002456
-0.019121
0.109444
0.101945
0.133274
0.069971
0.016533
0.141288
0.150146
0.151077
0.121377
0.078723
0.137366
0.090706
0.153621
0.131977
0.120595
0.137397
0.092455
0.143890
0.127552
0.114345
0.167233
0.153856
0.114698
0.145274
0.067001
0.161527
0.039466
0.111036
0.159324
0.096743
0.057562
0.076351
0.037494
0.051919
0.023985
-0.010465
-0.001366
0.021366
0.038171
0.008539
-0.103503
0.015300
-0.098296
-0.101779
0.009589
-0.011587
-0.043891
0.019875
0.063271
0.101075
0.345158
0.578510
0.933120
1.254716
1.315931
1.272159
1.134916
0.607619
0.261006
-0.049153
-0.188182
-0.307373
-0.243625
-0.170204
-0.125994
-0.039064
0.007451
0.025396
-0.025466
-0.065253
0.059091
0.038882
0.045854
0.029514
-0.005827
-0.079799
0.087577
0.063782
0.168893
0.134545
0.187096
0.150514
0.211319
0.242675
0.217619
0.218131
0.291143
0.243641
0.322252
0.354911
0.364060
0.390849
0.400591
0.395286
0.355062
0.383262
0.399068
0.423500
0.404474
0.487876
0.480620
0.522589
0.452765
0.466848
0.422865
0.413567
0.448366
0.388306
0.364468
0.364823
0.375209
0.381391
0.233629
0.198675
0.279583
0.295873
0.223501
0.292072
0.174804
0.180397
0.204973
0.143435
0.190183
0.078210
0.112172
0.119043
0.010920
0.015136
0.072339
0.008767
0.043790
-0.044092
-0.012538
0.044142
-0.078656
-0.115931
-0.096530
0.024268
-0.054492
-0.079424
-0.100961
-0.055500
-0.062971
-0.040412
-0.036793
-0.000651
-0.096970
-0.133604
-0.089576
-0.091283
-0.025812
-0.165508
-0.184380
-0.097186
-0.049807
-0.142129
-0.091920
-0.140200
0.005848
-0.085592
-0.064997
-0.042837
-0.148160
-0.111089
-0.139558
-0.103002
-0.108449
-0.084352
-0.083225
-0.010730
-0.049665
-0.036965
-0.104128
-0.122834
-0.049592
-0.059984
-0.080014
-0.101614
-0.101440
-0.033850
-0.044504
-0.073955
-0.077194
-0.026754
-0.102924
0.000815
0.002082
0.073292
-0.090043
-0.047081
0.039937
0.087463
-0.012103
0.030569
0.051478
0.066767
0.013762
0.059862
0.046288
0.057026
0.038480
0.085602
0.158729
0.048342
0.077826
0.068953
0.129855
0.091679
0.033353
0.092730
0.073095
0.007908
0.034800
0.018770
0.016540
-0.035083
0.066901
-0.033499
-0.087829
-0.050772
-0.062862
-0.065553
-0.054010
-0.000318
-0.024223
-0.076979
-0.056312
-0.016525
-0.124987
-0.063600
-0.039396
-0.027669
-0.084277
-0.098452
-0.110010
-0.015387
-0.063769
0.306579
0.481126
0.716135
1.044953
1.264916
1.218412
1.052397
0.778049
0.362490
0.056362
-0.153097
-0.226517
-0.271983
-0.141136
-0.163842
-0.038675
-0.140519
-0.010133
-0.057022
0.103044
0.015463
0.054432
0.044016
-0.000653
0.017628
-0.037941
0.010573
-0.025667
0.129321
0.134407
0.057405
0.151141
0.160185
0.167362
0.185539
0.226619
0.352036
0.267081
0.254823
0.287218
0.330395
0.357952
0.432785
0.374035
0.408842
0.431285
0.450586
0.460420
0.442845
0.285414
0.463731
0.400963
0.485876
0.466578
0.541614
0.404888
0.445205
0.388451
0.323859
0.504327
0.380466
0.384546
0.386361
0.239381
0.321565
0.212184
0.229118
0.214674
0.187885
0.222869
0.229494
0.231365
0.163500
0.149441
0.125622
0.114053
0.137623
0.039452
0.105829
0.032503
0.084176
0.136520
0.038476
-0.019525
0.004035
0.038281
-0.071021
-0.090760
0.023625
-0.042811
0.023607
-0.057542
-0.040765
-0.048897
-0.059584
-0.057491
0.002118
-0.047896
0.000027
-0.079161
-0.078045
-0.040253
0.047803
-0.007319
-0.026507
0.024129
0.040437
-0.025863
-0.153121
-0.052126
-0.033924
0.036152
-0.006371
-0.015351
0.068822
-0.071561
-0.016057
-0.043773
0.049947
-0.023788
0.022156
-0.005905
0.013112
-0.057731
-0.023986
0.071089
-0.039364
-0.043284
0.021875
0.053255
-0.004499
0.039965
-0.020033
0.014117
-0.070654
-0.002015
0.041039
-0.010926
0.055928
0.116191
-0.002971
0.079048
0.055761
0.112731
0.060688
0.096499
0.104810
0.139574
0.190390
0.176624
0.217218
0.136748
0.171739
0.159466
0.181323
0.145054
0.152446
0.190754
0.074925
0.205022
0.169838
0.168072
0.090618
0.119563
0.004848
0.106552
0.111481
0.008913
0.101053
0.047217
0.077901
0.029077
0.146445
0.025667
0.095970
0.052992
0.000926
0.084014
0.026751
-0.021811
-0.029275
0.067411
-0.011298
-0.012578
0.002175
-0.013488
0.035448
0.151970
0.414254
0.687916
0.935416
1.200686
1.358467
1.350343
1.081390
0.612868
0.375603
0.040658
-0.193161
-0.165977
-0.093015
-0.054430
-0.092194
0.029196
0.050333
0.059813
0.000756
0.057064
0.109379
0.111815
0.097545
0.083323
0.057603
0.122280
0.155176
0.206033
0.214740
0.199137
0.199421
0.150378
0.233990
0.317958
0.268483
0.370953
0.289580
0.371541
0.415684
0.398297
0.390866
0.423022
0.420303
0.465964
0.492898
0.530547
0.583168
0.567967
0.545046
0.523609
0.481960
0.524980
0.584068
0.561030
0.410510
0.540559
0.585836
0.508930
0.594280
0.428677
0.429251
0.434253
0.445955
0.445127
0.377004
0.384014
0.269796
0.371073
0.308969
0.304300
0.303675
0.235246
0.282433
0.245624
0.197258
0.179197
0.205624
0.093821
0.139618
0.132515
0.087208
0.138947
0.106504
0.116099
0.087209
0.166715
0.063296
-0.006539
0.101033
0.081033
0.002263
0.007755
0.065572
0.091863
0.087246
-0.038145
0.118743
0.039588
0.106187
0.017645
-0.017222
0.017791
-0.024089
-0.009976
-0.009564
0.072542
0.056989
0.015144
0.111782
0.079731
0.073826
0.058754
0.094726
0.042261
0.045278
0.079638
-0.001328
0.149363
0.021292
0.042323
-0.005307
0.060282
-0.093633
0.026867
0.035465
0.057155
0.062161
-0.000717
-0.062466
0.101307
0.026491
0.035863
0.155162
0.017422
0.117012
0.116105
0.065786
0.106466
0.136087
0.017560
0.070152
0.112275
0.099719
0.254256
0.155180
0.257201
0.134528
0.206937
0.151552
0.237845
0.270030
0.224792
0.261941
0.213328
0.185934
0.202661
0.160909
0.182942
0.150094
0.170648
0.229036
0.233521
0.117154
0.089412
0.141263
0.074413
0.112285
0.125603
0.091376
0.089564
0.124256
0.133514
0.023302
0.149143
0.015905
0.134757
0.002255
0.077256
0.048457
0.046724
0.031289
0.000726
0.009547
-0.003878
0.016221
0.029420
0.130441
0.256478
0.556655
0.906057
1.150649
1.259489
1.379815
1.145666
0.836762
0.520608
0.179419
-0.018206
-0.225963
-0.148719
-0.122382
-0.013389
-0.083481
0.022213
0.044619
-0.037899
0.083657
0.101103
0.153448
0.110303
0.093877
0.097585
0.094998
0.122069
0.135520
0.206123
0.202317
0.205801
0.277665
0.172246
0.284437
0.310315
0.296019
0.337930
0.337029
0.389821
0.395758
0.366077
0.452516
0.425926
0.358837
0.489146
0.475587
0.464288
0.495782
0.560898
0.563232
0.518862
0.526134
0.537885
0.493740
0.472067
0.555449
0.507713
0.489655
0.541130
0.511024
0.317478
0.526982
0.404589
0.331274
0.401915
0.351894
0.331402
0.370989
0.267341
0.175272
0.212576
0.215787
0.184366
0.209614
0.165755
0.099272
0.104683
0.131443
0.089255
0.051806
0.062928
0.059400
0.084540
0.009959
0.099603
0.084684
0.071992
0.028327
0.041911
-0.024598
0.098753
-0.020894
0.117254
-0.013915
0.011387
-0.033453
-0.021040
-0.040852
-0.029307
-0.011947
0.024742
0.030227
-0.007697
0.047525
-0.022759
-0.051021
-0.027763
0.027048
0.046040
-0.103404
-0.058702
0.000362
0.033412
-0.007317
0.001706
-0.011062
-0.037275
0.011142
0.064780
-0.019834
-0.058329
-0.018287
-0.051808
-0.130570
-0.067395
-0.077996
0.025352
-0.074396
0.014563
-0.111585
-0.061472
-0.057487
0.013560
-0.000212
0.023788
0.059337
-0.063546
0.008291
-0.018845
0.015725
-0.040811
0.070178
-0.019587
0.039587
0.020450
0.145625
0.140349
0.025960
0.134431
0.051124
0.097494
0.159168
0.146595
0.131209
0.189991
0.119463
0.181091
0.145502
0.176649
0.041008
0.120664
0.081842
0.093962
-0.007244
0.074880
0.013582
0.013788
0.048524
0.058065
0.023061
0.007937
-0.002632
-0.002119
-0.135102
0.018516
-0.099321
-0.012056
-0.013302
-0.040486
-0.076739
-0.026688
-0.039015
-0.083736
-0.098163
-0.125219
0.045623
0.021360
0.132338
0.343150
0.671533
0.938207
1.233086
1.329013
1.181961
0.986547
0.632908
0.214528
-0.073399
-0.244282
-0.222844
-0.216726
-0.195897
-0.124087
-0.033115
-0.145895
-0.045211
-0.002464
-0.099549
-0.017608
0.101592
-0.013716
0.068179
0.101060
-0.016476
0.080946
0.044695
0.222815
0.102634
0.176751
0.209180
0.183525
0.152918
0.198654
0.258560
0.228839
0.242137
0.326880
0.280132
0.318903
0.361739
0.334566
0.335805
0.281308
0.370974
0.396002
0.411547
0.420384
0.416699
0.346594
0.337162
0.420869
0.463884
0.403261
0.487856
0.438908
0.390863
0.310972
0.418616
0.360270
0.295448
0.344708
0.301601
0.233938
0.139509
0.193480
0.251466
0.169208
0.196061
0.119978
0.100425
0.099578
0.159139
0.166900
-0.017727
0.041600
0.117741
-0.005069
-0.005878
0.046239
-0.066760
-0.050790
0.013509
-0.067601
-0.056881
-0.082077
-0.128532
-0.041349
-0.016567
-0.079221
-0.084524
-0.016306
-0.068268
-0.139605
-0.030998
-0.061262
-0.050638
-0.073792
-0.117957
-0.048635
-0.062973
-0.116772
-0.157978
-0.098389
-0.084134
-0.103416
-0.084266
-0.056939
-0.147136
-0.094842
-0.183483
-0.040235
-0.027405
-0.085445
-0.066838
-0.088901
-0.091964
-0.080625
-0.083651
-0.149395
-0.104703
-0.096294
-0.127797
-0.110651
-0.162131
-0.178750
-0.064506
-0.114053
-0.020634
-0.085258
-0.087330
-0.039557
-0.089741
-0.101623
-0.052834
0.002134
-0.012374
-0.068227
-0.037503
-0.062820
-0.080480
0.022657
0.040162
-0.011205
0.041185
0.074967
0.050500
-0.023593
0.057258
0.027175
0.067137
0.113032
0.141413
0.128209
0.107391
0.057103
0.002732
0.073394
0.022207
-0.019914
0.090009
0.007234
0.035217
0.006215
0.015473
0.048024
-0.026836
-0.102319
0.014263
-0.100463
-0.090729
-0.121626
-0.094356
-0.150368
-0.147479
-0.049082
-0.127383
-0.066411
-0.084352
-0.050721
-0.035971
-0.081519
-0.102874
-0.057500
0.015531
0.032185
0.126226
0.448250
0.734325
1.057548
1.201577
1.195101
1.096590
0.752330
0.364980
0.061945
-0.136326
-0.334877
-0.301293
-0.262330
-0.133406
-0.069973
-0.023296
-0.053174
-0.033420
0.027609
-0.030220
0.033332
-0.084732
0.047397
0.083295
-0.000354
0.077245
-0.012000
0.007967
0.091362
0.121731
0.120974
0.153261
0.175013
0.150566
0.264250
0.204184
0.299829
0.244007
0.236788
0.317981
0.364519
0.431913
0.356785
0.382162
0.360505
0.373652
0.378135
0.446810
0.415851
0.455386
0.377793
0.424296
0.457419
0.422163
0.424189
0.440095
0.319945
0.330335
0.367916
0.314976
0.525085
0.344488
0.233244
0.337709
0.266859
0.199601
0.264002
0.263485
0.189764
0.187083
0.120486
0.173414
0.151257
0.133630
0.075006
-0.008028
0.080864
0.116023
0.036069
0.081121
0.001557
0.026016
0.035755
0.035533
-0.024749
-0.005738
-0.000174
-0.023733
-0.080972
-0.030151
0.017164
0.027271
0.011148
-0.071511
-0.000880
-0.038515
-0.054099
0.006487
-0.043247
-0.062389
-0.025427
-0.054900
-0.046830
-0.095246
-0.033280
0.024138
-0.061980
-0.018470
-0.095845
-0.026697
-0.043890
-0.014779
-0.063965
-0.035428
-0.073982
-0.091387
-0.012185
0.042357
-0.048847
0.011117
-0.013715
-0.038629
-0.010204
-0.007795
0.051658
-0.032894
0.034729
-0.022283
-0.032224
-0.047219
0.022229
-0.024347
-0.017121
-0.053836
-0.060396
0.012870
-0.001067
0.059383
0.013167
-0.012817
0.098541
0.044869
0.063250
0.066285
0.126377
0.179997
0.146625
0.093789
0.159307
0.115443
0.112327
0.174276
0.180642
0.184115
0.214550
0.191269
0.163159
0.220446
0.257859
0.177476
0.164698
0.132648
0.094357
0.110615
0.056162
0.096782
0.097496
0.068567
0.047466
0.021494
0.077587
0.048773
0.012802
-0.012882
0.007634
0.052811
0.022509
0.024223
-0.010476
0.092270
0.010497
0.022313
-0.048994
0.015772
0.043675
0.078812
0.130655
0.399886
0.722018
0.906752
1.287005
1.331183
1.243292
1.067884
0.598643
0.341993
-0.030106
-0.162503
-0.175998
-0.215606
-0.147986
-0.030327
0.051517
0.136096
0.082266
-0.008957
0.049310
0.062460
0.056899
0.130138
0.109420
0.091709
0.227785
0.197441
0.211062
0.250385
0.268488
0.201654
0.239306
0.302501
0.239764
0.327155
0.355734
0.335512
0.303028
0.397320
0.363325
0.386696
0.419211
0.428070
0.459225
0.502381
0.508629
0.557971
0.499927
0.484320
0.567049
0.517385
0.595305
0.550635
0.533485
0.595270
0.508620
0.503396
0.474262
0.478198
0.521266
0.471296
0.465526
0.475803
0.335431
0.415765
0.335824
0.385977
0.349293
0.323145
0.348463
0.315840
0.192632
0.263610
0.180416
0.237377
0.166536
0.204158
0.218432
0.141862
0.056681
0.119907
0.170400
0.191674
0.132438
0.073043
0.119369
0.019190
0.070968
0.079467
0.099107
0.019867
0.111102
0.113561
0.087136
0.090095
0.063313
0.051112
0.066274
0.122488
0.102355
0.145250
0.029438
0.015752
-0.002345
0.071422
0.082095
-0.016947
0.046348
0.068572
-0.002398
0.027198
0.079271
0.101261
-0.012768
0.060741
0.023230
0.141354
0.069883
0.138587
0.030699
0.118650
0.098187
0.070965
0.125135
0.068349
0.077714
0.051871
0.051496
0.088815
0.023477
0.012400
0.059004
0.050079
-0.014637
0.098043
0.120425
0.129369
0.191801
0.122784
0.105140
0.174536
0.155717
0.146102
0.153893
0.197245
0.210421
0.154378
0.161432
0.213184
0.265215
0.266979
0.267104
0.258979
0.266576
0.261766
0.170775
0.223374
0.278614
0.293673
0.291162
0.295045
0.242038
0.205726
0.108586
0.153598
0.217796
0.182812
0.174960
0.091959
0.136995
0.206792
0.184294
0.032181
0.100787
0.028753
0.090495
0.081656
0.073115
0.053242
