-0.013300
0.020017
-0.069775
-0.017639
0.085684
-0.015339
-0.044119
-0.012729
0.072520
-0.004825
0.036579
0.055471
0.057030
0.050338
-0.042100
0.001080
0.026246
-0.017317
-0.028285
0.042826
0.054887
0.026006
0.136050
0.107897
-0.006630
0.085958
0.073812
0.068865
0.121415
0.092958
0.076056
0.081192
-0.030220
0.144334
0.142626
0.174573
0.174497
0.135866
0.078204
0.219829
0.109478
0.210810
0.238542
0.258826
0.169642
0.255655
0.238081
0.221696
0.175508
0.147886
0.058191
0.136208
0.161014
0.127706
0.118877
0.104455
0.101991
0.108049
0.197328
0.047887
0.080700
0.058957
0.110401
0.134578
-0.023186
0.032616
0.043370
0.080248
0.084474
-0.011610
0.107471
0.008966
0.051580
0.029596
0.017223
0.054870
0.091966
0.086279
0.036874
0.008356
0.027926
0.044582
-0.024613
0.019814
0.132657
0.334216
0.517362
0.862027
1.174271
1.446003
1.500000
1.295697
0.956786
0.631103
0.308652
0.058063
-0.180146
-0.179876
-0.235287
-0.113166
0.016221
0.057215
0.018775
0.063998
-0.028839
0.000234
0.093076
0.036800
0.098254
0.131029
0.141241
0.146248
0.079083
0.102049
0.001351
0.139328
0.224495
0.183356
0.210107
0.229337
0.153350
0.194733
0.173203
0.314980
0.258772
0.349265
0.235382
0.266304
0.258765
0.335612
0.335909
0.377163
0.391999
0.414120
0.371301
0.516026
0.542742
0.574331
0.463975
0.612386
0.521862
0.543487
0.522235
0.658898
0.579755
0.637615
0.554579
0.550863
0.597912
0.588226
0.625477
0.567031
0.477075
0.560049
0.529732
0.447098
0.455460
0.412832
0.450166
0.411163
0.344904
0.406454
0.341755
0.324468
0.314800
0.366489
0.272219
0.309692
0.227752
0.162044
0.201965
0.310571
0.192823
0.223438
0.194116
0.084442
0.129680
0.077128
0.206865
0.147924
0.083134
0.113189
0.134661
0.109528
0.068650
0.071455
0.201539
0.124881
0.059589
0.104817
0.141547
0.131947
0.086219
0.111382
0.070739
0.135698
0.098667
0.150122
0.056855
0.144085
0.109718
0.008750
0.110408
0.004304
0.116046
0.180871
0.059095
0.016972
0.125385
0.091170
0.058690
0.126051
0.134305
0.065666
0.035099
0.010871
0.036048
0.089010
0.127013
0.087660
0.123700
0.121797
0.073834
0.046162
0.084275
0.217825
0.112275
0.085339
0.085557
0.118357
0.047203
0.048624
0.103854
0.153839
0.034842
0.039698
0.064969
0.100249
0.138518
0.069873
0.094373
0.108160
0.168949
0.052496
0.090066
0.049473
0.102694
0.140476
0.089533
0.091653
0.092669
0.041663
0.088966
0.144203
0.129233
0.100243
0.147186
0.113740
0.161220
0.201783
0.207102
0.278455
0.262889
0.202878
0.235032
0.211091
0.205834
0.301531
0.206524
0.275484
0.265170
0.201717
0.254603
0.189341
0.217264
0.224372
0.196486
0.183703
0.197063
0.109749
0.199609
0.220005
0.123790
0.125995
0.117296
0.108744
0.137589
0.138955
0.201809
0.117954
0.106816
0.063700
0.087832
0.108279
-0.018054
0.050468
0.071126
0.043328
0.067637
0.068600
0.106728
0.153669
0.069227
0.117068
-0.023356
-0.033403
0.038062
0.037603
0.162932
0.366943
0.614722
0.915746
1.243756
1.441307
1.403697
1.200638
0.916964
0.664285
0.296731
-0.083620
-0.210818
-0.269099
-0.154297
-0.117601
-0.061629
-0.032777
0.091459
0.018480
-0.038831
0.058738
0.103172
0.078542
0.040242
0.155174
0.052851
0.096869
0.217306
0.072528
0.137956
0.135272
0.058295
0.101248
0.138889
0.142333
0.133848
0.128420
0.251873
0.174223
0.203821
0.237723
0.326512
0.296078
0.331679
0.365440
0.397029
0.354213
0.343728
0.355875
0.432567
0.409655
0.393726
0.448850
0.393218
0.454430
0.528292
0.505660
0.529997
0.434662
0.462038
0.526582
0.482481
0.551174
0.511936
0.456770
0.523313
0.488629
0.471829
0.399331
0.530455
0.484117
0.401609
0.334355
0.421091
0.385971
0.397020
0.333823
0.245190
0.324079
0.237261
0.218532
0.275118
0.181691
0.163512
0.208167
0.183557
0.099647
0.100421
0.077325
0.136095
0.134417
0.112387
0.117032
-0.011697
0.082872
0.137966
0.018937
0.032024
0.007900
0.040372
-0.004834
0.022223
0.009911
0.068102
-0.043813
-0.115976
-0.006280
0.035686
-0.033203
0.059738
0.029994
0.066068
-0.018379
-0.012873
0.028099
-0.007079
-0.033942
-0.037021
0.045352
-0.036876
-0.020429
0.021810
0.032974
-0.033928
0.008328
0.113563
0.000582
0.036043
-0.010775
0.039317
-0.014166
-0.015213
-0.002240
0.011528
0.015864
-0.041001
0.001689
-0.009582
0.025767
-0.028655
0.016652
0.012728
0.017756
0.013745
-0.022886
0.049414
0.078074
-0.122527
-0.019154
-0.029089
-0.035203
0.021465
-0.042583
0.015071
0.017278
-0.001390
0.053650
-0.023355
0.061577
-0.004450
-0.000091
0.012945
-0.013837
0.030185
0.042747
0.014929
0.061680
-0.010896
0.025398
0.060701
0.061254
0.041170
0.085772
0.100969
0.063430
0.080032
0.023227
0.126156
0.118631
0.116782
0.174458
0.077479
0.164678
0.152065
0.193968
0.168525
0.060949
0.128759
0.131171
0.120996
0.054738
0.028318
0.116981
0.089161
0.043391
0.085847
0.083910
0.054492
0.013721
0.020831
0.033210
0.027079
0.037558
-0.049383
-0.026341
-0.042645
-0.085864
-0.005284
-0.070928
0.042010
-0.018263
0.011604
-0.077940
0.012860
0.015345
-0.061592
0.009415
-0.125185
-0.017801
-0.014454
-0.110608
-0.058039
0.029046
0.061747
0.236842
0.551896
0.921346
1.163304
1.364173
1.335620
1.187437
0.823245
0.498147
0.124220
-0.120793
-0.250407
-0.333438
-0.306176
-0.233693
-0.162488
-0.134409
-0.003832
-0.076373
0.041243
-0.140390
0.008995
-0.118399
-0.049853
-0.051852
-0.043989
0.036246
-0.001430
0.084166
-0.016265
0.048956
-0.019742
0.030231
0.081725
0.015160
0.046023
0.099950
0.088389
0.093188
0.158955
0.141155
0.168793
0.209375
0.205676
0.250553
0.201242
0.276640
0.400184
0.284481
0.377529
0.311864
0.325099
0.431975
0.391384
0.402977
0.517309
0.381572
0.406900
0.484177
0.466889
0.497365
0.445126
0.446035
0.496499
0.523995
0.470935
0.445879
0.456145
0.386371
0.438420
0.303169
0.402570
0.357862
0.376326
0.289630
0.275923
0.210335
0.217259
0.179191
0.121353
0.104135
0.150847
0.089600
0.151967
0.135781
0.070143
0.087168
0.165593
0.018093
0.029728
0.039603
0.011398
0.048656
0.019696
-0.028790
0.030103
-0.049105
0.012006
-0.034092
-0.062563
-0.060370
-0.006926
-0.063942
-0.019260
-0.013394
0.008597
-0.024019
-0.055462
-0.101384
-0.059248
-0.130818
0.025203
-0.128869
-0.044724
0.025631
-0.011874
-0.006925
-0.006349
-0.036413
-0.096956
-0.020493
0.013527
-0.060449
-0.021413
0.081749
0.025906
-0.005963
-0.002384
-0.030915
0.011045
-0.019978
-0.049030
0.057428
0.010086
-0.026243
0.018550
0.008909
-0.127945
-0.013987
0.001687
-0.065754
-0.071025
-0.005037
-0.044595
-0.122135
-0.035090
-0.012472
-0.022156
0.040206
-0.070403
-0.043777
-0.009082
0.036446
-0.018251
-0.023734
-0.127031
-0.098496
0.010812
0.023643
0.026217
-0.059089
-0.015623
0.111858
0.039032
0.007951
0.079228
0.062008
0.009664
0.040329
0.059616
0.114508
0.073362
0.061899
0.149574
0.137690
0.088405
0.110942
0.165105
0.114175
0.169651
0.057783
0.140334
0.227287
0.125993
0.165095
0.248406
0.171079
0.171230
0.133214
0.154947
0.173139
0.137812
0.128089
0.090084
0.149591
0.128022
0.059931
0.111254
0.065836
0.087373
0.106393
0.130884
0.042754
0.064491
0.086291
0.078093
0.018284
-0.003068
0.046937
0.030251
0.015084
0.087850
0.014267
0.091345
0.021372
0.040406
-0.006827
-0.042995
0.086877
-0.001036
-0.042919
-0.007992
0.003246
0.177789
0.283804
0.673721
1.036685
1.186978
1.409805
1.388175
1.155142
0.875637
0.527396
0.257550
-0.198014
-0.182461
-0.208147
-0.240506
-0.091069
0.020485
0.082396
0.014255
-0.035216
0.043260
0.117536
0.069656
0.131062
0.111543
0.056589
0.071594
0.011859
0.123851
0.080422
0.184958
0.148257
0.142812
0.020924
0.123885
0.145539
0.151994
0.230180
0.152034
0.291088
0.237824
0.207142
0.266549
0.295108
0.234105
0.296254
0.318200
0.357531
0.492606
0.376101
0.411825
0.416578
0.359365
0.493140
0.554208
0.486552
0.539879
0.422760
0.521244
0.620918
0.521996
0.554557
0.555942
0.568675
0.600950
0.475616
0.573433
0.458537
0.547536
0.445633
0.530244
0.455025
0.393752
0.399904
0.458275
0.345810
0.333146
0.360917
0.366222
0.272025
0.250805
0.272855
0.296865
0.281876
0.196740
0.172184
0.236331
0.113937
0.119126
0.113619
0.212522
0.066064
0.117559
0.064725
0.110900
0.084175
0.078096
0.073900
0.036150
0.023034
0.016528
0.025369
0.142194
0.073773
0.083589
0.055458
0.030911
0.127430
0.047621
0.048167
0.112219
0.054348
0.068938
0.020978
0.030076
0.068041
0.089759
0.057071
0.079057
0.121833
0.112992
0.061907
0.079763
0.088525
0.071567
0.060699
0.076833
0.062047
0.097191
0.064025
0.075769
0.060615
0.168210
0.093311
0.042192
0.058730
0.085580
0.032403
0.070427
0.054703
0.127199
0.089867
-0.013314
0.078427
0.052046
0.118072
0.092142
0.153817
0.040204
0.067771
0.156070
0.045418
0.072173
0.074973
0.106739
0.047145
0.046724
0.129156
0.112691
0.024547
0.117318
0.087486
0.124497
0.185188
0.064747
0.157947
0.140528
0.120814
0.120841
0.112419
0.201142
0.165225
0.193765
0.154286
0.270074
0.148958
0.169221
0.189760
0.203827
0.234566
0.241111
0.293499
0.225558
0.213161
0.249519
0.203165
0.274124
0.308993
0.271535
0.268917
0.179700
0.224307
0.176526
0.152335
0.222225
0.262050
0.179647
0.151590
0.140750
0.180943
0.223755
0.124940
0.137539
0.144180
0.151992
0.174215
0.131136
0.195254
0.135576
0.080770
0.096225
0.095410
0.132809
0.073846
0.117134
0.072554
0.168518
0.088703
0.097746
0.107415
0.108679
0.009599
0.037148
0.110217
0.329629
0.441148
0.773960
1.041501
1.343402
1.392966
1.423072
1.130509
0.938458
0.534420
0.121931
-0.064221
-0.208715
-0.146555
-0.153557
-0.091908
-0.037629
0.006853
0.088344
0.118631
0.094595
0.037875
0.053351
0.105509
0.118036
0.147235
0.073351
0.176675
0.145328
0.131641
0.108970
0.133679
0.112429
0.150975
0.131804
0.271894
0.271839
0.179477
0.212970
0.196353
0.211077
0.267132
0.261568
0.342109
0.316814
0.337437
0.385527
0.322590
0.434696
0.352452
0.492913
0.389109
0.467848
0.514184
0.563754
0.507267
0.512278
0.452664
0.471451
0.528669
0.564201
0.523976
0.525756
0.633605
0.510687
0.574783
0.500392
0.567983
0.474289
0.498773
0.448641
0.448757
0.397182
0.468453
0.397746
0.417916
0.340117
0.294973
0.311154
0.348217
0.237343
0.232477
0.221129
0.199014
0.220051
0.237929
0.158628
0.179036
0.172469
0.106250
0.079784
0.183706
0.182070
0.134084
0.065799
0.128912
0.097529
0.094321
0.019175
0.135953
0.043735
0.059797
0.078414
0.020329
0.061523
0.098722
0.084455
0.056057
0.007385
0.008373
0.088752
0.050813
0.109308
0.008834
0.037032
0.016783
0.026289
0.091878
0.053400
0.039406
0.003344
0.004912
0.036795
0.069207
-0.016169
0.066730
0.007297
0.061060
0.016792
0.047695
0.004145
-0.035775
0.066956
-0.067127
0.026402
0.000147
0.094807
0.024301
-0.036045
0.041869
0.039767
-0.032883
-0.008408
0.042192
0.071621
0.020070
0.014570
0.015397
0.010061
0.122332
-0.025675
-0.003308
-0.030705
0.037606
0.016938
-0.060224
0.043410
0.004569
0.032982
0.019045
0.042215
0.102533
0.005482
0.069524
0.033287
-0.051021
0.010868
-0.023643
0.007590
0.071579
-0.015303
0.065249
0.056704
0.130854
0.066185
0.081711
0.097513
0.132156
0.049336
0.104696
0.209209
0.142446
0.102112
0.112511
0.091292
0.150997
0.079049
0.169504
0.093422
0.178702
0.117574
0.110447
0.143309
0.134937
0.150529
0.076865
0.068656
0.053687
0.024941
-0.011882
-0.023825
0.056074
-0.010422
0.050139
-0.009165
-0.031823
-0.112360
0.068746
-0.043956
-0.077356
-0.031353
-0.062686
-0.032317
-0.019097
-0.058006
-0.012750
0.009026
-0.048087
-0.040941
-0.048879
-0.034833
-0.091338
-0.071474
0.037712
0.142375
0.354471
0.698807
0.975142
1.285754
1.339159
1.262388
1.018011
0.678659
0.261733
0.026630
-0.206111
-0.275254
-0.297711
-0.245852
-0.161625
-0.107815
-0.096170
-0.055878
-0.039239
0.022655
-0.064825
-0.040694
-0.113065
-0.018585
-0.000346
-0.028954
-0.002393
-0.007235
-0.030214
-0.027718
-0.001077
0.060645
-0.013632
0.081334
0.074609
0.035562
0.107520
0.090643
0.153491
0.133294
0.157462
0.259365
0.218507
0.231950
0.203721
0.274590
0.283393
0.315294
0.346840
0.369349
0.287366
0.344640
0.316545
0.380421
0.414057
0.404033
0.356884
0.463668
0.410995
0.409250
0.425185
0.458367
0.488912
0.391782
0.464225
0.441934
0.369019
0.361392
0.341707
0.292965
0.373029
0.356598
0.309698
0.312349
0.210611
0.186228
0.216658
0.216320
0.256989
0.116967
0.060801
0.163778
0.093152
0.072840
0.087785
0.065786
0.057944
-0.023735
0.006703
-0.048197
-0.023647
-0.035032
-0.002310
0.012541
-0.021926
-0.082333
0.024740
-0.039339
-0.101050
-0.087074
-0.010930
-0.150165
-0.115585
-0.090518
0.004927
-0.088408
0.027574
-0.084193
-0.069612
-0.094467
-0.093931
-0.062225
-0.080152
-0.082800
-0.026723
-0.107691
-0.111022
0.003589
-0.086212
-0.083600
-0.114231
-0.102509
-0.070060
-0.067705
-0.058163
-0.169685
-0.129359
-0.020690
-0.068199
-0.065597
-0.044734
-0.090816
-0.109337
-0.045299
-0.030210
-0.000953
-0.134988
-0.078309
-0.110154
-0.002533
-0.104888
-0.058965
-0.080974
-0.064475
-0.084705
0.034314
-0.033611
-0.073466
-0.036367
-0.093320
-0.077282
-0.047012
-0.037398
-0.003067
-0.100230
-0.020474
-0.050639
-0.142407
-0.079281
-0.011596
-0.062108
0.028862
-0.081417
-0.049153
-0.081414
-0.035203
-0.009860
0.020835
-0.005371
-0.016019
0.028406
-0.047432
0.082962
0.048499
0.039996
0.044730
0.074633
0.118250
0.100189
0.078522
0.101223
0.047337
0.118104
0.085660
0.112743
0.046238
0.037951
0.116562
0.115683
0.061504
0.013109
0.025149
0.051756
-0.010186
0.084567
0.038734
0.003141
0.040921
0.008288
-0.098922
0.019593
-0.010626
-0.054768
-0.095783
-0.055165
-0.045401
-0.076132
-0.036408
0.020000
-0.062606
-0.087470
-0.056964
-0.053766
-0.036632
-0.027497
-0.050785
-0.113235
-0.011948
-0.064602
-0.046754
-0.079000
-0.089556
-0.033739
0.103814
0.397939
0.725825
1.012225
1.306169
1.296078
1.250745
0.913411
0.581284
0.281252
-0.040820
-0.145571
-0.312429
-0.345344
-0.327739
-0.221961
-0.124070
-0.119946
-0.037042
-0.029345
-0.043354
-0.015659
-0.025572
-0.035175
-0.029763
-0.070472
-0.077825
-0.066237
-0.007610
0.027850
0.032285
0.088014
0.046130
0.069174
0.095191
0.045186
0.059423
0.091478
0.101681
0.113141
0.131259
0.118362
0.220896
0.175082
0.242440
0.224502
0.252862
0.317958
0.340023
0.323279
0.365157
0.329153
0.391586
0.475106
0.470501
0.439525
0.406107
0.443015
0.485202
0.472177
0.446294
0.486768
0.443981
0.494874
0.433964
0.419331
0.427911
0.428111
0.404119
0.386171
0.363593
0.383235
0.304393
0.290308
0.285049
0.317009
0.289626
0.228974
0.250862
0.177777
0.207200
0.168645
0.177694
0.084007
0.111641
0.070481
0.114159
0.054944
0.177116
0.068776
0.082297
-0.004808
0.034983
0.029355
-0.049672
0.014074
0.102910
0.026279
-0.075502
0.081328
-0.015047
0.033028
-0.100508
0.059012
-0.012870
-0.013743
-0.009045
-0.026772
-0.005867
-0.017154
-0.030421
0.075035
0.025774
-0.059656
-0.019440
-0.058930
0.049152
0.000644
-0.011727
-0.046198
-0.050975
-0.002773
0.053879
0.050037
-0.024069
0.037959
0.018601
-0.014375
0.017023
-0.051223
0.007562
-0.066239
-0.062105
-0.035600
-0.006315
0.071343
0.017118
-0.015095
-0.007828
0.016078
0.004971
0.092847
0.034005
-0.047988
0.014148
0.010172
-0.019298
0.029529
-0.012023
0.062005
-0.001561
0.087036
0.023174
-0.023984
-0.034142
0.005467
0.018158
0.036494
0.007283
-0.006870
0.028201
-0.014864
0.002633
0.022830
0.074662
0.058327
0.114601
0.067440
0.070961
0.085116
0.001286
0.038866
0.128072
0.172311
0.140237
0.197442
0.183992
0.078841
0.170045
0.124499
0.155992
0.173494
0.191916
0.267034
0.237224
0.181686
0.159678
0.116755
0.199097
0.157335
0.138778
0.185904
0.210675
0.196720
0.085468
0.098235
0.075710
0.154938
0.111385
0.072607
0.087233
0.071235
0.032290
0.063885
0.086263
0.113954
0.020356
0.040144
0.029176
0.060038
0.049217
0.139642
0.058179
0.032017
-0.016406
0.036707
0.090738
-0.040676
-0.006081
0.132445
0.055010
-0.054203
0.050426
0.082021
0.249685
0.501134
0.806563
1.115275
1.407710
1.451152
1.318162
1.035350
0.678060
0.425218
0.012644
-0.092141
-0.221542
-0.282376
-0.142287
-0.077615
-0.044218
0.052067
0.040020
0.053587
0.025600
0.019982
0.040671
0.055814
0.108322
0.020491
0.110139
0.060100
0.189637
0.114048
0.059845
0.182910
0.120183
0.096163
0.023463
0.130303
0.116165
0.209806
0.170191
0.219969
0.228372
0.280115
0.333148
0.309756
0.369780
0.290663
0.277903
0.405139
0.352650
0.423587
0.381139
0.495565
0.467829
0.443978
0.515784
0.499402
0.590686
0.470964
0.549403
0.573877
0.534848
0.645578
0.532614
0.540254
0.523680
0.488555
0.571652
0.470831
0.505903
0.425629
0.470116
0.458912
0.472456
0.374581
0.345242
0.329758
0.369563
0.298713
0.218206
0.300627
0.300852
0.170604
0.266528
0.174548
0.180998
0.203313
0.159920
0.137911
0.178462
0.137339
0.071740
0.105994
0.043525
0.088829
0.147428
0.149854
0.075313
0.081831
0.053154
0.097586
0.108800
0.071418
0.058520
0.065040
0.027172
0.041007
0.105131
0.103767
0.053354
0.010380
0.110254
0.001740
0.100226
0.042594
0.064217
0.053443
0.040412
0.030985
0.068391
0.009713
0.113512
-0.029173
-0.001039
-0.004562
0.021385
0.022280
0.039116
0.045618
0.078529
-0.051902
0.031108
-0.002382
-0.015257
-0.012459
0.063089
0.015534
0.022060
0.039319
0.086545
0.036264
0.111165
0.008386
0.058165
-0.015155
-0.034754
-0.055887
0.006617
0.041373
-0.007207
0.007211
0.105743
0.019326
0.071788
-0.024952
0.078063
0.000229
-0.009865
0.009827
0.042529
0.106983
-0.006013
0.067057
0.011602
0.024560
-0.020780
-0.001659
0.062893
0.041336
0.102832
0.036617
0.091304
0.064384
0.038205
0.060115
0.074101
0.137274
0.161837
0.237758
0.177560
0.137184
0.102686
0.141929
0.213673
0.186152
0.186102
0.111027
0.113643
0.126135
0.233107
0.147816
0.089414
0.155676
0.150906
0.239614
0.052567
0.095631
0.042506
0.070270
0.053610
0.064366
-0.028689
0.008831
0.046971
0.002218
-0.009734
0.071705
0.060729
-0.053893
0.033984
-0.027813
-0.055002
-0.037245
0.011381
-0.044478
-0.035823
0.063920
0.042338
0.021989
-0.070924
-0.036590
-0.092405
-0.010462
-0.079150
0.038370
0.144907
0.476680
0.742455
1.089220
1.290435
1.335566
1.171987
0.980977
0.620861
0.187297
-0.043412
-0.204774
-0.271481
-0.220282
-0.184532
-0.158085
-0.069647
-0.102851
0.012071
-0.038848
0.012874
0.013410
-0.040847
0.016503
0.005538
0.039632
-0.067892
-0.056882
-0.012625
0.024017
0.008062
0.004744
0.109639
0.091370
0.041109
0.093706
0.054135
0.101854
0.102867
0.144274
0.197354
0.212157
0.131791
0.199688
0.245431
0.275696
0.320307
0.307676
0.299444
0.374463
0.324544
0.374945
0.350731
0.375050
0.446803
0.427906
0.390718
0.471552
0.496785
0.514669
0.468665
0.402143
0.478265
0.488014
0.334926
0.487687
0.407579
0.380917
0.397764
0.320488
0.395048
0.366936
0.380106
0.284421
0.320845
0.237156
0.179676
0.176116
0.132298
0.230529
0.092305
0.183406
0.170897
0.006436
0.025981
0.093862
0.076986
0.053002
0.009003
0.007598
-0.039963
0.041956
0.029029
-0.009751
-0.011746
-0.065640
-0.032731
-0.074087
-0.072568
-0.038278
-0.015512
-0.061748
-0.071537
-0.103141
-0.025697
-0.090434
-0.013383
-0.038940
-0.008832
-0.003545
-0.048433
-0.072446
-0.050076
-0.093539
-0.117944
-0.093871
-0.063940
-0.118851
-0.127426
-0.128630
-0.157258
-0.103048
-0.143778
-0.129035
-0.066912
-0.051539
-0.112511
-0.157729
-0.096959
-0.007916
-0.032359
-0.099494
-0.067559
-0.068678
-0.021779
-0.138322
-0.093614
-0.071684
0.025842
-0.120652
-0.078934
-0.047714
-0.032369
-0.077737
-0.147269
-0.044737
-0.143348
-0.093910
-0.066624
-0.099415
-0.076528
-0.134437
-0.078346
-0.063201
-0.142680
-0.044705
-0.078284
-0.095724
0.000780
-0.059414
-0.088561
-0.052316
-0.059015
-0.027416
0.004632
-0.065505
-0.088781
-0.107467
-0.022836
-0.023434
-0.052732
-0.050877
0.020950
-0.010664
0.038008
0.006993
0.017909
0.093083
0.065781
0.107672
0.016181
0.121746
0.050165
0.090445
0.163149
0.040313
0.097778
0.017221
0.071696
0.059415
0.067770
0.055849
-0.000630
0.041148
-0.009637
-0.076032
0.057764
0.000125
-0.045010
-0.066924
-0.121312
-0.087799
-0.071037
-0.041568
-0.101536
-0.076651
-0.127220
-0.064414
-0.134464
-0.157110
-0.089091
-0.171432
-0.052579
-0.073462
-0.114134
-0.143948
-0.101474
-0.143162
-0.082195
-0.070386
-0.081091
-0.195594
-0.138508
-0.075006
0.112266
0.470225
0.774067
1.051674
1.305353
1.325228
1.101477
0.907454
0.462947
0.195690
-0.166333
-0.251671
-0.411114
-0.332128
-0.181617
-0.178273
-0.058734
-0.092247
-0.040224
-0.060859
-0.145474
-0.128939
-0.129947
-0.023886
-0.051116
-0.092243
-0.079534
-0.051406
0.004364
0.018502
-0.023934
-0.006069
-0.019214
0.032669
0.053215
0.040259
0.054779
0.108463
0.048646
0.043282
0.065815
0.136383
0.184949
0.259346
0.150788
0.099667
0.266343
0.325745
0.263851
0.274186
0.242083
0.342069
0.245290
0.376929
0.343135
0.424620
0.380357
0.432453
0.369778
0.374492
0.451358
0.429913
0.392847
0.421962
0.453638
0.415618
0.421559
0.297859
0.378016
0.327182
0.291858
0.372342
0.324378
0.294293
0.247591
0.291597
0.219583
0.143849
0.215762
0.132648
0.204667
0.156346
0.168405
0.066471
0.079007
0.059168
-0.005515
0.047547
0.122994
-0.069976
0.017441
-0.006703
0.024322
-0.045262
-0.016342
0.038902
-0.018560
-0.006674
0.017724
-0.060704
-0.012946
-0.040090
-0.063783
-0.116337
-0.043943
-0.020585
-0.028087
-0.083918
-0.035267
-0.081158
-0.128025
-0.043617
-0.070678
-0.087531
-0.020606
0.000568
0.057056
-0.050127
-0.066958
-0.142626
-0.016951
-0.058851
0.002249
-0.075562
-0.027704
-0.089866
-0.079620
-0.026101
-0.035932
-0.056080
-0.088755
-0.027560
-0.050658
-0.036479
-0.043732
-0.088164
-0.064348
0.006336
0.009830
0.025761
-0.036784
-0.021989
0.007827
0.011954
-0.106822
-0.025479
-0.032463
-0.067948
-0.041033
-0.122400
-0.058366
-0.037143
-0.122536
-0.047768
-0.047996
-0.080614
-0.029149
-0.098603
-0.010947
-0.007406
0.022255
-0.034732
-0.008300
0.038885
0.029485
0.059587
0.031615
0.064649
0.025299
0.027217
0.081103
-0.045251
0.083251
0.041154
0.067414
0.104035
0.166794
0.061810
0.198209
0.101795
0.118773
0.157863
0.158925
0.155393
0.219127
0.099121
0.078923
0.174759
0.151436
0.277511
0.075199
0.168260
0.161005
0.070860
0.071824
0.008720
0.087389
0.034194
0.137634
0.060316
0.022538
0.022734
-0.064099
0.046303
0.052871
0.023376
-0.044702
0.079226
0.059180
0.073017
-0.100439
0.043575
0.063425
0.028482
-0.013759
-0.051040
0.071125
0.006064
-0.019734
-0.023432
-0.029456
-0.054025
0.026421
0.181073
0.246659
0.559366
0.806865
1.190508
1.398912
1.318152
1.192108
0.919080
0.591986
0.124319
-0.022425
-0.173626
-0.266253
-0.232154
-0.065892
-0.106505
0.066572
0.019867
0.064998
-0.071027
0.026154
0.094177
0.018143
0.066861
0.037824
0.048275
0.145176
0.082438
0.101789
0.075659
0.039229
0.155081
0.152124
0.113287
0.251991
0.187285
0.280099
0.078096
0.190783
0.139188
0.206382
0.258525
0.268002
0.324624
0.289966
0.359945
0.280845
0.374178
0.346329
0.403725
0.451461
0.511955
0.466028
0.562520
0.486656
0.501648
0.516218
0.469653
0.584068
0.514635
0.563609
0.538783
0.563188
0.512480
0.578848
0.533669
0.498095
0.448361
0.501287
0.418430
0.427075
0.448498
0.485681
0.404952
0.391160
0.336805
0.384539
0.386707
0.341986
0.271739
0.330423
0.244132
0.181771
0.208003
0.204923
0.205738
0.246877
0.194405
0.162696
0.200870
0.057627
0.137540
0.119439
0.044572
0.063256
0.156042
0.058385
0.061441
0.102131
0.119407
0.044723
0.111902
0.019341
0.098252
0.114120
0.143895
0.073469
0.036980
0.043277
0.039062
0.087504
0.038573
0.063160
0.025180
0.185710
0.119923
0.107459
0.055695
0.071241
0.075692
0.063864
0.080364
0.129908
0.045415
0.121396
0.134861
0.050977
0.035909
0.074948
0.112592
0.025528
0.097088
0.032319
0.142130
0.040718
0.087898
0.055743
0.129240
0.023087
-0.010221
0.116296
-0.029322
0.086629
0.073648
0.055892
0.136882
0.035604
0.114859
0.069093
0.079183
0.133215
0.052341
0.099882
0.035971
0.161635
0.056396
0.068440
0.025483
0.035791
0.123071
0.059140
0.109190
0.046517
-0.058770
0.072218
0.110878
0.022491
0.073317
0.133478
0.146682
0.101810
0.144461
0.194857
0.137669
0.216340
0.210360
