-0.020185
0.017849
-0.008370
0.010501
0.043746
0.006065
-0.055463
0.009219
-0.051697
-0.009919
-0.017582
0.006742
-0.033169
0.015956
0.048788
-0.042428
0.005504
0.067985
0.021164
0.041757
-0.014644
-0.026793
0.059193
0.072586
0.072989
0.047447
0.058888
0.128402
0.144886
0.018019
-0.000959
0.123598
0.088545
0.129717
0.090915
0.079683
0.165184
0.259204
0.146781
0.225850
0.180283
0.223390
0.260169
0.244465
0.189177
0.163691
0.159334
0.316134
0.165747
0.220219
0.149484
0.160317
0.207190
0.130447
0.122133
0.130835
0.239964
0.129238
0.035063
0.073304
0.039372
0.127390
0.093019
0.109529
0.129327
0.103316
0.026117
0.041971
0.014026
0.136458
0.026589
0.123083
0.039794
-0.039101
0.078087
0.062770
0.062991
-0.055488
0.083233
0.067182
0.146811
0.225033
0.562957
0.837896
1.127926
1.443446
1.413783
1.394468
1.095354
0.694442
0.313296
0.076903
-0.163098
-0.240627
-0.142452
-0.050229
-0.039136
-0.016695
0.063982
0.116134
0.137157
0.104076
0.125198
0.018786
0.081459
0.142917
0.080557
0.157565
0.129457
0.047876
0.185365
0.144304
0.078905
0.189154
0.172448
0.245318
0.298428
0.236097
0.304893
0.331452
0.276946
0.339588
0.289947
0.353371
0.403935
0.462944
0.477521
0.433583
0.380783
0.491415
0.441478
0.548639
0.517182
0.607537
0.624995
0.577763
0.549942
0.574500
0.579901
0.585416
0.583310
0.591147
0.594509
0.514829
0.537189
0.460203
0.603948
0.542084
0.616379
0.585822
0.469839
0.509313
0.372639
0.414121
0.410128
0.393699
0.353535
0.386226
0.287127
0.349687
0.308517
0.257817
0.331138
0.236611
0.237944
0.207909
0.188309
0.159696
0.195504
0.145496
0.108857
0.142688
0.217986
0.131009
0.079245
0.073497
0.134267
0.139715
0.079308
0.126232
0.076524
0.173252
0.160165
0.112568
0.054657
0.132235
0.120509
0.117605
0.137473
0.104915
0.120501
0.111145
0.133814
0.061464
0.093659
0.023951
0.089824
0.075736
0.059638
0.089542
0.099694
0.055740
0.105376
0.075612
0.159256
0.079721
0.078891
0.103246
0.043769
0.070238
0.065755
0.164775
0.100979
0.080396
0.121475
0.151141
0.010850
0.043150
0.150526
0.106652
0.120001
-0.020747
0.081044
0.073046
0.047181
0.137793
0.012975
0.036181
0.094772
0.048298
0.176148
0.050762
0.139662
0.043563
0.103785
0.108525
0.116854
0.115090
0.069478
0.117924
0.197723
0.130138
0.130783
0.202910
0.166630
0.238742
0.229050
0.176125
0.227559
0.136050
0.242131
0.232756
0.176725
0.224305
0.154707
0.250365
0.295626
0.179449
0.288703
0.187038
0.254267
0.339225
0.229382
0.214851
0.193518
0.195967
0.244106
0.182068
0.151498
0.196936
0.201266
0.147687
0.127731
0.099012
0.176718
0.145510
0.196030
0.154617
0.105686
0.211532
0.051531
0.188565
0.136151
0.060900
0.064470
0.060295
0.076127
0.113618
0.007394
0.026740
0.111046
0.041433
0.020017
-0.006485
0.117503
0.192137
0.384044
0.750200
1.147332
1.369197
1.500000
1.468491
1.177833
0.855083
0.375212
0.114557
-0.123330
-0.273795
-0.193620
-0.046197
-0.048255
0.043125
0.030838
0.001966
0.077153
0.072129
0.094602
0.079633
0.069827
0.102116
0.129956
0.106539
0.081172
0.117266
0.115435
0.152564
0.122265
0.128080
0.106987
0.135976
0.217504
0.224012
0.179202
0.331027
0.278632
0.225078
0.281500
0.290380
0.290886
0.365600
0.403580
0.375317
0.487196
0.491919
0.450282
0.449051
0.601276
0.478484
0.560167
0.522828
0.582165
0.532166
0.500070
0.555101
0.416514
0.527395
0.570312
0.496505
0.494925
0.516738
0.432020
0.506369
0.499280
0.538766
0.378242
0.389099
0.382200
0.491636
0.341852
0.340748
0.283166
0.265666
0.308681
0.195020
0.286146
0.189295
0.230916
0.153166
0.208996
0.175320
0.180146
0.094456
0.148382
0.139665
0.085344
0.116665
0.111239
0.123443
0.016750
0.025016
0.000190
0.040113
-0.090887
0.063846
0.033676
0.051252
0.074119
-0.008501
0.071274
0.018649
-0.007469
0.072555
-0.007633
0.038461
-0.037131
0.056716
0.085681
0.009039
0.058326
-0.052583
-0.013786
0.000578
-0.026311
-0.021608
0.082878
0.033032
-0.002884
-0.024985
-0.053151
0.042237
-0.028806
-0.067183
0.065974
-0.032081
0.019938
-0.027919
0.020804
-0.092629
0.014813
-0.086276
0.028846
-0.073175
0.156312
-0.050340
-0.050197
0.045951
0.038592
0.005439
0.003863
-0.028503
-0.028018
0.025518
0.071899
-0.065048
0.039349
-0.023228
-0.046101
-0.015551
0.004436
0.016314
0.036322
0.065016
0.025228
0.019769
0.064288
0.015117
0.096157
0.032873
0.029434
0.087411
0.090690
0.085365
0.102687
0.084476
0.104733
0.180401
0.190398
0.147933
0.190171
0.174700
0.099274
0.155602
0.119834
0.151063
0.128671
0.171884
0.177966
0.179048
0.099326
0.059401
0.099029
0.053100
0.027682
-0.005048
0.081075
0.074403
0.073096
0.068337
0.050325
-0.055676
0.064326
-0.040531
-0.054930
-0.054247
0.004870
0.026577
-0.002458
0.043145
0.012506
-0.048040
-0.055655
-0.055006
-0.036954
-0.065395
-0.026918
-0.033837
0.009541
-0.051611
-0.048601
0.083601
0.284805
0.601196
0.868409
1.161096
1.375494
1.292526
1.196717
0.837430
0.454236
0.036737
-0.212816
-0.269137
-0.313312
-0.206414
-0.211466
-0.159078
-0.089403
-0.067790
-0.084787
-0.025393
-0.040728
-0.048948
-0.037452
0.047652
0.021910
0.069457
-0.015982
0.101379
0.068483
0.096356
0.030330
-0.024696
0.034847
0.149511
0.071037
0.067519
0.085303
0.151762
0.129772
0.195828
0.217145
0.232498
0.261985
0.312771
0.281897
0.263437
0.395980
0.368483
0.410743
0.349120
0.400570
0.490399
0.499175
0.450917
0.496724
0.481483
0.513939
0.444975
0.431986
0.552028
0.490965
0.452214
0.502860
0.485337
0.388184
0.413527
0.312798
0.415709
0.416354
0.408524
0.305848
0.275049
0.372126
0.216318
0.340756
0.144486
0.224968
0.234122
0.169055
0.130181
0.145084
0.093016
0.118287
0.126900
0.097674
0.055995
0.037026
0.119317
0.063821
0.027386
-0.011040
0.083795
-0.005628
-0.036223
-0.046472
-0.033237
0.054596
-0.018060
-0.141622
-0.130755
-0.083785
0.008844
-0.074138
0.015152
0.040247
0.044016
-0.030182
0.072663
-0.017298
-0.064014
0.013252
-0.082929
0.030412
0.006484
-0.071139
-0.072815
-0.069803
-0.003140
-0.080122
0.018913
-0.124445
0.018727
-0.072923
0.001941
-0.037675
-0.028331
-0.019142
0.021580
-0.075300
-0.009460
0.009427
-0.027034
-0.046362
-0.040460
-0.091988
-0.000424
-0.016415
-0.089211
0.050624
-0.047084
0.002451
-0.081451
-0.059725
-0.045098
-0.020548
-0.024475
0.008454
0.037873
-0.059843
-0.021089
0.003322
0.010795
0.010170
0.068994
0.016136
0.042176
0.026469
-0.035957
-0.017565
-0.008901
0.074027
0.048083
0.002069
0.046709
0.134672
0.103857
0.072521
0.014922
0.147682
0.121206
0.131394
0.147238
0.133252
0.087406
0.178024
0.070868
0.198185
0.226107
0.193967
0.192459
0.208089
0.185804
0.143278
0.086199
-0.047420
0.012298
0.124603
0.055705
0.121525
0.134160
0.056956
0.091563
0.114342
0.010895
0.044570
-0.012711
-0.098973
0.033307
-0.044340
-0.024281
-0.035946
0.078450
0.028820
-0.048425
-0.009288
0.017423
0.041357
-0.031550
0.007627
-0.041596
-0.015514
0.004968
-0.041943
0.148008
0.288099
0.531275
0.879425
1.068132
1.410263
1.340493
1.263840
0.982963
0.556186
0.222261
-0.059272
-0.129696
-0.203583
-0.116964
-0.179351
-0.058331
0.042920
0.010443
0.049146
0.009546
0.059867
0.066532
0.045200
-0.040109
0.097641
0.068640
0.067091
0.061354
0.119790
0.121079
0.093474
0.098057
0.074592
0.138192
0.125238
0.236799
0.151650
0.162229
0.263098
0.208857
0.350266
0.256266
0.392393
0.390278
0.323082
0.442566
0.417152
0.493586
0.492110
0.412610
0.507444
0.477784
0.548695
0.502914
0.493995
0.474725
0.522464
0.558531
0.503400
0.515007
0.524715
0.539840
0.535915
0.548932
0.577423
0.450425
0.508679
0.423296
0.419972
0.397302
0.358731
0.490683
0.375512
0.333229
0.313852
0.331871
0.252366
0.258539
0.316179
0.346616
0.251831
0.194931
0.210453
0.180268
0.223073
0.118939
0.169553
0.111927
0.140783
0.181079
0.079256
0.108272
0.076476
0.103918
0.003215
0.056072
0.090658
0.048046
0.003215
0.060185
0.130538
0.030670
-0.000493
-0.007456
0.030396
-0.034565
0.044522
0.137492
0.040981
0.056900
0.087165
0.077923
0.000581
0.073804
0.036543
0.093702
0.032178
0.080351
0.095528
0.090332
0.070633
0.038957
0.027900
0.027631
0.080864
0.088137
0.047304
0.087778
0.029609
0.085180
0.087036
0.128055
-0.004045
0.016237
0.092611
0.085506
0.097463
0.106901
0.098984
0.125436
0.065744
0.054345
0.073407
0.057070
0.028330
0.169196
0.104102
0.062115
0.067392
0.084282
0.028921
0.019153
0.053489
0.110462
0.137927
0.127601
0.098325
0.038160
0.118467
0.091286
0.045527
0.098919
0.100575
0.133195
0.205352
0.178158
0.178966
0.201071
0.143775
0.199468
0.189711
0.289170
0.267392
0.285677
0.300543
0.202263
0.251652
0.296417
0.229944
0.242769
0.225815
0.204948
0.254833
0.168855
0.226691
0.168976
0.216022
0.260250
0.140615
0.182450
0.197224
0.165106
0.117317
0.102236
0.155575
0.134408
0.046656
0.145567
0.108632
0.122901
0.102391
0.095721
0.050195
0.088031
0.067668
0.063391
0.138245
0.083171
0.091274
0.092529
0.056662
-0.005499
0.019644
0.157274
0.254561
0.502227
0.837806
1.148533
1.456873
1.479785
1.374756
1.103706
0.791798
0.430095
0.116535
-0.108565
-0.168324
-0.178837
-0.124276
-0.066386
0.032778
0.020930
0.074597
0.077174
0.083363
0.138111
0.117422
0.064360
0.266786
0.109625
0.174426
0.136041
0.163202
0.207560
0.189408
0.163672
0.121960
0.270077
0.191816
0.274316
0.253631
0.238275
0.406621
0.235996
0.331474
0.349496
0.350110
0.419389
0.457319
0.378566
0.469355
0.478414
0.552065
0.509073
0.484312
0.490231
0.579461
0.613604
0.519182
0.527153
0.652371
0.568053
0.581912
0.592552
0.633687
0.502088
0.557539
0.522453
0.577318
0.499933
0.472705
0.485477
0.479839
0.432592
0.441031
0.442944
0.463237
0.415986
0.207829
0.357156
0.327030
0.262430
0.273634
0.313711
0.245106
0.268933
0.208425
0.160756
0.146654
0.154815
0.157048
0.081332
0.119247
0.142779
0.172483
0.068384
0.064775
0.117155
0.036218
0.105963
-0.037909
0.146396
0.140921
0.051143
0.123579
0.067297
0.059217
0.138595
0.035377
0.032949
0.103283
0.104833
0.098239
0.111478
0.057400
0.116351
0.125572
0.025770
0.062761
0.062963
0.126061
0.034037
0.164510
0.117731
0.011749
0.075658
0.024547
0.037059
0.037589
0.059962
0.001807
0.051869
0.059759
0.103716
0.048533
0.130056
0.011064
0.010106
0.008581
0.044754
0.023859
0.055099
0.130156
0.046753
0.015082
0.072225
0.124386
0.033982
0.039447
0.073756
0.080032
0.039431
0.048168
0.043530
-0.011609
0.075973
-0.013096
0.091642
0.012574
0.035952
0.035023
0.031463
0.058893
0.096351
0.038890
0.110024
0.123774
0.083469
0.177731
0.096699
0.116879
0.143541
0.166366
0.176820
0.263523
0.195799
0.211498
0.172836
0.226780
0.173257
0.177596
0.193593
0.205244
0.191421
0.176039
0.163373
0.180054
0.120272
0.198029
0.025209
0.175737
0.136350
0.161924
0.087672
0.092562
0.081993
0.037399
0.009702
0.012690
0.075095
0.121147
-0.022633
0.065168
-0.001189
0.083976
0.075712
-0.056248
0.010058
0.006730
0.049183
-0.028897
-0.028876
-0.013019
-0.031063
-0.052502
-0.079138
-0.078068
0.036584
0.177564
0.313029
0.600450
0.994342
1.258358
1.343044
1.317178
1.109898
0.833979
0.429182
0.039230
-0.172287
-0.282031
-0.271446
-0.300665
-0.110378
-0.066393
-0.007406
0.004647
-0.035253
0.058704
-0.074395
0.001115
-0.027445
-0.029707
0.032892
-0.002175
-0.037045
0.020817
0.017104
0.062668
0.146777
0.040323
0.043038
0.036226
0.106213
0.097753
0.101903
0.279718
0.099926
0.231172
0.217356
0.212575
0.266609
0.363331
0.233447
0.212346
0.377718
0.353421
0.367812
0.376467
0.414224
0.399832
0.534364
0.359213
0.463437
0.491440
0.422913
0.459732
0.436989
0.420962
0.474268
0.524585
0.484231
0.386866
0.474830
0.431445
0.365234
0.353274
0.300879
0.338655
0.395926
0.326887
0.311231
0.255345
0.210489
0.117288
0.105927
0.156656
0.153079
0.160665
0.169248
0.089196
0.111131
0.056286
0.087336
0.168276
0.003071
-0.066386
0.013105
0.047533
-0.015415
-0.060847
-0.040944
0.056993
0.032361
-0.099150
-0.009924
-0.044496
-0.092196
-0.003860
-0.032335
-0.048394
-0.069756
0.037910
-0.124784
-0.101224
-0.026268
-0.055605
-0.084664
-0.048173
-0.011279
-0.086847
-0.052993
-0.050659
-0.081718
-0.060619
-0.009193
-0.080718
-0.071055
-0.056266
-0.033702
-0.100988
-0.054530
-0.028686
-0.130249
-0.024688
-0.085721
-0.050809
-0.072098
-0.076567
-0.082405
-0.086026
0.007713
-0.072610
-0.064384
-0.098287
-0.015238
-0.125395
-0.074413
-0.135740
-0.081394
0.003579
-0.027006
-0.096371
-0.016621
-0.041367
-0.045456
-0.121582
-0.112661
-0.077069
-0.089405
-0.055434
-0.020794
-0.076668
-0.071058
-0.109539
-0.106512
-0.056375
-0.077527
-0.054803
0.051470
-0.062064
-0.070720
-0.049097
0.025267
-0.004816
0.022384
0.056946
-0.036314
0.055896
0.035530
0.011393
0.083583
0.027777
0.101194
0.042339
0.108999
-0.002890
0.130078
0.097066
0.088408
0.006907
0.030892
0.059256
0.035364
0.065414
0.047762
-0.005304
0.027161
-0.106486
0.016935
-0.034742
-0.069675
-0.059838
-0.021477
-0.089267
-0.078305
0.003756
-0.048484
-0.022065
-0.089135
-0.124738
-0.083065
-0.042156
-0.028641
-0.074688
-0.108664
0.018865
-0.028310
-0.102549
-0.081315
-0.112657
-0.149786
0.035696
0.239054
0.447945
0.766394
1.022557
1.255434
1.307714
1.042584
0.805438
0.396072
0.132212
-0.198565
-0.377561
-0.345666
-0.356613
-0.234456
-0.134633
-0.122330
0.022373
-0.132763
-0.049072
-0.042917
-0.060234
-0.029812
-0.078048
-0.057929
-0.043812
0.026617
-0.053761
-0.058581
0.004827
-0.016318
0.080850
0.024433
0.100075
0.040226
0.085394
0.174996
0.109933
0.193747
0.212892
0.123067
0.221292
0.238876
0.201348
0.206073
0.274650
0.307361
0.316039
0.330991
0.416233
0.367870
0.415366
0.422635
0.422715
0.389834
0.470392
0.420769
0.419484
0.403159
0.433146
0.411444
0.444153
0.463455
0.417588
0.417443
0.390166
0.322475
0.350031
0.412702
0.305545
0.320242
0.316668
0.330766
0.243507
0.198242
0.202887
0.201921
0.119012
0.170403
0.195187
0.054381
0.063174
0.037854
0.096967
0.060084
0.028135
0.035540
0.017659
-0.007021
0.010627
0.004796
-0.001141
-0.114749
-0.022972
-0.051032
-0.008719
0.066848
-0.046191
0.099497
0.018530
-0.043085
-0.064588
-0.069490
-0.041577
-0.096426
-0.050085
-0.036859
-0.055372
-0.009411
-0.027266
-0.040179
-0.090205
-0.070621
-0.057355
-0.007013
-0.092942
0.046714
0.009796
-0.073525
0.004858
-0.008659
0.028374
-0.052806
-0.005859
-0.004340
-0.056685
-0.105708
-0.100248
-0.082270
-0.029456
-0.025047
-0.074205
-0.083065
-0.013854
0.009705
-0.086445
0.021762
0.030826
-0.034910
0.054330
-0.026963
0.046898
0.024430
0.046355
-0.019768
0.017693
-0.010693
-0.047478
-0.027550
0.009816
0.001304
0.017889
-0.034435
0.019960
0.040259
-0.015361
0.074806
-0.008289
-0.145361
0.063198
0.074274
0.100227
0.096205
0.059013
0.117704
0.076485
0.143120
0.150639
0.173561
0.094968
0.149039
0.177053
0.194878
0.184793
0.121233
0.177050
0.196270
0.123099
0.149120
0.232885
0.236613
0.163724
0.193637
0.081317
0.061317
0.205717
0.063667
0.070519
0.030450
0.085981
0.096989
0.093575
0.103258
0.042699
0.081958
0.117230
0.000708
-0.030605
0.037721
0.083140
-0.029006
-0.016886
0.047688
0.029705
0.048429
0.072483
0.062024
0.037156
0.028947
0.049502
-0.023199
0.018107
0.012481
0.028429
0.248265
0.539727
0.764883
1.183681
1.429009
1.422303
1.200758
1.051438
0.651298
0.284643
-0.020572
-0.167861
-0.203858
-0.143166
-0.068793
-0.073856
-0.093551
0.037742
0.011680
0.101031
0.070767
0.094250
0.068461
0.065989
0.028890
0.108039
0.096650
0.083551
0.130505
0.107471
0.145391
0.123572
0.205081
0.193026
0.222223
0.137652
0.237363
0.300790
0.156717
0.229499
0.256701
0.323003
0.272419
0.431515
0.412098
0.416702
0.389069
0.507943
0.439320
0.444394
0.458539
0.499369
0.451150
0.632714
0.619217
0.599226
0.550280
0.533668
0.627449
0.501729
0.563209
0.501991
0.526548
0.550460
0.521894
0.480317
0.482535
0.448185
0.508398
0.474724
0.420458
0.373177
0.388428
0.373703
0.324822
0.336101
0.378366
0.334664
0.305534
0.249051
0.233747
0.217438
0.190255
0.178893
0.162332
0.148997
0.139768
0.101826
0.134211
0.133727
0.084289
0.097314
0.121056
0.100024
0.036136
0.066534
0.102690
0.104054
-0.033173
0.127867
0.033667
0.137907
0.098583
0.080440
0.070491
0.044435
0.066843
0.016479
0.109045
0.041881
-0.020616
0.106821
0.115841
0.036257
-0.067226
0.073099
0.072717
0.085302
-0.059365
0.034414
0.019086
0.050859
0.071240
0.062795
0.070464
0.019324
0.070709
0.122506
0.080171
0.065666
0.078627
0.018694
0.084514
0.094164
-0.014780
0.125811
0.070291
0.081548
-0.008860
0.056413
0.031784
-0.015087
0.017849
-0.017746
0.031649
0.034688
0.065324
0.032832
0.078447
0.102831
0.072322
0.085937
0.069354
-0.052539
0.112934
0.008652
0.105762
0.060326
0.073596
0.126980
0.146362
0.083942
0.064782
0.138667
0.079134
0.092762
0.114598
0.256280
0.208773
0.075850
0.149480
0.147239
0.169845
0.241587
0.203571
0.250416
0.194362
0.312191
0.241217
0.248789
0.213906
0.195105
0.193829
0.159477
0.145824
0.135891
0.134152
0.160725
0.091964
0.077875
0.081800
0.137380
0.126140
0.109250
0.112136
0.063527
0.017465
0.017068
0.075413
0.059378
-0.027293
0.110109
0.093355
0.038576
-0.018113
0.063222
0.037869
0.046498
0.006347
0.008818
0.003746
0.009889
-0.058147
0.038801
0.182868
0.363154
0.702896
1.096036
1.317686
1.424792
1.320237
1.137463
0.748497
0.415019
0.138909
-0.144618
-0.261709
-0.206776
-0.240846
-0.045204
-0.062393
-0.001233
-0.077503
0.103071
0.075877
0.029544
0.007210
0.057712
0.044549
0.101258
-0.003644
0.051367
0.068695
0.102537
0.086089
0.111393
0.137514
0.111412
0.146930
0.185190
0.105128
0.192318
0.250963
0.181353
0.191581
0.286298
0.320445
0.383433
0.317273
0.362149
0.268420
0.363470
0.363391
0.510653
0.355606
0.456720
0.483046
0.526362
0.476564
0.432865
0.457508
0.465938
0.490792
0.502407
0.550881
0.502178
0.486013
0.454627
0.479719
0.539028
0.454658
0.430874
0.374991
0.423785
0.388550
0.435868
0.336027
0.291291
0.248600
0.247162
0.262612
0.147645
0.178145
0.231452
0.126545
0.128926
0.073685
0.143430
0.083208
0.011054
0.118704
0.088669
0.096721
0.066283
0.115785
0.079664
-0.099858
0.042275
0.006497
-0.075593
0.076056
-0.010468
-0.002064
0.049305
-0.047224
-0.035181
-0.052548
-0.007695
-0.071520
-0.009398
-0.024790
-0.062295
-0.069087
-0.062765
0.014094
-0.032924
-0.020537
-0.057805
-0.048143
-0.037943
-0.107810
-0.127360
-0.019024
0.020292
0.014321
-0.070319
-0.022073
-0.014095
-0.129271
-0.046838
-0.001645
-0.105986
0.010658
-0.092605
-0.084517
-0.095928
-0.014629
-0.014775
-0.008174
-0.006381
-0.053409
-0.009715
-0.045556
-0.072467
-0.047046
-0.070777
-0.041689
-0.073081
-0.090570
-0.057282
-0.016527
-0.047832
-0.109385
-0.030167
-0.043252
-0.097524
-0.072229
-0.073497
-0.008575
-0.097082
-0.063515
-0.021987
0.011334
-0.051080
0.008777
-0.059548
0.061637
0.066628
0.000277
0.071214
0.057383
0.050898
0.090988
0.099169
0.064596
0.080367
0.106346
0.122295
0.087142
0.140475
0.161237
0.159595
0.133676
0.159021
0.079456
0.121770
0.034440
0.027946
0.001827
0.092118
-0.042093
-0.059683
0.070273
0.013240
0.037880
-0.055078
-0.056073
0.029779
-0.031012
-0.016571
-0.110408
-0.074453
-0.032520
-0.091643
-0.066577
-0.155091
-0.076938
-0.138717
-0.043368
-0.066072
0.004630
-0.105408
-0.104363
-0.170846
-0.105089
-0.164708
-0.056835
-0.106499
0.027223
0.305148
0.426666
0.831039
1.184454
1.305445
1.246177
1.013541
0.800970
0.449756
0.063732
-0.263992
-0.292845
-0.337659
-0.387662
-0.257132
-0.144292
-0.096426
-0.056996
-0.028839
-0.095476
-0.087438
-0.030969
-0.027558
-0.052336
-0.052012
-0.101025
-0.049231
-0.010572
-0.058836
-0.066106
0.026664
-0.022981
0.022885
0.083733
0.009495
-0.015796
-0.003200
0.070801
0.128971
0.162069
0.164044
0.205768
0.138422
0.232357
0.173891
0.209041
0.331248
0.382807
0.324405
0.426804
0.410658
0.390224
0.390423
0.417160
0.419050
0.435546
0.382371
0.512145
0.443829
0.463913
0.400514
0.388954
0.437826
0.410563
0.305421
0.353342
0.352562
0.274326
0.326972
0.296507
0.239905
0.336790
0.284384
0.247057
0.251293
0.149060
0.170904
0.166521
0.024451
0.014658
0.117128
0.016139
0.038826
0.084559
0.059474
0.019680
0.009339
-0.036305
-0.111587
-0.011480
0.000696
-0.016810
-0.033978
-0.080557
-0.083891
-0.082475
-0.074579
-0.105420
-0.122262
-0.087611
-0.071529
-0.086298
-0.109814
-0.040078
-0.122147
-0.137058
0.004553
-0.075975
-0.061984
-0.102983
-0.157638
-0.035262
-0.011989
-0.191736
-0.094565
-0.081151
-0.129883
-0.104843
-0.104840
-0.074583
-0.068137
-0.117886
-0.127405
-0.104406
-0.132890
-0.058313
-0.007777
-0.039708
-0.117278
-0.083212
-0.111507
-0.214632
-0.053863
-0.127713
-0.124404
-0.053760
-0.153961
-0.031342
-0.123605
0.034967
-0.062017
-0.120723
-0.068787
-0.122784
-0.110535
-0.108318
-0.134077
-0.095433
-0.039186
-0.057928
-0.036304
-0.077328
-0.027550
-0.080737
-0.093206
-0.059837
-0.120051
-0.021351
-0.019641
-0.057591
-0.056425
0.002495
-0.029988
-0.017090
0.018500
0.089157
0.047157
-0.007266
0.098152
-0.002053
0.108776
0.093557
0.148050
0.107803
0.107542
0.078295
0.116374
0.107382
0.106589
0.134825
0.076983
0.117303
0.033349
0.039174
0.153337
0.074108
0.004000
0.017537
-0.036007
0.068288
-0.000546
-0.013504
0.003963
0.074391
-0.041210
-0.080524
-0.010488
-0.125651
-0.104341
-0.071582
-0.036837
-0.051203
-0.048625
-0.108884
-0.008691
-0.068861
-0.008498
-0.034837
0.006337
-0.105210
-0.033237
-0.122585
-0.067064
0.028266
0.156012
0.506678
0.783677
1.086352
1.290510
1.398941
1.252330
1.025510
0.530452
0.270035
-0.103134
-0.186411
-0.310758
-0.357822
-0.236588
-0.202308
-0.047767
-0.057301
0.055812
0.027272
-0.016432
-0.065488
-0.081450
-0.029946
-0.018894
-0.005193
0.033645
0.097591
-0.029210
0.081138
0.029041
-0.007204
0.142424
0.147016
0.106851
0.155945
0.139666
0.195481
0.156083
0.300853
0.230621
0.222862
0.283621
0.233080
0.285639
0.299426
0.363507
0.309036
0.456498
0.335373
0.502577
0.368118
0.477303
0.482964
0.422757
0.585465
0.545100
0.498080
0.470061
0.504923
0.521896
0.517725
0.529124
0.411748
0.448219
0.394160
0.410236
0.406402
0.470449
0.362481
0.383261
0.433508
0.367890
0.334769
0.270813
0.335462
0.216447
0.296066
0.161484
0.214920
0.207646
0.138772
0.208256
0.145486
0.158493
0.175797
0.058777
0.122429
0.094933
0.006710
0.095168
0.113434
0.051448
0.050111
0.034901
0.074318
0.026625
-0.090741
0.072761
0.049604
0.024318
0.048642
-0.002833
0.025723
0.028179
0.047137
-0.023811
0.100535
-0.006086
0.102080
0.054484
0.066215
0.029726
0.077279
0.085613
-0.042971
0.009908
0.059296
-0.002215
0.084139
0.035241
0.037460
0.008031
0.026836
0.054955
0.019138
-0.008159
0.051688
-0.005759
0.048682
0.003555
0.079264
0.072692
0.008544
0.063081
0.102582
-0.065406
-0.005462
0.016166
-0.017872
0.059718
0.010958
0.151672
0.018246
0.026146
0.043403
0.075556
-0.029497
0.105199
-0.022787
0.005988
0.070127
0.080333
0.063646
0.045186
0.027987
0.075266
0.046656
0.121194
0.080679
0.106016
0.146067
0.163202
0.109339
0.191699
0.205075
0.117602
0.283112
0.211147
0.222452
0.188180
0.249375
0.169747
0.257893
0.172170
0.263435
0.210357
0.276911
0.264420
0.215184
0.117075
0.224862
0.218529
0.236090
0.133553
0.102916
0.113479
0.148355
0.112416
0.254135
0.111099
0.105246
0.036517
0.153852
0.031660
0.105106
0.061438
0.044210
0.088438
0.122265
0.078814
0.115935
0.113370
0.116566
0.085908
0.119596
0.013227
0.029624
0.064104
-0.008806
0.102998
0.064720
0.082452
0.067588
0.210762
0.516530
0.787143
1.148452
1.388037
1.473646
1.391912
1.206210
0.773841
0.407873
0.134590
-0.168345
-0.242548
-0.251135
-0.148740
0.041490
0.031831
0.043767
0.074286
0.096167
0.016433
0.064355
0.052439
0.072436
0.033098
0.068540
0.138113
0.081077
0.181746
0.161405
0.212202
0.243739
0.151462
0.162341
0.223522
0.322494
0.234771
0.261838
0.217297
0.360567
0.254044
0.298029
0.348179
0.331603
0.406440
0.421744
0.368763
0.403991
0.465363
0.478727
0.548139
0.528531
0.538330
0.633198
0.604941
0.541507
0.596450
0.571813
0.535259
0.551381
0.651195
0.539171
