0.000407
0.009005
0.030830
-0.027903
-0.047500
0.063963
0.004550
0.058428
-0.020458
-0.000248
0.019008
0.043016
0.049052
0.040012
0.008169
0.065431
0.055051
-0.016482
0.057384
0.030359
0.028803
0.021470
0.057268
0.023941
0.084184
0.013934
0.048360
0.171812
0.163965
0.089573
0.173345
0.136710
0.080325
0.188977
0.164621
0.094790
0.161677
0.163473
0.193870
0.241524
0.147069
0.194175
0.212129
0.224854
0.209475
0.162381
0.158271
0.135181
0.113536
0.133671
0.133308
0.150400
0.155602
0.158859
0.051500
0.155226
0.061169
0.119402
0.048365
0.129349
0.046649
0.043598
-0.005612
0.042381
0.043962
0.043814
0.065722
0.075992
0.041054
0.061095
0.044532
0.060329
0.060961
0.014160
-0.028569
0.072364
0.180496
0.417126
0.690732
1.030419
1.337397
1.411927
1.322362
1.219230
0.796037
0.464996
0.095675
-0.117443
-0.202234
-0.187968
-0.126315
-0.058766
-0.007613
0.068950
0.055221
0.078922
0.073005
0.099568
0.130268
0.166652
0.114966
0.192624
0.091905
0.174353
0.179832
0.184096
0.143752
0.168615
0.145023
0.188729
0.248971
0.309647
0.280362
0.283513
0.370504
0.379419
0.403062
0.320349
0.313031
0.452905
0.432491
0.497724
0.535697
0.603281
0.454016
0.566843
0.567995
0.474356
0.495595
0.566966
0.542777
0.507512
0.595712
0.552849
0.592305
0.553006
0.557795
0.598138
0.540030
0.490478
0.473243
0.447071
0.464089
0.488172
0.478967
0.510983
0.392285
0.380792
0.274767
0.318059
0.363574
0.375596
0.307047
0.299242
0.248926
0.175499
0.242994
0.179771
0.219968
0.182000
0.128454
0.147106
0.198650
0.186869
0.094015
0.157677
0.148299
0.140230
0.142130
0.080351
0.064235
-0.011444
0.132495
0.115224
0.043641
0.072826
0.110377
0.069174
0.096732
0.044609
0.097625
0.122743
0.101551
0.065137
0.095707
0.138274
0.075247
0.127265
0.089381
0.015872
0.103907
0.085571
0.006750
0.019139
0.083594
0.102154
0.102713
0.109104
0.084098
0.099762
0.101034
0.008759
-0.024248
0.002892
0.166101
0.060298
0.032297
0.060713
0.057146
0.052329
0.092605
0.044245
0.084121
0.119033
0.086266
0.074558
0.015996
0.028601
0.061616
0.105536
0.098358
0.101653
0.166251
0.151855
0.132536
0.043440
0.076398
0.127756
0.138527
0.134283
0.084094
0.172782
0.215977
0.128663
0.147316
0.200392
0.178490
0.192957
0.228804
0.295837
0.261027
0.263068
0.309837
0.285316
0.214868
0.280141
0.301715
0.219879
0.258291
0.243378
0.250485
0.238030
0.228924
0.173969
0.137169
0.074142
0.135596
0.046080
0.090535
0.132195
0.130737
0.088737
0.065656
0.058080
0.121674
0.073527
0.085889
0.085060
0.013452
0.140590
0.108744
0.187853
0.155197
0.146346
0.087353
0.054693
0.049063
0.010754
0.145470
0.283732
0.498284
0.809301
1.157471
1.378009
1.401024
1.320288
1.020292
0.654256
0.334484
0.013217
-0.102329
-0.114798
-0.193403
-0.038727
0.000072
0.079316
0.102951
0.050048
0.052966
0.038654
0.145945
0.095270
0.153354
0.109118
0.126648
0.039977
0.196117
0.080670
0.167264
0.137713
0.239802
0.177951
0.287226
0.199967
0.246058
0.269471
0.292058
0.294690
0.284633
0.359665
0.406485
0.389360
0.416349
0.461676
0.500554
0.513330
0.536453
0.455219
0.565191
0.491863
0.598168
0.594515
0.559740
0.584009
0.462103
0.485729
0.567227
0.503228
0.603892
0.539229
0.492489
0.467411
0.530510
0.472361
0.423469
0.490415
0.397015
0.421783
0.378086
0.374638
0.356116
0.293155
0.235437
0.323154
0.293393
0.279457
0.198735
0.192824
0.126868
0.203043
0.170749
0.106547
0.063240
0.018976
0.086981
0.165790
0.109341
0.084853
0.084658
0.054048
0.055157
0.020527
-0.040089
-0.010815
-0.025087
0.082782
0.022618
0.081926
-0.032817
0.030184
0.053393
0.014634
0.090104
-0.019125
0.026112
0.035241
0.039164
0.013206
0.169117
-0.008096
-0.063449
-0.017024
0.036289
0.042744
-0.008438
0.023909
0.053935
0.015230
0.006612
-0.000501
-0.004924
0.115930
-0.018181
0.013871
-0.023033
0.029214
0.017033
0.000484
-0.008170
-0.053032
-0.007227
-0.022552
0.038127
0.013873
-0.079980
-0.061559
-0.008609
-0.052332
-0.026071
0.003974
-0.032297
0.048471
0.009986
0.021472
0.008056
0.043999
0.008858
0.114696
0.024522
0.062166
0.068703
0.106787
0.044675
0.080783
0.126113
0.061875
0.145941
0.113580
0.184999
0.085223
0.084843
0.154065
0.209721
0.160756
0.197403
0.194590
0.133740
0.237292
0.133597
0.158756
0.118110
0.106705
0.099456
0.112548
0.042843
0.065409
0.064515
0.051945
0.065755
0.064469
0.046991
0.037795
0.062116
-0.006558
0.057475
0.093472
0.049845
-0.019122
0.001764
0.086605
0.016178
-0.080861
-0.067089
0.016667
0.031798
-0.032608
-0.054748
-0.049969
-0.054994
-0.064301
0.028437
0.030888
0.272611
0.576229
0.846234
1.160852
1.286937
1.350113
1.179870
0.891312
0.443498
0.234629
-0.159862
-0.246959
-0.210564
-0.202657
-0.204478
-0.046045
0.028349
0.023471
0.020535
0.016236
0.012746
0.083204
0.022581
0.085252
0.021707
-0.006576
-0.025013
0.074481
0.092877
0.144429
0.088091
0.156840
0.169503
0.090252
0.150427
0.160883
0.142447
0.237445
0.217304
0.351484
0.238623
0.318746
0.317209
0.329671
0.373613
0.412634
0.402322
0.349668
0.356790
0.291546
0.467650
0.525343
0.401352
0.443927
0.437058
0.465676
0.481286
0.421502
0.431678
0.390430
0.410998
0.412253
0.383319
0.460942
0.329277
0.448343
0.389105
0.245645
0.282186
0.359429
0.267498
0.233920
0.227758
0.271504
0.216732
0.151387
0.106506
0.084938
0.131630
0.176677
0.100596
-0.000508
0.065307
0.119978
-0.011591
0.033875
0.060810
0.029730
-0.041260
-0.030915
-0.042011
0.007449
-0.039510
-0.028506
0.032540
-0.052281
-0.036471
-0.075920
0.042883
-0.053992
0.007870
0.069468
-0.009898
-0.057190
-0.074068
-0.057910
-0.137064
-0.062667
-0.095257
-0.005054
-0.088902
-0.014814
-0.034677
-0.058126
-0.052619
0.041546
-0.037945
-0.059229
-0.045203
-0.086009
-0.080387
-0.107009
-0.025590
-0.096126
-0.033446
-0.032122
-0.010347
-0.027111
-0.095639
-0.019356
-0.042893
-0.059520
-0.058605
-0.084299
-0.045938
-0.053971
-0.048304
-0.072136
0.006549
-0.094620
-0.055078
-0.074409
-0.082282
-0.011003
-0.001159
-0.007345
0.022645
-0.055720
-0.026070
0.012666
-0.012671
-0.044897
0.046195
0.012589
0.088346
0.023350
0.201985
0.061517
0.013616
0.060062
0.146247
0.128730
0.164600
0.167763
0.125006
0.189954
0.188278
0.178254
0.198051
0.103681
0.127435
0.130372
0.195806
0.109109
0.127953
0.083415
0.042989
0.011801
0.108635
-0.035997
0.073658
0.082126
0.016123
-0.012555
-0.029463
-0.000687
0.051099
0.036568
-0.074058
-0.005799
-0.029999
-0.088832
0.066264
0.020749
-0.003840
-0.065253
-0.013208
-0.002523
-0.056312
0.028378
-0.005611
0.010226
0.007908
0.395838
0.622514
0.912275
1.220692
1.408650
1.318318
1.182143
0.825732
0.464289
0.141753
-0.208852
-0.259517
-0.131386
-0.127097
-0.089694
-0.015188
-0.057657
-0.077580
0.022793
0.083274
-0.035492
-0.017297
0.150488
0.084016
0.096146
0.152196
0.101840
0.032170
0.106198
0.125764
0.081327
0.123550
-0.002767
0.205853
0.220850
0.204074
0.176792
0.289781
0.260034
0.206332
0.401229
0.368115
0.360276
0.433976
0.434243
0.432373
0.410676
0.388708
0.400117
0.454630
0.525554
0.502158
0.588748
0.466668
0.512909
0.541192
0.521144
0.495077
0.547371
0.508051
0.375285
0.455364
0.451649
0.467008
0.475149
0.383627
0.385106
0.351680
0.319688
0.340710
0.322383
0.350902
0.331356
0.322126
0.298764
0.196297
0.209940
0.148898
0.122762
0.125674
0.111693
0.115599
0.158849
0.068895
0.136567
0.198488
0.067092
0.022455
0.082897
0.098397
0.083546
0.107769
0.024436
0.055295
-0.013075
0.071427
0.096742
0.110296
0.035165
0.007080
0.037417
0.069700
0.048709
0.058039
0.093482
-0.002257
0.089461
0.129316
0.031566
0.015487
0.073400
0.026699
0.143302
-0.004847
0.043680
0.025207
0.028268
0.103998
0.069171
0.022783
0.090379
0.032286
0.078442
0.086412
0.094035
0.031534
0.060075
0.019360
0.014324
0.140201
0.048030
0.068015
0.061644
0.057642
0.059007
0.085752
0.063956
0.005707
0.068676
0.106200
0.096354
0.088153
0.029635
0.078913
0.094169
0.119743
0.057746
0.079793
0.139243
0.100190
0.047331
0.085544
0.109514
0.190795
0.156218
0.187272
0.151480
0.246602
0.161162
0.179998
0.217462
0.224039
0.217421
0.249810
0.146409
0.321867
0.223331
0.193787
0.237345
0.224357
0.252555
0.176429
0.183874
0.200043
0.261349
0.168159
0.166865
0.183320
0.262867
0.176048
0.157060
0.139080
0.106971
0.100432
0.148280
0.054495
0.022878
0.093945
0.152937
0.096501
0.126150
0.167896
0.176177
0.084315
0.069088
0.085996
0.023129
0.118120
0.152609
-0.085716
0.022494
0.107978
0.245528
0.438500
0.820636
1.215394
1.424787
1.455344
1.350054
1.074546
0.797239
0.435730
0.032277
-0.058569
-0.160920
-0.159591
-0.016722
0.054231
0.034276
0.037972
0.086983
0.096784
0.219358
0.085970
0.175199
0.221978
0.121071
0.209041
0.096248
0.221668
0.134662
0.195756
0.175108
0.208031
0.222055
0.162249
0.206979
0.311403
0.291944
0.296216
0.297086
0.455426
0.390731
0.427428
0.397255
0.561275
0.454747
0.422515
0.443582
0.515890
0.557840
0.527621
0.515845
0.547326
0.651925
0.568026
0.584895
0.527171
0.629239
0.596746
0.635170
0.558966
0.612413
0.561041
0.588976
0.515733
0.561045
0.460549
0.488768
0.485912
0.436687
0.394875
0.402747
0.391710
0.444009
0.380988
0.299144
0.271345
0.292642
0.338814
0.327695
0.173798
0.229739
0.188513
0.241644
0.169981
0.196869
0.109199
0.163912
0.123769
0.215456
0.103316
0.166703
0.015459
0.154205
0.100202
0.130411
0.164159
0.146614
0.126417
0.064951
0.074852
0.071709
-0.002910
0.060526
0.123395
0.056764
0.085616
0.096432
0.098712
0.034926
0.154142
0.012883
0.138993
0.035564
0.147869
0.122432
0.058788
0.045999
0.082877
0.048936
-0.012711
0.054515
0.169567
0.110343
0.080986
0.063270
0.094694
0.152924
0.126039
0.063577
0.107834
0.051202
0.026199
0.045549
0.071740
0.075731
0.081845
0.061502
0.084664
0.021289
0.097930
0.055250
0.065214
0.075661
0.030100
0.097317
0.151275
0.071846
0.115915
0.085904
0.035475
0.076101
0.127674
0.195171
0.162193
0.184575
0.217572
0.107546
0.174898
0.161874
0.141251
0.220467
0.226524
0.149936
0.136952
0.252300
0.218513
0.214419
0.218027
0.290148
0.157567
0.213207
0.171951
0.221228
0.206374
0.186748
0.217095
0.099612
0.179202
0.155435
0.090782
0.160352
0.158844
0.089282
0.055665
0.076238
0.081542
0.081809
-0.001087
0.013786
0.108120
0.095011
0.031169
0.012414
0.082433
0.086365
0.030675
0.073830
0.061492
0.021855
-0.036144
0.043434
0.034735
0.171419
0.347915
0.543490
0.838268
1.156497
1.391142
1.500000
1.294641
1.060429
0.622421
0.233071
-0.013729
-0.181658
-0.294045
-0.160455
-0.126096
-0.003216
-0.008437
-0.001393
-0.055238
0.078930
0.114661
0.070623
0.092136
0.173662
0.072053
0.059028
0.122590
0.125005
0.073879
0.189124
0.122250
0.138236
0.173917
0.143351
0.208365
0.188063
0.295032
0.250323
0.293244
0.368892
0.320959
0.312321
0.391287
0.347842
0.408327
0.509157
0.415881
0.455915
0.425448
0.435300
0.537152
0.415096
0.485105
0.412161
0.527210
0.458511
0.598709
0.523542
0.499701
0.503818
0.492346
0.502931
0.416599
0.464299
0.425713
0.374853
0.364390
0.315985
0.386149
0.354921
0.370385
0.281052
0.206893
0.361342
0.124677
0.200473
0.199854
0.116219
0.172410
0.220510
0.081107
0.051598
0.114733
0.060246
0.073900
0.017130
-0.013434
0.025507
0.067119
0.021097
0.089077
0.050849
0.000529
-0.049600
0.007855
0.033824
0.031964
0.011774
-0.030629
0.018454
-0.082338
-0.078441
-0.034218
0.010625
0.008748
-0.017363
-0.055446
-0.085446
-0.067746
-0.046032
-0.062558
-0.069662
0.055894
-0.059871
-0.037831
0.088149
-0.106362
-0.058126
-0.063329
-0.018330
-0.000095
-0.078478
-0.067940
-0.009012
-0.075171
-0.122068
-0.070239
-0.024262
-0.052285
0.006202
-0.033970
-0.070652
-0.059733
-0.027431
-0.134736
-0.081534
-0.026711
0.007495
-0.039210
-0.057225
-0.049593
-0.048375
-0.098181
0.023148
-0.023069
-0.056162
-0.037218
0.051525
0.003568
-0.058037
-0.031148
0.012706
0.007549
0.061322
0.006874
0.057165
0.033256
0.111877
0.053111
0.131348
0.104081
0.063750
0.089590
0.158639
0.146560
0.108291
0.183626
0.064929
0.081456
0.209956
0.087960
0.120615
0.073704
0.090301
0.038242
0.072024
0.034435
0.089531
0.075720
0.048074
-0.050251
-0.075753
-0.016461
-0.001205
-0.033566
-0.061000
-0.043467
-0.065567
-0.021025
-0.066387
0.000839
-0.021624
-0.067806
-0.053085
-0.092094
-0.041860
0.027510
0.009026
-0.095972
-0.014361
-0.064598
0.006057
0.000415
0.280170
0.475119
0.901369
1.162501
1.291766
1.272664
1.059417
0.784781
0.378306
0.007499
-0.217657
-0.266212
-0.335936
-0.242371
-0.197932
-0.069229
-0.103796
-0.063090
-0.038868
-0.046818
-0.039127
-0.057282
-0.009400
-0.041902
0.021203
-0.058301
-0.011143
-0.107151
-0.065414
0.046058
0.031797
0.078561
0.034730
0.005239
0.091882
0.166966
0.058876
0.190042
0.147534
0.192576
0.231730
0.295500
0.188462
0.221095
0.352529
0.358766
0.342244
0.287139
0.398727
0.427333
0.341175
0.372798
0.338863
0.424797
0.424183
0.380259
0.406901
0.375599
0.429474
0.408746
0.363980
0.384407
0.470265
0.356599
0.362255
0.322520
0.312008
0.384071
0.301267
0.234652
0.234189
0.183561
0.267074
0.214038
0.099791
0.100572
0.053621
0.056466
0.089202
0.069333
-0.012859
0.098683
0.010547
0.046637
0.003443
-0.010471
-0.054016
0.026454
0.007835
0.053242
-0.060692
-0.031788
-0.117527
-0.053313
-0.053816
0.027822
-0.038122
0.000738
-0.004879
-0.087013
-0.093816
-0.064367
-0.008240
-0.175494
-0.082469
-0.080359
0.044304
-0.031010
0.003486
-0.116523
-0.084862
-0.078709
-0.111513
-0.099700
-0.131588
-0.056659
-0.111128
-0.124221
-0.040340
-0.101872
-0.028314
-0.088376
-0.182881
-0.060048
-0.092623
0.007282
-0.138843
-0.014931
-0.065522
-0.071079
-0.021601
-0.047618
-0.045532
0.019016
-0.025665
-0.116197
-0.043208
-0.011283
-0.084379
-0.047627
-0.025538
-0.062030
-0.016546
-0.087808
-0.018918
-0.088634
-0.012068
-0.020387
-0.120324
0.016390
0.020523
-0.013814
0.018131
0.000008
0.086929
-0.063736
0.134307
0.050987
0.151034
-0.013493
0.106650
0.136177
0.124746
0.087703
0.101919
0.157189
0.166382
0.092620
0.119260
0.111912
0.097307
0.113404
0.164583
0.120062
0.176846
0.121694
0.046096
-0.019717
0.090671
0.101363
0.068339
0.013640
0.073142
0.010815
0.067859
-0.053144
-0.047283
-0.056605
-0.031496
0.018882
0.014335
0.000185
-0.020359
-0.050568
0.002148
-0.026395
-0.068850
-0.049722
-0.077748
-0.051845
-0.070833
-0.000575
0.128418
0.358793
0.607555
0.889400
1.222001
1.424824
1.234133
1.070513
0.705091
0.244458
-0.015248
-0.222093
-0.234608
-0.289831
-0.148525
-0.126768
0.007789
-0.063704
0.040177
0.066723
-0.083622
0.106843
-0.003130
0.018117
-0.000319
0.124877
-0.047104
0.076856
0.061947
0.106148
0.001485
0.190339
0.131927
0.137480
0.133373
0.220980
0.236609
0.316534
0.220475
0.223362
0.301079
0.309830
0.345078
0.294449
0.381993
0.347243
0.439854
0.377837
0.405011
0.465894
0.489481
0.536229
0.481422
0.454551
0.533608
0.465841
0.503597
0.479841
0.452949
0.527321
0.443222
0.520887
0.403915
0.435511
0.453198
0.487698
0.333122
0.412879
0.346256
0.383441
0.294955
0.238006
0.310047
0.319098
0.282448
0.299951
0.244254
0.195137
0.216411
0.129823
0.075667
0.190363
0.151101
0.077773
0.000940
0.109927
0.028666
0.067121
0.090211
0.107049
0.037763
0.043517
-0.028162
0.055234
0.052980
-0.031306
0.018057
-0.023417
-0.049831
0.063756
0.032788
0.064579
0.046993
0.044949
-0.027002
0.067876
0.085704
0.043115
0.038768
0.027208
0.044421
0.036787
0.021086
0.019070
0.095037
-0.079771
0.052369
-0.000889
0.005487
-0.010135
0.038228
0.060983
-0.004662
-0.014275
0.028263
-0.028835
-0.003582
-0.039511
-0.010465
0.052171
-0.024690
-0.033012
0.066234
-0.058106
0.047682
0.003110
0.035591
0.013053
-0.007473
0.013250
0.022285
0.043624
0.024021
0.127113
0.095896
0.098502
0.055363
0.073919
0.155216
0.088075
0.083134
0.106194
0.116199
0.220921
0.099481
0.122032
0.217625
0.158384
0.098721
0.140874
0.193342
0.223668
0.198047
0.254047
0.170071
0.302237
0.258252
0.246464
0.215804
0.169974
0.248935
0.289729
0.146694
0.144610
0.149266
0.179641
0.176061
0.231032
0.096766
0.058908
0.135755
0.084038
0.073320
0.147689
0.098755
0.132762
0.017846
0.040699
0.069697
0.073972
0.075648
0.096577
0.083367
0.089383
0.058418
0.070425
-0.009745
0.038042
0.062283
-0.021572
0.026773
-0.000884
0.115110
0.250034
0.496220
0.842710
1.111665
1.366546
1.316030
1.286018
0.969813
0.593598
0.288783
0.017916
-0.202124
-0.154382
-0.212320
-0.160619
0.012404
-0.078718
0.071891
0.055965
0.029701
0.014232
0.070630
0.152745
0.063072
0.109819
0.097224
0.184560
0.157259
0.139222
0.152404
0.204371
0.179808
0.111114
0.229864
0.185340
0.254261
0.223274
0.218442
0.319175
0.223147
0.351860
0.349242
0.459828
0.327087
0.436977
0.397738
0.493729
0.498474
0.546935
0.467656
0.533724
0.538701
0.490639
0.533275
0.566900
0.540959
0.573505
0.561171
0.562665
0.489859
0.534738
0.542383
0.535037
0.555086
0.465596
0.526476
0.492240
0.442385
0.330646
0.329247
0.324583
0.323596
0.308730
0.252689
0.259633
0.289705
0.275088
0.183973
0.238599
0.196136
0.080639
0.118160
-0.003641
0.157009
0.084576
0.086453
0.056567
0.021359
-0.006449
0.080666
0.061386
-0.026709
0.048698
0.069187
-0.028943
0.046471
0.046092
0.045178
0.105285
0.035265
-0.037819
0.025385
0.062050
-0.015217
0.049541
0.025681
0.003288
0.011071
0.068546
0.014690
0.023128
0.005215
0.098860
0.149101
-0.018708
0.078333
0.034989
-0.040302
0.013686
0.070124
0.030166
0.061006
0.117676
-0.052313
0.031482
0.051191
0.041519
-0.014692
-0.058924
-0.038630
-0.015057
0.005240
0.028587
0.108482
-0.014697
0.051616
0.037815
0.030689
0.003550
-0.040127
0.056414
0.084723
0.025462
-0.000124
0.009426
0.043643
0.024840
0.077221
0.024638
-0.028272
0.065528
0.064453
0.072625
0.067503
0.072051
0.079665
0.124597
0.036148
0.128775
0.078883
0.038283
0.091541
0.078341
0.171092
0.055156
0.203240
0.100903
0.170219
0.206177
0.107650
0.198267
0.179504
0.201120
0.106093
0.110988
0.185104
0.067249
0.134203
0.040021
0.004146
0.089285
0.001048
0.051672
0.036761
0.040818
-0.030953
0.042776
-0.041744
0.039272
-0.031231
-0.010554
-0.021633
-0.071627
-0.004220
-0.003647
-0.039351
-0.072377
-0.002735
0.013385
-0.103863
-0.040615
0.013985
0.143057
0.227013
0.471682
0.796182
1.130863
1.331366
1.285559
1.123542
0.890586
0.509125
0.083353
-0.151872
-0.204571
-0.306365
-0.197870
-0.126893
-0.081300
-0.092372
-0.061036
0.034757
0.000712
0.010894
-0.027731
-0.000200
0.017449
0.039631
-0.008803
-0.014193
0.053777
0.055264
-0.030950
0.112099
0.143397
0.092630
0.123413
0.126329
0.216998
0.193048
0.182350
0.262480
0.231611
0.212599
0.247357
0.156523
0.318014
0.336710
0.398945
0.383081
0.435399
0.373606
0.398765
0.349296
0.370083
0.458627
0.386452
0.476808
0.448609
0.458012
0.453241
0.474663
0.304711
0.441670
0.407790
0.420432
0.384860
0.378156
0.317044
0.346526
0.242653
0.275844
0.308769
0.230178
0.236250
0.172809
0.184413
0.117598
0.151323
0.147698
0.049895
-0.023883
0.012870
0.059874
0.027010
0.095432
-0.048886
-0.042446
0.037747
-0.068519
0.023798
-0.018780
-0.042532
-0.008011
-0.053810
-0.102494
-0.066638
-0.047924
-0.098659
-0.037445
-0.042087
-0.032625
-0.064026
-0.090247
-0.053629
-0.069771
-0.088673
-0.082943
-0.082151
-0.076902
-0.129264
0.000422
-0.065495
-0.100318
-0.147368
-0.031641
-0.079451
-0.106419
-0.213983
-0.150588
-0.115684
-0.089651
-0.074681
-0.051727
-0.037738
-0.021070
-0.048180
-0.048777
-0.141215
-0.108555
-0.062535
-0.157617
-0.163125
-0.164299
-0.052153
-0.124955
-0.141767
-0.140596
-0.086953
-0.065932
-0.116414
-0.090854
-0.048524
-0.072383
-0.157795
-0.060936
-0.073657
-0.052723
-0.086414
-0.081087
-0.027841
-0.080610
-0.033904
0.035744
-0.004563
-0.101844
-0.047482
-0.113365
0.010658
0.009694
0.061812
0.071951
0.046177
0.005787
0.050832
-0.006912
0.126093
0.141324
0.022043
0.012159
0.072858
0.067588
0.081372
0.133129
0.055856
0.007808
0.024369
-0.000605
0.034179
0.013500
-0.006891
-0.080229
-0.036282
-0.018539
-0.070357
-0.066947
-0.035502
-0.083793
-0.077234
-0.062966
-0.089760
-0.113249
-0.093373
-0.132076
-0.031935
-0.057743
-0.140730
-0.135437
-0.097944
-0.095768
-0.136269
-0.135337
-0.053939
-0.163993
-0.073465
0.024023
0.202700
0.546836
0.840481
1.144875
1.251613
1.315794
0.987331
0.687904
0.259235
-0.005611
-0.278586
-0.409155
-0.390910
-0.209831
-0.224447
-0.162519
-0.175504
-0.062689
-0.102645
-0.034666
-0.026279
-0.105474
-0.035959
0.030973
-0.013389
0.008466
-0.048382
-0.024123
-0.033610
0.048638
0.011480
0.028337
0.134062
0.126452
0.134688
0.108093
0.091900
0.154242
0.151692
0.252571
0.301035
0.195400
0.267932
0.267695
0.299064
0.320311
0.354110
0.421107
0.392765
0.410810
0.420988
0.349598
0.416782
0.435871
0.465458
0.431215
0.394695
0.445075
0.328772
0.364910
0.364525
0.368283
0.414966
0.350978
0.338823
0.310423
0.293078
0.315841
0.309980
0.298949
0.188059
0.177843
0.183794
0.133182
0.192625
0.152677
0.127877
0.023574
0.022179
0.027422
0.169777
0.026717
0.022263
0.013856
0.061971
0.023334
0.092379
-0.005192
0.071475
-0.025661
0.005150
-0.010514
-0.016297
-0.028278
-0.086675
-0.040182
-0.050998
-0.090367
-0.073043
-0.006830
0.002867
-0.005601
-0.081880
0.025667
-0.049400
-0.057035
-0.092911
-0.008478
0.036244
-0.067734
-0.024834
-0.107854
-0.011525
-0.025014
-0.060241
-0.014003
0.017381
-0.061038
0.039210
-0.047163
-0.025216
-0.014398
0.013540
-0.057995
-0.053227
-0.045822
-0.080713
-0.057140
0.077614
-0.068182
0.032307
0.061969
-0.040991
-0.022154
-0.051376
-0.064888
-0.032600
-0.022452
-0.052820
-0.038431
-0.013543
-0.029110
-0.090357
0.068364
-0.080134
-0.013953
0.022001
-0.056522
0.071789
0.084593
0.019966
0.023592
0.075057
0.021557
0.009048
0.038359
0.054316
0.072870
0.037727
0.025336
0.117800
0.212256
0.121938
0.086977
0.092601
0.137728
0.213272
0.193676
0.221050
0.082524
0.128547
0.197448
0.198765
0.079176
0.173765
0.068487
0.133825
0.053853
0.010906
0.072582
0.065663
0.059047
0.016753
0.002792
0.059524
-0.018019
0.029494
-0.001001
0.057284
0.042345
-0.013052
-0.004738
-0.004403
0.009098
0.012807
0.000790
0.035598
0.022505
-0.028082
-0.022310
0.050330
0.036696
0.199884
0.486516
0.769633
1.015131
1.343661
1.388743
1.324990
0.987855
0.720595
0.231189
-0.010521
-0.244010
-0.226723
-0.159952
-0.074428
-0.164027
0.031372
-0.016453
0.044481
0.078414
0.060958
0.133804
0.051226
0.046620
0.029522
0.107516
0.023641
0.089127
0.122345
0.150236
0.200716
0.239134
0.205897
0.148387
0.240632
0.242063
0.306610
0.238191
0.339778
0.317415
0.368616
0.393235
0.365824
0.349710
0.484254
0.386580
0.386005
0.434854
0.455116
0.531269
0.462933
0.499956
0.512286
0.510204
0.584574
0.568084
0.533675
0.494888
0.594031
0.469057
0.448023
0.588860
0.505068
0.529793
0.395249
0.449173
0.538181
0.399233
0.385786
0.309628
0.352329
0.502072
0.340728
0.289077
0.239692
0.226022
0.282074
0.265099
0.179533
0.172750
0.218009
0.176976
0.118562
0.135216
0.111534
0.140268
0.114229
0.082977
0.097972
0.103494
0.074461
0.032875
0.104920
-0.019556
-0.006192
0.138752
0.077373
0.086560
0.052888
0.134619
0.128925
0.031914
0.015472
0.061929
0.000979
0.061398
0.044438
-0.037768
0.060697
0.056174
-0.025220
0.077810
0.036911
0.078024
0.115886
0.077441
0.110872
0.157460
-0.009530
0.083304
0.137614
0.069810
0.108700
0.087052
0.050035
0.044352
0.120481
0.102722
0.035466
0.069600
0.045865
0.108368
0.053488
0.128157
0.031740
0.074850
0.028974
0.005096
0.056639
0.066638
0.132304
0.068772
0.069017
0.096120
0.063590
0.079187
0.079720
0.121212
0.019999
0.096178
0.097296
0.129748
0.160267
0.201781
0.118208
0.125551
0.139651
0.162276
0.248417
0.239625
0.194339
0.143558
0.225051
0.228360
0.252487
0.243182
0.206334
0.237787
0.174969
0.232926
0.249899
0.304688
0.158180
0.242612
0.259695
0.176521
0.159549
0.173615
0.169656
0.227757
0.121387
0.147048
0.096874
0.186360
0.058010
0.095731
0.108636
0.054546
0.037158
0.093882
0.060284
0.051314
0.094147
0.080125
