0.053038
-0.013700
-0.024351
-0.033165
0.042166
-0.010921
0.055913
0.016582
0.056945
0.055369
0.143403
0.046880
0.014449
0.049727
-0.001474
0.020802
0.034700
-0.026370
0.005345
0.048440
0.026958
-0.042469
-0.012330
0.032313
-0.006311
0.122463
0.086326
0.121724
0.046328
0.048731
0.138194
0.066661
0.120850
0.065048
0.113077
0.092226
0.198016
0.121754
0.165279
0.107065
0.081694
0.220051
0.181616
0.235696
0.228391
0.198445
0.210726
0.142826
0.195426
0.203689
0.112515
0.167486
0.250395
0.169851
0.109176
0.215994
0.216352
0.149103
0.121943
0.102609
0.121201
0.143689
0.127570
0.037240
0.128553
0.069052
0.106315
0.088630
0.014433
0.029116
0.084703
0.089822
0.040601
0.076286
0.030953
0.050439
0.060996
0.004060
0.035351
0.121004
0.087827
0.070539
0.039481
0.136274
0.067735
0.018658
0.069337
-0.009592
0.029847
0.276450
0.498797
0.843907
1.275603
1.441610
1.454010
1.360507
1.061853
0.742273
0.394044
0.046404
-0.205855
-0.223780
-0.218745
-0.151673
-0.101749
-0.024888
0.040339
0.158099
0.006077
0.016143
0.061968
0.000445
0.021585
0.055762
0.107563
0.038453
0.052812
0.121710
0.111946
0.130683
0.136394
0.065698
0.099288
0.092284
0.193232
0.179141
0.145452
0.235807
0.214098
0.243554
0.271753
0.298372
0.293068
0.292637
0.316854
0.358170
0.323796
0.364547
0.425292
0.434021
0.378092
0.462828
0.448123
0.488346
0.542621
0.497835
0.451467
0.528850
0.535779
0.568588
0.593369
0.564787
0.601991
0.612409
0.654515
0.540947
0.546074
0.553806
0.569677
0.571697
0.544992
0.582505
0.399055
0.461235
0.394760
0.570966
0.363754
0.442803
0.365374
0.326874
0.324285
0.279787
0.328202
0.231559
0.370686
0.275364
0.213291
0.214992
0.169624
0.110583
0.120907
0.172933
0.149703
0.096322
0.133023
0.085100
0.124815
0.086713
0.086564
0.087392
0.112939
0.088011
0.062916
0.069794
0.089472
0.068372
0.049512
0.078180
0.092957
0.085240
0.126326
0.102904
0.112161
0.065777
0.067118
0.087887
0.136954
0.026783
0.094014
0.064322
0.108175
-0.008110
0.140202
0.123907
0.169984
0.045754
0.074333
0.110276
0.081696
0.043740
0.094433
0.040506
0.033072
0.056795
0.127309
-0.018131
0.144065
0.078018
0.002723
0.096616
0.105951
0.114059
0.095390
0.068507
0.085470
0.132342
0.092120
0.063296
0.127920
0.124830
0.128586
0.102405
0.102917
0.087803
0.081565
0.046947
0.144716
0.026755
0.143669
0.123764
0.082427
0.099675
0.098299
0.027479
0.031042
-0.005314
0.135269
0.116793
0.075154
0.041445
0.042904
0.058288
0.161451
0.155590
0.161285
0.082640
0.058116
0.159022
0.146892
0.161986
0.107010
0.168836
0.151767
0.234388
0.235191
0.216282
0.281935
0.243742
0.213404
0.203688
0.224321
0.331410
0.218856
0.192840
0.196928
0.255083
0.195897
0.203320
0.238874
0.136215
0.131362
0.120535
0.162762
0.211063
0.152532
0.118653
0.165276
0.135602
0.116983
0.082169
0.086646
0.089659
0.118420
0.122105
0.102795
0.095555
0.058958
0.076782
0.010367
0.025738
0.093827
0.087506
0.049652
0.132012
-0.003099
0.097819
-0.071453
0.008752
0.073651
0.049836
0.057381
0.061129
0.140646
0.160451
0.400002
0.678363
1.035101
1.316032
1.500000
1.287672
1.134889
0.859718
0.523713
0.185806
0.013075
-0.199628
-0.217044
-0.204472
-0.185898
-0.039573
-0.008042
0.058039
0.065760
0.052839
0.062742
0.012603
0.055462
0.081365
0.063510
0.066840
0.044148
0.113635
0.024280
0.112009
0.090204
0.063943
0.107910
0.167129
0.050492
0.114455
0.124556
0.172331
0.133948
0.163101
0.167480
0.187180
0.211570
0.270602
0.212051
0.347304
0.298422
0.267546
0.363891
0.384484
0.394299
0.327482
0.389589
0.474617
0.437500
0.456522
0.424783
0.509547
0.506733
0.535052
0.501144
0.489241
0.537121
0.528794
0.521889
0.523894
0.521521
0.491863
0.517079
0.465304
0.434894
0.406503
0.445927
0.439640
0.398986
0.357036
0.387505
0.370769
0.273916
0.276828
0.252169
0.160576
0.213137
0.207667
0.230688
0.198557
0.182640
0.176282
0.115048
0.110504
0.075413
0.121894
0.086031
0.084172
0.062133
0.026947
-0.002676
0.024674
0.037003
-0.016538
0.024110
-0.032034
0.001591
-0.011722
-0.035643
0.039074
-0.039758
0.043834
0.044725
-0.029954
-0.043947
0.048305
-0.035620
0.046104
0.026404
-0.015644
-0.051236
0.045606
-0.097232
-0.037186
-0.044353
0.006066
0.014232
-0.035034
-0.034837
-0.002144
0.058524
-0.004511
-0.063639
-0.059463
0.016077
0.081865
-0.094348
-0.021787
-0.046474
-0.027087
0.019529
0.006356
-0.022488
-0.039012
0.020201
0.029471
0.021978
0.063670
-0.058262
0.007292
0.029921
-0.097656
-0.029684
-0.032453
-0.006878
-0.023262
-0.005657
-0.016350
-0.128355
0.038449
-0.068409
-0.077053
-0.078607
-0.041942
-0.045739
-0.075761
-0.049129
-0.066636
0.020302
-0.009509
0.011129
-0.019008
-0.064884
-0.006605
0.034603
-0.005733
-0.042853
-0.063577
0.017329
-0.002267
-0.017053
-0.004711
0.031427
0.010697
0.090798
0.110698
0.024800
0.044362
0.138392
0.128091
0.074358
0.193078
0.084800
0.177795
0.077204
0.146968
0.190238
0.059056
0.200587
0.141547
0.151286
0.130094
0.008631
0.092724
0.087809
0.083363
0.057366
0.153352
-0.001032
-0.044110
-0.022919
-0.037643
-0.032668
-0.005906
-0.009427
-0.034337
-0.038583
-0.012111
-0.018291
-0.012187
-0.019665
-0.016952
-0.090933
-0.090290
-0.032502
-0.006691
-0.035512
-0.114574
-0.030792
-0.109834
-0.021836
-0.056454
-0.052241
0.018280
-0.059797
-0.074109
-0.032836
0.011580
0.278296
0.484694
0.880317
1.096796
1.261229
1.366081
1.194049
0.916787
0.516059
0.227119
-0.080024
-0.251854
-0.285022
-0.353476
-0.218506
-0.139189
-0.046948
-0.068829
-0.063179
0.004054
-0.057836
-0.043456
-0.023268
-0.004070
-0.060680
-0.006015
0.054089
-0.012344
0.027284
0.085562
0.005556
0.035039
0.074767
0.007816
0.049183
-0.089164
0.024667
0.123979
0.110731
0.088025
0.134630
0.112152
0.156793
0.233747
0.192607
0.309751
0.232334
0.209461
0.269152
0.293845
0.305616
0.338426
0.384523
0.345544
0.283695
0.380171
0.356758
0.371614
0.379247
0.493015
0.461006
0.425388
0.419523
0.459245
0.498257
0.615837
0.449794
0.511779
0.430986
0.434886
0.457483
0.350718
0.354688
0.327225
0.313627
0.290928
0.274217
0.337580
0.222962
0.282897
0.151662
0.230063
0.173321
0.199527
0.185074
0.198247
0.126086
0.162274
0.077025
0.169642
0.102983
0.120111
0.065696
0.050277
0.003468
0.007591
0.022609
0.021305
0.094906
0.037188
0.043439
0.011835
-0.034851
0.035052
-0.008376
-0.052483
-0.019742
-0.032965
-0.091409
-0.049137
-0.008996
0.010095
-0.043173
-0.040414
-0.010059
-0.011689
0.033849
-0.040497
-0.071377
-0.034844
-0.007254
-0.011378
0.002815
-0.044995
-0.002618
-0.015052
-0.001048
-0.005658
-0.072970
0.009300
-0.018627
-0.064978
-0.025710
-0.036546
0.024021
0.018290
-0.062406
-0.031963
0.031606
0.040148
-0.051288
0.050912
0.062747
-0.013883
0.050852
0.061314
-0.045803
0.039593
0.065468
-0.001890
0.000339
0.000120
0.029930
0.054731
0.042985
-0.047240
-0.055663
-0.020691
-0.010201
0.042484
-0.033777
-0.072406
-0.061757
-0.026042
0.043935
-0.009304
0.017279
0.005892
0.019999
-0.021929
-0.017952
0.022391
0.064946
0.034198
-0.018061
0.103750
0.103362
-0.019000
0.038583
0.125801
0.072258
0.048285
0.058958
0.064407
0.086131
0.106627
0.224387
0.166542
0.243382
0.227238
0.186178
0.187639
0.211385
0.165633
0.176033
0.238982
0.146931
0.137778
0.185312
0.127435
0.131138
0.087462
0.117425
0.100959
0.168464
0.086429
0.171814
0.070905
0.038455
0.098586
0.057508
0.112271
0.073164
0.048150
0.039979
0.021362
0.021984
0.035727
0.006581
0.093723
0.078685
0.012787
0.095256
0.055439
0.054116
0.045740
0.079926
-0.026477
0.121037
0.025231
0.037983
0.006383
-0.001415
0.073083
0.244570
0.516407
0.807286
1.108549
1.395840
1.402980
1.426910
1.113928
0.741058
0.436256
0.146253
-0.185298
-0.189650
-0.192700
-0.102510
-0.183209
-0.007881
0.001086
0.036185
0.010578
0.125842
0.040786
0.002994
0.012831
0.060574
0.128927
0.046165
0.034389
0.133808
0.071629
0.112081
0.033035
0.152844
0.070554
0.150580
0.096643
0.131941
0.199621
0.246388
0.193036
0.180772
0.292071
0.222055
0.239448
0.442661
0.282395
0.263052
0.283900
0.354087
0.381033
0.429285
0.462419
0.420008
0.554417
0.547808
0.494544
0.599454
0.515538
0.524364
0.578446
0.632436
0.537102
0.633053
0.529846
0.541682
0.607325
0.597333
0.604830
0.532423
0.519001
0.454085
0.577911
0.496535
0.482760
0.482066
0.443531
0.368951
0.389529
0.428249
0.370917
0.399418
0.303722
0.357184
0.319304
0.260760
0.297123
0.247362
0.261575
0.173187
0.311042
0.142759
0.209995
0.184573
0.280092
0.158517
0.164798
0.118147
0.196957
0.097151
0.108848
0.126661
0.129041
0.053308
0.113795
0.044071
0.127759
0.085667
0.057027
0.006053
0.091140
0.123110
0.060936
0.079817
0.040632
0.098891
0.117871
0.180263
0.110314
0.065484
0.157045
0.125085
0.092973
0.077566
0.069615
0.087585
0.047628
0.146083
0.031976
0.040542
0.027343
0.109607
0.124794
0.094133
0.113154
-0.006193
0.170936
0.193710
0.019989
0.111575
0.027895
0.095333
0.108277
0.111052
0.143842
0.173443
0.123102
0.059801
0.124778
0.071939
0.100267
0.114807
0.088430
0.039780
0.069194
0.097746
0.152704
0.015196
0.038759
0.093533
0.069988
0.157014
0.037656
0.133702
0.160914
0.034883
0.057815
0.025937
0.073616
0.042296
0.092477
0.169518
0.144164
0.154599
0.142577
0.114778
0.144995
0.076083
0.220775
0.169802
0.143639
0.123883
0.175730
0.131078
0.267472
0.263824
0.252516
0.137816
0.273548
0.235558
0.343827
0.182908
0.253790
0.280323
0.249299
0.235246
0.238548
0.279465
0.245254
0.222165
0.210497
0.220620
0.264595
0.138636
0.206561
0.150814
0.102601
0.119349
0.142945
0.150890
0.147101
0.135901
0.171514
0.100689
0.093981
-0.018072
0.099892
0.060899
0.111995
0.104863
0.067389
0.158379
0.098255
0.087699
0.050363
0.067788
0.050074
0.037185
0.110234
0.064332
0.076162
0.078387
0.012347
0.001972
0.079229
0.107224
0.296658
0.708022
1.048861
1.223755
1.439395
1.434489
1.317571
0.924947
0.557637
0.183197
0.023064
-0.220893
-0.248086
-0.208956
-0.107492
-0.046845
-0.005345
0.105193
0.023375
0.135329
0.067619
0.085020
0.119016
0.073295
0.026487
0.108220
0.099813
0.103848
0.178643
0.025878
0.125534
0.098370
0.085984
0.117264
0.171554
0.149200
0.179311
0.176731
0.184562
0.257126
0.187131
0.188054
0.259346
0.291406
0.370816
0.256323
0.268302
0.347214
0.320926
0.397811
0.397075
0.358927
0.469364
0.444154
0.469984
0.460127
0.445622
0.500218
0.546659
0.498842
0.509384
0.535728
0.510486
0.481757
0.567183
0.538193
0.517078
0.470485
0.506485
0.482590
0.593335
0.498011
0.457730
0.468897
0.310814
0.351971
0.410760
0.315592
0.411623
0.252510
0.235092
0.324657
0.171804
0.262068
0.288324
0.190589
0.173788
0.178420
0.183986
-0.003873
0.077453
0.051096
0.136261
0.081857
0.084573
0.103309
-0.026181
0.128895
-0.008221
0.051670
0.087434
0.017827
0.036046
0.054724
-0.028601
0.014054
0.012192
0.078433
-0.020628
-0.048393
-0.025060
-0.003638
-0.050646
0.009215
-0.004412
0.060223
0.011990
0.020323
-0.077815
-0.013158
0.006802
0.041869
-0.019004
-0.055287
-0.008641
0.041378
0.025294
0.034051
0.126859
-0.064373
-0.021469
0.046708
0.029444
-0.001634
-0.050931
0.083608
0.024832
-0.003587
0.004671
-0.012800
-0.028473
-0.066277
-0.035971
0.011681
-0.041466
-0.072523
0.003462
-0.004813
-0.002111
-0.034457
-0.033647
-0.032651
0.008107
-0.010215
-0.009377
-0.018205
-0.088906
-0.013952
-0.018414
0.004144
-0.022821
-0.003022
-0.042824
0.028615
-0.014331
-0.087774
-0.060076
-0.090462
-0.036104
-0.114538
-0.030715
-0.022984
0.026115
-0.020898
-0.087861
0.026966
0.033095
0.056776
0.104027
-0.041517
0.033746
0.108304
0.017754
0.137847
0.048888
0.002627
0.083716
0.085872
0.039680
0.098962
0.123909
0.168643
0.238403
0.096618
0.153510
0.110112
0.111638
0.088259
0.162757
0.116722
0.034175
0.067419
0.079987
0.061312
0.081761
-0.018890
-0.022306
0.020674
0.048827
0.030724
-0.002618
-0.000430
-0.017635
-0.072751
-0.001011
-0.023983
-0.111076
-0.071084
-0.013698
-0.009003
-0.019133
-0.103314
-0.028884
-0.093441
-0.066792
-0.047098
-0.111710
-0.060013
-0.119861
-0.076472
-0.167182
-0.084881
-0.098210
0.030242
0.165495
0.413900
0.817948
1.090201
1.271799
1.281698
1.214961
0.912891
0.594130
0.246403
-0.082446
-0.240119
-0.411488
-0.333053
-0.193588
-0.273019
-0.134641
-0.085613
-0.109418
-0.012812
-0.100351
-0.058446
-0.090324
-0.002541
-0.083766
-0.064284
-0.018781
-0.041458
-0.033931
-0.049454
-0.017143
-0.016049
-0.008970
-0.073543
0.061118
-0.005090
-0.024549
0.006191
0.022246
0.146725
0.117071
0.060430
0.168771
0.145034
0.138370
0.156608
0.191471
0.214684
0.257409
0.300355
0.381520
0.189423
0.288322
0.321559
0.330465
0.306786
0.376309
0.361955
0.439908
0.303741
0.438455
0.382398
0.460224
0.405656
0.398730
0.339925
0.395262
0.398232
0.403225
0.379542
0.279174
0.343123
0.357868
0.317764
0.308073
0.237937
0.335345
0.249705
0.116594
0.254467
0.150804
0.276382
0.128024
0.130291
0.155944
0.182182
-0.007083
0.050843
0.037868
0.008462
0.047441
0.030676
0.015393
0.073969
-0.002042
-0.041281
-0.053742
-0.043349
-0.043671
-0.080417
-0.061735
-0.057970
-0.064775
-0.063944
-0.107966
-0.166257
-0.109916
-0.072086
-0.046252
-0.072311
-0.084702
-0.056772
-0.044596
-0.046653
-0.000297
-0.063373
-0.086437
-0.062291
-0.074366
-0.071721
-0.112416
-0.085628
-0.025514
-0.045217
-0.048011
-0.063857
-0.023017
-0.074839
-0.082494
-0.031165
-0.033748
-0.166740
-0.088337
-0.055964
-0.005178
-0.006876
-0.100169
-0.123594
-0.029199
-0.065634
-0.044504
-0.113028
-0.079898
-0.132145
-0.091109
-0.080649
-0.050244
-0.069999
-0.048556
-0.056425
-0.056922
-0.115883
-0.065152
-0.087025
-0.168231
-0.056683
-0.051753
-0.044257
-0.040434
-0.045169
-0.137634
-0.127949
-0.055552
-0.054869
-0.042584
-0.150520
-0.075036
-0.056207
-0.069606
-0.127480
-0.035552
-0.011771
-0.050435
-0.025930
-0.064846
0.102429
-0.047879
0.005070
0.026833
0.049211
0.059872
0.100932
0.025497
0.031667
0.020633
0.133706
0.085157
0.088613
0.050598
0.173543
0.159168
0.160942
0.137098
0.136947
0.123002
0.123302
0.149668
0.127077
0.053673
0.170832
0.117478
0.032551
0.057880
0.096889
0.054740
-0.001853
0.031049
-0.040184
-0.016703
0.000549
-0.018300
0.052076
-0.072219
-0.060219
-0.113906
-0.050865
-0.089913
-0.011329
-0.081229
-0.024009
-0.100068
0.002968
-0.028438
0.011778
0.028961
-0.008612
-0.011142
-0.144601
0.016999
-0.057240
-0.084261
-0.012126
-0.200588
-0.015963
0.078972
0.338304
0.580917
1.066292
1.238408
1.324869
1.309315
1.054018
0.802801
0.382812
0.078387
-0.189030
-0.307050
-0.331954
-0.228110
-0.247599
-0.075655
-0.117584
-0.043286
-0.036469
0.036540
-0.006780
-0.013951
0.054463
-0.016686
0.013836
0.000394
-0.034474
-0.040555
0.013811
-0.051738
0.027594
0.014372
0.075090
0.102251
0.120794
0.060869
0.070398
0.087500
0.068526
0.131289
0.151216
0.165152
0.245899
0.177857
0.222367
0.214389
0.256747
0.327471
0.374970
0.257089
0.432451
0.407028
0.339907
0.391460
0.430428
0.505221
0.501420
0.506011
0.539513
0.498023
0.416121
0.654022
0.447682
0.505772
0.514075
0.536189
0.505561
0.463718
0.527947
0.397830
0.460737
0.534017
0.411438
0.431080
0.369766
0.356449
0.348949
0.312961
0.339355
0.252209
0.242948
0.300663
0.201649
0.199268
0.197502
0.223874
0.171583
0.171554
0.173441
0.052910
0.083752
0.101291
0.150516
0.117677
0.121060
0.098534
0.116841
0.058303
0.127365
0.004155
0.083533
-0.024513
0.039660
0.073436
-0.035334
0.057595
0.133269
0.031342
0.017648
-0.033544
-0.001717
0.029258
0.016034
-0.016375
0.003238
-0.057955
0.051862
0.081495
0.064963
0.018105
0.108993
-0.010151
0.028033
-0.013988
0.092639
0.054570
-0.016599
0.057992
0.006366
-0.022816
0.069130
0.010753
0.049952
0.066893
0.090521
0.002588
0.069581
0.003935
0.068243
0.064459
0.060799
0.021711
0.065555
-0.092872
0.007697
-0.040345
0.003287
0.048052
0.058284
0.062643
0.056746
0.057268
0.093421
0.038894
0.017534
0.028255
0.092092
0.040151
0.005067
0.061619
0.053010
0.047227
0.022579
0.014158
0.030731
0.039411
0.031648
0.095025
0.100335
0.048894
0.121404
0.008636
0.075539
0.056871
0.090461
0.104159
0.074371
0.066062
0.093375
0.110158
0.120871
0.146400
0.063542
0.244597
0.215461
0.157845
0.203792
0.112832
0.229933
0.245028
0.290523
0.148971
0.202845
0.257321
0.206391
0.259578
0.124541
0.257876
0.240813
0.125200
0.164525
0.181042
0.216562
0.188293
0.087734
0.187526
0.098889
0.083895
0.065035
0.059117
0.138695
0.138874
0.121264
0.047857
0.051027
0.023513
0.138561
0.049346
0.093573
0.103356
0.082524
0.068798
0.044089
-0.011109
0.051572
0.022290
0.169222
0.059857
0.046296
0.021234
-0.019645
-0.016830
0.091895
0.073583
0.332119
0.566066
0.963664
1.221223
1.421464
1.402268
1.366153
0.935273
0.614251
0.225457
0.033426
-0.187800
-0.180540
-0.196361
-0.171975
-0.142140
-0.000377
-0.015724
0.041929
0.053357
0.124813
0.039636
0.056545
0.058187
0.049829
0.100483
0.123652
0.098272
0.152025
0.058309
0.129217
0.120873
0.119017
0.121041
0.088470
0.210764
0.125993
0.123941
0.228142
0.224472
0.187192
0.173360
0.266392
0.208944
0.246199
0.252987
0.239755
0.283765
0.388190
0.380194
0.418217
0.461731
0.445515
0.475430
0.546553
0.467915
0.501983
0.517834
0.522752
0.596952
0.569958
0.513458
0.578011
0.512345
0.556553
0.499986
0.572607
0.554984
0.473597
0.409567
0.507602
0.468278
0.420211
0.424896
0.403532
0.415376
0.362183
0.278018
0.291870
0.279065
0.313664
0.301823
0.196630
0.158009
0.260943
0.226271
0.194954
0.129439
0.135940
0.122505
0.131578
0.116039
0.064313
0.124234
0.066550
0.092960
0.143451
0.062154
0.029838
0.087959
0.019331
-0.030548
0.047217
-0.003972
-0.090117
0.039779
0.018069
0.037511
0.070245
0.026599
0.022467
0.026355
0.002522
0.017581
0.076126
0.034710
-0.023392
-0.004895
-0.034981
-0.010185
-0.031808
-0.036489
0.026642
0.011288
-0.020557
-0.010828
0.047652
0.071416
-0.095450
-0.017074
-0.034209
-0.033797
-0.003325
-0.008968
-0.043630
0.036911
-0.056069
0.022031
0.019369
0.037972
-0.010508
-0.003721
0.035614
-0.050889
-0.035941
-0.022083
0.025442
0.112325
-0.051442
-0.006165
0.019043
-0.053227
0.051697
-0.053401
-0.015922
0.023504
0.007212
-0.001525
-0.003987
-0.050776
-0.037909
0.018559
-0.000490
-0.037155
-0.024786
0.008058
-0.019427
-0.036525
-0.061351
-0.042933
-0.048597
-0.105601
-0.000330
-0.016485
0.025589
-0.047314
0.006393
-0.023112
-0.056502
0.048585
0.072656
0.045995
0.082453
0.086125
0.229660
0.100708
0.061535
0.042699
0.087770
0.145306
0.085094
0.152920
0.170336
0.162263
0.127040
0.107355
0.067592
0.051204
0.104672
-0.006380
0.139102
0.027371
0.033875
0.067081
-0.004322
0.040796
0.075094
0.033255
0.034783
-0.038102
-0.040995
-0.009393
-0.142648
-0.014452
-0.060049
-0.026673
-0.058422
0.058278
-0.033544
-0.019635
-0.056294
0.005272
-0.077638
-0.030929
-0.019905
-0.062089
-0.078228
-0.043531
-0.125954
-0.066514
-0.131141
-0.176960
-0.111898
-0.057422
0.163868
0.412917
0.670923
1.035066
1.273065
1.285116
1.212905
0.973481
0.575062
0.230394
0.018639
-0.298868
-0.380401
-0.332763
-0.306662
-0.313472
-0.177301
-0.122911
-0.069006
-0.129042
-0.133228
-0.097420
-0.193380
-0.084740
-0.150277
-0.103403
-0.083736
-0.080614
-0.128171
-0.045639
-0.045903
-0.047379
0.014446
-0.075935
-0.044133
-0.016518
-0.006169
0.067811
0.053657
0.048886
0.062474
0.122385
0.132489
0.188174
0.107552
0.230733
0.144033
0.277457
0.195663
0.174907
0.293765
0.201313
0.275260
0.334423
0.242138
0.377303
0.390884
0.409516
0.419151
0.402555
0.376690
0.440444
0.356559
0.379765
0.335609
0.346065
0.398070
0.418100
0.365978
0.332433
0.347281
0.289439
0.318213
0.268674
0.320581
0.280912
0.254614
0.186036
0.317992
0.271255
0.248290
0.189971
0.201970
0.151151
0.171355
0.008595
0.076309
0.004749
0.030894
0.044862
-0.008703
0.003198
-0.064996
-0.023988
-0.015352
-0.008882
0.016328
-0.081451
-0.072480
-0.020025
-0.134588
-0.054383
-0.080760
-0.027061
-0.169588
-0.097660
-0.120548
-0.123572
-0.106578
-0.069669
-0.106195
-0.147380
-0.152534
-0.156131
-0.128402
-0.095139
-0.142636
-0.101825
-0.079435
-0.097284
-0.142636
-0.101684
-0.098500
-0.148583
-0.122311
-0.047303
-0.106007
-0.073132
-0.114998
-0.059634
-0.074547
-0.078614
-0.109397
-0.082658
-0.086667
-0.084079
-0.069096
-0.178875
-0.118167
-0.095226
-0.083803
-0.070819
-0.050315
-0.099544
-0.123113
-0.132252
-0.131589
-0.061769
-0.070844
-0.149894
-0.109577
-0.116402
-0.014782
-0.047879
-0.140131
-0.172375
-0.161880
-0.162747
-0.065506
-0.101387
-0.103480
-0.087679
-0.057027
-0.114213
-0.131842
-0.149478
-0.102221
-0.112158
-0.105540
-0.130165
-0.038302
-0.101969
-0.078713
-0.065766
-0.100469
-0.026223
-0.039394
-0.040188
0.004866
-0.073494
-0.036112
-0.009709
0.005700
0.061674
0.095399
-0.048592
0.097462
0.027554
0.181673
0.185724
0.128410
0.108340
0.120305
0.135176
0.190166
0.109513
0.048871
0.059755
0.064945
-0.007343
-0.001810
0.079805
0.044898
0.056066
0.006767
0.037355
0.007777
-0.018252
-0.047997
-0.032143
-0.048468
-0.074521
-0.096513
-0.055878
-0.087119
0.032557
-0.060398
-0.092030
-0.052935
-0.100584
-0.075903
-0.068066
-0.038034
-0.012187
-0.016738
-0.064436
-0.076747
-0.106968
-0.065327
-0.031758
-0.090344
-0.159980
-0.134748
-0.082658
0.046660
0.332920
0.611690
0.967900
1.127654
1.295577
1.231081
1.045876
0.752902
0.434870
0.075702
-0.133699
-0.302278
-0.308871
-0.262222
-0.250935
-0.181914
-0.006810
-0.088279
-0.029814
-0.081377
-0.052986
-0.047099
-0.063465
-0.077859
-0.004768
-0.077958
-0.036883
0.036163
-0.042373
-0.008118
-0.059543
0.011549
-0.019043
0.021212
0.050568
0.053867
0.007261
0.014753
0.038231
0.045803
0.177248
0.153111
0.218270
0.153364
0.220745
0.246340
0.219636
0.242638
0.302101
0.313188
0.278223
0.328575
0.366101
0.414867
0.458646
0.447537
0.409695
0.392625
0.416748
0.529316
0.426089
0.480929
0.506630
0.507273
0.429502
0.511708
0.496071
0.475565
0.454542
0.461814
0.461288
0.408367
0.412471
0.386904
0.392410
0.339348
0.359797
0.295564
0.292815
0.241508
0.284418
0.209102
0.181319
0.137380
0.106110
0.124100
0.065604
0.124842
0.055560
0.157581
0.101929
0.042274
0.030767
0.006640
0.092124
0.025833
0.076822
0.024913
0.029201
0.077950
-0.032477
-0.036812
-0.000000
0.074455
-0.016363
0.029298
-0.077839
0.019723
0.035766
0.013622
0.002818
0.014852
0.046632
0.015658
0.061922
0.068508
-0.025548
-0.027983
0.049071
0.052919
0.068175
0.011519
0.013619
-0.010134
0.035891
-0.042707
0.033610
0.053825
0.046416
-0.055220
-0.056588
0.004494
0.049088
0.148467
0.026414
-0.002224
0.081901
0.065139
0.067836
0.009083
0.030283
0.001306
0.045484
0.026620
-0.070113
0.013976
0.073791
0.067034
0.049577
0.081449
0.134360
0.063016
0.083554
0.120308
0.090774
0.014801
0.015357
-0.010040
0.007588
0.068245
0.036815
0.007965
0.074244
-0.004236
0.025782
0.067144
0.055538
0.085688
0.104569
0.068863
0.037152
0.056937
0.092964
0.115981
0.077245
0.100075
0.140117
0.136683
0.143764
0.177366
0.141062
0.196304
0.058004
0.127530
0.155970
0.197695
0.204388
0.309492
0.173496
0.186284
0.266650
0.237462
0.269755
0.194157
0.212734
0.228454
0.220798
0.186860
0.222853
0.182823
0.186610
0.121821
0.188575
0.136878
0.110999
0.144658
0.116789
0.029827
0.096641
0.098146
0.068226
0.134877
0.086146
-0.020290
0.176850
0.124694
0.089043
-0.015858
0.074028
0.081137
0.128244
0.063912
0.104839
0.025405
0.030071
0.082945
0.048348
0.051581
0.057997
0.038394
-0.034174
0.010595
0.024444
0.138490
0.317484
0.609905
0.929516
1.246517
1.453742
1.437830
1.284113
1.003530
0.682301
0.275398
0.044093
-0.227437
-0.247986
-0.184715
-0.151529
-0.072387
0.043054
0.027451
0.056732
0.117597
0.110596
0.092322
0.073709
0.031186
0.106837
0.102012
0.090250
0.093678
0.042167
0.158327
0.100732
0.158498
0.097158
0.139512
0.125292
0.184821
0.176871
0.166146
0.244166
0.253783
0.161413
0.217451
0.270510
0.332731
0.270070
0.372954
0.345404
0.330904
0.468090
0.290125
0.468925
0.458253
0.446467
0.504411
0.376917
0.489066
0.542906
0.614181
0.662437
0.601241
0.534199
0.580925
0.540898
0.634725
0.449149
0.661023
0.533687
