-0.041602
0.060788
0.017591
-0.018711
-0.052868
0.025679
0.017294
-0.021479
-0.066844
0.036889
-0.022074
0.120840
0.013430
0.050652
-0.005802
0.025153
0.074190
-0.020128
-0.047412
0.081087
0.037178
0.006601
0.039159
0.078987
0.018019
0.002627
0.021486
0.074831
0.082776
0.043728
0.049529
-0.003754
0.079909
-0.024470
0.063411
0.030417
0.127926
0.019705
0.159938
0.042266
0.093806
0.099582
0.115788
0.123830
0.049886
0.203400
0.139152
0.162730
0.173806
0.248377
0.184618
0.199611
0.247386
0.187825
0.168343
0.258683
0.186580
0.200269
0.191578
0.112307
0.117720
0.138180
0.192676
0.091437
0.048696
0.160869
0.130729
0.071104
0.102091
0.040800
0.115880
0.010855
0.123206
0.045853
0.023750
0.033927
0.041248
0.018662
0.072375
0.029626
0.046125
0.031568
0.073206
0.015792
0.117257
0.069665
0.045462
0.025842
0.009521
0.021108
0.047513
0.098028
0.003708
0.053571
0.014391
-0.016806
0.089299
0.262038
0.541828
0.798807
1.066795
1.198825
1.273907
1.121309
0.930158
0.624178
0.411543
0.119758
-0.062603
-0.130857
-0.245008
-0.169420
-0.143334
-0.062547
-0.032228
0.039004
0.080473
0.035186
0.042105
0.033306
0.183951
0.086135
0.133717
0.155061
0.052916
0.078324
0.099249
0.090982
0.093026
0.142235
0.141099
0.058965
0.165272
0.171357
0.199245
0.126514
0.222957
0.136827
0.173796
0.208796
0.154117
0.166723
0.220427
0.242749
0.282965
0.229032
0.222485
0.242368
0.315252
0.320011
0.360362
0.302439
0.363297
0.340740
0.457156
0.434918
0.494309
0.478005
0.537624
0.484524
0.527881
0.434907
0.456038
0.521277
0.464036
0.525412
0.540673
0.503864
0.526404
0.522301
0.585637
0.522690
0.525067
0.484985
0.461385
0.457763
0.471337
0.451928
0.382544
0.385885
0.416280
0.404085
0.348994
0.366808
0.264059
0.272451
0.221768
0.268439
0.218130
0.207741
0.164467
0.168988
0.230466
0.141204
0.240514
0.163335
0.115355
0.170044
0.095767
0.117210
0.119157
0.195172
0.168744
0.154511
0.116639
0.110613
0.154858
0.160798
0.155641
0.079025
0.145441
0.119816
0.052166
0.077925
0.121747
0.151167
0.146630
0.129355
0.099839
0.152533
0.053916
0.165904
0.094404
0.106877
0.072058
0.106220
0.148890
0.152264
0.025402
0.144570
0.067811
0.118223
0.140330
0.094782
0.133144
0.001800
0.113100
0.112014
0.070438
0.114786
0.073778
0.189404
0.087733
0.150178
0.096894
0.107780
0.083785
0.137979
0.123067
0.115617
0.118248
0.046660
0.117881
0.124049
0.112015
0.192052
0.152406
0.140880
0.109158
0.104855
0.093778
0.116326
0.159913
0.065009
0.128276
0.122112
0.146490
0.047273
0.101803
0.111482
0.116981
0.047489
0.096530
0.051204
0.059406
0.137321
0.074491
0.104939
0.095331
0.143792
0.173237
0.156025
0.152611
0.107568
0.191967
0.116664
0.115462
0.155490
0.208176
0.153386
0.104732
0.157200
0.174663
0.185663
0.259871
0.226991
0.224972
0.192587
0.168864
0.279880
0.227852
0.297783
0.245013
0.223636
0.289144
0.279566
0.338677
0.192563
0.230618
0.256599
0.260256
0.201214
0.209187
0.248668
0.206529
0.200456
0.229740
0.227562
0.176383
0.163317
0.165635
0.080603
0.082472
0.091401
0.133747
0.153113
0.078342
0.152091
0.145626
0.070908
0.166864
0.049301
0.062989
0.071140
0.140982
0.117214
0.101238
0.092551
0.170080
0.125022
0.117473
0.088458
0.144969
0.159385
0.084656
0.041740
0.046224
0.078625
0.043068
0.081385
0.105530
0.294475
0.409725
0.704531
1.014873
1.159507
1.282118
1.188731
1.046476
0.726265
0.419045
0.214705
0.014650
-0.167685
-0.188162
-0.153929
-0.049298
-0.052855
0.009784
0.094996
0.133083
0.041987
0.096693
0.087971
0.065437
0.093453
0.166703
0.030536
0.073306
0.123179
0.141781
0.106457
0.026715
0.074452
0.103711
0.091409
0.111000
0.069456
0.127710
0.171567
0.181718
0.156763
0.209056
0.128506
0.147005
0.255790
0.216288
0.249362
0.278682
0.227153
0.253732
0.285557
0.316427
0.263765
0.363260
0.364007
0.407865
0.364455
0.405045
0.491026
0.382993
0.469932
0.486752
0.420260
0.478667
0.482542
0.445749
0.502481
0.538067
0.460909
0.467789
0.518816
0.435232
0.458608
0.484742
0.499365
0.430949
0.478067
0.425469
0.433723
0.358296
0.427610
0.380947
0.419244
0.231742
0.306441
0.348067
0.258801
0.259452
0.238509
0.227061
0.200482
0.257935
0.212041
0.178199
0.150386
0.108222
0.157213
0.129119
0.116149
0.170444
0.165506
0.046776
0.095577
0.074275
0.102134
0.045208
0.110602
0.080661
0.144696
0.077581
0.057857
0.049315
0.076328
0.162519
0.063531
0.062733
0.149876
-0.003601
0.069270
0.106748
0.058502
0.046597
0.053792
0.041419
-0.017159
0.083731
0.095155
0.072905
0.050145
0.049045
0.058046
0.054641
0.075429
0.074986
0.079848
0.108569
0.101363
0.063021
0.059820
0.055375
0.002357
0.090344
0.119769
0.121223
0.074459
0.092101
0.048991
0.083839
0.103895
0.049742
0.036037
0.145723
0.033718
0.160960
-0.012759
0.058749
0.070640
0.026956
0.081468
0.058444
0.041312
0.085023
0.035081
0.090950
0.071170
0.057479
0.083798
0.064338
0.019971
0.038364
0.088134
0.156722
0.052450
0.102996
0.072446
0.038425
0.099231
0.071741
0.087377
0.069516
0.102225
0.093158
0.050125
0.117073
0.020651
0.099178
0.088408
0.030453
0.106212
0.085112
0.138610
0.083171
0.093001
0.104448
0.164947
0.176520
0.164208
0.229736
0.193491
0.236327
0.159438
0.230026
0.316949
0.244600
0.181626
0.221887
0.241499
0.257532
0.248257
0.201812
0.210889
0.184422
0.176994
0.203263
0.121894
0.191988
0.175277
0.155820
0.219527
0.183041
0.171704
0.064575
0.122738
0.140488
0.166049
0.122413
0.120412
0.078426
0.119569
0.105184
0.046352
0.097631
0.058023
0.102373
0.063144
0.032061
0.060735
0.158830
0.105038
0.051904
-0.010255
0.036068
0.054317
0.029349
0.109708
0.050794
0.040690
0.166360
0.026898
0.031772
0.011359
0.083705
0.027344
0.069796
0.180812
0.397597
0.602024
0.859954
1.128577
1.258183
1.211475
1.082038
0.815178
0.527961
0.236825
0.003378
-0.095748
-0.204264
-0.139149
-0.070831
-0.061573
0.016137
0.022345
0.058892
0.087322
0.080721
-0.004341
0.054791
0.058528
0.099249
0.196589
0.096295
0.130127
0.113157
0.041901
0.083577
0.132187
0.012726
0.104839
0.117364
0.117702
0.127953
0.123380
0.116049
0.147981
0.160686
0.230051
0.211547
0.160288
0.210907
0.193198
0.214210
0.170647
0.261058
0.276986
0.339517
0.300604
0.356214
0.321425
0.376149
0.372133
0.397069
0.470587
0.524814
0.438901
0.420333
0.501411
0.504887
0.515219
0.557386
0.545475
0.500375
0.589249
0.542407
0.560700
0.519702
0.544860
0.492667
0.500255
0.505587
0.470849
0.547146
0.401392
0.519214
0.414717
0.398551
0.413182
0.383086
0.356474
0.274885
0.301521
0.320345
0.272286
0.204666
0.257513
0.286142
0.260793
0.306879
0.228432
0.169651
0.205608
0.163043
0.174123
0.165701
0.144876
0.136504
0.169527
0.178321
0.130103
0.084716
0.172155
0.135316
0.130259
0.152875
0.170898
0.137027
0.158621
0.152276
0.162504
0.143579
0.149475
0.118313
0.064878
0.168981
0.149069
0.126862
0.123691
0.173103
0.130644
0.142862
0.099734
0.144575
0.139904
0.107191
0.103194
0.133019
0.218623
0.082165
0.195606
0.118415
0.188380
0.102741
0.149399
0.178738
0.224230
0.173668
0.132029
0.152974
0.201402
0.174127
0.161772
0.188409
0.186139
0.186575
0.163125
0.069695
0.132143
0.164371
0.062074
0.142366
0.184935
0.128376
0.165865
0.090227
0.237250
0.225660
0.127271
0.161637
0.174147
0.155464
0.102168
0.151855
0.164075
0.183046
0.099524
0.161068
0.146567
0.204841
0.146074
0.242045
0.151141
0.143039
0.136847
0.221763
0.158794
0.257419
0.187494
0.184387
0.184491
0.206330
0.245027
0.244588
0.178729
0.146479
0.227324
0.250469
0.210673
0.321836
0.185792
0.227613
0.246861
0.254032
0.219122
0.256098
0.225425
0.354420
0.340126
0.338019
0.406820
0.338170
0.259764
0.332892
0.313681
0.360698
0.313390
0.340429
0.350841
0.294633
0.294190
0.311999
0.443529
0.239005
0.260308
0.270481
0.234470
0.271358
0.245088
0.244911
0.270652
0.192948
0.251403
0.269399
0.175804
0.265345
0.217915
0.194577
0.210565
0.197723
0.218125
0.201365
0.205286
0.146135
0.156627
0.182725
0.240213
0.209243
0.191048
0.226931
0.212870
0.193978
0.205231
0.169388
0.177177
0.214003
0.161680
0.049652
0.204887
0.136552
0.282338
0.472133
0.692661
0.938168
1.238716
1.422067
1.359461
1.292710
0.965782
0.729764
0.443327
0.216016
0.056794
0.012597
-0.064609
0.031378
0.033634
0.128043
0.147850
0.273306
0.260052
0.189216
0.210134
0.258741
0.256553
0.239468
0.315954
0.277078
0.240198
0.248109
0.183263
0.245643
0.264111
0.242560
0.288418
0.319323
0.313148
0.255628
0.287985
0.284015
0.314478
0.281372
0.269631
0.338082
0.324304
0.288908
0.302094
0.373096
0.374149
0.395676
0.451433
0.378635
0.418288
0.501070
0.566877
0.531925
0.475666
0.548282
0.636709
0.569022
0.611931
0.624864
0.606648
0.590241
0.670966
0.711437
0.716622
0.645990
0.669521
0.633564
0.695819
0.614487
0.752741
0.711774
0.630336
0.617260
0.656888
0.608501
0.627354
0.625612
0.516609
0.587239
0.494568
0.524154
0.468171
0.522013
0.469018
0.444624
0.396939
0.376880
0.422636
0.395615
0.396067
0.366005
0.361790
0.352439
0.354370
0.343899
0.278050
0.288188
0.291678
0.252014
0.334393
0.303843
0.261476
0.338005
0.226965
0.223857
0.278707
0.192603
0.211610
0.182015
0.280717
0.226562
0.322025
0.241011
0.222476
0.281559
0.216674
0.224951
0.248718
0.223035
0.267648
0.251021
0.194990
0.279845
0.268087
0.278735
0.254640
0.223761
0.241276
0.239295
0.189656
0.220741
0.236577
0.238240
0.328339
0.193511
0.205764
0.219495
0.295769
0.193323
0.230188
0.265979
0.229622
0.198594
0.247693
0.167804
0.273225
0.253863
0.269652
0.286693
0.267355
0.257864
0.193342
0.209445
0.258300
0.223801
0.257585
0.262964
0.190014
0.164794
0.253517
0.213399
0.230637
0.238364
0.207407
0.220800
0.195576
0.234959
0.262078
0.274548
0.267684
0.254433
0.210663
0.243567
0.245960
0.242217
0.187649
0.295738
0.254266
0.300601
0.246151
0.279005
0.226937
0.227094
0.230776
0.220032
0.289655
0.243633
0.331829
0.240076
0.258710
0.255587
0.276407
0.258059
0.290884
0.308159
0.361500
0.290733
0.289616
0.348587
0.365923
0.391213
0.441888
0.375602
0.365929
0.430073
0.265864
0.353818
0.387036
0.363615
0.354335
0.359774
0.403503
0.323476
0.306070
0.327558
0.324116
0.395958
0.288361
0.333489
0.265027
0.230267
0.313197
0.238498
0.213889
0.280750
0.200267
0.248765
0.295738
0.163435
0.194323
0.165523
0.238766
0.196851
0.152598
0.225615
0.198020
0.168500
0.227473
0.199986
0.230917
0.179358
0.193876
0.115003
0.173305
0.172875
0.171359
0.177937
0.146519
0.142099
0.132945
0.149263
0.218521
0.396526
0.668155
0.911148
1.180235
1.378825
1.358681
1.310712
1.069696
0.742206
0.546466
0.230143
0.091602
-0.082600
-0.056702
-0.058719
0.059303
0.082216
0.156242
0.232195
0.140373
0.143752
0.240573
0.205042
0.251093
0.243661
0.194766
0.204331
0.176137
0.222522
0.231994
0.144279
0.264296
0.217872
0.214181
0.257980
0.220977
0.264459
0.175733
0.249539
0.324047
0.258162
0.321385
0.309231
0.292256
0.310954
0.337549
0.302773
0.274901
0.343610
0.365642
0.380989
0.428327
0.425384
0.406206
0.463249
0.464051
0.480800
0.542903
0.544362
0.512149
0.620065
0.588803
0.611664
0.555145
0.615861
0.605973
0.611467
0.617167
0.618627
0.601563
0.617953
0.623163
0.608586
0.546833
0.569829
0.564898
0.550019
0.557691
0.509020
0.502379
0.487099
0.495791
0.531008
0.392612
0.462624
0.364303
0.348780
0.319392
0.395584
0.398966
0.291250
0.321283
0.348235
0.267396
0.264325
0.218702
0.260043
0.228482
0.208707
0.209623
0.209882
0.189286
0.173405
0.206257
0.285304
0.156178
0.098302
0.130574
0.183456
0.158468
0.130693
0.167229
0.166028
0.181458
0.211882
0.147591
0.164409
0.145132
0.137037
0.100415
0.104202
0.149743
0.150086
0.172641
0.185878
0.179676
0.181235
0.111878
0.187642
0.140223
0.181889
0.156410
0.159169
0.202490
0.121577
0.157885
0.202213
0.151819
0.148361
0.180889
0.149654
0.105432
0.176409
0.161880
0.124029
0.138481
0.119930
0.107479
0.160051
0.078566
0.153627
0.214474
0.113156
0.181701
0.172142
0.130184
0.122763
0.128631
0.072022
0.206826
0.200569
0.160951
0.146888
0.116997
0.155113
0.140177
0.186319
0.165554
0.145180
0.160416
0.115316
0.133489
0.109990
0.195040
0.141648
0.167583
0.085010
0.196663
0.118616
0.132723
0.051182
0.118975
0.150952
0.102383
0.116896
0.144672
0.143796
0.201797
0.157563
0.166668
0.212568
0.168926
0.162726
0.182959
0.178630
0.168263
0.173486
0.253343
0.190233
0.230185
0.174612
0.230673
0.268297
0.231340
0.320861
0.258082
0.312535
0.301197
0.308499
0.290232
0.310695
0.290820
0.260592
0.243201
0.212834
0.255886
0.305087
0.212421
0.303898
0.185790
0.272503
0.194646
0.122756
0.155578
0.164435
0.152045
0.170976
0.159255
0.157924
0.190622
0.096652
0.205596
0.150477
0.132296
0.171176
0.156236
0.174976
0.086928
0.120798
0.146269
0.135988
0.173008
0.116920
0.095508
0.083682
0.174438
0.107998
0.131940
0.090177
0.113408
0.085935
0.117996
0.132544
0.126957
0.312475
0.555513
0.818985
1.029165
1.297121
1.332652
1.256027
1.054397
0.774474
0.528538
0.263356
0.026663
-0.078162
-0.160310
-0.098737
-0.008688
0.015106
0.093211
0.152726
0.077842
0.192425
0.177635
0.185240
0.135739
0.182505
0.164224
0.125413
0.157877
0.157124
0.128773
0.197019
0.213184
0.173558
0.148941
0.148560
0.254229
0.190089
0.226207
0.216161
0.248886
0.280210
0.266531
0.240569
0.188328
0.271399
0.296048
0.323638
0.395276
0.400684
0.392619
0.359137
0.406347
0.473416
0.382806
0.396587
0.454711
0.509185
0.521068
0.507257
0.550973
0.577181
0.542714
0.613761
0.565766
0.601872
0.507772
0.598842
0.647318
0.575394
0.535875
0.615611
0.636833
0.651760
0.587966
0.560727
0.523454
0.563943
0.504093
0.509673
0.560399
0.464554
0.472969
0.460819
0.420905
0.459574
0.448609
0.398082
0.420067
0.298665
0.246328
0.372268
0.311664
0.234860
0.292573
0.278499
0.266850
0.256493
0.274238
0.256655
0.234240
0.201877
0.288011
0.174969
0.250075
0.241176
0.203939
0.247609
0.217470
0.184741
0.217839
0.123196
0.174211
0.210876
0.191688
0.194180
0.194240
0.152479
0.147751
0.218523
0.190954
0.236759
0.179977
0.170405
0.219338
0.190678
0.152391
0.249406
0.221809
0.207984
0.172816
0.188466
0.187736
0.273129
0.161880
0.256701
0.177351
0.206999
0.274628
0.215423
0.286756
0.190765
0.248267
0.232379
0.215209
0.167388
0.256995
0.126258
0.215948
0.218955
0.204389
0.161265
0.175752
0.185147
0.162479
0.234128
0.223053
0.157505
0.224371
0.209638
0.213687
0.212606
0.266122
0.202327
0.247104
0.206049
0.197161
0.200153
0.177465
0.125083
0.182393
0.189869
0.209757
0.258606
0.139781
0.236043
0.189561
0.208682
0.234695
0.174561
0.198273
0.231008
0.248771
0.236179
0.302157
0.218192
0.317347
0.212822
0.204093
0.311859
0.216286
0.211450
0.295330
0.147544
0.205453
0.311860
0.361089
0.343415
0.273280
0.309372
0.335972
0.373067
0.326447
0.381705
0.356253
0.378944
0.371071
0.367150
0.410206
0.391206
0.389695
0.367481
0.393565
0.379132
0.393726
0.377880
0.313598
0.301002
0.340243
0.312546
0.291753
0.261201
0.337202
0.317670
0.351753
0.380842
0.222619
0.272931
0.278747
0.270332
0.309731
0.199549
0.293321
0.283324
0.264718
0.217162
0.272410
0.290434
0.211918
0.176324
0.257515
0.318308
0.261443
0.263340
0.253435
0.200183
0.225118
0.244183
0.230232
0.238916
0.240986
0.260018
0.162580
0.237284
0.233318
0.343162
0.506647
0.785071
1.108066
1.366256
1.500000
1.408291
1.149102
0.975937
0.701706
0.459527
0.198502
0.077253
0.015319
-0.008036
0.127849
0.101737
0.227328
0.186041
0.269236
0.266514
0.196630
0.223644
0.266251
0.301758
0.298421
0.338847
0.263279
0.213138
0.283379
0.276188
0.238196
0.339123
0.311628
0.325824
0.326957
0.353282
0.243663
0.352274
0.291546
0.380727
0.369763
0.322468
0.377139
0.328893
0.439899
0.395455
0.477713
0.476928
0.463807
0.478962
0.481618
0.523170
0.461084
0.569741
0.526554
0.545615
0.555559
0.550686
0.648511
0.602708
0.646546
0.724077
0.672500
0.661240
0.796199
0.689816
0.715391
0.760231
0.674346
0.658980
0.738415
0.762859
0.695985
0.726349
0.647420
0.600171
0.680155
0.617386
0.655849
0.635731
0.566670
0.571703
0.610952
0.559103
0.524916
0.474712
0.440966
0.454773
0.456912
0.430557
0.432597
0.415038
0.396260
0.358766
0.320275
0.347165
0.394321
0.367109
0.267210
0.299419
0.357976
0.300987
0.338172
0.302753
0.296794
0.352747
0.253208
0.318795
0.212618
0.303216
0.274918
0.248088
0.254388
0.270830
0.225821
0.302312
0.335337
0.249938
0.257376
0.339396
0.245703
0.217817
0.229807
0.329051
0.277700
0.254596
0.284035
0.315730
0.243257
0.288060
0.255036
0.258226
0.286573
0.296639
0.166644
0.265465
0.260139
0.226560
0.273340
0.239535
0.341961
0.234379
0.232220
0.272026
0.224663
0.264764
0.219076
0.311580
0.282597
0.284588
0.285520
0.297810
0.311031
0.279046
0.266580
0.268812
0.296582
0.192836
0.188560
0.311242
0.304034
0.267869
0.252895
0.244101
0.204847
0.188984
0.295259
0.231807
0.304245
0.263170
0.229840
0.208126
0.293396
0.250016
0.245027
0.294947
0.225841
0.283337
0.207236
0.250110
0.260900
0.216587
0.296975
0.210809
0.232501
0.275316
0.295035
0.190907
0.248624
0.352578
0.360712
0.336297
0.291013
0.262116
0.298847
0.361779
0.340952
0.403507
0.360651
0.351068
0.398625
0.370227
0.384951
0.374691
0.358727
0.407688
0.386226
0.412931
0.355070
0.355629
0.355187
0.382464
0.413841
0.292131
0.352522
0.340713
0.328541
0.310962
0.393695
0.348606
0.306030
0.287375
0.303684
0.274942
0.225413
0.362096
0.259978
0.290311
0.260250
0.238814
0.267220
0.195378
0.276298
0.248545
0.202885
0.262188
0.274805
0.325281
0.243275
0.295182
0.215594
0.248260
0.209725
0.297129
0.212033
0.211927
0.168263
0.251263
0.267398
0.161304
0.146264
0.135313
0.226475
0.295377
0.504187
0.731507
1.085565
1.235742
1.395720
1.357374
1.233467
0.998746
0.670630
0.387431
0.163988
-0.019085
-0.012695
-0.024111
0.024518
0.066098
0.120605
0.171065
0.186671
0.182401
0.205815
0.215598
0.282342
0.299219
0.135176
0.168406
0.252236
0.200799
0.209164
0.281621
0.252568
0.212212
0.193884
0.305601
0.231726
0.230551
0.293486
0.266563
0.275979
0.265002
0.257983
0.396006
0.296450
0.325175
0.357884
0.343679
0.373604
0.404092
0.432467
0.426437
0.417048
0.385691
0.477754
0.521035
0.414918
0.507633
0.507084
0.550440
0.557343
0.583018
0.546799
0.630525
0.571711
0.585767
0.604527
0.595023
0.641815
0.616100
0.625537
0.650338
0.636675
0.637069
0.671480
0.604750
0.625372
0.546410
0.592602
0.506748
0.558195
0.527378
0.507939
0.480380
0.444441
0.497018
0.445129
0.418961
0.480615
0.391946
0.333447
0.299513
0.348627
0.356935
0.329564
0.322218
0.223111
0.213095
0.225986
0.223388
0.319251
0.291242
0.196070
0.127781
0.250465
0.193631
0.233877
0.240016
0.243408
0.151526
0.196776
0.155470
0.239837
0.206121
0.184710
0.190156
0.150707
0.193649
0.111574
0.191564
0.126046
0.139147
0.219211
0.204307
0.169035
0.226662
0.147154
0.256018
0.144329
0.131203
0.125788
0.083103
0.161211
0.164858
0.154025
0.160807
0.117732
0.233905
0.185782
0.186016
0.228658
0.176522
0.197462
0.123607
0.203532
0.204787
0.195106
0.219588
0.175652
0.137026
0.153967
0.157301
0.190580
0.199723
0.226351
0.122126
0.140128
0.216856
0.159386
0.184922
0.120311
0.175376
0.192173
0.229963
0.160031
0.191350
0.193742
0.140156
0.216748
0.177011
0.127261
0.157960
0.153304
0.205059
0.140974
0.078130
0.121462
0.129101
0.162984
0.227220
0.255425
0.077332
0.163218
0.198313
0.216651
0.233861
0.229580
0.204519
0.193478
0.150322
0.170006
0.186476
0.198196
0.224927
0.202651
0.129124
0.254424
0.173453
0.332902
0.223835
0.258000
0.252974
0.267243
0.266005
0.187549
0.311043
0.324699
0.332678
0.309115
0.271607
0.375354
0.291425
0.335200
0.363424
0.284313
0.258364
0.293073
0.329939
0.301804
0.279473
0.285523
0.246136
0.171761
0.235857
0.238905
0.219483
0.182972
0.211197
0.171958
0.171777
0.176282
0.184469
0.162613
0.201313
0.129796
0.170645
0.154490
0.170563
0.191533
0.189787
0.143039
0.192027
0.138232
0.180313
0.223734
0.117778
0.157297
0.153619
0.136619
0.131952
0.144952
0.145849
0.072275
0.086094
0.080872
0.224695
0.333077
0.525320
0.937744
1.164003
1.307842
1.389810
1.190120
1.076380
0.683995
0.423827
0.193656
-0.033661
-0.005407
-0.039484
-0.066684
0.006220
0.040101
0.161334
0.164941
0.187529
0.120292
0.189965
0.208404
0.219830
0.174355
0.188870
0.262067
0.228463
0.159728
0.216713
0.221566
0.237711
0.203187
0.172712
0.244630
0.242556
0.275180
0.257650
0.291873
0.236797
0.246578
0.276482
0.278758
0.289146
0.307116
0.296455
0.312616
0.266472
0.421510
0.375653
0.398871
0.410989
0.379772
0.399624
0.436340
0.441793
0.484343
0.514145
0.544995
0.483084
0.568792
0.579003
0.665892
0.577825
0.558958
0.617850
0.617874
0.604620
0.668900
0.585580
0.643662
0.682638
0.584375
0.608419
0.574586
0.585811
0.544703
0.452943
0.522733
0.584045
0.543945
0.480081
0.462792
0.414885
0.429163
0.414824
0.407502
0.412002
0.399138
0.305545
0.378108
0.269751
0.351795
0.309246
0.316400
0.342524
0.250760
0.236059
0.241287
0.297916
0.275972
0.240566
0.234464
0.221936
0.271884
0.195238
0.193943
0.206004
0.225645
0.178298
0.230135
0.207514
0.192625
0.162423
0.159190
0.246429
0.257165
0.215647
0.176320
0.192105
0.215400
0.283372
0.209939
0.188892
0.254789
0.176939
0.224957
0.209637
0.338534
0.225160
0.319567
0.176883
0.259351
0.243107
0.200857
0.254416
0.187104
0.161648
0.269971
0.237306
0.325739
0.225432
0.152432
0.194239
0.239187
0.226844
0.245626
0.271115
0.228127
0.252872
0.240568
0.240870
0.209816
0.280044
0.242713
0.246589
0.237478
0.231579
0.256146
0.306253
0.242532
0.188442
0.240464
0.281669
0.174230
0.234363
0.322626
0.277996
0.187923
0.273007
0.249706
0.260703
0.298826
0.244732
0.209739
0.329850
0.241414
0.312191
0.295641
0.317611
0.264708
0.231518
0.223550
0.237080
0.244076
0.351512
0.248701
0.293759
0.282656
0.291430
0.272446
0.236615
0.311003
0.247075
0.264998
0.314366
0.330147
0.354877
0.382469
0.299998
0.319792
0.280117
0.400536
0.353959
0.395610
0.455200
0.386525
0.456945
0.370177
0.370682
0.408976
0.412851
0.396653
0.393857
0.326700
0.408018
0.378538
0.425751
0.411163
0.353126
0.372861
0.364124
0.315906
0.294931
0.283583
0.333004
0.374061
0.280729
0.276348
0.260908
0.288276
0.315193
0.264655
0.339993
0.233929
0.280932
0.256927
0.268684
0.331557
0.293672
0.264357
0.246467
0.293388
0.254589
0.275068
0.309216
0.312357
0.278955
0.316943
0.270620
0.232330
0.233302
0.221915
0.303516
0.380120
0.742176
0.974137
1.222517
1.471633
1.489546
1.392147
1.259331
0.924083
0.676108
0.335980
0.215581
-0.016223
0.017042
0.002728
0.121690
0.100231
0.214129
0.270210
0.235353
0.257398
0.255702
0.282887
0.314210
0.338293
0.302462
0.317168
0.277515
0.302408
0.307662
0.290935
0.338818
0.332394
0.342480
0.264334
0.385185
0.372159
0.358685
0.365499
0.334986
0.372109
0.382313
0.349066
0.459310
0.421834
0.389481
0.390348
0.446177
0.450818
0.473949
0.441153
0.486878
0.565054
0.586811
0.560584
0.627139
0.560245
0.611508
0.651715
0.629269
0.632116
0.704568
0.672974
0.741394
0.701695
0.684304
0.667663
0.729390
0.792856
0.711917
0.715425
0.697194
0.596859
0.678085
0.794990
0.703842
0.656976
0.692722
0.674387
0.656924
0.638262
0.628789
0.604573
0.583845
0.497381
0.511687
0.520422
0.473525
0.472032
0.429018
0.476326
0.402722
0.410228
0.389318
0.383771
0.422970
0.376202
0.342457
0.398116
0.347330
0.413817
0.347097
0.258419
0.367861
0.370246
0.336225
0.307490
0.268558
0.315180
0.304518
0.339271
0.272666
0.330772
0.257014
0.283775
