0.002626
0.025359
0.033994
-0.022676
-0.020166
0.035985
0.024223
-0.060191
0.006342
0.003499
-0.004788
-0.005230
0.024291
-0.016702
-0.023539
-0.019299
0.006707
-0.059624
0.054688
0.115293
0.070735
0.031758
0.027150
-0.001575
0.064224
0.139604
-0.007639
0.153274
0.094064
0.022750
0.014145
0.044884
0.124488
0.132937
0.081239
0.172323
0.042485
0.137453
0.068570
0.175319
0.147275
0.208286
0.139022
0.191619
0.254164
0.143120
0.135103
0.183027
0.192549
0.193853
0.184168
0.248170
0.177428
0.242427
0.137022
0.213497
0.155203
0.072553
0.154512
0.171750
0.047868
0.115477
0.076162
0.122956
0.097681
0.208260
0.018922
0.053150
0.059909
0.084892
0.160186
0.114396
0.050424
0.014137
0.069992
0.068178
0.019489
0.072945
0.041423
-0.002159
0.071104
0.101271
0.074597
0.040233
0.013272
0.017526
0.020882
0.002020
0.066961
0.110158
0.174590
0.402060
0.614039
1.014987
1.285083
1.456366
1.405423
1.177115
0.904694
0.598338
0.281418
-0.059598
-0.207050
-0.212984
-0.250433
-0.101614
-0.029492
-0.006354
0.004417
0.064588
0.168223
0.110699
0.119226
0.026490
0.054340
0.000614
0.082399
0.096763
0.101346
0.164943
0.087425
0.104106
0.188703
0.132350
0.163284
0.099670
0.106771
0.132710
0.191869
0.121475
0.277658
0.164067
0.225228
0.190594
0.265249
0.313822
0.330724
0.399233
0.357497
0.398236
0.412576
0.448031
0.491163
0.489057
0.383149
0.453252
0.527003
0.502611
0.573752
0.639520
0.544126
0.586585
0.569922
0.545810
0.532842
0.545017
0.597937
0.528365
0.605616
0.485049
0.650370
0.582896
0.514825
0.516943
0.602624
0.406266
0.585939
0.418385
0.395751
0.383711
0.329441
0.351653
0.307193
0.347589
0.314778
0.214807
0.261334
0.247092
0.213182
0.149733
0.251257
0.171266
0.087672
0.172958
0.117571
0.155264
0.161488
0.136748
0.151978
0.133952
0.068989
0.098936
0.097027
0.101658
0.085678
0.008373
0.014599
0.074226
0.052038
0.059628
0.060926
0.084433
0.067944
0.105600
0.093690
0.020477
0.108366
0.102256
0.140627
0.117419
0.015185
0.102097
0.175985
0.088377
0.086993
0.077204
0.130446
0.085025
0.159962
0.057573
0.081410
0.064246
0.069199
0.090350
0.006609
0.091260
0.121163
0.091951
0.043816
0.071497
0.056700
0.020031
0.038405
0.199442
0.105339
0.004120
0.003520
0.059067
0.149336
0.028437
0.076878
0.106715
0.053105
0.082470
0.079192
0.070874
0.063419
0.086676
-0.007255
0.137968
0.118626
0.013359
0.078125
0.121618
0.104307
0.076041
0.071788
-0.031412
0.039440
0.085392
0.096049
0.048959
0.123323
0.101105
0.108779
0.131831
0.058860
0.059169
0.094074
0.123360
0.086630
0.057043
0.160496
0.086832
0.219630
0.139924
0.143843
0.206654
0.246560
0.187923
0.291736
0.205511
0.181002
0.293815
0.237754
0.222454
0.295215
0.243529
0.291302
0.274708
0.211306
0.209209
0.256509
0.113162
0.158022
0.244550
0.162835
0.132412
0.156185
0.117271
0.129811
0.145976
0.062022
0.072822
0.054752
0.061466
0.041655
0.024254
0.071447
0.058080
0.080416
0.114219
0.071110
0.099868
0.040682
0.088146
0.122792
0.086724
0.086092
0.013734
0.084130
0.034413
0.023697
0.025405
0.048491
-0.049583
0.017304
0.079466
0.155473
0.425985
0.640379
0.989060
1.304412
1.500000
1.423438
1.264620
0.958890
0.574877
0.253208
-0.010287
-0.261869
-0.255634
-0.219250
-0.129603
-0.093675
-0.046219
-0.032256
-0.005650
0.010172
0.078280
0.049425
0.052525
0.119648
0.059683
0.060984
0.039459
0.103304
0.064110
0.120191
0.078014
0.118572
0.121564
0.073099
0.113576
0.130263
0.148413
0.101945
0.128275
0.187317
0.270514
0.206915
0.208930
0.225208
0.233122
0.183385
0.305566
0.233690
0.313398
0.319412
0.327341
0.406720
0.405161
0.486523
0.455422
0.350739
0.560408
0.471523
0.434690
0.517415
0.492119
0.543606
0.519134
0.523448
0.555305
0.507002
0.497880
0.529366
0.505555
0.497714
0.461387
0.455774
0.448127
0.418988
0.374658
0.375218
0.385816
0.324871
0.284744
0.307111
0.327207
0.319401
0.324345
0.174359
0.119942
0.205747
0.132529
0.137346
0.216770
0.170965
0.086607
0.086365
0.006742
0.049784
0.059606
0.043751
0.064873
-0.014348
0.085431
0.015848
0.051634
0.013542
-0.021126
0.028035
0.045511
-0.047735
-0.006192
-0.019689
0.053047
-0.046931
0.069449
-0.063394
-0.035686
0.002942
-0.054277
0.046972
0.014687
-0.063679
0.031077
0.065718
-0.057840
-0.014604
0.048485
-0.017147
0.000928
-0.037531
-0.067579
0.022988
0.016022
-0.049325
-0.020512
-0.058472
-0.014609
-0.031847
-0.019541
-0.093343
-0.016870
0.100554
-0.035276
-0.115432
0.026098
-0.066525
-0.035587
0.037528
-0.003881
-0.037778
-0.092739
-0.031869
-0.042579
-0.082877
-0.070428
-0.081722
-0.032453
0.006207
-0.054012
-0.030971
-0.046119
0.018253
-0.056707
-0.048843
-0.075462
-0.044554
-0.012415
-0.002360
0.003841
-0.059145
-0.014150
0.028567
-0.084923
-0.031959
-0.012200
-0.001174
0.007906
0.042647
0.009393
-0.011037
-0.006761
0.044382
-0.004936
0.016311
0.071317
0.025233
0.023975
0.023620
0.076355
0.110873
0.048602
0.096394
0.106031
0.087204
0.105789
0.081074
0.114187
0.072703
0.098177
0.032233
0.139074
0.109714
0.002124
0.063140
0.170247
0.059725
0.124436
0.052907
0.097727
-0.019312
0.052430
0.098646
0.058690
0.102567
0.011306
0.008229
0.032172
-0.032567
-0.001699
-0.054809
0.008886
-0.068434
-0.079419
-0.046891
-0.017299
-0.026365
-0.046046
-0.048610
-0.050647
-0.056186
-0.132468
-0.004798
-0.090452
-0.028153
-0.058835
-0.023267
-0.118132
-0.041095
-0.042821
0.024364
-0.098024
0.048329
0.262710
0.539481
0.905233
1.203125
1.290176
1.346391
1.068871
0.827452
0.542544
0.229265
-0.075580
-0.290121
-0.307265
-0.296793
-0.141897
-0.248127
-0.195233
-0.064526
-0.013246
-0.059559
-0.034421
0.054536
-0.015885
-0.045708
0.001446
-0.035571
-0.024551
-0.067603
-0.029982
0.068824
0.075134
0.025773
-0.034590
0.054314
0.047206
-0.009993
0.007622
0.134424
0.096994
0.056414
0.100908
0.097506
0.137435
0.183270
0.140375
0.193519
0.169695
0.184005
0.314571
0.257223
0.276137
0.321722
0.329560
0.392317
0.297916
0.431625
0.412025
0.466455
0.450364
0.399732
0.471665
0.522071
0.512981
0.511927
0.413967
0.513146
0.414481
0.465891
0.464150
0.456637
0.372582
0.424257
0.428593
0.392680
0.381620
0.333196
0.314245
0.310600
0.389769
0.274503
0.236228
0.269650
0.142122
0.233847
0.163827
0.185791
0.056495
0.123076
0.057699
0.113002
0.098878
-0.004502
0.072816
0.061603
0.002154
0.054072
0.044649
0.038560
0.049059
-0.035332
-0.022272
-0.027455
-0.023165
0.059946
0.008227
0.009423
-0.052196
0.018824
0.012848
-0.025027
0.014024
0.027163
-0.055759
-0.054357
0.033682
0.013858
-0.024137
-0.033117
0.060014
0.041766
0.026256
0.006327
-0.040875
0.039196
-0.001849
0.021719
0.010456
-0.034097
0.025461
0.029594
0.044121
-0.006441
-0.018628
-0.060989
-0.025819
0.022915
0.009552
0.023155
0.004573
-0.052537
0.005642
-0.060881
0.033483
0.019444
-0.037822
0.082439
-0.064244
-0.008224
-0.023578
0.002668
-0.011422
-0.013039
0.034218
0.034228
-0.074063
-0.034780
-0.004288
-0.053828
0.086760
-0.023996
-0.004577
-0.009115
0.019862
-0.007412
0.019501
-0.003420
0.061811
0.054831
-0.026323
0.006591
0.037012
0.079471
0.014230
-0.005331
0.083866
0.044638
0.030562
0.046784
0.071773
0.133909
0.131071
0.059063
0.115718
0.123633
0.113813
0.242665
0.183836
0.181744
0.179554
0.196919
0.219022
0.123082
0.267815
0.268635
0.206711
0.181606
0.183882
0.159756
0.173997
0.220600
0.213802
0.211639
0.172506
0.089101
0.129235
0.145357
0.199240
0.206639
0.038017
0.086686
0.102400
0.093039
0.097943
0.053832
0.070860
0.089692
0.078531
0.054478
-0.008038
-0.012300
0.116778
0.155912
0.026098
0.008962
0.046437
0.063325
0.050465
-0.004038
-0.013808
0.054034
0.074273
-0.026779
0.006115
0.042508
0.033899
-0.035837
0.048476
0.067327
0.290748
0.634597
0.845812
1.241470
1.437461
1.421635
1.223717
1.052163
0.617295
0.329266
-0.041036
-0.200384
-0.193193
-0.247927
-0.195566
-0.081079
-0.036980
0.029709
0.023986
0.064853
0.081934
0.096746
0.041065
0.086002
0.053111
0.080994
-0.005584
0.096433
0.121458
0.070896
0.087676
0.119796
0.179493
0.211529
0.202841
0.123190
0.086750
0.200936
0.128481
0.210856
0.252485
0.171581
0.195904
0.265696
0.255789
0.311844
0.294594
0.351260
0.395539
0.426614
0.366439
0.519293
0.487277
0.466665
0.448623
0.554052
0.539831
0.582703
0.559102
0.529161
0.532320
0.564768
0.626273
0.529419
0.657244
0.639257
0.531178
0.578324
0.586844
0.516325
0.451563
0.508712
0.584291
0.508968
0.493422
0.497141
0.452748
0.435011
0.440346
0.350052
0.303928
0.406716
0.280892
0.243317
0.211201
0.259020
0.320043
0.228433
0.302716
0.177030
0.248789
0.182081
0.172087
0.050461
0.232405
0.143537
0.154020
0.133175
0.096631
0.157134
0.118457
0.128617
0.066867
0.112447
0.125923
0.151730
0.021252
0.077435
0.130969
0.001620
0.080673
0.015544
0.067864
0.102708
0.185089
0.067981
0.093746
0.122121
0.080096
0.056227
0.150116
0.011003
0.102800
0.059956
0.093361
0.068734
0.101415
0.058283
0.123245
0.145790
0.103912
0.057918
-0.005569
0.093181
0.077812
0.187620
0.061293
0.020029
0.124706
0.137816
0.135959
0.078677
0.071375
0.124736
0.012870
0.025881
0.060140
0.149011
0.116978
0.048342
0.098508
0.028199
0.088249
0.102280
0.019884
0.148528
0.213222
0.040812
0.106403
0.019024
0.034655
0.078214
0.184073
0.051416
0.132233
0.057299
0.066477
0.034168
0.135458
0.047391
0.122601
0.103099
0.062309
0.080889
0.032782
0.140090
0.174451
0.114611
0.088378
0.230816
0.183115
0.053482
0.143782
0.086825
0.213539
0.198025
0.177071
0.194135
0.239247
0.225689
0.278097
0.273117
0.201156
0.266234
0.270229
0.329100
0.192229
0.217002
0.219918
0.205696
0.193123
0.268148
0.163911
0.270289
0.153241
0.167660
0.136109
0.178943
0.100252
0.131536
0.197454
0.210106
0.059326
0.099603
0.041975
0.009118
0.069603
0.109618
0.066753
0.120112
0.091352
0.134186
0.067032
0.070085
0.068491
0.139616
0.072545
0.128552
0.061477
0.119928
-0.027265
0.007301
0.029579
0.128961
0.058909
-0.009341
-0.070353
0.071860
0.203442
0.520614
0.933906
1.174020
1.409543
1.448141
1.324052
1.052341
0.724015
0.365818
0.001367
-0.079832
-0.156870
-0.227598
-0.174473
-0.127651
-0.119094
0.009715
0.045130
0.042429
0.053276
0.077396
0.072634
0.095712
0.047063
0.084554
0.084607
0.092374
0.133518
0.071148
-0.023925
0.157357
0.049969
0.095918
0.084237
0.106262
0.158240
0.123249
0.115264
0.113759
0.173063
0.191110
0.243880
0.176171
0.154132
0.265207
0.289095
0.245544
0.298054
0.316453
0.378035
0.447195
0.376910
0.469157
0.378019
0.454323
0.416624
0.494873
0.505060
0.472469
0.504177
0.514701
0.569819
0.576294
0.571371
0.519880
0.483829
0.515625
0.541727
0.447098
0.538617
0.471362
0.464125
0.356954
0.403713
0.332962
0.356882
0.343948
0.334648
0.312243
0.236939
0.292106
0.236765
0.272636
0.192934
0.158554
0.181664
0.222784
0.173646
0.201696
0.129833
0.100069
0.099970
-0.005983
0.122291
0.086863
0.107311
0.020780
0.034305
0.038170
0.040652
-0.010051
0.077158
0.066784
-0.021800
0.053462
-0.034015
0.050816
-0.014138
0.012543
0.019255
-0.019442
-0.024098
0.001626
0.006974
-0.017763
-0.048648
0.038794
0.049305
-0.026806
-0.059340
-0.022716
-0.014003
0.011651
-0.049970
-0.010884
-0.068315
-0.016505
-0.034017
-0.035140
-0.039985
-0.002673
-0.074151
-0.058115
-0.073195
0.002489
0.083561
-0.074135
0.028609
-0.091276
-0.030700
-0.032105
-0.010345
0.010162
-0.053658
-0.069147
-0.007166
-0.068945
0.002635
-0.034756
0.039686
0.034338
-0.027495
0.025549
-0.049749
-0.107028
-0.036044
-0.107014
-0.055911
-0.070748
-0.105505
0.052206
-0.142582
-0.006438
-0.020626
0.018627
-0.032469
-0.024148
-0.029120
-0.056272
-0.052548
-0.066259
0.016210
-0.057572
0.072729
-0.025446
-0.021285
-0.085233
0.046163
0.030603
0.050589
0.088069
0.041063
0.034088
0.025302
0.030984
0.058492
0.038688
0.075892
0.041781
0.066345
0.147585
0.113411
0.119075
0.079558
0.147297
0.082286
0.124087
0.137109
0.163125
0.122787
0.128150
0.179150
0.083356
0.030650
0.083511
0.022406
0.016525
0.069468
0.026145
-0.122701
-0.048899
0.034079
-0.067751
-0.027141
-0.125437
-0.049246
-0.070172
-0.049816
-0.083639
-0.101959
-0.024661
-0.076723
-0.044688
-0.023986
0.025396
-0.020079
-0.057240
-0.009677
-0.081349
-0.020879
-0.021492
-0.132372
-0.126670
-0.099767
-0.204301
-0.099954
-0.051823
0.100423
0.426201
0.740132
1.037174
1.290029
1.301903
1.264538
0.928696
0.541338
0.241023
0.012569
-0.260654
-0.345951
-0.330622
-0.296391
-0.237642
-0.119714
-0.201857
-0.095126
-0.190505
-0.088719
-0.040022
-0.085801
-0.066868
-0.066226
-0.024837
-0.105065
-0.011141
-0.060579
-0.016387
0.038947
-0.046645
-0.030157
-0.096853
0.041080
-0.014586
0.042403
-0.036146
0.016211
0.011132
0.058808
0.068615
0.037770
0.170885
0.099640
0.190088
0.183121
0.182034
0.153406
0.148544
0.253980
0.280837
0.268428
0.298181
0.225050
0.330866
0.279665
0.342816
0.350224
0.453489
0.430936
0.448604
0.446536
0.442982
0.445321
0.454345
0.407363
0.416348
0.408556
0.382014
0.425492
0.340459
0.397473
0.349518
0.418734
0.219825
0.255104
0.252723
0.267760
0.211116
0.156214
0.168693
0.134162
0.110772
0.180844
0.133645
0.114966
0.075382
0.101626
0.089062
0.009875
0.066155
-0.008250
0.053808
-0.014597
-0.036207
-0.021372
-0.040473
-0.050862
-0.058433
-0.117310
0.002783
-0.099784
-0.044759
-0.120266
-0.046817
-0.049603
-0.054322
0.019147
-0.029564
-0.092163
-0.071331
-0.088092
-0.083637
-0.080346
-0.086748
-0.096037
-0.066272
-0.031508
-0.114660
-0.030774
-0.139503
-0.143180
-0.124479
-0.135061
-0.095035
-0.085369
-0.169448
-0.098886
-0.102226
-0.203349
-0.137554
-0.000621
-0.023981
-0.087400
-0.033777
-0.036124
-0.131576
-0.106686
-0.093208
-0.120999
-0.057474
-0.035017
-0.012711
0.021419
-0.027000
-0.091678
-0.140158
0.003159
-0.069784
-0.068363
-0.059406
-0.038108
-0.054106
-0.064042
0.028509
-0.049864
-0.102447
-0.084674
-0.009540
-0.093293
-0.049976
-0.060613
-0.057614
-0.044226
-0.011170
-0.019974
-0.022508
0.034990
-0.117562
-0.017522
-0.095949
-0.022886
-0.070795
0.022901
-0.111962
-0.021028
-0.033553
0.033668
-0.007755
0.012539
0.070330
-0.016730
0.012651
0.132107
0.041915
0.042664
-0.020971
-0.005655
0.060755
0.080493
0.187360
0.108027
0.129275
0.125284
0.094281
0.190262
0.091664
0.079738
0.161573
0.129297
0.077267
0.043882
0.120711
0.100956
0.085500
0.032685
0.089149
0.049505
0.031455
0.042199
0.059808
0.041272
-0.027281
-0.009477
-0.062682
-0.004508
0.006532
-0.025396
-0.001131
-0.029426
0.037081
-0.079776
-0.013966
-0.045748
-0.000445
-0.106171
0.003034
0.018150
0.071666
-0.021320
0.052469
-0.065265
-0.018411
-0.048201
-0.038999
-0.117137
-0.043666
0.132837
0.350480
0.785803
1.087766
1.348698
1.402415
1.292512
1.073344
0.663382
0.316312
0.010518
-0.173199
-0.300097
-0.372405
-0.267479
-0.176935
-0.026925
-0.024859
-0.010274
0.026091
-0.039352
-0.060372
0.081136
0.021263
-0.017256
-0.025499
0.016009
0.066898
0.032553
0.060188
-0.035789
0.098717
0.056246
-0.076507
0.003704
0.060233
0.081830
0.131181
0.076906
0.196960
0.144317
0.120781
0.159309
0.153083
0.195106
0.219172
0.299114
0.271945
0.271373
0.272440
0.356725
0.392499
0.422080
0.413963
0.399986
0.359312
0.434957
0.439081
0.470457
0.528205
0.473681
0.538373
0.482842
0.414953
0.558694
0.565631
0.444626
0.454362
0.525676
0.479904
0.483459
0.458743
0.447119
0.440474
0.463966
0.300276
0.402282
0.395910
0.400709
0.289639
0.271007
0.290641
0.217142
0.351102
0.270597
0.216942
0.251518
0.201946
0.216694
0.180413
0.128574
0.140808
0.133203
0.162146
0.098754
0.037937
0.029490
0.059203
0.022860
0.033034
0.027306
0.021985
0.060047
0.063759
-0.020610
0.068172
0.107940
0.036562
0.030352
0.052485
0.059513
-0.049029
0.037377
0.016318
0.068970
0.060657
-0.060334
0.064925
0.052782
0.002087
0.081807
0.090389
-0.004481
0.045659
-0.034517
0.079405
0.056116
0.072490
0.032122
-0.027015
0.079991
0.032221
0.050906
0.070940
-0.065560
0.023371
0.026603
-0.028774
0.005711
-0.030872
0.035255
0.075545
-0.047755
0.056495
0.029765
-0.009146
0.060080
0.094346
0.018587
0.007596
0.094672
0.051884
0.118743
-0.004343
0.052059
0.067423
0.043519
0.012253
0.081903
0.052477
0.034947
-0.020331
0.004222
0.070158
0.078590
0.042590
0.064017
-0.011944
0.092175
0.034019
0.009305
0.015457
0.024977
0.113790
0.006096
0.080694
0.077535
0.084759
0.019033
0.104053
0.113396
0.151519
0.098005
0.097736
0.154570
0.162690
0.155978
0.194007
0.147057
0.173530
0.193976
0.131716
0.216487
0.189163
0.171584
0.173752
0.179950
0.285182
0.296869
0.239968
0.239924
0.165746
0.216677
0.269282
0.089443
0.194441
0.172688
0.142419
0.219301
0.098018
0.170296
0.090069
0.023578
0.024787
0.103698
0.103984
0.059497
0.051439
0.017457
0.080688
-0.007251
-0.022198
0.047213
0.045593
0.049869
0.123886
0.007206
0.012598
0.071571
0.079951
0.100518
-0.038116
0.023308
-0.013816
0.028858
-0.012824
-0.004370
0.031019
0.243132
0.458493
0.746357
1.165297
1.319821
1.445185
1.378431
1.119324
0.750457
0.503894
0.122695
-0.169338
-0.214323
-0.234983
-0.225577
-0.097567
-0.021529
0.007532
-0.068631
0.052031
0.015257
0.087171
0.024073
0.003649
0.005283
0.015910
0.055253
0.020967
0.038850
0.084779
0.019536
0.115454
0.137085
0.082957
0.078096
0.162645
0.125496
0.101726
0.072798
0.174032
0.123705
0.222190
0.222277
0.195791
0.230033
0.265023
0.279478
0.317482
0.254820
0.297247
0.337047
0.328517
0.321875
0.386292
0.361672
0.479116
0.482461
0.490542
0.498756
0.476313
0.468762
0.549470
0.491015
0.523670
0.489880
0.494062
0.507943
0.540206
0.450192
0.503016
0.515258
0.460009
0.502200
0.484569
0.449057
0.402084
0.447982
0.315307
0.335423
0.339899
0.317723
0.276057
0.212951
0.334293
0.164881
0.201376
0.140381
0.116401
0.100490
0.204689
0.155090
0.085328
0.049815
0.064950
0.083238
0.032447
-0.005480
0.066083
0.044148
-0.021136
0.088599
0.012068
0.023037
0.032864
-0.050020
0.026433
0.022379
0.009333
0.034635
0.008570
0.019927
-0.003942
-0.036435
-0.044587
-0.036005
-0.013214
0.013930
0.004201
0.051931
0.006941
-0.044400
0.036022
0.026814
0.017717
0.045993
-0.020407
-0.053837
-0.044254
-0.069426
-0.048796
-0.027259
-0.040457
-0.063430
-0.126469
0.002286
0.018476
-0.004668
-0.040767
0.004466
-0.004819
-0.060738
-0.023168
-0.023978
-0.040748
0.005737
-0.018383
-0.078098
-0.096199
-0.045226
0.035089
0.004286
0.037782
0.044790
-0.092322
-0.135830
-0.016770
-0.078141
-0.018650
-0.134115
-0.070226
0.009773
-0.043558
0.058563
0.000589
-0.063704
0.015837
-0.022085
-0.007907
-0.126021
-0.037223
-0.057848
-0.003274
-0.104452
-0.055592
-0.034432
-0.068686
-0.115922
-0.022245
-0.000614
-0.000831
0.054307
0.024023
0.004890
-0.083899
0.033692
0.034290
0.145391
0.079754
0.127587
0.080890
0.155613
0.076512
0.193385
0.068007
0.153554
0.126109
0.145330
0.129524
0.125820
0.081819
0.129633
0.105027
0.081269
0.011827
0.071817
0.020923
0.041685
-0.021386
-0.001617
0.078624
0.008553
-0.058100
0.050309
-0.096132
-0.048029
0.054601
-0.035600
-0.022302
-0.087401
-0.090482
-0.014670
-0.039674
0.007825
-0.159837
-0.063001
-0.042880
-0.087252
-0.063731
-0.100370
-0.053479
-0.111914
0.011247
-0.121475
-0.120077
-0.169090
-0.179550
-0.080995
-0.027270
0.107282
0.297606
0.625240
0.945805
1.281084
1.357067
1.247048
0.981498
0.613843
0.314169
-0.056861
-0.287041
-0.363107
-0.406419
-0.311314
-0.267068
-0.147262
-0.182285
-0.081613
-0.071144
-0.046607
-0.015006
-0.093071
-0.093092
-0.076779
0.013372
-0.067304
-0.130239
-0.029190
-0.065747
-0.023325
-0.068278
-0.054830
0.009544
-0.058199
-0.035566
0.016321
-0.035375
-0.050020
0.000828
0.140244
0.074179
-0.049291
0.078975
0.060473
0.086768
0.125895
0.178376
0.220854
0.175411
0.243883
0.303478
0.242042
0.273843
0.365351
0.386675
0.415820
0.368489
0.443593
0.416518
0.377411
0.346269
0.403428
0.531535
0.384191
0.393165
0.410085
0.477975
0.304475
0.432334
0.364319
0.374526
0.343857
0.305275
0.318868
0.259224
0.208765
0.296390
0.225207
0.273972
0.156846
0.189718
0.174875
0.145238
0.172426
0.117623
0.155826
-0.010740
0.051790
0.036068
0.006790
0.031698
0.000334
0.010148
0.014413
0.050814
-0.125963
-0.039080
-0.047928
-0.067802
-0.057710
-0.088828
-0.071818
-0.040615
-0.063313
0.040114
-0.176831
-0.027525
-0.095930
-0.030413
-0.121725
-0.095035
-0.094584
-0.075036
-0.041067
-0.035212
-0.062429
-0.092737
-0.062743
-0.088387
-0.132429
-0.008577
-0.212472
-0.087188
-0.048930
-0.126125
-0.091724
-0.108413
-0.136061
-0.136988
-0.008364
-0.079568
-0.044572
-0.076000
-0.134869
-0.020444
-0.103326
-0.166057
-0.152919
-0.168778
-0.133009
-0.034169
-0.158682
-0.037231
-0.062043
-0.132086
-0.154740
-0.039148
0.003361
-0.202396
-0.097186
-0.103038
-0.034279
-0.037774
-0.082116
-0.108072
-0.104257
-0.029043
-0.047073
-0.167267
-0.112710
-0.016768
-0.130886
-0.143127
-0.113841
-0.093482
-0.028130
-0.047157
-0.030729
-0.093909
-0.095430
-0.109795
-0.070418
-0.110506
-0.118471
-0.037524
0.000695
-0.054190
-0.021167
-0.011565
-0.060165
0.022583
0.053325
-0.069976
0.041890
-0.024633
0.034198
-0.039138
0.057767
0.066068
0.099846
0.201693
0.094518
0.156968
0.084713
0.117169
0.076488
0.083005
0.101696
0.099920
0.101436
-0.002876
0.076122
0.076050
0.026878
0.080003
0.014257
0.002224
0.013144
0.062038
0.008271
0.029378
0.052268
0.007098
0.016387
-0.090120
-0.143892
-0.019312
-0.039230
0.009294
-0.008130
-0.088560
-0.065055
0.059924
-0.008719
0.060056
-0.068605
-0.045316
-0.011285
-0.024786
-0.009494
-0.034325
-0.059935
-0.110445
-0.136494
-0.111049
-0.112164
0.015398
0.077194
0.267068
0.643101
1.007016
1.275322
1.433014
1.372077
1.125473
0.817012
0.368630
0.169371
-0.121258
-0.314034
-0.289181
-0.346905
-0.195757
-0.106510
-0.034656
-0.070826
-0.125997
0.057395
-0.029790
0.000414
-0.038633
-0.041776
0.028265
-0.014912
0.028849
0.006126
-0.062247
-0.022240
0.000207
0.011268
0.064223
0.021442
0.042602
0.086009
0.014507
0.078662
0.137578
0.143659
0.175100
0.162638
0.177372
0.119989
0.295456
0.211568
0.364041
0.264251
0.326038
0.391891
0.268299
0.351296
0.378453
0.391924
0.478377
0.362953
0.525304
0.366566
0.472900
0.487471
0.538807
0.482991
0.531708
0.463091
0.519782
0.487299
0.524438
0.527739
0.440222
0.457130
0.501212
0.458778
0.441009
0.413590
0.329230
0.322567
0.406738
0.330487
0.401735
0.320505
0.256690
0.272386
0.227929
0.215867
0.231015
0.091030
0.157659
0.195398
0.102518
0.145108
0.130561
0.143062
0.061735
0.075397
0.120042
0.112098
0.055997
0.063899
-0.008711
0.067306
0.069115
0.068411
0.074122
0.067020
0.027762
0.024558
0.042648
0.042427
0.016682
-0.001269
0.003819
0.012839
0.006833
-0.036689
0.053433
0.055591
0.005680
0.044560
0.064886
0.077783
0.036825
0.064649
0.041334
0.016070
0.074622
0.076709
0.091136
0.010305
0.056503
0.094218
0.077105
0.047937
0.047343
0.047070
0.045812
0.089833
0.021030
0.042241
0.131423
0.047237
0.040791
0.044748
0.050414
-0.010262
0.089787
0.034349
0.022252
0.063053
0.003668
0.049341
0.039326
0.005086
0.093359
0.121366
0.090040
0.086169
-0.023445
0.010167
0.129820
0.096888
0.150563
0.098238
0.153388
0.047344
-0.019526
0.163232
0.062325
0.035326
0.020957
0.106730
0.105556
-0.009017
0.051356
0.071140
0.053646
0.140613
0.131836
0.095347
0.098901
0.188418
0.128724
0.177960
0.100694
0.174805
0.095991
0.150432
0.229514
0.301904
0.166542
0.261483
0.111895
0.201027
0.189403
0.233021
0.226964
0.192161
0.221033
0.166492
0.265050
0.117758
0.210893
0.205944
0.212278
0.194808
0.226549
0.072158
0.200981
0.146558
0.127628
0.157110
0.178550
0.082230
0.129568
0.097159
0.180628
0.061403
0.069207
0.087216
0.050859
0.196094
0.067987
0.049365
0.068723
0.153023
0.095886
0.032918
0.089777
0.085564
0.051886
0.092050
0.095151
0.042814
0.029799
0.028141
0.061322
0.048312
0.139726
0.165487
0.410750
0.727345
1.086798
1.315630
1.400641
1.492140
1.177318
0.939110
0.482678
0.189370
-0.028860
-0.186830
-0.332898
-0.183286
-0.149444
-0.048490
0.081737
-0.009770
0.094970
0.035135
0.012329
0.046319
0.135152
0.089448
0.105050
0.128449
0.033948
0.091592
