-0.067448
-0.013490
-0.029192
0.007955
-0.074754
-0.012833
0.029455
0.095547
-0.012556
0.026422
0.010646
-0.039990
-0.056417
-0.024891
-0.051869
-0.038926
-0.005682
0.030542
-0.011662
0.038944
-0.050723
-0.064332
-0.003423
-0.027041
0.004378
0.013002
0.068782
0.038151
-0.003226
0.086392
0.056152
-0.015738
0.005494
0.035902
-0.019367
0.019554
0.116381
0.072277
0.178872
0.093298
0.047190
0.091012
0.104288
0.009810
0.125468
0.129425
0.092858
0.120398
0.219785
0.210077
0.165722
0.202503
0.199744
0.218059
0.158542
0.085617
0.146172
0.182345
0.237617
0.188043
0.225484
0.156557
0.217759
0.177836
0.191244
0.169994
0.058442
0.085071
0.190177
0.090880
0.072358
0.059582
0.122288
0.145314
0.112088
0.066330
0.074322
0.088425
0.046187
0.060396
0.033076
0.061608
0.116193
0.038700
0.087374
-0.020351
0.027871
0.099202
0.053394
0.076516
0.050246
0.048668
0.089594
0.013623
0.107498
-0.016180
0.036956
0.038457
0.013563
0.103557
0.063993
0.012081
0.002338
0.101401
0.033366
-0.043521
-0.075247
0.028190
0.215680
0.410036
0.699732
1.066786
1.343217
1.438837
1.486751
1.331535
1.008326
0.689020
0.352699
0.098115
-0.087809
-0.228422
-0.292973
-0.286786
-0.212343
-0.090575
-0.072341
0.080922
0.009412
0.090490
0.103412
0.176679
0.109594
0.127950
0.026834
0.017012
0.169498
0.029925
0.091555
0.079129
0.027586
0.095094
0.045945
0.061151
0.117675
0.062751
0.151738
0.042207
0.133256
0.032985
0.116703
0.187754
0.154915
0.084808
0.128257
0.166716
0.097746
0.191913
0.166001
0.206968
0.212702
0.282056
0.343718
0.273796
0.255057
0.291609
0.310714
0.342831
0.371933
0.354598
0.408936
0.461107
0.423617
0.453756
0.452073
0.533245
0.557985
0.525292
0.609329
0.574740
0.619012
0.590177
0.603820
0.612815
0.511309
0.561273
0.576796
0.551953
0.562482
0.564162
0.530654
0.549959
0.562426
0.518241
0.521805
0.452853
0.509535
0.433989
0.407694
0.388508
0.428950
0.367036
0.312845
0.266116
0.267525
0.264452
0.266500
0.281347
0.161184
0.236484
0.220313
0.179552
0.133748
0.074746
0.181530
0.165012
0.197969
0.206302
0.104680
0.143499
0.107652
0.087389
0.061806
0.130605
0.113202
0.105190
0.114520
0.132346
0.109572
0.112384
0.068187
0.079464
0.105406
0.008195
0.151296
0.063781
0.087924
0.133334
0.099231
0.048486
0.139869
0.101713
0.109599
0.102574
0.052014
0.070295
0.091370
0.093772
0.102076
0.135611
0.103417
0.086548
0.091127
0.122963
0.083072
0.107054
0.048293
0.082538
0.106751
0.010275
0.070310
0.008951
0.073649
0.120043
0.165228
-0.011233
0.050665
0.102631
0.132123
0.062854
0.031346
0.103447
0.127884
0.073235
0.110427
0.037334
0.070110
0.017028
0.024880
0.021700
0.114510
0.141214
0.068361
0.090756
0.110083
0.030523
0.074117
-0.017883
0.056519
0.087937
0.055389
-0.028400
0.124298
0.023421
0.092442
0.030463
-0.018185
0.062495
0.082355
0.083299
0.044853
-0.062209
0.191686
0.047656
0.084873
0.086295
-0.005120
0.053560
0.053435
0.132522
0.095002
0.037117
0.135656
0.040478
0.099521
0.104065
0.105002
0.163311
0.043282
0.101872
0.129859
0.156758
0.040731
0.101607
0.128721
0.149225
0.078086
0.095763
0.100830
0.085276
0.103390
0.157926
0.205547
0.174067
0.182005
0.229601
0.197023
0.158640
0.202333
0.193233
0.244941
0.181480
0.152892
0.198284
0.179644
0.231038
0.218707
0.156031
0.162734
0.097690
0.087738
0.154574
0.069211
0.089332
0.125907
0.084016
0.079776
0.034050
0.036983
0.047497
0.020814
0.024637
0.070062
0.043724
0.089414
0.021673
0.049664
0.047791
0.027536
0.108082
0.030994
0.044772
0.003280
0.086991
0.027306
0.022479
0.050026
0.040772
0.054799
0.096860
0.024927
-0.053157
-0.038692
0.061914
0.024026
0.012297
-0.070708
0.012432
-0.025521
-0.013564
0.002007
0.147043
0.438704
0.665428
1.005962
1.247590
1.432793
1.374842
1.253247
0.935935
0.702216
0.317032
0.075822
-0.139579
-0.362746
-0.354022
-0.254658
-0.262433
-0.140355
-0.092241
0.026278
0.030014
-0.017973
-0.013746
-0.002230
-0.044000
-0.023146
0.022943
0.067855
-0.011381
-0.042781
-0.012782
0.037387
-0.024586
0.014740
-0.038354
-0.009522
0.030698
-0.041945
0.051595
0.020873
-0.026515
0.075170
-0.021980
0.067664
0.090640
0.017349
0.118316
0.018884
0.040777
0.110870
0.062770
0.063068
0.147707
0.076187
0.134044
0.172471
0.196730
0.144849
0.218478
0.268117
0.268898
0.326745
0.179155
0.366682
0.329696
0.432980
0.398321
0.380138
0.384957
0.422861
0.503625
0.512831
0.467261
0.450053
0.454793
0.488613
0.481545
0.429930
0.477107
0.478433
0.534731
0.372743
0.437298
0.453841
0.448810
0.402950
0.382370
0.371758
0.323076
0.294215
0.343040
0.372704
0.203651
0.260947
0.271775
0.256801
0.221757
0.092270
0.110628
0.094905
0.157315
0.100658
0.112044
0.148022
0.098210
0.051968
0.091693
-0.051845
-0.075040
-0.019958
0.002763
0.072726
-0.015335
-0.097762
0.051355
-0.057796
-0.033776
-0.039579
-0.010244
-0.008536
-0.006498
-0.073660
-0.000839
0.022902
-0.004138
-0.019706
-0.005065
-0.052352
-0.009522
0.024562
0.020512
-0.009757
-0.080608
-0.042224
-0.101266
0.063657
-0.050034
-0.011723
-0.013719
-0.080559
-0.045051
-0.059612
-0.047935
-0.038056
-0.039180
-0.096053
-0.064234
-0.065497
-0.058087
0.054340
-0.104559
0.029193
0.002475
-0.045522
-0.094423
-0.016804
-0.070069
-0.046645
0.030127
-0.066023
-0.009271
0.033614
0.000883
-0.012747
-0.016035
-0.032574
-0.106185
-0.063676
-0.031931
0.069350
-0.016856
-0.080378
-0.118128
-0.088201
-0.125639
-0.022903
-0.007959
0.018446
-0.075191
-0.037453
-0.073309
-0.018770
-0.029736
-0.029420
0.027238
-0.062258
-0.087326
-0.050036
-0.091226
-0.012078
-0.084996
-0.081010
-0.066723
-0.004404
-0.073879
0.006284
-0.030433
-0.115018
-0.023643
-0.033170
-0.023686
-0.076889
-0.095417
-0.056071
-0.062674
-0.013112
0.000282
-0.051710
0.028670
-0.059744
-0.010021
-0.021404
-0.058791
0.071718
0.003146
-0.014926
0.011603
0.034921
0.001400
-0.009309
0.030657
0.127449
0.172202
0.129780
0.070318
0.118950
0.151393
0.121340
0.134841
0.130310
0.184303
0.079995
0.141302
0.106429
0.126504
0.160766
0.122540
0.140446
0.179802
0.046966
0.084847
0.059466
0.061279
0.071950
0.004602
0.053894
0.096404
0.022514
0.052974
-0.071541
0.046573
0.079517
-0.096317
-0.031103
-0.003529
-0.008969
-0.043607
-0.025544
0.001382
-0.052349
-0.042110
-0.063754
0.025503
-0.014055
-0.045927
0.014998
-0.075113
-0.006441
0.052908
-0.118577
-0.035500
-0.121407
-0.100964
0.003137
-0.015708
-0.082994
-0.052978
0.008437
-0.078757
-0.078512
-0.149530
-0.169373
-0.125540
0.111132
0.234523
0.602841
1.008537
1.276999
1.373973
1.451190
1.201032
0.862057
0.517281
0.321757
0.126806
-0.203457
-0.330153
-0.284358
-0.344107
-0.312909
-0.128063
-0.074888
-0.005667
0.005401
-0.023023
-0.090767
-0.045056
-0.061445
0.026285
0.021005
0.006344
-0.009900
0.027320
-0.050106
-0.002925
0.050645
0.000680
0.073256
-0.018467
0.056998
0.029230
-0.016512
0.012544
0.029775
0.118618
0.022414
0.068368
0.093990
0.089172
0.091301
0.054005
0.061493
0.095197
0.079068
0.116726
0.101015
0.136276
0.113976
0.190583
0.276982
0.171363
0.241729
0.276872
0.218214
0.288276
0.328258
0.342188
0.384554
0.397286
0.474292
0.465265
0.384455
0.445053
0.435607
0.449840
0.491177
0.456143
0.471432
0.535505
0.539191
0.554037
0.554766
0.515232
0.464147
0.566808
0.549432
0.500935
0.477343
0.441564
0.474319
0.424315
0.408480
0.342654
0.340626
0.348804
0.246552
0.361836
0.306098
0.243337
0.260565
0.219917
0.252249
0.172660
0.164082
0.144815
0.115647
0.125259
0.153291
0.014465
0.102871
0.081076
0.171922
0.044066
0.118830
0.079244
0.069028
0.024827
0.056450
0.020898
0.054598
0.015972
0.074384
0.003111
0.053269
0.076158
0.044788
0.108770
0.005469
0.118490
0.073178
0.023164
0.037783
0.012711
0.096063
-0.011945
0.081000
0.180487
0.039529
0.119909
0.000672
0.024888
0.103707
0.068033
0.054092
0.053328
0.021171
0.050494
0.091748
0.103079
0.024746
0.101437
0.093399
-0.015782
-0.041079
0.030034
0.121286
0.033597
0.081124
0.034540
0.130627
0.045407
-0.016517
0.089456
0.161957
0.110696
0.041280
0.033823
0.099798
0.079178
0.051044
0.074317
0.093463
0.033041
0.049055
0.054044
0.072291
0.052651
0.051012
0.116466
0.050664
0.074295
0.027837
0.150128
0.070899
0.123416
0.076855
0.058827
0.100732
0.118332
0.043196
0.122559
0.070726
0.135888
0.083458
0.065296
0.054466
0.129178
0.061697
0.096492
0.101072
0.191836
0.044487
0.155986
0.143243
0.092254
0.126967
0.080195
0.082211
0.076564
0.074416
0.116080
0.066140
0.140114
0.034032
0.096950
0.075189
0.088356
0.142800
0.178080
0.142977
0.165854
0.136174
0.210763
0.207518
0.256551
0.217051
0.193818
0.179424
0.236939
0.196255
0.230884
0.229458
0.309657
0.301509
0.319247
0.380915
0.310671
0.236304
0.276881
0.183919
0.267845
0.249719
0.239055
0.229238
0.206034
0.249018
0.210915
0.117501
0.150924
0.070394
0.114254
0.154627
0.103743
0.091197
0.105453
0.153339
0.147515
0.152101
0.091052
0.176217
0.080823
0.128045
0.116495
0.148374
0.122435
0.063757
0.143832
0.151950
0.168978
0.119038
0.076043
0.059913
0.096371
0.042430
0.151791
0.057588
0.115966
0.114744
0.065880
0.074479
0.060171
0.092417
-0.075829
0.048183
-0.023997
0.049590
0.225583
0.462340
0.728676
1.064818
1.470536
1.495890
1.500000
1.251294
0.967276
0.624599
0.387099
0.115575
-0.035773
-0.149828
-0.254458
-0.196702
-0.160501
0.025428
-0.083442
0.027799
0.029022
0.075662
0.074583
0.110240
0.110497
0.019890
0.117819
0.066798
0.102207
0.018795
0.148570
0.171807
0.117879
0.095679
0.057267
0.097333
0.162188
0.080632
0.047292
0.083499
0.129732
0.106500
0.071254
0.145155
0.235019
0.138627
0.149947
0.170923
0.180121
0.202592
0.183388
0.244951
0.221391
0.310307
0.201695
0.226707
0.382612
0.262413
0.381503
0.378609
0.364425
0.368586
0.450018
0.427243
0.484966
0.489143
0.485963
0.446711
0.467875
0.483451
0.487101
0.543645
0.562251
0.487874
0.532506
0.577361
0.591578
0.565338
0.590778
0.629158
0.590029
0.504092
0.568511
0.488281
0.403638
0.510632
0.484468
0.520008
0.491969
0.509825
0.429007
0.351444
0.396554
0.351457
0.273373
0.370016
0.265372
0.303102
0.229022
0.271437
0.201792
0.260387
0.240227
0.135505
0.113809
0.105270
0.169932
0.163286
0.094996
0.135318
0.076946
0.105991
0.106811
0.095199
0.116036
0.095299
0.043343
0.049313
0.045374
0.026555
0.046165
0.067255
0.079664
0.083297
0.010428
0.046504
0.084175
-0.006372
-0.008037
0.048759
-0.004961
-0.034120
0.018362
0.011285
-0.003799
0.032362
0.088390
0.094059
0.030615
0.047946
0.056735
0.046945
0.086463
-0.064063
-0.053152
0.010928
-0.012174
0.013231
0.096400
-0.014980
0.023103
0.035017
0.067792
-0.002159
0.001987
0.111382
0.049664
0.028387
0.091040
0.051359
0.072542
0.061359
0.029752
0.006692
-0.008102
0.013923
0.000756
0.098739
0.027902
0.080622
-0.002202
0.027945
0.059337
0.050435
0.037278
0.012006
0.038381
0.046178
-0.030925
-0.039311
-0.058412
-0.026086
0.027938
-0.040674
0.079954
-0.024586
0.002531
0.045629
0.002323
0.093108
0.015253
-0.014153
0.021651
0.111837
0.010816
-0.041734
-0.000438
-0.055254
0.029571
0.008918
-0.052537
-0.017749
0.041665
0.010877
0.029234
-0.012961
-0.062586
-0.002008
0.056167
-0.005976
-0.014294
0.009093
0.088264
0.058018
-0.002319
0.070713
0.026291
-0.009063
0.105592
0.065331
0.073181
0.129928
0.072667
0.122903
0.093912
0.044643
0.145916
0.153514
0.189493
0.119610
0.109089
0.162903
0.121566
0.206191
0.151319
0.132933
0.055053
0.140906
0.071584
0.090140
0.058985
0.075492
0.114417
0.022889
-0.016401
0.019030
0.044797
-0.014467
-0.049932
-0.087688
-0.050573
0.086795
-0.011151
0.029787
0.037044
-0.017986
-0.020840
-0.098776
-0.074135
-0.010000
-0.061715
-0.063517
-0.031083
0.040940
-0.020249
-0.090765
-0.023439
-0.084849
-0.037765
-0.079840
0.009251
-0.149090
-0.000235
0.003812
-0.001921
-0.121701
-0.021559
-0.055364
-0.024906
-0.126583
-0.206276
-0.115880
-0.078052
-0.033238
0.338277
0.665068
0.966338
1.273126
1.324181
1.352261
1.182080
0.813354
0.581430
0.210637
-0.023702
-0.132978
-0.255451
-0.443171
-0.359856
-0.264887
-0.154238
-0.170529
-0.052305
-0.102549
-0.127741
0.004177
0.008893
-0.047349
-0.044730
-0.084973
-0.032176
-0.041798
-0.092110
-0.089074
-0.094159
-0.109878
-0.008931
-0.074317
-0.050031
-0.022298
-0.057663
-0.122796
0.069274
-0.032854
-0.064110
-0.056802
0.021552
-0.029022
0.037563
0.033715
0.022387
0.054574
0.055710
0.049699
0.049406
0.107288
0.074973
0.047291
0.124735
0.043491
0.118735
0.242093
0.193697
0.208533
0.272391
0.257053
0.245424
0.268927
0.301678
0.345437
0.399885
0.375773
0.341164
0.390392
0.436847
0.437465
0.466313
0.403971
0.491049
0.403274
0.514539
0.425666
0.403054
0.450903
0.375139
0.372872
0.273315
0.338033
0.454780
0.362697
0.281168
0.323693
0.240351
0.208321
0.277702
0.270631
0.221957
0.208050
0.156150
0.133371
0.093893
0.126549
0.174107
0.033530
0.039826
0.004252
0.055486
0.058219
0.053620
0.015287
0.003894
-0.046233
-0.022804
-0.028892
0.005264
-0.099540
-0.055040
-0.011645
-0.063958
-0.032316
-0.144312
-0.068632
-0.136208
-0.086218
-0.014063
-0.132777
-0.073438
-0.025915
-0.138868
-0.059980
-0.064281
-0.049546
-0.078343
-0.064363
-0.055501
-0.071862
-0.100369
-0.121761
-0.080328
-0.033097
-0.090437
-0.134471
-0.048791
-0.049895
-0.068041
-0.077620
-0.055499
-0.119403
-0.043886
-0.065926
-0.002315
-0.022827
-0.031540
-0.056508
-0.047237
-0.060496
-0.140312
-0.041303
0.021510
-0.146352
-0.069090
-0.022133
-0.028286
-0.045147
-0.061062
-0.015119
0.014959
-0.014299
-0.130161
-0.072225
-0.102121
-0.102709
-0.112422
-0.089371
-0.038534
-0.033033
-0.119945
-0.089338
-0.029167
-0.093606
-0.029117
-0.033303
-0.060591
-0.032982
-0.069430
-0.047990
0.054922
-0.073013
-0.138542
-0.127341
-0.066123
-0.116358
-0.095352
-0.043555
0.000225
-0.091019
-0.097692
-0.018349
-0.088345
-0.038039
-0.073641
-0.056940
0.027762
-0.116536
-0.085488
-0.063088
-0.060330
-0.057184
-0.134168
-0.088991
-0.000541
-0.112784
-0.032445
0.054259
-0.001673
-0.031991
-0.028076
0.052426
0.046411
-0.025992
0.003228
0.049857
0.025426
0.039825
0.077244
0.042459
0.033211
0.161298
0.122689
0.100878
0.157070
0.063529
0.144666
0.154998
0.156354
0.159338
0.130158
0.133938
-0.008930
0.156074
0.070868
0.083472
0.037173
0.024460
0.021341
0.170656
0.011080
0.116354
0.068279
0.031453
0.129576
0.118470
-0.076452
0.014696
0.035673
-0.036187
-0.036601
0.025306
-0.027881
0.017867
-0.054749
0.030866
0.017895
0.000506
-0.011035
-0.008496
0.019172
-0.021176
-0.081606
-0.070000
-0.014849
-0.038409
-0.011162
-0.029200
0.005502
0.005755
-0.025934
-0.024089
-0.028195
-0.003132
-0.087467
-0.040588
-0.072663
-0.090785
-0.080128
-0.063320
0.178727
0.275039
0.602579
0.930796
1.288665
1.442328
1.349152
1.197170
0.978872
0.564271
0.333404
0.101223
-0.218319
-0.188215
-0.353052
-0.351809
-0.257719
-0.181959
-0.086192
-0.101334
-0.012805
0.016387
-0.028138
0.035440
-0.044251
0.010713
0.016268
0.037791
-0.098326
0.080350
-0.038105
0.034614
0.014469
0.012188
-0.042180
0.046000
0.001318
-0.045044
0.039804
0.086832
0.037040
0.094583
-0.014883
0.049691
0.043340
0.089630
0.132724
0.041231
0.071950
0.082437
0.165803
0.140874
0.189310
0.174148
0.194238
0.198964
0.222174
0.322981
0.233477
0.301421
0.218167
0.383040
0.337185
0.338009
0.378733
0.461931
0.542889
0.429134
0.497171
0.436010
0.501124
0.501152
0.477005
0.508302
0.512243
0.567649
0.556333
0.588705
0.542384
0.547915
0.494895
0.563452
0.399229
0.493150
0.533561
0.462345
0.396867
0.395680
0.411709
0.426452
0.356134
0.329541
0.313265
0.281068
0.297179
0.278059
0.257789
0.269813
0.165297
0.164402
0.127160
0.151571
0.192586
0.090043
0.088826
0.139443
0.135478
0.069940
0.114527
0.021013
0.060924
0.103575
0.044773
0.046539
0.066139
0.039850
0.106243
0.026816
0.018382
0.038431
0.110478
0.047916
0.020832
0.005663
-0.041875
-0.039298
-0.007668
0.156283
0.110349
0.119218
0.092522
0.026157
0.039449
0.000907
0.086305
0.057621
0.033892
0.136161
0.024263
-0.021573
-0.014722
0.030559
0.051521
0.004116
0.078084
0.000881
0.002087
0.059976
0.052098
0.014955
0.062243
0.138551
0.030052
0.010241
-0.009074
0.047805
0.040394
0.050208
0.031340
0.035086
0.053317
-0.054545
0.108762
0.059036
-0.029172
0.052929
0.032568
0.075861
0.035771
0.082721
0.112802
0.117198
-0.016924
-0.061686
0.004162
0.015399
0.044513
0.075645
0.051112
0.027540
0.081709
0.032793
0.087611
-0.009138
0.084936
-0.003728
-0.030359
0.062875
0.070695
0.038073
0.046578
0.075246
0.103103
0.031928
0.072718
0.023243
0.016800
0.048735
0.037516
0.127691
0.031415
0.006302
0.028100
0.051538
0.059299
0.119308
0.083138
0.040866
0.061111
0.112129
0.070506
0.050134
0.027998
0.057185
0.074613
0.104327
0.012994
0.168612
0.111632
0.220541
0.063757
0.167812
0.197976
0.134965
0.236499
0.169874
0.134220
0.114516
0.129031
0.204798
0.219552
0.161245
0.231925
0.200070
0.191499
0.261302
0.172040
0.213872
0.207284
0.228682
0.196944
0.066714
0.150155
0.159093
0.158377
0.098024
0.097410
0.097218
0.111525
0.053734
0.007940
0.045743
0.024925
0.079969
0.009404
0.088226
0.076931
0.100144
0.072680
0.086417
0.112935
0.084192
-0.015373
0.041797
0.018756
-0.039274
0.006641
0.003166
0.002847
0.061136
0.078311
0.044092
0.078436
0.031584
-0.010646
-0.020600
0.056201
0.099969
-0.058837
-0.052505
-0.087842
-0.138485
-0.024125
0.077781
0.333885
0.679578
0.963471
1.298290
1.442165
1.420492
1.273285
1.024042
0.649346
0.406879
0.026213
-0.116868
-0.238506
-0.327963
-0.307809
-0.246992
-0.209488
-0.091437
-0.049294
-0.026312
0.003133
-0.022199
-0.033753
0.006030
-0.026459
0.009856
0.063080
-0.022503
0.032078
0.019341
-0.028744
0.013552
0.015847
0.005562
0.013140
0.059194
-0.041302
0.048061
0.015811
-0.034748
0.024391
0.016417
0.009808
0.087954
0.039764
0.035236
0.108736
0.085006
0.050306
0.111466
0.195754
0.156615
0.071997
0.093535
0.171302
0.182751
0.179790
0.243129
0.291053
0.278329
0.407430
0.386452
0.378187
0.350343
0.421719
0.409693
0.335738
0.317473
0.463090
0.454633
0.545196
0.463103
0.525931
0.374007
0.492120
0.503672
0.438761
0.507785
0.472408
0.430887
0.405866
0.472090
0.406146
0.393661
0.386756
0.402623
0.394501
0.337370
0.353552
0.291307
0.354943
0.316081
0.229991
0.165970
0.125336
0.196062
0.188886
0.134304
0.127567
0.187149
0.063485
0.007254
0.074538
-0.052758
0.026906
0.012268
0.058102
-0.028493
0.027004
-0.007147
-0.084550
-0.008223
-0.056838
0.028158
0.029332
-0.044513
-0.004195
-0.007022
-0.092500
-0.051092
-0.109741
-0.106025
-0.092001
-0.023692
-0.049332
-0.112828
0.060758
-0.043146
0.021899
0.021917
-0.058515
-0.065534
0.003869
-0.082653
-0.063854
-0.048604
0.021253
-0.053013
-0.092830
0.030849
-0.050924
-0.018857
-0.022370
-0.144401
-0.090533
-0.080832
-0.070082
-0.029789
-0.135197
-0.054648
-0.104756
-0.102495
-0.055461
-0.043236
-0.089136
-0.030444
-0.030903
-0.046923
-0.062098
-0.012020
-0.043139
-0.024773
-0.068590
-0.120703
-0.029435
-0.123170
-0.109048
-0.090184
-0.054024
-0.088830
-0.104195
-0.011651
-0.036220
-0.073935
-0.152097
-0.034081
-0.179042
-0.058454
-0.175340
-0.195163
-0.098892
-0.073214
-0.129059
-0.095775
-0.093415
-0.069384
-0.110340
-0.080451
-0.073786
-0.054054
-0.095378
-0.085672
-0.151799
-0.058097
-0.029520
-0.073005
-0.160899
-0.083040
-0.051985
-0.156174
-0.004626
-0.155106
-0.075219
-0.112307
-0.108855
-0.068629
-0.076560
-0.126021
-0.068740
-0.060108
-0.071336
-0.051387
-0.111097
-0.111613
-0.158503
-0.065690
-0.005273
0.034140
-0.043658
-0.098414
0.015331
-0.010237
0.069746
0.090153
-0.001111
0.120201
0.079607
0.103192
0.058911
-0.023661
0.132360
0.087240
-0.013108
0.195789
0.046930
0.057211
0.033707
0.038541
0.036209
0.018123
-0.000045
0.064194
0.007274
0.010587
-0.034151
-0.044875
0.021157
-0.139474
0.017260
-0.049573
-0.082709
-0.011576
-0.171366
-0.103811
-0.103868
-0.122481
-0.054849
-0.097976
-0.182551
-0.007329
-0.137336
-0.146424
-0.093600
-0.106732
-0.124723
-0.156875
-0.047312
-0.142392
-0.064360
-0.174672
-0.150434
-0.142301
-0.051269
-0.023807
-0.091908
-0.154990
-0.114028
-0.140432
-0.158089
-0.205123
-0.196112
-0.130963
0.053727
0.310061
0.550542
0.855586
1.134719
1.290647
1.266775
1.145962
0.872332
0.511697
0.290717
0.000180
-0.269865
-0.402388
-0.473203
-0.421166
-0.293407
-0.202884
-0.196921
-0.094862
-0.096659
-0.138836
-0.034715
-0.042770
-0.042692
-0.132010
-0.100926
-0.104582
-0.115914
-0.081600
-0.077353
-0.072961
-0.017625
-0.051227
-0.067602
-0.106634
-0.031883
-0.057599
-0.078663
-0.185404
0.023493
0.010367
-0.087409
-0.109260
0.025468
-0.011926
-0.009036
-0.046173
0.034112
-0.013144
-0.005507
0.015641
0.031368
0.035033
0.133756
0.134585
0.064748
0.110957
0.211708
0.194703
0.185448
0.220406
0.255488
0.214546
0.261070
0.317110
0.286114
0.382990
0.311239
0.405332
0.402328
0.306446
0.431516
0.433584
0.438896
0.408721
0.495784
0.412668
0.425890
0.432017
0.415085
0.474946
0.392844
0.271413
0.259414
0.399481
0.344348
0.330818
0.273973
0.298067
0.272610
0.261471
0.209727
0.183542
0.137875
0.167830
0.125594
0.128971
0.137486
0.017037
0.047989
0.147916
-0.021356
0.123806
0.057267
0.123686
0.112984
-0.029359
-0.021712
0.007598
-0.029100
0.005903
0.075612
-0.073838
-0.006196
-0.024965
-0.001984
-0.108608
0.030687
-0.050189
-0.049831
-0.044713
-0.086198
-0.063456
-0.010393
0.000409
-0.049965
-0.110325
-0.123421
-0.042644
-0.056380
0.001997
-0.027758
0.041203
0.022870
-0.046143
-0.146652
-0.037329
0.031835
-0.118830
0.005922
0.003765
0.004782
0.019134
-0.044419
-0.038084
-0.066392
0.012097
-0.089035
-0.028828
-0.059672
-0.048807
-0.097177
0.023632
0.010880
-0.032264
-0.092492
-0.046350
-0.027666
-0.044179
-0.018732
-0.013643
-0.036311
-0.054927
0.022389
-0.015720
-0.050085
-0.017917
0.042220
0.011690
-0.023803
-0.093591
-0.013699
-0.008964
-0.100346
0.116987
-0.022237
-0.074747
-0.013985
-0.011698
-0.035792
0.037634
-0.081410
0.068336
-0.018095
-0.040996
-0.051026
0.109945
0.068168
-0.043466
-0.023994
0.029153
0.010607
0.033797
0.008770
-0.047135
-0.060643
0.027695
0.025120
0.022832
0.038114
0.019293
0.102785
0.047798
-0.007923
0.023892
-0.039494
0.026944
0.018081
0.042178
-0.020245
0.009207
0.027205
-0.036018
0.087335
0.014935
0.039777
0.075006
0.119981
0.122115
0.115502
0.062859
0.067155
0.151071
0.068208
0.145610
0.144671
0.015492
0.116839
0.237003
0.135265
0.214620
0.160205
0.202686
0.197572
0.164762
0.229287
0.165149
0.111507
0.180578
0.080523
0.138601
0.152274
0.191855
0.071196
0.072652
0.101080
0.065116
0.050536
0.082401
0.066087
0.109581
0.070251
0.024032
0.060782
-0.037298
0.045958
0.016350
0.092705
0.034655
-0.036063
0.086361
0.045665
0.046915
0.002959
0.139074
0.017438
-0.018340
-0.024884
0.035068
0.015426
0.041863
0.046729
0.050929
0.067449
0.035001
0.051000
0.020281
-0.009120
-0.038909
-0.097482
-0.068893
-0.014197
0.121100
0.346086
0.632999
0.974914
1.286803
1.450149
1.483029
1.276413
1.054777
0.676524
0.326773
0.121325
-0.156142
-0.215643
-0.275785
-0.249720
-0.270570
-0.122984
-0.031242
-0.054566
0.057968
0.045293
0.063435
0.057927
0.005294
-0.021015
0.084321
0.075656
0.014335
0.150461
0.107235
0.023140
0.097766
0.009208
0.093168
0.054401
0.136977
0.047776
0.098962
0.171924
0.041251
0.053566
0.069594
0.069750
0.137836
0.172736
0.173943
0.128588
0.110765
0.187435
0.288636
0.076947
0.240642
0.148099
0.259292
0.293386
0.274219
0.310406
0.362229
0.338681
0.253485
0.365967
0.423334
0.449019
0.452389
0.477069
0.478720
0.402756
0.490944
0.552247
0.609871
0.456749
0.575406
0.550372
0.644725
0.643505
0.613064
0.571371
0.512070
0.608738
0.557350
0.561348
0.534132
0.479201
0.500564
0.479527
0.491869
0.497212
0.382887
0.412084
0.334781
0.322600
0.336259
0.324977
0.293260
0.324012
0.306435
0.326230
0.282446
0.192420
0.209021
0.172885
0.181530
0.174335
0.160065
0.102391
0.057596
0.148388
0.078624
0.103654
0.173617
0.125913
0.094648
0.104619
0.079391
0.089410
0.158651
0.087497
0.131430
0.020982
0.043141
0.075469
0.058681
0.130501
0.132141
0.068074
0.072004
0.038330
