0.035243
-0.071532
-0.092837
-0.006986
0.007816
0.021850
-0.037821
-0.010897
-0.022801
0.009289
-0.004966
-0.010559
-0.030834
0.015873
0.033009
0.049741
0.028825
0.031572
-0.008884
-0.024299
0.075706
0.082563
0.070830
0.025847
0.089799
0.075065
0.102946
0.071962
0.201322
0.222316
0.131571
0.129800
0.165998
0.157791
0.180940
0.135975
0.223334
0.234053
0.192730
0.228787
0.156374
0.232487
0.219880
0.236389
0.120242
0.225422
0.207951
0.151346
0.184552
0.162590
0.113504
0.090630
0.153588
0.071991
0.111990
0.096930
0.027101
0.116111
-0.041443
0.035232
0.094416
0.125170
0.118371
0.033344
0.035020
0.021946
0.034342
0.040015
0.204163
0.373452
0.793075
1.077678
1.326223
1.456654
1.340522
1.175829
0.793481
0.444583
0.086716
-0.090119
-0.142767
-0.109497
-0.062398
0.007386
0.054016
0.109772
0.132617
0.051897
0.160889
0.125002
0.196843
0.153537
0.194276
0.243807
0.150612
0.265502
0.136615
0.194244
0.296463
0.188129
0.282149
0.408489
0.312190
0.313283
0.370527
0.455011
0.450384
0.508013
0.518298
0.490722
0.591618
0.560992
0.613701
0.581262
0.570835
0.552968
0.644047
0.526624
0.592588
0.586031
0.609449
0.497897
0.601040
0.601728
0.573397
0.560700
0.550160
0.544733
0.604129
0.556461
0.423911
0.425800
0.463130
0.442792
0.337989
0.377115
0.416360
0.355240
0.282782
0.318058
0.323327
0.356557
0.204625
0.265023
0.210590
0.215672
0.203372
0.207689
0.132703
0.098069
0.126723
0.160817
0.140511
0.151565
0.098222
0.133988
0.140783
0.117271
0.080216
0.125202
0.043320
0.127260
0.113076
0.113357
0.118615
0.139890
0.144932
0.069993
0.075050
0.031745
0.113732
0.018326
0.085400
0.117832
0.079370
0.058848
0.045119
0.057798
0.165441
0.056405
0.069023
0.113473
0.097651
0.108961
0.121920
0.047215
0.093582
0.012718
0.123996
0.106806
0.031824
0.147498
0.087324
0.105871
0.114623
0.073225
0.105953
0.069369
0.140922
0.136379
0.060727
0.045223
0.111228
0.056061
0.074901
0.198390
0.193701
0.125656
0.187821
0.194611
0.265556
0.252855
0.227219
0.317584
0.165324
0.289590
0.238663
0.244644
0.311306
0.296337
0.207651
0.163250
0.258791
0.269315
0.228151
0.255255
0.232549
0.283776
0.174760
0.182007
0.232283
0.210093
0.270320
0.207328
0.140694
0.121323
0.117231
0.160515
0.177590
0.059827
0.160212
0.102245
0.007468
0.103550
0.075276
0.062641
0.123480
0.011972
0.001509
0.113878
0.158263
0.298466
0.402153
0.758775
1.141420
1.371986
1.471532
1.458002
1.223039
0.785851
0.399597
0.138056
-0.028872
-0.116453
-0.173895
-0.022613
-0.040349
0.124908
0.156172
0.091548
0.119772
0.082961
0.193203
0.189771
0.253692
0.205223
0.108181
0.226383
0.208779
0.332571
0.210384
0.238116
0.195677
0.343346
0.351742
0.404517
0.328544
0.425746
0.466884
0.494505
0.447551
0.540570
0.481364
0.442634
0.497076
0.537619
0.631169
0.540274
0.562992
0.641443
0.647082
0.522869
0.576643
0.617433
0.623118
0.610628
0.609761
0.537194
0.547218
0.532342
0.579661
0.455165
0.482503
0.414588
0.456844
0.422169
0.438010
0.337532
0.368092
0.388294
0.297040
0.326041
0.229032
0.267654
0.235402
0.221181
0.242568
0.239570
0.187008
0.186214
0.094602
0.143780
0.132024
0.141062
0.024222
0.029151
0.079340
0.117323
0.044003
0.047050
0.033799
0.018994
0.118857
-0.009728
0.055153
0.019556
0.021215
0.052871
0.082508
0.044618
0.116529
0.116126
0.054230
0.063036
0.074611
0.032286
0.024250
0.024359
0.159501
0.042956
0.051431
-0.019457
0.112252
0.005539
-0.037397
0.033195
0.064631
0.024848
0.000641
0.000882
0.058652
0.038346
-0.065876
-0.022075
0.000573
-0.000724
0.109044
0.083982
0.017818
0.051899
0.003169
0.035753
0.049936
0.052234
0.084335
0.175079
0.125906
0.114243
0.063194
0.017823
0.089506
0.020432
0.107669
0.081435
0.125382
0.129814
0.210046
0.207239
0.217018
0.184507
0.161273
0.228009
0.212223
0.296594
0.131726
0.271607
0.197184
0.203076
0.186175
0.222924
0.229723
0.081224
0.077745
0.105173
0.089644
0.067398
0.099514
0.093062
0.093101
0.113383
0.070219
-0.046366
0.022041
-0.024739
0.016478
0.088238
0.042661
0.052271
-0.095660
0.044326
-0.003140
0.000158
0.024843
0.092082
0.149322
0.423261
0.723740
0.976183
1.301770
1.397955
1.319148
1.085448
0.649263
0.319003
0.048424
-0.134039
-0.171261
-0.235186
-0.097191
-0.073701
0.028126
-0.003782
0.010311
-0.003491
0.057795
0.055857
0.166817
0.142279
0.114213
0.230540
0.073487
0.215910
0.179269
0.152661
0.120788
0.206235
0.246532
0.217708
0.214109
0.277512
0.320009
0.357927
0.315617
0.416021
0.342729
0.371294
0.455383
0.445381
0.426400
0.549384
0.462917
0.554295
0.476404
0.545541
0.447529
0.443091
0.467345
0.507966
0.512245
0.484083
0.468470
0.428151
0.476823
0.428031
0.396020
0.440668
0.284576
0.271493
0.326266
0.396098
0.230722
0.288563
0.271378
0.330935
0.193423
0.192329
0.130255
0.113293
0.120980
0.037944
0.080656
0.070879
0.081505
-0.014871
-0.027377
0.015876
0.064833
0.060431
-0.003150
0.014063
-0.044488
0.011204
0.009550
0.092136
0.030822
-0.057281
-0.000755
0.048309
0.049738
0.026163
-0.026934
-0.052909
-0.050521
-0.037205
-0.036067
-0.087518
-0.109976
-0.092951
-0.037755
-0.081912
-0.046324
-0.080086
-0.008711
-0.014265
-0.152483
-0.001181
-0.055657
-0.068085
-0.026222
-0.010144
-0.025902
0.001770
-0.005913
-0.121771
-0.090866
-0.094757
-0.074000
0.025855
-0.041162
-0.017420
-0.046284
0.042804
-0.066561
-0.062142
-0.093836
-0.037274
-0.028244
0.012728
-0.036327
-0.034441
-0.042596
0.037442
0.045285
0.055431
0.046374
0.120116
0.137308
0.104884
0.242992
0.187843
0.150014
0.076721
0.104967
0.187469
0.188216
0.107879
0.109876
0.109435
0.129418
0.137059
0.131404
0.100085
0.121847
0.093612
0.090009
0.076839
0.062116
0.004199
0.002037
0.095828
0.005422
-0.000922
-0.064107
0.002508
-0.087507
-0.071171
-0.044785
-0.081584
0.021430
0.033682
0.074794
-0.115393
-0.040784
-0.065969
-0.057100
-0.037139
0.025371
0.095288
0.328317
0.628796
0.999760
1.284128
1.465502
1.181644
1.036335
0.583360
0.235660
0.006317
-0.335078
-0.249647
-0.199506
-0.093554
-0.064778
0.008713
0.041105
0.085042
-0.009542
0.086996
0.016543
0.027169
0.106654
0.098217
0.060958
0.015418
0.059710
0.136263
0.098200
0.172303
0.226762
0.262661
0.229176
0.268246
0.369416
0.277235
0.332031
0.310486
0.306859
0.400122
0.408976
0.416736
0.400453
0.378318
0.461847
0.503238
0.502740
0.482468
0.533278
0.479463
0.524375
0.478845
0.493713
0.497471
0.517038
0.423078
0.529490
0.468268
0.427349
0.403650
0.428182
0.434090
0.364794
0.377079
0.351456
0.253782
0.287663
0.367634
0.195555
0.235449
0.149122
0.154018
0.226736
0.209217
0.093757
0.011707
0.106673
0.137486
0.041008
0.109615
0.065714
0.059794
0.136975
-0.022294
0.064776
-0.001253
0.026519
0.004701
0.009183
-0.006699
-0.037292
0.010586
0.009575
-0.010911
-0.024652
0.019536
-0.019095
-0.017848
0.064373
0.014459
0.060188
0.023589
0.083409
0.069490
0.090666
-0.103656
0.002805
-0.046953
0.048350
0.037625
0.008940
-0.037109
-0.002219
-0.040267
0.079807
0.058560
0.018123
-0.006533
-0.039050
-0.061085
-0.046474
0.029933
-0.012237
0.032675
-0.125774
0.027762
0.049161
0.095931
0.017244
0.010932
-0.015916
-0.002760
0.044083
0.056112
0.084380
0.073053
0.139660
0.121738
0.087699
0.109512
0.151616
0.179930
0.246483
0.137945
0.208711
0.146739
0.216021
0.211314
0.220909
0.310181
0.237760
0.237827
0.184112
0.213278
0.242402
0.173778
0.248214
0.186297
0.199863
0.145263
0.217764
0.265670
0.104586
0.145002
0.141734
0.109523
0.086636
0.140044
0.029564
0.080454
0.055942
0.078502
0.047484
0.082340
-0.007866
0.044334
0.020289
0.097156
0.019552
0.125785
0.134767
0.145066
0.259457
0.517812
0.907712
1.125691
1.346360
1.500000
1.310176
1.086884
0.636639
0.272436
0.043370
-0.143929
-0.154521
-0.080662
-0.052425
0.043876
0.011917
0.099891
0.105967
0.111920
0.160910
0.226409
0.229829
0.112799
0.196877
0.220456
0.185431
0.267145
0.268632
0.264990
0.276024
0.289745
0.283697
0.306204
0.294131
0.336648
0.442382
0.466078
0.408059
0.463460
0.586182
0.466188
0.561718
0.540285
0.612014
0.616179
0.537040
0.601633
0.588815
0.666950
0.630193
0.522000
0.603244
0.574688
0.608414
0.597813
0.620525
0.599895
0.539416
0.493991
0.451151
0.508675
0.534166
0.412618
0.428418
0.413136
0.394470
0.410018
0.382179
0.320326
0.312650
0.323696
0.253161
0.259116
0.253602
0.220896
0.184702
0.190450
0.187065
0.195971
0.172622
0.190024
0.190396
0.085097
0.158376
0.046980
0.137143
0.159743
0.135680
0.160774
0.145926
0.049518
0.129880
0.099952
0.105839
0.088467
0.034334
0.075817
0.088888
0.005103
0.086069
0.123943
0.065043
0.122460
0.070184
0.121889
0.197101
0.044780
0.125462
0.120198
0.213259
0.120546
0.150512
0.023293
0.119117
0.067408
0.089704
0.073723
0.065174
0.152164
0.068402
0.158250
0.181729
0.076952
0.050565
0.155263
0.135121
0.092618
0.086587
0.086233
0.118212
0.089087
0.138824
0.028569
0.115690
0.122400
0.132713
0.201480
0.177604
0.280262
0.179114
0.207116
0.237084
0.192232
0.275316
0.221756
0.283492
0.262603
0.237585
0.227005
0.239329
0.226257
0.206399
0.347607
0.220875
0.245100
0.360912
0.286469
0.197045
0.226537
0.221055
0.166068
0.193031
0.176454
0.176653
0.093764
0.110839
0.104427
0.097498
0.128557
0.144032
0.112190
0.071104
0.075892
0.040504
0.087278
0.084839
0.081887
0.037902
0.101261
0.147427
0.004256
0.225129
0.265713
0.452001
0.870338
1.182277
1.412485
1.490479
1.446978
1.110355
0.696106
0.323937
-0.050532
-0.026213
-0.103969
-0.075219
0.023587
0.064277
0.043976
0.141989
0.112364
0.072037
0.150171
0.191534
0.198254
0.174488
0.194452
0.189238
0.239917
0.222410
0.273898
0.274490
0.182505
0.295962
0.378674
0.328037
0.267767
0.388208
0.471955
0.467985
0.492708
0.407642
0.459281
0.541723
0.522118
0.504253
0.553143
0.610491
0.558432
0.703790
0.568953
0.573006
0.641805
0.577794
0.661593
0.578359
0.612133
0.573087
0.585645
0.521332
0.544178
0.530877
0.513797
0.462826
0.437348
0.469402
0.400219
0.406479
0.381241
0.345221
0.305914
0.374757
0.214340
0.261755
0.224860
0.235362
0.191628
0.170328
0.189347
0.141468
0.260170
0.134379
0.133120
0.176506
0.040890
0.111937
0.059899
0.064402
0.105200
0.179970
0.058653
0.025615
0.021450
0.110026
0.078518
0.061211
0.091176
-0.027803
0.098704
0.045219
0.153214
0.075927
0.062649
0.032720
0.002694
0.083493
0.049292
0.033401
-0.063450
0.064424
0.008670
0.044691
0.042873
0.020692
-0.018415
0.071469
0.013489
0.022502
-0.001678
0.022691
-0.028221
0.078074
0.032568
0.076743
-0.007713
-0.024855
0.040073
0.027604
0.044167
0.021071
0.010609
0.057464
0.011786
0.073931
0.022396
0.048575
0.086931
0.080299
0.094280
0.044500
0.078712
0.201532
0.237640
0.183163
0.120219
0.139395
0.198840
0.198671
0.154547
0.138440
0.189008
0.223650
0.185958
0.102276
0.167006
0.129598
0.177928
0.132915
0.091110
0.217335
0.111829
0.113944
0.150019
0.080138
0.206978
0.162786
0.070891
0.053675
0.091657
0.082821
0.024921
0.029493
-0.018332
0.044438
0.044946
-0.046377
0.018405
0.059621
-0.026691
-0.105102
0.006500
0.009941
0.005044
-0.017902
0.073676
0.212567
0.461648
0.860609
1.121465
1.386511
1.359092
1.341255
0.932656
0.592922
0.202602
-0.071987
-0.175265
-0.171067
-0.185643
-0.179457
-0.108760
0.008422
0.020168
0.076432
0.066615
0.060766
0.008207
0.084064
0.134087
0.113490
0.071687
0.176975
0.111697
0.091809
0.177391
0.169241
0.105629
0.134398
0.210058
0.293961
0.250274
0.264514
0.315869
0.339535
0.377057
0.398693
0.374093
0.393919
0.449543
0.518818
0.452003
0.409228
0.485545
0.379626
0.478336
0.384058
0.498838
0.338485
0.429146
0.490564
0.406724
0.429798
0.461704
0.364610
0.413176
0.366013
0.394471
0.343746
0.425298
0.272861
0.318889
0.274715
0.318909
0.174534
0.206450
0.195983
0.095135
0.043466
0.103944
0.134197
0.118286
0.089526
0.085459
0.048203
0.007518
0.072629
0.096036
0.053747
0.077481
0.065387
-0.042415
-0.073721
-0.002944
-0.001009
0.002724
-0.048286
-0.036006
-0.117009
0.025130
-0.032047
-0.070487
-0.065748
-0.034769
-0.131191
-0.057900
-0.083643
-0.053753
-0.051850
-0.018997
-0.069890
-0.072772
-0.144147
-0.080866
-0.081208
-0.078881
-0.055059
0.001987
-0.134673
-0.136682
-0.081477
-0.067158
-0.044611
-0.143282
-0.141260
-0.010233
-0.075859
-0.130059
-0.111410
-0.066088
-0.069113
-0.134087
-0.166506
-0.079538
-0.130357
-0.020074
-0.177886
-0.037134
-0.179068
-0.004144
-0.058131
0.023605
-0.000215
-0.055467
0.063723
0.068683
-0.010579
0.063451
0.027423
0.043915
0.042951
0.062540
0.097255
0.111226
0.100816
0.133880
0.163087
0.179462
0.017911
0.054917
0.082912
0.129826
0.109269
0.050665
0.090977
0.045235
0.022753
-0.070770
0.072464
-0.018883
-0.021119
-0.004790
-0.016048
-0.069560
-0.069453
-0.116997
-0.020494
-0.062879
-0.018644
-0.054669
-0.031694
-0.070822
-0.002694
-0.028543
-0.127330
-0.093860
-0.074999
-0.014248
-0.003251
0.086751
0.515196
0.797009
1.091948
1.326076
1.345102
1.134175
0.832882
0.567109
0.077623
-0.152253
-0.215000
-0.316581
-0.214426
-0.134352
-0.102361
0.011640
-0.059979
0.012349
-0.018723
-0.048390
0.018859
0.008792
0.015237
-0.030738
0.041523
0.108106
0.023450
0.069042
0.088601
0.193879
0.123328
0.265383
0.185528
0.230283
0.283817
0.271463
0.265086
0.375104
0.306437
0.346087
0.365811
0.387397
0.413502
0.437431
0.500548
0.369967
0.471897
0.478649
0.413615
0.462785
0.503920
0.387064
0.440386
0.363047
0.381050
0.378865
0.409504
0.303580
0.384819
0.335600
0.339908
0.362736
0.263840
0.321427
0.306265
0.253482
0.145711
0.235173
0.266131
0.223630
0.165694
0.229922
0.081079
0.088862
0.100732
0.060247
0.021694
0.054668
-0.000999
-0.032574
-0.002934
-0.089240
-0.049085
-0.001816
0.003502
-0.056374
-0.016433
0.031457
-0.018722
0.029978
-0.053197
-0.143089
-0.030055
-0.051143
-0.132410
-0.082609
-0.021718
-0.025504
0.051104
-0.012961
-0.050833
-0.030114
0.010766
-0.079434
-0.011095
-0.054011
-0.091144
-0.008182
0.034986
0.044618
-0.061487
-0.089680
-0.115613
0.006847
-0.107098
-0.029866
-0.031346
-0.023270
-0.033120
-0.050306
-0.113496
-0.010323
-0.061448
-0.082362
-0.061184
-0.075556
-0.051820
-0.022893
0.003244
-0.057505
0.089964
0.047132
-0.023290
0.077817
0.028797
0.005737
0.024939
0.052119
0.035806
0.153426
0.099578
0.167847
0.058985
0.122860
0.204984
0.100850
0.179371
0.147332
0.163989
0.102962
0.142092
0.111197
0.130504
0.145086
0.161765
0.137671
0.083114
0.143042
0.158847
0.117501
0.086624
0.054147
0.086521
0.074706
0.135633
0.102403
0.008293
-0.035382
0.010128
0.025874
0.066783
0.025160
-0.082844
-0.067125
0.014800
-0.075234
0.026315
-0.037600
-0.025331
-0.030375
0.091685
0.105648
0.204370
0.511944
0.907227
1.097934
1.380145
1.373099
1.277790
0.870326
0.554207
0.099501
-0.092641
-0.231191
-0.168265
-0.143086
-0.143686
-0.050578
-0.003586
0.055050
-0.010031
0.102702
0.117874
0.058204
0.043401
0.131220
0.136713
0.075888
0.126366
0.196230
0.120477
0.200401
0.254840
0.264824
0.188322
0.240056
0.233182
0.303223
0.404025
0.379655
0.362568
0.359379
0.413777
0.389225
0.407289
0.492260
0.583596
0.466834
0.458041
0.571490
0.600201
0.475085
0.584336
0.492155
0.544029
0.572035
0.573874
0.538304
0.514696
0.474463
0.431984
0.416379
0.435606
0.449320
0.429339
0.455735
0.337742
0.330883
0.351398
0.342276
0.338886
0.252528
0.152252
0.165486
0.199637
0.130398
0.141888
0.126371
0.161253
0.162533
0.126476
0.106841
0.170229
0.073439
0.175532
0.150476
0.102567
0.054142
0.077901
0.093230
0.022664
0.012531
0.111722
0.113694
0.010841
-0.006964
0.044402
0.009226
0.019643
0.076756
0.072076
0.016163
0.058382
0.002644
0.089981
0.054851
0.108210
0.006666
-0.001173
0.063860
-0.005596
0.153971
-0.034263
0.024769
-0.026411
0.006953
0.040689
0.094702
-0.032781
0.052695
0.018256
0.013709
-0.006578
0.049997
0.067835
-0.023888
0.026362
0.050788
0.035089
0.083294
0.039669
0.038913
0.040438
0.106077
0.054419
0.027551
0.111949
0.048929
0.141225
-0.021860
0.204412
0.091141
0.208751
0.188823
0.226647
0.115893
0.140823
0.180173
0.191371
0.208427
0.198925
0.265802
0.244715
0.255356
0.232691
0.186625
0.286046
0.161859
0.185213
0.150676
0.087501
0.206350
0.187348
0.161473
0.220398
0.184099
0.155213
0.122823
0.111108
0.167582
0.153379
0.112324
0.062855
-0.000048
0.090063
0.003508
0.034023
0.058903
0.123054
0.131053
0.041068
0.022002
0.009500
0.061432
0.143049
0.351876
0.628563
0.936203
1.282610
1.450810
1.444707
1.224190
0.981036
0.549100
0.146134
-0.077846
-0.126374
-0.142980
-0.121056
-0.028467
0.011324
0.074038
0.010441
0.051315
0.079595
0.089392
0.158759
0.161875
0.212960
0.119742
0.106379
0.112550
0.232577
0.191553
0.236695
0.261137
0.318505
0.282078
0.377702
0.335362
0.391609
0.457836
0.398323
0.449175
0.480998
0.453480
0.488154
0.529647
0.490699
0.474998
0.655420
0.530402
0.563535
0.607406
0.572919
0.572651
0.479917
0.582790
0.510379
0.623939
0.571643
0.547454
0.549819
0.496842
0.443683
0.490389
0.367091
0.421517
0.326045
0.382599
0.402049
0.359299
0.354863
0.259772
0.332889
0.271554
0.322713
0.273235
0.128343
0.174756
0.178905
0.163181
0.160885
0.107091
0.076133
0.093689
0.008499
0.154927
0.109453
0.057131
0.069585
0.102112
0.048803
0.042506
0.033277
-0.018385
-0.056301
-0.096937
0.044840
0.068722
0.022409
0.064058
0.015838
-0.009947
0.014271
-0.059010
-0.016269
0.084899
0.002112
0.023013
0.040147
-0.006907
0.010388
0.002689
0.007750
-0.006808
-0.031512
0.009812
0.013729
-0.108181
0.090783
-0.035727
0.015941
-0.042455
-0.015303
-0.009241
0.040894
0.032974
0.084010
0.067310
0.045442
0.017486
0.027734
0.112135
0.058493
-0.004566
-0.024986
0.089231
-0.039873
0.031068
0.026072
0.019192
0.115989
0.059223
0.074229
0.024932
0.124472
0.114528
0.108991
0.142126
0.162030
0.185132
0.097860
0.204330
0.147238
0.214104
0.209284
0.175157
0.160072
0.058952
0.198060
0.139418
0.202353
0.083941
0.075319
0.093573
0.057867
0.084998
0.096951
0.097355
0.035259
0.018580
0.094231
-0.010517
0.060866
0.023742
-0.037039
-0.039914
-0.064822
-0.027634
0.011241
-0.039764
-0.014386
-0.035352
-0.051852
-0.054175
-0.017846
0.053563
0.228941
0.550153
0.824219
1.150815
1.356036
1.338397
1.107340
0.810734
0.425279
0.052069
-0.153272
-0.182072
-0.231438
-0.153093
-0.162779
-0.062332
0.007346
0.010180
-0.015943
0.027025
0.012789
-0.017210
0.170998
0.098253
0.110428
0.066106
0.129611
0.094157
0.103144
0.259771
0.174688
0.161843
0.217100
0.259229
0.270239
0.242319
0.244325
0.339793
0.247632
0.398296
0.394843
0.427078
0.317083
0.359345
0.441232
0.496191
0.546467
0.399432
0.510344
0.498646
0.455711
0.512005
0.416536
0.526119
0.458057
0.367992
0.426052
0.435945
0.410685
0.430911
0.386584
0.250529
0.326783
0.292913
0.211662
0.260417
0.253147
0.207855
0.189875
0.208665
0.176759
0.092355
0.071296
0.029803
0.064796
0.108672
0.036515
0.042004
-0.026773
0.100222
-0.022757
-0.049306
-0.005946
0.014171
-0.069651
-0.096073
-0.033289
-0.009006
-0.095042
-0.010095
-0.050646
-0.045242
-0.109026
-0.045555
-0.062727
-0.066726
-0.049262
-0.047983
-0.035066
-0.067370
-0.042563
-0.103161
-0.102193
-0.165254
-0.137306
-0.121629
-0.082832
-0.069167
-0.116527
-0.058750
-0.179418
-0.095105
-0.033315
-0.051414
-0.087266
-0.066557
-0.083506
-0.114449
-0.093484
-0.051800
-0.104384
-0.035358
-0.049593
-0.139048
-0.044488
-0.102999
-0.095285
-0.059275
-0.096322
-0.061555
-0.060660
-0.064336
-0.008706
-0.068533
-0.094934
-0.022919
0.004417
-0.023305
0.017913
-0.020396
0.132712
0.084752
0.021181
0.020221
0.049715
0.056660
0.093364
0.080025
0.063270
0.089391
0.050996
0.118012
0.079551
0.130323
0.066717
0.110440
0.000131
0.075787
-0.005295
0.001049
0.038679
0.030257
0.064365
0.029955
0.009508
-0.108121
-0.013763
-0.038372
-0.098270
-0.037942
-0.103222
-0.047262
-0.162493
-0.062343
-0.070461
-0.087446
-0.068747
-0.079442
-0.063154
-0.057049
-0.093333
-0.091869
0.026296
0.125338
0.454099
0.777885
1.050735
1.304581
1.339865
1.020240
0.837866
0.433350
0.117419
-0.217169
-0.277252
-0.323297
-0.265927
-0.161367
-0.151109
-0.156856
-0.043410
-0.110322
-0.078683
-0.104508
0.013887
-0.045987
-0.020016
-0.087422
0.003886
0.029775
0.007735
0.045968
0.209083
0.047933
0.140367
0.131681
0.143512
0.258683
0.222490
0.262179
0.320876
0.297088
0.274833
0.321220
0.333866
0.363143
0.411125
0.310969
0.309337
0.416008
0.353924
0.422699
0.400249
0.408375
0.423528
0.390077
0.478880
0.376132
0.403752
0.379354
0.422362
0.441336
0.358160
0.303687
0.336716
0.327824
0.225577
0.317458
0.254033
0.142558
0.137966
0.187438
0.193690
0.133358
0.100229
0.120574
0.185075
0.195824
0.082420
-0.009331
-0.012820
-0.167255
0.016828
0.086531
-0.059237
-0.043706
-0.083068
0.019089
-0.019307
0.019631
-0.006477
-0.009709
-0.119638
-0.032653
-0.096408
0.008612
0.009844
0.031156
-0.077265
-0.121318
-0.068749
-0.079464
-0.004138
0.017022
-0.041122
-0.133544
-0.079594
-0.178290
-0.083275
-0.134381
-0.107109
-0.058940
-0.150859
-0.129663
-0.080148
-0.001699
-0.048051
-0.073873
-0.107263
-0.094650
-0.052454
-0.107726
-0.001194
-0.067424
-0.047277
-0.069173
-0.040579
-0.040682
0.002618
-0.098467
0.005396
-0.073830
-0.007599
-0.028167
-0.026215
-0.005956
-0.039840
-0.070423
0.083158
0.080789
-0.017288
-0.054475
0.066064
-0.004026
-0.003620
0.026325
0.086377
0.110897
0.125354
0.133653
0.054296
0.096295
0.109387
0.278052
0.191417
0.126815
0.106666
0.194097
0.084965
0.167771
0.030333
0.006853
0.064129
0.025990
0.076223
0.018292
0.023280
0.056846
0.027041
0.065755
0.027833
-0.044032
-0.060228
0.053042
0.038986
-0.060709
-0.064313
-0.033069
0.005338
0.035006
-0.034258
-0.092910
0.031677
0.032440
0.066192
0.057185
0.307535
0.600559
0.925640
1.359068
1.449287
1.355251
1.172535
0.858434
0.394230
0.097692
-0.144833
-0.228891
-0.264000
-0.116008
-0.157588
0.043375
0.019509
-0.026936
0.038721
0.020468
0.057043
0.032202
0.096492
0.060573
0.151569
0.128793
0.160042
0.127407
0.221238
0.264890
0.262887
0.213558
0.209503
0.258407
0.240627
0.251793
0.428395
0.339934
0.457477
0.307287
0.425085
0.490928
0.434456
0.501709
0.470884
0.525326
0.569273
0.516217
0.537078
0.540004
0.579565
0.506706
0.491513
0.515015
0.537490
0.526868
0.511727
0.470968
0.505745
0.476267
0.430045
0.410744
0.382655
0.388305
0.389915
0.368961
0.413813
0.347881
0.314748
0.330801
0.240365
0.252707
0.229128
0.226313
0.110715
0.149003
0.107346
0.199454
0.189922
0.084017
0.125260
0.051722
0.075406
0.151828
-0.005999
0.075997
0.052392
0.066290
0.037246
0.017500
-0.032256
0.081932
0.046159
0.086580
0.048663
-0.009282
0.064521
-0.009842
0.071362
-0.000102
-0.000566
0.041250
-0.049880
0.060418
0.056053
0.117943
0.068406
0.140937
0.040508
-0.016881
0.006174
0.033994
-0.041312
-0.044530
0.104632
0.112428
0.079598
0.093398
-0.029305
0.053556
0.122455
0.157054
0.181122
0.052959
0.092751
0.119040
0.011332
0.034012
0.036428
0.037327
0.042143
0.093331
0.127573
0.108070
0.115277
0.183543
0.214210
0.113863
0.217786
0.198819
0.131437
0.099024
0.173107
0.264849
0.246071
0.167561
0.169014
0.218578
0.221747
0.265287
0.220375
0.267606
0.227212
0.153781
0.273662
0.215590
0.274039
0.206814
0.192574
0.128950
0.194813
0.153800
0.175446
0.197645
0.129172
0.170441
0.041324
0.126935
0.117019
0.143356
0.200943
0.054677
0.103041
0.106098
0.026266
0.072436
0.097325
0.034412
0.054721
0.016261
0.067233
0.195256
0.261005
0.435853
0.628853
1.101131
1.232752
1.469669
1.493629
1.201527
0.892168
0.490535
0.171232
-0.088587
-0.072161
-0.088225
-0.057114
0.074246
0.093945
0.101939
0.105360
0.137087
0.166776
0.085009
0.156101
0.289688
0.224353
0.163461
0.237902
0.109698
0.204671
0.223736
0.357478
0.314469
0.286742
0.310522
0.404490
0.265170
0.371913
0.404349
0.377371
0.514091
0.457771
0.565137
0.528047
0.563489
0.627991
0.530761
0.580709
0.570656
0.537304
0.633587
0.652112
0.635969
0.607391
0.558532
