-0.009301
0.056578
-0.005468
0.056246
-0.046042
0.018532
0.051556
-0.033591
0.024402
0.051823
0.007768
0.070632
-0.029911
-0.070237
0.036139
0.062535
0.058182
-0.055572
-0.029827
0.048969
0.001491
0.034477
0.101458
0.070735
0.017216
-0.001715
0.099984
0.023156
0.095150
0.154763
0.134893
0.122119
0.147243
0.137455
0.167818
0.235476
0.181049
0.217091
0.238373
0.247923
0.216298
0.186634
0.247418
0.169794
0.138971
0.209368
0.206795
0.187951
0.260742
0.132454
0.131248
0.143507
0.127220
0.157600
0.094421
0.185940
0.129211
0.080117
0.094959
-0.007948
0.056261
0.101002
0.080542
0.007856
0.089041
0.086800
0.159538
0.081523
0.008338
-0.016161
0.072025
-0.014084
0.054249
-0.009902
0.023360
-0.013360
0.240787
0.466760
0.689866
1.037199
1.348130
1.500000
1.363528
1.255466
0.770476
0.462902
0.126666
-0.068306
-0.174069
-0.135744
-0.062742
0.008950
0.104563
0.070376
0.056151
0.107910
0.019120
0.086023
0.054639
0.072483
0.127703
0.126436
0.119489
0.113864
0.166071
0.117860
0.210682
0.186699
0.220296
0.270896
0.278496
0.336348
0.272739
0.288954
0.281325
0.326889
0.392663
0.364256
0.364020
0.501452
0.525905
0.484516
0.434601
0.536922
0.545481
0.564785
0.610206
0.506398
0.527448
0.605845
0.526800
0.577698
0.541247
0.581080
0.575990
0.561405
0.673626
0.551683
0.529841
0.464229
0.451322
0.491768
0.522653
0.401102
0.426754
0.370278
0.314856
0.434473
0.370832
0.392899
0.371394
0.329436
0.268114
0.268789
0.240083
0.240770
0.230939
0.196005
0.125123
0.163410
0.094263
0.081763
0.192003
0.079496
0.155534
0.159904
0.108651
0.163252
0.159209
0.124723
0.125114
0.212319
0.089928
0.105617
0.129449
0.103970
0.073868
0.130471
0.115488
0.080749
0.060609
0.054169
0.047786
0.085106
0.057469
0.122928
0.067685
0.045642
0.076024
0.080341
0.088812
0.060933
0.074812
0.130925
0.082636
0.104087
0.020087
0.039574
0.027687
0.048627
0.191916
0.026166
0.075560
0.106831
0.043662
0.048792
0.095473
0.040972
0.105173
0.175389
0.088752
0.057148
0.116205
0.150459
0.086857
0.099506
0.089946
0.025865
0.101287
0.037845
0.054042
0.070281
0.046163
0.162265
0.157817
0.097858
0.120315
0.131477
0.131413
0.244452
0.181944
0.156092
0.175243
0.145025
0.209111
0.317839
0.212961
0.156529
0.249590
0.256328
0.181961
0.157939
0.278788
0.242804
0.311216
0.281147
0.161716
0.203535
0.170818
0.294070
0.197661
0.227222
0.187650
0.184992
0.153159
0.154531
0.211188
0.104375
0.145251
0.121026
0.171785
0.159371
0.139124
0.106385
0.143803
0.117412
0.054846
0.069676
0.031412
0.074283
0.087162
0.029205
0.140751
-0.007292
0.102416
0.030515
0.078225
-0.002427
0.069205
0.276508
0.574217
0.914902
1.174948
1.397011
1.436961
1.435709
1.118442
0.759442
0.263952
-0.045779
-0.169235
-0.102852
-0.165477
-0.067310
-0.070832
0.091805
0.065159
0.133377
0.081850
0.130882
0.156297
0.080077
0.036579
0.164387
0.146247
0.087457
0.232159
0.174892
0.154799
0.228996
0.206877
0.155109
0.179065
0.282740
0.343966
0.291552
0.295766
0.341081
0.372687
0.364986
0.373208
0.475183
0.459104
0.407983
0.494521
0.467489
0.402034
0.570005
0.533375
0.544999
0.503668
0.555427
0.507968
0.572014
0.575677
0.509019
0.490442
0.538460
0.593734
0.500460
0.540879
0.573189
0.393899
0.515231
0.416256
0.459467
0.480602
0.423846
0.420133
0.373373
0.361716
0.334805
0.329512
0.229849
0.188925
0.269772
0.272550
0.197618
0.250422
0.220225
0.123641
0.176452
0.137370
0.080657
0.056543
0.092085
0.043883
0.013053
-0.003402
0.062324
0.033268
0.056581
0.063774
0.101979
0.024257
-0.055910
0.029189
0.005993
0.107407
0.013789
0.104099
-0.005053
0.020266
0.106013
-0.008582
0.047480
-0.048929
0.049958
-0.035543
-0.015768
0.008937
-0.007776
0.062792
-0.011350
0.026340
-0.036124
0.027110
0.068263
0.076523
-0.078124
0.062783
-0.010165
0.041999
0.002743
-0.001238
-0.001904
0.010071
-0.020499
-0.001410
-0.008751
-0.026773
-0.027472
0.024006
0.022669
-0.053296
-0.068542
0.040652
-0.023015
-0.002318
-0.001421
-0.062907
-0.060033
0.023967
-0.018550
-0.047087
0.075615
-0.018270
0.036830
0.053688
0.043001
-0.004670
0.030741
-0.026810
0.158426
0.139738
0.164230
0.106703
0.146924
0.122394
0.153673
0.184178
0.133582
0.235964
0.149005
0.196169
0.191830
0.155516
0.134156
0.089415
0.130362
0.138182
0.185322
0.127249
0.112057
0.142208
0.131083
0.124000
0.107326
0.093014
0.106116
0.106472
0.071218
-0.025437
0.043340
-0.015825
0.057493
-0.034559
0.069086
0.029453
0.038999
0.014766
-0.039870
-0.036463
-0.066829
0.000175
-0.006307
0.001302
-0.063384
-0.069086
-0.072731
0.024879
0.043115
0.198153
0.563107
0.840019
1.118729
1.375604
1.424085
1.109235
0.860973
0.475240
0.107971
-0.084526
-0.199290
-0.243234
-0.218203
-0.192100
-0.033842
-0.056969
-0.072711
0.003325
0.034745
-0.009974
0.045818
-0.024610
0.075916
-0.028173
-0.004460
0.029417
0.129027
0.118697
0.010458
0.085386
0.153930
0.136756
0.116005
0.170862
0.206688
0.205565
0.219078
0.241810
0.231178
0.290306
0.262269
0.292963
0.266920
0.322941
0.448396
0.418645
0.394981
0.350167
0.466367
0.487504
0.379028
0.484911
0.377080
0.453948
0.515152
0.364133
0.485367
0.555538
0.464702
0.432529
0.415657
0.355278
0.417954
0.341196
0.295045
0.396616
0.229723
0.303781
0.220579
0.261713
0.282178
0.279367
0.211379
0.098648
0.103102
0.157007
0.170877
0.071207
0.034297
0.147195
0.072781
0.118752
0.056549
0.109924
0.003864
0.040100
-0.003659
-0.010106
0.015394
0.045974
0.004905
-0.027953
-0.071248
0.042441
-0.061306
-0.063912
-0.051889
-0.057780
-0.058426
-0.075126
-0.164005
-0.148767
-0.053150
-0.130204
0.032219
-0.025265
-0.097485
-0.052547
-0.000753
-0.070468
-0.041788
-0.074003
-0.048340
0.024833
-0.023079
-0.051812
-0.002102
-0.034475
-0.057495
-0.000563
-0.094879
-0.001841
-0.063786
-0.023778
-0.033995
0.016629
-0.022443
-0.038482
0.012663
-0.076351
-0.074776
0.011816
-0.061478
-0.014491
-0.002162
-0.060773
-0.119407
-0.015092
-0.099416
0.030981
-0.064311
0.000818
0.034434
-0.104456
-0.031985
-0.034088
0.001477
-0.028369
-0.060094
0.037082
-0.005452
0.010256
-0.006944
0.170488
0.078386
0.101082
0.101901
0.086828
0.080136
0.095287
0.128119
0.119001
0.129126
0.161850
0.140111
0.121909
0.089952
0.142770
0.154536
0.165406
0.161670
0.159283
0.025197
0.097850
0.051110
0.105949
0.166987
0.144743
0.095193
0.017859
0.023384
-0.015430
-0.014192
-0.031210
-0.060831
-0.022792
-0.032697
-0.027908
0.089857
0.052099
-0.030147
-0.010147
-0.024472
-0.067569
-0.032786
0.074679
-0.009450
-0.038431
0.041373
-0.053635
-0.015000
0.141462
0.282939
0.550022
0.962291
1.239020
1.300762
1.358166
1.121949
0.804694
0.427743
0.034273
-0.170768
-0.234138
-0.239895
-0.195448
-0.134459
-0.070134
-0.070767
-0.046430
0.079882
0.060627
0.018796
0.024970
0.001653
0.043027
0.061092
0.114612
-0.032078
0.136633
0.140563
0.052231
0.176227
0.177568
0.194913
0.291031
0.131103
0.199277
0.230198
0.299700
0.281066
0.293742
0.289216
0.339565
0.329253
0.373412
0.445186
0.520349
0.466353
0.458536
0.459437
0.435350
0.552437
0.512536
0.526070
0.581289
0.618415
0.531826
0.546586
0.538406
0.578468
0.552685
0.448975
0.503824
0.495828
0.489664
0.493234
0.409477
0.402349
0.308334
0.442413
0.396508
0.394732
0.335867
0.332516
0.265700
0.217522
0.287548
0.279636
0.251827
0.231561
0.190137
0.113839
0.145939
0.120445
0.258118
0.122132
0.124223
0.065034
0.087262
0.177727
0.146724
0.026146
0.091074
0.113295
-0.000729
0.048468
0.057164
0.078605
0.086854
0.093742
0.119175
0.168868
0.076713
0.053831
0.003106
0.055645
0.104921
0.052975
0.081815
0.149517
0.124250
0.007754
0.058679
0.028458
-0.022684
0.079202
0.041185
0.021951
0.126834
0.107400
0.055607
0.193561
0.125999
-0.009639
-0.030988
0.052588
-0.000893
0.035518
0.019177
0.156722
0.036400
0.068258
0.010202
0.098425
0.048775
0.064360
0.043929
0.063442
0.150373
0.111618
0.079680
0.070692
0.060448
0.103133
0.037561
0.122223
0.001437
0.189504
0.120132
0.088934
0.103446
0.134369
0.035751
0.032687
0.154311
0.123257
0.110959
0.176321
0.215277
0.237512
0.194058
0.205613
0.224114
0.282839
0.235092
0.278061
0.304830
0.328059
0.258520
0.282614
0.276353
0.207801
0.184543
0.204309
0.207627
0.297907
0.088334
0.223446
0.180326
0.167907
0.107174
0.186829
0.047486
0.194264
0.055816
0.127574
0.102260
0.097800
0.096773
0.046904
0.125198
0.118918
0.152023
0.066815
0.095618
0.189068
0.119697
0.148583
0.103926
0.084231
0.142314
0.108485
0.124881
0.250197
0.543686
0.881314
1.142550
1.428358
1.479206
1.428669
1.096430
0.807309
0.459119
0.100675
-0.092937
-0.084796
-0.139906
-0.088307
0.018863
0.029906
0.104253
0.117394
0.137729
0.041267
0.073896
0.227480
0.118082
0.147177
0.140904
0.137610
0.209181
0.210810
0.192553
0.250964
0.304951
0.222964
0.288584
0.309230
0.297916
0.220738
0.277610
0.286154
0.414369
0.437732
0.292803
0.460464
0.408207
0.399750
0.501119
0.583553
0.575751
0.577490
0.557486
0.578260
0.596350
0.631132
0.576244
0.572891
0.629531
0.626290
0.557369
0.581312
0.637996
0.613284
0.521395
0.590949
0.569142
0.596286
0.573434
0.462693
0.463034
0.420661
0.432498
0.404786
0.440967
0.396776
0.438557
0.401474
0.361874
0.308862
0.290130
0.316516
0.230037
0.204256
0.209697
0.233042
0.244811
0.210934
0.184414
0.208659
0.095770
0.201874
0.089452
0.225888
0.047272
0.073879
0.125223
0.106826
0.064906
0.131610
0.114358
0.122603
0.118666
0.079531
0.080060
0.047197
0.083774
0.088556
0.070846
0.077421
0.077310
0.071558
0.065768
0.103593
0.095233
0.055401
0.093052
0.116735
0.177414
0.112289
0.084813
0.024628
0.089261
0.146828
0.090337
0.076548
0.130349
0.095645
0.080430
0.024936
0.112844
0.065662
0.153617
0.069690
0.090164
0.023999
0.082318
0.090797
0.097911
0.040360
0.072317
0.089145
0.054820
0.140664
0.115633
0.079724
0.058560
0.053194
0.066426
0.056938
0.144910
0.114467
0.185505
0.051150
0.063301
0.153023
0.161063
0.078407
0.144654
0.148523
0.208295
0.163249
0.135033
0.122624
0.214771
0.120932
0.264939
0.242269
0.242983
0.219764
0.254319
0.287508
0.315974
0.321076
0.212533
0.206388
0.177480
0.191218
0.162549
0.206837
0.162732
0.111767
0.191242
0.094359
0.121128
0.252214
0.156219
0.049371
0.111608
0.112130
0.051337
0.023825
-0.028817
0.084993
0.041254
0.049137
-0.001945
-0.015586
-0.027620
0.022186
-0.018472
0.014079
0.067394
-0.031562
0.092580
0.082338
0.302390
0.430889
0.889489
1.231461
1.408660
1.439266
1.254154
0.969567
0.582011
0.308285
-0.015269
-0.185028
-0.216998
-0.120934
-0.140326
-0.042425
0.005590
0.014446
-0.035624
0.028950
0.076954
0.167290
0.060678
0.145910
0.040342
-0.018134
0.045946
0.126033
0.153949
0.142461
0.128093
0.181338
0.125974
0.203502
0.266254
0.250144
0.298717
0.258781
0.258323
0.320674
0.311349
0.413121
0.401358
0.402884
0.502759
0.441885
0.407099
0.421121
0.575316
0.493062
0.470828
0.470575
0.507721
0.489227
0.520962
0.563226
0.495309
0.555609
0.508190
0.565868
0.467228
0.394819
0.453803
0.383680
0.451817
0.410326
0.385643
0.390145
0.327352
0.294233
0.375746
0.269014
0.198319
0.307858
0.292356
0.151583
0.249902
0.231142
0.074393
0.194114
0.053445
0.103540
0.155230
0.138992
0.099996
-0.090509
0.026511
0.009744
-0.011834
0.010383
0.009239
0.005970
-0.063935
-0.118585
0.029332
-0.037178
0.037684
-0.037719
-0.006709
-0.048303
-0.083611
-0.061222
-0.030913
-0.022833
-0.024437
0.017005
-0.007969
-0.096030
-0.006309
-0.015322
0.038198
-0.044403
-0.079607
-0.020018
-0.025264
0.026726
0.011840
-0.075046
0.053086
-0.048831
-0.012188
-0.128952
0.029448
0.062184
-0.071357
0.049491
-0.043140
-0.071202
0.023132
0.056656
-0.034737
-0.096000
-0.070934
-0.077319
-0.033553
-0.086027
-0.071830
-0.029797
-0.001509
-0.036555
-0.063292
-0.054252
-0.023322
-0.088539
0.007290
-0.031484
-0.037846
-0.004124
0.035884
-0.124086
0.048913
0.046399
-0.076625
-0.031215
-0.056841
0.040097
0.031453
0.019149
0.108695
0.068786
0.124403
0.124597
0.132252
0.157573
0.143549
0.049522
0.101989
0.121800
0.096664
0.004853
0.034087
0.058450
0.136201
0.057983
0.231150
0.088137
0.049343
-0.026932
0.065699
0.016525
0.008811
0.010857
0.017134
-0.027638
-0.039993
0.019186
-0.062178
-0.009654
-0.067695
-0.073146
-0.127994
-0.008877
-0.112611
-0.120710
-0.073050
-0.084214
-0.072247
-0.047366
-0.056768
-0.060055
-0.081642
-0.075611
0.030383
0.252055
0.549197
0.830758
1.164723
1.262460
1.288071
1.111417
0.804614
0.356889
0.054267
-0.174034
-0.322017
-0.358459
-0.209431
-0.199205
-0.112159
0.000811
-0.064422
-0.037148
-0.073509
-0.062002
-0.087769
-0.088688
-0.042589
-0.093913
-0.064339
0.127141
0.001794
0.098827
0.090605
-0.029265
0.109038
0.002126
0.120030
0.163136
0.123230
0.121900
0.215188
0.251842
0.208536
0.248423
0.341691
0.320318
0.169424
0.382834
0.331915
0.391343
0.362165
0.368196
0.507523
0.412743
0.479998
0.328198
0.514321
0.430268
0.519103
0.468469
0.410132
0.519282
0.380066
0.416106
0.480213
0.370933
0.370454
0.390600
0.319031
0.297505
0.252086
0.351295
0.297936
0.285676
0.276804
0.215413
0.227087
0.231380
0.141441
0.160906
0.137619
0.015251
0.030568
0.017008
-0.014806
0.084237
0.010469
-0.020214
0.010988
-0.073975
-0.096857
-0.112842
-0.093351
-0.039947
-0.078336
-0.105367
0.030810
-0.049071
-0.076049
-0.035857
-0.069359
-0.112677
-0.091400
-0.077372
-0.025493
-0.090046
-0.068291
-0.076065
-0.042161
0.002095
-0.058871
-0.095582
-0.042285
-0.024589
-0.124467
-0.048530
-0.033623
-0.084947
-0.099462
-0.043402
-0.100586
-0.108654
0.017112
0.000345
-0.050459
-0.016793
-0.186184
-0.005921
-0.088996
0.014255
-0.072094
-0.040803
-0.047665
-0.031092
-0.081569
-0.125934
-0.078400
-0.027131
-0.075182
-0.060610
-0.053668
-0.054233
-0.040764
-0.048254
-0.050251
-0.035882
-0.058912
-0.018663
0.051105
-0.041777
-0.048713
-0.010665
0.001614
0.012359
-0.048384
0.017523
-0.041558
0.044252
0.020521
0.100544
0.098272
0.078401
0.042496
0.014168
0.110729
0.107816
0.116295
0.093960
0.066001
0.068062
0.179311
0.176160
0.141896
0.187446
0.050819
0.101244
0.166802
0.084269
0.132347
0.121651
0.040897
0.146959
0.081696
0.045921
0.018069
-0.031181
0.031391
-0.012401
0.038382
0.026350
-0.109210
-0.015156
0.019324
0.025180
0.002948
-0.062788
-0.027105
-0.078717
-0.023078
0.058909
-0.077725
-0.049666
-0.082443
-0.073346
0.001877
0.056738
0.348497
0.655317
0.934879
1.320842
1.335048
1.253439
1.044978
0.676898
0.243268
-0.022904
-0.160138
-0.309491
-0.199005
-0.177136
-0.208852
-0.030662
-0.066760
-0.022492
0.007981
0.025861
0.037800
0.044343
0.059172
0.026355
0.038192
0.090422
0.099253
0.098596
0.116177
0.143579
0.099597
0.195891
0.141856
0.136254
0.227409
0.233852
0.237343
0.200560
0.290692
0.315518
0.279139
0.302051
0.375619
0.293613
0.411243
0.497338
0.445415
0.521405
0.516811
0.437919
0.503344
0.566897
0.523855
0.539468
0.618561
0.458866
0.548131
0.499977
0.532870
0.525339
0.473659
0.475022
0.519710
0.394371
0.497684
0.387705
0.441650
0.361585
0.337541
0.397415
0.413447
0.316993
0.212826
0.234497
0.288299
0.206224
0.195481
0.217855
0.215957
0.200532
0.141578
0.065107
0.141662
0.061270
0.063184
0.172580
0.139242
0.049073
0.092880
0.087207
0.113731
0.139396
0.078198
0.062756
0.073715
0.011798
0.060310
0.130836
0.056651
0.091231
0.063887
0.034678
0.055916
-0.028177
0.009833
0.045950
0.070900
0.019302
0.014727
0.102088
0.065636
0.024023
0.050990
0.051668
0.060005
0.054077
0.055902
-0.016911
0.023789
0.019009
0.044366
-0.058638
-0.015037
0.142161
0.064784
0.024243
0.043050
-0.004225
0.056388
0.045725
0.112901
0.075904
0.064133
0.006469
0.072073
-0.034721
0.016823
0.065773
0.048356
0.018799
0.039759
-0.028893
0.097032
-0.052102
0.020342
0.021069
0.043531
0.135956
0.144517
0.064567
0.044641
0.005906
0.177333
0.071393
0.211143
0.149976
0.083017
0.138779
0.190488
0.237185
0.159564
0.236876
0.157679
0.262948
0.316883
0.249723
0.296177
0.214837
0.144406
0.245784
0.137927
0.146211
0.224216
0.117667
0.187949
0.128753
0.104097
0.150341
0.147561
0.037122
0.092111
0.101977
0.026746
0.043584
0.094972
0.103120
0.109582
0.060645
0.125869
0.111614
-0.026737
0.076065
-0.003300
0.083688
-0.010520
0.113022
0.039941
0.108574
-0.011815
0.086171
0.106408
0.067561
0.225055
0.453843
0.830746
1.162383
1.403161
1.465608
1.309613
1.052913
0.695214
0.274891
-0.063838
-0.142787
-0.180671
-0.195095
-0.100332
-0.069663
-0.004514
-0.074153
0.056043
0.104436
0.152211
0.075092
0.116886
0.108964
0.096887
0.099600
0.125428
0.148485
0.078867
0.161260
0.098961
0.191365
0.234976
0.217643
0.233778
0.189272
0.272972
0.309268
0.332557
0.432568
0.358293
0.319222
0.357372
0.392333
0.459376
0.466219
0.432728
0.506809
0.513462
0.575130
0.524107
0.534284
0.465216
0.565538
0.507966
0.483163
0.546880
0.542858
0.585213
0.548605
0.512899
0.530637
0.462611
0.459350
0.455471
0.479021
0.483724
0.506912
0.424042
0.438643
0.420564
0.351591
0.299248
0.298333
0.203555
0.268894
0.281476
0.150095
0.221135
0.110052
0.150899
0.195267
0.225247
0.227102
0.042879
0.110332
0.097047
0.171565
0.133094
0.109494
0.071224
0.086992
0.118019
-0.001631
0.038661
0.064211
0.015755
0.032295
0.068747
0.016205
0.056585
-0.042886
0.006386
-0.094425
0.038959
0.058447
-0.025860
0.013993
0.072659
0.084387
0.050300
0.040945
-0.023911
0.047386
0.034434
-0.029915
0.009197
0.090381
0.044009
-0.050088
-0.024864
-0.015922
-0.054126
0.033134
0.041173
-0.025810
0.028463
-0.080197
0.013959
-0.010659
-0.012724
-0.053606
0.021754
0.069223
0.091525
-0.024319
0.026455
-0.041826
0.047577
0.021369
0.049726
0.070645
0.058996
0.089374
-0.009108
0.072418
-0.054561
0.059158
0.052533
-0.000739
0.046903
0.042117
0.025721
0.053347
0.089954
0.151896
0.108449
0.154977
0.099238
0.191310
0.138085
0.152674
0.195923
0.209235
0.166115
0.214417
0.133164
0.193774
0.186804
0.009654
0.219229
0.159874
0.175318
0.136704
0.205370
0.127408
0.089971
-0.013968
0.049297
0.072997
0.074231
0.080789
0.029321
-0.016939
0.083698
-0.012643
-0.052667
0.032286
0.052189
0.013424
-0.047442
-0.050555
-0.046834
-0.113981
-0.049449
0.000859
-0.016356
-0.090049
-0.029440
-0.091593
-0.080880
-0.047078
0.137073
0.189282
0.501841
0.913429
1.149021
1.294655
1.292566
1.162404
0.803569
0.471024
0.118519
-0.158989
-0.213812
-0.320933
-0.156894
-0.216417
-0.013705
-0.049983
-0.058677
0.012757
0.008754
-0.078687
-0.126503
0.061426
-0.027104
0.022138
-0.026938
0.099165
-0.003448
0.053714
0.040945
0.108449
0.073444
0.040417
0.126228
0.138115
0.164844
0.141771
0.141971
0.171489
0.165598
0.289054
0.210092
0.333584
0.283210
0.256659
0.406801
0.330442
0.330611
0.347272
0.496014
0.427518
0.424414
0.523283
0.491839
0.491175
0.463551
0.474538
0.475765
0.473455
0.379938
0.373828
0.436700
0.360057
0.362106
0.411332
0.415634
0.323965
0.265701
0.319557
0.246210
0.230325
0.172771
0.144746
0.131311
0.158978
0.240529
0.081289
0.125443
0.047426
0.073734
0.042959
0.047175
0.077352
-0.075508
-0.020983
-0.035945
0.005389
-0.021006
0.002300
-0.009372
-0.032234
-0.035336
-0.081221
-0.047722
-0.066724
-0.049532
0.013222
-0.045677
-0.100991
-0.092908
-0.031402
-0.197338
-0.127312
-0.064589
-0.087148
-0.116967
-0.156530
-0.134955
-0.143236
-0.080281
-0.023082
-0.114730
-0.141740
-0.028860
-0.142558
-0.053359
-0.089449
-0.124676
-0.144179
-0.069296
-0.120764
-0.032377
-0.156792
-0.067974
-0.064250
-0.091064
-0.030257
-0.120336
-0.073928
-0.119217
-0.089454
-0.144910
-0.147011
-0.090252
-0.105788
-0.088305
-0.109629
-0.093654
-0.105389
-0.114324
-0.121369
-0.090652
-0.079342
-0.063037
0.023844
-0.111042
-0.042028
-0.089326
0.065204
-0.116182
-0.005572
-0.038961
-0.073852
-0.056484
-0.012422
-0.000451
-0.011114
0.083471
0.043365
0.029047
0.066026
0.090080
0.048105
0.084142
0.058824
0.077579
0.021147
0.030388
0.115976
0.080076
0.033686
0.022479
0.019924
0.045720
0.072441
-0.003769
-0.008042
0.013490
-0.015681
-0.027169
-0.066111
-0.078953
-0.067109
0.028987
-0.013985
-0.032464
0.019279
-0.096268
-0.105665
-0.083771
-0.095946
-0.030306
-0.078314
-0.092863
-0.190089
-0.128028
-0.073479
-0.065978
-0.120640
-0.108456
-0.044372
-0.128516
0.077541
0.262100
0.542515
0.902628
1.135823
1.270299
1.236018
1.030896
0.625378
0.274177
-0.039937
-0.281488
-0.362426
-0.305571
-0.296167
-0.152029
-0.144169
-0.112528
-0.096348
-0.067903
-0.083903
-0.031630
-0.099791
-0.037346
-0.096080
-0.005811
-0.021657
-0.022106
-0.051058
0.067985
0.026351
0.060762
0.128436
0.075085
0.043467
0.046420
0.152519
0.169499
0.159207
0.240907
0.129273
0.157019
0.288248
0.223138
0.226611
0.309625
0.283618
0.245273
0.410281
0.390121
0.417200
0.391525
0.402013
0.369789
0.420238
0.418157
0.422169
0.432257
0.447007
0.491865
0.456224
0.426152
0.430471
0.321668
0.379166
0.368636
0.311140
0.358566
0.378417
0.225593
0.188803
0.273666
0.200885
0.204367
0.137852
0.210075
0.132165
0.103232
0.135583
0.109398
0.103618
0.049980
0.002610
0.066867
0.092313
-0.000853
0.088076
-0.063436
0.001879
-0.095838
-0.027493
-0.083620
0.043823
-0.005594
-0.122186
-0.021822
-0.032551
-0.103973
-0.037787
-0.052448
-0.071721
0.002504
0.015279
-0.059813
-0.059143
-0.092499
-0.007748
-0.168872
-0.046988
-0.086226
-0.024486
-0.051443
-0.053408
-0.068829
-0.089302
-0.064381
-0.062464
-0.043406
-0.081142
-0.011737
-0.060362
-0.064840
-0.018003
-0.043619
0.008204
-0.005155
0.032369
0.041751
-0.000373
-0.013561
-0.018472
-0.015774
0.003644
0.038908
0.069488
-0.037904
-0.062616
-0.022232
-0.055915
0.015391
-0.102812
0.038684
-0.061642
-0.063810
-0.002305
0.022030
0.018704
-0.055867
-0.006336
0.037248
-0.007173
0.054640
0.039546
0.052526
0.021524
-0.006168
0.048471
0.056766
0.034185
0.172982
0.115618
0.065362
0.051577
0.144299
0.109905
0.214384
0.122723
0.219597
0.211382
0.113955
0.153634
0.164809
0.124026
0.157818
0.170293
0.125054
0.055688
0.117923
0.053315
0.066363
0.136916
0.077400
0.031045
0.048323
0.096526
0.025464
-0.017526
0.018148
-0.034715
0.051107
-0.021319
-0.077406
0.024955
0.026250
-0.073421
0.009632
0.042234
-0.032643
-0.012838
0.015583
-0.028821
0.036625
0.030738
0.296901
0.499883
0.844626
1.041668
1.341578
1.427210
1.313400
0.988420
0.607171
0.328721
-0.081211
-0.123122
-0.288588
-0.301117
-0.147675
-0.023137
0.012967
-0.084500
0.147955
0.009523
0.107891
0.056163
-0.016784
0.101448
0.115367
0.117707
0.112002
0.053035
0.110175
0.069105
0.156686
0.226684
0.162801
0.230906
0.192285
0.162726
0.153939
0.337330
0.318438
0.242915
0.334913
0.399526
0.372908
0.450122
0.488913
0.449271
0.444683
0.467617
0.492912
0.544444
0.586978
0.512112
0.526166
0.482993
0.559252
0.544554
0.516093
0.594238
0.554421
0.501967
0.548444
0.567805
0.516628
0.445961
0.536025
0.474010
0.431270
0.497516
0.351623
0.472460
0.312988
0.335309
0.332578
0.277582
0.268573
0.238269
0.178916
0.246073
0.131906
0.124171
0.157371
0.144576
0.151108
0.158215
0.186272
0.138862
0.127075
0.128668
0.111416
0.063203
0.108195
0.213331
0.101367
0.038093
-0.023131
0.110245
-0.012360
0.039816
0.105111
0.034370
0.084008
0.140060
0.090009
0.035522
0.003563
0.092321
0.040435
0.041539
0.082882
0.076209
0.126128
0.078677
0.044700
0.099839
0.147642
0.125049
0.091535
0.103366
0.046676
-0.023521
0.084894
0.027186
0.069897
0.007507
0.126620
-0.028010
0.101166
0.036619
0.057856
0.080879
-0.014239
0.071334
0.004956
0.031136
0.094784
0.082807
0.085838
0.032018
0.099384
0.153026
0.056350
0.105088
0.094569
0.026926
0.178796
0.037493
0.103021
0.128463
0.093979
0.160763
0.094483
0.175991
0.088785
0.074291
0.081652
0.204255
0.119813
0.210609
0.185028
0.174189
0.264188
0.252133
0.313057
0.338055
0.223648
0.233645
0.304790
0.171384
0.273531
0.265439
0.257349
0.236473
0.204957
0.269449
0.193180
0.235947
0.190224
0.253499
0.141475
0.127481
0.118906
0.068118
0.184986
0.109239
0.068386
0.125156
0.097979
0.137689
0.063501
0.089244
0.148235
0.006148
0.033620
0.014820
