0.027315
-0.017911
0.015557
-0.059456
0.016446
-0.008062
-0.019217
-0.018663
-0.045043
-0.074000
-0.004756
-0.039583
-0.002250
0.084509
0.081605
0.034230
-0.043187
0.119134
0.020746
0.115969
0.088719
0.053074
0.098910
0.120832
0.097538
0.185686
0.057197
0.058510
0.118633
0.158365
0.128197
0.137514
0.180543
0.100330
0.185267
0.231645
0.184885
0.165325
0.318475
0.159538
0.266971
0.173967
0.158100
0.156687
0.219430
0.157168
0.181027
0.150715
0.141296
0.178426
0.027916
0.156255
0.173332
0.053188
0.041621
0.073368
0.022278
0.047655
0.096195
-0.014988
0.017121
0.073186
0.053962
0.089713
0.053516
0.113808
0.101678
0.056650
0.028834
0.061139
0.171526
0.176720
0.467265
0.777130
1.135606
1.261142
1.381927
1.341739
1.101107
0.800180
0.327674
0.066289
-0.119001
-0.176814
-0.193078
-0.023635
0.021655
0.009925
0.046002
0.088339
0.045146
0.061303
0.103941
0.090907
0.121637
0.180294
0.206534
0.142582
0.073838
0.214218
0.182589
0.299412
0.234717
0.317785
0.386722
0.395366
0.345867
0.324022
0.359245
0.420244
0.384078
0.374029
0.501669
0.476648
0.565433
0.474661
0.457496
0.433043
0.582060
0.578205
0.614092
0.580321
0.627032
0.604297
0.691653
0.572713
0.544408
0.572469
0.561577
0.495624
0.616028
0.471685
0.568319
0.480168
0.492198
0.458943
0.395400
0.410501
0.411477
0.413155
0.277548
0.401390
0.273043
0.298870
0.297029
0.322572
0.298147
0.211163
0.242210
0.155447
0.296822
0.216099
0.106280
0.147618
0.098611
0.197449
0.066211
0.122703
0.064515
0.120797
0.118967
0.107150
0.065271
0.130517
0.040049
0.139710
0.076891
0.062460
-0.009977
0.037854
0.036335
0.089580
0.154687
0.085277
0.082291
0.068368
-0.000347
0.108523
0.085586
0.139176
0.053918
0.035545
0.101590
0.129999
0.115581
0.142837
0.057676
0.129030
0.133405
0.069293
0.021004
0.124488
0.087053
0.083402
0.069979
0.128765
0.066704
0.047961
0.144053
0.214027
0.081420
0.147736
0.099197
0.020264
0.081228
0.054401
0.191095
0.104914
0.069092
0.129384
0.205114
0.133916
0.188062
0.161197
0.102960
0.172976
0.132694
0.196898
0.248149
0.181376
0.216837
0.262675
0.233313
0.213186
0.226339
0.306738
0.289071
0.284583
0.306569
0.246533
0.214596
0.153486
0.271470
0.265076
0.161539
0.272849
0.206970
0.124551
0.214822
0.155728
0.187956
0.188680
0.133391
0.108883
0.081914
0.114210
0.039621
0.096993
0.035494
0.089356
0.074392
0.172738
0.094507
0.100325
0.112424
0.103112
0.066809
0.091197
0.038835
0.076787
0.149759
0.276640
0.533844
0.767790
1.126645
1.383613
1.412858
1.336547
1.046824
0.742107
0.420524
0.096944
-0.120523
-0.168812
-0.103264
-0.040839
0.010678
0.142199
0.089818
0.066539
0.128011
0.141589
0.191586
0.195404
0.244649
0.171945
0.283327
0.146385
0.163381
0.195877
0.198859
0.219315
0.151886
0.226920
0.331828
0.307206
0.335958
0.326372
0.364616
0.369590
0.470744
0.393938
0.437453
0.504470
0.432284
0.535419
0.574228
0.606823
0.570347
0.570068
0.527119
0.681943
0.600578
0.576930
0.522639
0.509633
0.551780
0.512615
0.470777
0.550951
0.569713
0.481939
0.464176
0.419169
0.433472
0.416404
0.387563
0.413998
0.409229
0.326009
0.308165
0.267671
0.282096
0.311096
0.218336
0.281727
0.191549
0.208594
0.194484
0.224128
0.094268
0.199315
0.157784
0.126621
0.072876
0.023482
0.038943
-0.004492
0.062991
0.062619
0.055057
0.074410
0.075303
0.052150
0.143892
0.103039
0.124875
0.057712
0.071003
0.070327
0.121335
0.014196
-0.002309
0.080137
0.036624
0.006937
0.064591
-0.000087
0.040514
0.022640
-0.028667
0.002553
0.054686
0.059399
0.097723
0.056843
-0.008674
-0.001355
0.020143
0.038509
-0.001223
-0.018199
0.083486
-0.009088
-0.024237
0.063794
0.011015
0.043387
0.076627
-0.005309
0.013918
-0.017363
0.007483
0.060481
0.068202
0.055738
0.055716
0.008116
0.075613
0.041226
-0.055562
0.001282
0.067886
0.147587
0.039120
0.056172
0.088776
0.049450
0.086755
0.177311
0.169718
0.118863
0.148813
0.185950
0.236070
0.073796
0.204027
0.108791
0.198082
0.194589
0.161472
0.127263
0.144358
0.149814
0.129566
0.118401
0.176326
0.109981
0.125595
0.093086
0.090423
0.065592
0.043274
0.000808
0.095270
0.071795
0.024735
-0.000876
0.025607
-0.004681
0.040872
-0.088200
0.003952
0.027869
-0.025638
0.027885
-0.036819
-0.018006
-0.021046
-0.049923
-0.000956
0.115993
0.417756
0.788211
1.099239
1.244091
1.364167
1.296507
0.873706
0.578733
0.329791
-0.099802
-0.141193
-0.153706
-0.210012
-0.146762
0.006062
0.003950
0.010328
0.037138
-0.019192
0.044294
-0.008663
0.006775
0.060701
0.089200
0.083193
0.077720
0.106129
0.124672
0.042481
0.134906
0.165303
0.161574
0.262700
0.191845
0.219340
0.195649
0.216697
0.333820
0.297932
0.372714
0.321676
0.394290
0.368783
0.497862
0.415647
0.407775
0.387157
0.453342
0.378021
0.407990
0.466421
0.478476
0.478762
0.468600
0.480004
0.457364
0.444720
0.484288
0.345038
0.364848
0.424571
0.349095
0.370263
0.444796
0.315127
0.211759
0.405393
0.233236
0.198157
0.225584
0.198702
0.132489
0.166961
0.133506
0.129756
0.172818
0.141656
0.008616
0.095915
0.060356
0.152321
0.015426
-0.019374
0.024171
-0.028438
-0.013154
-0.000161
0.000707
-0.075057
0.059887
-0.060600
-0.089194
0.003719
-0.046244
-0.075177
0.008963
-0.047814
-0.019755
-0.056442
-0.034250
-0.049203
-0.044777
-0.033884
-0.086427
-0.047723
-0.057589
0.001339
-0.021555
-0.025978
-0.010307
-0.029892
0.043141
0.019842
-0.005795
-0.043116
-0.072201
0.011153
-0.039659
-0.028079
-0.060891
-0.075710
-0.067914
-0.074988
-0.101044
0.065975
-0.003580
-0.041355
0.000888
-0.063260
0.017362
0.006703
-0.114702
-0.049086
-0.012930
-0.070158
-0.056906
0.073737
0.035504
-0.063489
0.001787
0.093281
0.034337
0.012195
0.030494
0.112201
0.036704
0.144000
0.141431
0.058958
0.212709
0.142147
0.102858
0.145074
0.169883
0.092811
0.148670
0.143661
0.053012
0.139948
0.100472
0.112466
0.148556
0.167840
0.079645
0.061466
0.109748
0.001316
0.067470
0.039287
-0.005344
-0.006818
0.038698
0.017623
-0.032880
-0.028148
-0.011397
-0.060517
0.009863
-0.051465
-0.046652
-0.045835
-0.037388
-0.043856
-0.022200
-0.035630
-0.003416
-0.105365
-0.070721
0.057638
0.219650
0.456633
0.802302
1.139344
1.319516
1.400977
1.139207
0.840153
0.514562
0.197543
-0.112462
-0.195309
-0.235213
-0.208494
-0.166416
-0.062360
-0.008329
0.003236
0.077527
0.046342
-0.042277
0.077661
0.064043
0.081464
0.112304
0.035823
0.076093
0.146393
0.134881
0.114676
0.154208
0.162229
0.168082
0.168398
0.245256
0.252341
0.181220
0.295955
0.292445
0.380319
0.356562
0.406250
0.439664
0.327449
0.393794
0.416470
0.483461
0.435328
0.508974
0.493227
0.546044
0.516133
0.551801
0.471710
0.546785
0.455096
0.418187
0.512133
0.435200
0.430004
0.536315
0.447269
0.411405
0.379669
0.379649
0.359926
0.276194
0.280803
0.332310
0.266140
0.216064
0.129532
0.205544
0.147947
0.233143
0.140037
0.128803
0.129864
0.094154
0.039917
0.018286
0.123388
0.142346
0.044911
0.099686
0.064892
0.078306
0.087867
0.067706
0.063106
-0.062754
0.070715
0.035947
-0.012422
0.054059
0.050772
0.049884
0.025529
-0.050109
-0.001391
0.025788
0.093281
0.024083
0.084586
0.005745
0.044489
0.053393
-0.047096
-0.062736
0.051563
0.016830
-0.023534
-0.013263
0.047752
0.024702
-0.009578
0.036411
0.013969
-0.006825
0.048164
0.079890
0.034654
0.055232
0.035465
-0.029994
-0.023419
0.065921
-0.015474
-0.043102
0.025052
0.085866
0.082734
-0.002510
0.028369
0.095606
0.048519
0.065801
0.087035
0.018705
0.169012
0.076360
0.099021
0.090990
0.152891
0.157351
0.128013
0.170878
0.200244
0.141713
0.158236
0.193466
0.251505
0.254980
0.216084
0.263658
0.260079
0.198101
0.319695
0.340877
0.206653
0.320298
0.180800
0.157572
0.169917
0.206263
0.207271
0.136685
0.140619
0.129818
0.174875
0.111112
0.105788
0.085722
-0.003157
0.149123
0.036078
0.110948
0.122948
0.074448
0.176535
-0.060199
0.008851
0.015485
-0.021389
0.030197
0.025523
0.048379
0.109525
0.110450
0.174663
0.310186
0.569308
0.873777
1.282607
1.487302
1.400547
1.306106
0.950799
0.616610
0.228078
0.023630
-0.031929
-0.114157
-0.138302
-0.053826
-0.017263
0.096425
0.099717
0.113694
0.163833
0.137002
0.171856
0.146161
0.191581
0.191809
0.203600
0.233156
0.203269
0.204937
0.258989
0.288341
0.300562
0.311398
0.267684
0.329277
0.299630
0.364726
0.400995
0.371508
0.404106
0.473352
0.452787
0.416772
0.518026
0.530057
0.541191
0.533651
0.536565
0.643459
0.581032
0.624786
0.615049
0.657033
0.565629
0.536636
0.544576
0.629075
0.632252
0.567581
0.448360
0.509458
0.599468
0.524582
0.385759
0.435624
0.473828
0.370019
0.414389
0.410723
0.307049
0.249807
0.307003
0.340813
0.255087
0.343404
0.248651
0.163880
0.169033
0.211293
0.111206
0.114094
0.025454
0.167081
0.108584
0.154499
0.183063
0.099944
0.163967
0.169358
0.184972
0.095962
0.108324
0.157870
-0.004273
0.144306
0.134248
0.121968
0.076046
0.210587
0.057461
0.180453
0.107266
0.209623
0.053387
0.077642
0.129176
0.041556
0.065710
0.068357
0.185644
0.052415
0.092211
0.050041
0.013619
0.087526
0.149496
0.084803
0.177587
0.130776
0.180736
0.042136
0.122020
0.138857
0.177184
0.116223
0.000113
0.135747
0.157841
0.163679
0.023902
0.105954
0.095263
0.088800
0.109030
0.089362
0.120370
0.149472
0.120523
0.165535
0.088547
0.164296
0.197355
0.151993
0.142139
0.183494
0.145107
0.202025
0.323820
0.157754
0.276523
0.246599
0.297617
0.155710
0.207999
0.274461
0.295266
0.272882
0.369240
0.278900
0.215969
0.311450
0.264885
0.268521
0.271048
0.238682
0.225599
0.243719
0.243531
0.159953
0.111011
0.110551
0.133843
0.185496
0.118386
0.101449
0.064473
0.104856
0.060572
0.074071
0.077586
0.239813
0.111280
0.100326
0.034494
0.057234
0.098492
0.033843
0.080911
0.109732
0.196375
0.364153
0.676526
0.995872
1.296932
1.420201
1.386079
1.249652
0.870573
0.453635
0.113499
0.030424
-0.118243
-0.173630
-0.112101
-0.008360
0.026769
0.087992
0.117855
0.126631
0.110534
0.138860
0.113030
0.087572
0.152281
0.207504
0.158029
0.215943
0.193396
0.183963
0.243649
0.289427
0.278013
0.350711
0.250072
0.272408
0.327244
0.399884
0.400249
0.467483
0.480888
0.446767
0.483127
0.487863
0.547139
0.560106
0.412882
0.413776
0.504444
0.483597
0.524194
0.591028
0.562694
0.572058
0.499944
0.568772
0.539951
0.501377
0.515808
0.572361
0.545295
0.500276
0.426648
0.476195
0.457332
0.416918
0.336877
0.371817
0.329304
0.319677
0.341180
0.195284
0.275302
0.213678
0.191482
0.278745
0.208202
0.108201
0.102763
0.100404
0.034728
0.151170
0.136492
-0.004695
0.118049
0.123860
0.062272
-0.025348
0.090402
0.020078
0.088571
0.039780
0.112597
0.087687
0.055617
0.016306
0.022704
0.016186
0.039401
0.024408
-0.030212
0.051670
-0.009479
-0.024651
-0.044026
-0.046521
0.034456
0.062392
-0.031586
0.068199
-0.020065
0.048428
-0.036216
0.052798
-0.038343
0.028154
0.055642
0.048539
0.049357
0.062397
0.074519
0.060951
-0.021236
0.031614
-0.011535
-0.026747
0.129288
0.002547
-0.013364
-0.008334
-0.037752
-0.001100
-0.010430
0.030291
0.018197
0.004283
-0.063348
0.048423
0.062309
0.072705
0.086723
0.008747
0.091375
0.015291
0.089234
0.033326
0.213339
0.088156
0.113260
0.116049
0.152755
0.203771
0.129066
0.165551
0.179913
0.101464
0.100524
0.113162
0.184691
0.251712
0.227212
0.050431
0.095814
0.122691
0.171035
0.128855
0.105015
0.065483
0.052019
0.132514
0.039427
0.025693
0.048740
-0.020871
-0.075338
-0.025084
0.063618
0.085935
-0.022530
-0.047590
0.002966
-0.032356
-0.045834
-0.070497
-0.087700
-0.061757
-0.009940
-0.049093
-0.022865
0.021876
-0.010733
0.261311
0.500810
0.907355
1.147575
1.332096
1.225677
1.044070
0.773942
0.302781
0.045828
-0.163450
-0.254056
-0.271779
-0.140884
-0.098833
-0.063990
-0.079807
-0.069773
-0.001806
-0.051829
-0.054013
-0.095169
0.030007
-0.020841
0.014863
0.052493
0.070173
0.030799
0.110775
0.063607
0.130954
0.220124
0.149502
0.210578
0.174078
0.144513
0.251823
0.263385
0.228328
0.393687
0.295009
0.305772
0.407393
0.417494
0.324137
0.369665
0.403552
0.502691
0.471572
0.423386
0.444233
0.467873
0.401164
0.450533
0.485200
0.455440
0.434293
0.375587
0.455859
0.351980
0.370499
0.362808
0.316231
0.359761
0.272788
0.295958
0.283755
0.225216
0.232578
0.225466
0.201231
0.215407
0.134994
0.178010
0.126457
0.088756
0.115786
0.057654
0.134803
-0.021464
0.040913
0.071742
-0.014146
-0.033720
0.017093
-0.066284
-0.160353
-0.020526
-0.040267
-0.046333
-0.024840
-0.121769
-0.088627
-0.025065
-0.127561
-0.022448
-0.151832
-0.025847
-0.083037
-0.120698
-0.099543
-0.083149
-0.078537
-0.127519
-0.081200
-0.093600
-0.033791
-0.077753
-0.062116
-0.059887
-0.046946
-0.082911
-0.059152
-0.077511
-0.156098
-0.050761
-0.174750
-0.054351
-0.101809
-0.081764
0.054548
-0.114602
-0.082174
-0.056768
-0.170684
-0.098446
-0.130116
-0.137715
-0.074637
-0.105907
-0.109061
-0.054015
-0.019879
-0.019592
-0.072155
-0.080793
-0.013188
-0.036825
0.034383
-0.026170
0.016900
-0.033303
0.061059
-0.032671
-0.021361
-0.001647
0.082826
0.025813
0.082689
0.152686
0.111317
0.056732
0.066017
0.044725
0.095381
0.119399
0.085568
0.147547
0.151030
0.065922
0.081783
0.082602
0.023192
0.130711
0.104370
0.049372
-0.025261
0.012394
0.002003
-0.001398
0.021135
-0.102761
-0.053481
0.028422
-0.110679
-0.117015
-0.076431
-0.130100
0.020138
-0.073440
-0.105305
-0.015264
-0.075179
-0.034729
-0.061816
-0.133197
-0.096561
-0.066501
-0.001478
0.088283
0.235398
0.700251
0.914534
1.198295
1.327442
1.218169
1.038097
0.634215
0.299372
0.107601
-0.173124
-0.391877
-0.318407
-0.196535
-0.087100
-0.037730
-0.042873
-0.037787
-0.001049
-0.136759
-0.015496
-0.014134
0.065221
0.080585
0.040580
0.032878
0.041484
0.108414
0.059456
0.117420
0.084467
0.175250
0.182186
0.243762
0.205723
0.251015
0.200762
0.209449
0.319012
0.307990
0.399178
0.366272
0.322596
0.361165
0.395906
0.451517
0.444321
0.502339
0.367719
0.474127
0.444568
0.456350
0.512078
0.406392
0.466800
0.326189
0.387682
0.478664
0.434900
0.383160
0.316751
0.307914
0.369887
0.309133
0.310267
0.302197
0.280279
0.249000
0.227833
0.193311
0.154429
0.161815
0.196399
0.209373
0.146385
0.126024
0.118543
0.063165
-0.007127
-0.020771
0.118414
0.002364
-0.016930
-0.012282
-0.021977
-0.033468
-0.014114
0.020149
0.016827
-0.093671
-0.030075
0.003672
0.011910
-0.013351
-0.085305
-0.043082
-0.098493
-0.000755
-0.038619
-0.027355
-0.051053
0.001500
-0.049690
-0.017040
-0.064228
-0.057206
-0.049691
0.034799
-0.020462
-0.020751
-0.058204
-0.018077
-0.108942
-0.020432
-0.001353
-0.033369
-0.079798
-0.060873
0.003594
0.037741
-0.022361
-0.026876
0.129810
0.085834
0.091808
0.023793
-0.062507
-0.116349
-0.095651
0.010995
-0.068715
-0.031988
0.063132
-0.077720
0.008975
-0.042773
0.001670
0.027252
0.029514
-0.014681
0.060157
-0.066498
0.146073
0.125783
0.069650
0.072539
0.070202
0.110742
0.094792
0.173035
0.148251
0.247845
0.171264
0.193220
0.138364
0.199342
0.240630
0.253224
0.154332
0.120491
0.184638
0.103327
0.100892
0.183917
0.114681
0.153870
0.118681
0.057866
0.069128
0.026274
0.043154
0.119123
0.025302
0.079171
0.054337
0.056753
0.135270
-0.033690
0.031297
0.009665
-0.064895
-0.061515
0.006397
-0.012723
-0.019333
-0.044952
0.008217
0.013067
0.051451
0.200455
0.478800
0.653677
1.029614
1.280689
1.424327
1.313376
1.055404
0.607064
0.394726
0.008686
-0.170911
-0.130383
-0.114500
-0.105698
0.048596
0.072842
0.019293
0.047287
0.071358
0.089687
0.066713
0.063213
0.082276
0.091444
0.119261
0.101834
0.100434
0.121455
0.222583
0.263400
0.209963
0.256839
0.326953
0.281384
0.291976
0.343319
0.353064
0.312912
0.329190
0.419533
0.409079
0.428639
0.453769
0.453306
0.430029
0.535503
0.563149
0.529586
0.606008
0.528991
0.574348
0.504471
0.539254
0.509174
0.489046
0.451437
0.483232
0.410005
0.496559
0.525352
0.558748
0.483590
0.406357
0.417825
0.398883
0.375139
0.374770
0.266620
0.327370
0.279355
0.339617
0.296816
0.286035
0.230860
0.238821
0.226380
0.149169
0.218326
0.195084
0.123926
0.106970
0.138309
0.033401
0.166555
0.005944
0.124143
0.112195
0.044225
0.110027
0.131411
0.046491
0.010200
-0.045776
0.023131
0.171695
0.096150
0.023911
-0.002318
0.086007
0.123394
0.039722
0.139400
0.033439
0.073974
-0.017138
0.034521
0.021520
0.043964
0.092671
0.074509
0.113260
0.051180
-0.013189
-0.002526
-0.016061
0.007626
0.026476
0.071114
0.017838
0.144927
-0.030703
0.041635
0.043609
0.019885
0.083942
0.020574
0.099235
0.029557
0.091447
0.138259
0.034742
0.042378
0.047278
-0.005782
-0.017702
0.107639
0.133772
0.075857
-0.018452
0.173659
0.071182
0.100842
0.132898
0.155508
0.052430
0.103992
0.184147
0.147804
0.150415
0.161278
0.102168
0.243850
0.277356
0.160181
0.217624
0.205152
0.212053
0.256150
0.188092
0.300246
0.196152
0.220051
0.219116
0.236590
0.211241
0.229347
0.190706
0.067960
0.097498
0.091313
0.119876
-0.003383
0.157334
0.064965
0.127238
0.083280
0.138233
0.083707
0.027798
0.056827
-0.032684
0.093269
0.014466
-0.004244
0.027455
0.039972
0.015508
0.033101
0.040337
0.195420
0.450423
0.799928
1.096332
1.302629
1.500000
1.289931
0.987466
0.630761
0.307585
0.019338
-0.177317
-0.190449
-0.129071
-0.154761
-0.026744
0.011739
0.039062
-0.022252
0.051275
0.030473
0.142295
0.028055
0.063219
0.118798
0.114196
0.130375
0.205972
0.172561
0.086369
0.129953
0.159509
0.296135
0.255624
0.285420
0.257862
0.274037
0.292848
0.349602
0.368210
0.335490
0.448141
0.474333
0.444597
0.485012
0.493289
0.452438
0.527528
0.527354
0.481311
0.425768
0.566783
0.593755
0.481752
0.550498
0.478176
0.445144
0.514479
0.479352
0.464782
0.519472
0.472322
0.410239
0.455185
0.406320
0.305213
0.367422
0.393457
0.385093
0.357635
0.286608
0.198166
0.118659
0.164766
0.138258
0.182690
0.097550
0.085943
0.108222
0.058182
0.087251
0.027262
0.051575
0.015515
0.099020
0.037322
-0.005674
0.037343
0.021165
-0.054017
-0.031359
0.045152
-0.065942
0.032521
-0.011181
-0.000875
0.007174
-0.011146
0.008539
-0.035940
-0.070933
0.011953
-0.037549
0.051547
-0.032789
-0.028673
-0.022341
-0.019338
-0.080662
-0.017636
0.043993
-0.002168
0.072652
0.011587
-0.060957
-0.041318
0.056691
-0.017614
-0.028245
-0.099992
0.017820
-0.015396
-0.082371
-0.011852
-0.019889
-0.027007
0.036383
-0.057062
0.013423
0.038899
-0.024252
-0.058820
-0.086670
-0.007762
-0.088306
-0.038054
0.014414
-0.077990
-0.002467
-0.061452
-0.036054
-0.018500
0.002275
-0.025375
0.020477
0.045121
0.013430
0.001333
0.078625
0.006312
0.067629
0.084477
0.025756
0.158654
0.190540
0.106027
0.095166
0.124382
0.140985
0.098343
0.106010
0.048921
0.157160
0.070458
0.036205
0.152980
0.050097
0.109629
-0.000295
0.055021
0.066393
-0.016998
-0.056821
0.011497
-0.025138
0.008382
-0.019374
-0.078820
-0.088855
0.009132
-0.083773
-0.104935
-0.058687
-0.122838
-0.064963
-0.160159
-0.144317
-0.102199
-0.008887
0.013438
0.199664
0.487630
0.777247
1.001469
1.244841
1.213459
1.156468
0.820617
0.520147
0.144685
-0.166462
-0.221283
-0.329587
-0.314983
-0.205520
-0.148902
-0.084960
-0.062344
-0.060477
-0.033870
-0.107578
-0.053988
0.003764
-0.071193
-0.086667
0.003273
0.061965
-0.011964
0.103342
0.028016
0.116310
0.115418
0.098278
0.139973
0.109090
0.164335
0.214959
0.162894
0.211164
0.329872
0.281051
0.281831
0.313868
0.376624
0.380321
0.425461
0.396890
0.319160
0.382798
0.394897
0.446712
0.321513
0.346830
0.438712
0.437799
0.430118
0.394597
0.380301
0.393173
0.341075
0.355592
0.367689
0.350345
0.319710
0.311738
0.249003
0.177543
0.221623
0.238302
0.125064
0.165753
0.160512
0.057358
0.116349
0.094440
0.180794
0.059340
0.072691
0.114827
-0.011550
0.044764
0.069861
-0.043795
-0.080501
0.006745
-0.039717
-0.107995
-0.015622
-0.053423
-0.026708
-0.123164
-0.125509
-0.087632
-0.080437
-0.084140
-0.028561
-0.136037
-0.088706
-0.033691
-0.080411
-0.125659
-0.128438
-0.147092
-0.074113
-0.130473
-0.048171
-0.036575
-0.090737
-0.085569
-0.103869
-0.122551
0.020049
-0.050247
-0.149998
-0.029490
-0.051084
-0.195714
-0.090442
-0.145628
-0.083801
-0.056081
-0.063989
-0.134417
-0.148115
-0.113270
-0.067803
-0.150422
-0.141362
-0.034282
-0.038512
0.002684
-0.033610
-0.155743
-0.078932
-0.011352
-0.133168
-0.019136
-0.078154
-0.058394
-0.147017
-0.070002
-0.004655
-0.072346
-0.003034
-0.016299
0.054939
-0.049483
0.020386
0.052374
-0.002646
0.087067
0.085507
0.091748
0.036333
0.098383
0.194653
0.129515
0.033961
0.103971
0.090423
0.097703
-0.016220
0.074932
0.102483
0.024399
0.034532
-0.004191
-0.017841
-0.046143
0.034276
-0.043346
0.040069
-0.046214
0.028927
-0.134649
-0.064058
-0.068078
-0.074894
-0.022589
-0.049392
0.005609
-0.101589
-0.080148
-0.066474
-0.032684
-0.022193
-0.109568
-0.081777
-0.125542
-0.062654
0.167695
0.413646
0.795009
1.012698
1.290432
1.376275
1.113234
0.853333
0.472263
0.128122
-0.190598
-0.211073
-0.329370
-0.188311
-0.214713
-0.185781
-0.063214
0.015649
-0.035097
0.084035
-0.000223
0.003723
-0.080996
0.057537
0.038938
-0.016656
0.054932
0.040463
0.053244
0.065580
0.101784
0.086688
0.094264
0.156119
0.172080
0.165163
0.203675
0.298947
0.281787
0.217476
0.279518
0.233113
0.319472
0.384358
0.404201
0.474537
0.464746
0.487359
0.401649
0.461934
0.440257
0.484052
0.453084
0.448311
0.451918
0.476187
0.435570
0.373963
0.456273
0.470814
0.364187
0.372524
0.388148
0.323641
0.380555
0.378288
0.264219
0.262035
0.348354
0.138191
0.306565
0.227058
0.197650
0.160173
0.135163
0.100682
0.137528
0.123125
0.116680
0.029988
0.024061
0.113860
0.014196
0.102587
-0.002089
-0.009957
0.158164
0.029968
0.029865
-0.030764
0.081058
-0.032129
-0.052679
-0.024663
-0.013632
-0.042311
-0.054957
-0.037625
-0.030990
-0.029847
-0.006704
-0.017692
0.066010
-0.107554
-0.076882
-0.005313
-0.060138
-0.063432
-0.014177
0.041810
0.000780
0.007824
-0.000858
0.006050
0.062329
0.010577
0.031603
-0.023183
-0.060611
-0.061803
-0.070444
-0.003470
-0.008602
-0.047552
0.018664
-0.059886
-0.043246
0.111459
-0.105056
0.012369
0.061540
0.001684
0.019163
0.000845
-0.034331
0.010640
-0.004350
0.043471
0.101771
0.016256
0.013358
0.012537
0.084977
0.032991
0.049137
0.137307
0.092486
0.131565
0.086447
0.120376
0.129578
0.134916
0.161705
0.222858
0.201522
0.247662
0.241989
0.210427
0.181900
0.170883
0.203788
0.123936
0.160958
0.107526
0.109989
0.171603
0.200969
0.122509
0.192843
0.114740
-0.006363
0.090454
0.111883
0.131718
0.027267
0.097275
-0.000297
0.081949
-0.016510
-0.021783
0.007174
0.082602
0.122461
0.058276
0.084027
0.114806
0.030222
0.014550
0.023679
0.055227
0.393861
0.644257
0.949365
1.196292
1.363649
1.381692
1.210102
1.051656
0.485574
0.137425
-0.072286
-0.075530
-0.169111
-0.110032
0.043309
0.054938
0.113819
0.053820
0.178580
0.068538
0.132599
0.113046
0.142287
0.169567
0.111197
0.075387
0.236026
0.168846
0.195590
0.284575
0.235283
0.258648
0.280667
0.301742
0.314632
0.309112
0.369923
0.370508
0.426528
0.357971
0.371812
0.454457
0.356514
0.505241
0.402145
0.458771
0.492886
0.564078
0.553903
0.571216
0.574594
0.520468
0.578558
0.627614
0.633733
0.596253
0.537296
0.556344
0.571997
0.579521
0.535570
0.519802
0.448926
0.475056
0.349308
0.474171
0.436606
0.418721
0.366931
0.378955
0.284924
0.300635
0.251927
0.305542
0.235741
0.217047
0.248193
0.176031
0.149054
0.164687
0.299100
0.173117
0.187216
0.100393
0.077025
0.025960
0.184377
0.019186
0.064562
0.113068
0.051804
0.050066
0.121185
0.088501
0.137573
0.056756
0.156300
0.058593
0.125359
0.155916
0.049303
0.098882
0.102816
0.041647
0.012209
0.074573
0.056517
0.050940
0.105395
0.047209
0.077853
0.045430
0.120720
0.090642
0.062029
0.064458
0.056565
0.103938
0.053784
0.078107
0.051861
0.051384
0.013443
0.030842
0.062186
0.087426
0.050716
0.088773
0.068488
0.087049
0.002778
0.109285
0.127395
0.023814
0.027853
0.091539
0.124047
0.053053
0.091103
0.136355
0.125865
0.151454
0.066989
0.078114
0.185301
0.188767
0.151860
0.204741
0.112917
0.223450
