-0.047640
0.030391
0.041613
0.086407
0.025860
0.052708
0.001252
0.025635
-0.021728
-0.047112
0.043371
-0.013952
-0.037810
0.005487
-0.025026
0.066810
0.035293
0.056201
0.029395
0.050272
0.085884
0.077218
0.085683
0.001500
0.072571
0.114663
0.026183
0.174249
0.107266
0.138021
0.104401
0.151187
0.098475
0.125930
0.121507
0.168451
0.102330
0.196995
0.239033
0.222898
0.245805
0.201079
0.183429
0.247457
0.219519
0.192138
0.301802
0.115808
0.242864
0.120892
0.174389
0.096722
0.184010
0.129114
0.187835
0.052114
0.089102
0.098177
0.095397
0.061400
0.089192
0.068504
0.045090
0.091593
0.056590
0.059379
0.029400
0.029798
0.106997
0.044287
0.102973
0.072655
0.064009
0.066169
0.068874
0.038092
0.015684
0.217670
0.394245
0.657632
0.968233
1.283320
1.492434
1.423115
1.190742
0.841239
0.470701
0.148255
-0.082051
-0.166715
-0.137574
-0.148023
-0.081750
-0.036986
0.000839
0.094417
0.076323
0.045958
0.167393
0.126473
0.082621
0.087985
0.106596
0.212571
0.138958
0.180581
0.236733
0.185141
0.185567
0.252196
0.204591
0.171809
0.184416
0.302523
0.195091
0.311670
0.389279
0.298106
0.387787
0.356399
0.446480
0.487237
0.443753
0.473031
0.463728
0.418478
0.462225
0.572586
0.546661
0.493073
0.531594
0.560095
0.597852
0.580893
0.531197
0.626429
0.733944
0.567794
0.484514
0.531364
0.548699
0.522984
0.514853
0.571355
0.495564
0.515961
0.423575
0.432935
0.413025
0.375804
0.381262
0.300104
0.287283
0.283264
0.301388
0.250854
0.220172
0.226546
0.288646
0.165800
0.261445
0.268674
0.192143
0.170403
0.125364
0.111344
0.111197
0.029313
0.179091
0.136251
0.097636
0.095496
0.114974
0.117055
0.055505
0.071227
0.081415
0.085838
0.120678
0.095310
0.029784
0.067189
0.137125
0.212657
0.042124
0.054995
0.116955
0.142554
0.064641
0.055091
0.133789
0.137134
0.006067
0.164713
0.069852
0.034883
0.093591
0.105455
0.011840
0.109207
-0.033081
0.098702
0.064836
0.091347
0.093913
0.055700
0.039725
0.120395
0.052813
0.082448
0.085330
0.027075
0.036239
0.076549
0.077319
0.122441
0.084386
0.094550
0.112626
0.030175
0.078694
0.112405
0.074520
0.058064
0.130512
0.137438
0.119032
0.144973
0.082246
0.067209
0.133252
0.139381
0.150529
0.110453
0.123126
0.160946
0.152024
0.244517
0.241763
0.271740
0.178755
0.214982
0.331155
0.215456
0.196213
0.263560
0.256324
0.223664
0.304988
0.248487
0.210839
0.297119
0.191170
0.148374
0.150482
0.195835
0.223954
0.183032
0.252119
0.171579
0.162520
0.178490
0.219182
0.114985
0.079453
0.168863
0.039127
0.128442
0.196263
0.017699
0.107313
0.060777
0.134459
0.050774
0.056865
0.036763
0.048185
0.057667
0.087108
0.027231
0.022045
0.114765
0.102146
0.309479
0.549462
0.861899
1.206966
1.410646
1.468411
1.301852
0.969975
0.688058
0.325013
0.002354
-0.099108
-0.198736
-0.138313
-0.151922
0.039631
0.055738
0.095947
0.063435
0.123347
0.054581
0.167469
0.056233
0.158279
0.100778
0.165802
0.152308
0.164955
0.228072
0.225768
0.168047
0.175973
0.165212
0.228186
0.228346
0.284440
0.211216
0.192968
0.286343
0.334824
0.321295
0.364296
0.344347
0.356932
0.410247
0.445779
0.439894
0.421605
0.476862
0.562640
0.570943
0.485004
0.571836
0.550961
0.476053
0.573403
0.558413
0.573418
0.557443
0.537715
0.500187
0.507671
0.576017
0.477234
0.545325
0.495565
0.477832
0.510444
0.499578
0.388241
0.282144
0.392543
0.306781
0.276473
0.243685
0.218313
0.264311
0.247350
0.301977
0.227015
0.177630
0.163318
0.111492
0.155614
0.138722
0.135115
0.038677
0.099193
0.107292
0.100343
0.038556
-0.001328
0.097541
-0.061137
0.067764
0.062837
0.091499
-0.009331
-0.004423
0.082659
-0.006449
0.047718
-0.026228
0.018599
0.080888
0.012182
0.038294
0.010865
-0.030161
-0.096588
0.045104
-0.003520
-0.010037
0.108131
0.013362
-0.017548
-0.050943
0.041774
-0.009007
-0.038907
0.000139
0.033690
0.044163
0.038740
-0.012242
0.002251
0.074584
-0.056398
0.056118
-0.037630
0.032259
0.050214
0.019029
-0.053132
0.028270
0.035355
-0.006661
0.003056
-0.029544
-0.013459
-0.048744
-0.050432
0.019597
-0.042772
0.040637
-0.000264
-0.013642
-0.038439
0.028314
0.070059
0.032689
0.083939
0.027729
-0.027668
0.043462
0.082544
0.044911
0.008186
0.111975
0.135265
0.017245
0.124497
0.174400
0.085651
0.186841
0.081028
0.208419
0.240926
0.155079
0.097173
0.145778
0.174588
0.132009
0.222203
0.176617
0.105419
0.127658
0.070993
0.066497
0.144818
0.038459
0.105456
0.043543
0.028037
0.136614
0.055620
-0.009869
-0.066090
-0.056058
-0.003548
-0.048798
0.004449
-0.069729
-0.053791
-0.061330
-0.074785
-0.014651
0.026482
-0.025145
0.075715
-0.000943
-0.023587
-0.023243
-0.024938
0.043604
0.126684
0.297994
0.650598
0.927572
1.272588
1.388896
1.323826
1.132824
0.756837
0.340917
0.002059
-0.175548
-0.282869
-0.261959
-0.239213
-0.097781
-0.080144
-0.095367
-0.026384
-0.021673
-0.001637
-0.007025
0.037630
0.030544
-0.031081
-0.023508
0.019893
-0.008334
0.068945
0.044642
0.059216
0.071215
0.078640
0.196191
0.145578
0.199931
0.187282
0.185095
0.181879
0.219655
0.254596
0.202310
0.344298
0.309303
0.356321
0.380859
0.345578
0.403721
0.428357
0.357135
0.429320
0.408875
0.483284
0.526823
0.474836
0.411035
0.391189
0.520416
0.438140
0.473526
0.453141
0.540083
0.422784
0.423333
0.440296
0.407219
0.389504
0.443961
0.361310
0.334614
0.322548
0.257311
0.253392
0.285459
0.165724
0.095577
0.221966
0.152899
0.115984
0.129612
-0.006766
0.111122
0.140309
0.033986
0.112610
0.098767
0.051653
0.039232
0.008293
-0.011414
-0.047582
-0.055821
-0.018112
0.023432
-0.043306
0.002507
-0.036163
-0.007355
-0.017323
-0.058505
-0.086177
-0.067071
-0.002983
-0.067713
0.008569
0.039480
-0.155520
-0.028205
-0.092112
-0.075291
0.019728
-0.035783
-0.063982
-0.050800
0.025136
0.001472
-0.056695
-0.020934
-0.106634
-0.070253
-0.033633
-0.015303
-0.013163
-0.105215
-0.083951
-0.049624
-0.084436
-0.020609
-0.000505
-0.083364
-0.011534
-0.131338
-0.068540
-0.069187
-0.035578
-0.018245
-0.029981
-0.096869
-0.056702
-0.007574
0.004591
-0.029213
-0.003784
-0.112863
-0.081035
-0.031854
-0.043693
-0.084329
0.018983
-0.065745
-0.036205
-0.067294
0.051129
0.025321
0.036418
0.059764
-0.004567
0.062883
0.022077
0.088713
0.112189
0.043111
0.063812
0.136214
0.121347
0.187488
0.170108
0.238928
0.182663
0.121702
0.066967
0.147302
0.057832
0.179655
0.142606
0.076573
0.095327
0.011113
0.088312
0.095553
0.069492
0.112710
-0.035907
0.059976
0.016192
0.017388
0.032556
0.070146
-0.006452
-0.020265
-0.018969
-0.051967
-0.022202
-0.016267
-0.082590
0.031358
0.009447
-0.023538
-0.095895
-0.069867
-0.089949
-0.064940
-0.068119
-0.012603
-0.024380
0.035599
0.149840
0.500041
0.782146
1.106691
1.380956
1.409262
1.229016
0.946800
0.509572
0.212314
-0.055254
-0.227375
-0.255238
-0.280449
-0.095391
-0.090923
-0.001280
-0.040742
0.006142
0.101393
0.034907
0.029260
0.040991
0.062156
0.075292
-0.021705
0.021131
0.073730
0.107150
0.104002
0.128244
0.064675
0.153176
0.156998
0.103059
0.247699
0.153837
0.258078
0.313382
0.291119
0.320129
0.302336
0.417027
0.303119
0.426860
0.382027
0.431113
0.482614
0.463553
0.361305
0.487741
0.515467
0.522654
0.488612
0.554296
0.505528
0.587829
0.490781
0.517460
0.593030
0.542857
0.480498
0.570792
0.473027
0.498926
0.440763
0.469286
0.459340
0.450373
0.307786
0.399127
0.364639
0.406590
0.350276
0.360755
0.245893
0.355522
0.223444
0.108372
0.187252
0.106560
0.191275
0.114427
0.180299
0.184153
0.088782
0.122559
0.080666
0.099111
0.079283
0.129960
0.138066
0.046177
0.111112
0.142628
0.018898
0.118578
0.021322
0.073887
0.066808
0.065135
0.068958
0.061935
0.047104
0.062473
0.076421
0.127387
0.046142
-0.015537
-0.023466
0.073116
0.086347
0.045735
0.036055
0.058552
0.087365
0.033031
0.063877
-0.002744
0.069780
0.042536
0.123565
0.000081
0.115211
0.099923
0.057684
0.087912
0.047874
0.090371
0.026074
0.065762
0.021719
0.063566
0.069378
0.054601
-0.001817
0.096706
0.056629
0.159827
0.077601
0.126872
0.064876
0.091336
0.172774
0.049734
0.062326
0.057882
0.064154
0.150364
0.044417
0.147396
0.124862
0.171708
0.077836
0.186965
0.124520
0.149341
0.169218
0.147402
0.194369
0.267768
0.215029
0.213483
0.311591
0.261515
0.266421
0.292318
0.233391
0.242611
0.249298
0.278586
0.257944
0.202625
0.270123
0.179535
0.261423
0.248989
0.204089
0.220761
0.153592
0.205793
0.165041
0.194968
0.186591
0.163846
0.212190
0.138171
0.120127
0.145579
0.155990
0.079279
0.093089
0.024089
0.086900
0.127932
0.185770
0.106085
0.169464
-0.018466
-0.003934
0.148233
0.141823
0.104995
0.066202
0.052079
0.223142
0.453633
0.724154
1.162254
1.382322
1.500000
1.396171
1.324354
0.891444
0.500328
0.097863
-0.160778
-0.214152
-0.195131
-0.093594
-0.039436
0.007908
0.103524
0.138306
0.082717
0.075142
0.067553
0.101356
0.114489
0.227183
0.131619
0.221694
0.154391
0.142998
0.258254
0.150739
0.298936
0.220921
0.253970
0.264673
0.197638
0.237287
0.364622
0.286267
0.346007
0.315085
0.403839
0.438441
0.486848
0.502382
0.492569
0.477171
0.468900
0.546490
0.508148
0.531298
0.553882
0.540252
0.605258
0.608578
0.566450
0.599522
0.632508
0.577649
0.568038
0.523194
0.641765
0.605305
0.562323
0.543450
0.535134
0.525001
0.503641
0.456272
0.538338
0.431455
0.394600
0.466908
0.396127
0.479450
0.360903
0.288954
0.322086
0.233026
0.248032
0.149920
0.180280
0.258504
0.172132
0.212752
0.171826
0.139802
0.176219
0.128372
0.142672
0.143643
0.081816
0.216619
0.105472
0.118928
0.079457
0.056297
0.042029
0.088060
-0.029841
0.117807
0.002357
0.090150
0.090461
0.196198
0.091548
0.099649
0.058744
0.024663
0.068575
0.073892
0.023604
0.059508
0.124455
0.070033
0.062419
0.128737
0.077971
0.075717
0.129603
-0.018591
0.068381
0.099705
0.034291
0.084111
0.059582
0.080422
0.151914
0.102510
0.119404
0.068816
0.097450
-0.016475
0.112183
0.027884
0.064320
0.094026
0.106145
0.018534
0.094422
0.032231
0.083121
0.082650
0.092703
-0.028535
0.106148
0.077046
0.162130
0.132884
0.061201
0.078999
0.099579
0.073351
0.146772
0.168634
0.131282
0.159818
0.088460
0.196768
0.225878
0.138212
0.177879
0.220235
0.310842
0.210122
0.235972
0.151629
0.180576
0.280854
0.196859
0.178581
0.234898
0.296229
0.115354
0.251117
0.218111
0.151807
0.196446
0.174205
0.148637
0.170321
0.185917
0.120273
0.061073
0.122089
0.013713
0.086338
0.149077
0.079947
0.111184
0.107451
0.089009
0.040650
0.156456
0.041479
0.084194
0.013793
0.033166
0.081210
-0.017898
-0.010894
0.050511
0.058618
-0.029679
0.026927
0.217205
0.288040
0.571459
0.878004
1.166468
1.458239
1.432636
1.248479
0.931141
0.650723
0.243536
-0.020000
-0.215808
-0.178134
-0.236782
-0.079377
-0.038829
-0.059476
0.029594
0.039819
0.088195
0.015294
0.059697
0.016088
0.078373
0.120162
0.037692
0.016936
0.103863
0.131710
0.041009
0.117434
0.194666
0.176602
0.088453
0.251046
0.198288
0.284030
0.180182
0.240902
0.282848
0.317269
0.295200
0.320216
0.445427
0.353586
0.398136
0.409919
0.484232
0.425937
0.374335
0.506748
0.524528
0.428052
0.508272
0.396368
0.505914
0.519554
0.493455
0.520487
0.452703
0.507191
0.509859
0.431246
0.521125
0.444472
0.416026
0.350423
0.411529
0.346251
0.307383
0.342978
0.246719
0.320978
0.241375
0.206647
0.240113
0.156202
0.153629
0.154127
0.162176
0.057494
0.008366
0.047596
0.009277
0.184543
-0.042436
0.028029
-0.011673
-0.043897
0.028433
0.000969
0.008677
0.017682
-0.027282
-0.030088
-0.019377
0.019193
0.021487
-0.016880
-0.022350
-0.110175
-0.028602
-0.077077
-0.107838
0.023039
-0.083076
-0.008718
0.057757
-0.117963
-0.063435
-0.000220
-0.006589
-0.022528
0.070761
-0.043366
-0.041716
-0.007277
0.068211
-0.083140
-0.072926
-0.035178
-0.062995
0.013954
-0.025057
-0.040805
0.020980
-0.016588
-0.108913
-0.082405
-0.039171
-0.065557
-0.126309
-0.028884
-0.064906
-0.025772
-0.028931
-0.024831
0.025625
0.009404
0.010943
-0.091675
-0.047285
-0.106309
-0.083922
-0.025274
-0.024125
-0.008994
-0.060650
-0.057978
-0.013130
-0.132349
0.051483
-0.037807
-0.030457
-0.044012
-0.005749
0.036126
0.010365
0.083841
0.143331
0.075273
0.125824
-0.011345
0.098445
0.067775
0.036245
0.161981
0.112132
0.070945
0.058039
0.020052
0.083262
0.028351
0.092635
0.111142
-0.000660
0.020084
0.072183
0.012575
-0.006264
0.014577
0.049379
-0.068754
0.018667
-0.033273
0.021857
-0.040197
-0.023556
-0.106589
-0.085208
0.002206
-0.015035
-0.109766
-0.035224
-0.022335
-0.043848
-0.071842
-0.092125
-0.097020
-0.169734
0.034064
0.020232
-0.030515
-0.072832
-0.051193
0.107484
0.286247
0.523433
0.963041
1.089912
1.339846
1.224092
1.085289
0.659509
0.290552
-0.067397
-0.196571
-0.336506
-0.326495
-0.312201
-0.240432
-0.150074
-0.144799
-0.030535
-0.015942
-0.124332
-0.064797
0.046924
-0.019204
-0.041603
0.006605
-0.046034
-0.014860
0.056438
0.027092
0.066424
0.099705
0.113577
0.063933
0.129781
0.081650
0.131720
0.199486
0.117961
0.104162
0.182972
0.230835
0.235543
0.248768
0.239409
0.349351
0.365587
0.307875
0.354487
0.300243
0.437018
0.417726
0.394122
0.474301
0.423788
0.416825
0.477174
0.380718
0.468498
0.377091
0.405809
0.451609
0.388513
0.305920
0.307372
0.342732
0.353943
0.306699
0.323119
0.346032
0.221351
0.298082
0.242213
0.248606
0.202859
0.131822
0.101262
0.099295
0.121680
0.088527
0.098012
0.073188
0.100712
0.025356
-0.004319
0.049979
0.013270
-0.011303
0.022225
-0.029480
-0.076374
-0.076690
0.017149
-0.032526
-0.035555
-0.056318
-0.072616
0.006789
-0.061520
-0.053372
-0.044186
-0.078700
-0.164804
-0.078969
-0.044154
-0.042630
-0.017965
-0.078505
-0.062217
-0.078036
-0.014492
-0.036384
0.026638
-0.030479
-0.071854
0.037126
-0.104904
-0.041780
-0.073219
-0.123131
-0.067324
-0.090070
-0.033667
-0.087323
-0.051743
-0.101896
-0.026165
0.054833
-0.012382
-0.070287
-0.100948
-0.103231
-0.046845
-0.077636
-0.035706
-0.050747
-0.090843
-0.015294
-0.030610
-0.068528
-0.105775
-0.022716
-0.013450
-0.046824
-0.061104
-0.081126
-0.078980
-0.085577
-0.051270
0.019820
0.031958
0.032098
0.033672
-0.041249
0.032079
0.017588
0.027631
0.075193
0.021731
0.105956
0.108574
0.030274
0.049342
0.167240
0.112294
0.137773
0.199042
0.076174
0.116100
0.140561
0.151862
0.166814
0.136757
0.169333
0.106003
0.220882
0.166139
-0.000080
0.100551
0.073140
0.101662
0.020864
0.068144
-0.004771
-0.037693
0.011145
-0.072639
-0.029928
0.018520
0.065512
0.073785
0.006732
-0.005549
0.089633
0.008311
0.099928
-0.003283
0.021500
0.020667
-0.041340
0.044049
-0.010958
-0.108652
-0.020587
-0.007542
0.035139
0.227033
0.470306
0.801557
1.133498
1.324129
1.424425
1.238370
0.943841
0.502109
0.176419
-0.056006
-0.205420
-0.350999
-0.209277
-0.117098
-0.112621
-0.056716
-0.015123
-0.000210
0.032262
0.009936
0.067579
0.086239
0.065381
0.057633
0.090004
0.029203
-0.002115
0.054115
0.018840
0.051446
0.129214
0.151753
0.171248
0.179707
0.163739
0.174698
0.296878
0.230259
0.266998
0.354948
0.322231
0.341745
0.388255
0.379003
0.410670
0.425969
0.397562
0.472640
0.477080
0.516328
0.472726
0.467603
0.463320
0.513752
0.615406
0.529862
0.600376
0.534358
0.502452
0.543089
0.388216
0.487419
0.466480
0.473216
0.442882
0.471767
0.333399
0.320036
0.325415
0.355294
0.406294
0.362543
0.304766
0.236512
0.189812
0.291861
0.213024
0.131826
0.189202
0.140053
0.188623
0.179822
0.115362
0.111162
0.125094
0.046881
0.033168
0.088353
0.014252
0.077292
0.088884
0.014527
0.140958
0.030191
0.038498
0.023681
0.036254
0.047386
0.059025
0.083739
0.075134
0.020775
0.047322
0.070026
-0.030101
0.080204
0.037730
0.105914
0.056149
0.068986
-0.042967
0.053838
0.007484
0.030409
0.059911
0.078648
0.023176
-0.017643
0.042136
0.018629
0.080139
-0.019334
0.183210
0.033333
-0.031788
0.037058
0.005265
0.000526
0.036291
-0.025455
0.018034
0.001196
0.008063
0.040228
0.094021
0.067314
-0.031559
0.137431
0.022132
0.038063
0.151535
-0.010460
0.018893
0.043636
0.063570
0.055425
0.034528
0.057656
0.030301
0.096220
0.057570
0.083954
0.130958
0.089170
0.077092
0.213242
0.180027
0.108831
0.154483
0.119781
0.138266
0.156681
0.171970
0.282201
0.182480
0.212878
0.140916
0.246784
0.201874
0.179044
0.247370
0.216906
0.224669
0.184678
0.164950
0.213251
0.185585
0.231230
0.099761
0.166020
0.051449
0.134434
0.144512
0.139940
0.006864
0.131176
0.122129
0.116852
0.058112
0.068102
0.066213
-0.001261
0.080318
-0.019614
0.085482
0.068983
0.063276
0.058679
0.035754
0.051998
0.006634
0.050080
0.015882
0.069476
0.165063
0.482604
0.744096
1.062250
1.270020
1.428572
1.313742
1.084062
0.730196
0.338466
0.018566
-0.141978
-0.221057
-0.228742
-0.098839
-0.052834
0.039519
0.084193
-0.012938
0.108087
0.074439
0.071487
0.055618
0.065333
0.167551
0.089595
0.079986
0.144150
0.223014
0.106703
0.092381
0.215641
0.149274
0.112205
0.184739
0.213797
0.240515
0.301799
0.277947
0.274998
0.305770
0.285181
0.376878
0.421474
0.392430
0.339190
0.454810
0.478626
0.495968
0.519929
0.516981
0.461086
0.478705
0.599250
0.563970
0.590140
0.536771
0.574885
0.511460
0.556121
0.547084
0.466536
0.494082
0.536653
0.504082
0.461622
0.477045
0.386279
0.470669
0.489733
0.307495
0.390702
0.313985
0.346519
0.226480
0.266541
0.213617
0.208783
0.243239
0.245993
0.173662
0.058926
0.140545
0.163365
0.092828
0.085637
0.046894
0.098527
0.050749
0.176345
0.150648
0.063948
-0.003348
0.102334
0.055963
-0.007293
0.034163
0.009178
0.027300
-0.015529
0.050491
0.030451
-0.010272
0.023355
-0.004214
0.043526
-0.034727
-0.009661
-0.036887
0.071351
0.010941
0.031530
0.022579
0.053516
0.029974
-0.059376
-0.008894
-0.015111
0.014593
0.049897
-0.032388
-0.048911
-0.015274
-0.075234
-0.034317
-0.026424
0.056606
-0.070506
-0.048915
-0.047291
0.002815
-0.054533
0.033343
-0.046485
0.025311
-0.027669
-0.117598
0.006334
-0.022343
-0.050937
0.021664
-0.034911
-0.007934
-0.032496
0.024050
0.042023
-0.016101
0.035137
0.069742
0.017141
-0.007776
0.034898
-0.032810
0.041828
0.015356
0.073391
0.110644
0.070789
0.068465
0.130878
0.084237
0.119817
0.172411
0.081483
0.080003
0.117279
0.134875
0.164029
0.222981
0.137363
0.157932
0.201629
0.119861
0.137104
0.117078
0.078851
0.071815
0.121067
0.098539
0.056998
0.081151
-0.022479
0.053058
0.064076
0.032339
0.063711
0.046410
0.053003
0.036062
0.023972
0.028775
-0.047677
-0.012754
0.008703
-0.036534
-0.069173
-0.106227
0.041631
-0.027599
-0.052304
-0.114366
-0.080709
-0.041753
-0.052650
-0.042981
0.047905
0.197809
0.500566
0.845133
1.117055
1.287662
1.411375
1.120050
0.866240
0.503204
0.163186
-0.125057
-0.288389
-0.321100
-0.247504
-0.207869
-0.175202
-0.022266
-0.075387
-0.031780
0.014393
-0.003812
0.026614
-0.024806
0.022534
0.033756
-0.033952
-0.015105
0.032546
-0.011263
-0.034729
0.017443
0.075872
0.029192
0.174016
0.140885
0.172644
0.147577
0.140591
0.222994
0.218148
0.188982
0.225837
0.152312
0.305479
0.219237
0.336796
0.331032
0.425591
0.375833
0.346340
0.378590
0.368856
0.429625
0.421686
0.449266
0.413225
0.351242
0.481213
0.340350
0.468839
0.481879
0.487530
0.447334
0.380265
0.311711
0.378960
0.282892
0.289122
0.310703
0.304645
0.210018
0.230886
0.148849
0.109972
0.088567
0.118532
0.064426
0.140056
0.055528
0.066907
0.003869
0.051855
0.001284
0.059547
0.061361
0.044263
-0.016704
-0.068370
0.014108
-0.005289
-0.099588
-0.076731
-0.045318
-0.103025
-0.073275
-0.016584
-0.042898
-0.099926
-0.040238
-0.079480
-0.117781
-0.121064
-0.080378
-0.056933
-0.084156
-0.158525
-0.076600
-0.075096
-0.034932
-0.100079
-0.114376
-0.038003
-0.081959
-0.064227
-0.108766
-0.083614
-0.102417
-0.109027
-0.100853
-0.091747
-0.082345
-0.107161
-0.083554
-0.090523
-0.124931
-0.149786
-0.160739
-0.106486
-0.149073
-0.117962
-0.080784
-0.093479
-0.072933
-0.059994
-0.081732
-0.122887
-0.103194
-0.109120
-0.064188
-0.030975
-0.146130
-0.128202
-0.105088
-0.090180
-0.064541
-0.085082
-0.068694
-0.073405
-0.067351
-0.113464
-0.092678
-0.101137
-0.045692
-0.136659
-0.052225
-0.073125
-0.008312
-0.001475
0.049162
-0.057612
0.003835
-0.011787
0.145422
0.064360
0.099353
0.175596
0.066880
0.029078
0.122481
0.089820
0.018077
0.158800
0.016155
-0.046541
0.093084
0.077940
0.007373
0.024184
0.012719
-0.046444
-0.017034
0.121232
-0.005760
-0.061970
-0.073309
-0.056703
-0.060218
-0.119470
-0.070351
-0.012647
-0.053769
-0.060606
-0.159435
-0.158923
-0.138450
-0.061877
-0.069642
-0.094669
-0.057044
-0.011785
-0.087187
-0.131355
-0.181809
-0.120841
-0.090898
0.168182
0.265863
0.517303
0.886355
1.245276
1.340754
1.268607
0.950378
0.658121
0.146116
-0.007178
-0.266429
-0.393893
-0.341933
-0.292313
-0.124143
-0.205321
-0.122266
-0.038371
-0.000980
-0.057104
-0.059023
-0.041403
-0.056060
-0.015204
0.024055
0.012906
0.009287
0.058588
0.005856
0.057762
0.053715
-0.047096
0.078773
0.032867
0.065635
0.141359
0.164744
0.214975
0.208425
0.220377
0.252930
0.277800
0.283251
0.278268
0.208650
0.384213
0.383559
0.430391
0.447562
0.340528
0.380984
0.459540
0.452935
0.373299
0.461633
0.440309
0.428665
0.361793
0.500704
0.440579
0.472660
0.360220
0.412895
0.429284
0.501402
0.346739
0.387058
0.299171
0.306443
0.201427
0.180858
0.207483
0.254259
0.189759
0.071942
0.105155
0.239472
0.127113
0.093009
0.105266
0.153305
0.036769
0.148894
-0.048863
-0.013423
0.008882
-0.021173
-0.018320
-0.101112
-0.053313
0.082738
-0.048962
-0.055834
-0.054469
-0.007512
0.052470
0.006191
-0.008863
-0.031595
-0.090649
-0.021400
-0.104992
-0.029168
-0.029880
-0.045128
0.050879
0.022554
-0.079914
-0.080777
-0.015774
-0.060836
0.087938
-0.041954
-0.107113
-0.017274
0.006066
-0.054475
-0.057240
-0.059036
-0.049180
-0.062305
-0.028670
0.042579
-0.068338
-0.066033
0.055586
0.017106
-0.094839
0.110029
-0.053512
-0.070198
-0.019354
-0.041187
-0.084516
-0.012439
-0.003583
0.028396
-0.047865
-0.060828
0.039111
0.021329
0.015462
-0.002615
-0.031486
0.034259
0.071482
-0.035576
-0.000412
0.096056
0.018238
0.085917
0.060203
-0.023816
0.105736
0.120222
0.077248
-0.008706
0.159534
0.094741
0.219264
0.100282
0.205145
0.117112
0.083588
0.155030
0.142405
0.103849
0.106309
0.188091
0.218224
0.247755
0.233128
0.112377
0.198286
0.129332
0.029701
0.134856
0.130182
0.172583
0.107203
0.114151
0.089935
0.036666
0.072620
0.063221
-0.024687
0.042609
0.026687
0.109669
0.045135
0.084400
0.043495
-0.029755
0.038472
0.068581
-0.018252
0.030179
0.090058
-0.001394
-0.011532
0.015346
0.024945
-0.037773
0.055413
0.122798
0.255214
0.490259
0.869164
1.224084
1.284749
1.433825
1.306677
0.936722
0.563869
0.192794
-0.099810
-0.271613
-0.143473
-0.104982
-0.200458
0.064687
0.071471
0.019566
0.011790
0.041818
0.115189
0.099918
0.112917
0.071773
0.087233
0.193811
0.082454
0.114705
0.177042
0.136684
0.134279
0.165665
0.239719
0.228038
0.344486
0.270763
0.325734
0.263706
0.333985
0.326729
0.286860
0.310987
0.427409
0.402665
0.433954
0.500874
0.438205
0.548263
0.450048
0.500049
0.588619
0.494149
0.551130
0.558238
0.506209
0.586890
0.523550
0.563883
0.599412
0.519432
0.495090
0.581573
0.540550
0.556939
0.451573
0.472358
0.414981
0.564448
0.511254
0.456274
0.382360
0.335471
0.416068
0.334236
0.300399
0.280717
0.253818
0.271125
0.141784
0.211509
0.134637
0.129520
0.194190
0.205504
0.094924
0.169518
0.208376
0.211338
0.127434
0.169106
0.128500
0.124946
0.098764
0.108446
0.048125
0.162784
0.103048
0.054897
0.100704
0.084432
0.022802
0.097439
0.107921
0.093757
0.086582
0.108409
0.075690
0.079874
0.060724
0.071913
0.015623
0.039549
0.134396
0.100557
0.057191
0.018410
0.136083
0.113584
-0.003411
0.097767
0.057432
0.068977
0.050792
0.084587
0.056112
0.143390
0.099593
0.123710
0.140017
0.185073
0.061072
0.106084
0.116118
0.114089
0.040396
0.157602
0.142917
0.133780
0.049569
0.089197
0.125275
0.106493
0.038993
0.097232
0.086148
0.128763
0.043909
0.047607
0.121317
0.111763
0.137040
0.088649
0.091953
0.115138
0.127367
0.098756
0.121197
0.253389
0.172365
0.162394
0.180306
0.259197
