0.008524
-0.012005
0.027194
-0.042225
-0.002066
-0.002614
0.038558
-0.004964
0.058198
0.014337
0.007521
0.035377
0.032199
0.002628
0.012749
0.062798
0.045551
0.046090
0.080248
0.135801
0.057461
0.050986
0.060357
0.170851
0.158933
0.122887
0.117609
0.188730
0.167762
0.178237
0.170197
0.218820
0.150703
0.211699
0.290045
0.247807
0.242867
0.212575
0.211663
0.084877
0.219814
0.117358
0.125331
0.108949
0.091428
0.109058
0.110143
0.122715
0.149263
-0.024700
0.084878
0.103539
0.092296
0.083753
0.076168
0.067956
0.052195
0.121786
0.005913
0.051131
0.075107
-0.058004
0.099478
0.160471
0.282133
0.416914
0.713875
1.025768
1.302359
1.368128
1.298236
1.045336
0.738406
0.269108
0.108915
-0.087561
-0.058400
-0.070553
-0.052523
0.017006
0.054800
0.095129
0.113609
0.177880
0.201909
0.167290
0.179439
0.219252
0.192534
0.175457
0.286967
0.250690
0.309324
0.315455
0.285000
0.296453
0.372668
0.469062
0.445619
0.502032
0.393167
0.418527
0.475876
0.529153
0.478379
0.475315
0.546023
0.513582
0.631447
0.585103
0.628127
0.579729
0.509151
0.626994
0.534403
0.578657
0.643291
0.550526
0.558476
0.553043
0.566021
0.499322
0.395908
0.448461
0.430999
0.396676
0.378596
0.347395
0.287952
0.388277
0.412962
0.346419
0.270998
0.225100
0.198119
0.277574
0.212172
0.235155
0.214230
0.222588
0.109782
0.173078
0.197370
0.075601
0.167432
0.110070
0.071788
0.122096
0.130205
0.130627
0.129484
0.103827
0.120221
0.115352
0.124100
0.076715
0.102170
0.108244
0.158736
0.060747
0.123718
0.060071
0.160919
0.053117
0.151700
0.111452
0.115587
0.059996
0.083481
0.071300
0.096825
0.098137
0.117324
0.113166
0.068621
0.007488
0.043463
0.049257
0.046371
0.003317
0.045814
0.023296
0.084247
0.078136
0.010390
0.082142
0.096771
0.080510
0.118064
0.081488
0.052698
0.082267
0.232220
0.147422
0.053428
0.211487
0.198667
0.124160
0.225862
0.239661
0.207631
0.195899
0.288095
0.305920
0.262480
0.326496
0.302316
0.278117
0.292168
0.230128
0.268630
0.199347
0.195653
0.226594
0.156635
0.150379
0.131482
0.275875
0.192610
0.172927
0.200663
0.205240
0.099373
0.191238
0.092867
0.178154
0.119751
0.098329
0.131689
0.085325
0.171241
0.161659
0.065708
0.099292
0.126183
0.164982
0.236215
0.352574
0.621080
1.003053
1.283207
1.383233
1.384234
1.123806
0.800737
0.490522
0.199347
0.044651
-0.046723
0.002705
0.098244
0.031434
0.088614
0.121296
0.123060
0.107558
0.251340
0.203386
0.108653
0.147658
0.123923
0.287806
0.297813
0.245585
0.250975
0.312357
0.311203
0.427727
0.281768
0.420406
0.436719
0.462373
0.463331
0.504461
0.547891
0.507434
0.470835
0.500866
0.557825
0.504764
0.580926
0.557398
0.543852
0.505447
0.594753
0.560731
0.581374
0.584086
0.544305
0.573773
0.562730
0.562670
0.535698
0.451609
0.567209
0.472776
0.437095
0.402662
0.314168
0.418771
0.334207
0.271059
0.357299
0.258404
0.274526
0.242417
0.229547
0.145143
0.124208
0.211306
0.130178
0.180573
0.197117
0.189248
0.099641
0.147372
0.124234
0.107223
0.119431
0.122779
0.161186
0.094325
0.120986
0.021726
0.042905
0.090898
0.013407
0.047309
0.062873
0.090232
0.065262
0.052612
0.015965
-0.002040
0.022477
0.063283
0.028881
0.087927
0.001737
0.136422
0.016188
0.016498
0.110862
0.060735
0.021422
0.080848
0.078560
0.047765
0.060651
0.107500
0.039468
0.096888
0.012219
0.026251
0.109850
0.063398
0.032646
-0.042037
0.074925
0.063488
0.051076
0.027836
-0.004501
0.112635
0.015837
0.093640
0.057113
0.134720
0.101869
0.083557
0.150474
0.149320
0.077590
0.200114
0.132597
0.154992
0.193685
0.155423
0.221997
0.240968
0.158604
0.226769
0.211313
0.194155
0.206443
0.112625
0.109230
0.147963
0.172644
0.047967
0.153243
0.116678
0.144829
0.075573
0.118898
0.049462
0.049003
0.137936
0.050324
0.058721
0.012956
0.075760
-0.009876
0.130023
0.057925
-0.089434
-0.003485
0.040740
0.150357
0.247307
0.448937
0.744150
1.084735
1.331955
1.370199
1.180669
0.871981
0.540189
0.208504
-0.048927
-0.071945
-0.135726
-0.149235
-0.127050
0.032525
0.083494
-0.019706
0.019146
0.072293
0.091161
0.064205
0.092922
0.148943
0.139369
0.134798
0.167420
0.134564
0.222953
0.171237
0.286686
0.323626
0.317785
0.273348
0.274884
0.374419
0.376743
0.374751
0.417822
0.396845
0.412405
0.405544
0.435736
0.422000
0.502212
0.534826
0.485260
0.499364
0.480575
0.542467
0.503215
0.442094
0.399756
0.358413
0.508810
0.508252
0.398428
0.466378
0.413796
0.374429
0.285973
0.378278
0.377376
0.359870
0.202001
0.259852
0.256115
0.144723
0.147934
0.101846
0.115116
0.094353
0.165977
0.127721
0.087718
0.007298
0.113897
0.047458
0.069934
0.026917
0.050754
0.055902
-0.036371
-0.045655
0.004866
-0.045364
-0.057060
-0.024356
0.041844
-0.061784
-0.080022
0.032237
-0.055264
-0.011270
-0.087034
-0.023133
0.019822
-0.015498
0.002525
-0.085927
0.006618
-0.040817
-0.067295
0.045473
-0.014255
-0.093187
-0.061078
-0.073288
-0.008974
-0.040818
-0.013936
-0.081579
-0.071352
-0.047012
-0.051672
-0.035531
-0.060797
-0.042125
-0.008660
-0.002076
-0.001158
-0.003158
-0.066054
-0.038207
0.007542
-0.002235
-0.061797
0.046891
-0.008413
0.002205
0.023711
0.019945
0.090298
0.071806
0.064919
0.096774
0.128359
0.199950
0.105631
0.128734
0.175935
0.147581
0.047842
0.092056
0.202063
0.070117
0.171800
0.102431
0.060514
0.062188
0.090556
0.041977
0.009080
0.057332
0.135822
0.075676
0.002039
0.010117
-0.016832
-0.034292
0.012350
-0.035606
0.037277
-0.003964
-0.017590
-0.011375
0.032002
0.023982
-0.006238
-0.054472
-0.029326
0.058980
0.105927
0.237681
0.596573
0.799661
1.167415
1.261946
1.207631
1.078888
0.657058
0.333719
0.006629
-0.076114
-0.125384
-0.131587
-0.104628
-0.043703
-0.008545
-0.032974
0.053350
0.056553
0.082299
0.038479
0.079254
0.127858
0.085258
0.037493
0.133818
0.153269
0.148692
0.207423
0.223425
0.270799
0.222625
0.286489
0.285479
0.281419
0.291134
0.341017
0.297120
0.339471
0.400871
0.341450
0.435177
0.457395
0.472003
0.427922
0.458582
0.434391
0.506310
0.477269
0.478601
0.484795
0.448477
0.516340
0.415301
0.472879
0.443789
0.383207
0.303496
0.410865
0.376542
0.363008
0.300673
0.244404
0.274885
0.195525
0.171112
0.242245
0.213509
0.144530
0.223505
0.181529
0.070670
0.053479
0.102716
0.045136
0.064739
0.044434
0.075925
-0.006568
0.078091
0.012177
0.017236
-0.028775
-0.005139
0.049198
0.050571
0.003032
0.028753
0.020854
0.049252
-0.065928
-0.040299
-0.057725
-0.000516
-0.011180
0.036055
-0.076545
-0.055136
0.022753
-0.009897
-0.033420
-0.040350
-0.016104
0.033329
-0.002273
-0.014679
0.054594
-0.016455
0.044932
0.058242
-0.026567
-0.055527
-0.020977
0.002133
-0.054518
-0.029623
0.042697
0.092219
0.103575
0.014620
-0.035030
0.035773
0.007173
0.058313
0.024786
-0.076319
-0.022083
0.083407
-0.018812
0.108186
-0.007204
0.133795
0.106780
0.145874
0.021426
0.121402
0.190100
0.105113
0.120568
0.157631
0.122891
0.233109
0.123640
0.116251
0.180159
0.181466
0.129433
0.210957
0.212819
0.186962
0.157200
0.128994
0.211865
0.124021
0.056225
0.136280
0.122576
0.031852
0.102268
0.067506
0.073907
-0.028892
0.021284
0.012993
0.040807
0.018531
0.091846
0.081631
-0.006093
0.043440
0.061515
0.181660
0.318752
0.546635
0.837981
1.214587
1.392997
1.358543
1.231368
0.838077
0.556825
0.238873
0.063216
-0.119569
-0.091067
-0.102461
-0.026692
0.022867
0.068053
0.025149
0.055106
0.124871
0.116176
0.217486
0.197185
0.169401
0.211579
0.242545
0.246587
0.301666
0.253057
0.280808
0.347393
0.368690
0.368533
0.327015
0.364427
0.316242
0.461463
0.449307
0.490113
0.416376
0.548438
0.549482
0.475860
0.497303
0.532277
0.497809
0.553615
0.572070
0.616882
0.537003
0.554687
0.634697
0.557422
0.576554
0.576374
0.442527
0.520989
0.537876
0.376587
0.525201
0.387292
0.401360
0.386541
0.283747
0.378269
0.397059
0.387821
0.204487
0.327753
0.201594
0.238553
0.167436
0.248088
0.233798
0.169034
0.191171
0.059893
0.208386
0.080402
0.114847
0.215018
0.136598
0.198488
0.163770
0.109192
0.001961
0.073427
0.093180
0.100425
0.059253
0.151152
-0.021382
0.082248
0.115713
0.062762
0.104375
0.105165
0.123679
0.090063
-0.016813
0.040429
0.093425
0.073551
0.136102
0.098800
0.121193
0.091043
0.092180
0.024613
0.108067
0.052654
0.109359
0.027584
0.035387
0.132677
0.114869
0.079059
0.001411
0.118946
0.112790
0.063814
0.134164
0.176609
0.145652
0.108397
0.086606
0.233775
0.185952
0.087416
0.134525
0.125842
0.226903
0.211151
0.168818
0.232875
0.221301
0.201714
0.258797
0.229012
0.253064
0.252181
0.251846
0.306546
0.286145
0.246002
0.275124
0.343256
0.174458
0.175192
0.249993
0.228661
0.156080
0.275169
0.140595
0.199669
0.109017
0.186988
0.133141
0.054426
0.134902
0.175681
0.121016
0.141557
0.058621
0.031378
0.152202
0.140314
0.110979
0.197994
0.108078
0.098151
0.142720
0.236242
0.496192
0.758361
1.131503
1.425392
1.500000
1.424321
1.127870
0.652983
0.497734
0.141354
-0.035911
-0.045369
-0.083164
0.075061
0.106820
0.190843
0.159956
0.176939
0.140424
0.158429
0.135384
0.257454
0.229048
0.178247
0.284052
0.236136
0.244203
0.349478
0.338676
0.320959
0.397472
0.370950
0.435100
0.402858
0.441142
0.503926
0.461380
0.454783
0.527024
0.533560
0.524602
0.566835
0.545271
0.514962
0.621567
0.626603
0.605003
0.537481
0.637656
0.569134
0.517555
0.537955
0.583806
0.504086
0.513508
0.542669
0.482826
0.447978
0.507413
0.439468
0.398014
0.488897
0.353598
0.439331
0.287239
0.304563
0.350500
0.287939
0.328178
0.256032
0.279535
0.223304
0.244312
0.155882
0.161800
0.129901
0.193271
0.191237
0.169501
0.152419
0.121860
0.152263
0.112460
0.115536
0.063169
0.164550
0.188529
0.106585
0.122438
0.130972
-0.004342
0.137717
0.018883
0.092122
-0.018718
0.068116
0.125648
0.054469
0.025696
0.104674
0.100122
0.176996
0.097038
0.132071
0.067732
0.106845
0.029311
0.058153
0.086860
0.050830
0.077323
0.107825
0.047192
0.055613
0.145756
0.066208
0.052382
0.062482
0.096895
0.114572
0.104334
0.051315
0.082892
0.121443
0.052425
0.079284
0.101145
0.120344
0.128139
0.166466
0.191441
0.179461
0.163892
0.180778
0.219201
0.161297
0.230432
0.149734
0.232869
0.223756
0.186652
0.270430
0.281708
0.252912
0.176512
0.230843
0.198119
0.251311
0.159119
0.115625
0.191273
0.212262
0.184233
0.113306
0.133501
0.105329
0.076272
0.127151
0.131050
0.061142
0.077499
0.102092
0.027524
0.038472
0.067294
0.042880
0.020461
0.014102
0.072757
0.093771
0.026691
0.132996
0.243206
0.534034
0.919577
1.166757
1.348854
1.337622
1.124706
0.900267
0.569969
0.077777
-0.029132
-0.103484
-0.119047
-0.172977
-0.053196
0.037329
0.077097
-0.016777
0.108876
0.074416
0.140370
0.135360
0.121270
0.141735
0.142217
0.209736
0.127073
0.294990
0.182762
0.240444
0.290418
0.278382
0.348524
0.342469
0.386933
0.359232
0.399517
0.319040
0.472378
0.484431
0.444906
0.519302
0.547084
0.400098
0.426312
0.512291
0.539593
0.481903
0.560632
0.466975
0.549281
0.526811
0.416778
0.522990
0.433313
0.374524
0.412929
0.417877
0.410340
0.332892
0.385553
0.349305
0.303935
0.226045
0.253642
0.199166
0.201767
0.191448
0.170810
0.150314
0.137576
0.156572
0.148709
0.071205
0.097601
0.120223
-0.016659
0.085596
-0.061342
0.030213
0.035539
0.031481
0.068131
0.046068
0.023735
0.053431
0.030043
0.011364
0.025791
0.026832
-0.063141
-0.086827
-0.054361
-0.012202
-0.013737
0.012162
0.002353
-0.119452
-0.078886
-0.004402
-0.023619
-0.011763
-0.028456
-0.086703
-0.033691
0.018547
0.079899
0.029684
-0.081683
-0.110589
-0.044807
-0.051443
-0.120313
-0.019516
0.032800
0.032204
-0.040758
0.018760
0.022349
-0.011586
-0.054258
-0.031123
-0.114413
0.012835
-0.015463
-0.063339
-0.015087
0.026411
-0.005463
0.077957
0.027828
0.064128
0.042760
0.063928
0.090723
0.092410
0.148643
0.045331
0.128880
0.140611
0.089658
0.135469
0.161282
0.108275
0.081576
0.106399
0.125359
0.087213
0.089567
0.043896
0.075318
0.038914
0.066592
0.066208
0.003899
0.040279
0.006824
0.009140
-0.014119
0.079080
-0.068802
-0.079016
-0.026122
-0.025683
-0.038930
-0.063829
-0.050053
-0.003242
0.005705
-0.091437
-0.026005
-0.011995
0.134207
0.371710
0.655002
0.920128
1.194727
1.244442
1.202693
0.937425
0.557024
0.071926
-0.074262
-0.273954
-0.248530
-0.275667
-0.095406
-0.054569
0.006966
-0.032776
0.032363
-0.004736
0.014121
0.055008
0.060109
0.040039
0.027513
0.090826
0.119177
0.168892
0.122593
0.151131
0.178076
0.220737
0.184733
0.190028
0.316384
0.216793
0.385917
0.306432
0.351957
0.442035
0.387932
0.355284
0.465969
0.388587
0.330362
0.427706
0.371425
0.424450
0.414136
0.475207
0.435815
0.355323
0.343602
0.363710
0.392729
0.351841
0.283715
0.307029
0.281056
0.321375
0.364031
0.260529
0.334946
0.178440
0.201601
0.150168
0.122730
0.153626
0.091625
0.148412
0.070689
0.120101
0.090769
0.093683
0.048152
0.014657
0.058808
-0.083249
-0.033686
0.012881
-0.016293
-0.051043
-0.064359
-0.048231
-0.026598
-0.054087
-0.091034
-0.089294
-0.136885
-0.123734
-0.066692
-0.010649
-0.034114
-0.120391
-0.077317
-0.116113
-0.071206
-0.016033
-0.077926
-0.056238
-0.079795
-0.022872
-0.129724
-0.085858
-0.073265
-0.093634
-0.133631
-0.000865
-0.133531
-0.070925
-0.065074
-0.024019
-0.123421
-0.075441
-0.112270
-0.110087
-0.075714
-0.117691
-0.014799
-0.053713
-0.078391
-0.119853
-0.077341
-0.100209
-0.061049
-0.033034
-0.073376
0.044222
-0.130495
0.020995
-0.036043
0.004616
0.035096
0.078335
0.044801
0.012985
0.115703
0.041687
0.153060
0.094763
0.133500
0.065788
0.057088
0.170889
0.154528
0.129106
0.125165
0.098520
0.000904
0.120041
0.116833
0.061413
0.041369
0.047449
0.018264
0.035566
0.070503
0.051446
-0.043006
-0.079842
-0.010145
-0.014189
0.055367
-0.104796
0.035807
-0.045513
-0.059244
-0.006595
-0.091743
-0.053486
-0.032241
0.018482
0.076177
0.247350
0.596365
0.826807
1.107088
1.250107
1.253588
1.039618
0.675908
0.376751
0.043524
-0.139659
-0.149552
-0.230837
-0.155043
-0.056541
-0.003934
-0.000821
0.009521
0.064805
0.060486
-0.011990
0.022171
0.101285
0.080713
0.133155
0.112412
0.135334
0.186423
0.131620
0.252138
0.202986
0.278524
0.273184
0.280606
0.319099
0.325541
0.386335
0.420431
0.388961
0.390667
0.412649
0.439931
0.485379
0.472321
0.507321
0.435260
0.460926
0.520089
0.486519
0.444567
0.417923
0.514375
0.396175
0.462385
0.408843
0.451440
0.390171
0.469218
0.412666
0.214063
0.321276
0.306394
0.338687
0.297991
0.197224
0.209997
0.177673
0.183778
0.261982
0.240183
0.170988
0.158087
0.153405
0.058319
0.085107
-0.001222
0.023943
0.014518
0.021648
0.047912
0.032289
0.033770
-0.004279
0.072065
0.034383
0.051589
0.009152
-0.018964
-0.006365
0.012335
-0.025131
-0.066254
0.006765
-0.022958
-0.030241
-0.004363
-0.033646
-0.048484
0.072853
0.023379
-0.009813
0.016188
-0.042711
-0.029199
-0.005507
0.015868
-0.025459
0.077184
0.022356
0.060482
-0.018729
-0.073058
0.043891
-0.008745
-0.016580
-0.035762
0.022503
-0.019948
0.005081
-0.020356
0.035899
0.096155
0.094702
0.067972
0.079865
0.090282
-0.015424
0.154800
0.097404
0.074320
0.139248
0.085309
0.144299
0.146368
0.166426
0.091116
0.184696
0.210170
0.272273
0.234126
0.192505
0.238443
0.211784
0.198743
0.101919
0.196324
0.200730
0.183820
0.219134
0.135628
0.165198
0.143131
0.132962
0.122559
0.089748
0.150667
0.139581
0.160615
0.061259
0.077541
0.074590
-0.024777
0.020032
0.097688
0.048919
-0.013510
-0.023288
0.044286
0.066058
-0.050417
0.001538
0.063622
0.251420
0.452437
0.923145
1.161581
1.237576
1.344319
1.264395
0.874750
0.536320
0.237682
-0.011706
-0.122454
-0.182173
-0.057867
0.008367
0.084606
0.102162
0.112865
0.192251
0.111496
0.203756
0.071267
0.209108
0.177570
0.185508
0.156766
0.208212
0.245284
0.196342
0.221371
0.338652
0.289675
0.363259
0.307159
0.379082
0.366544
0.488188
0.456130
0.416634
0.466483
0.462658
0.455123
0.547838
0.496881
0.529223
0.580264
0.545025
0.637095
0.581281
0.560496
0.612304
0.564819
0.589053
0.552621
0.530431
0.501007
0.450773
0.529379
0.527763
0.383033
0.348750
0.425015
0.436320
0.330161
0.381398
0.360428
0.299267
0.233437
0.202496
0.179939
0.191094
0.269746
0.199928
0.068844
0.107266
0.211905
0.063524
0.134382
0.144589
0.116113
0.092492
0.080878
0.138336
0.054695
0.056493
0.062783
0.033774
0.119559
0.095808
0.165974
0.032932
0.160418
0.002220
0.069934
0.019966
-0.002515
0.141668
0.104359
0.045312
-0.025735
0.027692
-0.004070
0.135910
0.048244
0.011105
0.047904
0.088167
0.064599
-0.054728
0.034865
0.049092
0.041597
0.032673
0.035771
0.102791
-0.004351
-0.026665
0.036387
0.008938
0.080312
0.073531
0.068937
0.044095
0.051480
0.064117
0.028809
0.066279
0.113007
0.086119
0.080665
0.147622
0.112149
0.106891
0.172424
0.162722
0.120829
0.144888
0.117746
0.269571
0.195796
0.286003
0.246907
0.189616
0.251147
0.225043
0.162189
0.211171
0.197171
0.192263
0.101302
0.097588
0.153786
0.155603
0.109268
0.158370
0.108583
0.161487
0.124430
0.104610
0.123247
-0.000441
0.057626
-0.005385
-0.040471
0.038217
0.011048
0.037212
0.009775
0.027867
-0.021546
0.074676
0.108695
0.239095
0.427366
0.658444
0.932212
1.248547
1.382863
1.264949
1.056175
0.659360
0.333884
0.029732
-0.065923
-0.140391
-0.067963
-0.066759
-0.013238
0.034534
0.086578
0.048244
0.055045
0.092080
0.135291
0.176349
0.147933
0.191841
0.143637
0.162810
0.303841
0.261764
0.212515
0.243595
0.285288
0.255193
0.325161
0.333463
0.378132
0.383529
0.383847
0.396672
0.440123
0.553417
0.434071
0.486429
0.567147
0.553383
0.485741
0.563020
0.489033
0.465257
0.563273
0.573298
0.440832
0.511236
0.519784
0.499451
0.472214
0.485231
0.449257
0.371841
0.412216
0.351629
0.355761
0.280393
0.286974
0.254315
0.257541
0.306392
0.263906
0.240262
0.198849
0.169798
0.149923
0.097478
0.220471
0.121242
0.001046
0.069029
0.086019
0.014125
0.077991
0.032492
0.037334
-0.008146
0.030320
0.036054
0.034414
0.013754
0.034213
-0.003665
0.005957
-0.073069
-0.048799
-0.028435
-0.002258
0.026535
-0.011428
0.047203
-0.023453
0.002471
0.006806
-0.047460
-0.124061
-0.017275
-0.068593
-0.056437
-0.052889
-0.067198
-0.035882
0.011961
-0.028519
0.024386
-0.025411
-0.002839
-0.006125
-0.041578
-0.033134
0.041635
-0.101833
0.034865
-0.025698
-0.010218
0.030878
-0.053760
0.094375
-0.047865
-0.004612
0.005756
0.051902
0.037458
0.033425
0.097335
0.081129
0.006200
0.161372
0.085143
0.103457
0.096244
0.049527
0.107762
0.080369
0.118481
0.082170
0.127117
0.128059
0.143776
0.120206
0.081402
0.071108
0.111427
-0.023448
0.101374
0.120337
0.131559
0.063892
0.081375
-0.059445
0.107733
-0.032345
0.035856
-0.071257
-0.024347
-0.078268
-0.048907
-0.043039
-0.038916
-0.123478
-0.184673
-0.070530
-0.038114
-0.036572
0.052313
0.003911
-0.036314
0.251317
0.606275
0.824634
1.049785
1.179736
1.200674
1.120049
0.716650
0.398616
0.082375
-0.064055
-0.178284
-0.201176
-0.192839
-0.152283
-0.032744
-0.071841
0.003720
-0.089204
0.052694
-0.005509
-0.034759
0.092115
0.100799
0.135557
0.040560
0.153066
0.152432
0.146563
0.122019
0.219177
0.250907
0.208506
0.162796
0.218983
0.284698
0.191419
0.240663
0.309604
0.327436
0.361203
0.372312
0.410879
0.352217
0.410706
0.401288
0.409178
0.360947
0.515655
0.444191
0.408535
0.442241
0.323026
0.358663
0.422104
0.399136
0.355067
0.361577
0.314911
0.310763
0.224208
0.284590
0.272546
0.205092
0.170918
0.236413
0.146448
0.171587
0.081877
0.098734
0.117265
0.022988
0.075352
0.044716
0.097772
-0.037244
-0.002373
0.010421
0.015217
-0.076667
0.000445
-0.098740
-0.075952
-0.093053
-0.066886
-0.075149
-0.097934
-0.116060
-0.110590
-0.125647
-0.078454
-0.140373
-0.036949
-0.127562
-0.148203
-0.096872
-0.068851
-0.040808
-0.071972
-0.024525
-0.087314
-0.158704
-0.056104
-0.155131
-0.098525
-0.075659
-0.064935
-0.076134
-0.060501
-0.116517
-0.077767
0.016173
-0.105326
-0.140785
-0.140007
-0.002721
-0.040092
-0.063258
-0.035967
-0.151734
-0.119144
-0.119586
-0.144410
-0.031266
-0.093608
-0.057042
-0.017490
-0.015416
-0.117029
-0.101484
-0.044859
0.005280
-0.001216
0.026656
-0.006248
0.094454
0.086178
0.042149
0.029539
-0.033153
0.044871
0.015496
0.028389
0.071242
0.050576
0.099226
0.059355
0.028604
0.003201
0.124456
0.054468
0.012486
0.061261
0.007412
0.006157
-0.040859
0.014771
-0.073163
-0.032284
-0.042248
-0.029313
-0.045684
-0.024394
-0.092094
-0.167364
-0.044458
-0.119053
-0.051849
-0.087346
-0.129859
-0.080485
0.063073
0.102436
0.393481
0.601880
0.966694
1.128900
1.290223
1.146875
0.880658
0.552024
0.158075
-0.092546
-0.179911
-0.203763
-0.214835
-0.199843
-0.155918
-0.000871
0.028683
-0.037427
0.048652
-0.039528
-0.019525
0.009306
0.022550
0.051600
0.054487
0.096182
0.050864
0.203842
0.104725
0.141428
0.139420
0.204679
0.231846
0.203807
0.232653
0.382841
0.364909
0.332087
0.371798
0.403269
0.299845
0.374796
0.477807
0.416162
0.448744
0.460443
0.514520
0.333527
0.435265
0.414717
0.527703
0.462403
0.515743
0.429566
0.339159
0.393411
0.371223
0.328158
0.310466
0.250680
0.331838
0.278717
0.248698
0.273582
0.173926
0.167773
0.168285
0.172908
0.062773
0.052933
0.166849
-0.019637
0.095978
0.069486
0.014811
0.052328
0.096163
-0.020609
0.002145
-0.038737
-0.006825
0.012546
-0.062074
0.011049
-0.137093
-0.009649
-0.018492
-0.025937
0.017111
0.037663
-0.070171
0.029290
0.001500
-0.031944
-0.037743
-0.052045
-0.070261
-0.033519
-0.069620
-0.042119
0.068571
-0.006049
0.021389
-0.012777
0.059801
-0.038665
-0.063087
-0.119508
0.007738
-0.072311
-0.065881
-0.060541
0.049997
-0.013251
-0.024723
-0.047912
-0.060197
0.039537
-0.009190
-0.027536
-0.070343
0.047542
0.050382
0.085246
0.012746
-0.012518
-0.043661
0.017271
0.059601
0.038021
0.085693
0.117796
0.082120
0.123947
0.087980
0.078893
0.155104
0.143539
0.138430
0.292240
0.117394
0.074995
0.225256
0.204157
0.122263
0.150054
0.117967
0.120004
0.089138
0.078767
0.218464
0.070818
0.165747
0.063388
0.128745
0.048555
0.029289
0.008500
0.116768
0.090437
0.037744
-0.034161
0.044142
0.009370
-0.008291
0.016822
0.027810
0.077484
-0.080912
0.007603
0.088601
0.150464
0.272333
0.524753
0.870071
1.118056
1.355247
1.314519
1.118263
0.792244
0.436680
0.134853
-0.028688
-0.189554
-0.045364
-0.084771
0.040489
0.053304
0.044360
0.114817
0.113561
0.095839
0.132173
0.148140
0.184549
0.076878
0.137795
0.116015
0.271851
0.186168
0.271731
0.298307
0.333866
0.265989
0.314595
0.298504
0.318700
0.406120
0.466947
0.433281
0.509353
0.513572
0.494633
0.444168
0.512906
0.490809
0.494855
0.667639
0.579688
0.606928
0.596850
0.568283
0.566765
0.551243
0.525914
0.564646
0.479031
0.477992
0.504866
0.409827
0.434243
0.405363
0.439427
0.393408
0.375966
0.382899
0.326358
0.259442
0.313137
0.273446
0.249881
0.270079
0.241570
0.224888
0.188307
0.220775
0.201547
0.136317
0.121963
0.107800
0.066294
0.100063
0.074989
0.045163
0.145059
0.099043
0.084417
0.070059
0.057548
0.077804
0.220572
0.061563
0.086310
0.006890
0.062308
0.079722
0.060460
0.070323
0.071173
0.129025
0.026338
0.017125
0.026387
-0.000983
0.086911
0.024712
0.100604
0.034864
0.050666
-0.009350
0.125397
0.096038
0.023047
0.083343
0.005614
0.161159
0.104883
0.056737
0.009427
0.032321
0.056653
0.029910
-0.008009
0.104082
0.117488
0.139302
0.053793
0.133264
0.067915
0.103017
0.064175
0.086123
0.225325
0.191216
0.159287
0.201625
0.215463
0.226584
0.172615
0.143994
0.248386
0.310891
0.180967
0.136354
0.234520
0.146385
0.236261
0.161179
0.275728
0.253448
0.260088
0.320928
0.123048
0.254713
0.203822
0.113814
0.167782
0.189588
0.140050
0.129089
0.134768
0.225842
0.086971
0.126476
0.107283
0.010529
0.054199
0.094212
0.173518
0.023059
0.102822
0.088164
0.139053
0.149842
0.363963
0.475201
0.835732
1.038699
1.272493
1.412162
1.316489
0.983545
0.638163
0.267587
-0.053278
-0.056557
-0.118098
0.031711
0.006654
0.008469
0.116964
0.113867
0.076480
0.214619
0.079819
0.207573
