-0.008131
0.042161
0.050755
0.008263
-0.008172
0.006989
-0.021609
0.022121
-0.028242
0.069227
0.070615
0.039702
-0.009010
0.012189
0.007573
-0.057901
-0.001440
-0.009370
0.060142
0.000134
-0.041480
0.059323
0.061795
0.073006
0.078671
0.028256
0.008078
0.202326
0.116751
0.104329
0.147500
0.099469
0.133745
0.105164
0.217849
0.206432
0.213711
0.236894
0.151877
0.197885
0.206133
0.192527
0.227839
0.241411
0.234867
0.188078
0.190729
0.123512
0.215685
0.178771
0.113758
0.170796
0.101717
0.109140
0.116465
0.089603
0.056073
0.085888
0.166632
0.003360
0.050078
0.016830
0.116699
0.050972
0.058632
0.061361
0.058665
0.059229
0.009067
0.028486
-0.012597
0.010090
0.152659
0.232497
0.403046
0.752811
1.074926
1.382828
1.442361
1.351877
1.097083
0.716149
0.275780
0.066132
-0.062622
-0.212590
-0.139674
-0.029550
-0.077061
-0.025521
0.110129
-0.000199
0.112250
0.173523
0.109325
0.038676
0.078893
0.073952
0.129226
0.163142
0.212962
0.154605
0.102643
0.199419
0.270390
0.241813
0.327527
0.284894
0.347596
0.265252
0.337861
0.340826
0.378380
0.449921
0.440550
0.436485
0.548802
0.458414
0.619500
0.532784
0.573046
0.528201
0.597061
0.568109
0.559425
0.583221
0.631209
0.587136
0.575936
0.638811
0.640811
0.603511
0.561086
0.561466
0.510654
0.557723
0.518777
0.493474
0.452847
0.387820
0.411861
0.359385
0.348535
0.405391
0.342561
0.263529
0.313278
0.341300
0.272553
0.226454
0.160344
0.196400
0.236290
0.163661
0.214632
0.150429
0.155728
0.204892
0.140414
0.150563
0.052493
0.140601
0.096239
0.121734
0.191153
0.082297
0.155292
0.091876
0.065113
0.040825
0.075011
0.077873
0.130008
0.117344
0.119561
0.160183
0.217243
0.053363
0.111637
0.200141
0.179381
0.071705
0.076795
0.061463
0.073633
0.070043
0.094663
0.102993
0.060058
0.090300
0.083005
0.041643
0.048588
0.129398
0.101556
0.036811
0.166092
0.076179
0.087397
0.088139
0.023017
0.038673
0.182676
0.099437
0.102535
0.106123
0.111437
0.147052
0.121502
0.164958
0.041534
0.077825
0.129106
0.165685
0.151067
0.092525
0.126811
0.098933
0.189239
0.202895
0.102231
0.235133
0.216491
0.138663
0.205817
0.261626
0.190788
0.231411
0.274468
0.221868
0.286372
0.326976
0.236264
0.250929
0.255202
0.229658
0.263079
0.271688
0.228184
0.279296
0.198281
0.278617
0.249488
0.186777
0.233484
0.144385
0.160781
0.167366
0.178856
0.138893
0.151633
0.172219
0.027009
-0.003034
0.147593
0.103570
0.067523
0.170546
0.123278
0.060548
0.115821
0.079866
0.089693
0.073246
0.048565
0.027152
0.084928
0.172258
0.285364
0.539554
0.826264
1.135322
1.430212
1.500000
1.334483
0.999782
0.688755
0.343395
0.035828
-0.060817
-0.074852
-0.103066
-0.060566
0.075829
0.097533
-0.005479
0.066599
0.101998
0.085386
0.150481
0.087201
0.176315
0.176285
0.184051
0.152068
0.182428
0.169164
0.192221
0.129127
0.321966
0.295021
0.394232
0.290850
0.349629
0.290044
0.351196
0.450345
0.378074
0.411286
0.477219
0.386882
0.535504
0.416907
0.553322
0.512657
0.573330
0.495324
0.579007
0.559078
0.512376
0.522156
0.597073
0.624935
0.622785
0.592238
0.674551
0.568878
0.588317
0.634782
0.505097
0.360049
0.470292
0.482229
0.355058
0.456333
0.361204
0.328614
0.287142
0.319371
0.346781
0.191214
0.211519
0.205271
0.222732
0.291407
0.160860
0.160864
0.203758
0.150272
0.082254
0.118463
0.096390
0.113608
0.123426
0.113821
0.116828
0.159734
0.115912
0.074594
0.089985
0.046912
-0.030478
0.020819
0.057314
-0.015120
-0.044642
0.065358
0.023572
0.013650
0.025237
0.086496
-0.055643
0.089909
-0.038884
0.047790
0.007102
0.006558
0.020968
0.010108
-0.020830
-0.000046
-0.056238
-0.031905
0.024622
-0.025606
0.043449
0.006805
-0.005584
0.072011
0.052392
0.029304
0.044486
0.024223
0.030898
-0.024443
-0.024698
-0.027679
0.084869
0.040669
0.062457
0.002711
0.017217
0.034979
-0.028165
0.049082
0.004235
-0.022720
0.006643
0.006699
0.019260
0.000182
0.074081
0.010785
0.054214
0.034422
0.091831
0.078964
0.095854
0.055946
0.163833
0.145723
0.207068
0.131844
0.172937
0.190296
0.219031
0.143606
0.170564
0.212096
0.168863
0.097978
0.190995
0.181325
0.194070
0.081763
0.079105
0.133707
0.074774
0.101193
0.086948
0.122429
0.022232
0.058662
0.014556
0.033354
-0.072147
0.026203
0.072938
-0.009997
-0.052383
0.041587
0.034389
0.099556
-0.027947
-0.008189
0.056398
0.048933
-0.026264
-0.035550
-0.044546
0.036794
-0.017832
0.039140
0.303376
0.600136
0.868152
1.174476
1.318255
1.291872
1.249608
0.868214
0.470317
0.178502
-0.027211
-0.272115
-0.226047
-0.123662
-0.216526
-0.031223
0.043921
0.011736
0.037916
0.002722
0.012338
-0.018762
0.075319
-0.061221
0.012034
0.076774
0.054312
0.127634
0.100001
0.117324
0.161549
0.229343
0.172965
0.182629
0.208418
0.168446
0.192372
0.249733
0.227742
0.243244
0.353433
0.407406
0.276963
0.400429
0.416520
0.408116
0.492592
0.473362
0.531491
0.481838
0.572385
0.469588
0.459735
0.451344
0.524045
0.392456
0.407231
0.425999
0.418063
0.405449
0.359981
0.427279
0.426930
0.442944
0.396321
0.367476
0.286305
0.267152
0.270226
0.247365
0.258689
0.110710
0.185672
0.175935
0.141595
0.129648
0.148325
0.113374
0.015340
0.073227
-0.017421
0.009934
0.048899
0.008681
0.069180
-0.088521
-0.098961
-0.071803
-0.034601
0.033984
0.000239
-0.061574
-0.009047
-0.004056
-0.063714
-0.041078
-0.065340
-0.006333
-0.007603
-0.019525
-0.060278
-0.060454
-0.044103
-0.070824
0.067806
-0.015524
-0.076272
-0.041743
-0.098223
-0.036622
0.005822
-0.041008
-0.034197
-0.106707
-0.065638
-0.009426
-0.130377
-0.117088
-0.059682
-0.048782
-0.053028
-0.005494
-0.036655
-0.008921
-0.052226
-0.037287
0.007917
-0.059836
-0.084936
-0.154342
0.030127
-0.028884
-0.070538
-0.083657
0.059956
0.012746
0.024479
-0.046653
0.025935
-0.048217
0.000658
0.079129
-0.091193
0.003863
0.001095
0.032135
-0.002288
0.069174
0.051347
0.050252
0.119707
0.074889
0.041976
0.077654
0.102309
0.083842
0.077019
0.133874
0.156341
0.136555
0.201580
0.193563
0.068727
0.078017
0.075158
0.164657
0.143765
0.106613
0.055159
0.138067
0.101865
0.002320
0.086679
0.051318
0.089686
0.036590
0.066568
0.053469
-0.011075
-0.031248
0.040740
0.018861
0.030827
-0.046841
-0.023587
-0.046857
-0.008261
-0.009465
-0.043084
-0.108386
-0.030685
-0.025407
-0.044746
-0.069875
0.082479
0.237613
0.597807
0.863437
1.143354
1.429932
1.289996
1.151524
0.835655
0.399377
0.042210
-0.126083
-0.246090
-0.292689
-0.095887
-0.160993
0.020963
-0.052890
-0.051636
0.043883
0.008175
0.116502
0.010257
0.012477
-0.007016
0.112813
0.115652
0.077653
0.110950
0.148433
0.222011
0.079462
0.193133
0.141083
0.185201
0.163087
0.228246
0.340379
0.265618
0.268824
0.326815
0.400852
0.251397
0.426971
0.456491
0.506884
0.514329
0.529553
0.494407
0.453607
0.507225
0.472300
0.516129
0.441183
0.475606
0.593982
0.519270
0.572811
0.611021
0.515299
0.495086
0.530994
0.439151
0.388009
0.360913
0.435776
0.417845
0.399732
0.379644
0.296901
0.386559
0.324883
0.304225
0.220832
0.213576
0.257879
0.291906
0.107668
0.225896
0.174482
0.087795
0.171975
0.161278
0.098457
0.067027
0.078016
0.113409
0.030658
0.075545
0.083301
-0.008575
0.015646
0.115945
0.033019
0.016008
-0.039747
0.019323
0.037632
0.070022
0.078194
0.034094
-0.013121
0.025284
0.024755
-0.026231
0.023034
0.175788
0.130468
0.022240
-0.011221
-0.020471
0.050011
0.009269
-0.039299
-0.005049
0.032726
0.074758
-0.037710
0.045629
0.019713
0.026535
0.035843
0.037216
0.074991
-0.015999
-0.005511
-0.000132
0.087312
0.015218
-0.014109
0.045018
0.074754
0.062404
-0.019656
0.036475
0.068309
0.054604
0.027028
0.014091
0.054427
0.048047
0.012192
0.142145
0.054340
0.094443
0.034129
0.105348
0.184006
0.158129
0.100357
0.070814
0.147104
0.167338
0.229350
0.141332
0.156441
0.209263
0.164431
0.268931
0.233231
0.272742
0.302035
0.311432
0.263403
0.236382
0.217034
0.290468
0.221913
0.200726
0.289217
0.247911
0.240254
0.197516
0.013952
0.131959
0.096332
0.137560
0.061171
0.050957
0.091272
0.112550
0.044615
0.025201
0.113775
0.113986
0.092444
0.125509
0.065776
0.091709
0.144603
0.065323
0.021315
0.024195
0.093877
0.105133
0.228366
0.421044
0.728840
1.051809
1.342971
1.400882
1.409887
1.132712
0.803347
0.422781
0.151693
0.024859
-0.121227
-0.087867
-0.049350
0.001042
0.160193
0.091401
0.157141
0.105164
0.145672
0.146386
0.206950
0.099155
0.167716
0.154628
0.194802
0.208682
0.147708
0.302355
0.232635
0.236986
0.234270
0.277219
0.279543
0.390112
0.295999
0.325287
0.463131
0.406431
0.414112
0.346868
0.426302
0.519593
0.532653
0.588401
0.524316
0.593152
0.545901
0.581022
0.672836
0.665577
0.589761
0.566634
0.609097
0.715378
0.655788
0.602747
0.565843
0.626573
0.626014
0.518016
0.559129
0.592756
0.579869
0.471735
0.513363
0.420435
0.404227
0.412891
0.413465
0.352833
0.386575
0.233437
0.255834
0.286067
0.292386
0.188253
0.346797
0.159044
0.246519
0.225309
0.121628
0.109252
0.123018
0.112960
0.122478
0.190824
0.165522
0.106690
0.086913
0.188684
0.084866
0.127429
0.115132
0.142344
0.072923
0.065619
0.130596
0.087270
0.180847
0.069855
0.066009
0.036526
0.053961
0.079402
0.047176
0.117018
0.096530
0.120376
0.142829
0.143597
0.089542
0.032450
0.124489
0.052187
0.048214
0.108792
0.133251
0.146015
0.129301
0.052905
0.041210
0.074688
0.003396
0.075410
0.106857
0.157348
0.002448
0.144300
0.008523
0.157884
0.055788
0.046004
0.045380
0.139757
0.119709
0.079552
0.104088
0.033641
0.070624
0.066686
0.172909
0.172769
0.074279
0.134439
0.137710
0.138010
0.170600
0.105628
0.230623
0.186277
0.170051
0.223016
0.254442
0.261048
0.266442
0.277576
0.177282
0.226125
0.229590
0.262218
0.336973
0.235166
0.230667
0.204399
0.175295
0.184934
0.261013
0.256836
0.110979
0.225888
0.223040
0.190025
0.197491
0.119657
0.131060
0.071726
0.149808
0.071156
0.176738
0.121648
0.090985
0.117837
0.111602
0.067609
0.043705
0.087026
0.070322
0.013752
0.067538
-0.003612
0.095518
0.018136
0.134493
0.224150
0.542245
0.762805
1.142906
1.350363
1.439299
1.401029
1.134098
0.746523
0.396300
0.026236
-0.053389
-0.233524
-0.106640
-0.121053
0.034831
-0.045292
0.057288
0.052687
0.071147
0.092147
0.049306
0.185345
0.069411
0.157600
0.198306
0.199919
0.116512
0.135009
0.193863
0.165187
0.171238
0.226711
0.284839
0.156507
0.338713
0.200206
0.371676
0.371017
0.259374
0.491981
0.353180
0.471620
0.517286
0.465808
0.458942
0.534535
0.440156
0.561551
0.430336
0.495991
0.546068
0.467774
0.543579
0.520174
0.514879
0.546274
0.529825
0.506054
0.582967
0.473805
0.425733
0.450694
0.473618
0.431405
0.399179
0.368649
0.456269
0.366125
0.363860
0.263684
0.307921
0.337144
0.211196
0.198055
0.240950
0.161097
0.153043
0.115052
0.191749
0.067060
0.180877
0.196197
0.083216
0.083802
0.020555
0.044037
0.072841
-0.022323
0.062691
-0.028197
-0.001645
0.150325
0.012168
0.022693
0.035125
0.032788
0.055508
-0.065049
0.037780
-0.006516
0.002786
0.042563
-0.072779
0.011985
-0.032464
0.023605
-0.003385
0.036815
0.032015
-0.005614
0.001181
-0.066148
-0.013953
-0.062397
0.033834
0.054178
-0.055397
0.018002
-0.059324
0.057796
0.038329
-0.026422
-0.028657
-0.021101
-0.020032
-0.017423
0.013243
0.041681
0.073174
-0.120430
-0.007612
-0.106257
0.000539
-0.039907
0.019477
-0.033941
0.019358
-0.030900
-0.124414
-0.014553
0.092418
0.026851
-0.001201
0.041388
-0.025485
0.059167
0.011278
0.059938
0.056155
-0.019295
0.042351
0.120512
0.142556
0.097581
0.050590
0.138576
0.200574
0.172782
0.205263
0.170863
0.118654
0.146780
0.172376
0.164482
0.100693
0.161929
0.166154
0.115077
0.048656
0.051924
0.077518
0.091890
0.049169
0.036796
0.019800
0.023745
-0.023368
-0.053568
0.073384
-0.046730
-0.040190
-0.015475
-0.036460
-0.150381
-0.033324
0.034049
-0.049043
-0.016451
0.002436
-0.026342
-0.172810
-0.090752
-0.042339
0.029756
0.169889
0.384010
0.769313
0.957892
1.240410
1.317789
1.197484
0.934968
0.599193
0.228677
-0.124623
-0.245531
-0.336501
-0.263358
-0.113977
-0.119881
0.018057
-0.085752
-0.002136
-0.048319
0.070996
-0.001699
0.011557
0.072065
0.041173
0.068703
-0.068369
0.142187
0.043490
0.047012
0.133763
0.138706
0.118818
0.135956
0.171068
0.197166
0.182472
0.242256
0.221358
0.178327
0.295053
0.304126
0.254283
0.387177
0.337899
0.380850
0.400269
0.367073
0.426193
0.447362
0.524817
0.452531
0.449967
0.445059
0.458437
0.503670
0.367751
0.450008
0.407344
0.416491
0.372029
0.250494
0.287889
0.355294
0.461862
0.240517
0.206253
0.232297
0.198211
0.211970
0.214715
0.206697
0.154638
0.205965
0.138455
0.240367
0.128119
-0.017991
0.026155
0.057819
0.052411
-0.053271
-0.039952
-0.031951
0.017184
-0.016964
-0.012099
-0.093084
-0.043154
-0.045420
0.018359
-0.013314
-0.026907
-0.060083
-0.124567
-0.056514
0.029080
-0.088454
-0.135077
-0.080979
-0.131836
-0.073247
-0.106609
0.048520
-0.128301
0.011053
0.000497
-0.038051
-0.046164
-0.099973
-0.142729
-0.015001
-0.048824
-0.020053
-0.096376
-0.047360
-0.097355
-0.036009
-0.084959
0.010778
-0.091536
-0.072519
-0.068166
-0.086009
-0.065558
-0.050993
-0.123682
-0.096917
-0.074770
-0.102912
-0.036838
-0.047585
-0.102442
-0.146744
-0.052342
-0.118476
-0.039741
-0.065052
-0.068185
-0.070034
-0.094786
-0.144604
-0.032880
-0.012564
-0.112055
0.014637
-0.074754
0.035773
0.058282
0.003830
-0.012735
0.013096
-0.021686
0.073612
0.113403
0.032830
0.038009
0.117312
0.112990
0.152180
0.130069
0.105508
0.065484
0.127287
0.173007
0.154138
0.001484
0.140934
-0.028604
0.026963
0.107888
0.042434
-0.002968
-0.040173
0.001500
-0.015651
-0.016033
0.005764
-0.040726
-0.018657
-0.017778
-0.047415
-0.009934
-0.105473
-0.021655
0.019961
-0.090749
-0.033050
-0.049738
-0.039880
-0.068124
-0.029141
-0.065897
-0.061662
0.096637
0.164592
0.431599
0.791179
1.056159
1.230351
1.325237
1.103335
0.772383
0.466991
0.195740
-0.136875
-0.343571
-0.292459
-0.152935
-0.156890
-0.084150
-0.077782
0.015472
-0.014227
-0.045395
0.026180
0.015201
-0.067179
-0.015739
0.020125
0.012603
0.055029
0.084297
0.076017
0.073755
0.153715
0.102496
0.130326
0.126162
0.176810
0.194972
0.125921
0.218581
0.243638
0.352140
0.258710
0.321474
0.385485
0.339352
0.352546
0.375965
0.446295
0.442125
0.433195
0.511422
0.502227
0.461598
0.515959
0.532569
0.470803
0.502763
0.460174
0.558547
0.545595
0.379104
0.417764
0.392740
0.384751
0.438195
0.282590
0.314037
0.297193
0.338354
0.260074
0.158942
0.290939
0.297354
0.173292
0.285067
0.135179
0.151964
0.137699
0.101510
0.081375
0.076954
0.120337
0.102269
0.026697
-0.014245
0.072756
0.010101
0.023476
0.006316
0.069747
0.074264
-0.094473
-0.002934
0.085389
-0.004024
0.086861
-0.041053
0.059292
0.066330
0.014363
-0.056952
-0.016635
0.010917
0.015295
-0.045624
-0.122859
0.009178
0.018481
-0.024859
-0.042918
0.072601
-0.103949
0.077156
-0.026661
0.000678
0.021881
0.036931
-0.065174
-0.089511
0.006120
0.010681
0.040999
-0.033774
0.019773
-0.006950
-0.006811
0.000050
-0.052331
0.017459
-0.022766
-0.032151
-0.065326
0.063277
0.041927
-0.017992
0.027793
-0.083733
0.044538
0.171463
0.010491
0.071063
-0.039930
-0.068871
0.055496
0.094561
0.069348
0.102271
0.051867
0.086166
0.091399
0.114665
0.080004
0.135735
0.131500
0.123101
0.080507
0.197877
0.195229
0.235170
0.208946
0.237426
0.250268
0.183519
0.193328
0.156603
0.208413
0.173314
0.171699
0.139383
0.184108
0.111478
0.108696
0.067260
0.162092
0.223404
0.116780
0.036824
0.108234
0.071095
0.029517
0.065602
0.149277
0.085344
0.089537
0.058636
0.075281
0.103934
0.042661
0.029982
0.107142
0.047562
0.024003
-0.062408
0.013594
0.130191
0.161435
0.314645
0.653145
0.916612
1.179070
1.467886
1.415693
1.149052
0.877515
0.492501
0.160488
-0.054005
-0.189412
-0.161129
-0.182080
-0.031275
0.003625
0.078905
0.126564
-0.046188
0.090250
0.071577
0.060463
0.123922
0.100596
0.135313
0.212338
0.195100
0.156202
0.158779
0.190004
0.231240
0.173522
0.188454
0.234420
0.231816
0.260552
0.361498
0.265461
0.369816
0.377144
0.367451
0.398616
0.442303
0.441809
0.490412
0.480709
0.539648
0.544163
0.519866
0.529356
0.537389
0.531693
0.532239
0.550971
0.541139
0.498892
0.622198
0.488747
0.525638
0.524937
0.569474
0.486020
0.485341
0.499004
0.441573
0.464563
0.420464
0.341756
0.347990
0.401263
0.377508
0.190459
0.211255
0.263765
0.179138
0.213845
0.238385
0.138067
0.141956
0.188260
0.125759
0.220863
0.117889
0.081721
0.053384
0.159018
0.210268
0.123936
0.066957
0.038136
0.096340
0.037397
0.036103
0.048112
0.089187
-0.059250
0.050754
0.016588
0.030724
0.052365
0.049885
-0.026532
0.073967
0.117664
0.042642
0.034781
0.077415
0.101655
0.065842
0.013801
0.104226
-0.001509
0.090932
-0.023423
0.069187
-0.003617
-0.025343
0.037536
0.112629
0.054369
0.045679
0.098666
-0.008452
0.050366
0.048414
0.175789
-0.046741
0.036922
0.017375
-0.042218
0.028969
-0.037827
0.038450
0.074422
0.049127
0.069716
0.125182
0.088493
0.036643
0.010910
0.026390
0.032662
0.067094
0.056539
0.047368
0.118209
0.107758
0.100285
0.120811
0.108244
0.161500
0.119782
0.159146
0.120989
0.209345
0.246887
0.179240
0.179871
0.276968
0.224953
0.296233
0.170885
0.178013
0.154458
0.247033
0.231808
0.161079
0.218685
0.194531
0.136770
0.090728
0.031367
0.063401
0.125386
0.206793
-0.073740
-0.006577
0.082444
0.045817
0.082814
0.090159
0.092694
0.079216
0.002281
0.049813
-0.012600
-0.014447
0.059241
0.002969
0.043193
-0.040377
-0.025511
-0.033937
-0.020675
0.079910
0.348501
0.615645
0.883236
1.346782
1.405052
1.490301
1.074656
0.773275
0.311318
0.111970
-0.196347
-0.238918
-0.261975
-0.037951
-0.116293
0.004579
-0.030498
-0.018554
-0.033539
0.041220
0.051903
0.015687
0.140795
0.067518
0.153741
0.123645
0.048590
0.052827
0.130159
0.140037
0.133405
0.207536
0.221051
0.268166
0.252518
0.238418
0.320474
0.209551
0.265435
0.386231
0.356934
0.392561
0.499076
0.502419
0.400911
0.482967
0.417519
0.526474
0.456649
0.434136
0.497323
0.516021
0.548423
0.445092
0.556311
0.488306
0.467802
0.446375
0.452436
0.493984
0.425071
0.454891
0.429303
0.371651
0.413629
0.380119
0.351254
0.303474
0.253384
0.204445
0.297129
0.254625
0.195963
0.250700
0.159414
0.127143
0.136831
0.037029
0.083816
0.061532
0.081422
-0.009742
0.062767
0.047749
0.075322
-0.030714
0.016680
-0.000786
0.002558
-0.004862
-0.008498
-0.046197
-0.029964
-0.055358
-0.047024
-0.053922
-0.028677
-0.057792
-0.116186
-0.026434
-0.002925
-0.051313
-0.079900
-0.134227
-0.039651
-0.027835
-0.093404
-0.067803
-0.078997
-0.058649
-0.033649
-0.094636
-0.033031
-0.053281
0.032549
-0.107908
-0.090248
-0.081787
-0.031315
-0.026629
-0.022717
-0.014425
-0.133308
-0.076803
-0.025232
0.047022
-0.168650
-0.055256
-0.070326
-0.047177
-0.064902
-0.069615
0.000136
-0.101386
-0.086766
-0.059291
-0.122237
0.022920
-0.016472
-0.047265
-0.079811
-0.098543
0.027525
-0.061062
-0.031926
-0.001941
0.027085
-0.037699
0.076000
-0.033657
-0.018753
0.063541
0.086125
0.028460
0.106086
0.126049
0.143380
0.106540
0.146519
0.108350
0.063273
0.046914
0.014166
0.084690
0.074950
0.100218
0.041801
0.034399
0.086643
0.054740
-0.000326
-0.013658
0.053027
-0.074590
-0.032517
0.021402
-0.037026
-0.086447
-0.058459
-0.051741
-0.026019
-0.099409
-0.150731
-0.096833
-0.024647
-0.131985
-0.090104
-0.074462
-0.074923
-0.178104
-0.061217
-0.123631
-0.152760
-0.030160
0.113814
0.230159
0.609717
0.930691
1.131340
1.224410
1.245043
0.927833
0.579998
0.218562
-0.092583
-0.236121
-0.271641
-0.325563
-0.182241
-0.157867
-0.090214
-0.074180
-0.129148
-0.089224
-0.077898
-0.083938
-0.046625
0.059086
-0.010557
-0.012830
0.060561
-0.065655
0.013909
0.024132
0.072289
0.004018
0.076465
0.109113
0.090662
0.125527
0.202498
0.202607
0.183544
0.292927
0.214083
0.217076
0.329680
0.286131
0.361289
0.274228
0.315457
0.476806
0.402380
0.372422
0.365121
0.441570
0.444092
0.381439
0.533645
0.378421
0.421861
0.422813
0.417459
0.356471
0.372688
0.438653
0.367618
0.352589
0.334726
0.277177
0.287406
0.296413
0.289727
0.209642
0.182982
0.152735
0.197305
0.137303
0.164504
0.132981
0.152581
0.004899
0.076505
0.039963
0.020138
0.014599
-0.022350
-0.025857
-0.081217
-0.064278
-0.064434
-0.055700
0.005349
-0.192767
-0.036548
-0.174294
-0.123947
-0.059150
0.002724
-0.055533
-0.065945
-0.063182
-0.120462
-0.110105
-0.156127
-0.076912
0.014678
-0.109558
-0.054585
-0.142991
-0.114195
-0.052718
-0.105269
-0.068587
-0.090177
-0.067168
-0.046429
-0.085476
-0.098306
-0.011850
-0.143206
-0.075268
-0.089661
-0.003911
-0.073267
-0.103906
-0.163466
-0.144444
-0.123690
-0.081820
-0.134548
-0.139996
-0.112072
0.013255
-0.071055
-0.037707
-0.058387
-0.088571
-0.111675
-0.119140
-0.123708
-0.043119
-0.097204
-0.115525
-0.054289
-0.059784
-0.105508
0.013759
0.044463
-0.025179
-0.067325
-0.006987
0.014900
0.010338
-0.028850
-0.028143
0.140587
0.009118
0.112289
0.032400
0.130086
0.015557
0.059485
0.116938
0.156415
0.085874
0.156085
0.093013
0.106728
0.109227
0.124641
0.145353
0.069801
0.010665
0.049411
0.051727
-0.004599
-0.048121
-0.075699
0.017499
-0.003495
-0.048849
-0.025885
-0.044536
-0.053321
-0.060545
-0.054402
-0.018610
-0.173190
-0.108079
-0.064167
-0.077013
-0.070248
0.002215
-0.058279
0.008474
-0.068851
-0.075382
0.078827
0.143510
0.398068
0.705076
1.042130
1.334317
1.354340
1.216578
1.034748
0.600956
0.160002
-0.060525
-0.208159
-0.252310
-0.253018
-0.312214
-0.139606
-0.145659
-0.080521
0.018442
-0.019664
0.050408
0.001508
0.065873
0.066707
0.031974
0.037576
0.058717
0.097849
0.089714
0.111527
0.079123
0.117556
0.162427
0.196071
0.156217
0.196038
0.350053
0.227711
0.211290
0.369590
0.353192
0.402999
0.331545
0.381143
0.426636
0.443048
0.453244
0.466212
0.477403
0.477399
0.468588
0.422825
0.428883
0.510607
0.443363
0.552058
0.545746
0.552753
0.438432
0.476275
0.444427
0.586278
0.496518
0.364499
0.392811
0.332082
0.391308
0.339555
0.382693
0.230342
0.249909
0.359640
0.214754
0.338520
0.166461
0.220717
0.154422
0.168100
0.053828
0.108021
0.153526
0.073951
0.086648
-0.000586
0.049887
0.049278
0.008223
-0.033470
-0.008552
0.064469
0.053440
0.034340
0.072754
0.030991
0.000891
0.111408
-0.021141
0.105684
-0.026737
-0.012453
0.056280
0.026511
0.022035
0.116583
-0.000212
-0.062417
0.019038
-0.001924
-0.066492
0.034164
0.083641
0.049705
0.021652
0.048508
0.103820
-0.014339
0.029003
0.046530
-0.000808
-0.026770
0.106405
0.026447
-0.038673
0.025866
0.147425
-0.014357
0.064050
-0.021238
-0.017332
0.048116
-0.045270
-0.000462
0.044306
-0.037806
-0.028843
0.018749
0.115241
0.004644
0.035176
-0.011793
-0.004312
0.027700
0.003691
0.021032
0.093650
0.105886
0.134815
0.117368
0.181131
0.160536
0.119880
0.208520
0.154522
0.143193
0.228715
0.136172
0.184885
0.215402
0.227054
0.225537
0.239757
0.205378
0.273179
0.266961
0.276478
0.119776
0.194445
0.207466
0.161589
0.116679
0.165757
0.071873
0.144321
0.094723
0.024493
0.114182
0.146378
0.105085
0.151709
0.077531
0.121225
0.101731
0.089144
0.050593
0.068706
0.060846
-0.007429
0.127525
0.139482
0.081030
0.110244
0.068371
0.097612
0.106011
0.066299
0.345365
0.543123
0.965764
1.145967
1.375460
1.447685
1.303975
0.971528
0.604835
0.277937
0.004777
-0.173808
-0.061286
-0.038115
-0.027016
0.075196
0.057748
0.073368
0.095066
0.066680
0.091253
0.110468
0.125027
0.161967
0.103555
0.140403
0.248686
0.145071
0.226734
0.239042
0.236917
0.281110
0.256687
0.293161
0.235952
0.357889
0.350663
0.367356
0.431924
0.318515
0.406024
0.401442
0.475481
0.554615
0.513700
0.510413
0.537836
0.559674
0.612193
0.526164
0.568797
0.540527
0.574428
0.644682
0.668785
0.548020
0.586869
0.531692
0.627154
0.560966
0.532168
0.564223
0.487374
0.522581
0.473337
0.431980
0.431135
0.401029
0.376479
0.385895
0.445370
0.341386
0.318709
0.279795
0.214671
0.232065
0.347443
0.296460
0.177100
0.270029
0.185539
0.138166
0.109501
0.152894
0.174230
0.115050
0.041654
0.055883
0.162470
