0.013122
-0.012779
-0.040114
-0.023957
0.010848
0.009079
0.004324
-0.002895
0.005470
-0.016098
-0.024344
-0.023500
0.084864
0.019913
0.078612
0.033624
-0.006890
0.029841
-0.034894
0.068358
-0.024948
0.041610
0.019052
0.058876
0.041531
-0.028332
0.029854
0.040008
0.107924
0.033866
0.072067
0.055292
0.103735
0.163460
0.134250
0.199670
0.147663
0.171182
0.135789
0.197706
0.226299
0.250523
0.226735
0.337018
0.166558
0.175991
0.211131
0.170481
0.128593
0.243853
0.298084
0.183552
0.149083
0.164476
0.150382
0.135432
0.163978
0.195746
0.131786
0.059889
0.047287
0.087878
0.113560
0.012940
0.098870
0.031925
0.108744
0.142270
0.056724
0.033784
0.043418
0.044725
0.001518
0.064101
0.027699
0.106232
0.070277
-0.115952
0.069195
0.028501
0.021135
0.021661
-0.046261
0.081005
0.149925
0.287037
0.552374
0.882776
1.285788
1.439586
1.499150
1.273926
1.020043
0.751139
0.318038
-0.042191
-0.110822
-0.264809
-0.286856
-0.154505
0.006625
-0.078070
0.060743
0.068396
0.022543
0.085531
0.073129
0.039325
0.202763
0.100014
0.115327
0.131391
0.173373
0.134468
0.122700
0.091310
0.144832
0.135788
0.123279
0.189470
0.182475
0.198238
0.205527
0.224209
0.233998
0.219065
0.300396
0.285504
0.398691
0.336636
0.354282
0.410115
0.426726
0.408037
0.444587
0.435561
0.444711
0.428556
0.479485
0.520630
0.541586
0.555947
0.518865
0.615265
0.544646
0.648584
0.558402
0.572280
0.568973
0.573731
0.553122
0.558152
0.542143
0.451197
0.536162
0.483176
0.451326
0.427645
0.378340
0.432637
0.362003
0.427042
0.353959
0.281217
0.434527
0.301688
0.318032
0.267072
0.231054
0.215850
0.200500
0.263090
0.188022
0.166722
0.150661
0.133434
0.151698
0.189110
0.142036
0.176413
0.136241
0.138586
0.136070
0.160134
0.073924
0.092227
0.144613
0.007090
0.020023
0.094280
0.065348
0.146469
0.088946
0.062494
0.117552
0.119579
0.104793
0.108115
0.064276
0.087399
0.140983
0.136151
0.057835
0.058959
0.212926
0.143239
0.104111
0.137457
0.122368
0.053484
0.014560
0.064205
0.082456
0.193149
0.065801
0.115428
0.104453
0.122870
0.157792
0.017799
0.129288
0.133037
0.014097
0.095772
0.001494
0.088299
0.102319
0.122791
0.024624
0.048630
0.013590
0.094186
0.078452
0.023365
0.045135
0.075803
0.056572
0.094650
0.055953
0.056353
0.110648
0.065689
0.067197
0.190140
0.033641
0.076560
0.217705
0.120515
0.030592
0.104622
0.086736
0.156558
0.087464
0.082742
0.207013
0.216538
0.187662
0.267569
0.139442
0.211883
0.212718
0.274845
0.206479
0.201859
0.220561
0.239535
0.212038
0.179989
0.311006
0.194568
0.252282
0.285759
0.230919
0.171849
0.187617
0.192870
0.207989
0.159893
0.160533
0.172255
0.192233
0.191861
0.124499
0.165106
0.131995
0.072693
0.016585
0.082236
0.115406
0.064895
0.010639
0.027331
0.031896
0.118068
0.090973
0.094576
0.034589
0.118834
0.079075
0.063133
0.074342
0.033538
0.056051
0.028650
-0.000011
0.044397
-0.063509
0.038171
0.212075
0.302869
0.683732
0.985448
1.245315
1.460873
1.500000
1.299623
0.904596
0.577939
0.287250
0.056850
-0.172498
-0.279980
-0.234148
-0.157487
0.036649
0.033770
0.030423
0.063124
0.074141
0.091473
0.110204
0.030073
-0.006084
0.047735
0.124955
0.113630
0.123035
0.125007
0.217439
0.134888
0.069451
0.188695
0.197059
0.162473
0.164390
0.220876
0.243111
0.255863
0.139691
0.196877
0.221684
0.282654
0.296550
0.331385
0.278123
0.351409
0.371229
0.417086
0.352816
0.486409
0.433242
0.538339
0.368285
0.523589
0.473570
0.566256
0.522908
0.538408
0.452738
0.507041
0.538572
0.499333
0.546548
0.535399
0.489747
0.419496
0.466935
0.447572
0.435935
0.444700
0.385719
0.438679
0.325816
0.411638
0.307111
0.280268
0.314205
0.326229
0.288551
0.305294
0.260325
0.137003
0.188556
0.187131
0.146372
0.129005
0.094623
0.085734
0.085986
0.096853
0.117398
0.103499
0.065818
0.111146
0.004423
0.018311
0.022233
0.004195
-0.000254
-0.007101
0.074148
0.068367
-0.019444
0.030364
0.081462
0.026380
0.010359
-0.009985
-0.018437
-0.017136
-0.030481
-0.063967
0.007641
-0.018418
0.087682
0.048761
-0.011073
0.011033
-0.017627
-0.057607
0.017474
0.006882
0.037935
-0.024406
-0.007176
0.035017
0.025367
0.068018
-0.066365
-0.106781
-0.037078
0.027355
-0.006768
-0.096753
-0.012285
-0.005339
0.069752
-0.006766
0.008556
-0.053401
-0.052029
-0.012981
-0.005998
0.024977
0.020353
-0.017474
-0.101760
-0.016962
0.058083
0.001562
-0.015860
-0.137821
0.015696
-0.047626
0.046130
0.013350
-0.069319
-0.033522
-0.007616
-0.065671
0.015212
0.029317
-0.012679
-0.066577
-0.011286
0.010924
0.124069
0.013156
-0.006224
0.043303
0.179871
0.078353
0.131943
0.044089
0.040713
0.123276
0.158255
0.138062
0.188900
0.129141
0.118412
0.119759
0.208722
0.181126
0.230062
0.144476
0.127221
0.101699
0.058705
0.093802
0.033027
0.113419
0.041786
-0.000685
0.104971
0.051446
0.057308
-0.000104
-0.023024
0.065882
0.038921
-0.008832
-0.018412
0.027984
-0.047734
-0.045469
-0.015111
0.030039
-0.020941
0.018677
0.019787
-0.077065
-0.069057
-0.017495
-0.030661
-0.127800
0.017807
-0.083083
-0.061252
-0.086895
-0.030566
-0.024097
0.118844
0.367298
0.547716
0.863682
1.151916
1.342407
1.199253
1.082807
0.787472
0.497131
0.148519
-0.173002
-0.204470
-0.327822
-0.300095
-0.247456
-0.162114
-0.031153
-0.031481
-0.042431
-0.099972
-0.045451
-0.040121
-0.010867
-0.037426
-0.020827
-0.027307
-0.040528
0.016392
-0.010180
-0.018728
0.070520
0.040010
0.054620
0.087647
0.023932
0.095814
0.052954
0.088416
0.118992
0.148828
0.110006
0.126833
0.200219
0.220979
0.265295
0.277941
0.259814
0.350267
0.329537
0.334864
0.392104
0.322700
0.357154
0.432466
0.410915
0.372698
0.453794
0.462001
0.504015
0.435268
0.423834
0.409453
0.439641
0.516915
0.450556
0.407468
0.385459
0.432235
0.384268
0.327334
0.303108
0.363042
0.347940
0.346997
0.240075
0.283453
0.282360
0.232080
0.150068
0.157858
0.140301
0.188941
0.126091
0.117776
0.126623
0.099404
0.039473
0.072910
0.076725
-0.033127
-0.028607
0.008089
-0.061197
0.053386
0.001755
0.101124
0.090633
-0.086371
0.017249
-0.059243
-0.062782
0.020455
-0.000170
-0.061886
-0.107322
-0.000437
-0.055594
0.038993
0.005186
0.016671
0.064758
-0.047823
0.000214
-0.073896
-0.063953
-0.011073
0.011325
0.018801
-0.009050
-0.024860
-0.076435
0.056837
-0.012545
-0.019449
-0.045060
-0.029194
0.017893
-0.052323
-0.025276
-0.002513
-0.041925
-0.028419
0.016959
-0.076046
0.075936
-0.035986
-0.058295
-0.030827
-0.032049
-0.018601
0.005260
0.080080
0.000035
-0.011788
-0.090043
-0.045118
0.009725
-0.080050
0.042284
-0.048020
0.025351
-0.022015
-0.073226
0.003024
0.029006
-0.034192
-0.035903
-0.025038
0.057174
-0.027719
-0.149680
0.007043
0.005872
-0.083894
0.077157
0.061996
0.011583
0.082953
0.046026
0.029136
0.079546
0.091192
0.093812
0.030731
0.033832
0.168199
0.102725
0.093330
0.265521
0.168732
0.254422
0.270507
0.132814
0.169860
0.186796
0.210284
0.065026
0.174164
0.203197
0.167796
0.147941
0.128185
0.105560
0.125839
0.129083
0.065298
0.015968
0.139537
0.082151
0.015621
0.136653
0.077687
0.080277
0.075923
0.109101
0.028292
-0.043390
-0.008627
-0.060335
0.062812
-0.027498
0.033584
0.071210
-0.015053
0.043191
-0.063762
0.056574
0.014032
0.057384
0.005414
0.029054
-0.033666
-0.048481
0.171570
0.413578
0.665334
1.070529
1.286729
1.398064
1.443549
1.084772
0.833587
0.471546
0.191829
-0.093137
-0.241506
-0.225363
-0.154332
-0.078014
-0.054030
0.054005
0.057459
0.063975
0.065469
0.072342
-0.056317
0.097796
0.014147
0.005595
0.157965
0.072866
0.092066
0.031924
0.083573
0.177427
0.107268
0.055297
0.125911
0.101948
0.112436
0.227501
0.197043
0.276156
0.243250
0.223060
0.262427
0.290266
0.332178
0.336819
0.296170
0.444844
0.378043
0.434309
0.455539
0.445584
0.497158
0.498352
0.574044
0.508686
0.542642
0.564735
0.518830
0.532374
0.587483
0.557625
0.636630
0.612976
0.639661
0.534017
0.602485
0.504632
0.458140
0.587409
0.600231
0.413447
0.474156
0.437789
0.488353
0.395514
0.261541
0.321126
0.382906
0.322048
0.271007
0.260234
0.315580
0.262644
0.263632
0.142178
0.299163
0.145220
0.238981
0.127998
0.152014
0.112667
0.155556
0.183927
0.129470
0.135733
0.174209
0.169806
0.095337
0.020694
-0.030051
0.144587
0.064694
0.119049
0.088114
0.047941
0.087513
0.070801
0.135178
0.053096
0.070576
0.047837
0.081022
-0.020624
0.111573
0.098572
0.119349
0.115727
0.153315
0.054868
0.125386
0.085600
0.013646
0.031466
0.123563
0.156810
0.045980
0.108219
0.054033
0.035334
0.094909
0.096965
0.126617
0.050635
0.171414
0.064559
0.091835
-0.011146
0.040445
0.083979
0.039311
-0.018752
0.127801
0.150236
0.067373
0.119940
0.138404
0.155152
0.102371
0.071287
0.095037
0.053603
0.107677
0.078790
0.108720
0.085579
0.100947
0.095085
0.071942
0.077757
0.142685
0.027123
0.059963
0.128360
0.108908
0.064637
0.136703
0.146418
0.075609
0.120248
0.123464
0.184582
0.137139
0.130198
0.138225
0.216677
0.242246
0.172289
0.223218
0.264367
0.244104
0.362223
0.271416
0.225889
0.272598
0.341135
0.323218
0.354924
0.287159
0.201375
0.241790
0.266104
0.230817
0.187366
0.190241
0.186945
0.197798
0.129078
0.195629
0.246112
0.130039
0.196622
0.187159
0.093943
0.111142
0.080177
0.011636
0.149100
0.073317
0.081341
0.023402
0.078476
0.108369
0.163869
0.072039
0.006965
0.106716
0.092584
0.027425
0.077786
0.042837
0.081199
-0.000046
0.087115
0.247069
0.412707
0.735659
1.075523
1.434395
1.490094
1.422015
1.211615
0.898085
0.566179
0.221621
-0.057351
-0.187956
-0.235422
-0.101544
-0.021335
0.030690
0.114831
0.157752
0.121762
0.065753
0.132329
0.117038
0.079777
0.051074
0.121440
0.020596
0.078325
0.178410
0.151541
0.080962
0.152288
0.066395
0.218993
0.193042
0.247526
0.144545
0.213617
0.310004
0.190747
0.287312
0.325061
0.286768
0.245307
0.387700
0.300289
0.361087
0.383824
0.385811
0.482306
0.477371
0.396333
0.526628
0.542993
0.451611
0.459305
0.570050
0.563208
0.594950
0.605462
0.577696
0.592311
0.608361
0.616544
0.549751
0.523488
0.597416
0.479747
0.474548
0.482911
0.487322
0.515256
0.354419
0.396830
0.434906
0.379409
0.357196
0.348464
0.346308
0.253410
0.255769
0.305499
0.278270
0.219034
0.159950
0.157901
0.242273
0.193058
0.186439
0.103773
0.124078
0.045778
0.106706
0.165710
0.133143
0.092269
0.102919
0.087680
0.075651
0.090469
0.071758
0.062621
0.056636
0.112545
-0.000488
-0.031606
0.068365
0.027851
0.084175
0.094958
0.036870
0.068468
0.152737
0.036879
0.014306
0.008829
0.110230
-0.028739
0.001851
0.000941
0.052150
0.015269
0.059490
-0.054123
0.038034
0.066791
0.028189
0.002001
0.079865
-0.036954
0.113490
0.053378
0.087759
0.062025
0.150209
0.000778
-0.012174
0.028046
0.017761
0.047920
0.130175
-0.047365
-0.043704
0.028543
0.005895
-0.024326
0.023145
0.067689
-0.047875
0.060446
0.010626
0.065648
0.027737
0.031062
0.040575
-0.047023
0.034899
-0.003566
0.028235
0.032576
0.037417
-0.024412
-0.046506
0.029446
0.003619
0.072529
0.064207
0.072348
0.062890
0.080405
0.047959
0.098969
0.087629
0.004729
0.075441
0.113268
0.152647
0.105173
0.176421
0.169904
0.131891
0.167995
0.117143
0.110807
0.161897
0.154360
0.192974
0.180808
0.141796
0.149640
0.158755
0.060749
0.165866
0.145069
0.007539
0.047096
0.104671
-0.019006
0.053412
0.021121
-0.018009
0.026970
0.013669
0.013900
0.049406
-0.055990
-0.036339
-0.062463
-0.005681
-0.033064
-0.003347
-0.097481
-0.073275
0.032439
-0.086240
0.064115
0.019081
-0.054094
-0.030496
-0.004468
0.035439
-0.052017
-0.152839
0.009728
0.117550
0.371455
0.681213
1.029697
1.243248
1.283352
1.201166
1.035543
0.652608
0.360241
-0.016281
-0.269950
-0.288367
-0.372392
-0.243183
-0.146143
-0.149840
-0.114731
-0.089919
-0.040911
-0.012573
-0.070413
0.030928
-0.031954
0.022600
-0.026834
-0.005871
0.025471
-0.035521
0.016044
0.019308
0.030272
-0.001322
-0.011923
-0.037034
-0.019590
0.102895
0.061274
0.067166
0.066977
0.132545
0.153632
0.189342
0.233810
0.212791
0.219202
0.315093
0.281989
0.277648
0.266183
0.375813
0.395473
0.342589
0.369760
0.369004
0.373042
0.458612
0.448455
0.436009
0.410986
0.418256
0.379707
0.415259
0.395318
0.452327
0.350364
0.399264
0.436050
0.379054
0.400746
0.346747
0.278144
0.329657
0.264485
0.334472
0.241358
0.196059
0.225873
0.242749
0.178606
0.165593
0.153113
0.072271
0.102301
0.091997
0.033647
0.113334
0.009148
0.033028
-0.075759
0.058248
-0.055070
0.020132
-0.019720
0.001953
-0.013965
-0.019516
-0.038231
-0.090248
-0.040013
-0.111794
-0.066326
-0.006848
-0.081042
-0.153295
-0.070162
-0.138548
-0.030879
-0.137890
-0.070579
-0.071483
-0.045812
-0.075693
-0.038418
-0.111694
-0.062104
-0.094456
-0.055122
-0.063554
-0.025192
-0.135288
-0.118170
-0.035778
-0.122244
-0.121615
-0.097311
-0.123296
-0.098478
-0.069365
-0.090616
-0.027306
-0.115630
-0.057441
-0.103847
-0.083520
0.029925
-0.048487
-0.071379
-0.028146
-0.043502
-0.126072
-0.094578
-0.081737
-0.135415
-0.100604
-0.041837
-0.073145
-0.101135
-0.015856
-0.047343
-0.058175
-0.068513
-0.083650
-0.070902
-0.027205
-0.128786
-0.193033
-0.088849
-0.027903
-0.066252
-0.082771
-0.042569
-0.026404
-0.120345
-0.029218
-0.079640
-0.016201
-0.043479
0.017027
-0.011560
-0.046951
-0.040739
-0.018140
0.012026
-0.013828
0.027216
0.098489
0.068336
0.096286
0.109417
0.166230
0.075645
0.147610
0.169727
0.212825
0.019414
0.048259
-0.004235
0.028395
0.070992
0.107533
0.065953
0.025483
-0.027130
0.096197
0.064483
-0.001409
-0.038982
0.057521
-0.026459
0.029478
0.017133
0.025683
-0.044793
-0.075778
0.009869
-0.044104
-0.096361
-0.036213
-0.065395
-0.062430
-0.041646
-0.050760
-0.045740
-0.060046
-0.049448
-0.100371
-0.049605
-0.134297
-0.103052
-0.020832
-0.056247
-0.119570
-0.092612
0.195046
0.351782
0.687962
0.906335
1.232533
1.440618
1.188409
0.915622
0.641394
0.217037
-0.034719
-0.150384
-0.340337
-0.318455
-0.312419
-0.255772
-0.086652
0.011914
-0.051910
0.001602
-0.097822
-0.086339
0.031409
0.003021
-0.035621
-0.058361
0.000962
-0.036170
-0.017554
-0.041713
-0.010790
0.017446
0.026065
0.009512
0.015064
0.088609
0.104336
0.103615
0.177775
0.130551
0.111181
0.169010
0.251717
0.183662
0.277679
0.235134
0.271392
0.329454
0.345748
0.318627
0.360580
0.436497
0.367624
0.438790
0.372231
0.479207
0.448293
0.464888
0.485523
0.471273
0.491108
0.421553
0.412493
0.501042
0.452614
0.458495
0.479524
0.397034
0.460018
0.501958
0.473563
0.346566
0.413195
0.391787
0.341063
0.291290
0.258961
0.340937
0.262058
0.223975
0.181772
0.227204
0.149499
0.096837
0.234705
0.134394
0.053305
0.048100
0.043185
0.088096
0.093658
0.073550
0.029095
0.048202
0.022715
0.002219
-0.033968
-0.026220
0.036036
0.001290
0.062828
0.052765
0.006845
0.056269
0.010641
-0.026847
-0.013242
0.023087
0.077437
0.024180
-0.033210
0.046101
-0.014057
0.040841
-0.018772
-0.016843
0.004399
-0.068746
-0.006670
-0.037318
0.055338
0.070217
-0.000434
-0.003633
0.013932
-0.054785
-0.029911
0.007740
-0.094135
0.032498
-0.098086
0.044896
-0.035147
0.071650
-0.037495
-0.069053
0.111036
0.003676
0.031723
-0.027604
0.065497
0.062602
0.042567
0.055208
0.051763
0.001709
-0.065909
-0.023490
-0.018990
0.031594
-0.087475
-0.065373
0.019051
0.039893
0.032958
-0.030075
0.008236
0.067411
0.083579
0.030223
0.075909
0.007859
0.052491
0.040994
0.065454
0.107754
0.054131
0.106896
0.093222
0.087158
0.002128
0.135456
0.072212
0.066170
0.119679
0.124956
0.132002
0.205140
0.210619
0.130868
0.217255
0.294208
0.224309
0.227244
0.171330
0.240789
0.237557
0.136773
0.160179
0.175295
0.200503
0.149391
0.119762
0.062497
0.193594
0.119032
0.061654
0.099360
0.142526
0.024872
0.122087
0.062804
0.167712
0.128085
0.048161
0.118328
0.014631
0.072971
0.033713
0.008308
0.037956
0.113856
0.074115
-0.020439
0.024846
-0.034570
0.046265
0.094381
0.073994
0.027504
0.051096
-0.078186
0.052236
0.032166
0.272584
0.503395
0.813044
1.094243
1.317131
1.452184
1.316005
1.041845
0.730951
0.353852
0.056372
-0.146467
-0.282333
-0.209262
-0.184877
-0.084409
0.045078
-0.010449
0.032172
0.113577
0.067489
0.055993
-0.006663
0.029211
0.068917
0.126139
0.040245
0.056043
0.180756
0.033680
0.061859
0.051555
0.150566
0.151113
0.117762
0.071326
0.138001
0.197156
0.287771
0.184642
0.231317
0.265168
0.251055
0.332427
0.350301
0.360428
0.314293
0.425122
0.364495
0.450135
0.468517
0.411434
0.512850
0.526382
0.527215
0.569528
0.471459
0.537545
0.586240
0.498846
0.541807
0.665938
0.538460
0.578156
0.522495
0.500953
0.505472
0.430694
0.490359
0.491108
0.396552
0.442846
0.421517
0.436908
0.358683
0.277158
0.321649
0.315341
0.316602
0.318233
0.181571
0.353846
0.184119
0.239403
0.152814
0.209631
0.276042
0.128901
0.112844
0.203901
0.104292
0.136992
0.154550
0.108455
0.069657
0.063163
0.044337
0.045589
0.059798
0.002024
0.023553
0.061852
0.081997
0.095903
0.055316
0.069063
0.078935
0.006222
0.045325
0.047657
-0.008250
0.081229
0.110893
-0.007562
0.110990
0.057336
0.061395
0.002506
-0.002776
0.031685
0.075455
0.026547
-0.043563
0.068595
0.029477
0.061278
0.082207
-0.004072
0.030579
0.058755
-0.004428
0.019484
-0.015258
0.065983
0.032998
0.061112
-0.026765
0.033896
0.046780
0.037845
-0.008433
0.050559
0.054444
0.052096
-0.000639
0.107408
-0.071943
0.054069
-0.039626
0.028849
-0.025116
0.034269
0.070924
0.026573
0.078190
0.040087
0.033753
0.036800
-0.001962
0.071311
-0.013508
0.070534
0.070336
0.098168
0.060443
0.038954
0.013529
0.067095
0.086940
-0.006140
0.005581
0.082986
0.058138
0.076510
0.132236
0.143428
0.148248
0.129422
0.195638
0.168631
0.206606
0.262970
0.237609
0.181268
0.190127
0.139352
0.170959
0.071528
0.208794
0.158261
0.171703
0.150048
0.123817
0.017780
0.070070
0.067330
0.129974
0.069716
0.081333
0.125302
0.020218
0.090830
-0.026885
0.086416
0.054557
0.038360
0.041742
-0.020254
0.055469
0.031066
-0.073820
0.017577
-0.049402
-0.011911
-0.077552
0.028917
0.002328
0.048671
-0.036999
-0.038367
-0.075496
-0.098634
-0.071511
0.036933
0.157893
0.381233
0.877932
1.124821
1.345875
1.356667
1.175452
0.913671
0.591467
0.238127
-0.067549
-0.203460
-0.288589
-0.268620
-0.164005
-0.146056
-0.055357
-0.090069
-0.039870
0.005891
-0.022437
0.020361
-0.065153
0.008596
-0.006565
0.017722
0.002272
0.023617
0.017987
-0.023370
0.041806
0.071825
0.017207
0.095007
0.019211
0.058835
0.074380
0.187234
0.156262
0.182428
0.170087
0.175884
0.295147
0.206083
0.243190
0.315028
0.279562
0.337919
0.333409
0.347222
0.327216
0.301708
0.416502
0.467786
0.394408
0.484874
0.384224
0.475397
0.348766
0.527032
0.425514
0.478638
0.402812
0.496707
0.481671
0.446787
0.364216
0.395644
0.387934
0.395732
0.261937
0.363190
0.348265
0.297591
0.181937
0.247514
0.190278
0.242867
0.109638
0.156477
0.200021
0.117704
0.088193
0.099777
0.039780
0.111506
0.108640
0.076234
0.002160
0.016223
-0.037041
-0.015152
0.035742
-0.055323
-0.047939
-0.061665
-0.100627
-0.010295
-0.044020
-0.043118
-0.049395
0.002684
-0.092253
-0.021532
-0.137171
-0.031680
-0.073609
-0.011228
-0.070409
-0.007488
-0.045666
-0.054350
-0.081131
-0.040358
-0.128505
-0.027463
-0.079489
-0.060306
-0.035886
-0.133224
-0.111380
-0.065706
-0.076525
-0.091170
-0.149095
-0.043076
-0.170565
-0.119445
-0.063614
-0.112147
-0.033976
-0.069459
-0.071704
-0.089651
-0.090690
-0.060782
-0.126155
-0.107319
-0.116991
-0.107580
-0.088513
-0.062022
-0.103515
-0.110984
-0.037455
-0.084434
-0.053464
-0.064342
-0.093702
-0.046258
-0.085180
-0.041280
-0.106550
-0.112220
-0.042865
-0.098271
-0.112877
-0.074876
-0.053801
-0.137051
-0.191281
-0.094039
-0.139137
-0.049012
-0.022360
-0.060859
-0.085229
-0.020500
-0.042416
0.030885
0.005124
0.009735
-0.018325
-0.035055
0.019799
0.080669
0.034701
0.093745
0.019940
0.120078
-0.029137
0.067682
0.062239
0.041197
0.165654
0.021396
0.012038
0.075682
0.077255
0.092683
-0.020079
-0.009532
0.021312
0.084099
-0.033216
-0.017841
0.001180
-0.021477
-0.060055
0.031886
-0.108232
-0.100230
-0.095912
-0.162379
-0.026889
-0.115632
-0.076102
-0.040658
-0.007444
-0.120253
-0.119741
-0.093045
-0.026641
-0.087892
-0.058930
-0.079513
-0.051064
-0.115319
-0.111047
-0.088674
-0.071976
-0.130825
-0.059718
0.055204
0.155168
0.473103
0.802299
1.138159
1.304257
1.248610
1.079061
0.918122
0.467192
0.199182
-0.094997
-0.260467
-0.399170
-0.378073
-0.218438
-0.283195
-0.222445
-0.079470
-0.103394
-0.054813
-0.103685
-0.121023
-0.042368
-0.021878
-0.104322
-0.103562
-0.075726
-0.118282
0.021103
0.035172
-0.020980
0.077580
0.026998
-0.007169
0.022704
-0.007972
0.041052
0.105664
0.138916
0.065886
0.078115
0.120190
0.149550
0.147235
0.178179
0.227050
0.260418
0.265117
0.304873
0.211118
0.391167
0.331812
0.392326
0.315258
0.424176
0.362617
0.338349
0.456406
0.464162
0.379258
0.327314
0.428383
0.428129
0.418504
0.430842
0.367770
0.379181
0.420516
0.312809
0.337105
0.285250
0.225786
0.236684
0.246594
0.252587
0.234374
0.217685
0.079444
0.156925
0.145487
0.152319
0.104066
0.081465
0.018005
0.177465
0.039063
0.097350
-0.028458
-0.060631
0.002873
-0.022374
-0.079094
0.001591
-0.025170
-0.140492
-0.002211
0.023393
-0.063877
-0.096102
-0.048016
-0.111176
-0.123270
-0.033444
-0.008876
-0.062422
-0.010613
-0.067288
-0.020198
0.000670
-0.029118
-0.098840
-0.025258
-0.025166
0.013186
-0.044936
-0.065266
0.000865
-0.055006
-0.053747
-0.093929
0.049592
-0.002969
-0.118834
0.041709
0.032726
-0.046832
-0.014434
-0.018277
0.014934
-0.051953
0.053905
-0.026638
-0.019462
0.089045
-0.085988
-0.121369
-0.118849
-0.052202
0.000905
-0.048366
-0.051232
-0.068166
0.015953
0.017332
0.044226
-0.012805
-0.118665
-0.024761
-0.015761
-0.091374
-0.021490
-0.016999
-0.095836
-0.011307
-0.072305
-0.023348
-0.029821
-0.063275
0.022681
-0.001847
-0.002582
-0.059468
0.006771
-0.015601
-0.009524
-0.008993
0.041378
-0.010013
0.108804
0.047443
0.079538
0.127135
0.046589
0.116512
0.042776
0.126299
0.053352
0.169323
0.075298
0.185405
0.114368
0.140366
0.147311
0.105152
0.119426
0.100269
0.242809
0.091823
0.138886
0.145159
0.125108
0.127965
0.046977
0.102801
0.102839
0.059870
0.182984
0.088167
0.043700
0.053301
0.047911
0.071573
0.055999
0.014340
0.075401
-0.009700
-0.024436
-0.013213
0.014260
0.064645
-0.007394
0.101933
-0.025281
0.004343
0.001206
0.105972
-0.016374
0.028425
-0.011766
-0.054365
0.012931
-0.130061
-0.011385
0.160053
0.271140
0.654591
0.888577
1.168304
1.368238
1.414296
1.192816
0.859157
0.556904
0.251420
-0.068963
-0.225246
-0.241448
-0.253329
-0.046236
-0.128103
-0.063059
-0.050036
0.056922
0.010990
0.003127
0.014984
0.079545
0.098889
0.025908
0.070933
0.003073
0.129181
0.086773
0.066040
0.159898
0.044848
0.091106
0.122651
0.136062
0.192538
0.141042
0.239029
0.163988
0.237157
0.300024
0.249030
0.283338
0.209753
0.276378
0.339083
0.285327
0.335499
0.411465
0.431282
0.439279
0.465034
0.528550
0.488403
0.487454
0.603449
0.492158
0.591481
0.550121
0.517372
0.488080
0.582213
0.570442
0.462105
0.532596
0.522299
0.481704
0.522046
0.485451
0.453345
0.455023
0.406813
0.447842
0.442191
0.375940
0.335405
0.399684
0.341239
0.301232
0.308606
0.241062
0.338325
0.192959
0.255782
0.224962
0.194487
0.163649
0.136056
0.135997
0.177042
0.061578
0.132772
0.073163
0.063053
0.101366
0.083156
0.098192
0.072756
0.092345
0.088927
0.096356
0.081429
0.099809
0.099816
0.125325
0.034843
0.131684
0.064505
0.114486
0.037196
0.096645
0.051134
0.070128
0.047381
0.095646
0.128635
0.063889
0.036194
0.062911
0.049658
0.062699
0.052635
0.014872
0.057903
0.048428
0.114541
0.110894
-0.022447
0.044493
0.042750
0.070513
0.032792
0.039813
0.105949
0.121240
0.088661
0.035011
0.126207
0.065416
0.104292
0.142334
0.081968
0.041297
0.059616
0.050918
0.063191
0.070332
0.061040
0.119422
0.101167
0.032093
0.109181
0.071344
0.119527
0.057707
0.086358
0.090279
0.107109
0.037881
0.083571
0.029736
-0.008151
0.117737
0.150440
0.016480
0.118156
0.027764
0.102784
0.032798
0.126145
0.144438
0.130237
0.178562
0.197623
0.167152
0.137010
