-0.025813
-0.019287
-0.096416
0.010840
-0.056147
-0.045698
-0.022855
-0.006810
0.033508
-0.038496
-0.021919
0.043973
0.041565
0.000779
-0.047162
0.071794
0.096806
0.048624
-0.045702
0.019361
-0.005395
0.016762
-0.023827
0.056286
-0.002268
-0.059246
-0.018727
-0.000074
0.010287
0.060520
-0.005229
0.043371
0.036601
0.070601
0.009097
0.077817
0.084507
0.149446
0.108460
0.083906
0.098755
0.138712
0.167987
0.237530
0.246286
0.096688
0.210735
0.165135
0.224229
0.273738
0.233088
0.104016
0.237570
0.107935
0.135655
0.159443
0.242984
0.224096
0.173256
0.117342
0.150966
0.118738
0.116783
0.168480
0.034319
0.103654
0.094197
0.001336
0.095261
0.085590
0.056962
0.087118
0.149876
0.062181
0.060688
0.038192
0.055403
0.028507
0.031390
0.160337
0.010850
0.050165
0.080384
0.007674
0.029712
0.000023
0.027510
0.103099
0.065862
-0.015298
-0.042173
0.046557
-0.059280
-0.050642
-0.055536
0.069938
0.183494
0.324332
0.539556
0.872398
1.233435
1.477093
1.457601
1.437040
1.131171
0.687277
0.453813
0.124490
-0.016338
-0.315511
-0.299714
-0.242988
-0.104397
-0.058283
-0.028419
0.010661
0.090943
0.082887
0.063448
0.076764
0.024085
0.062111
0.117917
0.080716
0.084305
0.032181
0.079542
0.046930
0.122562
0.167314
0.142773
0.126769
0.182406
0.063995
0.211411
0.138635
0.156180
0.164245
0.252313
0.232661
0.254614
0.282346
0.274915
0.252014
0.290261
0.328496
0.378414
0.345405
0.415375
0.318964
0.395402
0.501881
0.393201
0.423456
0.415099
0.546456
0.523511
0.585518
0.566779
0.545234
0.586535
0.607141
0.596660
0.557740
0.605971
0.573021
0.610160
0.542118
0.574084
0.596385
0.593488
0.537264
0.461715
0.506612
0.536291
0.469147
0.474702
0.469503
0.356011
0.395219
0.376709
0.391630
0.400245
0.414585
0.296859
0.312073
0.341103
0.236317
0.253039
0.256387
0.198750
0.254177
0.192762
0.193131
0.151232
0.198014
0.203722
0.155650
0.165485
0.180075
0.106475
0.099040
0.140771
0.149906
0.080648
0.165579
0.065029
0.074169
0.134305
0.115980
0.117558
0.042153
0.097810
0.048867
0.080685
0.117657
0.110585
0.089994
0.088146
0.106199
0.116357
0.052898
0.097134
0.043201
0.162965
0.063844
0.099065
0.115878
0.116611
0.108217
0.128790
0.033534
0.076964
0.058094
0.052025
0.025091
0.164783
0.110230
0.087039
0.123826
0.033520
0.137314
0.130708
0.053929
0.078989
0.154668
0.156466
0.045806
0.004530
0.057559
0.154671
0.046541
0.064260
0.127986
0.085405
0.052329
0.054582
0.089644
0.066290
0.046038
0.013879
0.086339
0.151347
0.028568
0.154105
0.076510
0.082717
0.102219
0.115070
0.020504
0.071558
0.146637
0.104159
0.091727
0.050717
0.088063
0.045700
0.048659
0.033409
0.079509
0.095185
0.009980
0.075488
0.129725
0.053685
0.048517
0.056993
0.018497
0.133856
0.004601
0.142971
0.132432
0.102437
0.242307
0.136131
0.173160
0.207622
0.148754
0.168993
0.211633
0.193330
0.212046
0.280843
0.290839
0.164394
0.244554
0.250444
0.255968
0.179188
0.210959
0.206298
0.260251
0.158630
0.228115
0.225035
0.148446
0.203987
0.131757
0.129659
0.156779
0.037905
0.115478
0.117010
0.108154
0.027332
0.135342
0.068124
0.049126
0.108845
0.220277
0.047366
0.080374
0.033190
0.139667
0.058516
0.064852
0.035224
0.112592
0.066767
0.025321
0.008743
0.058759
0.070048
0.070814
0.047220
0.013986
0.034361
-0.017349
-0.009761
-0.100416
0.082424
0.236140
0.473464
0.790485
1.183954
1.351290
1.487137
1.332925
1.128027
0.839085
0.421559
0.142509
-0.126943
-0.242926
-0.251889
-0.234468
-0.226866
-0.152519
-0.003343
-0.028141
0.071551
0.024408
0.055946
0.074950
0.026548
0.017687
0.052969
0.068755
-0.002969
-0.041759
0.004312
0.028179
0.046903
0.076293
0.105971
0.055384
0.034454
0.059430
0.029708
0.058614
0.063017
0.144269
0.108931
0.136937
0.165543
0.189285
0.152492
0.174166
0.169633
0.227072
0.179037
0.221799
0.270365
0.333286
0.246029
0.299178
0.279095
0.294717
0.432932
0.314258
0.420566
0.434732
0.455710
0.462775
0.500127
0.526915
0.462256
0.633870
0.565393
0.480899
0.522168
0.530183
0.565348
0.404725
0.555130
0.430559
0.443811
0.439163
0.488256
0.442114
0.386319
0.358272
0.384917
0.369667
0.307707
0.309303
0.295312
0.236119
0.257869
0.163212
0.135585
0.156301
0.169214
0.134217
0.135075
0.079433
0.078887
0.148826
0.060526
0.034023
0.004577
0.043835
0.011802
0.063135
0.041941
0.049172
-0.063443
-0.025566
-0.013877
-0.091241
0.031984
-0.034070
0.047519
-0.020451
0.013038
-0.055806
-0.073340
-0.009357
-0.046655
0.009454
-0.093810
-0.069530
0.005642
0.045886
-0.038707
-0.078706
-0.027773
-0.052423
0.036493
-0.067625
0.042310
-0.008779
-0.089108
-0.012744
-0.046131
-0.020113
0.113723
-0.085207
-0.006311
-0.067559
-0.098053
-0.035757
0.019934
-0.021437
-0.106524
-0.045996
-0.057013
-0.070325
0.008356
-0.066390
-0.000369
-0.020159
0.048351
-0.088494
-0.086474
-0.069189
-0.095095
-0.021434
-0.024992
-0.045128
-0.000378
-0.042182
-0.119575
-0.022792
-0.119005
-0.028610
0.009750
-0.025203
-0.030534
0.046840
-0.085412
-0.014128
-0.054173
-0.053250
-0.082426
0.013231
-0.023416
-0.075966
-0.025735
-0.113801
0.017939
-0.104865
-0.065581
-0.036588
-0.080448
0.025767
-0.002008
-0.032475
-0.050976
-0.004666
-0.055850
0.010698
-0.066603
-0.008690
0.049272
0.027949
-0.013274
0.041486
0.010636
0.053548
0.104968
0.078766
0.088644
0.047751
0.140593
0.153306
0.155499
0.101058
0.078454
0.127552
0.135514
0.115066
0.166620
0.156699
0.116592
0.139963
0.140978
0.146192
0.095732
0.054017
0.100407
-0.021792
-0.066683
0.011401
0.044803
0.033457
0.110016
-0.015543
-0.016630
0.102238
0.035268
-0.086332
0.024445
-0.007027
-0.042022
-0.005867
-0.007542
-0.006862
-0.104124
-0.043311
-0.047700
0.009836
-0.082769
-0.048225
-0.078482
-0.051806
-0.065313
-0.083204
-0.024302
-0.077081
-0.136750
-0.067804
-0.152465
-0.138265
-0.127603
0.111195
0.310177
0.637305
1.060964
1.306238
1.425831
1.365698
1.197354
0.884664
0.496081
0.185823
-0.018670
-0.391331
-0.337272
-0.390541
-0.323347
-0.153551
-0.002883
-0.123258
-0.129993
-0.063094
0.021067
-0.040967
-0.047351
-0.029788
-0.055134
-0.007287
-0.028571
-0.000236
0.021378
-0.067926
-0.057397
0.004927
-0.081614
0.023505
-0.033838
0.060664
-0.013541
0.083985
0.054703
0.054045
0.033821
0.006918
0.139525
0.100191
0.144350
0.148192
0.175098
0.037318
0.206925
0.191286
0.191144
0.237314
0.248126
0.338546
0.274945
0.290937
0.385769
0.400616
0.458083
0.422581
0.506866
0.452112
0.458541
0.482789
0.486129
0.475221
0.501019
0.510247
0.438752
0.412177
0.483756
0.435171
0.528109
0.494252
0.449778
0.467692
0.413953
0.343504
0.405850
0.442356
0.344509
0.361578
0.250750
0.279937
0.263627
0.241674
0.204416
0.211006
0.162493
0.195856
0.182988
0.153176
0.135429
0.083848
0.097559
0.045004
0.057180
0.031714
0.037919
0.026535
0.095595
0.083524
-0.007891
0.010160
-0.020022
0.110246
-0.003748
-0.045036
-0.024413
-0.031117
-0.047174
-0.006850
0.001574
0.036301
-0.049843
-0.009363
-0.122418
-0.021077
-0.002368
0.027390
-0.005360
-0.036491
0.039595
0.090280
-0.042219
0.002339
-0.059988
-0.010155
-0.023798
-0.031591
0.090915
0.107232
0.067448
0.032851
0.042762
-0.027353
0.034203
0.000428
0.029362
0.007923
-0.026780
0.074131
0.028626
0.001334
0.032477
0.064546
0.021652
0.050020
-0.049655
0.009718
-0.024918
0.034929
0.011706
0.016740
-0.036604
0.005180
0.031583
0.002905
0.091548
0.048902
0.047382
0.001817
0.000890
0.071370
-0.020384
0.033551
-0.043381
-0.014478
0.049812
0.038102
0.095894
0.038087
-0.048313
0.002112
0.049354
0.005480
0.093658
0.014332
-0.010461
0.050632
0.028077
0.080814
0.070029
0.023848
0.035526
0.014466
0.061354
0.093039
0.078480
0.049650
0.030450
0.033056
0.130936
0.125134
0.129798
0.159701
0.082540
0.128359
0.231069
0.195012
0.204506
0.187595
0.223243
0.249098
0.198813
0.232506
0.329586
0.281005
0.147947
0.215264
0.225364
0.161259
0.279294
0.256530
0.165420
0.198078
0.215707
0.197029
0.170993
0.177644
0.077909
0.174487
0.115607
0.039921
0.174138
0.023758
0.083958
0.001073
0.030446
0.052335
0.110808
0.062067
0.014468
0.093195
0.096032
0.018224
0.056630
0.053697
0.159558
0.082062
0.051889
0.066502
0.144721
0.074931
-0.014626
0.000000
0.000000
0.000000
0.000000
0.000000
0.000000
0.000000
0.000000
0.000000
0.000000
0.000000
0.000000
0.000000
0.000000
0.000000
0.000000
0.000000
0.000000
0.000000
0.000000
0.000000
0.000000
0.000000
0.000000
0.000000
0.000000
0.000000
0.000000
0.000000
0.000000
0.000000
0.000000
0.000000
0.000000
0.000000
0.000000
0.000000
0.000000
0.000000
0.000000
0.000000
0.000000
0.000000
0.000000
0.000000
0.000000
0.000000
0.000000
0.000000
0.000000
0.000000
0.000000
0.000000
0.000000
0.000000
0.000000
0.000000
0.000000
0.000000
0.000000
0.000000
0.000000
0.000000
0.000000
0.000000
0.000000
0.000000
0.000000
0.570664
0.506990
0.529307
0.623702
0.607789
0.551018
0.555453
0.533309
0.626859
0.643714
0.630686
0.607154
0.619748
0.576987
0.657616
0.590840
0.451578
0.588300
0.514755
0.573499
0.486090
0.547639
0.492251
0.449775
0.456727
0.435172
0.443215
0.386672
0.269206
0.287800
0.339968
0.260705
0.191671
0.176285
0.216951
0.317770
0.183972
0.236503
0.128227
0.179097
0.267457
0.106828
0.129920
0.168485
0.229691
0.103654
0.152788
0.147006
0.141659
0.166918
0.167147
0.112779
0.201967
0.105493
0.114315
0.110945
0.106083
0.103748
0.025803
0.041968
0.087400
0.118583
0.093673
0.034345
0.117127
0.045315
0.101697
0.135965
0.107002
0.196741
0.111233
0.097965
0.168755
0.004765
0.134166
0.085239
0.092377
0.080920
0.087416
0.072159
0.075589
-0.003749
0.064119
0.055143
0.018861
0.056501
0.099419
0.061482
0.109673
0.039660
0.083470
0.067544
0.140375
0.049471
0.057491
0.045273
0.104234
0.114565
0.126762
0.110025
0.103990
0.055848
0.103821
0.096750
0.000000
0.000000
0.000000
0.000000
0.000000
0.000000
0.000000
0.000000
0.000000
0.000000
0.000000
0.000000
0.000000
0.000000
0.000000
0.000000
0.000000
0.000000
0.000000
0.000000
0.000000
0.000000
0.000000
0.000000
0.000000
0.000000
0.000000
0.000000
0.000000
0.000000
0.000000
0.000000
0.000000
0.000000
0.000000
0.000000
0.000000
0.000000
0.000000
0.000000
0.000000
0.000000
0.000000
0.000000
0.000000
0.000000
0.000000
0.220722
0.203099
0.272627
0.150691
0.199208
0.161074
0.157012
0.126796
0.221680
0.143625
0.079624
0.095754
0.012264
0.053471
0.115055
0.023301
0.124184
0.106064
0.040782
0.116059
0.089053
0.067412
0.059757
-0.010643
0.088496
-0.022081
0.051918
0.035654
0.079349
0.117959
0.083724
0.075622
-0.088338
0.033996
-0.004686
-0.005457
0.037603
0.015978
0.094426
-0.039544
-0.000216
-0.022850
0.055122
0.008773
0.211007
0.578136
0.914727
1.209107
1.307321
1.500000
1.281037
1.039352
0.724040
0.293249
0.066815
-0.116826
-0.289273
-0.443228
-0.260368
-0.145339
-0.085803
0.026547
-0.020007
0.010092
0.008193
-0.027909
-0.050382
-0.016235
-0.001177
0.039785
0.020704
-0.024590
0.054207
-0.079025
-0.008066
0.148980
0.050665
0.029325
0.032397
0.023273
0.082688
-0.011482
0.109936
0.095578
0.041379
0.086025
0.055303
0.153308
0.105693
0.120481
0.175151
0.141701
0.234847
0.167445
0.280992
0.304817
0.251723
0.297173
0.311583
0.337367
0.385608
0.399011
0.390017
0.424769
0.363453
0.344848
0.412482
0.429752
0.436265
0.443779
0.410892
0.509789
0.468949
0.459277
0.574500
0.499294
0.480301
0.493942
0.510894
0.410108
0.362152
0.414957
0.312505
0.433624
0.331526
0.317528
0.322080
0.179103
0.260107
0.308695
0.253643
0.234222
0.169148
0.201016
0.115353
0.108837
0.228487
0.148077
0.083184
0.131149
0.081623
-0.028111
0.060052
0.031536
0.002850
0.042089
-0.042743
0.015959
0.001476
0.031513
-0.071929
-0.026470
0.019920
0.023062
-0.091082
-0.039869
-0.022169
0.000068
-0.065294
0.008696
-0.042567
-0.008019
-0.020076
0.000000
0.000000
0.000000
0.000000
0.000000
0.000000
0.000000
0.000000
0.000000
0.000000
0.000000
0.000000
0.000000
0.000000
0.000000
0.000000
0.000000
0.000000
0.000000
0.000000
0.000000
0.000000
0.000000
0.000000
0.000000
0.000000
0.000000
0.000000
0.000000
0.000000
0.000000
0.000000
0.000000
0.000000
0.000000
0.000000
0.000000
0.000000
0.000000
0.000000
0.000000
0.000000
0.000000
0.000000
0.000000
0.000000
0.000000
0.000000
0.000000
0.000000
0.000000
0.000000
0.000000
0.000000
0.000000
0.000000
0.000000
0.000000
0.000000
0.000000
0.000000
0.000000
0.000000
0.000000
0.000000
0.000000
0.000000
0.000000
0.000000
0.000000
0.000000
0.000000
0.000000
0.000000
-0.067129
0.041521
-0.035824
-0.009668
0.051032
0.069223
-0.041967
0.039500
0.032701
0.112624
0.035829
0.066050
0.018576
0.055204
0.095792
0.083426
0.096198
0.065473
0.060120
0.135064
-0.006425
0.098318
0.018966
0.022984
0.014901
0.058234
0.016104
0.005107
-0.038860
0.022258
0.032988
-0.009339
-0.059555
-0.028950
-0.077172
-0.026999
-0.095579
-0.104764
-0.028759
-0.037588
-0.136734
-0.108591
-0.117967
-0.021860
-0.084310
-0.084882
-0.137887
-0.157314
-0.094147
-0.072262
0.002427
-0.073030
-0.033808
-0.127091
-0.110563
-0.117182
-0.075207
-0.088301
-0.137783
-0.095104
-0.101940
0.091030
0.366845
0.639596
0.998451
1.301823
1.363983
1.213469
0.985001
0.706795
0.347726
0.093162
-0.129409
-0.293550
-0.356280
-0.421403
-0.234425
-0.219200
-0.187347
-0.111340
-0.040749
-0.070424
-0.086734
-0.016774
-0.090314
-0.120917
-0.094149
-0.122021
-0.146887
-0.023543
-0.058640
-0.051580
-0.079621
-0.036870
0.029026
-0.037912
-0.018150
0.076595
-0.047110
0.149351
0.005628
-0.012889
-0.045969
0.056102
0.108605
0.114557
0.101731
0.123645
0.068395
0.116318
0.171409
0.188611
0.223891
0.176795
0.263524
0.209062
0.289239
0.270345
0.344487
0.326501
0.380647
0.346716
0.378030
0.444036
0.425472
0.389156
0.385875
0.462601
0.447900
0.480870
0.451548
0.465525
0.425306
0.465525
0.415186
0.439456
0.413636
0.330741
0.411593
0.393283
0.329027
0.378646
0.390660
0.252814
0.283376
0.219178
0.234110
0.205380
0.189306
0.164077
0.078708
0.131006
0.111042
0.094408
0.030831
0.110213
0.012956
0.076711
-0.019526
0.061255
0.049592
0.058323
0.054897
0.019859
-0.019111
-0.007923
-0.022472
-0.055825
-0.040055
0.067550
-0.010585
0.027574
0.008877
-0.016619
0.037759
0.021841
-0.026686
0.015288
-0.013240
-0.001785
0.022162
-0.019127
-0.050405
0.010099
-0.158578
-0.180370
-0.086316
-0.066661
-0.016686
-0.082196
-0.105329
-0.025535
-0.059876
-0.079072
0.006196
-0.099625
-0.103434
0.037500
0.045498
-0.034584
0.007724
-0.018541
-0.038711
0.041142
-0.003999
-0.009659
0.020480
-0.019231
-0.004685
-0.026419
-0.030698
-0.044133
-0.042546
0.006119
-0.003782
0.001583
-0.006372
-0.021785
-0.007997
0.004674
0.032446
0.029628
-0.023977
-0.040060
-0.086085
0.003465
0.055639
-0.055319
0.000021
-0.032633
0.046981
0.040852
-0.043628
0.003123
0.076050
-0.026895
0.019341
-0.039906
0.005104
0.026403
0.019086
0.000467
0.000061
-0.011330
0.055614
0.000488
0.037066
0.005556
0.068334
0.089965
0.104225
0.037556
-0.000400
0.033527
0.011208
0.078241
0.076300
0.073327
0.087324
0.154362
0.071384
0.171923
0.171461
0.229042
0.158844
0.186253
0.190947
0.246050
0.181721
0.206917
0.216619
0.183260
0.211644
0.145715
0.185692
0.156062
0.096536
0.181536
0.139639
0.146833
0.118229
0.105965
0.051076
0.095426
0.005702
0.014409
0.046291
0.070107
0.030974
0.076005
0.019629
0.035229
0.060821
0.027771
-0.010834
0.002281
-0.043444
0.000596
0.044197
0.064151
0.037658
0.020510
0.057686
0.001308
-0.023039
0.068105
-0.029231
0.015520
-0.071312
-0.025919
-0.021647
-0.007352
-0.001188
0.008335
0.020968
0.172670
0.420156
0.744302
1.128390
1.354740
1.454514
1.408815
1.250923
0.879699
0.529013
0.326817
-0.023869
-0.221917
-0.292571
-0.268346
-0.135209
-0.143975
0.021691
0.055722
0.041561
0.010847
0.109441
0.003695
0.095328
0.005554
0.005380
0.038542
0.003888
0.049696
0.034838
0.152756
0.098714
0.089671
0.040686
0.070591
-0.000153
0.126236
0.062962
0.095969
0.028710
-0.007527
0.117207
0.146142
0.144448
0.137809
0.176885
0.182160
0.231925
0.218577
0.241106
0.293438
0.382670
0.344949
0.247426
0.409041
0.345827
0.426660
0.448196
0.513655
0.565092
0.554984
0.525339
0.521757
0.583335
0.516198
0.502931
0.515867
0.572163
0.562463
0.546040
0.541648
0.580446
0.692728
0.578353
0.564500
0.547176
0.527068
0.502043
0.481790
0.436216
0.468560
0.448919
0.469513
0.332266
0.364881
0.359662
0.313775
0.273989
0.288493
0.300739
0.197815
0.230061
0.187628
0.229018
0.262922
0.209284
0.195193
0.077061
0.108461
0.103032
0.120893
0.146488
0.011388
0.040090
0.099684
0.046241
0.149320
0.068986
0.058258
0.094681
0.087000
0.007788
0.065239
0.109176
0.056072
0.016050
-0.005151
0.083161
0.070265
0.015938
0.066892
0.039893
-0.022840
0.057532
0.042933
0.054213
0.042132
0.023489
0.081963
0.048457
0.011392
0.012498
0.105677
0.049691
-0.078005
-0.001417
0.106022
0.010806
0.035640
0.013780
0.006154
0.039455
0.028830
0.060377
0.072342
0.023910
0.042869
0.039824
0.003496
0.028710
0.133085
-0.021536
0.101125
0.045465
0.074163
0.020174
0.045550
-0.002475
-0.019573
0.053184
0.057051
0.052262
0.040694
0.007763
0.050961
0.067023
0.106412
0.031504
-0.014603
-0.018217
0.049293
0.072972
-0.010207
0.033980
0.031256
0.091269
0.076146
0.026103
0.020810
0.030284
0.069119
0.016652
-0.034100
-0.011800
0.042303
-0.043146
0.078588
0.031051
0.056992
0.069577
0.092447
-0.017855
0.024055
0.054826
0.116969
0.015314
0.127210
0.069497
0.089699
0.111793
0.132952
0.096720
0.165870
0.168859
0.248050
0.154498
0.167558
0.203193
0.175820
0.189840
0.171644
0.118411
0.224953
0.209175
0.185778
0.103040
0.184433
0.171617
0.097006
0.087795
0.058472
0.034092
0.036879
-0.044341
0.040818
0.050375
0.069028
0.066959
0.055800
-0.115584
-0.071205
-0.096137
-0.082047
0.008833
0.007614
-0.033921
0.026773
-0.083525
-0.011653
-0.001850
-0.088360
-0.114131
-0.050172
-0.049526
-0.028496
0.006969
0.032555
-0.066372
-0.029245
-0.075906
-0.099441
-0.045431
-0.084095
-0.120121
0.041042
0.336565
0.626604
0.979475
1.156726
1.495111
1.428381
1.193612
1.000749
0.600252
0.266135
-0.102058
-0.316847
-0.335879
-0.256651
-0.230673
-0.156932
-0.086756
-0.103442
-0.040991
-0.029952
-0.042183
-0.095803
-0.110449
-0.085153
-0.023728
-0.049621
0.031899
-0.024848
0.042527
-0.045968
-0.080227
-0.045184
-0.018823
0.016171
0.044970
-0.049958
-0.003071
0.011426
0.037359
-0.031661
0.118781
0.059735
0.013777
0.071875
0.118757
0.122833
0.189581
0.237033
0.197999
0.155084
0.134056
0.213704
0.234050
0.308637
0.311216
0.183798
0.296781
0.359627
0.366614
0.413179
0.374616
0.387354
0.414322
0.385951
0.432657
0.481755
0.451453
0.396853
0.464843
0.441291
0.423244
0.423155
0.455322
0.365687
0.389643
0.474683
0.393336
0.349742
0.345507
0.310778
0.346805
0.263782
0.269732
0.198030
0.226608
0.250066
0.149111
0.246754
0.113423
0.134531
0.159059
0.144784
0.103757
-0.007254
0.057554
-0.026614
0.016860
0.029924
-0.034858
0.045983
-0.018843
-0.036104
-0.016023
-0.085146
-0.035323
-0.156088
-0.100484
-0.061942
-0.108676
-0.108437
-0.116740
-0.112268
-0.051619
-0.049513
-0.087471
-0.120556
-0.110063
-0.059949
-0.090656
-0.063177
-0.096951
-0.052936
-0.064510
-0.064877
-0.077521
-0.028985
-0.153708
-0.093516
-0.137203
-0.019160
-0.091252
-0.151171
-0.080611
-0.125006
0.028145
-0.122212
-0.148043
-0.117062
-0.034608
-0.092828
-0.152524
-0.112469
-0.090286
-0.125270
-0.089470
-0.059926
-0.001627
-0.038299
-0.060575
-0.168529
-0.054794
-0.215600
-0.064104
-0.061035
-0.061444
-0.071106
-0.112436
-0.151663
0.028334
-0.019546
-0.172435
-0.108980
-0.139600
-0.067133
-0.039807
-0.080373
-0.164596
-0.079033
-0.094888
-0.086679
-0.091484
-0.034074
-0.109211
-0.112735
-0.106431
-0.093430
-0.097651
-0.120315
-0.031731
-0.074894
-0.116876
-0.059969
-0.113655
-0.081154
-0.090282
-0.087945
-0.005723
-0.079350
-0.039326
-0.021891
-0.074332
-0.079716
0.012681
0.052821
-0.079035
-0.039977
-0.047241
-0.044889
0.009181
0.017961
0.109956
0.076012
0.037283
0.062855
0.010660
0.028821
0.094014
0.046761
0.062953
0.042365
0.064924
0.107659
0.107286
0.081135
0.021427
0.030918
0.057896
-0.063031
0.001791
-0.063880
0.073225
0.053453
-0.104454
-0.007757
-0.042581
-0.064636
-0.049257
-0.008229
-0.008701
0.005762
-0.078308
-0.028459
-0.032765
-0.060735
-0.038893
-0.153561
-0.090361
-0.026019
-0.149648
-0.049638
-0.038611
-0.140208
-0.059722
-0.143195
-0.109496
-0.107924
-0.016535
-0.062774
-0.138273
-0.114481
-0.183953
-0.139576
-0.155657
-0.074432
0.162535
0.374064
0.777976
0.993525
1.253126
1.296858
1.217823
0.908372
0.622054
0.297062
-0.051552
-0.194412
-0.380417
-0.477494
-0.289468
-0.334770
-0.239784
-0.104067
-0.132316
-0.051498
-0.089616
-0.089648
-0.023472
-0.113432
-0.051277
-0.116441
-0.105313
-0.073627
-0.130252
-0.010483
-0.076172
-0.131363
-0.042814
0.002840
-0.032145
-0.058177
-0.098113
0.006081
0.040264
-0.041801
-0.017327
0.069719
-0.018379
0.091347
0.098336
0.067912
0.080600
0.139072
0.146228
0.176753
0.197701
0.263393
0.228597
0.206822
0.249022
0.308207
0.256109
0.348853
0.321538
0.364484
0.375932
0.381291
0.385542
0.383333
0.485135
0.453908
0.425262
0.503805
0.439318
0.414155
0.460295
0.459420
0.451984
0.407198
0.401153
0.389925
0.432986
0.349725
0.358393
0.398494
0.381048
0.303467
0.292132
0.267966
0.227565
0.231269
0.175947
0.247645
0.174398
0.177702
0.092005
0.120559
0.172070
0.038295
0.069167
-0.014424
0.027195
0.078385
0.037854
-0.014726
0.020688
-0.017362
-0.005633
-0.072129
-0.022943
-0.002562
-0.099556
0.030078
-0.021500
-0.047796
-0.010487
0.034162
-0.061225
-0.017943
-0.126874
-0.155757
-0.026792
-0.019545
0.038871
-0.013893
-0.006737
-0.113151
-0.037380
0.031160
-0.116392
-0.008601
-0.049268
-0.011278
-0.008625
-0.016516
-0.070163
0.106178
0.067128
-0.053450
-0.000539
0.035654
-0.074474
0.052465
-0.117445
-0.033573
-0.026344
-0.054821
-0.075555
-0.064967
-0.054594
-0.050142
-0.077457
0.000307
-0.009633
0.005100
0.036975
0.048195
0.016946
0.094746
-0.023190
0.012905
-0.029947
-0.024456
-0.005389
0.013910
0.023040
-0.132577
0.005536
0.032236
0.053305
0.008176
0.099832
0.057459
0.065108
0.012949
-0.014493
0.025547
-0.037208
-0.012492
0.085790
-0.051221
0.030888
0.031956
0.022461
0.013100
0.036444
0.007765
0.040994
0.024785
0.029207
0.093302
0.011015
0.092422
0.026285
0.071935
0.045208
0.001076
0.070497
0.087890
0.099736
0.073876
0.152616
0.103118
0.068200
0.071157
0.103970
0.186767
0.183646
0.214438
0.250810
0.239124
0.262987
0.185737
0.150452
0.198997
0.237036
0.200575
0.144171
0.192446
0.226610
0.217487
0.194190
0.167677
0.116535
0.109603
0.223137
0.012418
0.119942
0.009757
0.071326
0.129140
0.089091
0.123992
0.070034
0.031931
0.046306
0.113269
0.044250
0.056985
0.015858
0.047882
0.056800
-0.005468
0.009838
0.045989
0.006038
0.025750
0.113585
-0.005771
0.038554
0.122061
0.049755
0.198458
0.041429
0.022303
0.029227
-0.014075
-0.003663
-0.040949
0.238675
0.515955
0.872082
1.144489
1.469971
1.487381
1.332071
1.164275
0.812989
0.387864
0.155083
-0.041609
-0.259344
-0.235510
-0.304712
-0.091466
-0.095610
-0.064296
-0.097337
0.002198
0.023838
0.056865
0.141143
-0.047867
0.077820
0.068282
0.126068
0.105978
0.092507
0.026384
0.105927
-0.015733
0.096314
0.090990
0.053870
0.100058
0.140796
0.087138
0.158157
0.124238
0.099871
0.116878
0.226699
0.148051
0.180726
0.238815
0.275899
0.317556
0.294797
0.278357
0.313156
0.294548
0.401139
0.354282
0.470342
0.450524
0.481197
0.433209
0.464948
0.505615
0.502139
0.496497
0.519865
0.568339
0.493318
0.542217
0.565052
0.573638
0.546537
0.600033
0.575958
0.546983
0.573444
0.543815
0.496713
0.445049
0.567896
0.569555
0.477416
0.405183
0.459946
0.496431
0.402153
0.427723
0.356545
0.372020
0.408385
0.218326
0.324734
0.211916
0.201345
0.160274
0.193687
0.113677
0.275098
0.147543
0.179355
0.187089
0.135454
0.168615
0.102576
0.120893
0.173853
0.157352
0.061228
0.018179
0.034132
0.079484
0.127522
0.085531
0.098460
0.155359
0.121477
0.090677
0.027877
