0.001235
0.012756
-0.034046
-0.032738
-0.026443
-0.063566
0.024244
0.034549
0.064275
0.051849
0.049495
-0.013091
0.011156
-0.036263
0.023261
-0.011006
0.110356
0.016401
0.060211
-0.013820
0.061043
0.055370
-0.015241
0.004554
0.088483
-0.019400
0.068063
0.037495
0.032737
0.038477
0.025962
-0.009181
-0.008519
0.049140
-0.067458
-0.029170
-0.024457
-0.019292
0.088042
0.106744
0.089433
0.140301
0.021651
0.040466
0.111802
0.128592
0.116681
0.135971
0.177651
0.188721
0.102387
0.110999
0.156482
0.189161
0.131709
0.141872
0.225204
0.236989
0.166780
0.169620
0.196135
0.213815
0.164929
0.243859
0.193043
0.222403
0.162288
0.187426
0.082874
0.142687
0.064534
0.121494
0.096521
0.029210
0.055772
0.064550
0.122512
-0.015508
0.113946
0.102991
0.060706
0.031118
0.067678
-0.020913
0.069027
0.045054
0.018336
0.013407
0.072779
0.078782
-0.001984
0.108296
0.038880
0.023030
0.088451
0.107814
-0.080211
0.021150
0.056656
0.136830
0.087187
0.042666
0.029428
0.023559
-0.039861
-0.070416
-0.081926
0.052161
0.180786
0.372225
0.712469
1.057897
1.327241
1.500000
1.362922
1.243977
0.973086
0.673995
0.282633
0.163279
-0.067144
-0.175422
-0.298126
-0.171299
-0.184918
-0.033150
0.018627
0.075235
0.055660
0.073438
0.090351
0.051318
0.083837
0.069899
0.142239
0.038916
0.045446
0.127612
0.011355
0.034825
0.085696
0.038079
0.115048
0.079546
0.101904
0.113191
0.080836
0.084223
0.160410
0.009833
0.049154
0.127722
0.184653
0.152820
0.181013
0.102398
0.245757
0.167226
0.206957
0.232170
0.288879
0.216541
0.323352
0.295389
0.256941
0.304013
0.369242
0.227348
0.317761
0.345083
0.416883
0.428405
0.465584
0.423624
0.461809
0.428820
0.475531
0.538459
0.608679
0.594896
0.518803
0.526247
0.578889
0.558416
0.563744
0.564632
0.562348
0.517950
0.523391
0.566991
0.495644
0.518632
0.494832
0.556450
0.481643
0.428635
0.446812
0.470935
0.413300
0.296987
0.429207
0.343930
0.351656
0.295174
0.327380
0.209354
0.224240
0.221863
0.257897
0.132866
0.278275
0.195624
0.187457
0.189278
0.147500
0.176659
0.122733
0.095426
0.182456
0.101992
0.060043
0.060038
0.132276
0.104324
0.040135
0.110260
0.074113
0.141487
0.096325
0.113103
0.132117
0.104377
0.093688
0.031604
0.026871
0.098137
0.111345
0.095461
0.175672
-0.014923
0.030535
0.084875
0.011283
0.120764
0.115972
0.133407
0.068963
0.022631
0.123443
0.157013
0.056939
0.024614
-0.008952
0.141375
0.136655
0.064646
0.173177
0.043296
0.090673
0.124434
0.105542
0.056359
0.019446
0.081106
0.058963
0.070340
0.154560
0.066125
0.043555
0.073419
0.088876
0.059599
0.192748
0.019280
0.099533
0.076857
0.132826
0.087446
0.018737
0.093544
0.112706
0.088858
0.084393
0.015470
0.037966
0.050555
0.089867
0.015900
0.101758
0.066798
0.076442
0.022223
0.103616
0.071208
-0.027165
-0.011063
0.061191
0.068518
0.066134
0.015244
0.065421
0.116455
0.077216
0.001707
0.060078
0.039593
0.066906
0.095352
0.117435
0.096477
0.006917
0.055731
0.010138
0.052414
-0.039664
0.110513
0.093403
0.079106
0.045748
0.049520
0.103939
0.116674
0.089246
0.046800
0.103739
0.106650
0.091677
0.145705
0.178060
0.100751
0.142404
0.175649
0.189705
0.178694
0.286827
0.214898
0.237946
0.203096
0.280263
0.159666
0.225948
0.264490
0.212285
0.226657
0.164987
0.203551
0.217992
0.216402
0.078116
0.170947
0.117426
0.090363
0.120032
0.127765
0.093269
0.076591
0.116706
0.068148
0.118617
0.067254
0.040190
0.005404
-0.000484
-0.048011
0.049419
0.013663
0.053909
0.012957
0.038650
0.037162
-0.034543
0.079642
-0.009529
0.057236
0.032670
0.008549
0.035248
-0.028375
0.068027
0.045564
0.023008
0.078123
0.010426
-0.031608
-0.011503
-0.001805
-0.078420
-0.043569
-0.065754
-0.013010
-0.053126
0.134097
0.329508
0.602349
0.998429
1.247298
1.350119
1.388536
1.178117
0.971485
0.565740
0.309556
0.087053
-0.171681
-0.281146
-0.279871
-0.274379
-0.177993
-0.109521
-0.122722
-0.104429
0.012924
0.012230
-0.082882
0.054415
0.052688
-0.039936
-0.000681
0.016028
-0.004391
0.011680
-0.014295
0.032637
0.016141
-0.011804
-0.023906
0.034429
0.047412
-0.005271
0.039148
-0.007490
0.033511
-0.013204
0.021047
0.057591
-0.053967
0.108245
0.063701
-0.040787
0.038874
0.050306
0.055814
0.131488
0.134764
0.162803
0.135347
0.174428
0.164882
0.277760
0.221936
0.194056
0.298325
0.326229
0.271107
0.283385
0.381946
0.431866
0.377641
0.437457
0.359360
0.517282
0.389609
0.430444
0.463947
0.426314
0.368071
0.509212
0.474548
0.415569
0.451317
0.431180
0.392485
0.443852
0.527009
0.335775
0.431687
0.414210
0.321212
0.386307
0.344101
0.326269
0.288848
0.282119
0.236132
0.280370
0.209538
0.187640
0.132000
0.189043
0.122597
0.104757
0.091414
0.075323
0.056638
0.078539
0.025342
0.058513
0.109335
0.000568
0.041161
-0.050084
0.033748
-0.010312
0.008271
0.001228
0.009991
0.006984
-0.035094
0.003180
0.009700
-0.013399
-0.050653
-0.016122
-0.070568
-0.084737
-0.095480
0.026899
0.028486
-0.021819
-0.069442
0.013708
-0.047990
0.044379
-0.089549
-0.030299
-0.038098
0.051773
-0.083583
-0.079013
-0.039666
0.030175
-0.092394
-0.027138
-0.021121
0.002034
-0.087395
-0.063623
-0.028626
-0.039821
-0.146679
-0.048514
-0.001171
-0.061932
-0.034838
-0.015132
-0.027277
-0.021297
-0.068288
-0.052475
-0.060822
-0.011354
-0.040773
-0.051150
0.000741
-0.033586
0.043421
-0.012205
0.034579
-0.032299
-0.079090
-0.024371
-0.011127
-0.039204
-0.063360
0.039168
0.000831
-0.033577
-0.088759
-0.083357
-0.072577
0.025181
-0.017251
0.038436
-0.068742
-0.026200
-0.076766
0.038872
-0.080007
-0.069771
-0.075255
-0.006424
-0.106949
0.021859
-0.052629
-0.042644
-0.127442
-0.065415
-0.133980
-0.022435
-0.068671
-0.036398
-0.054191
-0.016097
-0.103941
-0.031684
0.020210
-0.003178
0.024440
0.037570
-0.041759
-0.075334
-0.029499
-0.030797
0.026868
-0.038993
-0.021998
0.038486
-0.011287
-0.016103
0.015782
0.052327
0.072077
-0.020296
0.118382
0.020392
0.184257
0.064834
0.034930
0.102003
0.111692
0.102993
0.106769
0.115346
0.221054
0.148131
0.116608
0.120079
0.012995
0.175755
0.067692
0.110334
0.144100
0.119647
0.079940
0.019202
0.010926
0.102084
0.022524
-0.021688
-0.026877
-0.015655
0.066501
0.026390
-0.081364
-0.010162
-0.021500
-0.010211
-0.005137
-0.070372
0.003937
-0.020838
0.066115
0.009252
-0.117975
-0.012303
-0.073192
0.054296
-0.028839
-0.029376
-0.068636
0.011019
-0.046752
-0.024330
-0.034272
-0.025967
-0.031929
-0.000457
-0.083874
0.030558
-0.060972
-0.101291
-0.131682
-0.123650
-0.042191
0.049099
0.332121
0.629222
0.940682
1.159373
1.446339
1.313722
1.195021
0.874077
0.620785
0.332663
0.029972
-0.178241
-0.273456
-0.301129
-0.312763
-0.216790
-0.126087
-0.140024
0.029860
-0.000076
-0.012228
0.008097
0.034138
-0.002454
0.069874
-0.025109
-0.074419
-0.055833
0.040805
0.004468
-0.014709
0.002017
0.074556
0.023114
-0.068968
0.015825
0.040624
-0.016892
0.003023
0.104906
0.053861
0.018579
0.055984
0.093000
0.120609
0.025736
0.100385
0.115042
0.117449
0.100155
0.098640
0.242336
0.211569
0.132735
0.232894
0.202615
0.201783
0.365429
0.267501
0.342757
0.322038
0.304647
0.391347
0.365042
0.409091
0.364799
0.469592
0.404827
0.481250
0.475443
0.526447
0.464731
0.498012
0.417637
0.520440
0.500531
0.498562
0.531794
0.515900
0.440674
0.506666
0.469015
0.392404
0.408006
0.461249
0.467626
0.354413
0.361170
0.413520
0.270643
0.305824
0.222140
0.292517
0.255285
0.260908
0.163760
0.246407
0.205878
0.287864
0.128193
0.145022
0.127176
0.128433
0.138747
0.128657
0.130991
0.082727
0.075752
0.020194
0.113303
0.134951
0.048360
0.093626
0.052752
0.003127
0.086912
0.126060
0.134753
0.009591
-0.100232
0.064709
-0.020496
0.038077
0.014493
0.055656
0.001033
0.053655
0.145120
-0.005660
0.063211
0.093804
0.012350
0.070267
0.115831
0.044542
0.014292
0.063601
0.038464
0.047190
0.024862
-0.015995
0.095579
-0.017064
-0.007278
-0.018970
0.049421
0.075334
0.053848
0.018702
0.083794
0.060455
0.086222
0.010691
0.138612
0.113916
0.079492
0.108424
0.076104
0.032899
0.053628
0.103467
0.090723
0.020811
0.050247
0.082188
0.082450
0.071352
0.011437
0.047848
0.126538
0.111550
-0.009634
0.057794
0.048869
0.081474
0.111297
0.059138
0.096428
0.103637
0.102401
0.086082
0.040827
0.124623
0.122564
0.066730
0.074028
0.073977
0.099675
0.051667
0.134955
0.004348
0.110466
0.032690
0.077609
0.085853
0.080600
0.059683
0.107973
0.043647
0.118180
0.069073
0.119975
0.102501
0.142806
0.123533
0.040054
0.106346
0.105907
0.140295
0.060827
0.004260
0.091998
0.126336
0.083522
0.085780
0.105741
0.174946
0.175352
0.152391
0.189380
0.220722
0.139488
0.220968
0.206545
0.218392
0.176462
0.250721
0.223898
0.235746
0.239859
0.234501
0.272663
0.279840
0.271049
0.243336
0.198866
0.342053
0.198475
0.225151
0.203879
0.216149
0.110019
0.141234
0.125986
0.122505
0.185149
0.096616
0.148721
0.180787
0.070131
0.091868
0.121597
0.092199
0.101879
0.111444
0.064372
0.061508
0.129901
0.090245
0.123482
0.085055
0.105969
0.029549
0.125620
0.081677
0.044800
0.112478
0.117116
0.093653
0.043534
0.122250
0.086528
0.112732
0.088666
0.137675
0.004394
0.137259
0.098597
0.003705
-0.054149
0.016345
0.109400
0.116685
0.473195
0.794538
1.116301
1.322484
1.451634
1.359684
1.233442
1.012762
0.713174
0.359476
0.133346
-0.058589
-0.274240
-0.255575
-0.264492
-0.148783
-0.044361
-0.003754
0.110159
-0.003561
0.047255
0.090196
0.148257
0.056445
0.031578
0.137909
0.067814
0.100054
0.115923
0.061285
0.070400
0.097888
0.195187
0.079509
0.248116
0.101135
0.084396
0.061352
0.057204
0.041489
0.097505
0.163616
0.151818
0.208331
0.128344
0.214040
0.151067
0.158902
0.161627
0.188302
0.282805
0.193946
0.234089
0.191288
0.290603
0.274643
0.319640
0.374944
0.397496
0.392479
0.349774
0.357631
0.359961
0.459124
0.397349
0.435116
0.477947
0.459812
0.487464
0.557181
0.549062
0.533944
0.556781
0.524945
0.556821
0.580931
0.511908
0.638936
0.540527
0.514348
0.512511
0.474736
0.486779
0.427437
0.514962
0.497503
0.411901
0.400618
0.377495
0.350948
0.371219
0.372548
0.341386
0.241268
0.356514
0.289724
0.232020
0.224863
0.279231
0.175601
0.244631
0.122383
0.205468
0.233489
0.128452
0.130968
0.075438
0.077066
0.135483
0.050014
0.127218
0.111567
0.040696
0.078381
0.104260
0.073841
0.065338
0.047578
0.069713
0.068403
0.133287
0.141458
0.026815
0.054980
0.032194
0.080855
0.104813
0.088743
-0.016904
0.003901
-0.018571
-0.030342
0.041674
-0.024010
0.007967
0.022391
0.045869
0.058364
-0.040483
0.055063
0.037638
0.005455
0.027363
0.020892
0.068691
0.029867
0.012110
0.002861
0.004459
0.001635
0.013323
0.043389
0.007081
0.005320
0.043281
0.012882
-0.032672
0.014436
-0.002141
0.011593
-0.024508
0.037437
-0.068934
-0.031623
-0.013513
0.004324
0.095847
0.034664
0.000279
-0.035562
0.037218
0.024302
0.037875
-0.011253
-0.023452
0.000939
0.047768
0.091280
0.038086
0.053723
0.067329
0.006482
-0.035807
0.039402
-0.068059
0.031991
0.038332
-0.009272
-0.083997
-0.029461
-0.057155
0.053891
0.057314
-0.023004
-0.001950
-0.020101
0.006937
-0.018718
-0.008487
-0.092641
-0.060297
0.101684
-0.034586
0.013583
-0.018225
-0.098594
-0.023605
-0.028296
0.035055
0.040339
0.005375
0.071387
-0.005295
0.014757
0.012500
0.042977
-0.010042
-0.005899
0.067618
0.124557
0.126488
0.080307
0.122368
0.133693
0.078621
0.070430
0.171187
0.108978
0.154235
0.094572
0.058770
0.181305
0.170913
0.169253
0.137563
0.086225
0.119331
0.114141
0.060733
0.038335
0.116380
0.075644
0.012132
0.097251
0.145637
0.029719
-0.043597
-0.026420
-0.003726
0.001544
-0.008166
0.067017
-0.038412
-0.046322
-0.029859
0.006032
-0.032907
-0.025463
-0.093726
-0.035424
-0.056984
0.000016
-0.046715
0.009876
-0.099149
0.004409
-0.134513
-0.037469
-0.025266
-0.023155
-0.063510
0.055370
-0.068238
-0.058197
-0.045415
-0.086586
-0.149937
-0.095850
-0.103963
-0.159708
-0.148812
-0.020290
0.040225
0.284357
0.573778
0.913154
1.179129
1.375582
1.370534
1.168110
0.811662
0.499066
0.249712
0.007593
-0.201982
-0.361423
-0.354870
-0.359982
-0.314241
-0.210092
-0.111491
-0.099574
-0.078574
-0.116885
-0.090345
-0.097998
-0.076841
-0.099065
-0.083090
-0.009513
-0.077443
-0.051450
-0.044157
-0.068640
-0.049698
-0.130268
-0.056562
-0.064611
0.002083
-0.027023
-0.044226
-0.030120
0.004535
0.039649
-0.059910
0.010253
-0.034149
-0.110821
-0.011197
0.006329
-0.084265
0.026094
0.087815
0.081168
0.071967
0.125917
0.151038
0.082161
0.121183
0.147929
0.168973
0.227823
0.168314
0.271558
0.184555
0.197521
0.321736
0.291540
0.300624
0.333279
0.386430
0.402413
0.402581
0.346890
0.426637
0.444652
0.373855
0.455872
0.454118
0.366449
0.475041
0.421872
0.388941
0.433786
0.333189
0.329332
0.293423
0.285639
0.305087
0.272615
0.275987
0.333132
0.236458
0.274877
0.243835
0.194926
0.219890
0.115607
0.093373
0.127070
0.132260
0.133625
0.103237
0.073184
0.007421
0.049775
-0.003282
-0.011072
-0.005991
-0.004159
-0.017894
-0.051945
0.009335
0.012024
-0.027636
0.018500
-0.011150
-0.108972
0.002466
-0.048883
-0.104990
-0.156606
-0.123807
-0.028346
-0.060959
-0.064510
-0.114629
-0.109201
-0.037312
-0.069662
-0.172588
-0.032330
-0.077140
-0.026591
-0.103967
-0.107835
-0.119595
-0.013521
-0.058283
-0.022383
-0.045726
-0.087989
-0.106910
-0.081405
-0.047718
-0.030973
-0.044855
-0.079451
-0.056468
-0.014836
-0.081802
-0.009694
-0.145404
-0.081699
-0.019121
-0.079332
-0.124088
-0.024469
-0.052093
-0.034427
-0.083727
-0.089282
-0.056015
-0.074915
-0.147171
-0.062216
-0.118316
-0.093826
-0.094697
-0.008167
-0.069802
-0.128255
-0.099070
-0.059509
0.000592
0.001900
-0.078222
-0.034656
-0.086101
-0.090945
-0.064217
-0.054266
-0.077875
-0.053007
-0.014653
0.011275
-0.127013
-0.002227
-0.065646
0.002475
-0.075376
-0.018978
-0.113961
-0.092758
-0.029290
-0.068752
-0.072875
-0.062472
-0.038882
-0.099655
-0.075510
-0.049006
-0.014601
-0.109031
-0.075272
-0.089461
0.010554
-0.063214
-0.109378
-0.064546
0.009767
-0.097987
-0.003263
-0.061955
0.022868
0.006769
-0.022794
0.018677
0.023108
0.010614
0.013149
0.011731
0.075457
0.046169
0.096273
0.108851
0.033984
0.114257
0.075873
0.073755
0.088238
0.145751
0.189294
0.085506
0.131633
0.069731
0.091460
0.088105
0.100039
0.045263
0.162359
0.141262
0.065954
0.089676
0.038931
0.035265
0.018971
0.029075
0.108483
0.049458
0.043694
0.055882
-0.019194
0.016293
-0.036617
-0.119985
-0.007936
-0.037977
0.015563
0.087268
0.003272
-0.043543
0.026592
-0.057031
-0.030474
-0.080546
-0.014188
-0.010405
-0.047702
-0.112313
-0.039324
-0.039157
-0.065342
-0.006635
-0.005684
-0.070400
-0.008957
0.047636
-0.020275
-0.140946
-0.062073
-0.145647
-0.113079
-0.194156
-0.124521
0.053720
0.383250
0.659574
0.965388
1.150454
1.363741
1.281933
1.157648
0.904265
0.497571
0.305912
0.116766
-0.153691
-0.362469
-0.369075
-0.261330
-0.167734
-0.248474
-0.115433
-0.015745
-0.049098
0.041226
0.001702
0.012586
0.010935
0.041647
-0.079067
0.004357
0.038176
0.065136
-0.012232
0.064707
-0.013970
-0.034686
-0.001456
-0.045581
-0.049810
0.002886
0.002823
0.093652
0.060365
0.022967
-0.009636
0.081095
0.050196
0.039966
0.063211
0.051367
0.078962
0.102207
0.170241
0.134814
0.177404
0.215596
0.168255
0.195239
0.148667
0.239351
0.225291
0.250386
0.282879
0.371166
0.299552
0.393667
0.404316
0.348759
0.429981
0.472151
0.426465
0.576140
0.420943
0.469572
0.408675
0.518959
0.507467
0.487975
0.524547
0.508712
0.484020
0.518367
0.556349
0.539513
0.533791
0.514789
0.436708
0.435154
0.490056
0.437418
0.370554
0.397472
0.293985
0.250755
0.278086
0.250776
0.258186
0.274624
0.188080
0.145856
0.123734
0.193442
0.128544
0.171403
0.140346
0.093487
0.114239
0.140118
0.109735
0.087985
0.088198
0.093325
0.063021
0.075292
0.034297
0.093789
0.104691
0.017918
0.047711
0.067389
0.126364
0.061683
0.003085
0.106024
0.026990
0.040915
0.000486
0.020498
-0.082604
0.070480
0.103980
0.085165
0.029576
0.120271
0.057663
0.133728
0.054066
-0.005557
0.124810
0.037457
-0.014634
0.042986
0.084962
0.018972
0.032036
0.035307
-0.044733
0.029701
0.198836
0.071112
0.012650
0.076592
0.002357
0.058498
0.098944
0.089918
-0.015189
-0.024409
-0.002295
0.042807
0.034314
0.033584
0.026741
0.052446
0.078367
0.106798
0.009859
0.085253
0.107327
-0.085423
0.030502
0.085891
0.058962
-0.013848
0.055685
0.030653
0.064820
0.035702
-0.001718
0.140919
-0.004702
0.035829
0.045743
0.094531
0.033735
0.010494
0.064535
0.057502
0.038000
0.096161
0.028596
0.031523
0.097487
0.048168
0.067937
0.075066
0.042922
0.029502
-0.013559
0.003822
0.013777
0.028217
0.017930
0.035541
0.081888
0.073100
0.046168
0.070232
0.066807
-0.038154
0.102025
0.113672
0.048292
0.062867
0.085172
0.139651
0.048877
0.114216
0.033159
0.152693
0.134955
0.101509
0.186550
0.194159
0.121355
0.102947
0.168254
0.194696
0.278577
0.168371
0.156655
0.244190
0.227525
0.185728
0.154088
0.241804
0.166946
0.189049
0.179821
0.192948
0.161686
0.146700
0.178568
0.147740
0.145488
0.109848
0.121470
0.060133
0.070042
0.138149
0.175367
0.131523
0.119780
0.093000
0.099067
0.029250
0.065203
0.076019
0.011712
0.004448
0.033973
0.083777
0.118360
-0.006848
-0.019474
0.086842
0.004699
0.035190
-0.007503
0.057810
-0.044291
0.044254
-0.034008
0.047086
-0.028869
0.072592
0.023980
-0.034195
-0.066040
0.014177
-0.010233
-0.120343
-0.008913
-0.057712
-0.060344
0.154748
0.395944
0.560780
0.920038
1.319020
1.417972
1.364447
1.181372
0.947028
0.621488
0.324318
0.087999
-0.140356
-0.282341
-0.305710
-0.286896
-0.225052
-0.131603
-0.039514
0.039590
-0.090416
-0.047326
0.011444
-0.028846
-0.012108
-0.046928
0.128153
-0.030822
-0.110063
0.073708
-0.070804
-0.022378
0.031978
0.016843
-0.023948
-0.012173
0.056305
0.051682
0.098719
0.025051
-0.032822
0.090411
0.013457
0.043963
0.058707
-0.006063
0.007567
0.087000
0.083355
0.047338
0.025281
0.072019
0.122123
0.104915
0.129087
0.156945
0.180656
0.277636
0.201104
0.230468
0.237266
0.286944
0.228192
0.330896
0.342313
0.327195
0.392836
0.371963
0.400577
0.424020
0.447766
0.391340
0.413972
0.452093
0.445567
0.508890
0.457288
0.445878
0.399858
0.530996
0.473562
0.433610
0.450656
0.380646
0.398443
0.396322
0.371802
0.338300
0.323692
0.321193
0.311995
0.249180
0.232789
0.230955
0.173136
0.194627
0.196223
0.076811
0.164795
0.171198
0.045603
0.020028
0.164731
0.123290
-0.001111
0.109289
0.001114
0.031778
0.003043
0.084638
-0.057153
0.029140
-0.020773
-0.019457
-0.050074
-0.105459
-0.004352
-0.017703
-0.033956
-0.072498
-0.004118
-0.018064
-0.019177
0.062115
-0.052594
-0.059728
-0.138867
-0.101783
0.008085
-0.023886
-0.058010
-0.093827
0.012144
-0.071475
-0.071593
-0.054367
-0.081204
-0.130006
-0.051080
-0.098931
-0.027258
-0.048586
0.059099
-0.065409
-0.024849
-0.019030
-0.051798
-0.060237
-0.004655
-0.019636
-0.073259
-0.123328
-0.072307
-0.086963
-0.056055
-0.134886
-0.025704
-0.064941
-0.164239
-0.085714
-0.064163
-0.090313
-0.016722
-0.040551
-0.094116
-0.107902
-0.072947
-0.073790
0.001730
-0.018425
-0.111132
-0.071199
-0.117105
-0.010196
-0.062653
-0.120520
-0.038076
-0.097203
-0.058017
-0.114131
-0.095906
-0.099834
-0.128650
-0.051500
-0.153914
-0.026497
-0.132628
-0.092220
-0.064524
-0.142413
-0.045531
-0.126430
0.024226
-0.102657
-0.067912
-0.085245
-0.092754
-0.152162
-0.086086
-0.119337
-0.143478
-0.031270
-0.047075
-0.100441
-0.100609
-0.039947
-0.084788
-0.012669
-0.085082
-0.034043
-0.042636
-0.041342
-0.023530
-0.003939
-0.033053
-0.034475
-0.070929
-0.095126
0.001222
0.005586
0.062348
0.024323
-0.027418
0.028228
0.026713
0.049028
-0.004834
0.112759
0.122125
0.153523
0.078262
0.090392
0.079068
0.040575
0.091228
0.085377
0.092241
-0.002158
-0.026623
0.051365
0.050177
0.019921
-0.068551
0.038985
0.049824
-0.029645
-0.077819
-0.059777
-0.020534
-0.007501
-0.049359
-0.083589
-0.086605
-0.092709
-0.087021
-0.009792
-0.082974
-0.087903
-0.020974
-0.084332
-0.054747
-0.056848
-0.124766
-0.142740
-0.116050
-0.035366
-0.106395
-0.108776
-0.131704
-0.155367
-0.074569
-0.040533
-0.113112
-0.097648
-0.058137
-0.111520
-0.077147
-0.104233
-0.098701
-0.154212
-0.163184
-0.164995
-0.193418
-0.062132
0.236738
0.538489
0.852033
1.193291
1.285007
1.201371
1.058870
0.856269
0.496732
0.332998
-0.071483
-0.238833
-0.358985
-0.422392
-0.426435
-0.284639
-0.145798
-0.167554
-0.159317
-0.059277
-0.075865
-0.178108
-0.118545
-0.114844
-0.072576
-0.206072
-0.045240
-0.075641
-0.049244
-0.070034
-0.060904
-0.072085
-0.096523
-0.076157
-0.040625
-0.045351
-0.081425
-0.048134
-0.041027
0.032248
-0.098157
-0.066396
-0.024951
-0.054985
-0.063024
-0.029922
-0.101741
-0.033396
-0.012892
0.035447
0.091474
0.070991
0.055355
0.061918
0.231370
0.116412
0.095967
0.066939
0.151539
0.174468
0.248728
0.279368
0.325061
0.253156
0.286985
0.274447
0.351181
0.292652
0.362251
0.377297
0.299451
0.401231
0.371361
0.403579
0.419619
0.439184
0.430460
0.416357
0.401090
0.350099
0.395364
0.429606
0.385056
0.337796
0.389677
0.361481
0.335795
0.283434
0.187995
0.233597
0.188748
0.217930
0.216700
0.154024
0.085218
0.167728
0.151093
0.093223
-0.031780
0.032171
0.094373
-0.019221
0.008698
0.000022
0.018424
0.049756
-0.006039
-0.054493
-0.025592
-0.039140
0.014709
0.029677
-0.018798
-0.029939
-0.030364
-0.026235
-0.035008
-0.008596
0.005555
-0.047951
-0.013674
-0.066368
-0.009549
-0.085877
-0.083829
-0.016404
-0.050906
-0.102416
-0.048521
0.004679
-0.013206
-0.077959
-0.042299
-0.085967
-0.023631
-0.106649
-0.017249
-0.088332
-0.092603
0.021340
-0.050826
-0.005645
-0.015685
-0.058914
-0.051141
0.058815
-0.004892
-0.093896
0.004645
-0.105541
-0.066195
-0.017194
-0.049770
-0.013423
-0.005094
-0.024848
0.000621
-0.078295
0.025315
-0.142110
0.004647
-0.099250
-0.010035
-0.068615
-0.021635
-0.018082
-0.094580
-0.125419
0.000211
-0.012493
0.075994
-0.003515
-0.054236
-0.067052
-0.024877
-0.057617
-0.058599
-0.020381
0.009057
0.023581
-0.032565
-0.028207
-0.027023
0.054892
-0.044782
0.002487
-0.066328
-0.046622
-0.056370
-0.041440
-0.027001
0.013269
-0.043487
-0.092443
-0.116126
-0.009796
0.001840
0.015092
-0.039071
-0.058707
-0.001232
-0.014571
0.079950
-0.041950
0.028624
-0.049774
-0.025891
-0.018172
0.036248
-0.055562
-0.001756
-0.072773
0.007567
0.005230
-0.002047
0.013560
0.099133
0.026364
0.055373
0.086724
0.086914
0.097118
0.142263
0.114527
0.165959
0.103126
0.166302
0.132736
0.178295
0.207795
0.172406
0.219907
0.245323
0.165598
0.157501
0.169953
0.164168
0.135591
0.247954
0.154022
0.145433
0.154160
0.124915
0.120129
0.123310
0.067887
0.043487
0.045106
0.017371
0.111067
0.002621
0.052295
0.054798
0.024547
0.090242
-0.036223
0.016719
0.039341
0.018302
-0.038030
-0.007352
-0.024831
0.000627
-0.029390
0.026723
-0.028809
0.141351
0.060105
0.178856
-0.004064
0.043337
0.047252
0.002891
0.008421
0.039738
0.053448
0.074780
0.067947
-0.004951
-0.039804
-0.058920
0.031179
0.050561
0.282116
0.675422
0.941509
1.225454
1.393691
1.376726
1.313275
0.976429
0.644844
0.412807
0.154908
-0.149654
-0.246249
-0.326642
-0.216712
-0.142139
-0.104191
-0.022357
0.021003
0.087012
0.043476
0.030230
0.047938
0.107625
0.062081
0.047715
0.094834
0.047073
0.050721
0.025264
0.161602
0.047359
0.071124
0.067533
0.101681
0.051161
0.182805
0.063630
0.062449
0.147984
0.111948
0.087282
0.173944
0.076646
0.090892
0.069698
0.238931
0.122673
0.173918
0.195312
0.219544
0.213915
0.196529
0.247321
0.241489
0.282683
0.279621
0.280713
0.333627
0.369152
0.329169
0.408880
0.499854
0.469834
0.399623
0.385182
0.520036
0.499727
0.477294
0.528879
0.504960
0.493145
0.502823
0.531623
0.590452
0.622998
0.564488
0.528582
0.551851
0.542676
0.533524
0.552427
0.496829
0.495021
0.503742
0.414424
0.450606
0.476700
0.354733
0.280327
0.422529
0.279145
0.313732
0.305022
0.220312
0.275299
0.238635
0.216690
0.177563
0.194316
0.229497
0.173170
0.198808
0.194969
0.101597
0.061843
0.074341
0.087187
0.074826
0.108028
0.094774
0.138270
0.072574
0.092464
0.037817
0.108282
0.049076
0.050545
0.012232
0.109601
0.042633
0.033983
0.101329
0.052742
0.048984
0.083048
0.100638
