0.002221
-0.018134
-0.009160
-0.050134
0.064520
0.085839
-0.040622
-0.025593
-0.008334
0.005185
-0.007015
0.071135
-0.050267
0.031650
0.047775
-0.017952
-0.053741
0.012058
0.051010
0.037071
0.124103
0.092635
0.074347
0.058727
0.124971
0.057976
0.048693
0.265166
0.135460
0.095529
0.166392
0.231016
0.138982
0.235585
0.110959
0.220610
0.349066
0.169386
0.202651
0.191605
0.204707
0.168540
0.124361
0.139046
0.176913
0.221099
0.201893
0.171497
0.151006
0.066139
0.138832
0.217182
0.133885
0.130045
0.064803
0.111855
0.029454
0.105369
0.012739
0.043641
-0.035001
-0.057640
0.051678
0.106326
0.060192
0.069142
-0.006657
-0.030679
0.113388
0.199437
0.410254
0.727284
0.995546
1.266128
1.352633
1.419516
1.141150
0.790220
0.349583
0.035091
-0.072773
-0.096582
-0.088915
-0.157908
-0.011928
0.035770
0.072634
0.142157
0.103312
0.164022
0.147497
0.153606
0.176147
0.097075
0.172495
0.266172
0.223087
0.209472
0.247377
0.187684
0.255220
0.290657
0.272629
0.329152
0.323069
0.402564
0.395721
0.342622
0.353634
0.478629
0.448257
0.554237
0.568304
0.428835
0.547850
0.537230
0.531805
0.601990
0.518608
0.590449
0.646398
0.628811
0.572543
0.630835
0.567060
0.478663
0.543315
0.573371
0.512360
0.474776
0.508705
0.421173
0.492164
0.503241
0.416147
0.401253
0.340745
0.390606
0.326803
0.365504
0.198251
0.190935
0.227423
0.233274
0.257305
0.214651
0.233367
0.156227
0.114148
0.171960
0.057011
0.262644
0.056142
0.140643
0.127839
0.119888
0.105239
0.158452
0.107622
0.135194
0.116074
0.118718
0.100256
0.186580
0.101128
0.094902
0.108975
0.094280
0.069586
0.087743
0.061879
0.110692
0.100010
0.113315
0.073348
0.117957
0.106413
0.048988
0.111283
0.122483
0.081559
0.084360
0.041838
0.144310
0.112802
0.020502
0.100892
0.108960
0.132771
0.095394
0.103085
0.085899
0.106389
0.036820
0.114098
0.073567
0.044693
0.106994
0.099046
0.092168
0.075839
0.178472
0.132142
0.029774
0.113146
0.033703
0.223206
0.137868
0.145572
0.172161
0.109503
0.150090
0.146011
0.180666
0.246371
0.183928
0.272349
0.198594
0.226434
0.218768
0.295431
0.211244
0.302677
0.219055
0.255882
0.273704
0.243885
0.274424
0.286477
0.231621
0.236001
0.171596
0.156491
0.170923
0.143113
0.132479
0.182787
0.107578
0.116481
0.105633
0.138638
0.081309
0.231531
0.078413
0.155756
0.006813
0.030571
0.083286
0.099811
0.110297
0.086089
0.001483
0.047052
0.145924
0.283758
0.429498
0.699848
1.029517
1.315333
1.432487
1.351105
1.212073
0.874896
0.468932
0.185435
-0.022187
-0.146123
-0.165151
-0.102534
0.040735
-0.017350
0.084120
0.097083
0.078106
0.179903
0.155649
0.087471
0.182208
0.155221
0.217845
0.236294
0.227201
0.174515
0.298813
0.332800
0.211601
0.247289
0.274592
0.345032
0.363296
0.395224
0.401833
0.418361
0.384337
0.387428
0.477800
0.496490
0.526339
0.540690
0.546499
0.622076
0.622341
0.640017
0.487288
0.493309
0.590986
0.593458
0.678732
0.589901
0.504285
0.544112
0.591850
0.532253
0.551066
0.530971
0.463685
0.553413
0.406096
0.477539
0.423445
0.447971
0.240216
0.278123
0.368170
0.232093
0.346467
0.288994
0.204986
0.190298
0.275970
0.205675
0.104053
0.280606
0.113040
0.078896
0.114333
0.088848
0.009311
0.058539
0.111624
0.126758
-0.022226
0.156446
0.152399
-0.051404
0.021489
0.037345
0.045045
0.047788
0.080018
0.001504
0.045112
0.052359
0.012276
0.081948
0.048984
0.036147
0.066040
0.091011
0.097084
0.014721
0.101609
0.125747
0.096406
0.115890
0.063966
0.117670
0.073708
0.007749
-0.010470
-0.012611
0.098478
-0.012478
0.091815
-0.009773
-0.053496
0.051861
0.030776
0.025822
0.004498
0.036143
0.012234
0.052261
0.056355
0.008160
0.008462
0.049222
0.089606
0.097018
0.107191
0.056507
0.024356
0.061023
-0.001413
0.157319
0.090760
0.122784
0.130481
0.196341
0.164248
0.116840
0.187319
0.149244
0.113950
0.210551
0.201847
0.148439
0.278960
0.208836
0.190821
0.103624
0.201428
0.223815
0.160775
0.213661
0.173027
0.116825
0.116912
0.116794
0.087757
0.160065
0.086982
0.097327
0.019209
0.076921
0.028415
0.026516
-0.005025
0.027765
0.049371
-0.008208
0.046733
0.116220
0.091422
-0.028844
-0.031062
0.088045
-0.041855
-0.018669
0.156385
0.228005
0.596100
0.886790
1.194762
1.332202
1.399963
1.137205
0.840828
0.469296
0.161604
-0.162167
-0.228083
-0.197455
-0.044362
-0.120999
-0.002553
-0.013886
0.026507
0.017599
0.085879
0.045686
-0.002950
0.097430
0.083228
0.048291
0.079043
0.062552
0.090822
0.078836
0.108413
0.161062
0.212096
0.177138
0.236872
0.299475
0.284359
0.377275
0.404817
0.266924
0.326906
0.372446
0.401823
0.276264
0.420519
0.497269
0.443583
0.578206
0.522400
0.517177
0.502818
0.522406
0.439419
0.529939
0.489598
0.512918
0.449184
0.485169
0.426760
0.421496
0.332603
0.363962
0.318916
0.319351
0.283874
0.281168
0.382458
0.333666
0.238479
0.186795
0.285946
0.198179
0.204658
0.109790
0.081347
0.072898
0.090556
0.119949
0.082536
0.084671
0.031827
0.072804
0.126941
0.061931
0.009867
-0.039401
-0.003176
0.043284
0.015730
-0.027616
0.004708
0.017190
-0.125855
-0.000452
0.003189
0.013423
-0.030989
-0.064710
-0.068163
-0.030800
-0.056290
-0.032169
-0.078895
-0.044195
0.003334
-0.091707
-0.055184
-0.019495
-0.109554
-0.046730
0.025866
-0.003407
-0.075802
-0.030187
-0.029592
-0.034580
-0.032515
0.011091
-0.102248
-0.110158
-0.058710
-0.083890
-0.020787
0.031597
-0.084395
-0.037177
0.027271
-0.017619
-0.044202
-0.069020
-0.032431
0.047997
-0.029338
-0.031624
0.031495
-0.002565
0.009448
0.031537
0.012017
0.028397
0.040226
0.090932
0.066073
0.055951
0.013589
0.088105
0.089916
0.162845
0.079683
0.116517
0.128042
0.147985
0.104845
0.164687
0.130280
0.179199
0.154337
0.043676
0.059190
0.071601
0.097720
0.051677
0.114976
0.012726
0.002556
0.057162
0.019309
0.041044
-0.010620
-0.017456
-0.033158
0.003626
-0.009010
-0.016438
-0.060267
-0.004958
-0.055717
-0.071689
0.078543
-0.062405
-0.089440
-0.049491
-0.097097
0.013695
-0.046218
-0.050536
0.175188
0.481712
0.728445
1.025328
1.282820
1.315453
1.224893
0.866222
0.473342
0.194761
-0.108265
-0.171563
-0.142502
-0.148804
-0.057843
-0.005190
0.039844
0.007835
-0.024737
0.007873
-0.008516
0.080434
0.018100
-0.029716
0.159613
0.128757
0.038487
0.200555
0.055155
0.072167
0.174135
0.217865
0.245088
0.191057
0.183868
0.210856
0.291761
0.254744
0.354929
0.377590
0.418584
0.387875
0.456320
0.424014
0.474342
0.463153
0.494403
0.486306
0.492017
0.508482
0.574260
0.431676
0.512830
0.500906
0.463731
0.520460
0.465349
0.451862
0.509073
0.460987
0.374978
0.423940
0.326263
0.410458
0.352850
0.412694
0.397219
0.245795
0.381272
0.274804
0.212678
0.213016
0.314292
0.179149
0.241853
0.123855
0.187614
0.162644
0.142888
0.133072
0.078166
0.051117
0.195093
0.126043
-0.014845
0.009890
0.041045
-0.009250
0.023058
-0.024071
-0.005442
0.020404
0.003159
-0.012505
0.091004
-0.064079
-0.009389
-0.008604
-0.002745
-0.126554
0.016880
-0.007617
0.054034
0.003881
0.049415
0.061970
0.013307
0.032166
-0.029673
0.062233
0.022705
-0.065451
-0.005930
0.114889
0.041036
-0.008710
0.058099
0.025068
-0.002821
0.044191
-0.011038
0.023739
0.107703
-0.019578
0.025933
0.034631
0.053251
-0.004628
0.009335
0.058667
0.016156
0.121323
0.019947
0.029687
0.074016
0.065206
0.082082
0.120160
0.058488
0.155803
0.125349
0.072787
0.039213
0.167514
0.070806
0.194870
0.140012
0.165073
0.180842
0.169537
0.226864
0.247469
0.244515
0.234791
0.249248
0.200182
0.210097
0.179417
0.150601
0.212996
0.160149
0.154873
0.111586
0.123029
0.134555
0.106555
0.122859
0.094420
0.116164
0.133060
0.023932
0.002672
0.164911
0.069327
0.081629
0.139425
0.115625
0.038046
0.028597
0.060976
0.036304
0.082949
-0.016351
0.074941
0.158873
0.283606
0.505389
0.767644
1.080531
1.430209
1.500000
1.298146
0.986633
0.661528
0.289139
0.017087
-0.119279
-0.080923
-0.060739
-0.019796
0.049837
0.033380
0.194578
0.092183
0.101449
0.143745
0.174716
0.162452
0.149106
0.149104
0.148882
0.164284
0.301398
0.206351
0.265623
0.260090
0.195758
0.212759
0.326921
0.393857
0.437556
0.332719
0.433575
0.407343
0.360841
0.514008
0.556637
0.602061
0.589025
0.508184
0.562642
0.616739
0.662289
0.575395
0.599570
0.614021
0.646719
0.572668
0.636902
0.576476
0.563949
0.536058
0.496235
0.559849
0.574195
0.535205
0.498485
0.494708
0.499577
0.456959
0.429764
0.453988
0.384428
0.354399
0.325576
0.324465
0.376051
0.355434
0.254113
0.246112
0.196534
0.175333
0.145002
0.141574
0.183168
0.121023
0.182518
0.092537
0.114636
0.132094
0.187817
0.111756
0.137732
0.131456
0.105985
0.082664
0.055789
0.119304
0.184635
0.087767
0.115430
0.079734
0.124082
0.137395
0.111170
0.165044
0.145014
0.068157
0.151430
0.178764
0.079098
0.077247
0.111211
0.211315
0.093133
0.211622
0.108228
0.105955
0.122042
0.116209
0.125009
0.059699
0.120260
0.172305
-0.022234
0.079594
0.053313
0.128451
0.012932
0.114844
0.129567
0.183497
0.122185
0.123796
0.025595
0.088352
0.060742
0.063014
0.133857
0.083531
0.140362
0.148309
0.179582
0.153141
0.256714
0.222813
0.184946
0.180138
0.222948
0.182700
0.145779
0.246883
0.207148
0.206793
0.275521
0.259830
0.238465
0.217760
0.319893
0.245188
0.269777
0.288839
0.259572
0.200348
0.292567
0.215104
0.259295
0.227380
0.207750
0.215244
0.122157
0.174912
0.180157
0.112319
0.178193
0.178667
0.216015
0.220905
0.173590
0.112966
0.090046
0.186298
0.131181
0.047618
0.125527
0.151695
0.103176
0.165947
0.085003
0.071364
0.259142
0.571072
0.855573
1.156089
1.320909
1.483050
1.324935
1.163449
0.785309
0.411099
0.138612
-0.095085
-0.102409
-0.060460
0.013413
0.018718
0.107294
0.043578
0.053313
0.121527
0.169653
0.172540
0.164540
0.211705
0.124372
0.165738
0.267118
0.217492
0.238505
0.267989
0.314454
0.257194
0.295776
0.371243
0.355760
0.344517
0.444265
0.402351
0.383788
0.441192
0.434359
0.412192
0.534036
0.552627
0.455427
0.497819
0.503797
0.591883
0.572009
0.626469
0.571822
0.668835
0.565606
0.550528
0.589601
0.619818
0.549567
0.544316
0.487610
0.509357
0.504902
0.474000
0.422568
0.441341
0.446131
0.407161
0.389326
0.233203
0.341856
0.333592
0.342550
0.352775
0.288796
0.299251
0.213074
0.191114
0.190922
0.212231
0.176972
0.223619
0.245171
0.111019
0.148299
0.176013
0.063212
0.075820
0.109564
0.037139
0.072182
0.109028
0.000227
0.033579
0.041753
0.075974
0.070021
0.059037
0.017445
0.042974
0.103945
0.069717
0.117919
0.108537
0.054655
-0.021374
0.067384
0.007693
0.028736
0.114651
0.050047
-0.015858
0.010726
0.009653
0.094188
0.084808
0.044367
0.069134
0.035050
0.032017
0.038510
-0.069286
0.059341
0.037790
0.103952
0.010739
-0.048981
-0.028023
0.059725
0.097647
-0.061141
0.091199
-0.027028
-0.100023
0.035114
0.042198
0.014810
0.012182
0.060934
0.116623
0.123773
0.017335
0.099204
0.050447
0.163161
0.119889
0.057593
0.163174
0.051826
0.190735
0.163621
0.176006
0.134362
0.137814
0.150820
0.197892
0.164963
0.138563
0.144465
0.061639
0.214721
0.110983
0.171137
0.116043
0.058311
0.089982
0.150890
0.091957
0.107570
0.074937
-0.007117
0.042774
0.061110
0.020678
-0.025590
0.097833
-0.015213
-0.110825
-0.033456
-0.000607
0.049816
-0.061507
0.017667
-0.014643
0.020883
0.020142
0.055742
0.117147
0.240436
0.613152
0.922154
1.153746
1.343708
1.328996
1.112930
0.755717
0.351159
0.024766
-0.161033
-0.218508
-0.192330
-0.123223
-0.141524
0.006385
-0.073071
0.013081
0.090441
-0.008573
0.034317
0.049270
0.013675
0.081186
0.043324
0.058213
0.159705
0.111358
0.125515
0.162773
0.213396
0.226443
0.163766
0.271739
0.266734
0.300014
0.289132
0.268599
0.357366
0.377085
0.374091
0.426096
0.375573
0.350148
0.416947
0.375159
0.408000
0.393581
0.416748
0.513133
0.421259
0.467264
0.516638
0.472160
0.474643
0.400899
0.501188
0.411949
0.346638
0.388142
0.437683
0.347786
0.402234
0.385545
0.302629
0.262822
0.206593
0.217402
0.233243
0.236409
0.137711
0.164052
0.119702
0.192783
0.118406
0.064697
0.041328
0.048792
0.059128
0.002946
0.034549
-0.067594
-0.037488
0.018827
-0.040314
-0.008584
-0.054203
-0.045710
-0.021674
-0.007592
-0.123483
0.009682
-0.022438
-0.091533
-0.111896
-0.082361
-0.032445
-0.001390
-0.046463
0.000063
-0.153892
-0.080590
-0.064099
-0.040501
-0.083178
-0.093649
-0.035369
-0.060396
-0.018061
-0.071689
-0.060598
-0.097442
-0.097764
-0.048692
-0.101038
-0.069016
-0.116893
-0.052025
-0.141772
-0.064418
-0.072098
-0.065309
-0.018172
-0.062677
-0.099925
-0.008372
-0.146460
-0.034270
-0.017489
-0.045121
-0.067165
0.017436
-0.063979
0.026111
-0.056549
-0.074728
-0.104907
-0.001323
-0.053368
-0.029035
0.005537
0.022993
0.062818
0.075120
-0.043729
0.059060
0.038656
0.055731
0.085803
0.135695
0.091891
0.105107
0.109588
0.136831
0.190327
0.121828
0.099270
0.051805
0.097160
0.099545
0.106492
0.036304
0.052490
0.078908
0.046678
-0.081396
-0.076979
0.015702
-0.055398
-0.048564
0.016212
0.038887
-0.018680
-0.118555
-0.121730
-0.112098
-0.037689
-0.079514
-0.098288
-0.113369
-0.086211
-0.096173
-0.147203
-0.073199
0.006954
0.254094
0.497235
0.864485
1.097379
1.420257
1.267750
1.055981
0.718718
0.324964
0.036217
-0.232981
-0.296317
-0.253087
-0.197637
-0.208861
-0.043086
-0.069079
-0.010070
-0.034072
-0.068770
-0.019908
0.044062
-0.002516
0.081826
0.083499
0.028596
0.095601
0.031131
0.025623
0.147868
0.094211
0.180641
0.162797
0.178149
0.213905
0.238155
0.192782
0.339085
0.241399
0.281157
0.356731
0.384107
0.408639
0.439743
0.323451
0.401180
0.471850
0.441686
0.521480
0.451809
0.478717
0.554162
0.475408
0.418236
0.400064
0.498512
0.453371
0.346535
0.392982
0.375427
0.336979
0.357795
0.331932
0.306347
0.450234
0.308119
0.225609
0.301010
0.276791
0.167353
0.169844
0.281207
0.104855
0.062434
0.112400
0.136188
-0.005416
0.015242
0.027768
0.090661
0.089580
-0.084785
-0.037251
-0.085790
0.024945
-0.000674
-0.033320
-0.028822
-0.157108
0.018742
-0.075736
-0.085755
-0.031670
-0.038421
-0.046388
-0.002062
-0.036291
-0.031589
0.099735
-0.100705
-0.087201
-0.079535
0.044536
-0.046062
-0.068197
-0.096623
-0.035787
-0.142578
-0.065915
-0.013361
-0.091728
-0.067899
-0.003899
-0.071019
-0.000040
-0.105285
-0.034324
-0.005982
0.006664
-0.033990
-0.010835
0.027625
-0.015289
-0.051788
-0.039160
-0.073189
-0.033128
-0.040552
-0.017543
-0.085692
-0.047416
0.022882
-0.046594
0.102931
-0.021938
-0.001819
0.030413
-0.034398
-0.015882
-0.045053
0.066395
0.112645
0.062373
0.098767
0.039376
0.122992
0.118321
0.120228
0.218610
0.151498
0.159302
0.129060
0.078789
0.116921
0.174257
0.170247
0.191587
0.173202
0.167359
0.064226
0.148669
0.093279
0.112886
0.174770
0.050649
0.149502
0.114365
0.018500
0.086760
0.054553
0.040260
0.107414
0.006951
0.018161
-0.011520
0.105467
-0.044037
-0.000238
-0.048369
0.010966
0.055337
-0.068843
0.028211
0.011277
0.092821
0.336059
0.580748
0.866629
1.169688
1.433298
1.388449
1.233822
0.855086
0.591210
0.204300
-0.027272
-0.119091
-0.170152
-0.120015
-0.048603
0.014535
-0.034578
0.113659
0.014424
0.024773
0.003494
0.133517
0.114597
0.137467
0.190068
0.100974
0.225506
0.094382
0.193265
0.215319
0.174116
0.180166
0.161521
0.282341
0.292380
0.315810
0.335697
0.385037
0.407527
0.391129
0.442499
0.468954
0.540851
0.428715
0.421854
0.514310
0.599512
0.447440
0.566848
0.571453
0.525007
0.550068
0.576166
0.620254
0.486910
0.534061
0.458775
0.492335
0.476508
0.529194
0.431100
0.469447
0.466066
0.342639
0.349033
0.348105
0.442086
0.294441
0.234330
0.258055
0.279318
0.201763
0.229241
0.127079
0.188843
0.208289
0.176833
0.142625
0.244924
0.170575
0.166667
0.129248
0.035152
0.044911
-0.010649
0.030927
0.010411
0.085331
0.089810
0.152312
0.064015
0.065747
0.055279
0.088959
0.030679
0.049429
0.090086
-0.046771
0.106826
0.171028
0.023813
-0.009030
0.118812
0.001995
0.023177
-0.053481
-0.005947
0.053072
0.067926
0.074708
0.073555
0.063312
0.146070
-0.032017
0.030432
0.030412
0.030779
0.026607
-0.002465
0.089498
0.089456
0.066374
-0.022078
0.048640
0.103593
0.014538
0.041763
0.058661
0.089450
0.076436
0.050354
-0.013005
0.040888
0.060824
0.163172
0.044292
0.155079
0.082231
0.181925
0.105662
0.168993
0.123476
0.165588
0.175980
0.164184
0.169998
0.205204
0.230018
0.173936
0.262109
0.156975
0.193270
0.235748
0.171348
0.267404
0.278861
0.272725
0.257109
0.253768
0.280142
0.210677
0.262192
0.115236
0.159109
0.143645
0.191642
0.091710
0.170893
0.091245
0.141710
0.200570
-0.051473
0.136305
-0.016375
0.076950
0.032119
0.089556
0.078490
0.060950
0.131259
0.025636
0.012426
0.001441
0.020015
0.126773
0.282567
0.430706
0.760034
1.060697
1.371410
1.426317
1.341011
1.008043
0.731292
0.310341
0.064639
-0.104326
-0.129719
-0.072374
-0.104920
-0.039607
0.104518
0.056740
0.078516
0.126726
0.113440
0.141905
0.131083
0.093866
0.161154
0.159062
0.091006
0.152776
0.261963
0.270165
0.229286
0.277673
0.326463
0.250928
0.316662
0.294139
0.339146
0.394563
0.372896
0.360351
0.374408
0.434649
0.539487
0.480413
0.463742
0.570453
0.521581
0.451917
0.535855
0.567112
0.549559
0.629562
0.603761
0.621477
0.495894
0.474395
0.531707
0.503254
0.539997
0.446036
0.455145
0.430671
0.387592
0.435622
0.422302
0.390978
0.321408
0.316037
0.253146
0.236525
0.292847
0.202125
0.200957
0.231856
0.105433
0.175737
0.195090
0.098194
0.055908
0.086186
0.091680
0.023903
0.091798
0.153343
0.133770
-0.015118
0.102327
0.010837
0.106647
0.007324
-0.015342
0.038898
0.039229
0.066349
-0.016871
0.044543
0.008767
0.063555
0.073283
-0.021245
-0.005717
0.066667
0.100098
-0.040637
-0.020627
-0.074820
0.051724
-0.032315
0.054077
0.044380
-0.063432
0.050764
0.037900
-0.086853
-0.005004
0.039857
-0.040805
0.036521
-0.013689
0.054829
-0.015637
-0.015875
-0.072145
-0.013144
0.032709
-0.036963
0.042216
0.077674
-0.025728
-0.029555
-0.015400
0.008487
-0.032905
0.116624
0.084168
-0.014303
-0.064583
0.033522
0.006779
0.031143
0.024480
0.131393
0.103013
0.131344
0.131513
0.142200
0.140087
0.112236
0.108355
0.114750
0.186281
0.119688
0.197378
0.166991
0.204196
0.190018
0.171165
0.070374
0.189605
0.190003
0.123048
0.136963
0.144367
0.018867
0.156809
0.039645
0.048839
-0.063571
-0.033031
-0.037748
-0.019559
-0.044877
0.011427
0.033076
-0.094593
-0.106617
-0.060882
-0.158570
-0.069479
-0.055148
-0.069460
0.002472
-0.019708
-0.002434
-0.024295
0.132871
0.394069
0.635049
0.992425
1.308013
1.428746
1.189973
0.914580
0.560035
0.262252
-0.086078
-0.136600
-0.287196
-0.249064
-0.201567
-0.070562
-0.107450
-0.015289
0.028160
-0.004453
0.024483
-0.009344
0.004808
-0.042542
0.097639
0.090175
0.082448
0.079252
0.149090
0.150652
0.150086
0.122214
0.147678
0.139389
0.146554
0.272561
0.208210
0.217366
0.308637
0.313730
0.302610
0.352357
0.430825
0.321644
0.407587
0.411372
0.510040
0.467350
0.447786
0.439119
0.481634
0.361209
0.433132
0.416807
0.500577
0.446692
0.402734
0.406532
0.377760
0.429183
0.267272
0.331497
0.370609
0.302866
0.213400
0.248138
0.246291
0.274387
0.246677
0.175973
0.137157
0.175295
0.035343
0.184404
0.110508
0.061411
0.062029
-0.052855
-0.059775
-0.010704
0.014100
0.016751
0.060907
-0.032443
-0.054900
-0.059833
-0.109926
-0.117014
-0.091319
-0.119019
-0.096330
-0.069966
-0.148170
0.008329
-0.129474
-0.139135
-0.101804
-0.089270
-0.091663
-0.060419
-0.033510
-0.119096
-0.036631
-0.226231
-0.122457
-0.142040
-0.011818
-0.108824
-0.148803
-0.016831
-0.123395
-0.092456
-0.125762
-0.206154
-0.077644
-0.081721
-0.178084
-0.095186
-0.039854
-0.137556
-0.077775
-0.077740
-0.046400
0.061839
-0.163364
-0.131923
-0.111661
-0.121723
-0.113245
-0.116221
-0.102065
-0.059018
-0.069579
-0.084404
0.009849
0.008024
-0.072979
-0.078585
0.046192
-0.051161
-0.112497
-0.035008
-0.041811
0.067583
-0.001028
0.046324
0.048449
-0.003198
0.048892
-0.004219
0.135756
0.114107
0.066566
0.057913
0.105654
0.114762
0.175763
0.080877
0.186901
0.072945
0.046418
-0.027636
0.006022
0.055277
-0.050691
-0.029735
-0.093942
-0.001453
-0.032092
-0.054623
-0.097237
-0.117691
-0.013995
-0.088675
-0.060492
0.006617
-0.109987
-0.071811
-0.156638
-0.059657
-0.023664
-0.055820
-0.036811
-0.085178
-0.068430
0.019076
0.216639
0.512410
0.891219
1.220787
1.423755
1.175864
1.002450
0.658204
0.218823
0.004343
-0.231241
-0.270629
-0.256587
-0.192676
-0.151783
-0.122527
-0.143781
-0.042100
-0.015992
-0.058302
0.016717
-0.074664
-0.017950
-0.047611
-0.006112
0.078257
-0.005968
0.117676
0.051095
0.091600
0.130373
0.137499
0.288546
0.108495
0.147053
0.150779
0.279065
0.236152
0.279053
0.320801
0.381650
0.351809
0.358647
0.355224
0.352536
0.348640
0.408660
0.325931
0.452055
0.338331
0.434626
0.411704
0.501312
0.386308
0.446035
0.368074
0.290305
0.414562
0.379380
0.373077
0.410860
0.331372
0.315378
0.369929
0.209273
0.302077
0.343913
0.179848
0.267679
0.231027
0.207498
0.135753
0.128666
0.106037
0.033871
0.056200
0.085395
-0.010513
0.051779
0.044899
0.020676
0.044382
-0.028494
0.011059
-0.123097
-0.065364
0.014498
-0.061158
-0.053693
-0.064064
-0.057713
-0.024471
-0.015882
0.024555
-0.095972
-0.027044
-0.077808
-0.181070
-0.068198
-0.036396
0.040832
-0.091806
-0.085650
-0.042515
-0.048837
-0.018907
-0.038994
0.005099
-0.116072
-0.064337
-0.040241
-0.014138
-0.091252
-0.133939
-0.054812
-0.028173
-0.098205
-0.069835
-0.065361
-0.113439
-0.057942
-0.072424
-0.006267
-0.020215
0.005019
-0.097418
-0.094981
-0.093144
-0.021854
-0.032933
-0.067565
-0.054196
0.005822
-0.022495
0.001648
-0.008577
0.069431
0.000658
0.078900
0.068724
0.099433
0.054246
0.111485
0.088964
0.108839
0.154802
0.080008
0.125299
0.161896
0.132258
0.143229
0.158710
0.189318
0.117960
0.142971
0.158588
0.161138
0.111934
0.135147
0.065429
0.078581
0.103787
0.170014
0.063214
0.123236
0.041917
0.004595
0.062241
0.004319
0.122409
0.015038
-0.040209
-0.069761
0.002613
-0.003598
-0.006054
0.072150
-0.001550
-0.038232
0.041453
-0.006300
-0.001629
-0.097798
0.005556
0.109069
0.393004
0.582023
0.967550
1.138995
1.365109
1.353051
1.177365
0.827167
0.419960
0.033959
-0.141537
-0.225462
-0.197749
-0.067573
-0.045954
0.051796
0.034900
0.066595
0.098004
0.089848
0.088408
0.140358
0.100389
0.117380
0.130397
0.146808
0.143728
0.195682
0.199138
0.268894
0.197771
0.230457
0.288510
0.272120
0.226996
0.243098
0.358322
0.349053
0.449238
0.416860
0.410810
0.473646
0.436343
0.542498
0.475522
0.551672
0.528945
0.541697
0.565619
0.530580
0.592749
0.585161
0.576664
0.507440
0.537620
0.547698
0.546098
0.501823
0.441291
0.517378
0.553396
0.496758
0.454903
0.434447
0.364205
0.436937
0.412048
0.374674
0.284454
0.278359
0.294071
0.184783
0.267300
0.237974
0.271763
0.218664
0.153095
0.076551
0.191422
0.066015
0.139913
0.122503
0.088386
0.097575
0.049072
0.151778
0.105813
0.038594
0.108881
0.078313
0.032551
0.111754
0.155488
0.072103
0.103585
0.110019
0.073559
0.051858
0.129523
-0.030667
0.012910
0.070264
0.055517
0.144837
0.107082
0.075960
0.111213
0.093478
0.000003
0.131083
0.098286
0.104282
0.081519
0.087005
0.016482
0.092801
0.024704
0.077339
0.051610
0.065738
0.025489
0.021468
0.048357
0.074408
0.135863
0.067543
0.032900
-0.010143
-0.000355
0.075383
0.002359
0.074530
0.086579
0.102097
0.183655
0.056828
0.127574
0.182758
0.125163
0.143365
0.129278
0.133379
0.164508
0.190191
0.191619
0.260500
0.255202
0.197785
0.262206
0.114997
0.167379
0.201576
0.236306
0.250315
0.225121
0.245591
0.290404
0.218699
0.220756
0.241435
0.160757
0.168801
0.221161
0.238342
0.127336
0.147213
0.127852
0.115810
0.117659
0.039304
0.155898
0.177968
0.082075
0.111382
0.045679
0.078459
0.031306
0.111760
0.118633
0.127127
0.065805
0.039127
0.090428
0.070354
0.232196
0.331088
0.716510
0.952761
1.256223
1.495485
1.409984
1.282850
0.958268
0.570111
0.211323
-0.064708
-0.081482
-0.118081
-0.065564
0.056791
0.053058
0.088849
0.130191
0.197336
0.185311
0.114064
0.190745
0.186827
