0.080650
0.083787
0.030546
-0.001268
0.060727
0.030181
-0.042403
-0.007674
0.008284
-0.052569
0.044311
-0.036034
0.002138
0.054006
-0.003564
0.021105
-0.027324
0.077574
-0.018355
0.002258
0.109151
0.014585
-0.031320
0.052959
-0.039301
0.015274
0.056800
0.171708
0.107339
0.131304
0.054045
0.069434
0.112512
0.103443
0.168139
0.149029
0.144568
0.117926
0.164739
0.095420
0.217328
0.243896
0.173268
0.158223
0.186839
0.203361
0.154471
0.172271
0.149864
0.220827
0.208408
0.078916
0.158157
0.099757
0.058154
0.092440
0.061392
0.025233
0.131264
0.118110
0.086390
0.065912
0.069751
-0.042448
0.018536
0.053174
0.050905
0.052263
0.054048
0.097063
-0.007101
0.004269
0.039328
0.029341
0.071102
-0.059079
0.262000
0.283479
0.634812
1.005257
1.247840
1.439025
1.308087
1.039761
0.760218
0.408416
0.128402
-0.041190
-0.209528
-0.154755
-0.087313
-0.039764
-0.050339
-0.022174
0.089952
0.062560
0.018972
0.061262
0.068869
0.071298
0.112848
0.141406
0.156053
0.173803
0.172823
0.124862
0.132636
0.144060
0.204316
0.286426
0.247732
0.281106
0.227989
0.278078
0.250232
0.301582
0.366497
0.418003
0.349919
0.374142
0.415997
0.465568
0.506768
0.489141
0.477726
0.518646
0.479492
0.616143
0.523025
0.540381
0.641614
0.593183
0.551084
0.576528
0.549546
0.543243
0.601786
0.518063
0.592128
0.549453
0.502659
0.498705
0.451102
0.448990
0.434150
0.346362
0.397628
0.413678
0.411349
0.337209
0.334025
0.316283
0.263772
0.281750
0.225284
0.248412
0.240627
0.234555
0.158956
0.203666
0.222039
0.108770
0.196134
0.156678
0.185417
0.122651
0.090881
0.035526
0.132567
0.058764
0.109850
0.111838
0.087664
0.081799
0.023275
0.075259
0.166783
0.137124
0.095750
0.000819
0.113837
0.095011
0.060972
0.083406
0.095020
0.133097
0.036686
0.080536
0.104435
0.131409
0.099096
0.094509
0.028751
0.138456
0.108413
0.126991
0.092411
0.037526
0.173414
0.115513
0.047129
0.053904
0.115157
0.111586
0.070408
0.072630
0.049181
0.058398
0.034671
0.139367
0.042947
0.166430
0.013078
0.055888
0.108896
0.073046
0.186493
0.123494
0.105557
0.061497
0.049592
0.065297
0.057421
0.066507
0.153401
0.177530
0.027826
0.161313
0.128614
0.146808
0.122376
0.146537
0.144846
0.189035
0.159163
0.269085
0.153389
0.189085
0.217140
0.224322
0.261783
0.302325
0.246554
0.271980
0.256897
0.212504
0.284487
0.250213
0.298349
0.310940
0.177465
0.225117
0.083232
0.205095
0.162902
0.082417
0.191799
0.214675
0.137311
0.119931
0.142318
0.108035
0.079518
0.058021
0.108327
0.123790
0.065643
0.169524
0.081759
0.118690
0.027998
0.056193
0.077003
0.040193
0.016510
0.049402
-0.035753
0.060453
0.012182
0.272556
0.550267
0.804027
1.080930
1.331825
1.385794
1.332279
0.986638
0.697799
0.345770
0.027968
-0.104599
-0.189452
-0.121110
-0.126389
0.002826
-0.010909
0.061064
0.089681
0.056010
0.140718
-0.004006
0.088045
0.115591
0.034037
0.055712
0.149222
0.013112
0.171361
0.162788
0.165866
0.129688
0.216776
0.184816
0.275367
0.220689
0.281264
0.266958
0.281011
0.324772
0.336866
0.415825
0.404753
0.421845
0.466167
0.480140
0.476642
0.462283
0.527974
0.566769
0.527189
0.499251
0.503987
0.583988
0.531820
0.582416
0.517903
0.493002
0.538869
0.561467
0.570973
0.449519
0.520616
0.512485
0.401832
0.438514
0.465850
0.484358
0.364787
0.377746
0.274495
0.322982
0.296361
0.296109
0.244679
0.254331
0.278006
0.194993
0.198241
0.184095
0.188028
0.158380
0.177857
0.030013
0.172585
0.092169
0.060955
0.082615
0.034972
0.075712
0.065559
0.069786
0.032058
0.037510
0.052325
-0.057457
0.009924
0.050250
0.030587
0.018568
0.049941
-0.008189
0.029913
0.031078
-0.003804
0.068396
0.005115
0.029968
0.042331
0.004217
-0.024295
0.025101
0.041059
0.020335
0.039496
0.031103
-0.068350
-0.047163
-0.024654
0.040074
0.007601
0.048341
-0.020981
-0.004627
0.025777
-0.013288
0.018476
-0.027368
-0.059165
0.011647
-0.005918
0.036191
0.039219
0.109325
0.009680
0.071263
0.073206
0.031121
0.024063
0.070727
-0.089766
0.020768
-0.041588
0.048781
0.004095
-0.002231
-0.034225
-0.047121
-0.080039
-0.041282
-0.028692
0.104938
0.025449
0.066921
0.076819
0.000549
0.056937
0.193679
0.214990
0.062179
0.184800
0.135096
0.125895
0.188025
0.159094
0.171106
0.230948
0.111370
0.185867
0.164718
0.106670
0.144869
0.168659
0.040224
0.105123
0.168237
0.055635
0.067248
0.100172
0.016127
0.093650
0.109920
0.108027
0.032294
0.003146
-0.106090
-0.040542
0.037012
-0.060086
0.062013
-0.001723
-0.032476
-0.086009
-0.062221
0.024657
-0.015278
0.009415
-0.090777
-0.005940
-0.062339
-0.037392
0.047778
0.068371
0.262240
0.497289
0.831831
1.120965
1.302969
1.353619
1.158301
0.867754
0.534350
0.092539
-0.118952
-0.305785
-0.290376
-0.236260
-0.147654
-0.125474
-0.023994
-0.054438
0.019552
-0.012430
-0.033746
-0.005801
0.006555
0.037432
-0.019439
0.056357
0.083580
0.039941
0.053527
0.031063
0.052798
0.097593
0.186812
0.062905
0.155981
0.218254
0.212387
0.213469
0.235426
0.227761
0.288226
0.294077
0.301666
0.361739
0.310409
0.354772
0.384486
0.332755
0.402051
0.399362
0.443632
0.447960
0.547621
0.427836
0.540635
0.429697
0.488662
0.440303
0.415974
0.451243
0.445898
0.404690
0.349539
0.406061
0.416055
0.364526
0.311096
0.234666
0.303182
0.228168
0.272835
0.277008
0.263723
0.174681
0.224136
0.227218
0.116542
0.073842
0.154771
0.104429
0.168273
0.066219
0.028544
0.056625
-0.034059
-0.011448
0.045485
-0.024599
-0.047166
-0.086218
0.033458
0.042378
0.004827
-0.008171
-0.042684
0.003480
-0.023007
-0.046067
-0.069699
-0.067589
-0.047488
0.043013
-0.014045
0.002192
-0.002900
-0.045008
-0.054233
-0.059859
-0.029703
-0.048325
-0.019969
-0.024436
-0.011026
-0.092808
-0.069553
0.015329
-0.012383
0.001286
-0.016568
-0.095813
0.015224
-0.053811
-0.068663
-0.080091
-0.022465
-0.023029
-0.033922
-0.083505
-0.072845
-0.038561
-0.085919
-0.025976
-0.002761
-0.085268
-0.020352
-0.040407
-0.093372
-0.056667
-0.073205
-0.016197
-0.030325
-0.002488
-0.068789
-0.073235
-0.073293
-0.064827
-0.004406
-0.008984
0.087869
-0.001593
0.014945
0.020362
-0.003282
0.029562
0.108155
0.064481
0.066634
0.074455
0.000552
0.053420
0.088273
0.120820
0.089855
0.077167
0.132177
0.123695
0.181632
0.070493
0.129497
0.076533
0.029037
0.195534
0.160373
0.108980
0.108948
0.114833
0.008482
0.088698
0.098786
0.032319
-0.000330
0.032384
0.045917
-0.073510
0.014562
-0.021479
0.058930
0.016559
-0.017895
-0.079270
0.023255
-0.013923
-0.076465
-0.025927
-0.007360
0.030165
0.035720
-0.030254
-0.035759
-0.022424
0.002865
0.060088
0.129545
0.321473
0.580022
0.892866
1.176831
1.365251
1.322633
1.018641
0.760273
0.452942
0.044908
-0.104829
-0.277892
-0.234002
-0.102100
-0.068652
-0.129437
0.002188
0.045042
-0.033064
0.070507
0.032631
-0.004745
0.028823
0.062559
0.074632
0.091378
0.030677
0.115482
0.063161
0.140303
0.144221
0.095509
0.180875
0.232352
0.235029
0.280575
0.280024
0.255049
0.326731
0.302184
0.257658
0.309066
0.360615
0.393255
0.369822
0.399441
0.390962
0.423856
0.486842
0.430173
0.530756
0.441561
0.476296
0.534589
0.549787
0.552855
0.501408
0.460015
0.541047
0.464122
0.509565
0.424565
0.390730
0.436655
0.435896
0.469498
0.413961
0.401355
0.374584
0.321939
0.363762
0.304865
0.333872
0.259663
0.306753
0.185566
0.188472
0.276549
0.196134
0.184073
0.074336
0.080333
0.138476
0.128069
0.074283
0.088909
0.086894
0.030918
0.179965
0.073459
0.020278
0.095027
0.085144
0.044650
0.046071
0.049669
0.063833
0.013660
-0.077784
0.166459
0.122383
0.064594
0.035262
0.026906
0.077429
0.065029
0.071047
0.061495
0.028504
0.154801
0.029405
0.084371
0.067320
0.082326
0.029498
0.084883
0.055893
0.101002
0.106678
0.070310
0.100445
0.059605
0.013408
0.184629
0.108954
0.058951
0.011912
-0.016713
0.080683
0.030986
0.014544
0.048334
0.147902
0.134007
0.058195
0.105905
-0.023087
0.074653
0.081335
0.024523
0.049421
0.151036
0.034005
0.091675
0.104820
0.020652
0.102097
0.100273
0.094496
0.106478
0.152463
0.086135
0.072783
0.133213
0.097856
0.111188
0.212777
0.191825
0.175658
0.252435
0.112836
0.198319
0.237033
0.280414
0.254004
0.345549
0.290579
0.252924
0.180056
0.238079
0.171174
0.154797
0.201315
0.231979
0.181105
0.203654
0.120451
0.212067
0.154699
0.198659
0.123452
0.124467
0.243732
0.087443
0.112611
0.118058
0.066234
0.134684
0.065610
0.165969
0.071771
0.107627
0.158436
-0.047906
0.071033
0.043596
0.126294
0.053697
0.075925
0.068860
0.054041
0.123702
0.265829
0.542292
0.889217
1.119274
1.316600
1.500000
1.327599
1.097402
0.749422
0.304223
0.052023
-0.019539
-0.189144
-0.054402
-0.066167
0.051423
0.026185
0.084962
0.053333
0.080480
0.100279
0.100127
0.124557
0.141935
0.178299
0.095429
0.172329
0.164235
0.228045
0.222158
0.267391
0.228067
0.168896
0.240812
0.262559
0.272038
0.261153
0.277433
0.355390
0.388985
0.379751
0.376843
0.493682
0.442461
0.433907
0.461399
0.504742
0.480523
0.481889
0.600465
0.547871
0.579104
0.505024
0.618408
0.548275
0.588276
0.564789
0.677132
0.565437
0.617724
0.555401
0.508749
0.534106
0.491038
0.501050
0.540901
0.492505
0.491328
0.425119
0.423156
0.273330
0.364300
0.403767
0.315606
0.335851
0.292116
0.269460
0.243313
0.193250
0.288690
0.163430
0.217727
0.169459
0.072170
0.186073
0.122173
0.081450
0.112251
0.193520
0.094089
0.143148
0.167101
0.039518
0.088724
0.164137
0.085192
0.043240
0.048967
0.105115
0.105615
0.077797
0.069197
0.035653
0.133047
0.136639
0.101544
0.050922
0.105260
0.073830
0.090393
0.040541
0.119664
0.047866
0.057832
0.115267
0.070889
0.027905
0.012986
-0.004178
0.040660
0.017348
0.112847
0.070887
0.033237
0.049707
0.039416
0.048443
0.075497
0.045336
0.112797
0.099753
-0.009820
0.093403
0.061566
0.055513
-0.005671
0.112814
0.076837
0.069474
0.086627
0.076908
0.059113
0.073377
0.138189
0.108293
0.075621
0.069131
0.086896
0.096595
0.058721
0.064799
0.127613
0.086021
0.117253
0.119059
0.156399
0.124672
0.132960
0.168576
0.237689
0.210328
0.152010
0.206981
0.195221
0.143733
0.262550
0.298435
0.252373
0.192444
0.259669
0.194583
0.207319
0.180103
0.167514
0.160659
0.146999
0.183225
0.205597
0.166689
0.121433
0.100586
0.108514
0.102276
0.116820
0.118839
0.100951
0.070287
0.076389
0.073306
0.137165
0.054104
0.089470
0.109561
0.114238
0.082548
0.106636
0.017354
0.091916
0.013184
-0.059335
0.010510
0.057196
0.092500
0.275559
0.560447
0.891166
1.070147
1.421266
1.372791
1.184760
0.924658
0.604892
0.295566
-0.024516
-0.146297
-0.151190
-0.185415
-0.138041
-0.033718
0.025111
-0.005632
0.125436
0.068092
0.003132
0.013143
0.162012
0.102081
0.085850
0.121635
0.107849
-0.012500
0.125600
0.101306
0.109684
0.166394
0.131992
0.274432
0.144500
0.292683
0.274511
0.272014
0.248023
0.326875
0.284677
0.361978
0.336601
0.347469
0.383127
0.477873
0.355914
0.428721
0.473754
0.395512
0.477964
0.429800
0.517488
0.430988
0.479597
0.518639
0.468457
0.479943
0.421222
0.469162
0.499268
0.380534
0.444826
0.509484
0.483996
0.326721
0.291028
0.311358
0.326956
0.401035
0.349282
0.316508
0.184986
0.170233
0.134237
0.218426
0.179772
0.203574
0.136677
0.178857
0.152906
0.082891
0.096646
0.134467
0.079786
0.086726
0.099321
-0.112187
0.047342
0.122009
-0.019254
0.004008
0.099087
0.082343
-0.050685
0.032375
-0.016467
-0.050881
-0.103821
0.005815
-0.119967
0.033205
-0.030465
-0.000415
-0.063360
-0.037509
0.036524
0.014889
-0.006508
-0.081286
-0.093944
-0.006839
-0.071972
-0.069862
-0.035355
0.007766
-0.059316
-0.019828
0.022724
-0.091174
-0.011186
-0.004591
-0.031408
-0.015866
-0.000304
-0.031976
-0.042830
-0.106048
0.032279
-0.027834
-0.071857
-0.039103
-0.071622
-0.027953
-0.079901
-0.064996
0.038352
-0.014147
-0.065650
-0.109618
-0.159122
-0.008456
0.031140
-0.068110
-0.095041
-0.091972
-0.063276
-0.072545
0.019209
-0.031044
0.030799
-0.033257
-0.041993
-0.036541
0.093495
0.040585
0.014342
0.027984
0.068092
-0.006828
0.143968
0.121211
0.115083
0.114289
0.118696
0.064907
0.167913
0.105030
0.155914
0.102895
0.155844
0.087882
0.068945
0.058068
0.145689
0.057760
0.018294
0.031033
0.041795
0.032131
-0.021748
0.057450
-0.003763
-0.013612
-0.060170
0.002649
-0.027919
-0.025231
-0.056608
-0.149061
-0.128382
-0.066010
-0.020377
-0.041413
-0.042974
-0.070674
-0.092491
-0.077839
-0.115481
-0.012417
-0.102103
-0.084238
0.025032
0.205484
0.528009
0.806113
1.124125
1.246118
1.169335
1.031294
0.724072
0.364393
-0.012632
-0.224130
-0.242088
-0.373619
-0.246361
-0.176265
-0.186602
-0.088666
-0.046298
-0.069678
-0.049521
0.031810
-0.134976
0.045228
0.038165
0.013323
0.014517
0.015834
0.022732
0.057893
0.006094
0.047118
0.085897
0.061242
0.141824
0.133476
0.167406
0.146507
0.202773
0.235919
0.194368
0.170896
0.225617
0.241515
0.269496
0.301746
0.337692
0.299188
0.297985
0.378050
0.370765
0.360531
0.462809
0.483652
0.419173
0.473719
0.541144
0.344496
0.422254
0.410427
0.431346
0.424957
0.441363
0.418938
0.335853
0.352551
0.284815
0.337162
0.308751
0.288267
0.249700
0.130590
0.191920
0.189448
0.135163
0.105275
0.191394
0.158423
0.124304
0.109665
0.131854
0.049479
0.094647
0.052086
-0.066553
-0.085978
-0.046602
-0.059953
-0.017903
0.019301
0.008627
-0.004115
-0.003203
-0.041720
-0.076084
-0.043077
-0.052178
-0.007898
-0.053579
-0.010625
-0.118645
0.008801
-0.051931
-0.074132
-0.037441
-0.108697
0.009140
-0.129601
-0.098271
-0.126018
-0.148930
-0.020798
-0.074372
-0.038689
-0.125576
-0.050231
-0.041149
-0.090451
-0.006351
-0.039606
-0.072684
-0.091335
-0.143343
-0.021085
-0.046008
-0.070237
0.031285
-0.036040
-0.018248
-0.020774
-0.029173
-0.053738
-0.083684
-0.047793
-0.129103
-0.044417
-0.117130
-0.122175
-0.039663
-0.086039
0.013802
-0.075417
-0.026535
-0.089293
-0.059716
-0.100563
-0.068715
-0.055878
-0.102793
0.031293
-0.075540
0.050407
-0.016769
0.027583
-0.008669
0.072304
0.001925
0.034102
0.069647
0.067738
0.057128
0.079674
0.083364
0.127964
0.079650
0.199832
0.188889
0.045352
0.078840
0.051913
0.145928
0.089160
0.045218
0.099401
0.089339
0.045813
0.070752
0.032555
-0.019696
-0.002478
0.088122
0.108929
-0.008017
0.022286
0.038757
0.031403
0.006491
0.047244
0.038205
-0.060190
-0.044282
-0.046017
-0.026839
-0.051471
0.002681
-0.091615
-0.016156
-0.119640
-0.059719
0.020504
0.011669
-0.029478
-0.027970
0.117077
0.331750
0.654476
0.999938
1.291554
1.229383
1.204824
1.085143
0.663792
0.350880
-0.001210
-0.202219
-0.296243
-0.204481
-0.180631
-0.046980
0.007395
0.025220
-0.027139
0.048627
0.031640
0.030372
0.054684
0.052518
-0.007601
0.016241
0.084161
0.042232
0.066915
0.001903
0.125775
0.155927
0.134409
0.193573
0.146182
0.163443
0.194347
0.251054
0.228037
0.251573
0.272010
0.278120
0.358408
0.309679
0.361962
0.372609
0.367393
0.368070
0.344675
0.515569
0.430619
0.546015
0.457623
0.490985
0.481191
0.538594
0.461748
0.445304
0.445734
0.490344
0.431573
0.482716
0.448670
0.459316
0.465645
0.337925
0.488437
0.460882
0.374024
0.352970
0.313994
0.358653
0.348655
0.252667
0.254677
0.192374
0.219798
0.200101
0.176419
0.120248
0.143555
0.166194
0.145619
0.094943
0.115048
0.032754
0.092168
0.126632
0.061558
0.025142
0.136479
0.088740
0.120013
0.003068
0.001061
0.033088
-0.019001
-0.009015
0.045122
0.050523
0.038802
0.001171
-0.018436
-0.059336
0.019373
-0.024998
0.006710
-0.025365
-0.008161
0.053817
0.048461
0.027855
-0.034796
0.026928
0.040772
0.016925
0.031628
-0.006291
-0.002191
-0.017725
0.045587
0.066919
0.009675
0.007596
0.000824
-0.016323
0.023664
0.035761
0.065953
-0.007010
0.046034
0.114664
0.047876
0.006938
0.069513
-0.050990
-0.032161
0.059880
-0.057408
0.047165
0.068808
0.112029
-0.006131
0.126072
-0.011590
0.084448
0.022144
0.029301
0.026057
0.096270
0.087989
0.107934
0.049143
0.092015
0.151442
0.081176
0.201311
0.138671
0.155946
0.123996
0.150926
0.191894
0.208065
0.191247
0.179412
0.230064
0.156102
0.144390
0.150339
0.125583
0.295922
0.194702
0.209435
0.124928
0.222960
0.150682
0.172518
0.091369
0.065223
0.127500
0.113666
0.127894
0.118151
0.043950
0.012463
-0.021633
0.085540
-0.003030
0.075155
0.128522
0.142775
0.003329
0.075644
0.042722
0.063632
-0.021993
0.060490
0.038001
0.040758
0.069447
-0.072559
0.013606
0.113818
0.301566
0.466187
0.761467
1.088102
1.398750
1.390213
1.291633
0.913140
0.677838
0.260213
-0.002040
-0.148950
-0.220235
-0.188354
-0.110578
-0.010517
0.073004
0.160841
0.082775
0.052561
0.087830
0.086424
0.123726
0.047699
0.126859
0.105478
0.060321
0.060897
0.167059
0.167624
0.185794
0.187433
0.130401
0.199932
0.189442
0.225673
0.220647
0.260563
0.333591
0.260151
0.295579
0.312573
0.389998
0.410429
0.492134
0.462575
0.458258
0.480359
0.469604
0.399886
0.556686
0.620840
0.533251
0.570652
0.546957
0.558663
0.492778
0.485817
0.537055
0.561729
0.434970
0.448702
0.539492
0.472578
0.518238
0.319957
0.402527
0.382481
0.436380
0.381800
0.331555
0.312376
0.314702
0.299741
0.288768
0.219538
0.203575
0.229216
0.175294
0.215729
0.154530
0.227243
0.144771
0.130764
0.114276
0.121939
0.056891
0.064343
0.051644
0.098284
0.104441
-0.046245
-0.024039
0.073604
0.001128
0.077279
0.016579
0.082338
0.029545
-0.002533
0.037070
0.078280
0.080488
-0.023789
0.059451
0.045296
0.003239
0.030292
-0.066428
0.049978
-0.019998
-0.010368
0.035204
0.075658
0.059483
0.062954
-0.009070
-0.015293
-0.013182
0.058979
-0.065958
0.032146
0.004572
0.035162
0.000396
0.017314
0.010226
-0.028866
-0.013114
-0.026896
-0.005752
0.069894
0.112018
-0.077307
0.019626
0.023395
-0.009366
-0.015206
0.048543
-0.027513
0.041777
0.055461
0.063284
0.016697
0.054625
0.001552
-0.031967
0.049733
0.089792
-0.016400
0.068743
0.070379
0.057075
0.044075
0.015658
0.101803
0.114128
0.087967
0.102009
0.114894
0.112690
0.075805
0.176869
0.157927
0.131608
0.178713
0.048147
0.088110
0.214416
0.139633
0.192542
0.165684
0.176194
0.086545
0.175514
0.052139
0.062281
0.041010
0.151054
-0.018062
0.032351
-0.015728
-0.031361
0.002874
0.039059
-0.017767
-0.029273
0.020180
0.040093
-0.034981
0.004855
-0.037281
-0.024195
-0.068162
-0.084634
0.010662
-0.065207
-0.007368
-0.056241
-0.062313
-0.125988
-0.002736
0.024242
0.300138
0.507673
0.793072
1.043647
1.337793
1.354960
1.086210
0.828362
0.450026
0.194748
-0.179405
-0.221438
-0.257890
-0.183221
-0.180506
-0.137441
-0.086079
-0.094631
-0.075480
-0.045309
0.084258
-0.013927
-0.053274
-0.011733
-0.051838
-0.023779
0.016344
0.063912
0.144600
0.113367
0.026148
0.179311
0.034182
0.056879
0.126085
0.166579
0.144313
0.129817
0.245804
0.182406
0.293604
0.294113
0.264478
0.332328
0.342927
0.333586
0.352666
0.418619
0.404330
0.458864
0.394147
0.395323
0.431298
0.324302
0.429047
0.424225
0.432739
0.468843
0.375431
0.444626
0.505722
0.359677
0.469816
0.367466
0.356061
0.367232
0.363284
0.278433
0.288794
0.268024
0.248756
0.180693
0.149411
0.131413
0.149684
0.109065
0.118517
0.169426
0.069095
0.066933
0.058201
0.094904
0.023904
0.056769
-0.054727
-0.016088
-0.021711
-0.010335
-0.034851
-0.045984
-0.022370
-0.095128
-0.075264
-0.066874
0.000567
-0.127533
-0.104874
-0.064844
-0.067846
-0.063320
-0.110354
-0.079502
-0.046862
-0.073035
-0.072012
-0.111659
-0.076649
-0.061181
-0.049679
-0.060503
-0.054618
-0.083454
-0.004721
-0.092555
-0.041070
-0.169043
-0.114633
-0.071914
-0.029250
-0.044359
-0.024226
-0.116240
-0.102665
-0.103325
-0.094923
-0.079534
-0.085884
-0.089126
-0.142480
-0.060033
-0.058874
-0.062679
0.011185
-0.053176
-0.014816
-0.011450
-0.093628
-0.096979
-0.078438
-0.135151
-0.126321
-0.149807
-0.112482
-0.137653
-0.128703
-0.007436
-0.106892
-0.043603
-0.081926
-0.047537
-0.033250
-0.053612
0.011842
-0.042539
0.036259
-0.005301
0.052911
0.009170
0.010481
0.123768
0.071478
0.011634
0.039631
0.081324
0.113203
0.087196
0.131668
0.062094
0.093254
0.050559
0.038868
0.091675
0.056246
0.075887
0.082204
0.070492
-0.030085
0.032548
0.052166
-0.057674
0.024030
0.029496
-0.073443
-0.076160
-0.018909
-0.001908
-0.013704
-0.055471
-0.124478
-0.030493
-0.078633
-0.099692
-0.144341
-0.049757
-0.154009
-0.072256
-0.090954
-0.051999
-0.162121
-0.077859
-0.043303
-0.160840
0.009381
0.238176
0.574774
0.875172
1.092032
1.281217
1.173750
0.925464
0.605767
0.304136
-0.089492
-0.241921
-0.258884
-0.404974
-0.259543
-0.138219
-0.148394
-0.114103
-0.044145
-0.073298
-0.093698
-0.128539
-0.075690
-0.142630
-0.051902
-0.119323
-0.023453
0.039793
0.031083
0.041216
0.020453
0.066857
0.101057
0.046042
0.042341
0.058080
0.140367
0.202280
0.156918
0.137042
0.179142
0.262900
0.247810
0.305085
0.211676
0.334060
0.290921
0.371096
0.356181
0.356456
0.374648
0.383911
0.473874
0.387295
0.336054
0.398009
0.374528
0.537802
0.387046
0.259992
0.435802
0.420409
0.333733
0.392116
0.307159
0.330870
0.343299
0.278312
0.296713
0.290642
0.214044
0.267207
0.123426
0.134292
0.153558
0.204664
0.112518
0.089074
0.095151
0.047763
0.083509
0.097041
0.011114
0.005020
0.068669
-0.095221
0.040732
-0.024362
-0.053818
-0.026909
-0.056059
0.065143
-0.104915
-0.037776
-0.083718
-0.093267
-0.030288
-0.016877
-0.049267
0.016606
-0.069234
-0.002361
-0.039283
-0.109820
-0.045481
-0.125936
-0.122081
0.045863
-0.047416
-0.052995
0.016268
-0.061738
-0.022693
-0.072342
-0.013671
-0.101317
-0.168064
-0.002459
-0.031380
-0.032496
-0.002372
-0.000920
0.003852
-0.002766
-0.018677
-0.020412
-0.107550
-0.036800
-0.027051
-0.059546
-0.091008
0.024043
-0.104456
0.031752
-0.038149
-0.099377
-0.036722
0.027989
0.000922
-0.008496
0.025185
-0.035089
0.012676
-0.000046
-0.032647
0.033284
-0.084423
-0.071952
0.072163
0.027094
-0.035481
0.034776
-0.001756
0.004296
-0.005522
-0.023441
0.080090
0.042255
0.127277
0.066901
0.106993
0.130453
0.134559
0.104196
0.181102
0.223769
0.196983
0.185883
0.133019
0.096871
0.115807
0.108988
0.181669
0.090169
0.123634
0.121793
0.179251
0.039437
0.110017
0.084345
0.112427
0.115312
0.096827
0.015606
-0.022038
0.026806
0.097397
-0.010755
0.059541
0.005284
-0.005537
0.028240
0.014437
0.019575
-0.033103
-0.051398
0.026006
-0.050041
0.071129
-0.033315
-0.006484
-0.101061
0.041173
0.116177
0.421490
0.791187
1.129242
1.275527
1.415022
1.243061
0.996240
0.670799
0.281707
-0.074579
-0.183292
-0.180969
-0.196239
-0.053928
-0.012586
-0.020268
-0.080085
0.099666
0.011451
0.104825
0.030120
0.074178
0.143375
0.012376
0.002704
0.114409
0.084987
0.172875
0.057064
0.114395
0.165735
0.165566
0.185708
0.181544
0.286897
0.226438
0.209879
0.268125
0.320297
0.324346
0.325140
0.340804
0.372482
0.431206
0.418031
0.375229
0.435912
0.456659
0.450079
0.498464
0.549601
0.557002
0.561698
0.563817
0.555223
0.509052
0.483807
0.523591
0.557672
0.492857
0.458076
0.567472
0.476187
0.490537
0.384800
0.472482
0.401243
0.486592
0.348115
0.378032
0.332033
0.380804
0.218494
0.258942
0.270859
0.263159
0.256433
0.182408
0.236020
0.151597
0.181044
0.205788
0.124258
0.170707
0.084365
0.092272
0.169201
0.095318
0.029207
0.050188
0.165448
0.022476
0.139741
0.074263
0.076099
0.005623
0.067841
0.076044
0.076113
0.116466
0.134566
0.081954
0.109893
0.115567
0.047023
0.099068
0.032545
-0.006040
0.095022
0.006510
-0.008059
0.015947
0.091255
0.084923
0.043930
0.104911
0.068528
0.051662
0.046516
0.115427
0.053068
0.090275
-0.046764
0.038397
0.039992
0.109523
0.085552
0.056892
0.118038
0.109589
0.073972
0.103436
0.012633
0.080414
0.052883
0.112086
0.148656
0.097370
0.083830
0.006029
0.116102
0.118847
0.020386
0.140605
0.103794
0.144769
0.129721
0.042664
0.105247
0.112079
0.118393
0.173686
0.102877
0.099118
0.131912
0.170254
0.133674
0.144780
0.214888
0.269861
0.246243
0.235998
0.311635
0.210674
0.183417
0.206886
0.126683
0.229414
0.228586
0.245228
0.215655
0.202294
0.243138
0.222752
0.213412
0.145954
0.213311
0.145837
0.171354
0.138112
0.152524
0.063576
-0.002980
0.061366
0.117206
0.096364
0.070321
0.088162
0.164197
-0.033087
0.055731
0.054534
0.103567
