-0.011247
0.039353
0.031232
-0.004495
-0.029149
-0.049499
-0.033798
-0.023446
0.019629
0.057370
0.011665
0.092424
-0.001719
-0.027582
0.032651
-0.046348
0.038056
0.047776
-0.021094
0.002681
0.012427
0.031597
0.002375
0.006834
0.085973
0.170773
0.124298
0.147789
0.179388
0.095497
0.132223
0.121704
0.153350
0.105263
0.161156
0.205244
0.173730
0.148175
0.237860
0.148175
0.183403
0.192613
0.087115
0.135851
0.186653
0.235958
0.049228
0.206250
0.123222
0.130713
0.127902
0.146894
0.067331
0.026347
0.084609
0.050711
0.117756
0.116380
0.029671
0.043520
0.091540
0.125169
0.053383
-0.010027
0.084331
0.121104
0.034593
0.124966
0.028574
0.001823
0.028239
0.053340
0.228269
0.442307
0.650544
0.944884
1.202691
1.204067
1.156919
0.985162
0.643865
0.298541
0.094614
-0.085857
-0.169293
-0.140733
-0.060260
0.029017
0.062763
0.073902
0.141176
0.078254
0.088219
0.092750
0.142750
0.139517
0.160016
0.132458
0.090672
0.182448
0.240697
0.216733
0.227763
0.205004
0.261292
0.329170
0.278666
0.337751
0.323876
0.342062
0.335461
0.355946
0.455358
0.388219
0.386138
0.398950
0.416776
0.517703
0.475962
0.500389
0.551001
0.514874
0.541760
0.497209
0.505464
0.485620
0.606517
0.529772
0.515874
0.485441
0.495065
0.525535
0.439389
0.521797
0.569086
0.468912
0.497391
0.447246
0.371138
0.361647
0.322735
0.352308
0.303481
0.270207
0.323074
0.381419
0.271354
0.327619
0.219639
0.239299
0.184032
0.211292
0.167300
0.201142
0.179856
0.114792
0.065857
0.166927
0.190333
0.148678
0.089625
0.087884
0.194614
0.113553
0.117668
0.137807
0.136646
0.090654
0.165195
0.103335
0.141390
0.092787
0.054663
0.130458
0.105001
0.116344
0.158142
0.126488
0.155128
0.098876
0.110001
0.093162
0.125804
0.069009
0.062931
0.061821
0.118136
0.090305
0.132204
0.164922
0.134904
0.063632
0.160311
0.055007
0.062603
0.084309
0.037976
0.137700
0.134524
0.111650
0.162832
0.124609
0.115556
0.088528
0.180691
0.189411
0.141735
0.099772
0.095332
0.083004
0.140291
0.180907
0.149868
0.125221
0.141486
0.162338
0.166835
0.167733
0.182515
0.218136
0.208455
0.223314
0.249073
0.309603
0.238970
0.231414
0.248319
0.328036
0.248126
0.263980
0.295607
0.215191
0.221013
0.192572
0.282638
0.199227
0.294532
0.183888
0.247757
0.265830
0.177986
0.199824
0.153531
0.178712
0.207556
0.165126
0.208775
0.158001
0.184265
0.172773
0.192483
0.095640
0.157103
0.152475
0.144876
0.152010
0.091753
0.144509
0.127963
0.178979
0.157046
0.188041
0.116610
0.091905
0.271448
0.411932
0.648533
0.964721
1.158411
1.399604
1.331475
1.134591
0.814490
0.471324
0.194619
0.035923
-0.073990
-0.118504
0.003349
0.076446
0.102308
0.137261
0.212656
0.154790
0.118232
0.130210
0.152601
0.159849
0.192892
0.139935
0.163764
0.251712
0.146508
0.236367
0.155275
0.230666
0.237442
0.295783
0.355590
0.358540
0.290853
0.347430
0.371364
0.434524
0.396963
0.477515
0.504577
0.476119
0.516938
0.451051
0.550205
0.545798
0.565628
0.579476
0.532530
0.573269
0.590549
0.546321
0.666299
0.690747
0.618503
0.519507
0.561080
0.479557
0.558571
0.525253
0.515506
0.471337
0.477532
0.425877
0.442405
0.411353
0.434280
0.368630
0.376229
0.344790
0.256599
0.296148
0.270732
0.285460
0.240399
0.245615
0.231405
0.197045
0.185215
0.246509
0.146889
0.146976
0.122786
0.151102
0.162381
0.160014
0.088865
0.163819
0.093917
0.120725
0.209709
0.116418
0.129590
0.144458
0.151382
0.119591
0.166983
0.160352
0.130384
0.114516
0.109107
0.080101
0.087564
0.146258
0.115960
0.136198
0.065148
0.155970
0.072286
0.040356
0.073928
0.069724
0.074974
0.102043
0.152647
0.048838
0.115935
0.083707
0.103829
0.155800
0.108160
0.084640
0.110994
0.143649
0.106582
0.070935
0.095236
0.101105
0.077230
0.072357
0.089645
0.101629
0.043501
0.036238
0.167629
0.101321
0.088855
0.056455
0.076841
0.034637
0.087533
0.100545
0.099540
0.149184
0.169120
0.220487
0.201690
0.216013
0.163246
0.230268
0.270586
0.259441
0.269213
0.271850
0.224255
0.329057
0.291686
0.227325
0.250437
0.204008
0.228465
0.233542
0.213905
0.199875
0.198075
0.244883
0.182432
0.204013
0.193821
0.185853
0.140664
0.113585
0.112890
0.126084
0.141795
0.090191
0.078521
0.160938
0.060836
0.091648
0.132481
0.125889
0.040163
0.071461
0.059018
0.088349
0.060296
0.057009
0.103333
0.103867
0.206004
0.235753
0.576346
0.829258
1.138718
1.283533
1.263597
1.138916
0.820863
0.541179
0.170269
0.018143
-0.091759
-0.096308
-0.090433
-0.050183
0.060571
0.054179
0.048651
0.078835
0.069565
0.155333
0.140478
0.119164
0.120999
0.096496
0.165243
0.114469
0.194988
0.109692
0.170343
0.183281
0.281793
0.266504
0.313229
0.297566
0.289224
0.302876
0.342315
0.342577
0.340348
0.363915
0.409218
0.409300
0.455884
0.428085
0.476476
0.477280
0.448512
0.503222
0.462294
0.564143
0.504211
0.487097
0.532724
0.571371
0.483065
0.548435
0.534679
0.517348
0.463199
0.449236
0.476115
0.490466
0.407190
0.392436
0.394096
0.406825
0.378730
0.337645
0.297753
0.334144
0.303661
0.237197
0.222054
0.188729
0.191830
0.281216
0.255980
0.207579
0.115550
0.143061
0.127170
0.159260
0.082251
0.149916
0.109899
0.138673
0.027663
0.134347
0.117720
0.109889
0.114769
0.107444
-0.002464
0.089893
0.074565
0.080749
0.054679
0.060019
0.015766
0.027928
0.070910
0.049652
0.075030
0.098407
-0.031184
-0.004213
0.095918
0.061408
0.174364
0.125590
0.046062
0.032911
0.023430
0.126949
0.019474
0.035213
0.036790
0.019392
0.107037
0.081390
0.061641
0.084771
0.030955
0.077437
0.027336
0.037237
0.064001
0.050538
0.073643
0.151208
0.111663
0.064102
0.053275
0.063444
0.083375
0.183920
0.114345
0.091490
0.017935
0.095416
0.111405
0.097303
0.069554
0.176797
0.153753
0.114211
0.160094
0.161234
0.071412
0.198562
0.188522
0.249095
0.261851
0.244428
0.206979
0.236755
0.210504
0.187131
0.258300
0.174400
0.244773
0.244900
0.240968
0.191371
0.250428
0.259860
0.255974
0.177059
0.157992
0.173639
0.112154
0.083415
0.214684
0.102599
0.135254
0.069630
0.107431
0.088581
0.165596
0.177436
0.150021
0.026571
0.064654
0.077205
0.077361
0.065562
0.145736
0.098039
0.069637
0.155960
0.117066
0.243606
0.444591
0.756257
1.102200
1.210793
1.265902
1.229379
1.060989
0.628492
0.354516
0.058986
-0.035473
-0.151410
-0.060367
-0.005669
0.073361
0.054728
0.134526
0.127786
0.157447
0.119799
0.146020
0.143450
0.148992
0.114033
0.204772
0.196612
0.195434
0.206039
0.274079
0.330009
0.259724
0.244491
0.317384
0.231882
0.375684
0.307049
0.320176
0.398941
0.382889
0.435974
0.472326
0.509799
0.477602
0.498703
0.539539
0.508778
0.500951
0.509298
0.522822
0.592254
0.560177
0.547263
0.496265
0.575206
0.599640
0.533246
0.534002
0.570522
0.576044
0.499508
0.514674
0.447578
0.519175
0.513920
0.438909
0.397046
0.422393
0.382869
0.427841
0.303114
0.323052
0.303838
0.343724
0.299293
0.263058
0.297349
0.238625
0.290852
0.298765
0.163039
0.218843
0.223841
0.157147
0.199885
0.230667
0.212129
0.207047
0.191341
0.225320
0.175500
0.206386
0.190755
0.140632
0.059778
0.115954
0.172865
0.083053
0.144406
0.095747
0.152712
0.168385
0.129936
0.164137
0.211532
0.134114
0.225367
0.089675
0.158446
0.140643
0.232686
0.232736
0.103866
0.197846
0.169292
0.204169
0.161929
0.201015
0.186297
0.093487
0.242694
0.152833
0.187903
0.144472
0.122374
0.221827
0.160191
0.189709
0.179699
0.152698
0.199031
0.189587
0.189081
0.161696
0.184414
0.172568
0.212685
0.175005
0.153402
0.223597
0.173689
0.238393
0.222168
0.250480
0.147065
0.187315
0.243847
0.240883
0.338537
0.289643
0.314892
0.300325
0.337473
0.298668
0.388766
0.397847
0.348616
0.366067
0.405566
0.401588
0.355265
0.333733
0.402352
0.350352
0.382957
0.350263
0.288457
0.272451
0.379500
0.260605
0.289759
0.241577
0.227211
0.237023
0.193229
0.266267
0.220576
0.214192
0.268732
0.192901
0.241463
0.207198
0.207836
0.210764
0.246157
0.193955
0.187687
0.218662
0.144610
0.190053
0.283572
0.271743
0.351746
0.497446
0.751496
1.037710
1.326664
1.448577
1.319203
1.183313
0.981841
0.572614
0.312036
0.030347
0.054911
0.087721
0.131094
0.226379
0.255571
0.256333
0.228503
0.273041
0.224049
0.264418
0.317432
0.281258
0.270313
0.345933
0.319077
0.300546
0.334893
0.399445
0.343984
0.394274
0.432609
0.423338
0.434889
0.491737
0.461280
0.437890
0.514029
0.554347
0.564972
0.598146
0.620795
0.542604
0.567302
0.645952
0.618290
0.639024
0.620705
0.642722
0.700336
0.705600
0.614445
0.649230
0.657228
0.690426
0.712502
0.697582
0.655043
0.571222
0.655472
0.653284
0.661464
0.643824
0.581869
0.547720
0.516217
0.540547
0.502870
0.424989
0.413487
0.461013
0.462339
0.471690
0.442213
0.451182
0.442637
0.416781
0.400973
0.345017
0.303273
0.321680
0.361173
0.284495
0.250476
0.296337
0.248319
0.313456
0.268977
0.242463
0.261821
0.194942
0.310649
0.267376
0.220533
0.275627
0.265879
0.193488
0.213565
0.265829
0.327131
0.309364
0.277148
0.233760
0.297471
0.194438
0.268074
0.293849
0.259431
0.306347
0.341015
0.246796
0.279520
0.323064
0.220432
0.211387
0.259752
0.305202
0.283277
0.276765
0.320222
0.235562
0.204441
0.189118
0.245410
0.253875
0.272308
0.224191
0.341064
0.237555
0.309414
0.227183
0.337882
0.294399
0.225101
0.259652
0.308434
0.187275
0.264468
0.331337
0.337263
0.240276
0.258034
0.332817
0.253929
0.278000
0.302117
0.327444
0.328657
0.432572
0.342249
0.316253
0.327265
0.398569
0.426650
0.398192
0.399554
0.423628
0.395572
0.423497
0.418470
0.401257
0.388691
0.421668
0.375423
0.388259
0.330433
0.428325
0.294138
0.331007
0.399858
0.351911
0.339851
0.284673
0.292186
0.302827
0.271159
0.315987
0.246672
0.263242
0.269888
0.246299
0.252818
0.274057
0.336137
0.224220
0.242125
0.185902
0.192259
0.218582
0.221288
0.287449
0.267863
0.523189
0.700472
1.007972
1.227684
1.447631
1.421602
1.351797
1.001231
0.715055
0.351503
0.124271
0.128817
0.074263
0.053625
0.118359
0.264112
0.213516
0.343327
0.303348
0.328680
0.262815
0.278464
0.250252
0.389782
0.291942
0.366235
0.373184
0.431098
0.323818
0.334700
0.398530
0.390065
0.390739
0.470555
0.400979
0.473317
0.423694
0.545027
0.483151
0.551561
0.556410
0.528473
0.517579
0.573436
0.590065
0.593394
0.684290
0.617693
0.717088
0.720582
0.714474
0.679682
0.685532
0.741715
0.662332
0.653641
0.584080
0.712648
0.642897
0.718624
0.646598
0.551693
0.625511
0.603885
0.484208
0.498807
0.482495
0.553506
0.461931
0.435018
0.483821
0.423055
0.430001
0.391792
0.343164
0.387254
0.371829
0.320404
0.275598
0.319218
0.273459
0.319169
0.312340
0.286549
0.303101
0.295639
0.237517
0.190732
0.236961
0.251133
0.246765
0.231437
0.287913
0.218848
0.182349
0.172291
0.190096
0.235583
0.209013
0.171831
0.156149
0.277044
0.164880
0.178339
0.172984
0.125537
0.199549
0.209588
0.203891
0.206876
0.181677
0.203926
0.123702
0.255055
0.206155
0.215852
0.299121
0.140519
0.208447
0.236167
0.141955
0.215045
0.225001
0.205308
0.182933
0.168813
0.157574
0.172072
0.211800
0.164401
0.229087
0.151948
0.196919
0.175652
0.191592
0.250728
0.195356
0.239563
0.248793
0.228953
0.183983
0.195558
0.252407
0.257254
0.230089
0.237276
0.307719
0.261157
0.400847
0.286123
0.296383
0.240392
0.270444
0.266989
0.349323
0.388069
0.333756
0.328504
0.303964
0.337073
0.261132
0.289729
0.337275
0.324842
0.283199
0.261276
0.338235
0.284027
0.222003
0.209418
0.233489
0.225141
0.274657
0.249516
0.302554
0.220371
0.134573
0.240040
0.198251
0.160965
0.156635
0.205003
0.151624
0.174971
0.146757
0.220219
0.148384
0.175900
0.155616
0.101952
0.125531
0.270489
0.336221
0.529095
0.815293
1.118794
1.322248
1.448316
1.314144
1.021348
0.685172
0.392959
0.196658
-0.001335
-0.019275
-0.006770
0.075828
0.109015
0.137586
0.134211
0.098499
0.232148
0.183639
0.198715
0.198897
0.164590
0.281745
0.258571
0.253753
0.305657
0.252818
0.248168
0.293596
0.323867
0.359282
0.365190
0.376341
0.413509
0.373218
0.356363
0.421888
0.453659
0.445781
0.484839
0.495396
0.560632
0.454409
0.524847
0.578570
0.568612
0.593548
0.655473
0.628153
0.645850
0.611181
0.564777
0.588987
0.501695
0.517469
0.619618
0.561659
0.607232
0.511829
0.495092
0.421375
0.511495
0.488250
0.448800
0.493014
0.418848
0.357126
0.389570
0.421007
0.366385
0.340910
0.283127
0.299448
0.285985
0.313513
0.241018
0.276607
0.311499
0.232286
0.329645
0.211614
0.195892
0.205381
0.164572
0.171886
0.166453
0.171506
0.140418
0.260847
0.152505
0.161229
0.115236
0.129657
0.140181
0.095258
0.217334
0.142294
0.134535
0.082152
0.159988
0.142352
0.167414
0.152223
0.171400
0.116131
0.161807
0.206892
0.155987
0.085052
0.059346
0.021749
0.098767
0.165333
0.188141
0.083849
0.175449
0.116577
0.165489
0.179530
0.117026
0.142200
0.121105
0.193189
0.125634
0.121931
0.148960
0.177661
0.130842
0.135256
0.120009
0.150403
0.169220
0.147718
0.142233
0.222831
0.137736
0.198693
0.140625
0.162736
0.169008
0.165540
0.203826
0.200358
0.199138
0.184503
0.194853
0.290245
0.270568
0.259700
0.246650
0.264538
0.342610
0.309932
0.245213
0.338982
0.322419
0.271612
0.319594
0.234171
0.305046
0.317529
0.302991
0.286698
0.369881
0.275371
0.282470
0.267042
0.296247
0.181374
0.253238
0.202968
0.225234
0.253333
0.257760
0.284703
0.209461
0.193507
0.200756
0.214016
0.246070
0.134235
0.194016
0.196268
0.185788
0.136463
0.211420
0.202717
0.167873
0.194714
0.186005
0.358112
0.548104
0.749390
1.048199
1.249783
1.404307
1.346747
1.119152
0.807742
0.411424
0.211735
0.057085
0.019236
0.007512
0.060403
0.116881
0.149689
0.218602
0.175986
0.232310
0.209760
0.267145
0.288909
0.265813
0.266559
0.240483
0.236404
0.330122
0.343692
0.292970
0.343741
0.361835
0.340867
0.333932
0.340718
0.394270
0.343970
0.536605
0.385968
0.489882
0.529784
0.588567
0.524856
0.629472
0.574954
0.637124
0.615848
0.590756
0.655159
0.614222
0.569763
0.653910
0.605111
0.628003
0.650522
0.641635
0.678739
0.596686
0.632423
0.619065
0.651639
0.560926
0.619249
0.580311
0.554886
0.571611
0.469968
0.504355
0.552293
0.446521
0.374404
0.495733
0.442404
0.414397
0.338765
0.318618
0.388229
0.303071
0.329722
0.289183
0.311411
0.365891
0.252441
0.295752
0.315767
0.247769
0.250732
0.245698
0.254030
0.283297
0.227164
0.217458
0.222697
0.172421
0.213931
0.226487
0.171450
0.213440
0.201350
0.278390
0.153799
0.215507
0.275309
0.170488
0.293179
0.205240
0.248048
0.188453
0.210594
0.174603
0.187351
0.214494
0.253110
0.279824
0.175885
0.230136
0.187740
0.180810
0.291230
0.264720
0.179742
0.238400
0.235074
0.187544
0.202932
0.266146
0.196854
0.226280
0.187319
0.263541
0.175259
0.144379
0.271997
0.280226
0.322426
0.309503
0.265164
0.277821
0.274793
0.333273
0.292032
0.282598
0.262532
0.308736
0.263878
0.291581
0.291111
0.395345
0.322233
0.343984
0.406993
0.353154
0.380441
0.322208
0.419348
0.435476
0.389507
0.348365
0.370315
0.457195
0.406222
0.441838
0.374099
0.400353
0.383601
0.360339
0.310907
0.380194
0.323659
0.337271
0.352776
0.350165
0.334129
0.266648
0.392374
0.328299
0.275098
0.268107
0.250446
0.284175
0.289749
0.246794
0.237739
0.265573
0.287861
0.264150
0.281050
0.319330
0.225305
0.272850
0.283609
0.295288
0.411278
0.438126
0.745170
0.997721
1.329025
1.413618
1.399465
1.267273
0.909630
0.638441
0.451851
0.130238
0.120717
0.063650
0.168825
0.245736
0.223821
0.175676
0.327470
0.248400
0.197078
0.314822
0.311274
0.360437
0.336424
0.404832
0.372830
0.375947
0.370648
0.427922
0.453581
0.499542
0.370279
0.377076
0.543353
0.475143
0.500880
0.574963
0.567212
0.619731
0.603072
0.712501
0.653429
0.589504
0.629256
0.632323
0.672208
0.686340
0.698921
0.789312
0.712146
0.708817
0.740266
0.737354
0.792806
0.790451
0.788591
0.692005
0.774950
0.709880
0.711996
0.675828
0.666062
0.691641
0.614237
0.558783
0.604637
0.609951
0.558213
0.502379
0.575186
0.518837
0.472678
0.481326
0.441748
0.429369
0.424258
0.395078
0.432336
0.399621
0.343538
0.303046
0.375925
0.400130
0.362290
0.288535
0.340995
0.309595
0.357021
0.353836
0.347674
0.331282
0.268514
0.315417
0.294892
0.296332
0.327804
0.308236
0.305795
0.259900
0.304970
0.332649
0.318442
0.262206
0.345797
0.272418
0.257665
0.246758
0.301334
0.284038
0.280175
0.274057
0.322126
0.284214
0.277075
0.357850
0.269469
0.274102
0.244511
0.316742
0.258309
0.330265
0.350662
0.251957
0.291538
0.256925
0.286416
0.348205
0.400670
0.341156
0.303248
0.273961
0.287135
0.263104
0.285003
0.287665
0.256137
0.323766
0.330611
0.306477
0.280769
0.370702
0.298467
0.389271
0.372950
0.291651
0.305035
0.305529
0.387663
0.415522
0.427987
0.452296
0.369465
0.465431
0.358991
0.421963
0.419443
0.432975
0.425403
0.404629
0.527549
0.468582
0.420451
0.413323
0.429292
0.428247
0.391738
0.450249
0.352016
0.381468
0.458943
0.385676
0.300759
0.357465
0.398234
0.310726
0.303129
0.289873
0.195028
0.266862
0.308645
0.299941
0.255676
0.282908
0.303462
0.287050
0.275999
0.250746
0.327138
0.330402
0.212295
0.284986
0.299667
0.478330
0.705835
0.975843
1.259426
1.415622
1.500000
1.362679
1.089469
0.787078
0.489792
0.141451
0.072682
0.097899
0.126483
0.205846
0.301422
0.235588
0.346350
0.216232
0.352614
0.329559
0.262997
0.312433
0.337345
0.291013
0.361703
0.362469
0.388609
0.363326
0.285556
0.399815
0.385604
0.441848
0.433161
0.441872
0.490802
0.514659
0.488645
0.499223
0.580780
0.555938
0.580475
0.575441
0.671373
0.593146
0.621388
0.623312
0.716653
0.696568
0.688602
0.645855
0.748499
0.749480
0.769856
0.647328
0.691352
0.647026
0.660385
0.639488
0.659315
0.664358
0.648377
0.609485
0.616337
0.613763
0.515457
0.565489
0.495357
0.482778
0.478085
0.479595
0.466290
0.455414
0.379015
0.398550
0.298553
0.408983
0.341942
0.366263
0.316102
0.290476
0.278965
0.333611
0.358160
0.288068
0.210211
0.223683
0.237361
0.313161
0.228707
0.327184
0.255202
0.232309
0.305876
0.217068
0.214695
0.224908
0.249497
0.201718
0.148451
0.239274
0.220722
0.233485
0.330411
0.198782
0.205553
0.246997
0.246805
0.189485
0.176449
0.237200
0.214311
0.252224
0.208337
0.249830
0.209806
0.174618
0.206648
0.218834
0.190837
0.209253
0.225838
0.225590
0.271483
0.209786
0.187183
0.125874
0.256368
0.259253
0.218235
0.225961
0.217636
0.308074
0.256254
0.301976
0.301400
0.201612
0.128448
0.238412
0.242935
0.140168
0.265207
0.243111
0.231730
0.228348
0.251925
0.248873
0.292858
0.344182
0.285347
0.299262
0.296987
0.345972
0.270679
0.305345
0.398198
0.393028
0.367565
0.350866
0.369472
0.338416
0.305512
0.323647
0.350194
0.368416
0.346562
0.316716
0.343295
0.311497
0.291985
0.275119
0.261364
0.333409
0.186485
0.250092
0.286949
0.254442
0.209701
0.178347
0.268859
0.198646
0.232184
0.198855
0.172452
0.173315
0.221296
0.148800
0.223825
0.102431
0.236616
0.223295
0.187767
0.250037
0.567968
0.753000
0.998556
1.332967
1.387980
1.393271
1.140341
0.769646
0.541679
0.202776
0.075372
0.035665
-0.081547
0.062374
0.230676
0.123975
0.204533
0.167964
0.180134
0.190056
0.226480
0.212003
0.218218
0.265811
0.207072
0.308474
0.338000
0.335686
0.309549
0.261779
0.371293
0.339422
0.334577
0.352514
0.385174
0.357935
0.414897
0.394313
0.447009
0.444533
0.430778
0.556719
0.467997
0.525739
0.525853
0.573341
0.625222
0.630006
0.661950
0.541031
0.631998
0.649174
0.663130
0.673631
0.627098
0.528420
0.585786
0.572965
0.547882
0.583825
0.555568
0.522898
0.566100
0.446976
0.501493
0.533066
0.445522
0.481041
0.404943
0.438238
0.463233
0.385643
0.345734
0.380668
0.305458
0.293767
0.324335
0.276751
0.241863
0.220345
0.299213
0.249106
0.233614
0.200351
0.254868
0.262060
0.248805
0.188827
0.147668
0.184973
0.173673
0.225703
0.205006
0.167380
0.151642
0.137908
0.227887
0.153145
0.154816
0.184177
0.167097
0.160976
0.194391
0.119341
0.200742
0.217393
0.185137
0.191311
0.249380
0.188357
0.208455
0.197344
0.122272
0.136099
0.188872
0.174089
0.211000
0.218059
0.190466
0.199209
0.161563
0.207552
0.136403
0.238729
0.235175
0.124150
0.132051
0.214615
0.172586
0.190186
0.183764
0.149131
0.152555
0.171745
0.201324
0.173065
0.215495
0.257528
0.269930
0.273107
0.246627
0.304840
0.222298
0.269787
0.287856
0.234534
0.184014
0.229155
0.244679
0.284109
0.278948
0.289570
0.237128
0.367974
0.333465
0.410008
0.293163
0.283708
0.390198
0.326012
0.292062
0.259352
0.303040
0.372401
0.372835
0.297389
0.315043
0.270249
0.241666
0.236864
0.273089
0.134230
0.290407
0.209792
0.241104
0.176265
0.224860
0.273265
0.166277
0.309296
0.108540
0.257072
0.169497
0.199833
0.196086
0.148408
0.148623
0.207763
0.159354
0.218169
0.254864
0.296928
0.479581
0.744668
0.961096
1.150544
1.364242
1.360230
1.220702
0.924967
0.584144
0.257492
0.092393
-0.010825
0.046584
0.067234
0.144574
0.211014
0.235208
0.219656
0.275144
0.203771
0.211940
0.203585
0.250828
0.314086
0.292983
0.269633
0.260351
0.303856
0.314677
0.289933
0.326113
0.435511
0.434254
0.424490
0.436848
0.462411
0.410003
0.534722
0.543997
0.515850
0.519746
0.566786
0.684182
0.616177
0.653997
0.674531
0.614050
0.635201
0.665853
0.658564
0.667492
0.734583
0.643605
0.669819
0.702715
0.718686
0.720057
0.652727
0.630258
0.646592
0.623126
0.671023
0.646925
0.520328
0.550893
0.518375
0.524970
0.472100
0.522088
0.457200
0.436651
0.438409
0.405503
0.390704
0.390740
0.353545
0.376498
0.357931
0.352269
0.317622
0.283358
0.293899
0.343121
0.302141
0.300719
0.301071
0.219956
0.282136
0.339436
0.298693
0.234297
0.236584
0.275378
0.295787
0.270010
0.266055
0.182542
0.180370
0.330132
0.211107
0.308118
0.316431
0.273018
0.324030
0.275987
0.302226
0.216971
0.267202
0.251331
0.257741
0.236881
0.292605
0.258250
0.237337
0.297629
0.256617
0.298529
0.272546
0.291012
0.288328
0.311500
0.295563
0.207122
0.300287
0.226272
0.280081
0.303991
0.235935
0.238899
0.282421
0.272790
0.326250
0.257786
0.295417
0.317277
0.266196
0.248412
0.287372
0.262951
0.318773
0.295099
0.368796
0.309817
0.267121
0.273019
0.413403
0.345759
0.347591
0.399305
0.405305
0.337983
0.426527
0.459992
0.430016
0.434340
0.482139
0.376978
0.447224
0.453219
0.510967
0.461511
0.405495
0.379905
0.364492
0.404764
0.395524
0.336258
0.284584
0.401341
0.394541
0.410254
0.346028
0.331457
0.336956
0.341182
0.356868
0.347090
0.291715
0.242923
0.288896
0.264880
0.355906
0.230222
0.290479
0.301990
0.262051
0.295756
0.318096
0.287775
0.302243
0.403955
0.381426
0.546433
0.732845
0.914959
1.283536
1.412495
1.468240
1.338425
1.103020
0.824426
0.438707
0.180923
0.118200
0.159098
0.122559
0.191037
0.298275
0.347682
0.351481
0.366071
0.339799
0.353585
0.394758
0.368584
0.337641
0.426383
0.392195
0.416760
0.378733
0.409095
0.405355
0.424254
0.470887
0.482317
0.538949
0.482443
0.551181
0.563185
0.553483
0.534301
0.565650
0.645943
0.651523
0.664241
0.662197
0.743134
0.741985
0.680645
0.739776
0.710151
0.727054
0.791036
0.780333
0.709822
0.815981
0.771059
0.798214
0.761480
0.763047
0.740414
0.710036
0.764924
0.643890
0.621767
0.678790
0.650922
0.640389
0.646245
0.617966
0.598831
0.506867
0.565654
0.463502
0.485223
0.475102
0.396063
0.450875
0.471430
0.429282
0.458642
0.443212
0.379622
0.410293
0.414809
0.396316
0.331486
0.366382
0.378072
0.374600
0.368339
0.394900
0.338899
0.311621
0.320351
0.311078
0.393777
0.240471
0.249639
0.392472
0.298067
0.252666
0.241951
0.299599
0.344164
0.262500
0.321564
0.301774
0.307336
0.289424
0.359659
0.367452
0.317338
0.261251
0.326418
0.270946
0.342047
0.239245
0.271739
0.289995
0.312215
0.303876
