0.006830
0.006230
0.039853
0.002139
0.010587
0.014027
0.035787
-0.018520
-0.040381
-0.015219
-0.033546
-0.033248
-0.013292
-0.019781
0.048503
0.026330
-0.040105
0.058895
0.011535
-0.011629
-0.024783
-0.015938
0.012517
0.055222
0.022327
0.044809
0.029335
-0.032521
0.036168
0.045040
0.041642
0.039582
0.019548
0.043564
0.048892
0.042363
0.114602
0.069564
0.033221
0.003680
0.003739
0.035482
0.073655
0.074581
0.012457
0.097495
0.122131
0.096232
0.048771
0.089109
0.103309
0.066576
0.131907
0.150378
0.115190
0.135417
0.178811
0.126181
0.123445
0.165120
0.195336
0.225778
0.209800
0.173952
0.162936
0.198345
0.256808
0.226785
0.166629
0.115060
0.177816
0.131662
0.116974
0.189576
0.115738
0.204678
0.087991
0.092930
0.084829
0.029364
0.048953
0.215016
0.070244
0.020932
0.060648
0.034804
0.112090
0.093872
0.025007
0.097453
0.044344
0.060859
0.099416
-0.035584
-0.057342
-0.006468
0.043456
0.088430
0.046573
0.032215
0.045000
0.153057
0.100597
0.104099
0.019900
0.057106
0.035988
0.037297
0.086907
0.059081
0.058911
0.104510
0.007801
0.035432
-0.003663
-0.093235
-0.030456
-0.042869
-0.086183
0.125737
0.248539
0.389602
0.797639
1.115732
1.302580
1.405492
1.373237
1.179599
0.927127
0.570690
0.350114
0.147852
0.014185
-0.165881
-0.245080
-0.210131
-0.291178
-0.120092
-0.060616
-0.023786
0.030473
0.107824
0.038761
0.106270
0.019586
0.114900
-0.008413
0.033559
0.000952
0.061829
-0.011407
0.062622
0.081620
0.144739
0.041847
0.072896
0.151638
0.098908
0.040943
0.094406
0.003505
0.087171
0.122076
0.070039
0.105422
0.085359
0.072490
0.132369
0.120734
0.076307
0.029793
0.174400
0.108284
0.124178
0.151015
0.236351
0.129576
0.141641
0.131720
0.276528
0.273631
0.222275
0.262187
0.311899
0.285776
0.310466
0.348701
0.433458
0.286610
0.354570
0.442103
0.474931
0.550839
0.474269
0.499412
0.526427
0.509557
0.557338
0.520931
0.564251
0.537012
0.657046
0.603838
0.616644
0.602289
0.558401
0.533288
0.548049
0.581013
0.573315
0.559756
0.506901
0.515793
0.469769
0.543803
0.400988
0.498525
0.429110
0.407899
0.340007
0.487860
0.237868
0.349727
0.226486
0.297794
0.211723
0.225346
0.173142
0.222991
0.183592
0.082202
0.209466
0.156382
0.121782
0.116733
0.112125
0.198025
0.102175
0.131752
0.099146
0.046551
0.079304
0.100043
-0.005045
0.078491
0.118519
0.107848
0.105000
0.081531
0.104292
0.070683
0.085995
0.074475
0.068274
0.035029
0.092650
0.092608
0.143303
0.016035
0.129510
0.007361
0.024332
0.011490
0.051608
0.047987
0.003579
0.128599
0.073223
-0.018288
0.091857
0.050145
0.085905
0.017500
0.072594
0.013229
0.030637
0.100691
0.017132
-0.025879
0.044773
0.029013
0.054926
0.038382
0.007457
0.087956
0.056243
0.082168
0.051916
0.065062
0.079634
0.046591
0.066078
0.036860
0.137522
0.116548
0.154328
0.027919
0.055688
0.153668
0.059978
0.103688
0.060398
0.106184
0.098189
0.047260
0.158304
0.093970
0.045125
0.081527
0.011623
-0.005940
0.022338
0.115794
0.080980
0.015477
0.058866
0.060932
0.004230
0.089112
0.038119
0.093201
0.029266
-0.016080
0.095252
0.084628
0.078725
0.085813
0.042782
0.042268
0.021378
0.068119
0.034078
0.011098
0.112098
0.034369
0.044750
0.073187
0.000136
0.077122
0.054760
0.060954
0.017724
0.050028
0.089430
0.011585
0.009283
0.090598
0.053285
0.027321
0.074509
0.121381
0.115732
0.016087
0.039949
0.095370
0.008334
-0.030976
0.135916
0.027685
0.076852
0.074267
0.068955
0.076871
0.127223
0.121420
0.126661
0.096596
0.167868
0.195535
0.134624
0.163997
0.143704
0.208174
0.185474
0.185697
0.104034
0.270452
0.100847
0.206867
0.171487
0.171704
0.111895
0.058640
0.199344
0.153242
0.152320
0.101385
0.072098
0.120332
0.114626
0.021774
0.053185
0.027533
0.008942
0.144411
0.043973
0.039532
-0.004015
-0.068787
-0.074841
0.030079
-0.056004
0.116169
-0.004723
-0.014804
0.009891
0.072073
0.005536
0.002082
0.043886
0.045439
-0.041291
0.040571
0.023134
-0.024107
-0.129582
0.011308
0.041416
-0.072229
-0.001343
-0.037056
-0.005838
0.042806
0.009983
0.039472
-0.044691
-0.061579
-0.046316
-0.125545
-0.194983
-0.174620
-0.138041
0.025372
0.333307
0.595293
0.938911
1.201644
1.385651
1.384692
1.223107
0.994327
0.639679
0.422845
0.139041
-0.077932
-0.176319
-0.339234
-0.348624
-0.323892
-0.246564
-0.232510
-0.039148
-0.038327
-0.031772
-0.062728
-0.015248
0.000360
-0.054358
-0.008685
-0.009904
-0.008291
-0.039616
-0.062023
-0.051223
-0.059332
0.016907
-0.044918
-0.059571
-0.059213
-0.038758
-0.052521
-0.039053
-0.018872
-0.042755
-0.002448
0.032997
0.006218
-0.083413
-0.025820
-0.012867
0.081589
-0.038697
0.026100
0.033809
-0.038488
0.047043
-0.005229
0.057383
0.095900
-0.001922
0.130301
0.079580
0.040321
0.167222
0.148106
0.132578
0.211945
0.191658
0.241921
0.264620
0.203151
0.271155
0.311712
0.215016
0.346407
0.408182
0.300339
0.382415
0.384350
0.393161
0.457478
0.261331
0.423438
0.433203
0.442391
0.454401
0.504722
0.498086
0.502660
0.468044
0.393436
0.470179
0.422281
0.387533
0.413137
0.418097
0.405225
0.370901
0.331641
0.281280
0.303332
0.282181
0.131424
0.217931
0.248435
0.177227
0.140524
0.151960
0.143122
0.025811
0.075533
0.015535
0.091589
0.045544
0.039335
-0.026806
0.025465
0.057957
-0.028405
-0.043430
0.023800
-0.100802
0.031761
0.023707
-0.029481
0.023984
0.020855
0.034813
-0.049504
0.005954
0.008353
-0.020086
-0.035986
0.012818
-0.080055
-0.108322
-0.080737
-0.002598
-0.046914
0.013985
-0.049623
-0.019896
-0.069730
-0.030804
-0.007800
-0.013305
-0.035360
-0.066328
-0.020960
-0.026388
-0.075929
-0.003799
-0.051642
-0.010854
-0.036858
-0.066135
-0.035027
0.005992
-0.020680
-0.082485
0.064496
-0.011619
-0.031758
-0.044312
0.037713
0.081405
-0.080894
-0.109960
-0.033840
-0.020538
0.025948
0.045016
-0.102092
0.012635
-0.037914
-0.076828
-0.005863
-0.125186
0.016788
-0.057162
-0.014452
0.022214
-0.048944
-0.017410
-0.006761
0.005611
-0.013808
-0.014007
-0.021616
-0.013342
-0.095267
-0.105153
-0.037769
-0.034047
-0.020924
0.007317
-0.048901
-0.050660
-0.041489
-0.019714
-0.019297
0.018445
-0.065527
-0.041263
-0.085812
0.005395
-0.102775
0.067353
-0.131337
-0.002881
-0.083539
-0.044318
0.007939
-0.064734
-0.017502
-0.086625
-0.075209
-0.017216
-0.039576
-0.063788
-0.064270
0.015730
-0.004594
-0.058757
0.005670
-0.103323
0.001025
-0.043426
-0.021414
0.015569
0.040611
0.035280
-0.026009
0.062263
0.074341
0.081435
-0.011976
-0.033298
0.011343
0.024027
0.099311
0.104835
0.039396
-0.001336
0.070888
0.099478
0.069397
0.076923
0.104583
0.056667
0.034099
0.200960
0.154218
0.125389
0.167450
0.146107
0.158139
0.180164
0.169815
0.150727
0.166952
0.156172
0.080455
0.123707
0.134252
0.155305
0.093189
0.091808
0.066407
0.097404
0.104157
0.096476
0.104830
0.061230
0.026908
0.018598
0.041146
0.023658
-0.015490
-0.022763
0.033682
0.009163
0.091050
-0.025808
0.023684
-0.018146
-0.068296
0.015731
0.051177
0.009433
-0.004192
-0.023728
0.018850
0.075747
-0.038368
-0.003359
0.026218
0.044147
-0.037352
-0.069844
0.147660
-0.026178
0.073415
0.048497
0.039691
-0.056068
0.060667
0.003679
-0.010858
-0.010408
-0.041735
-0.095614
-0.099042
-0.126845
-0.013775
0.272307
0.452757
0.778266
1.128942
1.339944
1.500000
1.299088
1.185351
0.817107
0.561182
0.319156
0.101901
-0.094124
-0.242693
-0.316235
-0.327019
-0.243625
-0.117262
-0.057210
-0.054781
0.071988
0.038116
0.049435
0.012564
0.067469
0.094974
0.056153
0.067764
0.039694
-0.030077
0.126786
0.114246
-0.002852
-0.026951
-0.001225
0.085217
0.011917
0.020382
0.101261
0.110910
0.068215
-0.034581
0.040845
0.005447
0.046115
0.100346
0.123678
0.017786
0.048832
0.065889
0.104499
0.101802
0.099176
0.069006
0.066938
0.104816
0.147165
0.133106
0.176876
0.182779
0.183302
0.229028
0.274791
0.334151
0.281940
0.311380
0.289820
0.322561
0.393933
0.412913
0.413209
0.426424
0.519043
0.413396
0.421382
0.421632
0.479635
0.537487
0.545578
0.519419
0.525555
0.561462
0.533027
0.542316
0.536310
0.539813
0.568648
0.554504
0.530554
0.557248
0.449313
0.537714
0.457204
0.441914
0.429253
0.441082
0.431791
0.428073
0.393984
0.364330
0.393067
0.354667
0.339939
0.337404
0.244805
0.242853
0.278111
0.214916
0.139937
0.130466
0.179912
0.166641
0.108929
0.184369
0.122957
0.093291
0.070029
0.110446
0.093277
0.144619
0.175972
0.160117
0.079775
0.087609
0.044317
0.113091
0.087884
0.067189
0.102168
0.146768
0.050802
0.078810
0.093584
0.039468
0.110323
0.103579
0.066691
0.027919
0.122573
0.076016
0.040393
0.162379
0.091643
0.118635
0.077455
0.106907
0.115334
0.017649
0.068445
0.043503
0.061840
0.096677
0.065293
0.027586
0.129799
0.127985
0.091712
-0.003922
0.113970
0.068394
0.131978
0.031033
0.052681
0.091488
0.092948
0.079655
0.047416
0.132408
0.131887
0.056493
0.175071
0.142214
0.042902
0.044497
0.087340
0.092898
0.090929
0.165708
0.041551
0.079921
0.065575
0.109264
0.109070
0.067667
0.070684
0.096586
0.032358
0.072127
0.035186
0.080860
0.067739
0.053376
0.116749
0.146855
0.089201
0.140299
0.100985
0.037222
0.077466
0.075047
0.098413
0.080468
0.104452
0.106205
0.142607
0.107427
-0.014200
0.052681
0.031305
0.130679
0.064367
0.182161
0.060135
0.070441
0.122099
0.087019
0.088679
0.077076
0.045171
0.083614
0.033368
0.051378
0.085697
0.048344
0.060017
0.128361
0.151593
0.058208
0.064278
0.084170
0.103479
0.047111
0.130965
0.137975
0.062460
0.094877
0.107340
0.064968
0.042805
0.128507
0.075756
0.203754
0.197900
0.219356
0.200805
0.133973
0.192812
0.197931
0.270834
0.181448
0.238821
0.205186
0.181088
0.246809
0.174396
0.216457
0.259602
0.216902
0.311820
0.311877
0.202476
0.229567
0.220926
0.108126
0.175984
0.189166
0.145388
0.036136
0.139066
0.159769
0.166726
0.184345
0.057541
0.198916
0.168062
0.148494
0.111567
0.081205
0.077381
0.046039
0.108286
0.088283
0.101017
0.109214
0.096315
0.032342
0.045206
0.051825
0.031089
0.122404
0.070619
0.056010
0.092740
0.082499
0.110932
0.040011
0.056920
0.119534
0.023837
0.028678
0.045455
0.039085
0.004064
0.098055
-0.011841
0.040150
0.047506
-0.025423
-0.015833
-0.061475
-0.104692
0.055179
0.127762
0.357672
0.620881
0.933420
1.296653
1.427643
1.446630
1.288962
1.011741
0.719934
0.470802
0.254031
0.035406
-0.212313
-0.187755
-0.357061
-0.331406
-0.218325
-0.135901
-0.063676
-0.037335
0.012667
0.079124
0.105321
0.105646
-0.022334
0.010987
0.007455
0.093661
0.032196
0.085504
0.033442
0.069720
0.091947
0.048974
0.010450
0.067063
0.029062
0.030026
0.053333
0.030341
0.015679
0.013992
-0.001128
-0.018462
-0.003557
0.078508
0.034387
0.013145
0.091923
0.109602
0.010160
0.092872
0.060570
0.103323
0.121303
0.178994
0.139375
0.170515
0.095121
0.136052
0.136246
0.211088
0.215332
0.215666
0.225134
0.304974
0.295153
0.275226
0.259018
0.330273
0.250228
0.313033
0.377570
0.476769
0.493894
0.436962
0.511995
0.480603
0.465859
0.507818
0.519458
0.542908
0.444117
0.495266
0.494957
0.451855
0.471813
0.469150
0.441292
0.462588
0.453091
0.387390
0.399872
0.442714
0.434907
0.390581
0.276402
0.294474
0.305684
0.230327
0.242348
0.136180
0.195373
0.280276
0.161527
0.273713
0.135617
0.142230
0.095825
0.061359
0.151571
0.027793
0.067401
0.071140
0.025466
0.010809
-0.008591
0.041835
-0.012578
0.054564
-0.035169
-0.000821
0.016939
0.026398
0.002948
-0.014628
0.043318
0.013043
0.045187
-0.024907
0.026514
-0.070459
-0.021770
-0.009535
0.002517
0.021284
-0.075120
0.032221
-0.050661
-0.070971
-0.022491
-0.043035
-0.007957
0.070265
-0.014567
0.030627
-0.041593
-0.011054
-0.046577
-0.024607
-0.092085
-0.012968
-0.102118
-0.066073
-0.072211
-0.081293
-0.001260
-0.060857
-0.027860
-0.092432
-0.110018
-0.071283
-0.047975
-0.064574
0.003396
0.038020
-0.035957
-0.015348
-0.081613
-0.034827
-0.018367
-0.075002
-0.071100
-0.098773
0.009852
-0.119692
0.050449
-0.029697
0.004603
-0.094421
-0.048487
-0.108427
-0.007389
-0.097565
-0.066973
-0.071430
-0.034944
-0.096752
-0.040616
-0.141595
0.031636
-0.032652
0.020494
-0.051818
-0.028630
0.001501
-0.010799
-0.055002
-0.102353
-0.122176
-0.022872
-0.013219
-0.010706
-0.111303
-0.015246
-0.129866
-0.026743
-0.010877
-0.059514
-0.104254
-0.055751
-0.008623
-0.082693
-0.113986
-0.087174
-0.142579
-0.081463
-0.021560
-0.038697
-0.077240
-0.106203
-0.059039
-0.087801
-0.095104
-0.069956
-0.056580
-0.073535
-0.097621
-0.106783
-0.065014
-0.044355
-0.070857
-0.035984
-0.090380
-0.035760
-0.058392
-0.026709
-0.037107
-0.012853
-0.034501
-0.020912
-0.055113
0.041896
0.073044
0.072181
-0.024591
0.061644
0.113713
0.037378
0.143922
0.104336
0.113792
0.018503
0.140916
0.035244
0.066709
0.080984
0.077133
0.087539
0.074159
0.057932
0.052080
0.025408
0.056497
-0.029181
0.097275
-0.004772
-0.022638
0.042892
-0.033768
0.013473
-0.022713
-0.031672
-0.055084
-0.003601
-0.077353
-0.068251
-0.059884
-0.142449
-0.068416
-0.109248
-0.044687
-0.035889
-0.066701
-0.086694
-0.059113
-0.027856
-0.067774
-0.055696
-0.115625
-0.021478
-0.016799
-0.025065
-0.133395
-0.053124
-0.105077
-0.064845
-0.139952
-0.077857
-0.053372
-0.100201
-0.108591
-0.085208
-0.094943
-0.118849
-0.073775
-0.094716
-0.134839
-0.156417
-0.215116
-0.157957
-0.084725
0.009617
0.415493
0.699373
1.015057
1.139700
1.258313
1.233848
1.051288
0.731563
0.453668
0.208329
-0.082536
-0.129201
-0.410523
-0.426925
-0.442431
-0.360113
-0.291619
-0.177572
-0.158082
-0.125852
-0.101508
-0.020570
-0.103031
-0.131370
0.015198
-0.084767
-0.126817
-0.116037
-0.044868
-0.044634
-0.056429
-0.043497
-0.100113
-0.072678
-0.069096
-0.040583
-0.026840
-0.085351
-0.103067
-0.069437
-0.034310
-0.019695
-0.065607
-0.030962
-0.032083
-0.098290
-0.076047
-0.001804
-0.067506
-0.091009
-0.020301
-0.031405
-0.024196
0.062191
0.055991
0.013618
0.010584
0.031744
0.115489
0.089299
0.113537
0.161532
0.121432
0.179470
0.113256
0.196736
0.216665
0.271560
0.293468
0.319232
0.357888
0.321594
0.342598
0.335141
0.393419
0.354214
0.401468
0.344595
0.446378
0.453066
0.450297
0.416839
0.412111
0.408086
0.469559
0.431822
0.429413
0.410042
0.359564
0.375687
0.416125
0.368693
0.340647
0.367459
0.315492
0.232059
0.361498
0.273867
0.181592
0.245568
0.174629
0.228933
0.095791
0.152967
0.158073
0.140675
0.087456
0.061495
0.085208
0.027596
0.106441
0.095003
0.034789
0.010007
0.065057
0.053789
0.028266
0.011769
-0.033145
-0.011961
0.012922
-0.000962
0.046081
-0.024027
-0.065765
0.021159
-0.073797
-0.059851
-0.063527
-0.041969
-0.035770
-0.048496
0.002494
-0.041540
-0.082088
-0.059789
-0.028155
-0.063142
-0.039729
-0.053725
-0.000412
0.043276
-0.042931
-0.073461
-0.055765
0.063396
-0.088824
-0.074969
-0.070624
-0.006555
-0.073551
-0.009196
-0.014776
-0.014338
0.045648
0.009387
0.009231
-0.006378
-0.006263
0.019632
-0.095669
0.074421
-0.049109
0.001652
-0.010387
-0.011440
0.053390
-0.030048
-0.089214
0.020186
0.029003
0.010387
0.054642
0.034785
-0.077240
0.081227
0.000585
0.012686
0.005642
0.022728
-0.034146
0.075713
0.053011
0.059766
0.035780
0.034257
-0.002753
-0.067021
0.003554
0.010633
-0.009281
-0.032692
-0.015901
-0.027064
0.062011
-0.080347
0.007096
-0.022905
0.066927
0.071708
0.066256
0.004154
-0.021761
-0.016534
-0.008502
-0.016859
0.028305
-0.028428
-0.059983
0.022299
-0.101745
-0.015898
0.031016
0.045733
-0.004053
0.010747
0.031834
0.023606
0.011523
0.012924
0.010827
0.027880
0.147722
0.030714
-0.006888
0.017014
0.059692
0.000682
0.114187
0.038669
0.002443
-0.039728
0.108606
0.004602
0.068517
0.049291
-0.011374
0.061814
0.097690
0.098970
0.023430
0.084457
0.072888
0.079488
0.029464
0.187169
0.073995
0.215273
0.108693
0.188385
0.148691
0.124932
0.223128
0.180100
0.144091
0.286468
0.161141
0.196673
0.189623
0.188645
0.181412
0.208611
0.205331
0.227520
0.070895
0.161288
0.062419
0.137847
0.096988
0.034588
0.071029
0.084386
0.112626
0.062973
0.101090
-0.005832
0.068403
-0.012032
0.076851
-0.011801
0.024455
0.051384
-0.018210
0.048345
0.108835
0.056569
-0.020418
0.130605
0.018841
0.029996
0.131887
0.055243
-0.012771
0.027596
0.035757
0.033458
0.129643
0.004787
0.010582
0.097877
-0.031979
0.007945
0.004852
-0.029003
0.009333
0.008193
-0.013522
-0.079412
-0.114694
-0.058521
-0.004459
0.090477
0.323151
0.632048
0.980002
1.214036
1.462155
1.427122
1.314171
1.017787
0.764846
0.501610
0.111574
-0.003357
-0.141419
-0.246121
-0.286357
-0.279483
-0.186572
-0.115637
-0.029550
-0.026684
0.037529
-0.007113
-0.007922
0.088013
0.065725
0.085077
0.010015
0.069436
0.053037
0.051084
0.030408
0.069398
0.071405
0.018878
0.016968
0.015498
-0.012483
0.122445
0.008692
0.028194
0.030678
0.153980
0.149878
0.011608
0.071649
0.026448
0.116576
0.132495
0.073841
0.073798
0.129767
0.149680
0.061331
0.119438
0.141672
0.136989
0.149051
0.180263
0.185888
0.091908
0.185014
0.322024
0.234479
0.311754
0.256903
0.305371
0.284480
0.262321
0.283092
0.352674
0.442611
0.412506
0.461880
0.465345
0.434330
0.482194
0.456102
0.586962
0.424459
0.469075
0.598903
0.497339
0.495371
0.584287
0.535214
0.536858
0.495182
0.478050
0.416016
0.470431
0.429572
0.465770
0.468685
0.364120
0.395522
0.394988
0.383149
0.428229
0.414499
0.231698
0.260031
0.267571
0.292439
0.294208
0.232910
0.202645
0.195999
0.178821
0.076486
0.104507
0.129097
0.068133
0.057772
0.065981
0.161620
0.094250
0.063519
0.025867
-0.021921
0.007189
0.024604
0.068920
0.016316
0.054371
0.018460
0.083583
0.024867
0.024217
-0.044717
0.061918
0.013842
-0.008051
0.063550
-0.007757
0.020906
0.022110
0.088140
0.020039
0.023678
0.019818
-0.016690
-0.041408
-0.007514
0.076918
-0.004951
-0.033453
0.033816
0.083475
0.047765
0.100287
0.073143
-0.050584
0.004846
-0.028571
0.002472
0.035684
0.035774
-0.000610
-0.062155
-0.020548
0.004204
0.055004
-0.039014
-0.003397
-0.012902
-0.015892
0.003141
0.061002
-0.022127
0.021170
0.024082
0.052127
-0.040039
-0.022823
-0.046021
-0.032931
-0.050097
-0.036615
-0.034258
0.055093
-0.076395
-0.004555
0.035863
0.039352
0.052840
-0.108575
-0.008997
-0.028336
-0.018238
-0.078865
-0.054745
-0.024501
-0.065813
0.032911
-0.002634
0.007352
0.007959
-0.059216
-0.161490
0.015959
-0.036352
-0.027375
-0.021481
0.028449
-0.062144
-0.085740
-0.023138
-0.040940
0.019576
-0.034048
0.002536
-0.019973
0.007501
-0.102440
-0.010961
-0.059110
-0.135191
0.028986
-0.042198
-0.034009
-0.035953
0.012295
-0.083595
-0.062801
-0.066926
-0.049123
0.002451
-0.030364
-0.082726
0.016198
-0.063947
0.036470
-0.056711
-0.005162
-0.075655
0.001614
-0.070590
0.018681
0.031758
0.054928
-0.000670
0.035167
0.043879
0.035460
0.010230
-0.001422
0.112576
0.087824
0.102006
0.088433
0.115914
0.132431
0.085649
0.126319
0.065814
0.132423
0.077065
0.217309
0.114975
0.126733
0.150994
0.094957
0.052916
0.028011
0.055612
0.073103
0.083266
0.038527
0.064311
-0.002536
-0.036784
-0.046413
-0.004175
0.000154
-0.032215
-0.040407
-0.001946
-0.053522
-0.026461
-0.044213
-0.026636
-0.052355
-0.083170
-0.020978
-0.037273
-0.110347
-0.065004
-0.066790
-0.092143
-0.033237
-0.055284
-0.022357
-0.022979
-0.156176
-0.083923
-0.044980
-0.084307
-0.131099
-0.113443
-0.021364
-0.120566
-0.067701
0.003968
-0.044194
-0.074430
-0.060550
-0.042804
-0.188516
-0.210929
-0.226304
-0.227441
-0.072944
0.065206
0.331164
0.632028
0.981357
1.243065
1.333145
1.195765
1.042487
0.773502
0.480300
0.205313
-0.090483
-0.204563
-0.322614
-0.422132
-0.379458
-0.381341
-0.222690
-0.254372
-0.122765
-0.117929
-0.090269
-0.071816
-0.092087
-0.156452
-0.057398
-0.089021
-0.091728
-0.108065
0.031487
-0.160352
-0.126584
-0.106190
-0.089609
0.009432
-0.091077
-0.070575
0.007834
-0.109868
-0.022019
-0.050549
-0.079935
-0.108329
-0.063083
-0.104420
-0.074710
-0.042194
-0.078688
-0.053135
-0.080430
-0.041947
-0.082048
-0.124510
-0.002519
-0.080103
-0.025664
0.070629
0.030918
0.049378
0.005988
0.047086
0.018730
0.032065
0.112964
0.183906
0.171080
0.170144
0.192191
0.193158
0.193866
0.199139
0.344342
0.318856
0.256950
0.366869
0.347933
0.386978
0.354063
0.444199
0.301095
0.337511
0.334274
0.369654
0.390024
0.401455
0.413714
0.416271
0.364168
0.421150
0.390778
0.390212
0.291078
0.315991
0.318362
0.266650
0.243277
0.257364
0.246726
0.238168
0.124200
0.206325
0.185559
0.150618
0.169237
0.089206
0.050620
0.026558
0.042333
0.021895
-0.011868
-0.000277
-0.078044
-0.001319
-0.031724
-0.039224
-0.041395
-0.086533
-0.010132
-0.066619
-0.049752
-0.023330
-0.090161
-0.066333
-0.123023
-0.058058
-0.148411
-0.122895
-0.117077
-0.097593
-0.060547
-0.087550
-0.107841
-0.125307
-0.157427
-0.104081
-0.060571
-0.034668
-0.049693
-0.049775
-0.067366
-0.117504
-0.052815
-0.070417
-0.101446
-0.021503
-0.079291
-0.081178
-0.067167
-0.098777
-0.063090
-0.114405
-0.084652
-0.143210
-0.130916
-0.047455
-0.053713
-0.021222
-0.166917
-0.004721
-0.070533
-0.076237
-0.082887
-0.047288
-0.141372
-0.003953
-0.061692
-0.055228
-0.105905
-0.087897
-0.068520
-0.120227
-0.062117
-0.030705
-0.036329
-0.040249
-0.067481
-0.064715
-0.025944
-0.111583
-0.042770
-0.017634
-0.071720
-0.074508
-0.064100
-0.090763
-0.059772
-0.019526
-0.078297
-0.119677
-0.116996
-0.025135
-0.028341
-0.050946
-0.070789
0.005526
-0.065680
-0.010799
-0.091574
-0.102211
-0.014399
-0.007809
-0.063502
-0.053190
-0.130216
-0.001319
-0.045944
-0.069632
0.006981
-0.003992
-0.121980
-0.032609
-0.086840
-0.060990
-0.039604
-0.058984
-0.057260
-0.043827
0.007176
-0.084083
-0.085570
-0.075561
-0.091267
-0.020908
-0.054395
-0.113174
-0.091531
0.044706
0.003851
-0.011526
-0.013927
-0.066850
-0.002557
-0.080217
-0.034748
0.023749
0.021773
-0.038865
0.002903
0.049456
0.055716
0.030209
0.030444
0.018288
0.027473
0.055682
0.078953
0.129858
0.052728
0.128272
0.128127
0.043296
0.126147
0.071547
0.064980
0.140797
0.179734
0.175072
0.147069
0.179391
0.110935
0.100989
0.100035
0.078495
0.124771
0.069754
0.118347
0.065010
0.010950
0.057556
0.018425
0.008039
-0.059388
-0.018644
0.031811
-0.006555
0.092268
0.021744
0.065458
-0.019555
0.028717
0.023786
0.060609
-0.004159
0.055835
0.027564
-0.011667
0.056447
0.043114
-0.015476
0.025007
-0.051594
0.022547
-0.032580
-0.087973
-0.002431
0.040933
-0.017638
-0.129551
-0.038805
-0.040721
0.011372
0.030794
-0.024447
-0.009782
0.043953
-0.029213
0.052836
0.020566
-0.057699
-0.098479
-0.177222
-0.096113
0.052056
0.296672
0.709258
0.900717
1.139379
1.345032
1.435044
1.207349
0.981135
0.629096
0.360412
0.180882
-0.036879
-0.156676
-0.314074
-0.302401
-0.347026
-0.302225
-0.115246
-0.054329
0.056177
-0.009252
0.094354
0.091540
0.008836
0.130930
0.013616
0.018258
0.032980
0.087484
-0.013140
0.075034
0.002337
0.044779
0.070415
-0.019391
-0.017311
0.077345
0.060192
0.030123
0.060648
0.037072
0.017225
0.026741
0.074324
0.057712
0.015546
0.060318
-0.015013
0.154222
0.058987
0.098530
0.106027
0.149484
0.103608
0.089718
0.143159
0.099871
0.191398
0.124977
0.188504
0.246762
0.185820
0.167967
0.242405
0.251062
0.313849
0.321232
0.390976
0.326325
0.240294
0.355829
0.316131
0.466465
0.452912
0.456396
0.479688
0.490737
0.441985
0.505535
0.542628
0.486036
0.479047
0.504231
0.488603
0.535589
0.591264
0.538969
0.556730
0.528294
0.522363
0.450489
0.476030
0.381988
0.433232
0.377876
0.324618
0.316069
0.334153
0.377444
0.264937
0.302658
0.287971
0.282953
0.198810
0.150926
0.172380
0.211999
0.225950
0.213381
0.192977
0.103332
0.102738
0.116314
0.099361
0.028098
0.096339
0.100373
0.072030
0.099190
0.070977
0.021558
0.093590
0.044979
0.036456
0.044287
0.042569
0.058393
0.083511
0.101271
0.068976
0.007782
0.029435
0.040573
0.031637
0.114235
0.026308
0.063370
0.113481
0.026135
-0.018971
0.126221
0.023206
0.034966
0.008900
0.101827
0.118667
0.105465
0.028847
0.110359
0.104758
0.090354
0.120455
0.106907
0.050185
0.101351
0.098331
-0.001800
0.081361
0.075775
0.029257
0.024992
0.085403
0.017204
0.126826
0.061608
0.089042
0.045574
0.069733
0.134727
0.109401
0.025816
0.052275
0.072635
0.059347
0.054926
0.053904
0.047695
0.193166
0.081487
0.043159
0.140066
0.079312
0.084466
0.013358
0.033207
0.041315
-0.015434
0.132336
0.099130
0.106933
0.129483
0.014397
