0.033554
0.049284
0.112274
0.018198
-0.004774
-0.010375
-0.012811
0.058435
-0.073110
0.014608
0.039167
0.088770
0.128799
0.072554
0.089204
0.113944
-0.009879
0.060920
0.096383
0.026752
0.047972
0.057016
0.097551
0.095053
0.047328
0.190944
0.135988
0.121592
0.040766
0.153517
0.125508
0.192932
0.143175
0.163413
0.248839
0.231498
0.193649
0.204164
0.255317
0.249155
0.227988
0.190707
0.221490
0.166638
0.147798
0.102048
0.139820
0.170232
0.132905
0.071016
0.143841
0.131099
0.091081
0.164194
0.040097
0.068810
0.082726
0.039108
0.079505
0.039247
0.065188
0.125893
-0.005739
0.014890
0.084441
0.015029
0.123859
0.015882
0.055558
0.075693
0.046234
0.112720
0.187242
0.426822
0.706810
1.026431
1.339618
1.381804
1.315810
1.013471
0.719197
0.308360
0.009202
-0.145521
-0.172065
-0.194163
0.003680
-0.007795
-0.036328
0.074071
0.129150
0.104416
0.155990
0.159333
0.035507
0.066879
0.181225
0.121153
0.267489
0.208289
0.163333
0.173327
0.196901
0.124162
0.293022
0.238658
0.288974
0.366078
0.280370
0.360052
0.383359
0.337646
0.316884
0.480064
0.459400
0.473803
0.566494
0.495318
0.484790
0.495924
0.529457
0.620929
0.474696
0.590113
0.493256
0.526007
0.601985
0.621524
0.584349
0.498824
0.501060
0.563288
0.512702
0.517487
0.557541
0.540684
0.376175
0.374434
0.335300
0.408433
0.439653
0.372255
0.394805
0.354149
0.329887
0.293543
0.230667
0.186488
0.222170
0.254920
0.255630
0.201410
0.129159
0.196904
0.225738
0.125969
0.162078
0.127310
0.164914
0.132539
0.146839
0.198422
0.178283
-0.000958
0.110711
0.147867
0.064809
0.187872
0.079624
0.060036
0.159215
0.080416
0.111689
0.112734
0.059819
0.057087
0.067206
0.074818
0.042850
0.057325
0.046152
0.085166
0.076325
0.165317
0.143766
0.040386
-0.015517
0.046564
0.202628
0.104031
0.070973
0.059797
0.086650
0.026496
0.053740
0.075114
0.017002
0.122065
0.083384
0.137924
0.054824
0.117245
0.097144
0.128054
0.080425
0.034613
0.126840
0.008244
0.090202
0.141489
0.148626
0.087990
0.078581
0.107950
0.173290
0.110611
0.217459
0.170900
0.201471
0.156754
0.275047
0.234321
0.123102
0.230245
0.162759
0.257568
0.268604
0.192609
0.243793
0.244853
0.299870
0.318910
0.278586
0.207208
0.260327
0.249374
0.269271
0.183515
0.153786
0.220908
0.177020
0.155971
0.121087
0.219184
0.140845
0.150170
0.129050
0.151655
0.113122
0.195793
0.067303
0.114860
0.140159
0.156809
0.085661
0.050264
0.129506
0.090294
0.075371
0.032551
0.125180
0.094948
0.068170
0.091484
0.199530
0.395748
0.635854
0.979436
1.201476
1.447430
1.317744
1.239832
0.751685
0.567021
0.175005
-0.050672
-0.192568
-0.151478
-0.068055
-0.013841
-0.000271
0.108199
0.071995
0.108889
0.125772
0.084027
0.103595
0.076725
0.071861
0.118800
0.128620
0.131614
0.086841
0.208792
0.201950
0.236683
0.183445
0.243080
0.301026
0.311853
0.312355
0.301375
0.401416
0.388892
0.368100
0.408528
0.412302
0.511532
0.439697
0.484364
0.518151
0.602210
0.464710
0.527883
0.549382
0.566344
0.587257
0.526411
0.585415
0.514626
0.516733
0.500375
0.552432
0.498187
0.507186
0.357585
0.501041
0.420510
0.483642
0.487278
0.407550
0.290195
0.473541
0.272568
0.278064
0.309333
0.299861
0.235116
0.218837
0.267840
0.262893
0.215163
0.135031
0.127917
0.146205
0.074996
0.094699
0.167420
0.149458
0.128775
0.107778
-0.022756
0.075586
0.003779
0.067901
0.062515
0.035836
0.034869
-0.027456
0.076480
0.154977
0.045076
-0.005499
0.021312
0.018290
0.027571
-0.015336
0.108981
-0.010751
0.120346
0.017491
0.117823
0.071990
0.003357
0.010379
0.091863
0.060262
0.034732
0.044851
-0.001822
-0.019209
0.069251
0.011954
0.041016
0.020512
0.053349
-0.072706
0.042407
0.038209
0.017313
-0.029613
0.007256
-0.022618
0.077752
0.013170
-0.004656
-0.040980
0.012905
0.099301
0.115718
0.061996
0.071730
0.016947
0.024524
0.015959
0.070729
0.049971
0.076917
0.117098
0.064578
0.155265
0.122629
0.094850
0.152711
0.149879
0.101719
0.195956
0.135597
0.205828
0.159296
0.113707
0.199754
0.153269
0.163630
0.201123
0.199047
0.167446
0.157338
0.146465
0.210224
0.116556
0.161740
0.137740
0.118374
0.035762
0.053173
0.060887
-0.022026
0.018770
0.062669
0.050332
-0.025668
-0.075235
0.101127
0.026894
-0.037944
0.012885
0.000853
0.023267
-0.023267
-0.046725
-0.014929
0.017014
-0.003311
-0.082726
-0.104365
0.099298
0.223667
0.478509
0.828399
1.105330
1.286054
1.418875
1.185747
0.818071
0.501702
0.121501
-0.074781
-0.248617
-0.195749
-0.194117
-0.066325
-0.085313
-0.023538
-0.012243
0.002311
-0.013192
0.052354
0.096524
0.005543
0.084920
-0.000333
0.097682
0.078313
0.036284
0.058367
0.188578
0.135672
0.110491
0.185882
0.225253
0.224288
0.162144
0.174998
0.315175
0.260289
0.374049
0.262042
0.407542
0.338079
0.427801
0.391953
0.396990
0.380338
0.504147
0.442412
0.353702
0.471558
0.533727
0.555565
0.532219
0.510884
0.418390
0.424919
0.438334
0.449036
0.407826
0.428902
0.370462
0.341996
0.369435
0.345182
0.244385
0.348947
0.291764
0.243174
0.282517
0.188336
0.231008
0.198437
0.138423
0.168794
0.075631
0.128478
0.171276
0.072131
0.082269
0.023538
0.005874
-0.008038
-0.022595
0.020790
0.036321
0.050982
0.008332
0.044549
-0.056082
-0.025624
0.048533
-0.084237
-0.050441
-0.114571
-0.038941
0.018942
-0.051080
-0.020815
-0.002952
-0.012008
-0.058524
-0.091419
-0.019872
-0.027855
-0.074506
0.006803
0.002843
-0.013742
-0.050780
-0.099210
0.024827
-0.059969
0.007112
-0.035400
0.044197
0.013044
-0.099296
0.019851
-0.013070
-0.075542
-0.004339
-0.123436
-0.006862
-0.029057
-0.037044
0.021644
-0.026857
0.022985
-0.088608
-0.034033
-0.041872
-0.032984
-0.039389
-0.012649
-0.050897
-0.016390
0.013154
0.031211
-0.008384
-0.034824
0.051132
0.042719
0.045952
-0.021509
0.021949
-0.003921
0.030790
0.091673
0.029249
0.101579
0.074451
0.091314
0.030886
0.163436
0.084392
0.225077
0.056197
0.098337
0.100587
0.126668
0.036429
0.007977
0.104011
0.134229
0.116852
0.105006
0.034812
0.116500
0.034909
0.058817
0.032787
0.029663
0.024235
0.047088
-0.013229
-0.068654
0.055377
0.014276
-0.090409
0.018017
-0.018405
-0.001597
-0.035546
-0.010491
-0.021775
-0.055354
-0.078770
-0.014901
-0.052217
-0.088214
0.034590
0.192008
0.355481
0.723761
1.031918
1.242825
1.313893
1.255648
0.945130
0.627847
0.270053
-0.035103
-0.227746
-0.282724
-0.208731
-0.129499
-0.017957
0.023061
0.019025
0.022727
-0.011812
0.005132
-0.020903
0.064881
0.031865
0.128087
0.116508
0.148809
0.140089
0.098380
0.137560
0.157849
0.136607
0.189648
0.219846
0.197602
0.217845
0.221682
0.312062
0.287071
0.221446
0.394908
0.305980
0.391699
0.353629
0.405624
0.455144
0.475586
0.479274
0.487505
0.477342
0.481842
0.443298
0.433680
0.513093
0.465302
0.435043
0.530982
0.439163
0.515784
0.443473
0.450239
0.385600
0.460782
0.400407
0.424940
0.402903
0.292859
0.354053
0.296616
0.333592
0.331657
0.267843
0.264831
0.215223
0.122610
0.138658
0.097165
0.220808
0.117394
0.138488
0.088268
0.130900
0.084893
0.129635
0.049477
0.106089
0.106150
0.097445
0.051485
0.075076
0.006434
0.010828
0.036989
-0.002506
0.036035
0.046217
0.041227
0.028974
-0.024145
0.043176
0.003212
0.014224
-0.003795
0.020914
0.007490
-0.000459
0.064091
0.077737
0.053592
0.058037
0.089463
-0.021193
0.071684
-0.010656
0.033751
0.037757
0.000344
0.132221
0.011279
-0.015431
0.072905
0.033967
0.087273
0.146999
0.110671
0.060120
0.039134
0.019163
0.111557
0.097780
0.073737
-0.009952
-0.005635
0.111800
0.083384
0.097351
0.056158
0.074024
0.062023
0.076853
0.121048
0.086127
0.127339
0.054139
0.069581
0.127115
0.088420
0.090737
0.115873
0.097848
0.211326
0.250879
0.241542
0.242182
0.201236
0.250337
0.176820
0.245549
0.201872
0.256156
0.228093
0.289592
0.176584
0.234194
0.199407
0.164085
0.102884
0.228956
0.250969
0.174621
0.133814
0.071260
0.053524
0.121594
0.143211
0.049470
0.142828
0.106331
0.012919
0.100334
0.075524
0.127227
0.033122
0.052991
0.120163
0.040622
0.077741
0.083671
0.126758
0.053802
0.043733
0.111481
0.238580
0.400544
0.717756
0.966366
1.265917
1.458199
1.406186
1.171818
0.890367
0.421563
0.054906
-0.115142
-0.124441
-0.170203
-0.092331
0.038119
0.130694
0.039205
0.027506
0.107334
0.148759
0.116284
0.207772
0.154104
0.203237
0.213501
0.132315
0.224880
0.202798
0.137746
0.219816
0.255669
0.335056
0.253626
0.299994
0.283933
0.338861
0.356583
0.414011
0.317169
0.464974
0.374241
0.478507
0.463413
0.469940
0.525837
0.543901
0.535490
0.528630
0.613688
0.543786
0.613623
0.532873
0.622384
0.656361
0.585523
0.573957
0.513661
0.548377
0.601794
0.507521
0.470323
0.491123
0.496149
0.468940
0.462524
0.432322
0.439100
0.377017
0.385607
0.343980
0.275792
0.333981
0.296359
0.242897
0.212028
0.237589
0.228794
0.224470
0.204732
0.169341
0.126611
0.118238
0.159963
0.192478
0.236102
0.069853
0.112551
0.128711
0.085865
0.150792
0.129109
0.035823
-0.034408
0.042018
0.101799
0.060739
0.091274
0.162470
0.174627
0.061844
0.042078
0.153968
0.042740
0.048982
0.116970
0.081672
0.155037
0.084974
0.122700
0.076166
0.151837
0.099608
0.022664
0.153043
0.144322
0.068757
0.058733
0.081245
0.125490
0.089908
0.098406
0.096410
0.045580
-0.010839
0.060044
0.024136
0.053387
0.074838
0.181556
0.105967
0.060154
0.168246
0.064398
0.082866
0.068057
0.074918
0.125176
0.116933
0.152563
0.132582
0.083863
0.126027
0.150984
0.193704
0.081627
0.195485
0.180973
0.200063
0.151941
0.252545
0.159015
0.221497
0.217150
0.188931
0.233690
0.267896
0.269082
0.227212
0.301528
0.258151
0.268881
0.182099
0.138273
0.232357
0.216099
0.156326
0.222401
0.220946
0.129795
0.155278
0.039072
0.104961
0.099147
0.146031
0.054447
0.100271
0.099369
0.173729
0.130032
0.139241
0.116888
0.107413
-0.008575
0.047087
0.064063
0.102533
0.151705
0.079946
0.108491
0.043478
0.198454
0.186089
0.432468
0.655864
0.807117
1.222378
1.403830
1.319875
1.231503
0.973502
0.614963
0.159485
-0.016263
-0.143715
-0.061386
-0.087465
0.075263
-0.027838
0.077889
0.096604
0.095733
0.089605
0.112455
0.102197
0.141156
0.211351
0.131146
0.161257
0.139271
0.162773
0.174638
0.139931
0.191875
0.314773
0.277485
0.278654
0.269434
0.338230
0.334972
0.338595
0.482727
0.376925
0.428496
0.457706
0.398374
0.390168
0.409171
0.494341
0.452424
0.444047
0.545680
0.541206
0.469270
0.570689
0.425808
0.563331
0.573304
0.522222
0.501035
0.517863
0.472073
0.486475
0.493811
0.465431
0.437064
0.398843
0.439405
0.280191
0.294824
0.337711
0.372004
0.275870
0.247688
0.270558
0.315448
0.244561
0.189746
0.176826
0.220016
0.215473
0.131220
0.097844
0.065492
0.171984
0.061412
0.067428
0.078104
0.096529
0.065430
0.098076
0.024880
0.071619
0.070864
-0.052073
-0.029131
0.108403
0.029052
0.009946
0.071718
0.032534
0.029048
0.004289
0.118156
0.031246
0.032176
0.025594
0.009962
-0.013653
0.002734
0.047247
-0.008435
-0.021958
-0.067920
-0.027494
0.041164
-0.030977
-0.006618
-0.083509
-0.043365
-0.025488
0.007926
-0.004017
-0.049538
0.037265
0.009613
-0.014402
-0.022474
-0.059823
0.059410
-0.021744
-0.066895
0.012226
0.024379
-0.014973
0.066076
0.032667
-0.047131
0.051004
0.010914
0.045545
0.035298
0.030337
-0.059182
0.099092
0.020075
-0.039525
0.101408
0.009392
0.032945
0.080735
0.210748
0.098594
0.161361
0.103474
0.129166
0.111497
0.098764
0.223741
0.169515
0.178068
0.091348
0.126119
0.075006
0.033403
0.096919
0.075609
0.023746
0.029138
0.066528
0.099491
0.041985
0.078175
0.074316
0.104660
0.089810
0.021688
-0.064670
-0.089324
0.019879
-0.035247
0.014768
0.032866
0.029496
-0.001679
-0.090191
-0.002533
-0.034672
0.004616
-0.035926
-0.069380
0.050480
-0.090489
-0.075740
0.025608
0.160966
0.305648
0.654372
1.057132
1.177377
1.297645
1.145640
0.912147
0.595658
0.172264
-0.112765
-0.181419
-0.286255
-0.256603
-0.136362
-0.145433
-0.086212
-0.016017
-0.023427
-0.096039
-0.003322
0.047558
0.033218
-0.002513
0.019180
0.007546
0.096517
0.010333
0.067035
0.055045
0.158470
0.038900
0.093295
0.151625
0.158930
0.103815
0.196957
0.215704
0.299695
0.217335
0.254045
0.311767
0.235295
0.353838
0.381736
0.377981
0.424148
0.398507
0.346269
0.418995
0.398211
0.458898
0.479781
0.462081
0.510232
0.444556
0.415595
0.403403
0.372937
0.361341
0.370132
0.276932
0.239099
0.238411
0.322504
0.405704
0.283994
0.237322
0.196982
0.213832
0.252101
0.122813
0.187520
0.179421
0.080912
0.087735
0.053535
0.012264
0.048566
0.012574
0.076331
-0.014739
-0.064431
-0.006238
0.034056
-0.017228
-0.060711
0.021390
-0.052312
0.020544
-0.025357
-0.038439
-0.032894
-0.059567
-0.118548
-0.056764
-0.070703
-0.046493
-0.056613
-0.089213
-0.037514
-0.098343
-0.055144
-0.039377
-0.102732
-0.037806
-0.095205
-0.022155
-0.110686
-0.105418
-0.122037
-0.120133
-0.133620
-0.088733
-0.060094
-0.027150
-0.125569
-0.066455
-0.021444
-0.067083
-0.063112
0.032190
-0.043639
-0.065619
-0.098790
-0.149106
-0.117443
-0.073486
-0.082780
-0.059656
-0.045642
-0.102113
-0.042965
-0.015133
-0.022939
-0.063935
-0.041622
-0.046767
-0.044803
-0.072351
-0.031040
-0.004597
0.034062
0.026072
-0.048228
0.005258
0.002045
0.055647
-0.002877
0.013647
0.034631
0.065913
0.065480
0.123065
0.088531
0.025974
0.142197
0.099320
0.009133
0.116951
0.088383
-0.003898
0.104464
0.105233
0.078811
0.082772
0.048347
0.000567
0.048950
0.015408
0.024894
-0.043387
0.056633
-0.010178
-0.082020
0.019736
-0.083079
-0.012172
-0.043410
-0.040253
-0.023666
-0.110513
0.007908
0.013413
-0.096832
-0.083692
-0.052008
-0.049403
-0.087065
-0.083047
-0.103705
-0.016488
0.117390
0.361534
0.572505
0.902144
1.167184
1.224845
1.217451
0.989235
0.700777
0.311621
0.080485
-0.190771
-0.200141
-0.255151
-0.123169
-0.140647
-0.007311
-0.077329
-0.045752
0.020138
-0.011512
0.008205
-0.033539
-0.019188
0.022923
0.035161
0.105405
0.035692
0.077390
0.028931
0.106850
0.039453
0.129878
0.112865
0.162552
0.140250
0.243020
0.250730
0.351117
0.291121
0.312217
0.304332
0.347907
0.262815
0.375609
0.332339
0.371190
0.385541
0.357408
0.439613
0.519602
0.440604
0.449371
0.495550
0.526242
0.453382
0.475857
0.458145
0.414383
0.429356
0.389983
0.445425
0.413736
0.407128
0.451035
0.346400
0.278185
0.299980
0.252807
0.309125
0.295382
0.210395
0.178204
0.177299
0.165758
0.212645
0.064522
0.065247
0.126526
0.138282
0.130493
0.054551
0.142517
0.055992
0.013928
0.068989
0.104381
-0.000553
0.066441
0.043615
-0.095244
-0.040746
-0.011543
-0.019813
-0.014658
-0.044931
-0.040219
-0.038016
-0.075723
-0.045847
-0.009288
0.064884
-0.005486
0.004180
0.052159
-0.084300
-0.000501
-0.063296
-0.021049
0.065825
-0.096910
-0.081836
0.025087
-0.055642
0.003376
0.028346
0.022584
-0.044565
0.068213
0.005859
-0.003358
-0.112974
-0.017327
-0.013716
0.005685
-0.005821
0.008333
0.000735
0.024607
0.007016
0.063141
-0.032156
-0.034569
0.001896
0.023956
0.030904
0.014310
0.085030
0.016167
0.044627
0.004189
0.065996
0.062054
0.102754
0.101653
0.066070
0.063892
0.117696
0.067026
0.073929
0.186606
0.176730
0.021013
0.067368
0.202060
0.199629
0.188984
0.153310
0.132832
0.142809
0.207474
0.199082
0.201803
0.170157
0.100994
0.188518
0.110697
0.065064
0.133548
0.123908
0.116068
0.075378
0.044053
0.016065
0.071272
0.171621
0.081624
0.108576
0.042087
0.051498
-0.000717
0.061238
0.014044
0.099864
0.012170
0.052134
0.025758
0.039741
-0.000469
-0.066441
0.078195
0.047849
0.208081
0.352282
0.635684
0.891696
1.190247
1.347328
1.500000
1.232575
0.832104
0.491939
0.157751
-0.088526
-0.154351
-0.224614
-0.107561
-0.111027
0.018564
0.005393
0.028329
0.113436
0.063166
0.038609
0.041474
0.172362
0.075293
0.155540
0.164705
0.138265
0.161195
0.157937
0.221929
0.195343
0.237966
0.233344
0.285070
0.264886
0.332692
0.328500
0.313059
0.452752
0.386531
0.387096
0.389330
0.486564
0.463682
0.463848
0.430750
0.418860
0.485737
0.522362
0.504718
0.488182
0.594885
0.566492
0.498745
0.590334
0.507177
0.515608
0.509027
0.488453
0.485079
0.527746
0.521147
0.465027
0.503372
0.389715
0.420330
0.357115
0.349677
0.378433
0.328483
0.356134
0.255694
0.251754
0.258767
0.274274
0.126390
0.218310
0.185007
0.199560
0.150714
0.111137
0.144627
0.180610
0.102537
0.132953
0.169116
0.090267
0.061569
0.108459
0.115086
0.066872
0.022977
0.032975
0.029726
0.045171
0.137077
0.120808
0.090666
-0.000744
0.064240
0.034302
0.061427
0.048570
0.047225
-0.014936
-0.019200
0.014599
0.060993
-0.004249
0.135122
0.020283
0.010606
0.060558
0.095215
0.027278
0.091693
0.102709
0.031735
-0.011326
0.011223
0.108351
0.052723
0.040014
-0.034404
0.014309
-0.015711
0.118003
0.016999
-0.023972
0.086071
0.021094
0.012695
-0.000161
0.037389
0.051792
0.044538
0.018555
0.019363
-0.023290
0.091410
0.031430
0.086124
0.088349
0.063852
0.055364
0.079133
0.122149
0.147323
0.144188
0.185493
0.133875
0.073590
0.211041
0.192663
0.204342
0.224155
0.249168
0.128926
0.157001
0.234948
0.221287
0.179763
0.192769
0.177246
0.217950
0.185736
0.148053
0.122117
0.045959
0.141210
0.184908
0.161706
0.032455
0.107049
0.013027
0.086057
0.036569
0.096937
0.177804
0.070849
-0.009261
0.056401
0.135126
0.015669
0.072564
0.023947
-0.073405
0.034299
-0.092307
-0.008935
-0.012795
0.065139
0.265613
0.434135
0.761207
1.066300
1.251057
1.325201
1.270551
0.955632
0.559133
0.268840
0.096598
-0.172222
-0.177639
-0.130244
-0.066978
0.033259
0.085079
0.045576
0.006468
0.023710
-0.019608
0.091441
0.046222
0.120410
0.066500
0.137958
0.064347
0.137065
0.138022
0.139017
0.134645
0.211173
0.162098
0.159079
0.256647
0.242026
0.247606
0.293063
0.356105
0.289302
0.331892
0.387332
0.420472
0.327533
0.415557
0.447923
0.408547
0.494712
0.457372
0.534838
0.502059
0.534904
0.504689
0.579184
0.503901
0.489263
0.501809
0.453461
0.568254
0.463335
0.385597
0.458395
0.393806
0.403655
0.390084
0.287452
0.383816
0.309131
0.272629
0.227068
0.271739
0.209996
0.227999
0.268476
0.147420
0.123814
0.170648
0.070174
0.051176
0.110902
0.060104
0.017408
0.050349
0.037866
0.016726
0.072150
0.093112
0.016075
-0.009855
-0.072026
0.021345
0.012915
-0.044746
0.058538
-0.085472
-0.061307
0.024703
-0.039009
0.023918
-0.043112
-0.028615
0.000897
0.028248
-0.054202
0.023715
-0.030250
0.050525
0.026734
-0.044957
0.009645
-0.067003
-0.107629
-0.037179
-0.051850
-0.022295
-0.042767
-0.021697
-0.063073
0.028591
-0.080492
-0.082253
-0.038646
0.016776
-0.099200
-0.044789
-0.058157
-0.095817
-0.020554
-0.048114
-0.077021
0.008056
-0.014147
-0.115108
-0.111288
-0.038325
-0.068350
-0.003107
0.017959
-0.064759
-0.041696
-0.088921
-0.011970
0.011867
0.010890
-0.041341
0.000453
0.062489
0.041388
0.008578
0.043849
0.041528
0.062546
0.123729
0.063857
0.142693
0.139569
0.098916
0.103094
0.121217
0.092803
0.117394
0.074968
0.040244
0.103632
0.075689
0.132754
-0.017159
0.046473
0.032044
0.001645
-0.006460
0.033197
-0.018513
0.003017
0.072840
0.052610
-0.010782
-0.123684
-0.020401
-0.014299
-0.013324
-0.086065
-0.143794
-0.026396
-0.020760
-0.021983
-0.114410
-0.084278
-0.124866
-0.130527
-0.056720
0.016762
0.055296
0.275034
0.659119
0.842886
1.086576
1.278203
1.159163
0.952051
0.676724
0.274921
-0.098624
-0.197828
-0.340739
-0.235418
-0.305754
-0.121187
-0.097144
0.012457
-0.016249
-0.029531
-0.056858
-0.018427
0.012569
0.014784
-0.008864
-0.032671
0.041919
0.036358
0.068204
0.058163
0.034503
0.057336
0.044157
0.077277
0.177877
0.165953
0.118346
0.160421
0.158556
0.261046
0.225243
0.313889
0.341062
0.253520
0.319474
0.295435
0.385462
0.352728
0.411705
0.378476
0.372076
0.393247
0.365680
0.333853
0.419889
0.445432
0.384481
0.352140
0.429809
0.322863
0.375725
0.369226
0.365507
0.291468
0.312877
0.317392
0.329033
0.216226
0.230105
0.255662
0.158287
0.141108
0.068629
0.150906
0.128991
0.169006
0.101885
0.102203
-0.032961
-0.004037
0.066991
0.018089
-0.010736
0.007221
-0.037544
-0.035102
-0.102662
-0.041153
-0.100078
-0.116968
-0.107187
-0.084990
-0.042072
-0.030151
-0.134715
-0.087844
-0.148018
-0.008443
-0.110356
-0.080267
-0.121721
-0.123318
-0.118220
-0.113436
-0.172808
-0.153414
-0.103369
-0.083594
-0.128478
-0.061424
-0.092608
-0.174467
-0.108317
-0.090503
-0.052552
-0.066038
-0.041652
-0.075731
-0.050352
-0.105895
-0.115150
-0.134456
-0.090269
-0.071596
-0.135963
-0.105209
-0.118207
-0.081717
-0.024121
-0.057445
-0.072919
-0.134890
-0.113495
-0.039931
-0.113254
-0.059721
-0.101002
-0.073413
-0.099822
-0.111883
-0.106837
-0.001074
-0.084644
-0.031448
-0.057141
0.036146
-0.070934
-0.048603
-0.008175
0.031373
0.051152
-0.014443
0.015783
0.000170
0.040277
0.107500
0.098698
0.081285
0.074346
0.157664
0.082235
0.124719
0.041645
0.053002
0.067021
0.113397
0.144108
0.052548
0.044166
0.051333
0.024632
0.047421
0.049493
-0.030706
-0.034992
-0.067201
0.003269
0.048076
-0.063547
-0.178411
-0.114507
0.024922
0.011428
-0.031660
-0.059364
-0.003499
-0.125860
-0.099498
-0.130796
-0.047781
-0.112675
-0.086003
0.057476
0.221148
0.415187
0.816948
1.135662
1.300363
1.300357
1.008134
0.712187
0.462611
0.037107
-0.134076
-0.259779
-0.242123
-0.160174
-0.044791
-0.093961
-0.050656
0.016225
-0.027904
-0.001459
-0.075743
-0.000644
-0.015584
0.035071
0.053330
0.033796
0.069186
0.094841
0.089265
0.094370
0.064397
0.138690
0.214080
0.175237
0.192018
0.158310
0.229498
0.256781
0.312233
0.326911
0.327849
0.331294
0.307965
0.318492
0.315417
0.347315
0.366273
0.466440
0.467166
0.460649
0.400800
0.413182
0.469707
0.490659
0.426335
0.510764
0.495964
0.495439
0.470509
0.432068
0.338273
0.402913
0.364346
0.303458
0.308033
0.352046
0.289247
0.246492
0.228168
0.183426
0.165946
0.227083
0.189632
0.233525
0.210006
0.167119
0.079381
0.129213
0.099454
0.030133
0.075391
0.031922
-0.069260
0.063247
0.004876
0.035342
-0.006942
0.044798
0.051794
0.022545
-0.037096
0.022613
0.028566
-0.028378
-0.015861
0.010441
0.031883
0.019495
0.050976
0.004429
0.034316
-0.044072
0.033887
0.005053
0.018088
0.057827
-0.043995
0.011871
-0.070552
0.026571
0.023822
0.045866
-0.065612
-0.017350
-0.003695
0.054168
0.081906
-0.035770
0.022836
0.071707
0.034626
-0.020257
0.048639
-0.065386
-0.016482
0.096792
0.018485
-0.013828
0.037743
-0.025608
-0.028082
0.069910
0.014616
-0.058304
0.011001
0.122990
0.049771
0.064826
-0.039187
0.082178
0.018574
0.113010
0.075365
0.075756
0.111435
0.099605
0.175928
0.144979
0.120284
0.184765
0.179496
0.149895
0.207165
0.251007
0.178353
0.181061
0.195904
0.181937
0.228993
0.214209
0.240512
0.181546
0.224797
0.279195
0.138935
0.177759
0.153318
0.102124
0.182946
0.132181
0.123701
0.060122
0.092207
0.113482
0.090892
0.107600
0.063287
0.100290
0.065634
0.079163
0.053130
0.105150
0.049706
0.094471
0.000750
0.085413
0.046003
0.083177
-0.024470
0.106863
0.098822
0.142939
0.285012
0.478742
0.840628
1.139525
1.351531
1.346000
1.249742
0.957328
0.523040
0.248211
-0.033916
-0.169376
-0.160122
-0.145956
-0.100903
0.010232
-0.048446
0.028199
0.041051
0.075071
0.081996
0.066552
0.101549
0.076851
0.121638
0.106177
0.122127
0.169482
0.137357
0.260457
0.210700
0.233431
0.219818
0.259387
0.245851
0.276240
0.362476
0.361419
0.341069
0.332752
0.465746
0.433213
0.419624
0.507178
0.537146
0.488821
0.423408
0.578903
0.481231
0.565573
0.560606
0.520984
0.673434
0.558756
0.633330
0.539610
0.578385
0.597539
0.451222
0.543786
0.537709
0.455323
0.538121
0.440011
0.454859
0.473851
0.368940
0.401744
0.324221
0.321457
0.323184
0.297424
0.261248
0.273734
0.195564
0.223639
0.219947
0.160059
0.176149
0.248375
0.163928
0.203662
0.161112
0.087235
0.130775
0.111981
0.210888
0.139689
0.115987
0.098095
0.078860
0.095895
0.066628
0.188856
0.052663
0.096059
0.104145
0.101426
0.107243
0.036946
0.062300
0.098518
0.032768
0.105612
0.069030
-0.022215
0.063507
0.016735
0.076577
0.033379
0.142025
0.116223
0.024119
0.101787
0.103403
0.105514
0.052420
0.029457
0.066833
0.053817
