0.011356
0.002599
0.029884
0.012925
0.047784
0.031431
-0.082649
-0.000184
0.060082
-0.019164
-0.050656
0.002795
0.013031
-0.014445
-0.009388
-0.001441
0.034841
-0.000235
0.001927
0.093831
0.036177
0.048405
0.063474
0.009995
0.030688
0.102573
0.061021
0.028342
0.016908
0.039621
0.103566
0.117387
0.100251
0.175423
0.065963
0.203697
0.209281
0.266301
0.236524
0.190654
0.118491
0.218720
0.164537
0.199705
0.177681
0.206009
0.167729
0.243133
0.170351
0.154658
0.073028
0.152777
0.188815
0.133928
0.019159
0.148641
0.105577
0.061496
0.123640
0.080377
0.037827
0.087301
0.119023
0.115560
0.107816
0.033907
0.059447
0.094428
0.045758
0.054517
0.009646
0.051011
0.024836
0.040071
0.071918
0.020267
0.065672
0.054334
-0.043312
-0.043832
0.020676
0.024214
0.273157
0.433465
0.779066
1.030877
1.265610
1.357768
1.352091
1.066591
0.817786
0.436330
0.163618
-0.087069
-0.193735
-0.213973
-0.130725
-0.085093
-0.053768
0.011494
0.147715
0.100771
0.080788
0.034621
0.127722
0.027071
0.157106
0.060441
0.110667
0.105284
0.063981
0.105608
0.143654
0.111870
0.165549
0.127941
0.164169
0.257622
0.224986
0.257992
0.215605
0.188366
0.226656
0.299405
0.305543
0.332023
0.336782
0.360521
0.358186
0.436560
0.455034
0.516468
0.506477
0.473742
0.381883
0.618925
0.495134
0.552059
0.610823
0.593307
0.479484
0.537378
0.652321
0.533171
0.561623
0.635209
0.578256
0.542427
0.556715
0.485571
0.521042
0.484953
0.430887
0.552476
0.418393
0.488536
0.440394
0.366622
0.317635
0.326223
0.258429
0.252450
0.306711
0.332362
0.250303
0.229149
0.321301
0.157369
0.057191
0.250998
0.092794
0.207187
0.156937
-0.013246
0.122296
0.107145
0.108206
0.128524
0.111835
0.126243
0.077434
0.082160
0.084122
0.118242
0.112433
0.076320
0.194472
0.069706
0.104110
0.110680
0.091071
0.093797
0.051810
0.073172
0.128264
0.069787
0.085562
0.014709
0.105015
0.170403
0.091532
0.085025
0.140414
0.071546
0.058421
0.122643
0.049301
0.028161
0.014611
0.151691
0.019598
0.092877
0.053138
0.090543
0.092596
0.131603
0.151107
0.071225
0.035867
-0.007630
0.087750
0.050913
0.173507
0.118046
0.110001
0.122245
0.099668
0.112155
0.057722
0.082355
0.136992
0.051838
0.100056
0.054196
0.105867
0.012890
0.096575
0.022214
0.112523
0.134789
0.065940
0.020835
0.014820
0.069874
0.105928
0.125224
0.195643
0.179311
0.276060
0.122738
0.231655
0.197219
0.214876
0.229280
0.161927
0.171937
0.219882
0.238033
0.282657
0.269215
0.259334
0.217419
0.335769
0.239119
0.270962
0.245756
0.201819
0.145707
0.141469
0.108595
0.209045
0.174673
0.193324
0.183172
0.128456
0.245939
0.106067
0.134288
0.006374
0.123562
0.035584
0.088143
0.055789
0.130134
0.087125
0.106354
0.074689
0.076099
0.096610
-0.007643
0.005134
0.065573
0.023551
0.102716
0.029120
0.033317
0.046925
0.072092
-0.007802
0.148739
0.360188
0.615429
1.029720
1.205484
1.361271
1.380603
1.237693
0.928578
0.567466
0.272967
-0.043738
-0.229273
-0.257558
-0.236946
-0.065699
-0.023385
0.056055
0.042502
-0.016993
0.099271
0.004589
0.048845
0.153279
0.118329
0.138284
0.064807
0.129514
0.114784
0.132025
0.037189
0.210978
0.138354
0.210281
0.122762
0.107725
0.162972
0.259790
0.222112
0.198434
0.243968
0.306955
0.360549
0.373184
0.330229
0.285742
0.344384
0.364999
0.350548
0.455013
0.462029
0.415138
0.520016
0.504460
0.465233
0.435798
0.567292
0.507987
0.533231
0.456666
0.479764
0.588586
0.500324
0.595074
0.477469
0.535165
0.487936
0.506438
0.521917
0.460624
0.495481
0.416063
0.379100
0.328796
0.348375
0.349102
0.356706
0.309932
0.292220
0.269395
0.252361
0.208038
0.224638
0.199398
0.164219
0.141162
0.106351
0.055769
0.057993
0.066910
0.141270
0.067266
0.116136
0.029323
0.049937
0.105722
0.017176
0.086260
0.095419
-0.024813
-0.032807
-0.000467
0.034558
0.029422
0.041787
0.103996
0.043997
-0.025635
0.059344
-0.001285
0.023759
-0.011363
-0.028399
-0.048272
-0.023918
-0.081878
0.006927
0.037509
0.006616
-0.006246
-0.001283
-0.015737
-0.008236
0.073750
-0.041255
-0.086644
-0.006819
-0.033203
0.013344
0.002890
-0.031329
0.020335
-0.012745
-0.036219
-0.020196
0.021848
0.006968
0.025680
-0.037472
-0.066413
0.028764
-0.016867
-0.062716
0.056056
-0.033373
0.017844
-0.037764
-0.011144
-0.065438
0.070738
-0.025284
0.020596
0.005367
-0.014629
0.010792
-0.021965
0.000731
-0.026933
-0.007241
0.013869
-0.015243
0.006681
0.035087
0.023171
-0.033302
-0.016578
0.087710
0.064290
0.108999
0.075247
0.107185
0.163171
0.112629
0.116538
0.117688
0.187833
0.124194
0.164023
0.216015
0.152281
0.202259
0.040286
0.196752
0.072459
0.121384
0.136987
0.154859
0.100785
0.072012
0.078419
0.042977
-0.001168
0.047619
-0.049130
0.077019
0.023116
0.005845
0.072720
-0.026219
0.017130
-0.017743
-0.024772
0.017164
-0.064157
0.015702
-0.029699
0.052901
0.024549
-0.015510
0.009666
-0.023591
-0.048678
-0.004130
-0.101933
-0.087588
-0.053819
-0.028755
0.019299
0.119509
0.448122
0.723385
1.115809
1.346211
1.355495
1.188244
0.883694
0.588402
0.227206
-0.068323
-0.157266
-0.288292
-0.315651
-0.282621
-0.175522
-0.111418
-0.077251
-0.014032
-0.049484
-0.081272
-0.002405
0.016971
-0.024934
0.032398
-0.075289
-0.070678
0.022564
0.088225
0.004334
0.048697
0.051861
0.104071
0.016183
0.064393
0.081936
0.135720
0.139188
0.170361
0.154556
0.187622
0.166331
0.275719
0.128058
0.228480
0.242490
0.334182
0.365807
0.337797
0.399879
0.289475
0.377040
0.442993
0.447392
0.388394
0.435279
0.484511
0.471308
0.509634
0.463713
0.502920
0.509900
0.440274
0.371100
0.443739
0.345082
0.448479
0.374301
0.293173
0.365825
0.328957
0.347826
0.304668
0.246066
0.260002
0.294696
0.259205
0.170388
0.231705
0.150243
0.125022
0.159253
0.100861
0.091955
0.085863
0.094319
0.064499
0.101997
0.032410
0.080263
0.051816
-0.084143
-0.022889
0.044015
0.018806
0.050325
0.033065
-0.056188
-0.035602
0.012032
-0.060103
-0.064347
0.003173
0.033148
-0.035324
-0.076018
-0.098324
0.048429
-0.018265
-0.019273
0.036890
-0.023874
-0.022751
-0.024301
-0.050023
-0.024943
0.024597
-0.028731
-0.116869
-0.015275
-0.064504
-0.026344
0.011540
-0.047216
-0.067696
0.010481
-0.023361
-0.108780
-0.053903
-0.049915
-0.047590
-0.051704
-0.020105
-0.110909
0.021835
0.036399
-0.068836
-0.006559
-0.019396
0.018566
-0.031980
-0.028384
-0.047192
0.004561
-0.011726
-0.022032
-0.002530
-0.030887
-0.074105
0.011680
-0.016552
-0.085960
0.001611
0.022780
-0.042562
-0.025615
-0.032029
0.020806
-0.010672
-0.088028
0.020441
0.008587
0.038310
0.060200
0.004033
0.051062
0.028619
0.091071
0.041550
0.194651
0.090396
0.204045
0.105102
0.164304
0.143240
0.241618
0.145631
0.208825
0.142001
0.182515
0.182467
0.248382
0.139456
0.136428
0.118206
0.074680
0.105727
0.144349
0.134877
0.021999
0.131790
0.098834
0.039118
0.009055
0.050263
0.026714
0.097936
0.009059
0.070475
-0.007366
0.011438
0.052537
0.022476
0.075173
-0.024434
0.000047
0.005680
0.009498
-0.011557
0.011672
0.028504
0.020761
0.117050
-0.022449
-0.092875
-0.022764
-0.004372
0.146425
0.426971
0.654004
0.939027
1.230282
1.388765
1.325677
1.091589
0.910110
0.479152
0.217342
-0.073641
-0.189461
-0.277038
-0.238376
-0.120536
-0.031131
0.016003
0.024510
0.143683
0.079266
0.010481
0.103445
0.070027
0.111650
0.071622
0.092192
0.145059
0.116667
0.109454
0.035383
0.122074
0.171740
0.197197
0.121913
0.112841
0.201576
0.156107
0.136671
0.254830
0.225787
0.212585
0.262837
0.262924
0.420303
0.404376
0.365624
0.446073
0.386877
0.396030
0.471051
0.464986
0.448975
0.492119
0.561791
0.509254
0.482914
0.537629
0.544485
0.529751
0.598380
0.516153
0.537013
0.533043
0.585270
0.522134
0.476170
0.497593
0.405300
0.422079
0.529800
0.455684
0.442676
0.428980
0.327990
0.391224
0.387999
0.334195
0.296538
0.198945
0.223640
0.248527
0.283774
0.182826
0.197279
0.183581
0.127776
0.180647
0.178657
0.180844
0.154739
0.101421
0.168218
0.152424
0.029386
0.113445
0.047549
0.151178
0.061710
0.005611
0.104664
0.057707
0.052872
-0.000092
0.029333
0.035376
0.088153
0.112173
-0.011910
-0.000997
0.042595
0.083177
0.016599
0.026641
0.008471
-0.042529
0.112887
0.061043
0.120047
0.097413
0.005536
0.070359
0.025352
0.059264
0.075747
0.059903
0.116023
0.071116
0.068115
0.077554
0.041201
0.102438
-0.042398
0.075541
0.049044
0.137414
0.040707
0.058952
0.108432
0.084494
0.186271
0.047254
0.016737
0.131054
0.127648
0.074202
0.109049
0.109662
0.130079
0.074386
0.099970
0.119354
0.056781
0.043768
0.055132
0.109617
0.067973
0.102612
0.079368
0.070746
0.097059
0.066514
0.166822
0.126981
0.133581
0.188922
0.189861
0.160371
0.248744
0.117223
0.081051
0.284770
0.247824
0.279201
0.228225
0.259690
0.285123
0.258907
0.264182
0.299704
0.281231
0.313704
0.266508
0.202535
0.253707
0.237131
0.257062
0.184901
0.161254
0.201980
0.136592
0.195622
0.086043
0.228193
0.153717
0.078355
0.147821
0.116626
0.162031
0.168662
0.110560
0.122068
0.059717
0.084370
0.133902
0.107347
0.059985
0.088089
0.065269
0.120191
0.121560
0.063459
0.088236
0.096133
0.048372
0.000040
0.021872
0.300446
0.366544
0.539789
0.901278
1.152632
1.350157
1.500000
1.300370
0.974357
0.652713
0.247463
-0.032682
-0.128579
-0.200837
-0.144295
-0.052757
0.002246
0.084279
0.059127
0.083395
0.159683
0.091979
0.144122
0.106622
0.160783
0.153183
0.077951
0.198436
0.148610
0.128964
0.161410
0.172348
0.210531
0.211600
0.303524
0.167085
0.224389
0.254958
0.180756
0.238668
0.230741
0.362189
0.334819
0.326614
0.460932
0.370459
0.434827
0.396334
0.426806
0.491617
0.398233
0.560604
0.524290
0.585778
0.559075
0.492073
0.553113
0.607730
0.557633
0.613351
0.611574
0.644532
0.467200
0.624891
0.546567
0.562480
0.462069
0.525754
0.500782
0.530820
0.420690
0.428554
0.481400
0.442267
0.455106
0.465445
0.359668
0.368219
0.351294
0.271290
0.251470
0.282265
0.222261
0.215196
0.196900
0.173559
0.107765
0.122636
0.088992
0.151291
0.165921
0.090230
0.091986
0.100942
0.124102
0.066567
0.064469
0.087208
0.106985
0.093702
0.074348
0.057314
0.094861
0.109441
0.004498
-0.001885
0.088951
0.100294
0.065551
0.088553
0.054065
0.103435
0.106451
0.107758
0.004572
-0.008864
0.034779
0.074890
0.034607
0.033483
0.110010
0.031674
0.068143
0.035335
0.053277
0.092717
-0.028786
0.045504
0.043702
-0.038859
0.102120
0.026816
0.071498
0.024032
0.054577
0.022908
0.055667
0.088761
0.068266
0.090905
0.039652
0.089944
0.083771
0.071446
0.045790
0.036684
0.027725
0.104265
0.080957
0.055216
-0.002200
0.026784
0.072294
0.072779
0.023494
0.049654
0.029298
0.113388
0.090925
0.037384
0.049659
0.145212
0.115147
0.057877
0.029139
0.052042
0.054699
0.162543
0.206288
0.105956
0.123300
0.141577
0.134640
0.117718
0.211234
0.189851
0.144875
0.135800
0.194796
0.135642
0.135279
0.154358
0.153377
0.202753
0.187229
0.155035
0.205023
0.096309
0.081913
0.125160
0.128761
0.080307
0.158941
0.087217
0.114202
0.083443
0.063541
0.045349
0.085209
0.014672
0.035981
-0.024935
0.003279
0.007276
0.019802
0.048589
0.076163
0.026668
-0.006384
0.021511
-0.004890
0.000428
0.067752
-0.006063
-0.044869
-0.032230
-0.043541
0.059100
0.124600
0.310150
0.607643
1.056611
1.232214
1.314876
1.267639
0.969416
0.624953
0.292917
0.053634
-0.164710
-0.297524
-0.221210
-0.217761
-0.137820
-0.102147
-0.019712
-0.008745
-0.038437
0.013244
0.040044
0.028717
0.012905
0.006886
-0.042131
0.053686
0.009264
0.043418
0.024154
0.077206
0.063440
0.018531
0.094815
0.132950
0.104483
0.143064
0.134200
0.198148
0.078332
0.221629
0.235633
0.192935
0.264262
0.266541
0.290208
0.296153
0.264147
0.351453
0.350952
0.218197
0.328730
0.358051
0.453901
0.463645
0.419065
0.414179
0.475197
0.469861
0.401022
0.450278
0.429079
0.382368
0.467743
0.406159
0.450467
0.399070
0.357279
0.421823
0.317124
0.298291
0.347548
0.333894
0.234367
0.257047
0.257096
0.190093
0.232879
0.084986
0.170567
0.076619
0.164072
0.101680
0.028744
0.051224
0.135487
0.074604
0.031661
-0.019239
0.030431
-0.024728
-0.003340
-0.000540
-0.076806
-0.107464
-0.121964
-0.031005
-0.015752
0.001953
-0.039292
-0.050013
-0.076330
-0.034081
-0.049378
-0.029475
-0.043860
-0.054678
-0.018105
-0.101916
-0.036055
-0.039028
-0.033783
-0.059425
-0.024822
-0.011153
-0.053029
-0.128516
-0.027480
-0.093868
-0.023785
-0.059955
-0.089217
-0.162405
0.023501
-0.092530
-0.054848
-0.079962
-0.116423
-0.045388
-0.043300
-0.080289
-0.076442
-0.068302
-0.137704
-0.100854
-0.078240
-0.028328
-0.074916
-0.133160
-0.117360
-0.097958
-0.085033
-0.153736
-0.055782
-0.032795
-0.124222
-0.054670
-0.064211
-0.097450
-0.120991
-0.028469
-0.093601
-0.047723
-0.040102
0.008511
-0.039759
-0.065168
-0.143004
-0.081367
-0.027744
-0.140933
-0.031119
-0.005569
0.002229
-0.049379
-0.088902
0.040014
-0.000751
0.040223
0.063114
0.035523
0.022112
0.098127
0.051871
0.044344
0.060327
0.135638
0.085945
0.131272
0.008945
0.076366
0.171386
0.139207
0.088004
0.083277
0.052126
-0.042579
0.038509
0.041490
-0.004628
0.042778
-0.009183
-0.036696
-0.031490
-0.006220
-0.064327
-0.012457
-0.068395
-0.015682
0.024701
-0.063364
-0.096364
-0.067040
-0.017294
-0.049347
-0.045583
-0.107932
-0.098806
-0.051856
-0.102877
-0.112973
-0.072070
-0.071730
0.029982
-0.150486
-0.093485
-0.068973
0.012681
0.255864
0.515780
0.898901
1.141425
1.292054
1.299857
1.038708
0.723747
0.465032
0.026171
-0.125319
-0.290962
-0.343195
-0.305913
-0.171975
-0.168004
-0.121813
-0.050891
-0.048861
-0.132487
-0.024360
-0.075010
-0.041465
-0.038217
-0.020960
-0.116226
-0.025209
0.029528
-0.053556
0.010468
0.069085
0.071586
0.039414
0.025795
0.053359
0.059380
0.079461
0.074638
0.149700
0.119040
0.229706
0.191671
0.198293
0.279718
0.302611
0.246834
0.340698
0.235502
0.282942
0.255652
0.311374
0.374372
0.260123
0.391465
0.399103
0.418196
0.437707
0.468556
0.503320
0.454113
0.464607
0.434420
0.471868
0.435899
0.461511
0.465213
0.351985
0.378959
0.404491
0.331384
0.298037
0.285281
0.305778
0.311172
0.235657
0.252749
0.224992
0.166798
0.133985
0.107193
0.064538
0.173206
0.042623
0.087332
0.078877
0.045220
0.008169
0.030379
-0.025707
-0.004161
-0.064009
0.031303
-0.022579
-0.069053
-0.047584
-0.062926
-0.026867
-0.024525
0.001701
0.002171
0.015824
0.015014
0.001885
-0.043411
0.016703
-0.016633
-0.037520
-0.006149
-0.040420
-0.038921
-0.040904
-0.009692
-0.063142
-0.047170
-0.070672
-0.023219
-0.054270
-0.090435
-0.031230
-0.040350
-0.014932
-0.050786
-0.040531
0.007308
-0.002950
-0.032461
-0.058647
-0.009536
0.007070
0.037181
-0.010972
-0.022073
0.009667
0.017129
-0.044439
-0.000669
-0.068638
-0.018029
-0.118523
0.040311
-0.040578
-0.063288
0.023400
-0.030964
0.035440
0.041010
-0.000787
-0.043408
0.058931
-0.024515
-0.006984
0.076968
0.023437
-0.045702
0.047974
-0.012473
0.042059
0.019936
0.104718
0.038644
-0.061902
0.012897
0.087425
0.078624
0.113699
0.083179
0.072489
0.084722
0.093036
0.132487
0.084528
0.132804
0.153852
0.148824
0.156651
0.230741
0.091907
0.163617
0.125235
0.183035
0.183256
0.104180
0.216158
0.147869
0.264199
0.151049
0.248494
0.124289
0.175456
0.122556
0.139994
0.114329
0.095254
0.104368
0.059407
0.064299
0.125368
0.107427
0.024966
0.057542
0.066004
0.070300
0.070634
0.008088
0.018738
-0.033038
0.004941
0.064619
0.052402
0.028392
0.031507
-0.010647
0.058022
0.044128
-0.051897
0.069163
0.108888
0.170917
0.509202
0.821543
1.114950
1.392103
1.344911
1.260808
0.984742
0.629460
0.275723
0.006164
-0.150554
-0.236322
-0.192123
-0.131317
-0.066291
-0.025285
0.050948
0.030666
0.020794
0.014009
-0.022776
0.040999
0.049345
0.000390
0.178224
0.089913
0.093801
0.140697
0.099784
0.089895
0.161251
0.152322
0.146777
0.146973
0.199342
0.158788
0.182047
0.250745
0.159856
0.284567
0.212560
0.281754
0.364252
0.380113
0.352214
0.458825
0.374205
0.409264
0.510633
0.460918
0.473857
0.557843
0.505362
0.443758
0.536858
0.514804
0.410953
0.572165
0.495294
0.524392
0.530353
0.500191
0.461682
0.506849
0.558271
0.518450
0.420828
0.523285
0.489887
0.457565
0.407027
0.436279
0.355311
0.297372
0.251252
0.246223
0.359062
0.216261
0.276449
0.277750
0.209432
0.183375
0.138568
0.154023
0.152047
0.194835
0.117933
0.137740
0.074126
0.148462
0.136330
0.042910
0.050941
0.117996
0.029890
0.013630
0.101230
0.028745
0.114910
0.035666
0.030465
0.150766
0.054516
0.007133
0.071225
0.028055
0.082006
-0.013899
0.131833
-0.024561
0.093385
0.120892
0.020825
0.074724
0.130862
0.051641
0.070727
0.097551
-0.008915
0.094291
0.048257
0.045926
0.061629
0.042754
0.051949
0.172885
0.105481
-0.001947
-0.012475
0.000261
0.069004
0.041578
0.037197
0.103333
0.026488
0.035042
0.022077
0.080888
0.067016
0.027206
-0.038070
0.026715
0.002023
0.027048
0.044466
0.020835
0.110872
-0.005819
-0.028081
-0.031040
0.086394
-0.046307
0.060049
0.043139
0.042261
0.068917
0.051769
0.063759
0.130039
0.054217
0.131004
0.155049
0.048406
0.076401
0.120833
0.160748
0.052552
0.104597
0.117995
0.155335
0.214823
0.126369
0.163083
0.170838
0.192598
0.181137
0.198929
0.152543
0.105914
0.237871
0.219443
0.163855
0.208502
0.206555
0.126898
0.065643
0.156453
0.155583
0.137156
0.131609
0.100344
0.068563
0.063285
0.089022
0.083706
0.032916
0.030404
0.017809
-0.031899
0.033837
0.071900
0.064770
0.085810
0.049162
0.060795
-0.024322
0.050021
0.097689
0.025561
0.054715
-0.004709
-0.025451
-0.025116
-0.029776
-0.001625
-0.038943
0.151225
0.343781
0.657942
0.999253
1.191873
1.458638
1.298215
1.065213
0.776801
0.441210
0.114800
-0.105533
-0.300048
-0.270815
-0.185753
-0.167420
-0.052569
-0.025216
0.015576
-0.066787
0.072073
0.054149
-0.028584
0.060358
0.148186
0.057277
0.004780
0.018371
0.001298
0.113416
0.013956
0.179396
0.083358
0.116047
0.112750
0.155930
0.182895
0.155597
0.133236
0.212230
0.203456
0.249784
0.312423
0.236659
0.292411
0.283364
0.311187
0.332054
0.373165
0.340441
0.358966
0.379948
0.427435
0.421470
0.419133
0.403661
0.492183
0.392468
0.510216
0.470713
0.528754
0.454127
0.454385
0.392223
0.499942
0.469860
0.365443
0.448759
0.383754
0.454848
0.358564
0.324011
0.299581
0.283741
0.258383
0.251218
0.260949
0.235289
0.192832
0.159023
0.172016
0.147285
0.149655
0.129900
0.107385
0.120272
0.100119
0.055605
0.071695
-0.087512
-0.024798
0.036988
0.013629
0.029629
-0.086436
0.043832
-0.079277
-0.092925
0.065364
0.038882
-0.000300
-0.048195
-0.077921
-0.051107
-0.067283
-0.013295
-0.050495
-0.027230
-0.046078
-0.081224
-0.084968
-0.098828
0.006601
0.024693
-0.071487
-0.031108
-0.001177
-0.087988
-0.141432
-0.045470
-0.080776
-0.112065
-0.052036
-0.062509
-0.072618
-0.102777
-0.086062
-0.000061
-0.075109
-0.060092
-0.060478
-0.059341
-0.024907
-0.044448
-0.109497
-0.032571
-0.092314
0.040823
-0.017105
-0.028318
-0.139523
-0.054997
-0.135189
-0.060041
-0.145606
-0.059518
-0.047631
-0.082726
-0.061371
-0.106206
-0.057653
-0.075788
-0.051618
-0.089239
-0.186657
-0.117498
-0.031440
-0.036247
-0.053488
-0.131491
0.057069
0.006111
-0.031976
-0.056147
-0.036811
-0.003094
-0.025837
-0.061589
-0.047881
0.018770
0.015373
0.093642
0.025013
0.079012
0.058580
0.079101
0.064305
0.096340
0.004302
0.058988
0.122174
0.044346
0.102159
0.003631
0.042835
0.032966
0.031489
0.002718
-0.014084
-0.016495
0.074667
-0.069919
-0.097815
0.009110
-0.055295
-0.047547
-0.022682
0.003041
-0.121160
-0.084638
-0.046462
-0.107682
0.008558
-0.040751
-0.099307
-0.025912
-0.053087
-0.113419
-0.048563
-0.178091
0.022784
-0.134301
-0.077351
-0.089927
-0.093542
-0.158147
-0.081144
0.031216
0.175579
0.372705
0.719445
1.033448
1.181142
1.199101
1.100373
0.789873
0.443428
0.088568
-0.167810
-0.216270
-0.376568
-0.380886
-0.275801
-0.208777
-0.168683
-0.099346
-0.100504
-0.134343
-0.114720
-0.062153
-0.084690
-0.108787
-0.061715
-0.172646
0.044506
-0.142556
-0.031431
0.052185
0.018117
0.007266
0.047442
0.009060
0.065763
0.156451
0.077932
0.021791
-0.016652
0.157733
0.113071
0.179436
0.115274
0.144952
0.146912
0.211156
0.270529
0.262460
0.284159
0.335282
0.302299
0.401756
0.344042
0.332192
0.419500
0.376859
0.425528
0.328665
0.443999
0.345115
0.350522
0.386276
0.441719
0.356571
0.373495
0.354307
0.389948
0.378042
0.350760
0.388324
0.248344
0.213186
0.209689
0.256651
0.221336
0.232379
0.181144
0.154693
0.118229
0.082836
0.098180
0.058645
0.019754
0.055988
0.024006
0.032518
0.027858
0.015769
-0.084089
-0.113312
-0.090864
-0.140863
-0.037298
-0.057220
-0.022111
-0.092299
-0.073220
-0.093816
-0.118524
-0.064116
-0.089173
-0.125895
-0.050239
-0.083684
0.021767
-0.148520
-0.057211
0.012101
-0.088423
-0.005809
-0.067298
-0.106822
-0.056246
-0.135006
-0.072124
-0.078886
-0.077932
-0.045619
-0.097967
-0.048244
-0.065323
-0.081028
-0.089637
-0.093775
-0.104658
-0.116534
-0.077169
-0.074720
-0.059320
-0.056924
-0.090442
-0.036506
0.021577
-0.121897
-0.065769
-0.060165
-0.028879
-0.049865
-0.029788
-0.069732
-0.163882
-0.028036
-0.080671
-0.109152
-0.062068
-0.065710
-0.043747
0.011220
-0.040871
-0.027795
-0.049363
-0.143242
-0.013560
-0.055719
-0.120958
-0.069642
-0.028528
-0.000892
-0.065731
-0.075002
-0.050678
0.048353
-0.010980
-0.011315
-0.010727
0.026822
-0.018569
-0.005598
0.097160
0.127832
0.059973
0.119594
0.133667
0.146410
0.074351
0.162358
0.189253
0.128901
0.137211
0.148309
0.143414
0.132746
0.140316
0.101623
0.133090
0.082007
0.104349
0.044177
-0.004132
0.072028
-0.022653
0.019425
0.098942
-0.005829
0.004634
0.007669
-0.019476
0.017250
-0.041252
-0.059069
-0.007255
0.039381
0.020155
0.013636
-0.019162
-0.014859
-0.018126
-0.043127
-0.025279
-0.026272
-0.023115
-0.070798
-0.016736
-0.052173
-0.014792
0.010599
0.087113
0.197069
0.465799
0.665852
1.015832
1.186482
1.469826
1.218896
0.997907
0.629562
0.231827
0.070569
-0.172096
-0.234420
-0.207293
-0.181115
-0.176464
0.015184
-0.017849
0.009360
-0.009895
0.016162
-0.045278
0.046540
0.066232
0.031197
0.039027
0.064863
0.063183
0.029034
0.067258
0.101661
0.068279
0.059161
0.087390
0.054338
0.137948
0.189143
0.103006
0.216585
0.139885
0.237112
0.246207
0.322662
0.263546
0.352495
0.355831
0.358295
0.340920
0.391308
0.394377
0.477022
0.353897
0.430887
0.479650
0.469556
0.426397
0.527165
0.502098
0.483924
0.532625
0.483094
0.432681
0.488412
0.529569
0.486393
0.463730
0.543004
0.415014
0.384968
0.517772
0.387123
0.376249
0.375089
0.350491
0.248146
0.323272
0.269196
0.191199
0.291899
0.236694
0.169729
0.182269
0.205447
0.189807
0.116844
0.143834
0.142691
0.090766
0.172075
0.133110
0.142048
0.097611
0.034879
0.019840
0.016095
0.091636
0.081410
0.088303
0.102583
-0.012207
0.141706
0.068996
0.064347
0.071607
-0.015473
0.030902
0.026910
0.082635
0.101584
0.031905
0.020883
0.067489
0.089206
0.087243
0.085097
-0.019397
-0.026953
0.011385
0.046511
0.049321
0.086219
0.062657
0.036313
0.097282
0.028895
0.041370
0.036390
-0.019092
0.042670
-0.002102
0.122559
0.110824
0.016849
0.019173
0.102559
0.020347
0.087611
0.058316
-0.002297
0.049201
0.039599
0.058667
0.080499
0.070403
0.104883
0.036733
0.132357
0.090017
0.011352
0.082583
0.079153
0.066896
0.047316
0.084982
0.058970
0.066508
-0.015000
0.029131
0.040257
0.091521
0.070953
0.112979
0.084597
0.119694
0.033514
0.143335
0.042347
0.086712
0.222080
0.138166
0.183222
0.131802
0.199674
0.160478
0.245756
0.262183
0.255210
0.233225
0.211375
0.205111
0.268530
0.181190
0.281085
0.240446
0.295559
0.229470
0.309815
0.219339
0.223806
0.183751
0.123485
0.144308
0.173798
0.071447
0.105656
0.143491
0.156070
0.098073
0.161583
0.074412
0.217489
0.083419
0.131565
0.101024
0.062203
0.113460
0.060838
0.030257
0.043663
0.101372
0.038379
0.116676
0.046354
0.116223
0.040820
0.003781
0.075140
0.165812
0.348921
0.680187
1.052902
1.250017
1.421984
1.406369
1.152046
0.844684
0.531639
0.194007
0.026657
-0.152063
-0.247411
-0.161965
-0.018425
-0.100057
-0.010435
0.033305
0.043657
0.044778
0.108902
0.077961
0.164567
0.050705
0.084165
0.037679
