-0.038695
-0.041234
-0.055046
-0.033100
-0.042036
-0.066966
0.000332
0.006191
0.017962
-0.095886
-0.075343
0.123138
-0.036910
0.018632
0.041950
0.026044
0.003201
0.023229
0.128449
0.118025
0.070822
0.203250
0.136252
0.229448
0.111228
0.208490
0.226597
0.144489
0.240353
0.200849
0.256243
0.227141
0.266924
0.230007
0.236117
0.107843
0.162651
0.237843
0.182205
0.126398
0.242477
0.123841
0.071882
0.218188
0.134301
0.173914
0.123424
0.029469
0.051864
0.038029
0.133476
0.092978
0.073319
0.078523
0.095253
0.042166
0.036574
0.080225
0.072930
0.342698
0.529038
0.794767
1.126771
1.298557
1.426539
1.238535
1.047073
0.555004
0.323038
0.006868
-0.063187
-0.023149
-0.040447
0.014190
0.081577
0.195777
0.076345
0.152460
0.138732
0.179125
0.212369
0.235794
0.213951
0.236330
0.303373
0.280536
0.308299
0.332355
0.288432
0.466340
0.439625
0.516488
0.434244
0.497503
0.547455
0.460679
0.546247
0.641735
0.587792
0.617582
0.620634
0.623818
0.542576
0.575211
0.645753
0.601954
0.501044
0.667452
0.611700
0.597906
0.621985
0.520610
0.483913
0.585241
0.596451
0.424181
0.520892
0.471480
0.559902
0.368898
0.428013
0.382861
0.324316
0.298534
0.312995
0.203620
0.171286
0.224995
0.275117
0.176023
0.236065
0.093874
0.114637
0.128845
0.116109
0.121634
0.065286
0.054103
0.172956
0.068440
0.131344
0.156082
0.122135
0.065253
0.049051
0.132544
0.121184
0.149446
0.066172
0.119499
0.115118
0.003871
0.075881
0.165213
0.153326
0.077557
0.099793
0.097336
0.054730
0.023709
0.129977
0.106451
0.074616
0.011775
0.026965
0.075141
0.100827
0.115722
0.129384
0.100131
0.035929
0.177164
0.046290
0.104445
0.096918
0.165351
0.081789
0.142170
0.196847
0.149062
0.160387
0.199745
0.106639
0.212766
0.312953
0.228700
0.283555
0.259380
0.222274
0.299075
0.252221
0.300156
0.244514
0.297445
0.236002
0.307459
0.272545
0.297538
0.243710
0.276108
0.238020
0.209073
0.241934
0.173246
0.212096
0.228010
0.207889
0.174887
0.154197
0.118866
0.145764
0.138468
0.079905
0.068987
0.064740
0.105560
0.183012
0.067955
0.234092
0.467355
0.705169
0.943809
1.358253
1.415413
1.468355
1.220706
0.857535
0.508457
0.214459
0.016297
-0.142109
0.001256
-0.032134
0.131494
0.234845
0.191875
0.135899
0.184446
0.211073
0.288670
0.180704
0.241680
0.349170
0.291042
0.283298
0.372242
0.371429
0.411894
0.408704
0.507195
0.402388
0.488104
0.391220
0.478370
0.487420
0.519798
0.598776
0.539818
0.517467
0.544103
0.678181
0.593010
0.579995
0.649911
0.630681
0.523510
0.609362
0.592179
0.618564
0.624920
0.537868
0.504177
0.504395
0.530977
0.516909
0.509902
0.475683
0.459604
0.378679
0.350739
0.360679
0.346685
0.323422
0.324147
0.284543
0.316154
0.263821
0.261313
0.254796
0.184994
0.257658
0.144164
0.160893
0.077818
0.047025
0.228806
0.108741
0.125916
0.045674
0.068694
0.006411
0.071003
0.098417
0.072617
0.058518
0.132656
0.029243
0.118933
0.115841
0.121011
0.130533
0.046996
0.108725
0.060508
0.101569
0.078217
0.067942
0.088741
0.036720
0.111989
0.057260
0.009415
0.130462
0.051012
0.041959
0.024850
0.060703
0.015182
0.041814
0.010463
0.065648
0.099678
0.085197
0.163841
0.122991
0.182944
0.074138
0.102455
0.081400
0.125172
0.025918
0.135180
0.214410
0.187497
0.143979
0.207819
0.196623
0.163067
0.222110
0.267857
0.334082
0.227617
0.226572
0.200832
0.260389
0.280027
0.191117
0.195469
0.158057
0.176947
0.269020
0.153559
0.147032
0.170991
0.005139
0.113090
0.124856
0.074114
0.174849
0.070448
0.122287
0.038526
0.081698
0.064241
0.098339
0.066692
0.151723
0.200944
0.193743
0.478975
0.681024
1.044747
1.284353
1.416361
1.287073
1.060243
0.639599
0.321253
0.079402
-0.134760
-0.089455
-0.071138
0.001795
0.050395
0.088209
0.105267
0.104402
0.167075
0.201370
0.186603
0.143559
0.234251
0.257989
0.225509
0.276368
0.357516
0.257179
0.333766
0.294934
0.323546
0.397812
0.471633
0.390701
0.444827
0.498783
0.442885
0.557049
0.518328
0.518107
0.518438
0.500255
0.552126
0.510456
0.528250
0.559090
0.462883
0.532618
0.439437
0.477113
0.479813
0.551852
0.498690
0.446500
0.469829
0.363122
0.373426
0.238766
0.341002
0.323236
0.317562
0.249531
0.346024
0.248699
0.262566
0.192969
0.125909
0.181237
0.130051
0.162135
0.092562
0.085502
-0.004934
0.080049
0.108301
0.063641
0.086268
0.050203
0.000996
0.066309
-0.078798
0.019279
-0.065064
0.014044
0.031836
0.012401
-0.014823
-0.078505
-0.030582
0.021676
0.023800
0.005295
-0.060890
0.039674
0.040835
-0.039961
-0.013535
0.017341
-0.007628
0.020707
-0.087495
-0.075205
-0.017530
0.014146
-0.064481
0.028165
-0.087963
-0.030344
0.022709
-0.018372
0.012599
-0.075524
-0.000316
-0.002708
-0.075297
-0.016182
0.088711
-0.029473
0.022823
0.116166
0.090924
0.097164
0.132545
0.116672
0.085684
0.185576
0.247628
0.170673
0.109073
0.129628
0.204264
0.204902
0.156112
0.221134
0.114626
0.098208
0.174815
0.060503
0.082870
0.090987
0.031076
0.065070
0.127294
0.028460
0.043891
0.115067
0.052936
0.020020
-0.031065
-0.067226
-0.025187
-0.020700
-0.005673
0.036604
-0.053675
0.016114
-0.006466
0.071798
0.171532
0.261366
0.505916
0.869288
1.107113
1.304181
1.329973
1.145300
0.751607
0.383802
0.098089
-0.164390
-0.252733
-0.108007
-0.091717
-0.075863
0.004218
0.050298
0.083253
-0.000551
0.057930
0.105666
0.157194
0.104790
0.151465
0.241223
0.155691
0.160326
0.172656
0.266747
0.180275
0.251011
0.330951
0.370096
0.342837
0.348062
0.344819
0.442509
0.439306
0.437277
0.450588
0.527665
0.472712
0.524497
0.568981
0.461866
0.468492
0.491101
0.509588
0.534512
0.518435
0.481569
0.481711
0.323423
0.392745
0.328780
0.439837
0.331397
0.412656
0.384284
0.389419
0.268029
0.354588
0.253798
0.219966
0.158493
0.157566
0.166122
0.041276
0.229136
0.025681
0.089143
0.037248
0.056421
0.057574
-0.026511
0.006599
-0.014980
-0.001422
-0.039247
-0.046039
0.042418
0.030362
0.029130
0.043743
-0.020980
0.001780
-0.112320
-0.028973
-0.075579
0.030863
0.000935
0.003995
-0.067528
0.044116
0.050965
-0.007386
-0.134806
-0.035132
0.037585
-0.062391
-0.124274
0.083997
-0.005554
0.000865
-0.021095
-0.015657
-0.056593
-0.012873
-0.029477
0.026504
-0.012614
-0.059953
0.037087
-0.039542
0.044312
0.032243
0.066708
0.092336
0.066219
0.074827
0.140481
0.004536
0.061142
0.123181
0.094021
0.073683
0.195208
0.125280
0.127968
0.145184
0.133220
0.150974
0.180907
0.190119
0.195885
0.183689
0.159442
0.150901
0.166114
0.162054
0.105910
0.096967
0.030831
0.076152
0.051135
0.096916
-0.012497
0.067878
0.098869
-0.021452
0.063958
0.080374
0.012424
-0.002749
0.076318
0.028273
-0.015429
-0.046204
0.137840
0.212382
0.437232
0.669858
0.929458
1.242463
1.397574
1.391598
1.020797
0.688472
0.284838
0.031765
-0.136869
-0.149902
-0.128177
-0.024203
-0.014891
0.079162
0.056874
0.206377
0.111624
0.122402
0.180262
0.164712
0.229390
0.148461
0.198805
0.219255
0.290425
0.326232
0.297396
0.244848
0.321417
0.429427
0.445650
0.396742
0.383702
0.436533
0.493637
0.484247
0.496186
0.563448
0.554365
0.550766
0.546574
0.510604
0.557326
0.568920
0.523016
0.572779
0.582953
0.527936
0.533845
0.472159
0.516502
0.434150
0.524736
0.371936
0.457769
0.359453
0.319237
0.236843
0.381976
0.321281
0.216966
0.258113
0.279811
0.287755
0.258320
0.186570
0.192070
0.175743
0.128206
0.106931
0.140012
0.174957
0.103997
0.155416
0.164910
0.070756
0.065333
0.121706
0.003180
0.183202
0.049808
-0.000805
0.075038
0.140050
0.085675
0.034135
0.040836
0.119127
0.055573
-0.008834
0.123852
0.092103
-0.067474
0.024015
0.133376
-0.008036
0.016471
0.046731
-0.027544
0.046655
-0.033290
0.076273
0.055440
0.044437
0.068480
0.111086
0.103774
0.031969
0.055981
0.051745
0.115565
0.111461
0.132339
0.113723
0.178672
0.129655
0.234938
0.210170
0.056412
0.219846
0.171831
0.158366
0.176889
0.200894
0.219102
0.196995
0.250361
0.254502
0.226235
0.221710
0.293424
0.214852
0.221867
0.178110
0.128034
0.293298
0.298258
0.258300
0.245202
0.154947
0.212025
0.192120
0.120900
0.122758
0.162408
0.161920
0.102336
0.058408
0.211509
0.069674
0.204663
0.029099
0.116658
0.070940
0.077546
0.183131
0.225305
0.407197
0.659091
0.900817
1.205434
1.441409
1.454292
1.337796
0.984674
0.652858
0.305347
-0.027642
-0.006992
-0.068294
0.020380
0.075791
0.077607
0.115427
0.190682
0.240976
0.213178
0.227453
0.277570
0.210059
0.326883
0.232800
0.356717
0.300186
0.396515
0.362951
0.363565
0.417085
0.412574
0.516582
0.435466
0.518991
0.503433
0.623795
0.509040
0.619704
0.578043
0.608962
0.620108
0.676360
0.644143
0.559448
0.690194
0.651795
0.696732
0.672517
0.665759
0.627112
0.576739
0.581565
0.546187
0.542160
0.517572
0.536130
0.466108
0.537614
0.430823
0.505829
0.352271
0.332973
0.448894
0.323474
0.285135
0.333078
0.299656
0.287370
0.195539
0.211878
0.179600
0.183818
0.133228
0.219329
0.144457
0.169548
0.146121
0.150977
0.069016
0.151810
0.116862
0.158693
0.149883
0.082448
0.188565
0.172351
0.138978
0.146197
0.157177
0.079751
0.104706
0.083492
0.115307
0.124106
0.181759
0.067564
0.086641
0.011446
0.131624
0.132901
0.187758
0.090354
0.053598
0.177597
0.093658
0.074586
0.117229
0.124771
0.202304
0.131916
0.107427
0.183501
0.075074
0.104283
0.106794
0.286810
0.174089
0.287146
0.132929
0.127310
0.220641
0.184558
0.151758
0.304923
0.219607
0.222056
0.240519
0.145536
0.238211
0.241949
0.365426
0.284789
0.232096
0.299888
0.355825
0.193194
0.234090
0.172063
0.280025
0.229804
0.283033
0.224073
0.249700
0.185477
0.202259
0.200539
0.152779
0.175277
0.256432
0.107327
0.104101
0.126771
0.123043
0.075805
0.101742
0.027904
0.063861
0.152775
0.283487
0.458342
0.630999
0.980344
1.299257
1.500000
1.390228
1.183171
0.770230
0.464574
0.153835
-0.099844
-0.075710
0.015251
-0.013552
0.105137
0.178229
0.169661
0.218558
0.115182
0.137478
0.218505
0.245602
0.227863
0.231692
0.269476
0.281462
0.318872
0.415647
0.354828
0.324138
0.387584
0.384568
0.460025
0.479500
0.562643
0.484262
0.460119
0.531798
0.588784
0.580640
0.619526
0.549088
0.523160
0.514471
0.617005
0.640870
0.526701
0.667874
0.619175
0.517894
0.520836
0.571604
0.516899
0.471696
0.440996
0.517579
0.406577
0.439852
0.398535
0.268438
0.408121
0.377490
0.354702
0.339546
0.346853
0.237596
0.193474
0.161722
0.257046
0.209298
0.178707
0.153486
0.149189
0.187099
0.107981
0.054158
0.087524
0.013305
0.054637
0.081914
0.089788
-0.012461
0.083946
0.040417
0.043710
0.081390
0.102762
-0.012472
0.027900
0.039826
-0.010062
0.087677
0.041624
0.029336
0.095680
0.090382
0.111000
0.035816
-0.031191
0.009635
-0.015175
0.031421
0.016088
0.130743
0.061760
0.086643
0.081287
0.033483
0.130971
-0.025532
0.044781
0.061857
0.015144
0.094435
0.033411
0.031873
0.095719
0.151270
0.093789
0.056397
0.210026
0.075213
0.129068
0.119778
0.133107
0.161013
0.133151
0.178385
0.177969
0.148581
0.235771
0.211587
0.149770
0.216969
0.187268
0.274471
0.150668
0.155749
0.168425
0.173488
0.135616
0.058196
0.099711
0.123232
-0.016856
0.034498
0.043079
0.050244
0.077553
-0.044971
0.030777
0.097824
-0.030424
0.084183
0.059513
-0.015604
-0.036789
-0.007478
0.076675
0.207424
0.412131
0.676269
1.073571
1.242726
1.303072
1.173411
0.988302
0.598897
0.139319
-0.049537
-0.138209
-0.118547
-0.126809
-0.083327
-0.024106
0.015951
0.084810
0.079507
0.089094
0.112802
0.143799
0.160026
0.170675
0.258728
0.218330
0.298946
0.257470
0.259057
0.254863
0.226733
0.371082
0.383643
0.295665
0.361813
0.432257
0.417179
0.459266
0.409759
0.421989
0.496336
0.383634
0.455844
0.505078
0.541893
0.446160
0.503550
0.464281
0.475750
0.393884
0.431428
0.410783
0.422124
0.377369
0.400949
0.417555
0.343591
0.379561
0.327042
0.402912
0.309539
0.283297
0.214503
0.298366
0.152538
0.154666
0.091393
0.077433
0.073506
0.046344
0.020371
0.029818
0.017068
-0.019453
-0.002531
0.028660
-0.082757
0.004141
-0.008168
-0.047715
-0.047395
-0.021260
-0.049007
0.022263
-0.087456
-0.074777
-0.026404
-0.076774
-0.162942
-0.080037
-0.068682
-0.085107
-0.052234
0.009669
-0.058870
-0.037862
-0.111803
-0.040262
-0.004310
-0.054990
-0.118230
-0.123229
-0.044849
-0.146877
-0.093034
-0.152848
-0.088888
-0.012284
-0.125828
-0.088515
-0.076761
-0.065158
-0.069834
-0.097742
-0.080944
-0.019772
-0.026027
-0.022862
-0.058842
0.017654
-0.070381
-0.007867
0.060375
0.083268
0.012647
0.009169
0.044814
0.074545
-0.009474
0.140393
0.064019
0.155381
0.161310
0.130493
-0.012385
0.058206
0.019747
0.091887
0.079741
0.023589
0.050201
0.056110
0.075111
0.022123
-0.084293
0.094378
-0.111137
-0.020369
-0.052440
0.031755
0.034203
-0.100453
-0.009684
-0.118678
-0.036906
-0.115231
-0.065084
-0.029267
0.054306
-0.062900
0.221567
0.504182
0.771267
1.078856
1.304672
1.299569
1.063143
0.684823
0.402280
0.116234
-0.169339
-0.228256
-0.140403
-0.116676
-0.103575
-0.001181
-0.031494
0.078658
0.047892
0.128926
0.033343
0.134152
0.084453
0.143196
0.133140
0.126756
0.226342
0.219106
0.065759
0.329867
0.300078
0.296135
0.346775
0.299086
0.326016
0.357770
0.382009
0.423888
0.400425
0.383997
0.453028
0.434702
0.529073
0.467986
0.489082
0.486410
0.450642
0.433166
0.428525
0.419095
0.361911
0.404427
0.451993
0.368372
0.435906
0.354967
0.251634
0.315553
0.363523
0.234960
0.219539
0.218236
0.248654
0.126194
0.088871
0.133500
0.161453
0.106823
0.168978
0.037137
0.083609
0.001511
-0.002417
0.001730
0.081272
0.015872
-0.066638
-0.071654
0.012725
0.014057
0.020705
0.030076
-0.006011
0.013907
-0.023907
-0.083607
-0.076182
-0.094254
-0.105307
0.015002
-0.108855
-0.037271
-0.025559
-0.092672
-0.122137
-0.096373
-0.010075
-0.096341
-0.062430
-0.031285
-0.127168
-0.140301
-0.146236
0.015471
-0.049246
-0.033266
-0.011393
-0.091351
-0.076717
-0.113829
-0.118151
0.015726
0.005334
-0.015502
-0.041359
0.003763
0.007814
0.001661
0.052215
0.088132
0.162737
0.016952
0.038235
0.130894
0.137003
0.082923
0.152236
0.164049
0.180986
0.164774
0.169461
0.179772
0.132998
0.135728
0.171229
0.162154
0.158992
0.054052
0.126391
0.113550
0.085990
0.031676
0.027342
0.068893
0.009661
0.126539
0.046091
-0.025982
0.092976
0.046240
-0.007129
-0.066989
0.012527
-0.033081
0.010884
-0.017641
0.065346
0.063850
0.095035
0.227228
0.319887
0.677722
1.029879
1.285130
1.311732
1.320979
1.066169
0.664216
0.270367
0.048721
-0.161668
-0.261748
-0.091684
-0.081414
-0.090754
0.052316
-0.023921
0.099777
0.013059
0.101804
0.114814
0.185318
0.128734
0.106556
0.166587
0.147605
0.286399
0.164500
0.314104
0.311148
0.392029
0.421341
0.345939
0.443887
0.462244
0.474471
0.449942
0.520907
0.486209
0.480713
0.561526
0.512926
0.525114
0.548820
0.591167
0.486111
0.575335
0.466952
0.556213
0.538111
0.481725
0.445186
0.358181
0.466696
0.525263
0.427519
0.394792
0.366156
0.387625
0.364914
0.376351
0.343820
0.368755
0.155413
0.235061
0.247458
0.172894
0.101024
0.224005
0.111670
0.251640
0.011249
0.109820
0.169538
0.107014
0.081688
0.117056
0.084660
0.024751
-0.005459
0.020003
0.066372
0.164151
0.020411
0.043780
-0.009389
0.111594
0.062740
0.017094
-0.048290
-0.104231
-0.032307
0.080255
0.047392
0.071985
0.009244
0.022925
-0.003879
0.056920
0.003643
0.065094
-0.003973
0.016776
-0.028488
0.043136
0.024096
0.039463
0.084717
-0.008088
0.016965
0.157791
0.129898
0.084857
0.050994
0.098331
0.107628
0.083462
0.119231
0.065257
0.078835
0.151654
0.081889
0.187965
0.170739
0.237757
0.205787
0.161654
0.230614
0.207113
0.219122
0.266058
0.160157
0.176509
0.175830
0.213972
0.184839
0.230147
0.190850
0.187214
0.204795
0.152354
0.084446
0.070976
0.117240
0.086313
0.142906
0.134582
0.136676
0.084713
0.045399
0.054682
0.105482
0.046744
0.093920
0.056160
0.008234
0.068271
0.046159
0.167438
0.302714
0.625667
0.886544
1.227443
1.370417
1.386212
1.259090
0.890241
0.505107
0.188622
0.031903
-0.117774
-0.009618
-0.046756
0.139422
0.006718
0.152501
0.117673
0.228152
0.154905
0.159624
0.203996
0.354221
0.139644
0.251813
0.293322
0.295969
0.276258
0.340927
0.351176
0.359065
0.472270
0.387943
0.488929
0.447825
0.442498
0.492038
0.506645
0.471745
0.512533
0.527750
0.588502
0.520695
0.600269
0.618909
0.520236
0.631887
0.575398
0.536974
0.544128
0.491781
0.573195
0.578388
0.424007
0.463967
0.471089
0.384016
0.456588
0.394564
0.394611
0.283099
0.327542
0.316443
0.295803
0.267794
0.276951
0.245258
0.172261
0.204003
0.176210
0.237075
0.165246
0.110009
0.143127
0.045564
0.096505
0.112985
0.078145
0.081803
0.079496
0.058991
0.092219
0.028866
0.083974
0.030752
0.010597
0.039981
0.056819
0.162154
0.089843
0.081318
-0.014789
0.054386
0.000418
-0.013462
0.047581
0.012287
0.061411
0.035072
0.009719
0.081051
0.026332
0.104742
0.017896
0.044862
0.024110
0.066507
-0.000018
0.069134
-0.041645
0.030063
0.058349
0.091398
0.065613
0.075781
0.118707
0.172959
0.044157
0.089911
0.130346
0.157526
0.181256
0.210962
0.152321
0.150239
0.187275
0.128071
0.178585
0.265718
0.185577
0.173377
0.247697
0.209019
0.267812
0.244960
0.234892
0.190613
0.269714
0.217760
0.225709
0.221809
0.126855
0.062252
0.181369
0.155551
0.134075
0.076542
0.070020
0.070855
0.018179
0.096354
0.118927
0.042494
0.075458
-0.007673
0.026606
-0.031033
0.122937
0.051495
0.226107
0.344656
0.680652
1.098787
1.321838
1.354561
1.307515
1.068609
0.698822
0.425692
0.166160
-0.094446
-0.103247
-0.079940
-0.031176
0.027165
0.183357
0.016553
0.101674
0.111771
0.138280
0.102728
0.179001
0.147900
0.274407
0.185514
0.349255
0.291737
0.360400
0.289673
0.329159
0.306246
0.388913
0.379983
0.415201
0.393522
0.375103
0.383699
0.535259
0.436549
0.412021
0.531671
0.428611
0.578531
0.568089
0.581672
0.511474
0.593117
0.596799
0.445793
0.444770
0.451994
0.484667
0.389909
0.389423
0.375610
0.353732
0.377538
0.335923
0.355596
0.292291
0.330776
0.240992
0.328302
0.181077
0.182599
0.185839
0.171160
0.106057
0.128873
0.212713
0.154381
0.087557
0.073889
0.033038
0.042463
0.134992
0.062365
0.048517
0.030605
-0.019180
0.089810
-0.009674
0.028196
-0.058845
-0.067645
0.068520
0.006545
-0.001731
-0.093849
0.023457
-0.052682
-0.113264
-0.131460
-0.037352
-0.016869
-0.097563
-0.043903
-0.078828
0.044570
-0.082039
-0.067450
-0.084842
-0.092997
-0.032317
0.031430
-0.125389
-0.024746
-0.013502
-0.021533
-0.043178
0.010866
0.111776
0.010534
-0.020891
-0.019597
-0.075346
-0.031686
-0.037248
0.093711
0.033188
0.024643
0.089757
0.072982
-0.024558
0.042454
0.156548
0.130469
-0.007168
0.013688
0.171626
0.076953
0.136398
0.130168
0.164792
0.137083
0.101508
0.122157
0.099456
0.144493
0.106395
0.022799
0.087109
0.016503
-0.002080
0.028399
0.002344
0.085955
-0.002978
0.000672
-0.004871
-0.040296
-0.067029
-0.002765
-0.087657
-0.021923
-0.016113
-0.111634
-0.026559
0.081233
0.080830
0.435529
0.698566
1.049978
1.218398
1.304188
1.114421
0.812292
0.486185
0.117374
-0.142972
-0.159096
-0.192302
-0.174190
-0.080021
-0.021416
0.023724
-0.025482
0.041108
0.068707
0.049197
0.048936
0.081506
0.056915
0.133252
0.142079
0.230336
0.210370
0.203361
0.260679
0.246202
0.205420
0.248212
0.315500
0.386318
0.284638
0.306738
0.367767
0.370531
0.346373
0.393363
0.516391
0.527597
0.529071
0.380201
0.466291
0.376850
0.445132
0.451037
0.431146
0.407426
0.378377
0.341457
0.374759
0.310673
0.310991
0.326324
0.309898
0.304190
0.209753
0.210968
0.220084
0.134343
0.198427
0.076106
0.159557
0.112191
0.032925
0.007579
0.012787
0.001096
-0.029658
-0.063611
0.013214
-0.088183
-0.029546
-0.016896
-0.011659
-0.143873
0.038815
-0.033346
-0.091501
-0.060993
-0.082904
-0.069827
-0.063020
-0.105862
-0.035303
-0.105529
-0.119066
-0.091832
-0.117632
-0.149297
-0.198026
-0.084642
-0.105434
-0.068689
-0.134151
-0.126445
-0.043535
-0.126953
-0.144031
-0.028145
-0.138906
-0.045780
-0.050357
-0.090991
-0.100447
-0.167984
-0.097707
-0.122764
-0.101776
-0.056339
-0.065876
-0.133680
-0.039215
0.017700
0.021976
-0.055151
0.060522
-0.044929
-0.012825
0.063217
0.022648
0.070293
0.050309
0.064047
0.037454
0.060177
0.082865
0.067386
0.075009
0.101026
0.095229
0.133442
0.065044
0.093691
0.054584
0.016071
0.031905
0.037249
-0.047299
0.008847
0.031878
-0.022486
-0.043385
-0.006916
-0.005464
0.053895
-0.033946
0.019820
-0.032302
-0.077322
-0.012090
-0.086624
-0.101195
-0.147677
-0.053192
-0.046037
0.080583
0.247846
0.479754
0.819301
1.143735
1.294607
1.310161
1.108241
0.617583
0.275638
-0.028502
-0.258711
-0.256398
-0.179744
-0.092655
-0.017508
-0.001722
0.002757
-0.039974
-0.059452
0.070580
0.052789
0.070744
0.099709
0.047510
0.092821
0.199413
0.141358
0.169789
0.226539
0.236764
0.324118
0.287929
0.286431
0.276239
0.249637
0.310701
0.422653
0.369802
0.478533
0.445690
0.450512
0.442845
0.396565
0.423891
0.476347
0.431554
0.398892
0.518366
0.440405
0.545081
0.371235
0.371813
0.317507
0.338583
0.373775
0.378302
0.288644
0.235663
0.218380
0.285871
0.206552
0.284721
0.331865
0.191141
0.159055
0.129169
0.156709
0.060017
0.076013
0.049718
0.090201
0.005000
-0.015163
0.058451
0.006502
0.032952
0.009723
-0.064779
-0.002516
-0.033785
0.020285
-0.072928
0.003570
-0.018264
-0.016363
-0.071366
-0.021805
-0.047142
-0.051949
-0.092549
-0.086806
-0.034374
0.013899
-0.013963
-0.066435
-0.102542
-0.110473
-0.126998
-0.097278
-0.140484
-0.103973
-0.100908
0.063328
0.038406
-0.045736
-0.020273
-0.032891
-0.028099
0.015776
0.014925
-0.027833
-0.088778
-0.078432
-0.013964
0.043192
-0.021405
-0.036977
-0.049218
0.011186
0.067992
0.090720
0.121939
0.087405
0.104742
0.131720
0.127401
0.054070
0.167184
0.228146
0.102163
0.196832
0.162238
0.193699
0.184409
0.173064
0.102590
0.170163
0.131961
0.122665
0.090014
0.159894
0.138740
0.101521
0.111275
0.081011
-0.040455
0.063548
0.064679
0.056721
0.063155
0.021360
0.046815
0.052449
-0.054896
-0.038018
-0.019531
0.043349
-0.012817
0.058929
0.227202
0.435809
0.682599
1.119962
1.250674
1.377288
1.288341
1.021911
0.584104
0.305856
-0.024949
-0.026836
-0.122204
0.015333
0.022976
0.069683
0.096306
0.046473
0.171413
0.117523
0.139449
0.202691
0.220216
0.202467
0.241071
0.274813
0.274906
0.338703
0.297721
0.283307
0.333064
0.374909
0.386545
0.374621
0.465625
0.448388
0.429253
0.498509
0.469493
0.554520
0.548993
0.493029
0.543340
0.552677
0.483856
0.592314
0.534321
0.598490
0.534748
0.608793
0.515211
0.479599
0.527257
0.473846
0.504686
0.493051
0.424606
0.445270
0.367610
0.355149
0.347836
0.459130
0.266494
0.294372
0.261388
0.332231
0.166100
0.201408
0.169193
0.171115
0.170233
0.181069
0.153213
0.148653
0.123940
0.137944
0.067710
0.116054
0.051929
0.050885
0.056127
0.013281
0.022695
0.154635
0.025417
0.121734
-0.061336
0.114891
0.112422
0.007052
-0.041559
0.022523
0.112887
0.116359
0.014619
0.126869
-0.026068
0.053681
0.040222
0.120505
0.088890
0.062515
-0.038324
0.057425
0.181834
0.087215
-0.049319
0.055064
0.131978
0.128469
0.067754
-0.000150
0.174870
0.116517
0.166298
0.084844
0.106877
0.087348
0.112124
0.062043
0.130435
0.135069
0.157574
0.192868
0.223711
0.270921
0.202119
0.223112
0.250218
0.269254
0.226256
0.267253
0.282175
0.287847
0.238953
0.217089
0.297034
0.207604
0.283139
0.240655
0.210619
0.173331
0.243946
0.125234
0.145568
0.143522
0.125403
0.147578
0.131661
0.090494
0.066252
0.149890
0.094250
0.056492
0.136256
0.112573
0.098205
0.135302
0.176903
0.206554
0.391511
0.607483
1.062652
1.260042
1.474000
1.461440
1.241030
0.898651
0.554269
0.123699
0.051564
-0.041453
-0.111437
0.117907
0.092738
0.118499
0.166592
0.161259
0.147872
0.176885
0.276080
0.221484
0.223978
0.304850
0.143943
0.312872
0.353090
0.381352
0.472948
0.292356
0.442824
0.457860
0.468253
0.480980
0.502693
0.554187
0.553971
0.519302
0.542069
0.551861
0.513289
0.557608
0.606782
0.611806
0.593889
0.644997
0.623298
