0.044957
0.011551
-0.019297
0.066915
0.000825
-0.003616
0.076761
0.018674
-0.068489
-0.015199
-0.009303
-0.087271
0.000691
-0.034012
0.005915
0.058493
0.036036
0.054494
0.077943
0.056325
0.105304
0.051752
0.102960
0.120118
0.224488
0.060480
0.115723
0.166579
0.168854
0.092886
0.131405
0.074547
0.163078
0.111567
0.231226
0.158165
0.144673
0.223316
0.172914
0.141223
0.221802
0.156183
0.163021
0.109588
0.183203
0.182113
0.151406
0.209923
0.122544
0.143366
0.086707
0.052971
0.124896
0.125865
0.114814
0.110377
0.070089
0.115624
0.084067
0.064318
0.074480
0.070818
0.133375
0.043031
0.027932
0.071397
0.085356
0.129517
0.011084
-0.025493
0.032518
0.041942
0.222984
0.445282
0.813569
1.130583
1.384979
1.495881
1.375649
1.032513
0.682720
0.414891
0.049596
-0.175938
-0.267266
-0.175462
-0.055002
0.035950
0.041810
0.024974
0.127104
0.014021
0.084049
0.052102
0.129543
0.118659
0.110133
0.118659
0.157690
0.210044
0.208927
0.104940
0.289152
0.287487
0.230137
0.316491
0.339510
0.292671
0.437875
0.379485
0.423552
0.393851
0.434728
0.503905
0.456835
0.450983
0.463228
0.472615
0.545966
0.543068
0.596351
0.575980
0.562784
0.619328
0.601297
0.636252
0.602094
0.710447
0.612928
0.559324
0.501637
0.451594
0.511797
0.521055
0.450020
0.538955
0.390288
0.400596
0.423442
0.420397
0.416544
0.374266
0.402011
0.337518
0.344715
0.343815
0.305075
0.304411
0.255127
0.222664
0.191642
0.201141
0.269239
0.193199
0.187343
0.129715
0.147428
0.161930
0.155758
0.107277
0.155213
0.120326
0.154642
0.080276
0.198878
0.063633
0.076690
0.126954
0.162462
0.114416
0.020899
0.191492
0.067932
0.119791
0.026001
0.107999
0.120772
0.062207
0.034326
0.118936
0.068182
0.089004
0.044729
0.019226
-0.021206
0.108123
0.056033
0.096175
0.043139
0.179119
0.051607
0.038804
0.095885
0.191856
0.173039
0.098525
0.072410
0.115992
0.121807
0.076951
0.178101
0.078706
0.105070
0.139384
0.072493
0.138104
0.101164
0.103123
0.067126
0.098321
0.062579
0.107181
0.206432
0.098363
0.199997
0.195218
0.144463
0.056344
0.169222
0.151091
0.187254
0.253338
0.238000
0.239008
0.269774
0.261974
0.325382
0.235138
0.246874
0.269921
0.295024
0.188841
0.243492
0.181951
0.293355
0.298525
0.268933
0.217150
0.236444
0.249543
0.162565
0.262478
0.189400
0.157741
0.166086
0.141419
0.137491
0.155964
0.098140
0.096917
0.169411
0.117834
0.106600
0.050750
0.025898
0.127333
0.130357
0.165535
0.108949
0.137411
0.068384
0.065768
0.064493
0.088046
0.221490
0.400364
0.694845
1.104788
1.285924
1.495780
1.476982
1.234336
0.814301
0.497299
0.137413
-0.010960
-0.165480
-0.156106
-0.012144
0.038801
0.073888
0.022719
0.124949
0.163675
0.045224
0.192864
0.155511
0.111246
0.140567
0.174823
0.260784
0.223029
0.276285
0.173851
0.147956
0.211394
0.333494
0.336786
0.329964
0.376143
0.381075
0.371165
0.317416
0.436016
0.428591
0.392222
0.434974
0.511571
0.574463
0.495375
0.571424
0.529553
0.603100
0.583952
0.526953
0.621446
0.548434
0.709304
0.586262
0.506286
0.448773
0.498416
0.591361
0.636469
0.490547
0.558418
0.462876
0.556758
0.608423
0.422197
0.446369
0.323452
0.327687
0.344630
0.307382
0.322897
0.283890
0.237263
0.241788
0.185745
0.185189
0.247251
0.131961
0.205177
0.175748
0.112196
0.045816
0.133138
0.132113
0.042563
0.088574
0.082961
0.115262
0.109546
0.108775
0.099277
0.034059
0.100373
0.109927
0.180184
0.046609
0.064363
0.031651
-0.015567
0.000316
0.032087
0.019811
0.111639
0.060955
-0.033437
0.074233
-0.017706
0.041225
-0.009481
0.070678
0.059634
0.053157
-0.007375
0.065587
-0.020107
0.041870
0.058027
-0.008369
-0.004382
-0.041980
0.037207
0.051148
0.030453
0.056268
0.087926
-0.006946
0.005513
-0.009184
-0.016045
-0.012553
0.015341
0.103221
0.005985
0.046977
0.067489
0.018969
0.065659
-0.042883
0.019034
0.069496
0.117220
0.043924
0.077108
0.037994
-0.010566
0.116225
0.031529
0.152148
0.138427
0.122389
0.130243
0.181469
0.133130
0.148880
0.162555
0.227421
0.176058
0.097880
0.216438
0.160255
0.152679
0.168699
0.170754
0.156665
0.197745
0.185064
0.181954
0.119602
0.121913
0.051871
0.110892
0.127022
0.051588
0.005041
0.028018
0.007388
-0.018704
0.117391
-0.053592
0.026603
-0.009597
0.067515
-0.060470
-0.024533
0.008810
0.053061
-0.047292
-0.050184
-0.013271
-0.004452
-0.017923
0.072115
0.300368
0.519069
0.844898
1.143625
1.395023
1.400858
1.199525
0.909510
0.584215
0.147882
-0.121580
-0.226788
-0.173832
-0.234177
-0.074705
-0.095744
-0.018266
-0.034990
0.008033
0.129161
0.079899
0.015019
-0.039744
-0.052258
0.041919
0.074695
0.046214
0.126873
0.123426
0.133808
0.112203
0.189296
0.134059
0.186904
0.165782
0.291697
0.236443
0.270929
0.296533
0.278011
0.276937
0.238230
0.348751
0.496449
0.431330
0.443527
0.486915
0.460740
0.501518
0.523688
0.423414
0.521220
0.437209
0.525017
0.522281
0.416113
0.486340
0.439983
0.424497
0.482769
0.407606
0.405521
0.411400
0.319812
0.439724
0.377640
0.331371
0.263421
0.225127
0.216757
0.244278
0.122778
0.213186
0.222763
0.145667
0.207386
0.064099
0.056764
0.011395
0.145888
0.018684
0.080617
0.028010
-0.048893
0.035023
-0.002711
0.025903
-0.027152
0.008989
0.050049
-0.031426
0.108388
-0.115322
-0.012632
-0.040602
0.070223
0.088892
-0.034639
-0.091575
-0.030684
-0.058846
0.041789
-0.053985
-0.087098
-0.074140
-0.031330
-0.009812
0.089678
-0.015603
-0.042420
-0.049313
0.009452
-0.048729
0.012223
-0.002510
-0.073245
-0.111226
-0.027083
-0.014511
0.026053
-0.009182
-0.083870
-0.054535
-0.022068
-0.079048
-0.029940
-0.098152
-0.014685
-0.193589
-0.044507
-0.012416
0.020527
0.003826
-0.001401
-0.103434
-0.030709
-0.044708
0.038404
-0.126000
0.045172
0.002356
0.011246
0.020192
0.020628
-0.036002
0.027333
0.015049
0.091636
0.055652
0.025927
0.098838
0.140523
0.125962
0.081895
0.070576
0.107326
0.188212
0.112507
0.178083
0.203516
0.153483
0.101215
0.093002
0.057978
0.064807
0.136663
0.100503
0.082645
0.109830
0.050579
0.076913
0.042265
0.143565
0.015797
0.025476
0.073105
-0.013380
0.002641
0.011341
0.010603
0.001347
-0.059195
-0.035115
-0.018863
-0.077278
-0.062757
-0.061697
-0.103424
-0.004421
-0.007671
0.013546
0.076955
0.137883
0.428897
0.719776
1.047728
1.271907
1.457660
1.326813
0.967508
0.590853
0.232930
-0.080620
-0.222635
-0.224778
-0.264439
-0.182486
-0.056284
-0.071255
0.066799
0.076232
0.033996
0.009475
0.037874
0.159918
0.068723
0.080222
0.051942
0.059211
0.134032
0.077947
0.124458
0.197617
0.153970
0.170281
0.202797
0.219261
0.240528
0.236756
0.332000
0.280538
0.325036
0.304159
0.348846
0.292101
0.417944
0.395425
0.430785
0.459359
0.444060
0.469528
0.461327
0.431342
0.518257
0.460986
0.482068
0.534803
0.531332
0.410489
0.549963
0.547901
0.479190
0.488693
0.478044
0.421733
0.419039
0.393305
0.408442
0.305361
0.356990
0.350613
0.370452
0.185861
0.250479
0.259998
0.208997
0.231294
0.214257
0.129823
0.143148
0.120821
0.113972
0.113188
0.063730
0.137865
0.052514
0.142004
0.070114
0.062699
0.034549
0.059790
0.008101
0.102839
0.038099
0.077417
0.005476
0.099791
0.045293
0.138432
0.062006
0.003497
0.030227
0.004040
0.025737
0.019871
0.047203
0.030204
-0.001247
0.051254
0.068213
0.052986
0.060196
0.061255
0.079296
0.043319
0.050838
0.041014
0.068245
0.015281
0.024065
0.004065
0.043661
0.072832
0.016519
0.069054
0.000053
0.031774
0.000755
-0.005292
0.000509
0.054073
0.073234
0.041141
0.067000
0.061098
0.101069
0.083936
0.051740
0.046600
0.050254
0.106435
0.168583
0.099950
0.054972
0.005424
0.081895
0.089201
0.071883
0.089318
0.220872
0.218328
0.081993
0.128321
0.235433
0.264848
0.285139
0.134088
0.173501
0.204540
0.309404
0.235647
0.221372
0.125800
0.282948
0.329062
0.198246
0.157596
0.241077
0.187748
0.147156
0.179049
0.170562
0.162436
0.178029
0.105532
0.187758
0.186945
0.069002
0.130646
0.126402
0.224756
0.107999
0.165564
0.071596
0.194968
0.016000
0.008953
0.129029
0.029863
0.083165
0.001575
-0.014666
0.070924
0.106472
0.188983
0.458331
0.768487
1.103431
1.320683
1.410182
1.451602
1.245140
0.868405
0.438524
0.148650
-0.050783
-0.183472
-0.042280
-0.051549
-0.033176
0.062890
0.092282
0.192661
0.123536
0.100176
0.128315
0.153033
0.216306
0.200829
0.221344
0.235068
0.193454
0.201049
0.289143
0.330712
0.212473
0.270006
0.290238
0.301837
0.309133
0.481956
0.388378
0.463328
0.446901
0.488260
0.558711
0.517153
0.482415
0.473035
0.506038
0.589568
0.544083
0.584189
0.599969
0.678001
0.622726
0.656687
0.575692
0.678124
0.626787
0.616613
0.626596
0.627942
0.550841
0.513083
0.513185
0.495732
0.470350
0.556108
0.468996
0.426045
0.414992
0.358431
0.413745
0.376886
0.373164
0.342514
0.289774
0.275544
0.298799
0.263295
0.291775
0.153638
0.157394
0.230677
0.215264
0.210112
0.061191
0.166927
0.167011
0.051686
0.140335
0.253432
0.088023
0.132613
0.139377
0.145360
0.130643
0.085150
0.066650
0.090224
0.057586
0.081749
0.108569
0.143556
0.187323
0.101208
0.077898
0.084292
0.091756
0.099188
0.009499
0.122018
0.146695
0.006802
0.090787
0.115231
0.056495
0.004019
0.105550
0.109264
0.154931
0.147182
0.114604
0.068266
0.047982
0.174701
0.058960
0.151785
0.054468
0.076808
0.082734
0.094271
0.159191
0.034115
0.059291
0.045289
0.163838
0.141956
0.159579
0.149380
0.127295
0.090515
0.159362
0.095682
0.139825
0.102334
0.090776
0.173297
0.060793
0.163280
0.211848
0.176104
0.213350
0.112520
0.245344
0.265982
0.225259
0.325691
0.289838
0.253911
0.290546
0.230530
0.268284
0.284469
0.317136
0.306710
0.236047
0.184689
0.273178
0.236161
0.248512
0.245383
0.266566
0.163821
0.163388
0.200108
0.113292
0.175922
0.202698
0.037514
0.226867
0.114843
0.092795
0.179445
0.138211
0.062045
0.129587
0.038904
0.053898
0.058398
0.038335
0.081460
-0.050138
0.033412
0.035876
0.218702
0.360217
0.575778
1.038367
1.237316
1.500000
1.455933
1.287832
0.994215
0.561452
0.209264
0.032943
-0.153641
-0.100741
-0.090940
-0.029195
0.031716
0.120510
0.108940
0.130309
0.007742
0.035980
-0.016098
0.130637
0.115333
0.228904
0.213107
0.171949
0.176210
0.213735
0.174534
0.290231
0.183136
0.288126
0.356932
0.316893
0.401414
0.393135
0.326209
0.417231
0.388507
0.391156
0.545214
0.494485
0.485056
0.494414
0.512451
0.482538
0.610886
0.495566
0.594737
0.624252
0.521861
0.646853
0.568454
0.572384
0.582076
0.578393
0.598510
0.563550
0.561906
0.406149
0.557157
0.428494
0.503891
0.430855
0.265628
0.366263
0.353080
0.361598
0.336372
0.329077
0.251088
0.247151
0.302129
0.171123
0.183917
0.196570
0.240892
0.145627
0.205973
0.140197
0.090220
0.123828
0.097615
0.103138
0.119442
0.070820
-0.011067
0.053954
0.101690
0.060950
-0.008150
0.026135
0.076545
0.046036
0.035374
0.060279
-0.011704
-0.014959
-0.042936
0.039201
-0.055297
-0.074024
0.038765
0.051555
0.030783
0.028268
-0.002675
-0.031054
-0.002083
0.005297
-0.039449
0.055399
0.009155
0.036011
0.016258
-0.030702
0.057630
0.025266
-0.035660
-0.008747
0.017937
-0.023259
-0.008845
-0.084940
-0.008648
0.060044
0.023747
0.032036
0.010641
0.032861
0.000345
-0.097057
0.033291
0.040025
-0.006780
-0.011955
0.042033
-0.087200
-0.033983
0.040170
0.032905
0.060763
0.033576
-0.034188
0.001123
0.087999
0.166430
0.129522
0.112110
0.121913
0.163986
0.087565
0.092414
0.066026
0.134182
0.190262
0.142763
0.199247
0.225020
0.152536
0.133415
0.103210
0.018787
0.150442
0.155462
0.185837
0.120424
0.109461
0.050059
0.040528
0.035652
0.049375
0.044425
0.009826
0.070854
-0.032621
-0.044415
-0.004032
-0.066623
0.009425
-0.021134
0.024682
-0.008224
0.070205
-0.012064
-0.128496
-0.082285
0.026395
-0.024085
-0.093907
-0.031329
0.182572
0.280685
0.696954
1.164063
1.356735
1.357549
1.160402
0.950021
0.484338
0.257028
-0.040761
-0.303388
-0.336756
-0.211675
-0.212398
-0.111299
-0.093988
-0.107535
-0.094704
-0.078571
-0.124443
-0.010157
-0.023114
0.047780
0.049816
-0.008971
0.046327
0.103533
0.134365
0.014480
0.051811
0.114854
0.106123
0.180703
0.223514
0.207153
0.205574
0.213084
0.276138
0.338903
0.265468
0.339740
0.394677
0.275936
0.355473
0.408478
0.479639
0.459358
0.422045
0.411220
0.470544
0.400198
0.509244
0.470624
0.429104
0.470193
0.463230
0.420277
0.373708
0.401500
0.386126
0.403445
0.365677
0.341285
0.367100
0.322892
0.301621
0.317794
0.298923
0.174896
0.200598
0.189833
0.122227
0.096830
0.047055
0.073411
0.077623
-0.001014
-0.005397
-0.015301
0.148067
-0.028755
0.016277
0.011350
0.018705
0.028035
-0.052979
0.012372
-0.086380
0.006498
0.072316
-0.104991
-0.061639
-0.065139
-0.132091
-0.102868
-0.050832
-0.036737
-0.146193
-0.177860
-0.095313
-0.092869
-0.059456
-0.050485
-0.094753
-0.092006
-0.040853
-0.098771
-0.077686
-0.125607
-0.112827
-0.027002
-0.081970
-0.067749
-0.067557
-0.099273
-0.058966
-0.083498
-0.109222
-0.178850
-0.095662
-0.023583
-0.083374
-0.023649
-0.143047
-0.120835
-0.143496
-0.072316
-0.077685
-0.106987
-0.088525
-0.030936
-0.082536
0.031209
-0.099213
-0.110709
-0.026776
-0.071960
0.016974
-0.051695
-0.113895
0.002728
-0.079239
-0.077317
-0.080008
0.047025
-0.083221
0.093338
-0.016706
0.044001
0.084756
0.038841
0.061541
0.107095
0.117352
0.155531
0.138470
0.036839
0.057317
0.025697
0.107043
0.052159
0.131456
0.116431
0.099269
0.081295
0.061325
0.115167
0.033684
0.033653
-0.011274
0.118053
0.000943
-0.019286
0.069865
-0.034835
-0.100625
-0.014542
-0.101147
-0.126607
0.003621
-0.100880
-0.053921
-0.016757
-0.010217
0.012995
-0.012425
-0.068788
-0.143835
-0.020384
-0.071221
0.041248
0.054918
0.343816
0.601628
0.942191
1.209159
1.312476
1.335753
1.048066
0.788348
0.292549
0.027576
-0.117432
-0.255041
-0.298257
-0.116844
-0.061503
-0.099271
-0.042177
0.008565
0.007041
-0.117130
-0.041157
0.037472
0.013822
0.038457
0.112386
0.162101
0.009010
0.050747
0.175647
0.088652
0.084520
0.078585
0.160854
0.157369
0.216158
0.263240
0.248401
0.242550
0.289673
0.305343
0.320364
0.428498
0.364519
0.320600
0.406414
0.414545
0.426135
0.435210
0.411329
0.451645
0.480957
0.551347
0.450054
0.448396
0.387396
0.436027
0.399124
0.413864
0.485122
0.414421
0.423772
0.408064
0.407262
0.366941
0.350732
0.298020
0.307739
0.259864
0.187550
0.293885
0.213640
0.228712
0.188224
0.176745
0.193800
0.181236
0.114945
0.153559
0.044439
0.104683
0.068911
-0.020948
0.060040
0.027936
-0.008905
0.074202
0.067420
0.039948
-0.064087
0.056711
0.010382
0.033203
-0.056853
-0.022350
0.036539
-0.015678
0.167728
-0.130093
-0.022517
-0.049162
0.034469
-0.063783
-0.026309
-0.066645
-0.048325
-0.041939
0.000804
0.008045
-0.020010
-0.010536
-0.015924
-0.046102
-0.023437
-0.069614
-0.074414
0.000982
0.035354
-0.009712
-0.053833
-0.019352
0.044956
-0.002553
-0.061189
0.067500
-0.022432
-0.035236
-0.012104
-0.044441
-0.005695
0.086527
0.026890
0.010338
-0.004607
-0.019871
0.058182
-0.022399
-0.030148
-0.105084
0.014145
-0.007617
0.015258
0.010803
0.161193
0.118252
0.055093
0.045188
0.099507
0.122295
0.113831
0.216736
0.196035
0.053552
0.131476
0.178165
0.141240
0.171065
0.191707
0.191696
0.218229
0.194600
0.160945
0.264569
0.200576
0.142735
0.187301
0.153013
0.168162
0.152412
0.081691
0.130948
0.064181
0.066374
0.103350
0.025691
0.036226
0.032718
0.051661
0.049260
0.008522
0.044603
0.089924
0.075950
0.032823
0.061882
0.158393
-0.041012
0.028708
0.091955
-0.035455
0.034534
0.098366
0.156263
0.329719
0.549346
0.931233
1.195185
1.458656
1.432742
1.221881
0.975485
0.518358
0.106730
-0.008268
-0.136025
-0.211012
-0.167865
0.039388
-0.018097
0.028406
0.040241
0.085160
0.051855
0.082034
0.125828
0.077998
0.134309
0.136550
0.224232
0.151029
0.180396
0.259659
0.222003
0.214754
0.315202
0.265500
0.280598
0.213747
0.301071
0.316275
0.359351
0.381516
0.356081
0.442156
0.478424
0.454672
0.517652
0.557726
0.567212
0.539045
0.442125
0.574351
0.468696
0.496290
0.493478
0.482716
0.641277
0.803498
0.536724
0.556798
0.484543
0.479667
0.507153
0.425288
0.501211
0.506776
0.400070
0.429521
0.514779
0.421784
0.448125
0.318032
0.409532
0.371632
0.387546
0.254813
0.249746
0.245711
0.281163
0.163588
0.178201
0.143437
0.170848
0.117613
0.134533
0.187607
0.077157
0.134043
0.017655
0.123740
0.023010
0.074703
0.079772
0.087640
0.090981
-0.027688
0.057664
-0.035204
0.010390
0.059535
0.099847
0.101313
0.026351
0.110100
0.046006
0.125045
0.035275
0.090757
0.044785
0.001962
0.143343
0.009452
0.108127
0.067961
0.028026
0.039353
0.129269
0.046245
-0.052613
0.086010
0.115487
0.171881
-0.007021
0.076943
0.033611
0.035629
0.000463
0.030746
0.004803
0.011652
0.067220
0.016246
-0.023868
0.060691
0.069129
0.051667
0.005641
0.021730
0.069003
0.105127
0.049892
0.019242
0.094870
0.018447
0.067662
0.023926
0.075121
0.098712
0.009049
0.095256
0.131357
0.094372
0.126540
0.214944
0.195843
0.223844
0.288317
0.286961
0.182145
0.272562
0.261689
0.173248
0.264909
0.206786
0.173873
0.218713
0.178588
0.144516
0.201058
0.186352
0.158892
0.215456
0.248010
0.060012
0.005365
0.050764
0.141864
0.114378
0.034541
0.086442
0.098408
0.027277
0.115214
-0.063471
0.093332
0.029908
0.038403
0.056275
0.059956
-0.026629
-0.001589
-0.046653
-0.002442
0.036301
0.170334
0.326023
0.479229
0.790164
1.114698
1.435265
1.477020
1.292487
1.053902
0.527765
0.158505
-0.006476
-0.235640
-0.220646
-0.193839
-0.015741
0.033309
0.068953
0.035310
0.013785
0.110825
0.069400
0.025505
0.052121
0.096022
0.103786
0.097842
0.150988
0.213487
0.174215
0.166545
0.171059
0.262086
0.157721
0.251411
0.229145
0.257622
0.315019
0.316483
0.344340
0.441692
0.404220
0.358146
0.468637
0.521925
0.427604
0.436776
0.472992
0.456997
0.500284
0.486911
0.599499
0.515995
0.508786
0.507305
0.455441
0.487768
0.506741
0.410379
0.444876
0.484729
0.437255
0.439724
0.393900
0.486719
0.422775
0.332175
0.430291
0.281511
0.340603
0.297445
0.238994
0.255117
0.246388
0.177108
0.115237
0.132046
0.213167
0.101705
0.164667
0.051800
0.020085
-0.056479
0.021496
0.113895
0.079747
-0.053103
0.045281
-0.006273
0.028937
0.044587
-0.000719
-0.049233
0.030897
-0.065034
-0.022164
0.028009
-0.045529
0.052238
-0.063172
-0.085284
-0.056670
0.003495
-0.047297
-0.051987
-0.118872
-0.072542
-0.084707
-0.016097
-0.071827
-0.065205
-0.047219
-0.041734
-0.038588
-0.014734
-0.047517
-0.117367
-0.144536
0.003213
-0.067157
-0.066075
0.005580
-0.061914
-0.163389
0.021885
-0.122761
-0.079145
-0.045705
-0.035175
-0.045015
0.012056
-0.125401
0.003681
-0.053509
-0.024207
-0.025854
-0.130220
-0.043132
-0.022971
-0.022302
-0.105522
-0.062766
-0.017174
0.008031
-0.028549
0.001791
0.053256
0.116663
0.152958
0.139000
0.125061
0.026472
0.052105
0.045158
-0.006410
0.133229
0.107873
0.072730
0.109263
0.151368
0.190468
0.043205
0.029741
0.137224
0.124080
0.003175
0.045707
-0.020100
0.022787
0.024531
-0.039765
0.082419
-0.053365
0.004814
-0.038361
-0.008821
-0.030684
0.007925
-0.111880
-0.071750
-0.138572
0.023796
-0.001284
-0.117095
-0.148610
-0.134469
-0.061278
-0.038666
-0.151340
-0.103068
-0.050391
-0.090143
-0.038568
0.145365
0.315888
0.622658
0.853029
1.179689
1.324024
1.193980
0.978896
0.639963
0.158215
-0.095383
-0.245700
-0.290081
-0.276867
-0.252913
-0.243108
-0.121773
-0.035963
-0.080204
0.013515
-0.064437
-0.026197
0.027727
0.009833
0.008265
0.015347
0.039587
0.056340
0.059943
0.110677
0.136668
0.029477
0.144338
0.177117
0.133937
0.181467
0.178874
0.151838
0.230038
0.308980
0.194697
0.336647
0.208655
0.290471
0.369616
0.346572
0.293295
0.347424
0.426377
0.496862
0.387903
0.467926
0.389925
0.453966
0.466485
0.458801
0.401088
0.408296
0.438301
0.424800
0.365339
0.421368
0.348142
0.281062
0.267587
0.226221
0.289895
0.295556
0.317688
0.180225
0.212741
0.157775
0.093083
0.106721
0.048713
0.099420
0.151630
0.122649
0.049888
0.001323
-0.006355
-0.037333
0.000115
-0.023157
-0.073525
0.007986
-0.032659
-0.117982
-0.028003
-0.197573
-0.044069
-0.089998
-0.069015
-0.065025
-0.117334
-0.100815
-0.060721
-0.162583
-0.120046
-0.097373
-0.116389
-0.117002
-0.049219
-0.070363
-0.056694
0.067487
-0.085434
-0.056963
-0.176301
-0.119377
-0.061464
-0.102193
-0.057763
-0.151883
-0.127745
-0.124564
-0.068682
-0.101890
-0.037558
-0.076330
-0.046659
0.066064
-0.034191
-0.086302
-0.032332
-0.111126
-0.067434
-0.085281
-0.133259
-0.127553
-0.072846
-0.111551
-0.151901
-0.045020
-0.086544
-0.119979
-0.015711
-0.104573
-0.047762
-0.088835
-0.140303
0.009617
-0.076262
-0.106165
-0.004543
0.048988
-0.015765
0.037635
0.016611
-0.031577
0.042345
0.012751
0.080934
0.043096
0.094960
0.157855
0.047421
0.010197
0.096789
0.089802
0.100438
0.063126
0.119314
0.096966
0.184569
-0.004200
0.052655
0.092430
0.073781
0.043481
0.043699
0.022082
-0.059547
-0.035835
0.042820
-0.119175
-0.030612
0.054309
-0.053320
-0.025994
-0.120549
-0.041175
-0.006278
-0.136469
-0.077431
-0.063693
-0.076187
-0.092490
-0.016898
-0.132175
-0.208304
-0.091241
-0.017370
0.215718
0.498797
0.873695
1.181619
1.434979
1.306213
1.210246
0.721046
0.512512
0.025315
-0.149811
-0.276681
-0.250147
-0.122097
-0.234707
-0.083149
-0.087375
-0.093972
0.013182
-0.058639
0.028652
-0.060921
0.054721
-0.018345
-0.025451
0.028510
0.006884
0.054783
0.073752
0.160769
0.180209
0.191776
0.201460
0.167366
0.188104
0.244654
0.350476
0.234016
0.225799
0.242213
0.300123
0.375726
0.386345
0.448205
0.427932
0.416828
0.449730
0.444440
0.480902
0.475996
0.593132
0.504073
0.490418
0.522441
0.467569
0.489318
0.461513
0.423931
0.444009
0.483900
0.484928
0.457651
0.360789
0.386195
0.376113
0.302646
0.333574
0.324471
0.305048
0.227984
0.223275
0.193361
0.175446
0.184926
0.137357
0.102612
0.104418
0.090052
0.109230
0.048506
0.046489
0.081950
0.080569
0.046270
0.043858
0.013651
-0.036049
0.020277
0.027124
0.063986
-0.024427
-0.003479
-0.084484
-0.000903
-0.066190
-0.058851
-0.029998
-0.032932
-0.035726
-0.029069
0.025363
-0.001084
0.000190
0.166836
0.016350
-0.011209
-0.020433
-0.027367
0.039977
0.051300
-0.096661
0.000362
0.039803
-0.054118
-0.071646
-0.010867
-0.014449
-0.013820
-0.069063
0.083754
-0.067877
-0.033370
0.017799
0.010557
0.049697
0.050100
-0.005333
0.049516
-0.051619
-0.019601
-0.021912
-0.020158
-0.039081
0.025379
0.060556
0.013238
0.043095
0.004038
-0.002579
0.110815
0.062081
0.038187
0.081989
0.062131
0.107575
0.080663
0.192506
0.070883
0.193709
0.111581
0.130322
0.135520
0.164513
0.213048
0.219870
0.170714
0.180651
0.212682
0.296990
0.140335
0.221723
0.226089
0.169025
0.147893
0.187901
0.198047
0.191137
0.138851
0.113299
0.072296
0.124614
0.088601
0.054082
0.041975
0.132508
0.070021
0.088193
-0.011024
0.072422
0.060089
0.070252
0.037243
-0.015382
0.085784
-0.050207
0.018107
0.022060
0.049241
-0.003181
-0.014098
0.135466
0.140473
0.282644
0.438329
0.894843
1.166169
1.440819
1.459950
1.210199
1.057004
0.696591
0.256486
-0.111118
-0.139482
-0.120544
-0.070537
-0.076230
0.000943
0.071748
0.097162
0.110792
0.176134
0.110982
0.115321
0.114350
0.099833
0.144862
0.219688
0.181861
0.117612
0.240341
0.202155
0.226553
0.254392
0.309597
0.278431
0.248210
0.305777
0.322937
0.383398
0.379188
0.440608
0.369254
0.462543
0.516058
0.522412
0.515077
0.505600
0.533580
0.549498
0.497672
0.623155
0.642609
0.563070
0.620750
0.537444
0.605019
0.652279
0.565172
0.560894
0.506941
0.586470
0.558717
0.570786
0.453511
0.438511
0.500859
0.406304
0.425114
0.437758
0.304356
0.336630
0.306254
0.267980
0.285276
0.267569
0.295567
0.227868
0.175847
0.258199
0.184466
0.165184
0.173651
0.174763
0.174510
0.095827
0.091087
0.148984
0.074188
0.060410
0.176043
0.090237
0.109961
0.142358
0.137226
0.089139
0.098474
0.097324
0.040629
0.112019
0.050357
0.075389
0.055344
0.135269
0.044796
0.150226
0.099148
0.020142
0.065066
0.134842
0.099139
0.085707
0.043968
0.094729
0.064416
0.016274
0.137395
0.098912
0.124828
-0.025321
0.078408
0.043909
