0.082237
-0.092325
0.041646
0.033702
-0.071743
0.068613
0.014497
-0.041538
0.035593
0.017938
-0.007943
-0.021629
-0.053777
0.011447
-0.022857
-0.027140
-0.011402
0.002687
0.068640
0.011185
-0.031876
0.034973
-0.063971
0.005073
-0.024645
0.067204
-0.017052
0.003275
0.015885
0.048413
0.123036
0.074696
-0.021150
0.078569
0.084891
0.114539
0.056338
-0.026949
0.066210
0.136800
0.038277
0.136536
0.167559
0.125283
0.102978
0.124406
0.227780
0.182120
0.192412
0.183084
0.219834
0.237287
0.212656
0.252615
0.147850
0.191532
0.169532
0.202099
0.136962
0.153213
0.095996
0.182556
0.037936
0.170216
0.143397
0.191232
0.116260
0.068149
0.106222
0.043101
0.065751
0.026782
0.049106
0.167448
0.068473
0.088135
0.030456
0.051426
0.039860
0.082036
0.082406
-0.001298
-0.005044
0.071017
0.064165
0.014059
0.075828
0.075786
0.062598
0.124613
0.034603
0.126466
0.063198
-0.068962
-0.020503
0.006947
0.005155
0.020251
0.092735
0.341171
0.631020
0.907397
1.149056
1.415159
1.464426
1.248708
0.982966
0.651581
0.293144
0.072789
-0.100912
-0.221154
-0.280424
-0.179191
-0.095938
-0.104278
-0.010651
-0.028987
0.099537
0.066537
0.116184
0.102776
0.030117
0.102441
0.018252
0.087203
0.061449
0.038021
0.107565
0.111019
0.122343
0.106635
0.097214
0.079753
0.092361
0.012916
0.081716
0.018817
0.145754
0.178000
0.136650
0.223181
0.197676
0.307161
0.193992
0.249539
0.247788
0.198631
0.267454
0.271591
0.289295
0.380663
0.333668
0.335820
0.352533
0.380168
0.478711
0.477650
0.449277
0.384042
0.421094
0.531554
0.517276
0.548011
0.629478
0.546947
0.520515
0.568877
0.630174
0.622115
0.535812
0.564705
0.542617
0.540929
0.557634
0.388420
0.503673
0.456931
0.464228
0.485570
0.341469
0.400378
0.389854
0.406543
0.400296
0.360709
0.240907
0.380900
0.356367
0.265820
0.219853
0.233933
0.203271
0.216279
0.176769
0.195602
0.073640
0.166151
0.156267
0.177074
0.101790
0.139872
0.087183
0.148020
0.121568
0.130312
0.159779
0.085887
0.048488
0.156423
0.081530
0.064028
0.029673
0.166594
0.084711
0.143405
0.028740
0.067058
0.098221
0.086518
0.121723
0.091369
0.034185
0.137292
0.047893
0.093842
0.060611
0.017117
0.102076
0.038210
0.092956
0.045440
0.097894
0.066263
0.069807
0.078397
0.083848
-0.019504
0.060612
0.127989
0.065175
0.094752
0.057622
0.124280
-0.033063
0.099497
0.087834
0.075164
0.041798
0.074218
0.050915
0.036442
0.061922
-0.011878
0.056695
0.018757
0.063555
0.107052
0.056636
0.053499
0.033917
0.006443
0.066441
0.099261
0.079487
0.128715
0.069769
0.113347
0.051691
0.061831
-0.004439
0.098486
0.102169
0.003796
0.102572
0.108057
-0.014026
0.089202
-0.019125
0.108740
0.126101
0.128002
0.166226
0.014219
0.094786
0.190084
0.019701
0.115956
0.087230
0.134804
0.060561
0.125376
0.076972
0.095246
0.084757
0.107716
0.092348
0.146144
0.133296
0.189664
0.183119
0.177916
0.203487
0.194082
0.190062
0.114325
0.209991
0.244056
0.294612
0.254264
0.204198
0.270581
0.181689
0.203229
0.189457
0.194208
0.218562
0.208030
0.158153
0.073398
0.138260
0.089302
0.100416
0.159591
0.183928
0.140569
0.107074
0.083973
0.089252
0.039437
-0.021123
0.093851
0.125137
0.063613
0.030744
-0.052794
0.039336
0.028072
0.024803
0.050530
0.000511
0.075059
0.028199
0.060002
0.015491
0.016116
0.074564
0.067575
-0.009439
0.014302
-0.018458
0.076246
0.062346
-0.067437
-0.040216
-0.036283
0.105085
0.179620
0.512759
0.660154
1.056783
1.263632
1.344535
1.274501
1.120363
0.852700
0.546432
0.204061
-0.016985
-0.133867
-0.283699
-0.178937
-0.193413
-0.147711
-0.057903
-0.037287
-0.025197
0.026512
0.044615
0.030794
0.005310
-0.005839
0.077085
0.005230
-0.047856
0.080560
0.068954
0.037938
0.069721
0.081790
0.077912
0.007104
0.091402
0.008508
0.124373
0.076047
0.143808
0.051862
0.038185
0.141588
0.043802
0.058860
0.057814
0.146136
0.140877
0.118818
0.197127
0.238356
0.152190
0.308337
0.268799
0.298535
0.254227
0.314218
0.413004
0.323195
0.402372
0.432638
0.428431
0.407567
0.484248
0.510138
0.432954
0.405023
0.461707
0.473346
0.454760
0.457535
0.489626
0.460342
0.507675
0.479946
0.436227
0.500324
0.433578
0.345100
0.315726
0.374120
0.357201
0.308419
0.311335
0.161399
0.303354
0.203768
0.230604
0.211493
0.242331
0.146299
0.200090
0.112350
0.069645
0.059483
0.122485
0.095310
0.079661
0.074787
-0.004436
0.092872
0.134882
-0.008041
-0.001509
0.008560
0.038217
0.024805
0.080438
0.005104
0.044547
0.042364
-0.002992
0.009355
-0.041304
-0.010235
0.016215
-0.007266
-0.003508
-0.125196
0.052549
-0.029956
-0.037792
-0.146200
-0.064199
-0.049100
0.047843
0.019330
0.012828
-0.040456
-0.009784
-0.004012
0.034530
-0.017536
-0.077557
-0.032285
0.050706
-0.050324
-0.009296
-0.046153
-0.015116
0.056247
0.039013
-0.034980
-0.102278
-0.018368
-0.102148
-0.044632
-0.006148
-0.052168
-0.132192
-0.056454
0.022872
-0.021607
-0.132379
-0.015828
-0.075101
-0.034977
-0.071774
-0.025523
-0.073663
-0.025625
-0.024731
-0.014137
-0.021620
0.012075
-0.018125
-0.062871
-0.007837
-0.075584
0.031668
-0.022750
0.004580
-0.017848
-0.047813
-0.048588
-0.004739
-0.059554
0.016800
-0.045489
-0.068384
-0.023503
-0.073887
-0.010091
-0.062501
-0.045256
-0.015028
-0.051253
-0.058660
-0.085560
-0.035087
-0.057647
-0.068776
-0.011988
-0.044478
0.008824
-0.020803
0.094464
0.059216
-0.021825
-0.049122
0.013421
0.076248
0.064247
0.023393
0.046744
0.161087
0.101021
0.023417
0.147415
0.187386
0.103098
0.145734
0.105881
0.048876
0.190427
0.100825
0.094136
0.057696
0.099420
0.149305
0.037309
0.053911
0.077620
0.045879
0.120001
0.023666
0.037027
0.012504
-0.000611
0.046276
0.004990
0.019196
0.003481
-0.050273
-0.047698
0.047375
0.056445
-0.023240
0.037304
-0.065245
-0.009299
-0.110678
-0.072451
0.006914
-0.016811
0.007815
-0.056311
-0.071853
-0.023547
-0.086612
-0.026504
-0.062267
-0.049397
-0.115892
-0.046267
-0.090578
-0.121295
-0.096412
-0.032776
0.142084
0.472191
0.829908
1.119701
1.253763
1.360762
1.222257
0.982665
0.610451
0.360598
0.069061
-0.190286
-0.282875
-0.285496
-0.350012
-0.222428
-0.165875
-0.158142
-0.138238
-0.042387
-0.017229
-0.065942
-0.072247
-0.040969
-0.035463
-0.040241
-0.085524
0.049257
-0.025120
-0.025653
-0.000993
-0.035359
-0.018865
0.039074
0.039606
-0.012367
0.004975
0.048597
0.061085
0.057827
0.106205
-0.018207
0.051951
0.097868
0.102241
0.064904
0.188374
0.100897
0.170472
0.175688
0.237871
0.210000
0.238902
0.200447
0.312876
0.295225
0.301244
0.348238
0.302784
0.434468
0.401721
0.399044
0.389526
0.404728
0.407900
0.421944
0.391056
0.422373
0.553526
0.495779
0.458102
0.507267
0.504221
0.484011
0.450479
0.401330
0.383611
0.408410
0.375017
0.405514
0.429535
0.387477
0.308963
0.415540
0.316220
0.200481
0.288029
0.292793
0.172908
0.186385
0.181250
0.209734
0.093242
0.111940
0.143542
0.079188
0.155246
0.050910
0.074372
0.081608
0.054175
0.081164
0.065677
0.073378
0.024468
0.019459
0.069934
0.001056
0.083204
0.048458
0.016648
0.041131
0.059408
0.065840
-0.008251
0.001338
-0.005759
-0.051700
0.097694
-0.010002
0.130403
-0.052671
-0.008225
0.025448
0.070934
0.031412
0.152352
0.039246
-0.014089
0.017180
0.029980
0.023837
0.107739
0.001475
0.082079
0.017062
0.001442
0.010745
0.007796
0.031956
-0.001433
0.087385
0.057941
0.062029
0.007791
0.056637
0.099898
0.012052
-0.013724
-0.010019
0.066318
0.037911
-0.011017
0.015041
0.031641
0.034221
0.109499
0.053035
0.091279
0.090304
0.004202
-0.001847
0.023848
0.043940
-0.008579
0.023911
0.013391
0.037215
0.027081
0.030954
0.066919
0.002615
0.031485
0.046325
0.113617
0.048828
0.091030
0.040360
0.025464
0.065148
0.064868
0.056220
0.003857
0.029616
0.070910
0.077202
0.058854
0.080931
0.089232
-0.009300
0.077088
0.081766
0.085672
0.014573
0.069788
0.122553
0.117402
0.090995
0.096064
0.189412
0.046691
0.098908
0.176997
0.237533
0.261628
0.153626
0.173790
0.144099
0.240752
0.214991
0.229817
0.228575
0.160278
0.227727
0.186611
0.237199
0.170093
0.246422
0.240086
0.197623
0.192266
0.168544
0.192373
0.148354
0.238316
0.120314
0.138993
0.099619
0.091624
0.108681
0.121385
0.115221
0.130903
0.063586
0.068006
0.148370
0.066935
0.047081
0.062581
0.026310
0.066944
0.120264
0.099919
0.151431
0.102537
0.028032
0.074100
0.034049
0.024595
0.024259
0.115258
0.066862
0.112303
0.062337
0.004251
-0.031524
-0.006972
0.083188
0.156497
0.339389
0.747289
0.953369
1.238217
1.479412
1.400648
1.196297
1.005640
0.602260
0.396673
0.120561
-0.183203
-0.291191
-0.242395
-0.214527
-0.073802
-0.037892
0.035168
0.059111
0.059991
0.042432
0.090385
0.049388
0.117333
0.105698
0.095730
0.098993
0.173613
0.127394
0.083364
0.082399
0.110663
0.095034
0.141080
0.013589
0.170627
0.126722
0.147224
0.082251
0.077471
0.193117
0.170585
0.187279
0.247649
0.142815
0.254809
0.205383
0.257842
0.275471
0.223153
0.372207
0.333945
0.249173
0.353342
0.355009
0.404886
0.407411
0.390927
0.473013
0.438759
0.486367
0.518715
0.515958
0.559531
0.609382
0.552349
0.548119
0.622524
0.601622
0.686374
0.647398
0.536254
0.530836
0.509175
0.562325
0.514435
0.458858
0.510539
0.452823
0.517105
0.441617
0.440834
0.411740
0.323714
0.370148
0.374971
0.308203
0.294464
0.318753
0.214597
0.233796
0.232288
0.273118
0.298967
0.212480
0.221007
0.196696
0.099295
0.250000
0.094481
0.143692
0.142971
0.164789
0.168514
0.095558
0.088097
0.083457
0.069138
0.065065
0.113568
0.079025
0.005500
0.185612
0.102618
0.146100
0.068909
0.024099
0.091697
0.146335
0.044861
0.009920
0.094102
0.083538
0.127184
-0.039204
0.043940
0.027343
0.047383
0.064024
0.042951
0.053336
0.063878
0.009158
0.053917
0.076741
0.094132
0.108988
0.064983
0.073996
0.107486
0.062937
0.042941
0.017234
0.117747
0.015852
0.041584
0.100173
0.080770
0.008462
-0.002074
0.066013
0.057491
0.109697
0.121182
0.090840
0.081102
0.053715
0.113099
0.084068
0.066443
0.055244
0.070279
0.043437
0.005135
0.080434
-0.032406
0.085048
0.046667
0.068052
-0.032227
0.039298
0.062276
0.042952
0.091256
0.077431
0.058397
-0.011471
0.036317
-0.002120
0.035202
0.035736
0.103327
0.077728
0.013947
0.062844
-0.005684
-0.016883
0.075704
0.115683
-0.000198
0.068962
0.066283
0.047137
0.079524
0.078044
0.041504
0.124947
0.087631
0.051947
0.126681
0.209269
0.145326
0.165019
0.120228
0.160615
0.217495
0.170010
0.220353
0.258468
0.138411
0.206901
0.211620
0.151304
0.203809
0.154891
0.140139
0.214234
0.114774
0.158079
0.280930
0.182308
0.158353
0.156857
0.231019
0.145966
0.169015
0.093888
0.100116
0.106168
0.042319
0.097272
0.118546
0.062976
0.040669
0.064145
0.020371
0.020573
0.057038
0.070857
0.068988
0.008623
0.019113
0.035598
0.032201
0.029582
0.011402
0.097109
-0.028586
0.043923
-0.014429
0.065640
0.103291
-0.033207
-0.053006
-0.063190
-0.023835
-0.061921
-0.006780
0.167324
0.529364
0.836220
1.057771
1.290249
1.371731
1.331418
1.131650
0.712709
0.499726
0.130911
-0.122178
-0.194938
-0.272915
-0.242855
-0.187812
-0.142058
-0.030970
-0.033399
0.001362
-0.053888
0.003006
-0.026588
-0.045911
-0.039658
0.044741
0.021068
-0.042102
0.028772
-0.002909
0.009713
0.006205
-0.010482
-0.072840
0.066927
0.006351
0.042736
-0.011480
0.049935
-0.001518
0.001707
0.054752
0.093872
0.028923
0.076579
0.110555
0.108286
0.119831
0.162197
0.177065
0.193813
0.245879
0.167177
0.208433
0.278656
0.324328
0.270805
0.298272
0.251425
0.188924
0.347562
0.410023
0.357964
0.433957
0.396823
0.477653
0.481150
0.435236
0.422736
0.474112
0.494365
0.478091
0.489194
0.471720
0.392508
0.367579
0.360903
0.469758
0.343543
0.371406
0.429638
0.225492
0.309548
0.263512
0.218941
0.245378
0.262452
0.178828
0.138911
0.148519
0.139182
0.136110
0.148206
0.096364
0.072495
0.034345
0.159495
0.025608
0.030259
0.018163
0.024204
-0.015335
-0.057844
-0.046374
0.001207
-0.051755
0.024233
-0.047068
-0.041541
-0.100432
-0.034511
-0.076408
-0.063449
-0.082876
-0.057155
-0.042911
0.043602
-0.054362
-0.128030
-0.000408
-0.049032
-0.068638
-0.073392
-0.084979
-0.000126
-0.006959
-0.076440
-0.065749
-0.056399
-0.005560
-0.161296
-0.052143
-0.063928
-0.125998
-0.123746
-0.048529
-0.019245
-0.087329
-0.043177
-0.046314
-0.086893
0.031007
-0.113614
-0.085685
-0.057773
-0.048146
-0.078432
-0.110070
-0.037340
-0.070712
-0.101842
-0.116838
-0.071171
-0.060073
-0.014965
-0.066484
-0.133653
-0.114986
-0.076893
-0.112051
-0.082655
-0.047988
-0.047868
-0.137366
-0.074554
-0.083886
-0.085573
-0.099331
-0.127662
-0.008869
-0.164205
-0.157530
-0.049206
-0.053760
-0.059221
0.032451
-0.010240
-0.008483
-0.037739
-0.056558
-0.083656
-0.100419
-0.166427
-0.056718
0.034086
-0.044033
-0.058053
-0.136198
-0.058413
-0.083883
-0.002530
-0.100022
-0.033370
-0.053334
-0.000975
-0.018178
-0.022230
-0.005063
-0.001497
0.030494
0.058494
0.016947
-0.024079
0.028423
0.011448
0.065324
0.058500
-0.002308
0.144493
0.083546
0.208630
0.006925
0.047720
0.103169
0.118990
0.034449
0.065702
0.086921
0.118106
-0.028456
0.059737
0.076241
0.021620
0.141778
0.059483
0.054133
0.061226
0.034981
-0.020470
-0.002606
-0.146866
-0.046230
-0.071710
-0.048692
-0.029097
-0.101811
-0.161426
-0.064539
-0.057003
-0.055010
-0.100442
-0.093225
-0.057139
-0.069213
-0.029110
-0.051185
0.021928
-0.076743
-0.095474
-0.078194
0.070278
-0.056681
-0.085057
-0.055589
-0.075570
-0.118122
-0.119827
-0.041759
-0.067691
0.165549
0.465962
0.834429
1.072406
1.189856
1.354342
1.165903
0.886717
0.494764
0.162894
-0.025891
-0.232689
-0.323283
-0.379457
-0.327360
-0.232445
-0.166736
-0.145643
-0.109604
-0.063202
-0.041761
-0.051811
-0.064532
-0.034316
-0.030933
-0.110147
0.049459
-0.010002
-0.086318
-0.032711
-0.065491
-0.108367
-0.064475
-0.023490
-0.067033
0.039708
-0.032947
0.021294
0.006354
0.007049
-0.056335
0.010128
0.064963
-0.001743
0.120025
0.084363
0.096336
0.081501
0.080301
0.179057
0.193539
0.283460
0.215259
0.179674
0.171276
0.121849
0.271424
0.229606
0.340858
0.331256
0.242396
0.376504
0.358044
0.380500
0.433022
0.434247
0.387972
0.428690
0.468710
0.424489
0.504733
0.438621
0.362787
0.432185
0.427729
0.429271
0.435361
0.379515
0.424267
0.353345
0.331157
0.250910
0.353677
0.256298
0.334583
0.155506
0.192154
0.044893
0.154399
0.195686
0.173128
0.191734
0.133141
0.091960
0.081701
0.019984
0.022988
-0.008266
0.066754
0.019105
0.034529
0.004103
0.048237
-0.050772
0.070629
0.006667
-0.026591
0.006063
-0.027810
-0.016778
-0.018597
-0.078802
-0.023592
0.033056
-0.025647
-0.072660
-0.017045
-0.016258
0.013461
-0.007584
-0.006950
0.016191
-0.068977
0.007919
0.027400
-0.014917
-0.000955
-0.021728
-0.021542
-0.046716
-0.013596
-0.031045
-0.017880
0.012711
0.016802
0.011423
-0.032393
-0.059588
-0.018677
0.073967
-0.039131
-0.024460
-0.007142
-0.038814
-0.042884
-0.084860
0.005232
-0.019935
-0.001389
0.010358
-0.060770
0.055938
-0.056507
0.010328
-0.039345
0.049357
-0.000466
-0.025506
0.060291
0.056354
0.047790
0.003158
0.077283
-0.049055
0.024935
-0.052743
0.032201
-0.018844
-0.007850
-0.042348
0.026333
-0.022910
0.081122
0.032932
0.106705
-0.040688
0.109837
0.014952
0.020571
0.064960
0.055567
0.028594
-0.028348
-0.005543
0.004987
0.032383
-0.071818
0.058289
0.106251
0.077081
0.091860
0.002797
0.110352
-0.021098
0.032117
0.054425
0.048890
0.049422
0.072883
0.106175
0.142792
0.092930
0.173403
0.161394
0.215900
0.198620
0.206015
0.230093
0.161550
0.170892
0.259279
0.246346
0.115190
0.200018
0.168084
0.192800
0.299818
0.003801
0.148738
0.207973
0.104184
0.178954
0.137513
0.105754
0.024633
0.150686
0.044465
0.069985
0.089329
0.016676
0.043455
0.038918
0.040309
0.016566
0.047912
0.037816
0.132015
-0.029998
0.082688
0.084462
-0.013396
-0.004696
-0.002271
0.021324
0.092629
0.053743
0.030855
0.026646
0.054357
0.052350
0.090009
0.008790
0.034912
-0.005066
0.024111
-0.030505
0.047553
0.060762
0.163261
0.403512
0.666667
1.039011
1.296343
1.385972
1.388419
1.128584
0.876969
0.451027
0.258268
-0.020107
-0.177487
-0.265289
-0.245660
-0.181501
-0.095620
-0.039927
0.081210
0.033620
-0.034652
0.103645
0.099378
0.083992
0.049454
0.050293
0.075679
0.020798
0.025361
0.042119
0.031508
0.095608
0.069347
0.034802
0.099804
0.044163
0.062886
0.082900
0.022051
0.122564
0.075788
0.085924
0.160311
0.124044
0.129182
0.180105
0.064758
0.177630
0.211969
0.311489
0.271021
0.290643
0.292729
0.322212
0.359948
0.349303
0.388373
0.402646
0.459132
0.451818
0.478634
0.403215
0.530114
0.501733
0.478389
0.515681
0.583187
0.459597
0.533898
0.457451
0.538698
0.518721
0.468493
0.504065
0.555195
0.507325
0.428679
0.497342
0.517739
0.366493
0.451433
0.447337
0.396416
0.344096
0.294517
0.391596
0.386607
0.243829
0.247626
0.204841
0.257096
0.222367
0.223936
0.223219
0.097588
0.145055
0.101950
0.093315
0.181901
0.173180
0.128401
0.027439
0.037419
0.086657
0.146356
0.055369
0.066602
0.032830
0.084517
0.113277
0.024095
0.036252
0.016693
0.031909
0.087216
0.130505
-0.008542
0.093926
-0.031519
-0.002854
0.119565
-0.036110
0.011618
0.076873
-0.004695
0.065533
0.007837
-0.077415
0.042982
0.062073
0.079657
0.051397
-0.022712
0.026751
0.047474
0.018622
-0.039068
0.047842
-0.051212
0.040044
0.091362
0.023942
0.045143
0.016707
0.088242
0.030962
-0.014794
0.008431
0.007107
0.032951
0.028414
0.021308
0.053442
0.080163
0.020499
-0.000375
0.008643
0.067335
0.014038
-0.053114
-0.000701
0.009302
0.017733
0.037363
0.049836
0.002225
0.028727
0.047573
-0.033858
0.057498
-0.020136
-0.001371
0.006917
-0.010923
0.088421
0.022654
0.015850
0.015500
0.017620
-0.052553
0.003789
-0.004310
0.021064
-0.018267
0.013316
0.046561
0.033825
0.077673
0.007900
-0.022007
-0.034685
-0.006011
0.044420
0.070257
0.058249
-0.002633
0.017014
0.081111
0.040989
0.050400
0.071264
0.067827
0.146160
0.039050
0.059804
0.142344
0.144974
0.200830
0.144216
0.216286
0.206739
0.164444
0.142365
0.222723
0.179907
0.173154
0.168090
0.173325
0.120874
0.109019
0.181857
0.117530
0.160008
0.175887
0.168359
0.065954
0.048183
0.021980
-0.023972
0.065244
-0.007439
0.037146
0.002919
0.109072
0.012036
-0.028824
-0.021800
-0.071107
-0.071994
-0.046640
-0.003001
0.024137
-0.056242
-0.000797
0.005855
-0.003806
-0.025121
-0.024032
0.007883
-0.015783
-0.055303
-0.085299
0.001308
-0.046747
-0.165062
-0.198144
-0.050667
-0.030058
-0.041229
0.090146
0.497633
0.771493
1.057235
1.241747
1.416363
1.166328
1.050203
0.643625
0.332483
0.080646
-0.111033
-0.327488
-0.313993
-0.339358
-0.324776
-0.150004
-0.098984
-0.111229
-0.091024
-0.095172
-0.004339
-0.015504
-0.011128
-0.005432
-0.011054
-0.054664
-0.022545
0.002427
-0.053340
-0.066500
0.036584
-0.018823
0.005586
0.051761
0.020778
0.015365
-0.093369
0.012755
-0.047245
0.035960
0.106414
0.041641
-0.001477
0.067889
0.085401
0.092759
0.053125
0.119658
0.133976
0.227715
0.232866
0.110492
0.201613
0.202926
0.197224
0.252018
0.278719
0.251203
0.362387
0.426711
0.420553
0.287846
0.330844
0.387182
0.378203
0.408307
0.454864
0.425901
0.425976
0.379617
0.422066
0.454188
0.375094
0.424319
0.396111
0.427062
0.352183
0.291816
0.305368
0.388463
0.323370
0.266008
0.188616
0.186087
0.243169
0.127539
0.107651
0.121790
0.188167
0.154004
-0.002918
0.085704
0.059785
0.016727
0.002506
0.040910
-0.012584
0.018222
0.001184
-0.004217
-0.037071
-0.027857
-0.073936
0.002555
-0.084609
-0.099412
-0.028440
-0.075618
-0.103438
-0.067945
-0.100239
-0.091069
-0.041746
-0.121753
-0.125696
0.002713
-0.051280
-0.096893
-0.004560
-0.208597
-0.034204
-0.111241
-0.065448
-0.020812
-0.091162
-0.107318
-0.104620
-0.102578
-0.111229
-0.058725
-0.030852
-0.095351
-0.038807
-0.101947
-0.023962
-0.093506
-0.101029
-0.062805
-0.033844
-0.053524
-0.145748
-0.109880
-0.090120
-0.130807
-0.090638
-0.076256
-0.074656
-0.115572
-0.137360
-0.072558
-0.060621
-0.114268
-0.140043
-0.115533
-0.147326
-0.103966
-0.060729
-0.073873
-0.181344
-0.095890
-0.125938
-0.086798
-0.095272
-0.035307
-0.081243
-0.122469
-0.088380
-0.091795
-0.157917
-0.114794
-0.145432
-0.056328
-0.133101
-0.123280
-0.095547
-0.134036
-0.126814
-0.096194
-0.060004
-0.117398
-0.053821
-0.030369
-0.074649
-0.089018
-0.113364
-0.062190
-0.089148
-0.095965
-0.062683
-0.021308
-0.062943
-0.047105
-0.109190
-0.069106
-0.026377
-0.011566
0.021450
-0.021114
0.003927
-0.058240
-0.029306
0.040394
-0.028997
-0.007514
0.092330
0.140984
0.065292
0.068593
0.074969
0.106719
0.038260
0.114406
0.125636
0.060998
0.046205
0.130379
0.111211
0.049101
0.051031
0.032558
-0.012623
-0.013031
0.017565
0.036632
-0.041000
-0.053680
0.009387
-0.060337
0.039052
-0.040234
-0.061739
-0.061763
-0.031754
-0.039627
-0.068683
-0.065432
-0.109224
-0.054023
-0.074909
-0.156615
-0.072887
-0.072913
-0.122482
-0.006098
-0.059238
-0.105353
-0.067883
-0.051735
-0.070816
-0.100697
-0.068256
-0.122861
-0.070899
-0.068029
-0.088213
-0.192068
-0.164346
-0.059035
0.196085
0.507710
0.769239
1.159170
1.251492
1.232209
1.077370
0.874956
0.576248
0.223010
0.002641
-0.209606
-0.365157
-0.362418
-0.334399
-0.334088
-0.076194
-0.145707
-0.050847
-0.128357
-0.029684
-0.063829
-0.082777
-0.077800
-0.045549
-0.037342
-0.067934
-0.016920
-0.110804
0.035223
-0.026809
-0.065702
-0.058728
-0.039518
-0.021682
0.087041
0.007811
-0.026935
0.013532
0.037414
0.027155
-0.019945
0.047699
0.119717
0.011886
0.035762
0.165894
0.156732
0.129280
0.100013
0.111641
0.191598
0.119131
0.206859
0.176849
0.305367
0.368172
0.320067
0.289269
0.408537
0.348079
0.385294
0.344777
0.426555
0.459819
0.428460
0.410695
0.505911
0.431769
0.509245
0.436186
0.411603
0.403593
0.444128
0.382250
0.492272
0.502905
0.453477
0.378292
0.392120
0.310764
0.333427
0.230203
0.349472
0.227075
0.246885
0.260460
0.269442
0.220354
0.217777
0.197664
0.119551
0.118045
0.118289
0.037142
0.101277
0.077914
0.072584
0.106038
0.026431
0.004577
0.052998
0.091310
-0.090435
-0.004197
-0.031483
-0.036418
0.030146
0.024086
-0.054877
-0.025068
-0.033568
-0.051399
-0.004118
-0.042796
-0.030457
0.018260
-0.019309
-0.039983
-0.023423
0.119919
-0.052163
0.011602
-0.020326
-0.084104
0.022053
-0.044973
-0.033146
0.029175
-0.082255
-0.012826
-0.014203
-0.059686
0.018248
0.042120
-0.058240
-0.017494
-0.027780
-0.014955
0.035007
-0.045297
0.024788
-0.017489
-0.061570
-0.027956
0.039797
-0.026562
0.004462
-0.000040
-0.052667
0.004005
0.007771
0.000685
-0.019379
0.053775
0.037804
-0.053686
-0.052287
-0.014077
0.040056
-0.025900
0.004959
0.041875
0.070095
-0.000335
0.001155
0.007036
0.024581
0.001674
0.018541
0.036109
0.087173
0.057115
0.017663
0.061755
0.087814
-0.001784
0.075154
0.001837
0.088575
0.060753
0.027388
0.021145
0.022633
0.062093
0.005420
0.018481
0.030821
0.013376
0.056667
0.089647
0.023472
0.011167
0.083480
0.041759
0.115479
0.077502
0.023214
0.086602
0.170990
0.157912
0.133922
0.144203
0.135987
0.203039
0.183165
0.233942
0.144016
0.157523
0.149114
0.187562
0.223804
0.208293
0.249446
0.250392
0.255614
0.273307
0.199580
0.228719
0.190412
0.132952
0.143518
0.200038
0.025339
0.168160
0.177574
0.088549
0.059849
0.021723
0.150648
0.157170
0.128773
0.023640
0.071930
0.085799
0.056654
0.069884
0.121680
0.011536
0.045998
0.090128
0.073645
0.070194
0.168841
0.135027
-0.048626
-0.007613
0.093107
0.110625
0.153101
0.086252
0.047028
0.026856
0.030150
0.084180
-0.016340
0.023224
0.064382
0.222067
0.450794
0.729439
1.147805
1.257536
1.500000
1.367546
1.152309
0.889704
0.482901
0.295309
-0.028827
-0.183271
-0.226203
-0.269502
-0.071608
-0.025360
-0.034756
0.002000
0.046153
0.086351
0.106709
-0.010965
0.062818
0.112109
0.003383
-0.008959
0.032396
0.099413
0.094294
0.106470
0.156640
0.052860
0.132189
0.107721
0.150353
0.106040
0.106279
0.084566
0.106270
0.158702
0.160143
0.194803
0.154375
0.249841
0.173386
0.131938
0.232065
0.384936
0.253112
0.319908
0.273759
0.332607
0.369535
0.338433
0.361915
0.401613
0.420108
0.419434
0.414684
0.446423
0.498341
0.479245
0.464698
0.482792
0.544933
0.631429
0.513647
0.536559
0.572213
0.524342
0.583147
0.555099
0.510039
