0.013549
0.012370
-0.028735
-0.058044
-0.052560
-0.029930
-0.055110
0.008798
-0.001090
0.009103
-0.023011
-0.026728
-0.005845
0.019756
-0.025220
0.038698
0.067053
0.104724
0.053259
0.096917
0.093677
0.010752
0.016397
0.124349
0.051824
0.089085
0.067851
0.047210
0.004272
0.086597
0.049312
0.134285
0.083732
0.023433
0.047501
0.166028
0.161352
0.110367
0.225623
0.162632
0.220073
0.174060
0.127073
0.193906
0.178830
0.199043
0.273297
0.173710
0.239191
0.188868
0.229453
0.141205
0.125377
0.196882
0.175601
0.162802
0.147344
0.089340
-0.016551
0.172296
0.059176
0.026564
0.014292
0.057352
-0.001552
0.053507
0.076633
0.119487
0.072592
0.077282
0.092397
0.047363
0.082255
0.047024
0.118148
0.069586
0.023276
0.034876
0.014229
-0.018726
0.110537
0.158941
0.243912
0.436476
0.738093
1.045992
1.304934
1.367698
1.332091
1.097195
0.712083
0.408803
0.048977
-0.183882
-0.160893
-0.231426
-0.148452
-0.135427
-0.008582
0.077842
0.044344
0.032819
0.049567
0.001426
0.212900
0.106804
0.152554
0.100254
0.110384
0.148321
0.095639
0.097435
0.060915
0.177016
0.106188
0.288615
0.158945
0.221801
0.211551
0.252064
0.252918
0.288412
0.364643
0.242123
0.265893
0.444001
0.361632
0.361812
0.368917
0.422282
0.561323
0.425596
0.445842
0.465778
0.427215
0.517757
0.574851
0.616319
0.548394
0.523822
0.558831
0.633550
0.603281
0.653240
0.619406
0.525965
0.476488
0.567809
0.611919
0.513877
0.580714
0.415042
0.494399
0.444971
0.435102
0.372323
0.386660
0.411295
0.324413
0.382980
0.320078
0.409809
0.334610
0.197736
0.295304
0.231265
0.249400
0.213276
0.227248
0.291258
0.161845
0.105605
0.131778
0.200243
0.117389
0.088471
0.069223
0.189964
0.060259
0.135206
-0.013671
0.056274
0.114286
0.122453
0.124146
0.070345
0.090532
0.017137
0.127393
0.091181
0.105287
0.093916
0.092545
0.085071
0.103292
0.057168
0.060249
0.097853
0.097226
0.013742
0.051728
0.094458
0.083438
0.032625
0.057134
0.070316
0.052918
0.103463
0.152793
0.020429
0.026905
0.080115
0.119201
-0.000235
0.102728
0.029694
0.151219
0.032211
0.019727
0.029252
0.064219
0.025209
0.080620
0.099915
0.100411
0.069314
0.126689
0.129329
0.059266
0.054176
0.034117
0.047800
0.061148
0.107491
0.150989
0.044189
0.091752
0.112145
0.075837
0.069103
0.107447
0.142416
0.118011
0.169595
0.081536
0.091405
0.104727
0.038692
0.145049
0.159117
0.093049
0.164304
0.319678
0.188115
0.241392
0.215430
0.222716
0.301948
0.296018
0.248285
0.218776
0.266228
0.335301
0.307550
0.241677
0.242020
0.253493
0.180546
0.167702
0.232572
0.242966
0.225216
0.188973
0.104342
0.177719
0.147517
0.111485
0.082386
0.107360
0.072159
0.103178
0.144132
0.062065
0.109674
0.135387
0.012335
0.123555
0.078918
0.085847
0.022188
0.165242
0.075020
0.061791
0.084141
0.109525
0.015816
-0.020117
0.059938
0.076895
0.129759
0.361774
0.631245
1.020085
1.155690
1.459098
1.420513
1.295488
0.920535
0.535047
0.234816
-0.071317
-0.117906
-0.212165
-0.206957
-0.161237
-0.029596
-0.024523
0.085715
0.034038
0.017678
0.103239
0.095654
0.132268
0.103569
0.094610
0.010875
0.081236
0.033386
0.159897
0.116811
0.121147
0.127499
0.132118
0.170390
0.091598
0.171324
0.176769
0.250575
0.238970
0.185115
0.268478
0.352100
0.316679
0.289058
0.308704
0.464327
0.446591
0.368510
0.505187
0.402905
0.515727
0.481239
0.417948
0.522045
0.474283
0.534210
0.553507
0.525224
0.472470
0.506032
0.551889
0.570316
0.577746
0.449934
0.459526
0.555379
0.435815
0.453935
0.481141
0.406094
0.414999
0.366162
0.328441
0.270050
0.364151
0.248336
0.310671
0.218174
0.280765
0.226116
0.168222
0.225183
0.170798
0.089609
0.173726
0.103234
0.182317
0.120288
0.044497
0.050379
0.003519
0.050124
0.012675
0.014556
0.064698
0.074116
0.029350
0.070004
0.053424
0.093707
0.057580
0.081334
0.062976
-0.038059
0.075914
0.003843
-0.040446
-0.024966
-0.004559
-0.022810
0.091932
0.046274
0.041936
-0.009372
-0.076513
0.071066
-0.058391
-0.044381
0.037921
0.002883
0.034000
-0.018602
-0.034519
-0.025097
0.013141
0.030446
-0.041226
0.037998
-0.038957
0.081586
0.040863
0.004665
0.028319
0.019581
0.009959
-0.008243
-0.030733
-0.045603
-0.040625
-0.056892
-0.021397
-0.020165
0.025582
-0.092745
0.014933
-0.023484
-0.000990
-0.012138
0.009520
0.014726
-0.018800
-0.053201
0.034183
0.045427
-0.049411
-0.012608
0.006794
-0.072296
-0.008345
-0.006803
-0.021368
0.028491
0.057047
-0.035053
0.064042
0.063862
0.046776
0.131666
0.015058
0.101717
0.008976
0.088980
0.160134
0.164870
0.134804
0.112102
0.171049
0.123941
0.180690
0.082363
0.144939
0.121013
0.138862
0.114273
0.113759
0.165324
0.041605
0.054755
0.055245
0.021458
0.058800
0.071250
-0.018921
0.022278
-0.005856
-0.032122
-0.022868
0.065171
0.002683
-0.018582
-0.010012
-0.017549
-0.052170
0.043481
-0.048786
0.000491
-0.025076
-0.071339
0.023171
0.010113
-0.071434
-0.145450
-0.001810
0.030132
-0.022356
-0.045808
0.042655
0.066837
0.446136
0.728351
1.086225
1.229526
1.313767
1.177193
1.003738
0.690901
0.179004
0.013188
-0.283009
-0.307105
-0.319195
-0.151267
-0.121809
0.028063
-0.139308
-0.069546
-0.035059
-0.019834
0.038352
-0.063615
-0.007663
0.001723
-0.013973
-0.043518
-0.050050
0.032668
0.020239
0.023548
0.021182
0.075740
0.050771
0.104427
0.156581
0.091084
0.125649
0.086262
0.186781
0.278675
0.232255
0.246251
0.270328
0.354435
0.333440
0.260549
0.247163
0.302195
0.335504
0.426073
0.395408
0.390163
0.439045
0.376165
0.369321
0.464463
0.449984
0.372930
0.501994
0.536827
0.469268
0.435395
0.415972
0.413456
0.467751
0.362462
0.417043
0.307271
0.353383
0.347510
0.323825
0.313119
0.158532
0.250109
0.320764
0.187314
0.152854
0.137613
0.211204
0.233728
0.130145
0.146803
0.060168
0.123619
0.088472
0.092467
0.040065
0.015747
0.088878
0.075598
0.049885
-0.068709
0.007759
0.057788
0.035576
-0.048790
-0.007764
0.017005
-0.043823
0.022833
-0.062904
0.021743
-0.051129
0.038089
-0.048362
-0.004116
-0.028959
-0.034589
-0.082551
0.055758
-0.006805
-0.048466
-0.130980
-0.032775
-0.018446
-0.043580
-0.044626
-0.005794
-0.010317
0.007224
0.006249
0.016125
-0.044949
-0.007254
-0.020401
-0.059404
-0.075935
-0.072121
0.017629
-0.053905
-0.115006
0.002042
-0.022386
-0.036465
-0.084930
-0.014514
-0.095354
0.000422
0.018839
-0.001508
0.010207
-0.087217
0.009287
-0.010343
-0.036665
-0.049012
-0.047276
0.021898
-0.049384
-0.049396
0.019179
-0.095108
0.030412
-0.007250
0.028834
0.070677
0.033862
0.012176
0.001276
-0.048514
0.030892
0.039429
0.105646
0.043627
0.053834
0.150786
0.086747
0.078544
0.109991
0.123371
0.146469
0.204747
0.151861
0.168055
0.123696
0.254369
0.162909
0.138437
0.141286
0.253725
0.129451
0.060222
0.167493
0.086975
0.098300
0.127987
0.116028
0.111958
0.045694
0.168199
0.091476
0.064678
0.073845
0.091328
0.009603
0.070546
-0.000366
0.109012
0.072770
0.115707
-0.009663
-0.022272
-0.005495
0.023267
-0.024160
0.053748
-0.050696
0.003005
-0.006141
-0.005974
-0.008606
0.071069
-0.024996
-0.027596
-0.083089
0.002357
0.113068
0.373439
0.629070
0.997246
1.259436
1.377881
1.367724
1.114998
0.873279
0.378153
0.171037
-0.106528
-0.262683
-0.194581
-0.177898
-0.150605
-0.096589
-0.064026
0.017474
-0.031965
0.026507
0.069151
0.085740
0.050090
0.086294
0.028416
-0.009362
0.032381
0.104282
0.091789
0.140164
0.140700
0.101266
0.130526
0.186203
0.134029
0.176899
0.164942
0.218557
0.315343
0.243900
0.213698
0.262432
0.273311
0.387425
0.396034
0.338218
0.421137
0.474320
0.415856
0.397422
0.461808
0.492537
0.574366
0.445752
0.531729
0.570191
0.505483
0.498196
0.543568
0.555792
0.498848
0.539098
0.554889
0.512360
0.561671
0.382251
0.518162
0.461306
0.492745
0.490364
0.436328
0.452493
0.354234
0.366249
0.380510
0.320052
0.328667
0.260177
0.185637
0.302489
0.345454
0.159701
0.257681
0.153641
0.217999
0.152065
0.141544
0.157101
0.101214
0.110362
0.102648
0.145385
0.059741
0.103880
0.128329
0.077650
-0.010063
0.059508
0.146937
0.090005
0.082466
0.118025
0.041460
0.066240
0.038037
0.067538
0.126202
0.025692
0.002477
0.068464
0.074416
0.089684
0.019506
0.134186
0.133330
0.067395
0.024376
0.058887
0.094053
0.093871
0.020091
0.047675
0.139998
0.051025
0.043177
0.104072
0.056114
0.082804
0.124149
0.107803
0.165014
0.057765
0.077409
0.054194
0.060718
0.067998
0.137793
0.122713
0.056176
0.061474
0.117243
0.067792
0.066023
0.052241
0.135268
0.070260
0.130288
0.158174
0.049842
0.106435
0.040413
0.082708
0.089826
0.106869
0.187718
0.083965
0.121776
0.128146
0.178680
0.067990
0.062487
0.140873
0.165952
0.188384
0.141261
0.123378
0.207104
0.218634
0.128133
0.213372
0.189582
0.149594
0.280736
0.249368
0.259343
0.270407
0.229723
0.321459
0.266148
0.295019
0.346376
0.276346
0.167246
0.243918
0.279274
0.164466
0.218111
0.253274
0.185456
0.287043
0.139746
0.237744
0.119817
0.180117
0.202180
0.108952
0.116114
0.195875
0.129914
0.124103
0.185149
0.073022
0.149128
0.009025
0.039558
0.113581
0.079032
0.153710
0.038257
0.156361
0.108853
0.147214
0.099981
0.054653
0.117832
0.069579
0.111069
0.356474
0.645927
0.948104
1.213696
1.492239
1.500000
1.242306
1.031231
0.581637
0.229584
0.053389
-0.092760
-0.191330
-0.136377
-0.113362
-0.013764
-0.010845
0.180885
0.121899
0.092276
0.054123
0.135406
0.169048
0.124751
0.173511
0.074951
0.082520
0.104032
0.165080
0.173622
0.149483
0.159040
0.199757
0.214230
0.134052
0.182512
0.227900
0.283972
0.279780
0.279581
0.353381
0.271591
0.444498
0.461608
0.450923
0.436087
0.538489
0.519809
0.484911
0.518000
0.487949
0.456336
0.493601
0.504174
0.567900
0.595436
0.608607
0.638676
0.593220
0.571242
0.599169
0.533610
0.562170
0.551943
0.576426
0.584415
0.524811
0.507118
0.438140
0.546649
0.464192
0.365667
0.460693
0.411884
0.436867
0.370850
0.380623
0.342693
0.339636
0.216272
0.184558
0.222305
0.200879
0.201013
0.228813
0.176149
0.208508
0.111629
0.152999
0.092659
0.142021
0.181798
0.064412
-0.006170
0.061485
0.085491
0.122339
0.133164
0.134196
0.045556
0.167754
0.045852
0.099113
0.099534
0.020129
0.059608
0.115135
-0.015145
-0.022541
0.070863
0.100013
0.051454
0.069264
0.092709
0.033944
0.072668
-0.003416
0.012763
0.124918
0.044379
0.081199
0.055729
0.094258
0.026963
0.050233
0.083170
0.070841
0.032384
0.020886
0.026193
0.085785
0.012116
0.064996
0.064951
0.100073
0.024730
0.124817
0.092313
0.058112
0.012334
-0.035179
0.002437
-0.000580
0.036755
0.025259
0.068880
0.006983
0.008714
0.021166
0.027501
0.011428
0.007423
0.034337
-0.011832
0.059389
0.005454
0.065951
0.061723
-0.046404
0.118061
-0.035611
0.069432
0.098559
0.002923
0.058931
0.160780
0.167840
0.049117
0.180784
0.070640
0.153062
0.095628
0.194551
0.124705
0.131485
0.249558
0.181426
0.171766
0.224328
0.201365
0.148040
0.084903
0.115283
0.134730
0.176895
0.164171
0.123524
0.061287
0.072538
0.128672
-0.001299
0.164032
0.057246
0.134122
0.024693
0.023480
0.045899
0.068159
0.030411
0.035237
0.006971
0.024634
0.017039
-0.000188
-0.011808
-0.003387
-0.054822
-0.013124
0.014645
0.005386
-0.016162
0.091662
0.094170
-0.010817
-0.102646
0.024184
0.030115
0.212369
0.337273
0.644255
1.058915
1.317255
1.425838
1.236312
1.047854
0.702883
0.364353
-0.007134
-0.146138
-0.246784
-0.208025
-0.199852
-0.218956
-0.111823
-0.081796
0.022640
-0.009860
-0.012025
-0.005048
0.004995
0.007712
-0.064902
0.049998
0.062761
-0.002316
-0.051277
-0.019710
0.079045
0.022372
0.091170
0.058690
0.157102
0.100528
0.167398
0.085739
0.088484
0.159734
0.177963
0.110894
0.212843
0.177160
0.220273
0.353820
0.338517
0.321125
0.333501
0.363403
0.370624
0.326165
0.339287
0.398657
0.436608
0.422513
0.415373
0.415277
0.500568
0.396391
0.425730
0.462447
0.336161
0.374354
0.436369
0.374143
0.317120
0.400188
0.375810
0.316113
0.356084
0.290964
0.164917
0.228023
0.264594
0.241419
0.154773
0.232319
0.177964
0.149868
0.102486
0.153056
0.099946
0.111176
0.175363
0.047417
0.024175
0.001793
0.102820
0.059069
0.028081
-0.001163
0.003773
-0.048512
0.000236
-0.017577
0.005378
-0.079281
-0.000010
-0.049731
-0.046990
-0.047660
0.001037
-0.079482
-0.041655
-0.021958
-0.060532
-0.035867
-0.032577
-0.050625
-0.103543
-0.117022
-0.048647
-0.071249
-0.154934
-0.057350
-0.052888
-0.079591
-0.072011
-0.040075
-0.036825
-0.136671
-0.018373
-0.092257
-0.085719
-0.120636
-0.071360
-0.030693
-0.046382
-0.156346
-0.104512
-0.039564
-0.092492
-0.048181
-0.085133
-0.097892
-0.049576
-0.040083
-0.004335
-0.108025
-0.067924
0.010380
-0.025904
-0.061877
-0.098705
-0.078497
-0.035853
-0.008369
-0.078021
-0.138380
-0.156855
-0.070523
-0.069064
-0.120317
-0.039302
-0.084055
-0.025155
-0.120186
-0.010441
-0.043578
-0.021287
-0.088102
-0.011872
-0.011441
-0.077951
0.065985
-0.011566
0.014396
0.152012
0.044242
0.072493
0.031908
0.056543
0.123244
0.112446
0.024842
0.079872
0.122040
0.207600
0.107506
0.087658
0.050340
0.102199
0.180687
0.109036
0.123988
0.017159
0.044773
0.046245
0.045570
0.076833
-0.017561
0.056918
-0.035404
-0.083149
-0.053241
-0.069662
-0.064653
0.015790
-0.102792
-0.031190
-0.011930
-0.022222
-0.060304
-0.017558
-0.060863
0.003661
-0.008257
-0.035807
-0.002180
-0.046942
0.012555
-0.125371
-0.059268
-0.137859
-0.099292
-0.121903
0.049902
0.267806
0.501773
0.855795
1.112361
1.353453
1.255725
1.051449
0.760122
0.418423
0.123558
-0.219660
-0.347981
-0.323036
-0.262756
-0.221758
-0.089718
-0.060299
-0.093960
-0.111133
-0.058072
-0.114496
-0.108828
-0.067207
-0.017752
-0.040466
0.080579
0.005328
-0.024021
-0.012002
0.097714
0.078285
0.067700
-0.025958
0.145623
0.009369
0.037618
0.088784
0.145072
0.060584
0.109739
0.138135
0.127363
0.179842
0.214556
0.244150
0.209741
0.240260
0.329330
0.340551
0.370505
0.395593
0.320254
0.428250
0.411397
0.347375
0.438803
0.532390
0.513671
0.445110
0.431652
0.455067
0.504356
0.485564
0.431522
0.415933
0.375532
0.302269
0.365710
0.409367
0.322925
0.382344
0.343733
0.331395
0.356378
0.210658
0.245620
0.218217
0.181835
0.202311
0.197965
0.133031
0.081186
0.074746
0.127104
0.150100
0.026022
0.076778
0.086511
0.003296
0.025897
0.008055
0.067836
0.023812
-0.038843
0.021213
-0.043676
-0.015352
0.030528
0.078303
-0.050618
-0.001742
-0.011521
-0.027417
-0.014141
-0.069909
-0.054173
-0.069085
-0.065534
-0.022558
-0.040489
-0.022829
-0.003618
-0.103294
0.037937
-0.059815
-0.043019
-0.026800
-0.013181
0.010807
-0.011459
-0.050972
-0.017191
-0.030721
0.007412
0.070501
-0.075675
-0.020245
-0.057260
0.075915
-0.076739
-0.037335
-0.009659
0.015986
-0.000977
0.010436
-0.056809
-0.003823
-0.054274
-0.040540
0.072645
0.019098
-0.044723
0.016067
0.002414
0.081410
-0.040536
-0.003615
-0.034221
-0.003310
0.030146
-0.032461
0.029722
-0.009022
-0.020201
0.075927
-0.016224
-0.005939
0.047716
-0.007053
0.094601
0.046611
-0.081411
0.038980
0.003000
0.100469
0.086022
0.075339
0.127815
0.092035
0.093170
0.207948
0.048070
0.106479
0.145774
0.222608
0.217658
0.148725
0.172372
0.094978
0.209965
0.207585
0.206436
0.155608
0.051018
0.198046
0.175550
0.165737
0.109930
0.190893
0.078723
0.157435
0.108285
0.085782
0.053363
0.072450
-0.065676
0.019352
0.034048
0.060004
0.110519
0.127185
0.038581
0.009080
0.029868
0.108428
-0.059914
-0.005459
0.004162
0.047694
0.040697
-0.065337
-0.015145
0.018347
0.048880
-0.065682
-0.064492
0.138596
0.237942
0.552148
0.912784
1.079850
1.337469
1.399629
1.405538
1.014177
0.657849
0.233009
-0.070978
-0.151512
-0.245729
-0.229179
-0.180891
-0.000741
-0.013892
-0.016042
0.069450
0.033454
0.078714
0.029678
0.084042
0.092369
0.028596
0.055188
0.044153
0.080118
0.017767
0.099044
0.062544
0.117815
0.176067
0.178661
0.144496
0.195037
0.171264
0.242961
0.269400
0.288252
0.309400
0.269826
0.287275
0.260766
0.344090
0.365273
0.476373
0.425953
0.444999
0.488399
0.591260
0.475513
0.476746
0.489222
0.584362
0.504545
0.562677
0.573583
0.495824
0.503359
0.454552
0.551593
0.524534
0.568938
0.441408
0.571454
0.500747
0.554468
0.504137
0.470895
0.447270
0.370426
0.366393
0.344443
0.350125
0.267331
0.279876
0.359515
0.245106
0.258216
0.233612
0.228866
0.211392
0.202653
0.161939
0.115762
0.129040
0.218742
0.010718
0.155035
0.150268
0.062371
0.084602
0.028559
0.121638
0.034383
0.062219
0.032592
-0.005410
0.160556
0.063892
0.088037
0.071544
-0.017171
-0.016789
0.022579
0.063534
0.063392
-0.037540
0.021796
0.074459
0.070737
0.029985
0.070317
0.021939
0.108436
0.049152
0.009379
0.046665
0.013458
0.137184
0.047762
0.015210
0.032235
0.071889
0.052815
0.068587
0.008328
0.023533
0.095944
0.076769
0.036994
0.027632
-0.010373
-0.017666
0.094288
0.096511
0.046299
0.002101
0.059603
0.027362
-0.018637
-0.021572
-0.013780
0.020351
0.031904
0.117814
0.020252
0.028293
0.056864
-0.002787
0.025354
0.020159
0.006570
0.000388
0.116680
-0.000919
0.061410
0.099093
0.067743
-0.000504
0.055672
0.104911
0.112189
0.096831
0.085638
0.144660
0.051316
0.144912
0.134944
0.116761
0.149396
0.184871
0.131565
0.235510
0.141181
0.189167
0.189113
0.139671
0.077999
0.253674
0.163666
0.203192
0.188920
0.107206
0.188585
0.168591
0.216068
0.045538
0.211859
0.070120
0.171730
0.128420
0.181227
0.010569
0.098651
-0.000025
-0.008748
0.059656
0.071741
0.059361
0.049086
0.039604
0.038331
0.096254
0.122741
0.047569
-0.023574
-0.046347
0.001772
0.069187
0.018445
-0.026443
-0.026503
0.069236
0.040022
0.115816
0.164011
0.325282
0.621691
0.914544
1.210745
1.307288
1.307102
1.050746
0.730959
0.447154
0.085873
-0.093435
-0.314050
-0.235513
-0.176257
-0.105548
-0.061500
0.019439
0.030595
0.003428
-0.004965
0.033244
0.014376
0.096706
-0.027158
0.022398
0.040013
0.100466
0.050847
0.026869
0.058123
0.103246
0.062509
0.123165
0.160011
0.108768
0.092166
0.161374
0.176711
0.181240
0.204512
0.225576
0.270392
0.321623
0.275850
0.225327
0.369745
0.306507
0.350236
0.413446
0.382350
0.462631
0.348950
0.378978
0.439215
0.509732
0.450364
0.569462
0.465524
0.512840
0.451102
0.572171
0.497481
0.455698
0.498035
0.469332
0.397352
0.318602
0.434731
0.342352
0.252847
0.329829
0.352220
0.247831
0.194212
0.249285
0.188230
0.281661
0.184760
0.170044
0.184514
0.035106
0.093106
0.105905
0.083112
0.046392
0.088130
0.092474
0.084222
-0.046057
0.008565
0.062195
0.010313
-0.028939
0.001027
0.028191
-0.023059
-0.037545
-0.067383
-0.032022
-0.072023
-0.023295
-0.032346
-0.076887
-0.002192
-0.101606
-0.062415
-0.013498
-0.002349
0.008715
-0.036796
-0.054684
-0.111568
-0.106466
-0.108818
-0.017448
0.011313
-0.056883
-0.075775
-0.035026
0.052765
-0.052248
-0.025871
-0.091789
-0.028459
-0.092058
-0.059953
-0.053797
-0.069898
-0.067774
-0.055964
-0.098335
-0.033043
-0.050342
-0.023636
-0.105519
-0.044382
-0.034226
-0.123391
-0.008152
-0.078972
-0.016563
-0.017751
-0.013991
-0.064277
-0.088013
-0.139027
-0.125371
-0.078902
-0.041802
-0.103565
-0.080100
-0.138990
-0.084237
-0.099001
-0.041322
-0.064359
-0.045204
-0.038724
0.041034
-0.001443
-0.046644
-0.029323
0.007687
-0.056642
-0.056660
-0.026057
0.030109
-0.020888
0.120377
-0.014736
0.116177
0.047413
-0.001519
0.054909
0.113473
0.029380
0.144319
0.080083
0.135858
0.177669
0.133084
0.043429
0.120184
0.009165
0.022397
0.066104
0.029222
0.100051
0.111316
0.065839
-0.041633
-0.047869
-0.033458
-0.039218
-0.020794
0.007444
0.019820
-0.107982
-0.093563
-0.055539
-0.052944
-0.081400
-0.024369
-0.097122
-0.019103
-0.134554
-0.037218
-0.140742
-0.116079
-0.136733
-0.033246
-0.156776
-0.129935
-0.192566
-0.091504
-0.150141
0.020763
0.206190
0.425374
0.750858
1.010561
1.290935
1.297308
1.214237
0.771577
0.414939
0.036964
-0.121364
-0.312857
-0.346148
-0.337702
-0.225393
-0.162471
-0.119719
-0.139855
-0.144487
-0.032509
-0.166016
-0.029577
-0.069141
-0.088643
-0.119873
-0.044012
-0.082768
0.015606
-0.022171
-0.070597
-0.007552
-0.021187
-0.011515
-0.007356
0.015781
0.071099
0.012508
0.070419
0.109110
0.069975
0.170402
0.166748
0.199254
0.188185
0.190764
0.254276
0.219948
0.164215
0.303701
0.247412
0.277368
0.370254
0.361339
0.398841
0.368922
0.417361
0.407356
0.350577
0.429969
0.388201
0.373212
0.469646
0.341090
0.423483
0.412265
0.430434
0.354983
0.291875
0.390838
0.222817
0.304848
0.283009
0.275104
0.213508
0.201824
0.154399
0.260000
0.124252
0.088401
0.064788
0.041292
0.017867
-0.041611
0.012129
0.048009
-0.028967
0.046707
0.087254
-0.011157
-0.004096
0.054256
-0.065809
-0.048869
-0.027244
-0.168332
-0.027877
-0.051300
-0.077799
-0.076314
-0.093220
-0.043307
-0.055857
-0.090794
-0.089254
-0.149761
-0.122974
-0.128455
0.038674
-0.061690
-0.045907
-0.035604
-0.107305
-0.103885
-0.150806
-0.071256
-0.107127
-0.070552
-0.037405
-0.040712
-0.034632
-0.113974
-0.039443
-0.156049
-0.078992
-0.041357
-0.164474
-0.156636
-0.070970
-0.081808
-0.083061
0.012561
-0.108366
0.028706
-0.048366
-0.109095
-0.071524
-0.036106
-0.019705
-0.098665
-0.029609
-0.021216
-0.033521
-0.094074
0.009822
-0.090026
-0.082378
-0.028762
-0.097089
-0.015264
-0.068337
0.050313
-0.101895
-0.072496
-0.037175
-0.072309
-0.104775
-0.008332
-0.074167
-0.033555
-0.062119
-0.090606
0.044254
-0.048022
0.013998
-0.003142
0.033588
-0.004794
0.015001
-0.017607
0.069969
0.120489
0.060659
0.050942
0.078422
0.028661
0.144215
0.127850
0.129055
0.093572
0.136430
0.182681
0.130098
0.081256
0.143961
0.085549
0.034097
0.018431
0.069653
0.109797
0.042427
0.033803
0.052587
0.017905
0.016874
0.001314
0.013241
-0.048113
0.007535
-0.023794
-0.004131
0.064198
-0.071440
-0.020822
-0.046285
-0.078193
0.007695
-0.041406
0.005816
-0.025017
-0.064085
-0.100053
-0.084222
-0.051183
0.011956
-0.090628
0.034260
-0.033954
0.113139
0.368988
0.681598
0.980627
1.143622
1.374277
1.208520
1.060935
0.717220
0.255085
0.033397
-0.213634
-0.296348
-0.317673
-0.166544
-0.096358
-0.050857
-0.060549
0.026207
-0.063674
-0.008622
0.030467
-0.071499
0.066233
0.025148
0.011422
0.048994
0.004889
0.086377
0.075447
0.046593
0.155000
0.135634
0.044391
0.145199
0.140274
0.157204
0.154480
0.201530
0.153449
0.233307
0.227387
0.257902
0.219902
0.280593
0.357120
0.281682
0.360885
0.423689
0.402559
0.354466
0.459498
0.505416
0.372944
0.531557
0.510418
0.521573
0.541470
0.543664
0.566180
0.544094
0.553106
0.520364
0.429121
0.427050
0.491701
0.493647
0.497318
0.472116
0.411594
0.363463
0.439272
0.385461
0.377381
0.269367
0.305949
0.275658
0.264594
0.260163
0.269372
0.147391
0.256926
0.148549
0.205151
0.176264
0.189718
0.133330
0.113360
0.196186
0.138492
0.076815
0.061527
0.065536
0.081703
0.106079
0.147592
-0.028812
0.026226
0.051776
0.017646
0.025258
0.072968
0.132890
0.120319
-0.060270
0.071003
0.036992
0.054915
-0.022738
0.091960
0.021908
0.030447
0.000269
-0.001177
0.064265
0.114893
0.107121
0.113204
0.045362
0.061093
0.047153
0.090103
0.016500
0.063602
0.042039
0.052492
0.022621
0.037261
0.035723
0.033646
0.035354
0.093017
0.054916
0.061003
0.055417
0.012510
-0.021665
0.086749
0.044764
0.007568
0.009013
0.000759
0.050730
0.024204
-0.022713
0.038565
0.022508
0.013724
-0.014702
-0.025728
0.116454
0.058631
0.057519
0.014641
0.041361
0.038691
0.016635
0.018101
0.075779
0.071974
0.130747
0.081732
0.116435
0.094777
0.013542
0.147706
0.100759
0.123200
0.121210
0.199623
0.129778
0.106473
0.191032
0.178893
0.230575
0.185707
0.163226
0.186390
0.163913
0.262311
0.243319
0.206838
0.285901
0.262668
0.203548
0.265633
0.249435
0.169034
0.197071
0.127646
0.174830
0.105844
0.183363
0.114106
0.020290
0.171837
0.121701
0.180501
0.081538
0.113559
0.193287
0.119564
0.036417
0.099124
0.076861
0.034773
0.065204
0.071023
0.066201
0.082957
0.052811
-0.049976
0.025326
0.034010
-0.009317
0.058691
0.048140
0.166495
0.418399
0.715479
0.994388
1.330898
1.383271
1.439397
1.151275
0.904039
0.480132
0.187492
-0.104726
-0.152644
-0.137393
-0.124732
-0.045588
-0.114700
0.120208
0.122446
0.046906
0.071291
0.040723
0.110620
0.065740
0.097269
0.152014
0.107462
