0.013707
-0.016444
0.026668
-0.005326
0.032770
-0.031145
-0.017662
0.062334
-0.061454
-0.005954
-0.030200
0.005320
-0.055314
-0.012876
0.066752
-0.031009
-0.030547
0.034408
0.028084
0.002379
0.020138
0.011976
0.038810
-0.021235
0.083233
-0.047650
0.035774
0.058692
0.093462
0.049526
0.076922
0.037582
0.083987
0.057342
0.008927
0.028455
0.081185
0.002606
0.112403
0.076212
0.086968
0.035996
0.032094
0.101094
0.065738
0.101899
0.070828
0.050708
0.191200
0.117992
0.147492
0.137403
0.172132
0.107085
0.231161
0.196451
0.218483
0.219611
0.213466
0.218316
0.193843
0.183465
0.284658
0.152423
0.168793
0.244359
0.165658
0.151291
0.193822
0.185328
0.174901
0.121675
0.094930
0.088111
0.099353
0.140165
0.039772
0.056992
0.134346
0.105136
0.115329
0.049916
0.163417
0.054430
0.059787
0.093816
0.156977
0.067935
0.081786
0.049288
0.056388
0.079579
-0.039217
0.144723
0.075724
0.102313
0.069712
0.003083
0.084302
0.125291
0.066468
-0.002172
0.047180
0.067889
0.035633
0.118634
0.156698
0.006538
0.015772
-0.034721
-0.049789
-0.061730
0.090884
0.278830
0.599475
0.954583
1.139045
1.453586
1.416500
1.400819
1.094204
0.834007
0.433583
0.271376
-0.033816
-0.189902
-0.236089
-0.306849
-0.288042
-0.102719
-0.092550
-0.017734
0.088194
0.046743
0.012756
0.133728
0.088630
0.060299
0.025484
0.144309
0.100917
0.095539
0.017597
0.025372
0.108520
0.057609
0.067734
0.020157
0.082898
0.100608
0.194268
0.043219
0.137526
0.086305
0.106323
0.151774
0.108021
0.099803
0.116870
0.100801
0.132028
0.099024
0.151749
0.124892
0.167732
0.188695
0.195675
0.281483
0.230287
0.228750
0.260254
0.221014
0.264941
0.311412
0.400631
0.421468
0.339247
0.410643
0.410472
0.457283
0.491188
0.409903
0.517144
0.517635
0.550558
0.574188
0.516169
0.563133
0.604084
0.514813
0.516296
0.643736
0.534096
0.632234
0.595625
0.522299
0.572807
0.513741
0.448772
0.478208
0.431974
0.473100
0.442298
0.449461
0.416117
0.373175
0.452079
0.336677
0.343654
0.420220
0.294370
0.261320
0.234309
0.208520
0.245909
0.228057
0.170086
0.198136
0.230698
0.150999
0.104648
0.218209
0.113504
0.102070
0.201061
0.139048
0.066905
0.104252
0.129227
-0.001768
0.103347
0.063963
0.169120
0.116526
0.173903
0.130977
0.101455
0.080963
0.112093
0.098910
0.153630
0.123875
0.052094
0.065269
0.025342
0.084972
0.036150
0.073344
0.166874
0.056498
0.099228
0.091380
0.047819
0.092226
0.063429
0.075530
0.053942
0.115544
0.150664
0.017584
0.130055
0.078440
0.053539
0.091587
0.084407
0.032102
-0.040194
0.099200
0.053769
0.111004
0.023883
0.054224
0.067449
0.073880
0.094194
0.086911
0.091565
0.128647
0.106142
0.046351
-0.009261
0.135284
0.077196
0.144241
0.121350
0.088411
0.047996
0.100511
0.053397
0.047255
0.055135
0.009391
0.074122
0.059429
0.039604
0.124019
0.085448
0.090719
-0.008833
0.150217
0.100008
0.077234
0.128175
0.104673
0.115452
0.022082
-0.000946
0.028461
0.021618
0.075433
0.034732
0.026420
0.030350
0.056014
0.052249
0.031013
0.044873
0.056316
0.066822
0.001483
0.053491
0.025937
0.007513
0.077699
0.075338
0.010898
0.039313
0.110038
0.061721
0.099159
0.098878
0.139834
0.010538
0.034591
0.082162
0.049168
0.102786
0.054638
0.060915
0.141496
0.044650
0.089285
0.064400
0.095481
0.122973
0.143063
0.153078
0.243729
0.258052
0.165106
0.189843
0.243945
0.241496
0.218420
0.269875
0.225415
0.195417
0.186338
0.175203
0.169336
0.151662
0.153792
0.080182
0.166360
0.150975
0.185780
0.079630
0.075766
0.003890
0.051797
0.046814
0.084735
0.110985
0.081019
0.046571
0.047107
-0.079138
-0.014088
0.071745
0.069809
0.084183
0.037888
-0.057406
0.050178
0.050518
0.074344
-0.016036
0.077670
0.060359
-0.007125
0.037381
0.050160
0.036890
0.018135
0.026402
0.011090
0.038129
-0.045301
-0.048406
-0.068104
0.003988
-0.020981
-0.139027
-0.128274
-0.090026
-0.064544
0.035155
0.225719
0.451632
0.775719
1.144601
1.352325
1.367339
1.256215
1.099360
0.750219
0.442650
0.246703
0.017552
-0.252234
-0.384724
-0.301228
-0.342194
-0.186390
-0.239874
-0.060848
0.014868
-0.008911
-0.025985
-0.008787
0.036167
-0.053656
-0.015668
-0.004273
-0.013622
0.029262
-0.025260
-0.061459
0.049229
0.061223
-0.049328
-0.002173
0.053413
-0.008479
0.006952
0.017702
-0.004980
0.020333
0.025090
-0.035502
-0.034031
0.012745
0.057180
0.023665
0.072626
0.049005
0.103378
0.077024
0.066683
0.108977
0.084270
0.107210
0.073246
0.131702
0.134371
0.164000
0.255983
0.214369
0.139049
0.293364
0.182205
0.335096
0.312382
0.300052
0.368368
0.408223
0.435196
0.351460
0.392371
0.446905
0.411358
0.507307
0.446379
0.524490
0.523742
0.434921
0.494319
0.509307
0.438736
0.491980
0.479530
0.454762
0.387625
0.422506
0.350827
0.358798
0.322342
0.293642
0.319998
0.247594
0.244568
0.231883
0.214985
0.195991
0.235841
0.189035
0.211950
0.167627
0.085969
0.130791
0.093749
0.027776
0.009324
0.100198
0.058549
0.001029
0.052384
0.016670
0.017933
-0.072853
0.110576
-0.083789
-0.028163
-0.038708
-0.045311
-0.022674
-0.045014
-0.075203
-0.049344
0.007271
0.041560
-0.020045
-0.025278
-0.020022
-0.103639
-0.019494
-0.036120
-0.085183
-0.032028
-0.090885
0.021541
-0.068342
-0.033259
-0.019506
-0.066248
-0.057406
-0.058976
-0.004859
0.070928
0.002808
-0.080056
-0.029175
-0.008177
-0.051126
-0.051013
-0.047378
-0.030067
0.055487
-0.023646
-0.043307
-0.080080
-0.094534
0.003921
0.004063
-0.113009
0.028342
-0.062394
-0.057121
-0.030328
-0.062635
-0.132577
-0.050487
-0.004266
-0.116923
-0.065379
-0.044231
-0.054747
0.039621
-0.016053
-0.017523
0.003303
-0.066053
-0.098737
0.030572
-0.066332
0.009282
-0.027988
-0.006850
0.001569
-0.094638
-0.002746
-0.066815
-0.161802
-0.037986
-0.194789
-0.004953
-0.010127
-0.024997
-0.026896
0.020127
-0.074634
-0.048293
-0.055817
0.061184
-0.030876
-0.094684
0.029049
-0.019232
-0.024948
-0.005051
0.017915
-0.065268
-0.029975
-0.041279
-0.018785
-0.086821
0.011600
0.045669
-0.065312
0.001379
-0.059619
-0.031772
-0.019640
-0.089877
0.016181
0.014221
-0.006373
-0.039578
-0.079301
0.049657
0.028535
0.020664
0.078060
0.050059
0.173537
0.079522
0.074614
0.099692
-0.016804
0.086691
0.114337
0.119567
0.041198
0.184430
0.115381
0.139625
0.085326
0.188302
0.103925
0.112593
0.134542
0.070083
0.099477
0.165205
0.094449
0.105956
0.095679
0.092642
0.068313
-0.007293
0.072249
0.012089
-0.037317
0.040145
-0.084888
0.000796
0.001598
0.026139
-0.072831
0.004386
0.028255
-0.046143
0.102066
0.019632
-0.016408
0.008163
-0.021330
0.022700
0.057863
-0.053194
-0.031245
-0.014509
0.012515
-0.059705
0.026135
0.000943
0.094202
-0.077176
-0.012751
0.018863
0.001336
-0.013110
-0.025594
0.029179
-0.033325
-0.012763
-0.021502
-0.160388
-0.160259
-0.122701
0.034831
0.238481
0.498979
0.830297
1.084650
1.295860
1.383826
1.309255
1.109938
0.829933
0.507065
0.135008
0.024680
-0.220452
-0.333217
-0.257232
-0.312785
-0.220837
-0.185863
-0.098116
-0.045155
-0.008273
-0.054761
0.016209
0.007640
0.026764
-0.057735
0.039562
0.015701
-0.010737
0.035689
-0.014726
0.047764
0.097141
0.046700
0.082205
0.082848
0.008631
-0.011799
0.034567
0.138138
-0.037051
0.049692
-0.019512
0.082639
0.112486
0.023981
-0.001135
0.078796
0.076279
0.037858
0.074088
0.071835
0.101752
0.211432
0.158805
0.179542
0.222034
0.180170
0.225049
0.226010
0.233525
0.307578
0.320885
0.270460
0.283417
0.394354
0.380744
0.422324
0.417381
0.486805
0.415337
0.510276
0.547606
0.474847
0.470290
0.457980
0.506002
0.501899
0.490080
0.581440
0.552897
0.561284
0.563491
0.529865
0.447309
0.470068
0.544133
0.414574
0.449626
0.452958
0.379803
0.418061
0.438480
0.423468
0.291829
0.301885
0.269171
0.328775
0.230623
0.302738
0.277104
0.177097
0.172886
0.121871
0.191929
0.200542
0.130085
0.101154
0.156942
0.085341
0.166039
0.153530
0.114711
0.094700
0.145578
0.119888
0.025513
0.045838
0.061713
0.056049
0.081064
0.041668
0.021887
0.114107
0.121626
0.093295
0.130940
0.078747
0.069436
0.041234
0.084031
0.106369
0.027033
0.181611
0.093197
0.048823
0.121886
0.147920
0.156110
0.083870
0.157564
0.074872
0.070250
0.102021
0.065394
0.087681
0.045529
0.009723
0.093808
0.152981
0.021540
0.161826
0.147783
-0.010729
0.077353
0.108987
0.110299
0.024180
0.075447
0.083073
0.044915
0.046923
0.082603
0.071979
0.074251
0.056804
0.081610
0.092278
0.115301
0.084649
0.003835
0.122873
0.104155
0.024391
0.048959
0.119164
0.028374
0.070420
0.123037
0.051278
0.122169
0.074157
0.128184
0.085091
0.034661
0.079466
0.099793
0.132208
0.041072
0.016660
0.032911
0.048555
0.081421
0.150119
0.147519
0.087339
0.119202
0.065167
0.047490
0.077801
0.113768
0.027700
0.019213
0.120335
0.072297
0.047621
0.052952
0.061222
0.145578
0.088326
0.067643
0.082591
0.116418
0.082865
0.138196
0.060644
0.098871
0.081046
0.128222
0.110730
0.106696
0.121622
0.125646
0.102209
0.154545
0.212573
0.065891
0.117538
0.210242
0.184571
0.269608
0.180378
0.179453
0.285158
0.233192
0.251390
0.347453
0.270513
0.217738
0.256839
0.291501
0.271082
0.301051
0.230651
0.278265
0.190138
0.246463
0.280141
0.225459
0.186357
0.160742
0.181188
0.105786
0.167600
0.131326
0.126027
0.129620
0.059999
0.114774
0.087669
0.142728
0.015235
0.142099
0.107674
0.056207
0.105270
0.087731
0.130373
0.118892
0.129016
0.005788
0.075098
0.081008
0.118034
0.048299
0.100242
0.187461
0.065316
0.148786
0.091952
0.048907
0.100569
0.092503
0.073287
0.023993
0.029945
0.046513
0.179414
0.088609
0.037894
0.051036
0.004799
-0.017877
0.097160
0.248807
0.550833
0.854112
1.165409
1.487684
1.496629
1.465825
1.268379
0.927197
0.670619
0.341780
-0.007583
-0.119356
-0.246654
-0.280482
-0.247995
-0.180265
-0.039263
0.007005
-0.025225
-0.023992
0.091010
0.076478
0.123734
0.056482
0.022023
0.043422
0.033771
0.073246
0.061312
0.012108
0.135624
0.049972
0.116811
0.103871
0.107345
0.055925
0.063982
0.070900
0.057313
0.015954
0.077107
0.073596
0.107672
0.112524
0.113955
0.087234
0.100642
0.141304
0.165603
0.237603
0.145829
0.222996
0.131954
0.180987
0.143872
0.181366
0.228068
0.172029
0.269135
0.387892
0.328984
0.352432
0.330233
0.452658
0.372751
0.475630
0.383841
0.462741
0.432994
0.472937
0.500654
0.470344
0.516531
0.538477
0.522452
0.560493
0.604490
0.565936
0.554893
0.522909
0.488423
0.532136
0.583917
0.426587
0.456450
0.453418
0.496948
0.497402
0.359256
0.411834
0.328567
0.364576
0.324219
0.297287
0.289746
0.334672
0.264536
0.180423
0.216368
0.167683
0.150007
0.267281
0.252913
0.176834
0.192880
0.096316
0.055403
0.039288
0.081710
0.096176
0.098057
0.103470
0.024368
0.073456
0.072748
0.036496
0.048353
-0.010384
0.076915
-0.008981
0.043907
0.023200
0.037750
0.078509
0.029228
0.022285
0.066026
-0.000388
-0.096001
-0.070216
-0.009730
0.093277
0.052547
-0.027837
0.034262
-0.004486
-0.009143
0.017661
0.014329
-0.032926
-0.024650
-0.017652
-0.081129
0.035885
-0.004937
-0.010448
0.036642
0.066949
-0.055402
0.120664
0.027026
-0.019499
0.030178
0.005251
-0.012454
0.032234
0.040709
-0.055706
-0.003475
-0.017936
-0.031792
-0.110593
-0.072745
0.028629
-0.107788
-0.040368
0.042957
-0.051136
-0.050130
-0.092472
-0.082662
0.025410
0.025680
-0.038648
0.004155
0.056394
-0.061315
-0.022748
-0.016850
0.053751
0.019394
0.057602
-0.070948
-0.112668
-0.001043
0.006099
-0.032191
0.031682
-0.026888
-0.079753
-0.089161
-0.110497
-0.013971
0.045420
-0.049815
-0.041786
-0.022041
-0.106474
-0.058887
-0.058894
-0.040658
-0.028684
-0.082387
-0.018907
0.010939
-0.030282
-0.011791
-0.056091
-0.003997
0.009890
-0.017091
-0.097442
-0.064894
-0.047701
0.012498
0.064528
-0.024622
-0.031156
-0.090920
-0.090234
0.002397
-0.044685
0.065960
0.036175
0.040522
-0.002892
0.048728
0.013761
0.090111
0.016710
0.006731
0.046500
0.099796
0.073527
0.158784
-0.027092
0.094221
0.082316
0.140899
0.122586
0.086246
0.218253
0.150262
0.059505
0.062720
0.030645
0.043931
0.004050
0.098836
0.065456
0.045593
0.027171
-0.004081
0.003107
-0.057302
-0.017357
-0.012360
0.013566
-0.057043
0.017994
-0.036542
-0.043054
-0.062693
0.003141
-0.075909
-0.065183
-0.073153
-0.090908
-0.061507
-0.035408
-0.057463
0.004156
-0.099692
-0.096498
-0.064069
-0.063959
-0.159385
-0.055730
-0.115592
-0.100893
-0.045723
-0.049193
-0.079388
-0.068001
-0.070030
-0.101564
-0.055395
-0.086836
-0.145264
-0.119155
-0.151038
-0.216297
-0.092758
0.082533
0.278539
0.730149
0.956951
1.194429
1.335833
1.313174
1.109739
0.812401
0.506989
0.203754
-0.012094
-0.197067
-0.352070
-0.456212
-0.442502
-0.310488
-0.204425
-0.109187
-0.107504
-0.138802
-0.107025
-0.037654
-0.112026
-0.050272
-0.029448
-0.110242
-0.127550
-0.013571
-0.078675
-0.089391
-0.079565
-0.047594
-0.123280
-0.077036
-0.182031
-0.077837
-0.106770
-0.205384
-0.034755
-0.091563
-0.104108
-0.093732
-0.061457
-0.005312
-0.013158
-0.012014
0.009755
-0.031359
-0.029812
-0.045332
-0.025059
-0.004002
0.050154
-0.001818
0.092772
0.119418
0.086478
0.137364
0.088821
0.103419
0.112026
0.181791
0.215005
0.324057
0.277459
0.288652
0.268094
0.387039
0.248142
0.378212
0.333056
0.390894
0.465763
0.421325
0.426747
0.419046
0.446256
0.344117
0.322418
0.446570
0.408557
0.427251
0.453744
0.414931
0.379669
0.365796
0.302184
0.316957
0.318086
0.316624
0.279778
0.295137
0.285089
0.245056
0.237294
0.214915
0.125187
0.183037
0.135217
0.107386
0.102232
-0.010706
0.082752
0.049698
-0.026608
0.033138
0.004192
-0.019794
0.074082
-0.014141
-0.121640
-0.085909
-0.006891
-0.097982
-0.029798
-0.031227
-0.044605
0.007535
0.028639
-0.080340
-0.051500
-0.039908
-0.055539
-0.033053
0.010670
-0.064055
-0.141761
-0.128891
-0.072106
0.004673
-0.100366
-0.064806
-0.114973
-0.084961
-0.052118
-0.104227
-0.032840
-0.026159
-0.109435
-0.018258
0.026662
-0.075266
-0.077468
-0.094406
-0.078727
-0.071647
-0.065401
-0.054272
-0.026870
-0.097100
-0.186535
-0.071613
-0.023020
-0.130849
-0.039784
-0.136375
-0.047084
-0.046231
0.013439
-0.151636
-0.011145
-0.039191
-0.075549
-0.001038
-0.029252
-0.070932
-0.114744
-0.072295
-0.131511
-0.020032
-0.026377
-0.068978
-0.061541
-0.045172
-0.064024
-0.043662
0.027420
-0.093480
-0.025300
0.032563
-0.010701
0.003465
-0.044134
-0.025156
-0.122141
-0.006047
-0.023382
-0.061661
-0.065527
-0.023403
-0.064118
-0.078863
-0.091559
-0.007594
-0.017616
-0.064037
0.019509
0.047051
-0.073478
-0.059246
-0.078567
0.016004
0.024840
-0.086341
-0.117515
-0.016595
-0.019051
-0.053257
-0.065311
-0.013061
-0.076880
0.008118
-0.006302
0.006318
-0.054649
0.023748
-0.020344
-0.027913
-0.011590
0.029113
-0.014172
-0.059710
0.002663
0.094658
0.059026
0.050297
0.078627
0.106142
0.085379
0.084903
0.159061
0.170424
0.201044
0.098040
0.027516
0.193204
0.197852
0.122278
0.148374
0.129107
0.189368
0.183795
0.159405
0.131039
0.131144
0.065994
0.165720
0.193045
0.090440
0.057476
0.140734
0.095565
0.096470
0.034425
0.013974
0.122600
-0.003588
0.029658
0.008116
0.010787
0.004828
-0.032076
-0.065913
0.068580
0.031226
0.044500
0.020965
-0.058030
-0.005487
-0.019250
-0.003416
0.042420
-0.031811
-0.029410
-0.022403
-0.009976
0.015962
-0.060184
0.004975
-0.020532
-0.060746
0.101182
-0.017273
0.049766
0.055700
-0.065684
0.010370
-0.043578
-0.017260
-0.023665
-0.119848
-0.119397
0.023468
0.064911
0.394923
0.724265
1.012748
1.252255
1.499274
1.474033
1.252864
0.998586
0.603187
0.318489
0.159362
-0.151293
-0.233040
-0.333664
-0.273012
-0.224141
-0.134873
-0.066055
-0.056165
0.016556
0.004145
0.124101
-0.021661
0.081168
0.075876
0.065676
-0.015760
0.086553
-0.040346
0.000954
0.035649
0.062855
0.018914
0.061324
0.056452
0.127223
0.063282
-0.009845
0.037681
0.147495
0.040330
-0.014711
0.070162
0.038036
0.095103
0.128103
0.103817
0.072507
0.099482
0.088505
0.109879
0.189070
0.093055
0.201602
0.141232
0.280542
0.208981
0.274760
0.287578
0.269871
0.189002
0.287707
0.391489
0.392819
0.388078
0.348396
0.401611
0.488731
0.384613
0.454420
0.452379
0.450076
0.472468
0.557383
0.532616
0.495025
0.585597
0.490841
0.508465
0.515646
0.580415
0.519414
0.454857
0.516356
0.447155
0.477416
0.502408
0.449557
0.476198
0.422609
0.369391
0.336744
0.423925
0.261713
0.372479
0.244378
0.268991
0.295577
0.133715
0.208421
0.216509
0.184498
0.158263
0.114548
0.159164
0.147711
0.205051
0.110411
0.201265
0.099340
0.075829
0.163603
0.076355
0.123802
0.035164
0.100768
0.063428
0.067098
0.012781
0.030103
0.040345
0.130220
-0.035731
-0.046904
0.031905
0.029044
0.075176
0.051244
0.076996
0.075348
-0.001554
-0.045590
0.045815
0.013351
0.034509
0.040894
0.116160
0.061411
0.122219
0.084652
0.067093
0.030357
0.076657
0.036998
0.134455
0.009166
-0.019536
0.013124
-0.010262
0.042881
0.004659
-0.024849
-0.011604
0.104293
0.014727
0.055640
0.055970
0.133997
0.057082
0.039563
0.014744
0.101735
0.094876
0.045563
0.049234
0.122090
0.008259
0.088402
-0.036860
-0.019429
-0.026225
0.047975
0.066110
-0.040487
0.072186
0.081151
0.049206
0.017468
0.041516
0.072074
0.070112
0.049703
0.007067
0.073223
0.019147
0.080329
0.080245
0.066946
0.018466
0.008979
0.046947
-0.020010
0.001145
0.025211
0.021471
0.079477
0.051209
-0.000333
-0.024377
0.099664
0.046607
0.098365
0.062013
-0.021363
0.087017
-0.027944
0.054469
0.004861
0.079176
-0.060120
-0.033135
0.038023
0.010339
0.024314
-0.039050
0.080704
0.124454
0.051970
0.110261
0.000472
0.030252
0.018897
0.108494
0.097979
0.040808
0.069646
0.108023
0.074254
0.063164
0.081288
0.098997
0.085865
0.044399
0.132808
0.134587
0.127830
0.198843
0.161001
0.213855
0.187693
0.106716
0.191342
0.186623
0.187360
0.172944
0.235897
0.170014
0.085905
0.033936
0.079982
0.148683
0.138823
0.097215
0.128455
0.080851
0.094541
0.039143
-0.002727
-0.035019
0.059246
0.019030
0.002707
0.028412
0.033297
-0.047403
0.051071
0.002926
0.022354
-0.033391
-0.067084
-0.056490
0.016296
-0.029676
-0.008201
0.069574
0.038284
-0.004856
0.012249
0.038392
0.059902
0.015587
-0.018552
-0.014860
-0.033647
0.004468
-0.050843
0.042586
0.016706
-0.002812
-0.115947
-0.163584
-0.140304
-0.064984
0.018281
0.273432
0.666832
1.003967
1.202028
1.393399
1.355336
1.206302
0.974576
0.658907
0.343319
0.068925
-0.074489
-0.346181
-0.340976
-0.297037
-0.281092
-0.206800
-0.155327
-0.085176
-0.111814
-0.042925
-0.030791
-0.045518
-0.058640
-0.064696
-0.056086
-0.018324
-0.008822
-0.030641
-0.005484
-0.052159
-0.071999
-0.001348
0.041318
-0.079616
-0.031098
-0.022887
-0.022025
-0.015782
-0.024655
-0.062502
-0.011750
-0.021772
-0.055321
-0.041178
-0.059010
-0.029858
0.030507
0.029253
-0.092310
0.078384
0.079666
0.090214
0.046048
0.064482
0.082933
0.096536
0.102780
0.173994
0.206729
0.200206
0.235788
0.198359
0.319342
0.256380
0.332381
0.307418
0.348304
0.382339
0.380464
0.306176
0.406360
0.458180
0.411227
0.446018
0.457135
0.373207
0.458799
0.433558
0.434314
0.407888
0.408054
0.446394
0.443014
0.401662
0.330630
0.454183
0.337912
0.319614
0.276273
0.274593
0.303300
0.271279
0.197732
0.162091
0.199994
0.164531
0.098774
0.193008
0.197575
0.031506
0.091119
0.078078
0.134248
0.073008
0.060083
0.046670
-0.113244
-0.038095
0.023104
-0.017729
-0.036380
-0.008158
-0.092037
-0.059567
-0.102342
0.006743
0.001660
-0.013724
-0.098320
-0.006804
-0.084954
-0.048760
-0.141179
-0.057247
-0.057010
-0.111467
-0.059680
-0.044624
-0.132305
-0.084347
-0.102216
-0.112487
-0.037757
-0.057346
-0.113091
-0.118380
0.060919
-0.089316
-0.053514
-0.138912
-0.084166
-0.047500
-0.018048
-0.104869
-0.098964
-0.106728
-0.130585
-0.080323
-0.073593
-0.082956
-0.070675
-0.064282
-0.082404
-0.090474
0.012223
-0.104832
-0.062403
-0.100145
-0.043564
-0.107008
-0.098901
-0.131772
-0.127350
-0.110287
-0.070071
-0.090845
-0.167361
-0.010221
-0.078686
-0.077051
-0.128898
-0.117968
-0.038978
-0.085255
-0.174038
-0.097038
-0.070149
-0.008180
-0.129303
0.009751
-0.093994
-0.061694
-0.075627
-0.133097
-0.231376
-0.130138
-0.107965
-0.089007
-0.095760
-0.035574
-0.175136
-0.189788
-0.003609
-0.093348
-0.066903
-0.101750
-0.123976
-0.099512
-0.072524
0.000921
-0.097151
-0.077186
-0.106486
-0.085784
-0.109598
-0.121662
-0.007347
-0.089177
-0.091816
-0.212891
-0.135368
-0.127314
-0.071372
-0.108558
-0.123595
-0.153019
-0.079217
-0.051485
-0.115809
-0.066780
-0.105989
-0.100404
0.067397
-0.054835
-0.032267
0.014714
-0.040695
0.001398
-0.069503
-0.005375
0.040573
0.049202
0.091028
0.029946
0.030298
0.067559
0.062582
0.103963
0.097892
0.105837
0.106972
0.010460
0.040460
0.095169
0.106310
0.096610
0.025504
0.020311
0.034506
0.078574
0.005820
-0.008991
-0.006089
-0.061221
-0.054528
-0.067402
-0.114608
-0.062463
-0.052003
-0.130913
-0.096101
-0.072853
-0.114878
-0.071622
-0.119767
-0.031152
-0.051545
-0.063444
-0.051179
-0.050134
-0.076770
-0.060374
-0.124822
-0.153558
-0.170626
-0.048247
-0.078971
-0.111210
-0.082694
0.005499
-0.059713
-0.067510
-0.060016
-0.022077
-0.067600
-0.088198
-0.123768
-0.116048
-0.233920
-0.237034
-0.212385
-0.142582
-0.081176
0.174375
0.525139
0.776313
1.150242
1.368148
1.364614
1.200506
0.937112
0.594573
0.310170
0.133182
-0.201044
-0.283643
-0.328170
-0.407295
-0.343145
-0.243812
-0.193758
-0.115412
-0.050172
-0.134242
-0.125245
-0.055350
-0.081942
-0.047910
-0.020145
-0.021892
-0.073900
-0.083274
-0.070459
-0.007390
0.019137
-0.126736
-0.072776
-0.109388
-0.025144
-0.095931
-0.068558
-0.001972
-0.033669
-0.094615
-0.108756
0.015096
0.015099
-0.023478
-0.046306
0.010326
0.069334
0.022322
-0.010540
0.131628
0.023031
-0.025943
0.106435
0.050943
0.074529
0.097652
0.226339
0.215326
0.129740
0.261322
0.254663
0.197263
0.273650
0.294329
0.367183
0.327846
0.388846
0.367549
0.441292
0.326378
0.388212
0.420832
0.385821
0.454085
0.496361
0.442013
0.445948
0.453986
0.418081
0.490240
0.480563
0.479093
0.449199
0.424421
0.411102
0.416602
0.360286
0.466144
0.327658
0.440549
0.312423
0.293061
0.285684
0.277287
0.265470
0.233359
0.183624
0.170575
0.141074
0.109380
0.135381
0.030387
0.107938
0.046321
0.036326
0.090410
0.024203
0.020935
0.041855
0.076211
0.088952
0.012106
-0.006370
-0.030831
0.009116
0.036206
0.053325
0.054968
0.024542
0.076656
0.025039
0.022647
0.036972
-0.012846
-0.076035
-0.014857
-0.065128
-0.065384
0.018933
-0.061768
0.012981
-0.041767
0.065434
0.088494
-0.063379
-0.083270
0.009779
-0.017532
0.018566
0.068626
0.019697
-0.067124
0.067847
0.070456
0.045514
-0.016137
0.042025
-0.007838
0.045099
0.018847
0.012722
0.035740
0.029573
0.018827
0.048456
0.017681
0.017797
0.021471
-0.020501
0.097881
0.000875
0.027909
0.006064
0.050458
0.092421
0.019284
0.026237
0.051458
0.025110
0.116062
0.090794
0.099958
0.082495
0.033276
0.028702
-0.007328
0.011070
0.006232
0.005853
0.039463
0.003485
-0.005855
0.041132
0.048154
0.064299
0.074358
0.126480
0.031806
0.072450
0.053311
0.042944
0.008578
0.067443
-0.060764
-0.040705
0.011527
0.120205
0.023116
0.066405
0.026287
0.012451
0.016103
0.048606
0.021913
0.031845
0.042910
0.099230
0.063902
0.031474
0.005568
0.123836
0.056317
0.030127
0.039633
0.031275
-0.002047
0.030872
0.014290
0.116854
0.031621
0.049339
0.128967
0.125279
0.125047
0.076022
0.103102
0.137471
0.120966
0.058056
0.183329
0.132975
0.177353
0.230725
0.213390
0.220454
0.258185
0.156628
0.281248
0.253335
0.165937
0.276497
0.205024
0.177281
0.191178
0.184015
0.185971
0.244537
0.196925
0.137894
0.157327
0.086596
0.157122
0.088879
0.108648
0.156730
0.184127
0.128243
0.055909
0.090249
0.062056
0.026377
0.053749
0.119008
0.071115
0.186243
0.068686
0.142912
0.115486
0.166014
-0.009552
0.018311
0.020790
0.011728
0.135488
0.073265
0.011018
0.048078
0.022310
0.053114
0.035774
0.030565
0.063850
0.027237
0.040662
0.047952
0.030935
0.051625
0.039625
-0.091607
-0.043266
-0.026462
-0.095356
0.120004
0.321603
0.599572
0.849409
1.192358
1.456913
1.500000
1.302177
1.065286
0.715592
0.516258
0.273945
0.004319
-0.170639
-0.246440
-0.204739
-0.147847
-0.077682
0.009394
-0.046296
-0.036872
0.081531
0.102970
0.044616
0.074352
0.003195
0.060565
0.046215
0.124291
0.084406
0.043807
0.077550
0.045135
0.081803
0.110125
