-0.028615
0.068800
0.022073
0.008436
0.014862
-0.019402
-0.073606
0.104399
-0.019823
-0.017512
-0.020549
0.042388
0.046935
0.027490
0.002323
0.031599
0.015698
0.004729
0.088029
-0.007973
0.130556
0.011506
0.010381
-0.009612
-0.041365
-0.022701
-0.011940
-0.014526
0.070744
0.053712
0.043504
0.086588
0.037959
0.081176
0.103568
0.110983
0.031579
0.078418
0.144609
0.121576
0.186544
0.181788
0.224988
0.176288
0.185360
0.248528
0.155262
0.196336
0.203253
0.219395
0.165367
0.097899
0.153947
0.128243
0.182625
0.118022
0.158199
0.178134
0.131414
0.100257
0.032644
0.202298
0.118756
0.021960
0.072107
0.059750
0.066956
0.161938
0.068883
0.077855
0.172315
0.083129
0.025623
-0.004228
0.074211
0.054900
0.009687
0.092526
0.046646
0.098645
0.045927
0.044624
0.074841
0.007446
0.106502
0.022506
0.042381
0.101268
0.068247
-0.014105
0.017212
-0.006791
0.115236
0.152809
0.332337
0.614773
0.846144
1.358713
1.385088
1.396262
1.289974
0.969107
0.639022
0.268113
0.029618
-0.227494
-0.256081
-0.248372
-0.160043
-0.107936
-0.033152
-0.035480
0.031160
0.101272
-0.012550
0.133350
-0.031767
0.016635
0.005444
0.088286
0.110476
0.001774
0.030410
0.080828
0.125863
0.064067
0.202005
0.037018
0.132188
0.171465
0.178305
0.165461
0.105814
0.112604
0.217091
0.225247
0.227442
0.227177
0.282161
0.265941
0.309384
0.234829
0.292722
0.350071
0.353077
0.418053
0.343946
0.408256
0.474946
0.452973
0.444740
0.437593
0.530708
0.554736
0.580342
0.555203
0.603693
0.623532
0.581115
0.580056
0.593135
0.604677
0.593664
0.643436
0.553190
0.551774
0.568532
0.530173
0.462779
0.472445
0.512298
0.526918
0.406665
0.488342
0.377787
0.380014
0.349138
0.346389
0.388063
0.287692
0.320587
0.237756
0.246626
0.243836
0.234361
0.182418
0.219516
0.202105
0.169299
0.156372
0.099439
0.119055
0.103050
0.092371
0.150103
0.061954
0.150583
0.086329
0.050133
0.175322
0.125953
0.143889
0.042743
0.065670
-0.007399
0.099898
0.041805
0.133034
0.007921
0.109769
0.043114
0.018483
0.096059
0.069722
0.129151
0.028942
0.021358
0.033909
0.109874
0.160025
-0.010501
0.126671
0.029795
0.042122
0.064502
0.106017
0.059347
0.098781
0.083913
0.174149
0.061263
0.116360
0.113226
0.136175
0.104201
-0.008296
0.123581
0.087714
0.064874
0.146547
-0.022857
0.037031
0.079340
0.100936
0.112020
0.044395
0.079516
0.098458
0.015028
0.060252
0.056393
0.095709
-0.005435
0.120416
0.085751
0.088555
-0.001938
0.043394
0.097809
0.133693
0.064726
0.043935
0.120357
0.069529
0.068796
0.112235
0.091062
0.078049
0.100563
0.002563
-0.001595
0.090358
0.072384
0.071010
0.111204
0.113838
0.061680
0.159293
0.099340
0.108462
0.123707
0.070569
0.030666
0.077578
0.208809
0.189523
0.189688
0.207053
0.209278
0.160604
0.193746
0.178685
0.224356
0.191689
0.219239
0.219858
0.215518
0.260287
0.286218
0.218977
0.176197
0.173124
0.272097
0.158943
0.139403
0.178738
0.090795
0.174634
0.175956
0.142056
0.166424
0.000921
0.074216
0.034591
0.032958
0.049285
0.071562
0.044864
0.120185
0.076653
0.079926
0.074629
0.108936
0.029722
-0.028477
0.068240
0.107228
0.015529
0.044461
0.168163
0.000023
0.130591
0.053682
0.053996
0.092724
0.011998
-0.018977
-0.047593
0.058088
0.091026
0.321224
0.635350
0.956529
1.313264
1.500000
1.369987
1.199797
0.854407
0.490649
0.281107
-0.098096
-0.309823
-0.302944
-0.229792
-0.230198
-0.164628
-0.008323
0.027299
0.118046
-0.011802
0.069630
0.089201
0.031320
0.037937
0.150960
0.042321
0.013150
0.061502
0.183564
0.001630
0.054087
0.087207
0.090514
0.120755
0.116709
0.010933
0.126126
0.107048
0.145048
0.122751
0.131033
0.197857
0.275235
0.194673
0.215055
0.163784
0.191550
0.260985
0.234765
0.283521
0.320995
0.357821
0.396347
0.377634
0.418995
0.353858
0.412693
0.392546
0.459023
0.406210
0.473851
0.484334
0.433603
0.575872
0.411831
0.559512
0.495727
0.478862
0.465965
0.512629
0.510649
0.427916
0.457158
0.405470
0.365925
0.370125
0.468305
0.380154
0.314610
0.370382
0.402064
0.316736
0.267639
0.295591
0.199666
0.185508
0.261767
0.114170
0.091744
0.097029
0.134877
0.149702
0.120702
0.051859
0.176304
0.118741
0.107993
0.097878
0.006242
0.079213
0.050962
-0.018855
-0.043635
-0.067961
-0.002375
-0.015884
0.036104
-0.033576
0.039391
-0.057389
0.030584
0.049502
-0.068470
0.020902
-0.027939
0.017679
0.000622
0.038857
-0.011687
0.009090
-0.062581
0.000822
0.013129
-0.083156
-0.041403
0.078450
-0.025057
-0.016844
-0.097437
0.028234
-0.014933
-0.036521
-0.081784
-0.078039
-0.027800
0.025680
-0.052159
-0.024351
-0.059032
0.007142
-0.068871
-0.025587
-0.044590
0.014432
-0.056142
-0.026771
0.070112
-0.058595
-0.008129
0.000661
-0.064352
-0.029204
-0.000661
-0.053714
-0.027296
0.033925
-0.058216
0.012727
-0.067296
-0.047874
-0.009112
0.020206
-0.073686
-0.085336
0.004506
-0.024151
-0.062673
-0.052996
-0.059635
-0.024818
-0.012131
0.025255
-0.010490
-0.015696
-0.053381
0.014802
-0.072135
0.019720
-0.024979
0.002051
-0.069163
-0.016962
0.001714
-0.006475
0.033496
-0.017159
0.065559
0.026551
0.060313
0.019014
0.043415
0.078082
0.086195
0.021612
0.140909
0.155067
0.124752
0.099138
0.052933
0.066758
0.083920
0.079640
0.136174
0.217869
0.084503
0.135655
0.054841
0.117382
0.125218
0.074385
0.034404
0.073234
0.016821
0.082701
0.043902
0.006689
-0.034755
0.060446
-0.052402
0.021995
-0.093031
0.067599
-0.016695
0.039363
0.011601
-0.130569
0.033547
0.021202
-0.002228
0.058504
-0.005452
-0.031879
-0.018027
-0.146334
-0.084921
-0.021564
0.017441
-0.018712
-0.025412
-0.053568
-0.004719
-0.076904
-0.092189
-0.101092
-0.001715
0.103649
0.343284
0.654556
0.947683
1.258325
1.380065
1.275110
1.156742
0.860407
0.450931
0.151568
-0.174486
-0.216686
-0.243482
-0.293676
-0.268862
-0.148919
-0.162661
-0.064614
-0.012271
0.013486
0.012976
-0.079875
-0.035789
-0.016810
-0.001706
0.034124
0.052763
0.006536
-0.021056
0.021184
-0.037395
-0.043408
-0.012161
-0.022661
-0.012986
-0.029976
-0.001898
0.036095
0.119430
0.090877
0.093467
0.187466
0.096154
0.145857
0.239472
0.096190
0.245628
0.272064
0.278780
0.258362
0.212658
0.229986
0.322987
0.314782
0.339351
0.272045
0.342613
0.423579
0.374947
0.406979
0.444257
0.457261
0.405240
0.474331
0.456306
0.470132
0.446888
0.495390
0.433147
0.493268
0.432694
0.404939
0.372942
0.486065
0.421575
0.424485
0.394372
0.344700
0.286083
0.328033
0.347710
0.256247
0.315155
0.237972
0.254815
0.193559
0.235144
0.203165
0.188546
0.100632
0.098269
0.081585
0.069333
0.001552
0.050599
0.077929
0.102838
-0.014362
0.081551
-0.002984
-0.035607
-0.006286
0.077105
-0.008849
0.018922
0.007005
-0.036653
-0.022493
-0.020779
-0.074889
-0.056635
0.105013
0.002725
-0.033924
0.023704
0.063085
0.019196
0.068899
0.013841
-0.111685
0.061760
0.018581
0.032312
-0.101654
0.024194
-0.053961
0.013042
0.009020
0.012826
0.071454
-0.009893
0.029876
0.027904
-0.059840
-0.033520
-0.047428
-0.029278
0.048432
0.082050
-0.004155
-0.035002
-0.013864
0.047769
0.032633
-0.018851
-0.002971
0.075433
0.066263
0.003766
0.050232
0.061628
0.014267
-0.022452
-0.035515
0.029432
0.022495
-0.048475
0.010813
-0.131575
0.005771
0.040274
0.090582
0.055497
0.081405
-0.007015
0.101287
0.007735
-0.009050
-0.004299
-0.012350
-0.009504
-0.105508
0.029455
-0.004695
0.053735
0.076063
0.062549
0.074875
0.110907
0.033072
-0.064459
0.039712
0.130417
0.073740
0.087409
0.124237
0.119215
0.156478
0.090298
0.189954
0.119032
0.114077
0.197067
0.159610
0.154351
0.187032
0.158918
0.238495
0.215933
0.162237
0.233108
0.236489
0.237542
0.217327
0.234956
0.190781
0.221899
0.150148
0.176922
0.167047
0.240476
0.120246
0.131314
0.141037
0.118608
0.079594
0.087556
0.093624
0.129035
0.080561
0.061768
0.029244
0.132878
-0.024693
0.009186
0.082627
0.061236
0.068771
0.118175
0.090388
0.063130
0.113870
0.058101
0.033662
0.131954
0.089047
-0.024517
0.057207
0.043179
0.042653
0.065570
0.061431
-0.008287
0.012106
0.070246
0.221142
0.430734
0.759047
1.062765
1.364347
1.375289
1.322518
1.142906
0.821160
0.544978
0.198274
-0.057333
-0.169370
-0.218750
-0.198716
-0.165090
-0.165660
-0.019665
0.029288
0.031166
0.080257
0.070149
0.108186
0.082802
0.056132
0.076817
0.065651
0.079212
0.077455
0.063133
0.122245
0.135749
0.061509
0.149423
0.135915
0.116264
0.158945
0.093959
0.203546
0.195364
0.143783
0.193914
0.218468
0.209517
0.257300
0.286340
0.221392
0.296172
0.351237
0.314006
0.363215
0.443085
0.421298
0.438488
0.523567
0.426414
0.485770
0.429268
0.400477
0.513877
0.544655
0.538166
0.518049
0.671693
0.661661
0.617445
0.674071
0.536227
0.658550
0.565832
0.605197
0.575229
0.587799
0.463445
0.535932
0.459450
0.466055
0.439578
0.470602
0.471581
0.340079
0.292655
0.426387
0.352760
0.383316
0.311127
0.329194
0.352742
0.283906
0.231483
0.212492
0.230270
0.192033
0.177376
0.067124
0.161849
0.213417
0.170953
0.074870
0.109098
0.081955
0.175137
0.020352
0.134402
0.010864
0.106878
0.131177
0.127499
0.094191
0.075520
0.077956
0.087717
0.086473
0.087721
0.093310
0.093613
0.123563
0.086347
0.074291
0.102893
0.069139
0.168512
0.128551
0.087848
0.138171
0.160340
0.051800
0.088485
0.103321
-0.023358
-0.012458
0.083091
0.127659
0.081259
0.034959
0.099581
0.054038
0.132750
0.092859
0.116168
0.026732
0.053805
0.120740
0.061370
0.124270
0.055610
0.109572
0.105746
0.086971
0.217194
0.079448
0.118111
0.054391
-0.026627
0.096458
0.076109
0.074348
0.038758
0.160277
0.040339
0.004982
0.085783
0.022283
0.131653
0.077486
0.069912
0.059979
0.127591
0.055482
0.028830
0.026899
0.129271
0.106158
0.175460
0.053994
0.017652
0.002571
0.046857
0.160558
0.113569
0.176644
0.113394
0.138301
0.070517
0.108124
0.011654
0.136075
0.143964
0.152614
0.116096
0.199961
0.190084
0.176974
0.169838
0.208553
0.264825
0.286359
0.171584
0.173567
0.237681
0.229442
0.231699
0.196092
0.207971
0.132988
0.277174
0.219177
0.170540
0.240819
0.233495
0.203939
0.164634
0.110964
0.168370
0.106040
0.122465
0.138295
0.084143
0.069023
0.088180
0.130255
0.104353
0.105226
0.096244
0.056756
0.086748
0.041911
0.024527
0.028779
0.051500
0.035526
0.033384
0.080056
0.004637
0.100304
0.107136
0.040112
0.076096
0.072876
0.035947
0.089181
-0.010091
0.027250
-0.113684
0.007337
0.051803
0.177860
0.467825
0.813597
1.152130
1.332534
1.431028
1.383902
1.092015
0.858079
0.477876
0.145725
-0.080087
-0.239579
-0.235761
-0.161768
-0.135090
-0.125464
0.023478
0.038401
0.066074
-0.007033
0.128110
0.051068
0.068675
0.112047
-0.061231
0.085734
0.047461
0.014305
0.023523
-0.035300
0.056529
0.065689
0.031120
0.057402
0.083413
0.075857
0.141193
0.045711
0.044287
0.168557
0.123255
0.186964
0.138483
0.191780
0.213658
0.247459
0.258743
0.249857
0.316831
0.273539
0.352007
0.340920
0.357310
0.376226
0.388273
0.363482
0.356046
0.368539
0.440961
0.401625
0.439550
0.481562
0.463421
0.448819
0.502645
0.563690
0.571112
0.494211
0.463057
0.514526
0.446215
0.478527
0.433419
0.449134
0.451686
0.380960
0.378689
0.330307
0.347612
0.316392
0.324377
0.254466
0.292542
0.209602
0.221758
0.180197
0.222474
0.162999
0.103549
0.153339
0.167196
0.038323
0.087846
0.056966
0.091669
-0.035171
0.063687
-0.009103
0.045581
0.002955
-0.004938
-0.022388
-0.021461
-0.060429
0.001133
-0.032344
0.051406
-0.007343
-0.048796
-0.014519
-0.050570
0.016478
0.033126
0.008968
-0.089489
-0.045613
-0.097010
-0.046190
0.003451
-0.017291
-0.092391
-0.018318
-0.055465
-0.089773
-0.021331
0.019783
0.040340
-0.078861
-0.043637
-0.027121
0.020068
0.001462
-0.119323
-0.134305
-0.030090
0.058376
-0.017115
-0.078726
-0.035402
-0.004196
0.032806
-0.040353
-0.023103
-0.097490
-0.057153
0.013755
0.008312
-0.052412
-0.007476
-0.006103
0.000364
-0.060950
-0.091162
-0.003803
-0.068558
-0.028977
-0.111522
-0.073935
-0.015367
-0.032826
-0.060947
-0.047613
-0.086655
-0.019533
-0.100680
-0.010625
-0.053588
-0.029345
-0.043085
-0.039171
0.025241
-0.111399
-0.071250
0.001681
-0.051079
-0.028306
-0.060248
-0.094430
0.038175
-0.040235
-0.003809
-0.030849
0.000737
-0.096379
0.028988
0.075093
0.024101
-0.076748
-0.003205
-0.038233
0.065523
0.031790
0.048312
0.101745
0.154043
0.083788
0.148689
0.161777
0.139680
0.073296
0.103156
0.162610
0.071786
0.073361
0.031279
0.166090
0.061990
0.080436
0.097305
-0.008455
-0.015298
-0.035746
0.047092
0.016844
0.034634
-0.014480
-0.070343
-0.004351
-0.024367
-0.100318
-0.073640
-0.015984
-0.124539
0.013357
-0.045724
-0.072928
-0.067524
-0.176703
-0.060162
-0.132995
-0.065860
-0.101883
-0.024792
-0.082004
-0.097504
-0.029737
-0.021965
-0.073198
-0.096920
-0.083835
-0.140078
-0.161904
-0.158579
-0.131997
-0.021386
0.163930
0.405813
0.746832
0.997513
1.207586
1.324892
1.210953
0.983385
0.594353
0.338717
0.110968
-0.193624
-0.336446
-0.425050
-0.407844
-0.193150
-0.144870
-0.179473
-0.091466
-0.108208
-0.026278
0.012737
-0.072294
-0.033689
-0.069315
-0.121515
-0.064002
-0.039722
-0.065280
-0.039585
-0.131537
-0.063089
-0.059135
-0.067448
-0.072509
-0.034688
-0.020912
-0.075911
-0.003702
0.043107
0.045702
0.131425
0.053981
0.086442
0.030117
0.099154
0.098758
0.138091
0.176453
0.197822
0.179159
0.157150
0.254249
0.281914
0.277417
0.292876
0.329717
0.344133
0.389014
0.376692
0.420642
0.391689
0.384453
0.450405
0.341944
0.379606
0.454771
0.404759
0.404330
0.442568
0.417641
0.336153
0.350070
0.295746
0.350540
0.332421
0.360321
0.314319
0.234331
0.305286
0.275835
0.201920
0.100280
0.257197
0.199683
0.167317
0.140268
0.141565
0.127277
0.137552
0.157230
0.062013
0.035017
0.066486
0.018056
0.060336
-0.013730
0.056421
-0.044867
-0.019079
0.007855
-0.084709
-0.007534
-0.037735
-0.061326
-0.052152
-0.025543
-0.017494
-0.051149
-0.105268
0.024795
-0.049097
-0.040123
-0.067124
-0.021905
-0.001315
-0.095040
-0.007603
-0.085533
-0.007510
-0.080952
-0.019656
0.052312
-0.067861
-0.002389
-0.063373
-0.003320
-0.012339
-0.091393
-0.059735
-0.063579
-0.002188
-0.067461
-0.089269
-0.033375
-0.035622
-0.020739
-0.084760
0.019937
-0.066541
-0.051466
-0.040715
-0.075679
0.037718
-0.080809
0.019183
0.026444
-0.084873
-0.046245
0.007888
-0.099734
0.004642
-0.021499
0.025687
-0.050355
-0.053830
-0.097078
-0.023155
-0.003797
-0.026262
-0.065609
-0.085687
-0.003170
-0.071235
-0.067904
-0.018404
-0.058407
-0.094108
0.051112
0.004110
-0.056585
-0.068710
-0.066476
-0.007399
-0.032562
-0.014113
0.034220
0.035439
-0.017937
-0.022463
-0.021467
0.074662
0.011922
0.082805
0.030591
0.050053
0.025440
0.043716
0.065216
0.013663
0.028204
0.060437
0.085750
0.143482
0.168714
0.129428
0.081783
0.112471
0.138483
0.165231
0.179223
0.128255
0.210843
0.199600
0.170887
0.162100
0.115597
0.114405
0.173096
0.097160
0.082571
0.164336
0.059089
0.105845
0.112272
0.102959
0.038823
-0.005395
0.028973
0.112551
-0.023357
0.029823
-0.008355
0.058927
0.072807
-0.001963
0.056819
-0.039702
-0.032916
-0.073337
-0.066385
0.010011
-0.025428
0.011542
-0.069208
-0.005384
0.041997
-0.011103
0.026561
0.055649
-0.003479
-0.078418
-0.040252
-0.065434
-0.096524
0.044894
0.153726
0.490727
0.740052
1.058311
1.342480
1.406912
1.313476
1.024000
0.724137
0.339878
0.027171
-0.147238
-0.245787
-0.276844
-0.215887
-0.189349
-0.110396
-0.012231
-0.006572
0.020450
-0.020535
0.035783
-0.005567
-0.063398
0.045893
0.028631
0.075073
0.032886
-0.067981
0.020252
-0.032780
0.049700
0.061636
0.143223
0.031202
0.056495
0.123232
0.058680
0.039655
0.125711
0.148223
0.149967
0.107745
0.240868
0.205201
0.156925
0.271117
0.325661
0.259812
0.297874
0.310956
0.301672
0.318641
0.359457
0.389153
0.448295
0.414723
0.478193
0.493799
0.495968
0.561474
0.488256
0.518327
0.527814
0.572980
0.517306
0.635818
0.561020
0.600273
0.568709
0.432587
0.491641
0.480710
0.407419
0.485779
0.500238
0.441343
0.414414
0.418169
0.335168
0.412066
0.256747
0.368704
0.274118
0.252288
0.269029
0.250710
0.101346
0.289651
0.221508
0.196575
0.204966
0.186539
0.209646
0.140894
0.137618
0.095146
0.128154
0.131051
0.144058
0.072915
0.128270
0.028964
0.072824
-0.003890
0.041819
0.060522
-0.001233
0.068009
0.011796
0.031493
0.008540
0.021960
0.097083
0.044494
-0.037223
0.009686
0.043202
-0.005948
0.067196
0.087866
0.034078
-0.000200
0.078628
0.033811
0.086159
0.055572
0.047639
0.048363
0.005625
0.017260
0.068249
0.054174
0.081450
-0.000261
-0.022486
0.089337
0.051921
0.067972
0.086218
0.039217
0.073182
0.013575
0.072199
0.019407
0.065574
0.050810
0.007659
0.043094
0.074834
0.044056
0.039874
0.083352
0.026893
0.022652
0.071223
0.043292
0.055482
0.008578
0.079018
-0.048570
0.086209
0.000477
0.070298
0.057469
0.088289
0.041190
0.053208
0.062297
0.030385
0.065631
0.043923
0.069608
0.073450
0.037368
-0.014686
0.169803
0.080654
-0.016271
0.043829
0.006298
0.037989
-0.005582
0.025159
0.113949
0.042115
0.042691
0.062958
0.015885
0.096781
0.156857
0.087775
0.123788
0.149462
0.146708
0.239021
0.219531
0.152646
0.235701
0.183292
0.198918
0.235702
0.199669
0.168369
0.184528
0.170491
0.146296
0.186914
0.224332
0.085438
0.147825
0.070316
0.083989
0.086671
0.141093
0.121108
0.056879
0.019158
0.028124
0.002051
0.118468
0.096829
0.060755
0.031902
0.033573
-0.023070
0.051656
-0.008274
0.060960
0.004629
0.111822
0.007515
0.034148
0.068523
-0.044503
-0.024851
0.068550
0.078501
0.056266
0.048151
0.016877
0.048691
0.016523
-0.057206
-0.080057
0.047182
0.227354
0.402954
0.849618
1.161783
1.381906
1.382349
1.216456
1.003698
0.633598
0.265478
0.138229
-0.105709
-0.324131
-0.300930
-0.245663
-0.295887
-0.135360
-0.020078
-0.022449
0.011378
-0.055889
0.008164
0.011316
-0.005228
0.034066
0.036986
0.033665
0.045690
0.009303
0.114148
0.054337
-0.014374
0.087987
0.059285
-0.064977
-0.007622
0.059520
0.114801
0.053371
0.160111
0.059877
0.083680
0.134085
0.208849
0.119321
0.183560
0.135168
0.152912
0.279125
0.313049
0.292661
0.297536
0.340002
0.353709
0.356791
0.478424
0.499192
0.365801
0.341660
0.437843
0.348430
0.431659
0.357339
0.456498
0.516052
0.471723
0.451537
0.569510
0.399723
0.399649
0.413509
0.315917
0.418777
0.433284
0.448833
0.364822
0.445522
0.298817
0.359364
0.197813
0.292745
0.282878
0.228500
0.219911
0.235446
0.167130
0.170207
0.228123
0.174354
0.126219
0.175188
-0.008627
0.130843
0.118275
0.073322
0.055040
0.085916
-0.047590
-0.017579
0.000750
0.032864
0.032187
-0.000865
0.013774
-0.093022
-0.027120
0.012499
-0.024893
-0.126260
-0.010561
-0.050463
-0.005580
-0.037204
-0.128337
0.010901
-0.033364
-0.075310
-0.006524
-0.046508
-0.090117
-0.088364
-0.064838
-0.043346
-0.133928
-0.070546
0.007483
-0.021697
-0.117053
-0.023732
-0.059233
-0.062192
-0.064238
-0.041674
0.050870
-0.085414
-0.033674
-0.080445
0.038810
-0.022127
-0.034285
-0.072782
-0.141973
-0.091219
-0.036002
-0.031337
-0.052091
-0.048240
-0.005677
-0.126651
-0.046402
-0.132611
0.020012
0.025713
-0.183830
-0.039629
-0.126796
-0.035287
-0.047177
-0.061814
-0.101133
-0.042362
-0.001693
-0.069672
-0.088508
-0.052828
-0.034163
-0.107612
-0.054375
-0.061520
-0.074897
-0.075976
-0.041108
-0.074612
-0.109402
-0.076578
-0.005704
-0.101333
0.027557
-0.109717
-0.071744
-0.008203
-0.080868
-0.062484
-0.043265
-0.107711
-0.079092
-0.010903
-0.023506
-0.014291
0.004111
0.015633
0.016819
-0.026261
0.081632
0.074432
0.025463
0.128193
0.133230
0.094269
0.064696
0.106317
0.136267
0.068313
0.137808
0.103843
0.091395
0.119248
0.023422
0.094766
0.004470
0.088679
0.060699
-0.073872
-0.047066
-0.088952
-0.064483
-0.014218
-0.094592
-0.096265
-0.109519
-0.071325
-0.033760
-0.117176
-0.103561
-0.128851
0.002786
-0.068294
-0.062303
-0.039157
-0.133005
-0.055882
-0.084057
-0.125335
-0.102325
-0.119702
-0.058154
-0.132427
-0.045224
-0.100368
-0.029631
-0.070273
-0.183119
-0.176074
-0.173262
-0.135978
0.014419
0.117383
0.366770
0.705186
1.044821
1.282674
1.290179
1.147911
0.799447
0.524409
0.082429
-0.069089
-0.330137
-0.410746
-0.368699
-0.321338
-0.202039
-0.227157
-0.119874
-0.106000
-0.083651
-0.124975
-0.099808
-0.165143
-0.076868
-0.088025
-0.097526
-0.118724
-0.079285
-0.129644
-0.016863
-0.029977
-0.034552
-0.080812
-0.152478
-0.051189
-0.082843
-0.046258
-0.000068
-0.016400
0.141253
0.070447
0.012146
0.022277
0.063955
0.067639
0.137970
0.172167
0.097758
0.181400
0.125612
0.221229
0.241575
0.324949
0.226605
0.207915
0.303992
0.279802
0.323822
0.425382
0.266055
0.383305
0.336124
0.372872
0.383249
0.459802
0.435075
0.393190
0.379515
0.306666
0.324976
0.414881
0.341858
0.358524
0.315822
0.282172
0.353696
0.245287
0.304904
0.194193
0.174925
0.236147
0.259424
0.140527
0.207472
0.122896
0.176322
0.132736
0.102744
0.142181
0.064854
0.047141
-0.006046
0.051143
0.011077
-0.044279
-0.022144
-0.082265
0.034624
0.009829
0.011878
-0.082152
-0.033838
0.001474
-0.060026
-0.037128
-0.005109
-0.010588
-0.084474
-0.041306
-0.039024
-0.054495
-0.058080
-0.067632
-0.062144
-0.096215
-0.112425
-0.094708
-0.090833
-0.038349
-0.043628
-0.117962
-0.106718
-0.035445
-0.047386
-0.096886
-0.031711
-0.067961
-0.050558
-0.026960
-0.013146
-0.088318
0.021477
-0.031795
-0.102148
-0.051487
-0.030907
-0.056369
-0.066179
-0.081639
-0.058830
-0.072443
-0.016429
-0.082675
0.007668
-0.114564
-0.050650
-0.004751
-0.074532
-0.088625
-0.005195
-0.065625
-0.103343
-0.039674
-0.130639
-0.040956
-0.014647
-0.023530
-0.036502
0.006101
-0.010664
0.012099
0.011662
-0.048076
-0.075862
-0.114620
-0.036804
0.023333
-0.054751
-0.030409
-0.076532
-0.042045
-0.072322
-0.041692
-0.008171
-0.045762
-0.041511
0.030681
-0.050375
-0.058464
0.019380
-0.023867
-0.007266
-0.016723
-0.004672
-0.019591
-0.032706
0.078592
0.027268
0.060731
0.017552
0.012488
0.089122
0.059478
0.045042
0.082541
0.087849
0.079471
0.144598
0.126602
0.138808
0.078470
0.163587
0.187757
0.095387
0.124227
0.172088
0.097009
0.133760
0.143438
0.101667
0.113884
0.101954
0.085699
0.113393
0.096131
0.022958
0.097091
0.022243
0.054246
0.082775
-0.024569
0.043121
-0.009840
0.010973
0.090242
0.026413
0.024252
-0.033221
-0.033056
-0.039691
-0.020455
-0.010303
0.091390
-0.058421
0.023394
0.019710
0.001997
0.049098
-0.058470
0.025649
0.005400
-0.059496
-0.069781
-0.111162
0.060885
0.029772
0.266599
0.557465
0.891431
1.205086
1.368232
1.403082
1.251552
0.901084
0.556861
0.231012
0.009505
-0.197301
-0.280721
-0.304104
-0.186990
-0.166341
-0.062201
-0.009917
0.062797
0.040398
0.053975
0.043149
0.023616
0.049948
0.042388
0.055114
0.115254
0.048475
-0.005567
0.013175
0.020576
-0.007298
0.038425
0.090619
-0.019218
0.086340
0.080040
0.076374
0.123313
0.099603
0.086944
0.208670
0.220788
0.143448
0.215356
0.224698
0.215640
0.265389
0.348925
0.317595
0.276000
0.378307
0.346145
0.382022
0.364272
0.448720
0.400521
0.410105
0.468430
0.481321
0.442132
0.532921
0.582378
0.615343
0.512785
0.543283
0.555663
0.607474
0.519418
0.471733
0.532116
0.527009
0.468641
0.526220
0.478947
0.556775
0.369037
0.458596
0.395250
0.423010
0.405247
0.354662
0.321559
0.311713
0.263563
0.266835
0.335960
0.162654
0.172793
0.201517
0.212748
0.193556
0.065006
0.178294
0.056325
0.123171
0.158936
0.141511
0.084064
0.100056
0.129217
0.188119
0.038428
0.173139
0.127242
0.063603
0.063079
0.021227
0.083465
0.148584
0.094943
0.046781
0.099235
0.117817
0.047080
0.083331
0.123848
-0.017274
0.150517
0.100217
0.032342
0.047737
0.073560
-0.001194
0.077610
0.019187
0.001189
0.133324
0.008483
0.079938
0.075617
0.017384
0.070873
0.029610
0.049746
-0.000551
0.128978
0.079908
-0.004723
0.050524
0.119807
0.052374
0.093207
0.060673
0.031562
0.053103
0.057815
0.024800
0.073716
0.116677
-0.009096
0.034644
0.076714
0.087649
0.067977
0.046379
0.069230
0.012113
0.179246
0.107266
-0.000465
0.048167
0.065493
0.015721
0.055338
0.087264
0.014503
0.078103
0.112276
0.072751
0.071099
0.078595
0.087636
0.091293
0.008578
0.114610
0.148265
0.057390
-0.077276
0.053964
-0.009875
0.084588
0.156124
0.167825
0.093789
0.079174
0.169637
0.142931
0.087641
0.133479
0.148336
0.110994
0.187071
