0.000345
-0.014204
0.052908
0.015445
-0.000905
-0.050278
-0.036144
0.022064
-0.014175
-0.013892
0.037569
-0.034210
0.020060
0.075943
-0.009397
-0.036757
-0.015715
0.024309
0.022689
0.044035
0.061970
-0.010264
0.050223
0.047120
-0.010672
0.023948
0.009139
0.078473
0.019621
0.061273
0.001101
0.068319
0.145544
0.029262
0.175262
0.123925
0.139689
0.131050
0.087773
0.129091
0.160140
0.113798
0.170684
0.169208
0.200254
0.169367
0.173646
0.200929
0.217249
0.182575
0.176248
0.171362
0.240058
0.259528
0.180139
0.089852
0.136414
0.161798
0.147106
0.150103
0.122226
0.091375
0.159229
0.094966
0.046643
0.091040
0.010440
0.017206
0.087267
-0.048111
0.065682
0.081705
0.091344
0.019886
0.095814
0.097822
0.085493
0.071705
0.085378
0.057034
0.044780
0.047259
0.023106
0.042160
-0.026955
0.091426
0.035262
0.024214
-0.063411
0.016861
0.048805
0.351217
0.764669
0.954527
1.297382
1.445958
1.410355
1.282058
0.914461
0.576955
0.246926
-0.071755
-0.186985
-0.296137
-0.234780
-0.131945
-0.070630
0.051175
0.099238
0.025070
0.091803
0.070730
0.050599
0.058444
0.083787
0.086059
0.024122
0.066828
0.055384
0.048803
0.061766
0.106414
0.103421
0.108533
0.125801
0.195565
0.111841
0.166832
0.133541
0.167823
0.234443
0.276875
0.228357
0.215962
0.184432
0.277032
0.277496
0.386093
0.285903
0.325357
0.415345
0.453986
0.387102
0.510134
0.329867
0.512067
0.496090
0.566521
0.547069
0.518441
0.648859
0.637177
0.590812
0.603816
0.545322
0.643116
0.535339
0.485123
0.606715
0.595021
0.516920
0.467198
0.522377
0.452377
0.429406
0.461449
0.448147
0.450705
0.452265
0.457483
0.364575
0.365860
0.332538
0.320184
0.260269
0.288757
0.237772
0.187297
0.162690
0.274935
0.245529
0.232295
0.206666
0.228013
0.222501
0.112408
0.181808
0.154812
0.089613
0.119092
0.095086
0.122175
0.081220
0.069093
0.038225
0.087312
0.068746
0.061191
0.095746
0.030856
0.039829
0.062516
0.068575
0.111656
0.012526
0.036561
0.103215
0.182792
0.144648
0.124644
0.122090
0.129079
0.132344
0.080628
0.116045
0.069278
0.070503
0.070791
0.111778
0.074903
0.050428
0.120128
0.053932
0.099988
0.029616
0.123714
0.171519
0.137098
0.046337
0.037644
0.065129
0.066276
0.173101
0.060570
0.069863
0.095373
0.110847
0.039676
0.096568
0.021881
0.043611
0.128116
0.123999
0.058181
0.106261
0.039072
0.095977
0.072828
0.011440
0.091902
0.054168
0.112365
0.165452
-0.013561
0.061245
0.073044
0.070014
0.032191
0.027112
0.119091
0.100810
0.084649
0.163638
0.115909
0.024746
0.146994
0.129091
0.057325
0.083823
0.104501
0.167502
0.171118
0.181588
0.186064
0.157575
0.159431
0.196650
0.256947
0.157372
0.191610
0.194304
0.207744
0.184750
0.230384
0.208417
0.236728
0.198632
0.284744
0.206871
0.220256
0.272963
0.182793
0.200450
0.236584
0.224396
0.156096
0.177119
0.175944
0.091583
0.120493
0.131463
0.087457
0.126060
0.159109
0.043812
0.052031
0.108397
0.114998
0.133715
0.111732
0.092618
0.047596
0.088095
0.047652
0.092490
0.069679
0.100333
0.054936
0.072895
0.112947
0.032643
-0.021449
0.006804
0.109054
-0.019783
0.075164
0.008132
0.063886
0.112891
0.356779
0.639327
1.017170
1.257398
1.423995
1.353092
1.268944
0.923963
0.551767
0.257948
-0.046402
-0.199904
-0.212182
-0.152724
-0.123131
-0.128342
-0.091957
0.037079
0.009532
0.055274
0.062345
0.062865
0.045660
0.032671
0.050463
0.024409
0.090069
0.049608
-0.003649
0.088562
0.150857
0.046763
0.052047
0.061943
0.117858
0.038665
0.099527
0.143449
0.158730
0.131298
0.172471
0.178049
0.164640
0.258400
0.176783
0.207942
0.362934
0.250408
0.374777
0.298021
0.337549
0.391316
0.449848
0.373541
0.442561
0.493290
0.521276
0.369650
0.447289
0.531793
0.502002
0.539384
0.494188
0.525135
0.582795
0.472211
0.579169
0.528395
0.484615
0.451550
0.447249
0.408842
0.452593
0.504886
0.443665
0.352503
0.392623
0.361356
0.289068
0.221327
0.273051
0.247030
0.289536
0.251650
0.188011
0.247341
0.099358
0.177769
0.178643
0.140036
0.167782
0.190292
0.060538
0.164538
0.059585
0.065675
-0.008774
0.066269
0.010056
0.001264
0.048525
0.006612
0.009328
0.003739
-0.014530
-0.062578
0.042583
0.072076
0.021377
0.033890
0.026344
-0.018201
0.030530
-0.053322
0.021203
-0.079428
-0.039430
-0.035698
-0.013938
-0.052208
0.037127
0.017377
-0.014768
-0.041544
0.039764
-0.006047
-0.063079
-0.038080
-0.017534
-0.036743
0.058674
0.007656
0.002271
-0.041399
-0.101284
-0.045877
-0.015000
-0.054268
-0.004344
-0.058348
0.040990
-0.072056
-0.085627
-0.055199
0.031943
-0.003770
-0.044712
-0.042065
-0.022513
-0.004008
-0.016217
0.026641
-0.012379
-0.092794
-0.031532
-0.127565
-0.005096
-0.003491
0.022142
-0.073748
-0.035988
-0.006506
-0.067075
0.016544
-0.073235
0.010099
-0.075617
-0.045085
-0.079213
-0.018045
0.004566
-0.046334
-0.077105
-0.085365
-0.039180
0.018785
-0.051991
0.015699
0.052495
-0.057322
0.093685
0.074865
0.007576
0.067671
0.028359
0.079525
0.047160
0.096826
0.130156
0.089229
0.103962
0.065168
0.175422
0.051791
0.158613
0.163539
0.121041
0.170608
0.112774
0.210998
0.074569
0.135182
0.100643
0.037271
0.082874
0.167560
0.046050
0.085126
0.054902
0.056239
-0.068216
0.039503
0.006944
-0.006141
-0.003103
0.027190
-0.040857
0.012842
-0.105404
-0.105465
-0.035740
-0.047454
-0.158225
0.024713
-0.014696
-0.011873
-0.070319
-0.030821
-0.058224
-0.062145
-0.000945
-0.004585
-0.057100
-0.125309
-0.049640
-0.096013
-0.073522
-0.006643
0.198553
0.481623
0.783892
1.079157
1.374899
1.278006
1.170270
0.836337
0.451418
0.236279
-0.132331
-0.178023
-0.355784
-0.394267
-0.291852
-0.125836
-0.130514
-0.084178
-0.149148
-0.149029
-0.051017
-0.127036
0.026867
-0.031799
-0.076153
-0.026780
-0.055332
0.012865
-0.011694
0.012093
0.058112
0.009249
0.021389
0.058717
-0.052050
0.038033
0.071680
-0.006830
0.127811
0.014951
0.100071
-0.042042
0.170748
0.191697
0.178121
0.157215
0.231408
0.219000
0.238486
0.260526
0.239330
0.274805
0.388036
0.397714
0.339366
0.360084
0.345667
0.452380
0.520495
0.432848
0.444857
0.495077
0.494370
0.402394
0.546317
0.497787
0.453202
0.459543
0.510112
0.411274
0.500818
0.447323
0.473032
0.368893
0.387131
0.353194
0.359993
0.389698
0.301498
0.239750
0.220484
0.238983
0.181155
0.225033
0.267000
0.140566
0.128183
0.144512
0.146731
0.134491
0.103263
0.080948
0.103390
0.107798
0.042391
0.042142
0.057401
0.031137
0.022378
0.066510
0.020097
0.081388
0.018914
0.071031
0.064172
-0.084365
0.007390
0.048795
-0.005847
-0.034412
-0.080495
-0.052358
-0.023349
-0.072105
-0.023316
-0.060286
0.057510
0.044165
0.036609
-0.031478
-0.036422
0.025465
-0.039713
-0.021760
0.075462
0.027927
-0.104505
-0.050597
-0.029044
-0.036346
0.067112
0.006609
0.016242
0.129131
0.044470
0.001395
-0.035326
-0.004929
0.017749
-0.042380
-0.007479
0.013748
0.013834
0.084922
0.024167
0.098595
0.055637
-0.008087
-0.013892
0.025536
0.039074
-0.012518
-0.019120
0.092331
-0.006001
0.007143
-0.044995
-0.032662
0.027192
0.004217
-0.074954
0.076553
-0.041483
-0.014736
-0.023646
-0.058628
-0.059486
0.070269
-0.010885
0.101425
0.000218
0.051184
0.073014
-0.029167
0.030757
0.007642
0.087738
0.074374
0.081492
0.059759
0.052952
0.050262
0.049514
0.096613
0.158297
0.095997
0.125437
0.175458
0.198260
0.150654
0.227000
0.137847
0.253193
0.216287
0.286998
0.184873
0.200301
0.189810
0.225031
0.292615
0.124402
0.213612
0.126315
0.221211
0.151685
0.136025
0.126032
0.103447
0.146877
0.083259
0.125384
0.039116
0.123665
0.017096
0.083006
0.039989
0.079655
0.073850
0.084311
0.104312
0.094690
0.087536
0.066832
0.067864
0.078112
0.073010
0.075353
0.011001
0.047966
0.057910
0.025348
0.057063
0.041278
0.060806
-0.055320
0.001618
-0.015706
0.066719
0.235568
0.552094
0.932333
1.207462
1.454927
1.471012
1.360865
1.004814
0.742420
0.333031
0.009158
-0.141193
-0.303765
-0.266188
-0.184973
-0.095388
-0.088081
0.014599
0.032249
0.065478
0.022415
0.061715
0.073386
0.106656
0.106129
0.064355
0.047906
0.090820
0.025561
0.045647
0.088875
0.098776
0.105224
0.157220
0.162819
0.159336
0.138885
0.167466
0.224839
0.261618
0.172894
0.228260
0.283643
0.307691
0.285939
0.370520
0.306169
0.289294
0.292378
0.382789
0.383092
0.394052
0.467322
0.496188
0.505930
0.498982
0.459671
0.517791
0.563341
0.541438
0.562736
0.539186
0.565036
0.561069
0.600990
0.664247
0.550241
0.531247
0.563374
0.555237
0.552575
0.481225
0.605346
0.499957
0.511293
0.513613
0.441177
0.498380
0.401704
0.387752
0.402320
0.305458
0.314085
0.342953
0.323555
0.251561
0.202867
0.253923
0.223301
0.295770
0.188935
0.223904
0.185185
0.240135
0.125010
0.102767
0.109122
0.124363
0.159597
0.092500
0.091628
0.112652
0.108911
0.151801
0.123349
0.144645
0.081337
0.182444
0.123988
0.121537
0.063958
0.117582
0.006088
0.073988
0.039802
0.161237
0.027932
0.041000
0.094182
0.062932
0.140989
0.082165
0.084381
0.088562
0.048201
0.089353
0.151713
0.056991
0.100566
0.084209
0.142996
0.088086
0.072522
0.059667
0.079172
0.130586
0.161660
0.122930
0.103378
0.126269
0.041822
0.145001
0.100408
0.075322
0.117450
0.012734
0.134863
0.168378
0.134976
0.144991
0.045231
0.041481
0.062384
0.039288
0.093887
0.113111
0.151739
0.064311
0.115971
0.095043
0.086510
0.065171
0.132905
0.180731
0.080504
0.054304
0.138758
0.116410
0.097625
0.109614
0.051308
0.071845
0.112770
0.090523
0.114338
0.139466
0.127727
0.070662
0.145867
0.149725
0.061046
0.123190
0.149532
0.096486
0.166504
0.173156
0.156414
0.161850
0.223155
0.160437
0.275944
0.227622
0.292192
0.196871
0.255116
0.249493
0.290011
0.281813
0.199329
0.238431
0.207571
0.170987
0.180191
0.304217
0.149164
0.152697
0.138860
0.139376
0.100912
0.151628
0.155163
0.129861
0.125771
0.076709
0.090978
0.094421
0.057725
0.085293
0.060017
0.029990
0.081007
0.115822
0.118965
0.071797
0.099779
0.100896
0.142367
0.059771
0.067718
0.085927
0.106736
0.010571
0.008118
0.055578
-0.007637
0.036163
-0.004540
0.077705
0.278328
0.608557
0.875980
1.223691
1.413852
1.500000
1.242583
1.093153
0.692027
0.388204
0.015460
-0.098836
-0.260288
-0.307090
-0.184613
-0.061357
0.012484
0.071581
0.010569
0.095597
0.093745
0.062539
0.075959
0.077684
0.094390
0.073157
0.096487
0.026502
0.045476
0.060162
0.120335
0.114728
0.063421
0.128582
0.144984
0.031361
0.193398
0.177503
0.123559
0.217221
0.149495
0.132912
0.176219
0.197551
0.171715
0.231802
0.290037
0.315437
0.342052
0.261837
0.409548
0.406558
0.398760
0.355109
0.386056
0.405245
0.547192
0.455490
0.492642
0.514827
0.543772
0.479525
0.571856
0.526176
0.580357
0.520344
0.477453
0.558667
0.560344
0.568322
0.464558
0.433030
0.465536
0.384239
0.445073
0.370814
0.321664
0.421411
0.340043
0.288008
0.322171
0.297133
0.272818
0.189525
0.189510
0.245049
0.213957
0.136981
0.221733
0.252331
0.174390
0.117928
0.088491
0.113457
0.077382
0.010290
0.067490
0.082905
0.047163
0.002391
-0.002924
0.071776
0.080737
0.046202
0.028158
0.022517
-0.050048
0.062208
0.036278
0.018071
0.021034
-0.003044
0.021892
0.022255
-0.086375
-0.006423
-0.035378
0.023978
0.015885
0.079200
0.049012
-0.011650
-0.019961
-0.023264
-0.061915
0.044204
-0.011732
0.021088
0.001196
-0.075981
-0.020928
-0.003517
-0.020836
0.001620
0.015917
-0.021805
-0.026526
-0.018694
0.073983
-0.062019
0.027186
0.015437
0.012068
-0.005843
-0.027267
0.000788
0.041050
-0.048351
-0.066207
-0.060603
-0.066949
0.027433
-0.038760
0.027196
-0.026325
-0.011587
0.018752
0.059616
0.032794
-0.055380
-0.126772
-0.002925
-0.042324
-0.052425
-0.059499
0.088500
-0.002191
-0.010952
-0.113469
0.006534
-0.048748
-0.029887
0.011419
-0.018651
-0.041700
-0.041564
-0.046475
0.026711
0.004302
-0.028726
0.025569
0.021063
0.018511
0.031317
0.031534
0.010427
0.034723
0.049689
0.063044
0.072127
0.052743
0.104355
0.153407
0.147131
0.050639
0.192534
0.125974
0.128175
0.091537
0.160562
0.128636
0.107313
0.016322
0.108134
0.006393
0.053289
-0.016870
0.063674
-0.021237
0.070355
-0.016100
0.036182
-0.035759
0.028934
-0.023316
-0.071057
0.022002
-0.045107
-0.048879
-0.066948
-0.044120
-0.068628
-0.060411
-0.040465
-0.111976
-0.150470
-0.147404
-0.073365
-0.123493
-0.053800
-0.095770
-0.148691
-0.109925
-0.099594
-0.125847
-0.217304
-0.066701
-0.073955
0.080673
0.348600
0.704910
1.107459
1.223682
1.331994
1.199383
0.978656
0.660485
0.288708
-0.032130
-0.242761
-0.363686
-0.344905
-0.296440
-0.151305
-0.239257
-0.176451
-0.057540
-0.115748
-0.078280
-0.098515
-0.112826
-0.000806
-0.018782
-0.052727
-0.041294
-0.040205
-0.082327
-0.040955
-0.048881
-0.120233
0.010675
-0.063424
-0.016676
0.031240
0.015925
0.046389
0.107741
0.040235
0.150269
0.064182
0.141047
0.050282
0.127131
0.198952
0.075760
0.202611
0.243897
0.204769
0.296444
0.310405
0.338648
0.295312
0.376937
0.365771
0.356868
0.345089
0.321162
0.389444
0.382544
0.417052
0.429128
0.453573
0.324112
0.492599
0.399360
0.370817
0.468319
0.350038
0.365095
0.379367
0.384574
0.357875
0.374114
0.410035
0.322273
0.285605
0.230404
0.298673
0.185991
0.244937
0.174145
0.107880
0.141157
0.125806
0.124024
0.133190
0.010053
0.008582
0.104134
0.059543
0.019302
-0.072186
-0.015591
-0.006289
-0.062993
-0.008624
0.031527
-0.046821
-0.011074
-0.056301
-0.116842
-0.051992
-0.015646
-0.076415
-0.123084
0.001853
-0.044465
-0.077779
-0.085982
-0.113404
-0.046712
-0.118065
-0.095045
-0.022059
-0.112689
-0.083001
-0.039377
-0.049728
-0.019642
-0.183016
-0.083194
-0.025272
-0.085272
-0.043799
-0.008642
-0.057608
-0.023702
-0.007955
-0.048295
-0.021290
-0.138991
0.012291
-0.092521
-0.058588
-0.107996
-0.008532
-0.093934
0.009053
-0.081526
-0.118513
-0.063560
-0.075800
-0.071652
-0.009429
-0.067006
-0.028750
-0.070043
-0.076443
0.005328
-0.035190
-0.021137
-0.040928
0.007280
-0.030492
-0.016357
-0.019396
-0.084799
-0.001998
0.004370
-0.115936
-0.122526
-0.117010
0.039950
-0.010259
-0.059406
-0.018010
-0.082859
-0.020460
-0.042771
-0.145713
-0.060231
-0.012211
-0.058492
0.046946
-0.051140
-0.090719
0.014487
-0.101750
0.006461
0.065609
-0.023330
0.057895
0.088800
0.081448
0.009982
0.116056
0.117695
0.071436
0.120346
0.139522
0.148899
0.195479
0.104428
0.134466
0.147666
0.093831
0.131702
0.096867
0.095369
0.159068
0.173846
0.207188
0.075693
0.075962
0.035141
0.064652
0.058207
0.045863
0.064179
0.033609
-0.060593
0.009226
-0.075229
0.016711
-0.005130
-0.013901
-0.066890
-0.011691
-0.005720
0.012584
0.018341
0.017518
0.001081
0.044640
-0.059044
0.039307
-0.074186
0.033702
0.018693
0.006452
-0.097034
-0.089746
0.021959
-0.106346
-0.052198
-0.000051
0.117342
0.471232
0.728069
1.034345
1.260112
1.352220
1.320717
1.054896
0.715601
0.273004
0.026005
-0.143756
-0.338993
-0.395716
-0.220731
-0.165467
-0.077629
-0.033760
0.004715
-0.036371
0.005096
0.084201
-0.018097
-0.025076
0.020758
-0.042125
0.042164
0.007951
0.018166
0.033733
0.081894
-0.000030
0.049073
0.026731
0.020041
0.013582
0.083303
0.089121
0.069271
0.075094
0.117417
0.200753
0.127842
0.209618
0.116156
0.264379
0.221593
0.250617
0.341158
0.291786
0.334047
0.386049
0.454601
0.401543
0.469296
0.405505
0.382244
0.411033
0.474477
0.431250
0.547183
0.476951
0.589997
0.494179
0.538161
0.545235
0.530849
0.526877
0.519364
0.467101
0.451367
0.377223
0.451401
0.401678
0.472607
0.371274
0.333546
0.334664
0.339769
0.327206
0.300814
0.315355
0.322545
0.226687
0.222315
0.187285
0.236676
0.150886
0.163799
0.129852
0.144135
0.038265
0.110980
0.160299
0.119970
0.123771
0.147495
0.044716
-0.006235
0.089806
0.038418
0.012503
0.010272
0.103621
0.112093
0.001476
-0.006427
0.073778
0.010668
0.013682
0.029646
0.053587
0.065484
0.089209
0.058948
0.093995
0.034157
0.050442
0.007178
0.040198
0.138603
0.023257
0.096429
-0.017161
0.048445
0.000266
0.043632
0.025692
0.036179
0.085693
-0.005431
-0.000318
0.097791
-0.047264
0.092402
0.032049
-0.011280
0.004999
0.049556
0.042994
0.014420
-0.011849
0.056546
0.110865
0.077418
0.024709
0.082852
0.013946
0.065585
0.092413
0.078301
0.044015
0.044353
0.039142
0.028759
-0.000154
0.049466
-0.009171
0.026163
0.111462
-0.000426
-0.003960
0.107255
0.046585
0.005194
0.038607
0.066122
0.033968
0.019939
0.025914
0.061717
0.041208
0.026243
0.081844
0.050164
0.063594
0.111003
0.008282
0.122084
0.128633
0.226823
0.173747
0.147642
0.194106
0.134665
0.132971
0.221105
0.126283
0.140406
0.232559
0.222663
0.210335
0.226018
0.255566
0.219992
0.221856
0.207621
0.241482
0.163334
0.216686
0.166499
0.218637
0.189532
0.176918
0.139834
0.183421
0.128963
0.021082
0.131403
0.124129
0.119900
0.062241
0.066768
0.066389
0.113490
0.104716
-0.009170
0.020557
0.106158
0.096507
0.025954
-0.048492
0.064274
0.040205
0.043520
0.016406
0.016651
0.046245
0.043486
0.020941
0.086172
0.004898
-0.011537
-0.020738
-0.003172
-0.016588
-0.018415
0.142920
0.209317
0.449985
0.717522
1.089601
1.358595
1.441380
1.405170
1.079438
0.740383
0.406173
0.064075
-0.074045
-0.293166
-0.155235
-0.245601
-0.187294
-0.066771
0.031683
0.028473
-0.034445
0.017158
0.020434
0.037575
0.094096
0.004954
0.056374
0.053325
0.071535
0.083064
0.103000
0.010078
0.150021
0.066050
0.108516
0.086674
0.033214
0.045972
0.133116
0.079170
0.167670
0.157196
0.147960
0.128289
0.181999
0.261897
0.280425
0.169696
0.324819
0.251631
0.292304
0.343714
0.416844
0.435719
0.472949
0.361734
0.377944
0.444394
0.447985
0.510997
0.495664
0.541758
0.531294
0.447836
0.501190
0.498605
0.510179
0.521210
0.559774
0.551000
0.483139
0.465953
0.467123
0.501207
0.433018
0.456776
0.353625
0.417386
0.322721
0.331710
0.265940
0.302145
0.253560
0.235311
0.227954
0.138085
0.196959
0.201101
0.190381
0.209308
0.143816
0.196426
0.013962
0.006030
0.036095
0.086078
0.057604
0.033641
0.025872
-0.033919
-0.024692
-0.006234
-0.001989
0.009335
0.068150
0.003300
0.024069
-0.025250
-0.041461
0.043985
0.012999
0.009377
0.091764
-0.047737
-0.010492
-0.054427
0.016160
-0.036335
0.018676
-0.078048
-0.068641
-0.035565
-0.042458
-0.000588
-0.047194
-0.004390
-0.003688
0.029169
-0.066818
0.036565
-0.006629
-0.087756
-0.093901
-0.025772
-0.059756
-0.029615
-0.019303
-0.022328
0.001872
-0.094409
-0.034844
-0.017703
-0.031315
-0.073833
-0.117449
0.042821
-0.131246
-0.058807
-0.011959
-0.077482
-0.064094
-0.029487
0.002842
-0.048506
0.041191
-0.082047
-0.095952
0.011783
0.023945
-0.134188
-0.112114
-0.083576
-0.089916
-0.089701
0.038224
-0.112963
-0.067551
-0.018311
-0.118139
-0.040402
-0.096407
-0.000521
0.043062
-0.038390
0.014263
-0.075451
-0.022610
0.075153
0.041969
-0.030785
-0.082175
0.004320
-0.003170
0.005779
0.065352
0.075408
-0.030557
0.120556
0.013551
0.099541
0.040342
0.106810
0.098897
0.139425
0.064466
0.109002
0.068262
0.169497
0.093835
0.148823
0.025312
0.094615
0.080023
0.063257
0.095581
0.063183
-0.006393
0.054663
0.060540
0.089691
-0.010538
-0.040576
0.009327
0.054865
0.037452
0.024810
-0.015868
-0.027258
-0.065207
-0.043591
-0.057516
-0.029602
-0.150943
-0.081666
-0.115560
-0.117421
-0.080972
-0.135277
-0.107840
-0.142444
-0.133834
-0.050277
-0.153503
-0.095446
-0.066328
-0.095469
-0.174813
-0.198716
-0.075002
0.026685
0.343569
0.675377
0.981393
1.252340
1.360700
1.219326
0.979540
0.750911
0.292127
0.061832
-0.251515
-0.386717
-0.421115
-0.441494
-0.262144
-0.202329
-0.065812
-0.088231
-0.087811
-0.178457
-0.064879
-0.054310
0.012180
-0.108666
-0.133021
-0.035071
-0.082155
-0.033285
-0.065039
-0.021162
-0.044320
0.043231
-0.051624
-0.097999
-0.039910
-0.016827
0.055333
-0.015654
-0.012952
0.026110
0.057427
-0.018517
0.075475
0.092466
0.143748
0.112933
0.160510
0.218602
0.186188
0.206910
0.232464
0.240778
0.288719
0.286907
0.339861
0.324965
0.314260
0.413779
0.481892
0.407630
0.496269
0.405796
0.310541
0.414012
0.331165
0.437936
0.315631
0.352621
0.444200
0.396728
0.345913
0.359733
0.296714
0.278486
0.284624
0.295561
0.204806
0.219833
0.203527
0.206306
0.138945
0.069087
0.076252
0.211625
0.159644
0.202936
0.075752
0.042798
-0.001914
0.021676
0.063579
0.060603
0.054654
-0.063432
-0.034698
-0.088794
-0.094177
-0.056665
-0.024917
-0.057444
-0.059321
-0.072136
-0.089682
-0.052905
-0.080730
-0.149075
-0.023052
0.017225
-0.102527
-0.008899
-0.119196
-0.149415
-0.070105
-0.088556
-0.094173
-0.076883
0.017505
-0.094339
-0.074414
-0.095249
-0.097904
-0.025192
-0.128885
-0.072312
-0.137688
-0.028609
-0.046139
-0.052187
-0.094505
-0.110405
-0.137036
-0.058217
-0.157173
-0.134179
-0.086356
-0.082319
-0.105951
-0.102001
-0.109545
-0.150820
-0.091428
-0.148529
-0.152195
-0.130326
-0.089255
-0.073301
-0.058064
-0.150903
-0.140300
-0.033118
-0.044405
-0.037882
-0.086831
-0.096050
0.014793
-0.119713
-0.068132
-0.127278
-0.082507
-0.042832
-0.102077
-0.030516
-0.026926
-0.043219
-0.063200
-0.110297
-0.157735
-0.061455
-0.114652
-0.146883
-0.064547
0.015421
-0.076818
0.017960
-0.018770
-0.140953
-0.059869
-0.043778
-0.023748
0.004824
0.038386
0.007563
-0.033376
0.023305
0.037283
-0.126755
0.105670
0.055854
0.070352
0.059215
0.118356
0.098575
0.037793
0.071762
0.105390
0.080571
0.106961
0.082335
0.136839
0.097614
0.103644
0.078216
0.055388
0.035724
0.054811
-0.049942
-0.016008
0.009495
0.014209
-0.057102
-0.018958
0.050317
0.022652
-0.048081
0.023945
-0.074298
-0.068636
-0.066180
-0.104111
0.012232
-0.039246
0.066220
-0.024740
-0.120633
-0.033848
-0.082397
-0.003559
-0.042420
-0.092656
-0.014192
-0.056752
-0.060597
-0.091706
-0.091086
-0.172914
-0.065450
-0.039371
0.039496
0.332839
0.604921
0.947822
1.168539
1.352706
1.287556
1.011119
0.763186
0.445709
0.091422
-0.161254
-0.180569
-0.267317
-0.259362
-0.189040
-0.098149
-0.064990
-0.106850
-0.030290
-0.095370
-0.011291
-0.031119
0.054371
0.075863
0.029842
-0.065764
0.008290
-0.012077
-0.040697
0.001644
0.078025
0.011026
0.042037
0.098954
0.030818
0.045406
0.129609
0.096748
0.099286
0.091043
0.148418
0.123809
0.182530
0.154883
0.151273
0.184469
0.180679
0.297556
0.301384
0.328994
0.231982
0.368480
0.427220
0.330182
0.375337
0.393423
0.396808
0.471346
0.439501
0.452449
0.475374
0.458409
0.449060
0.570780
0.537247
0.488134
0.511179
0.496379
0.462221
0.485179
0.453008
0.486895
0.456619
0.412173
0.402998
0.422376
0.355618
0.451976
0.339796
0.263272
0.271875
0.236435
0.241427
0.267047
0.219009
0.199014
0.094019
0.113615
0.157335
0.106431
0.082751
0.150171
0.050519
0.112800
0.132255
0.096995
0.023800
0.086977
0.014889
0.037416
0.060164
0.057604
-0.035820
0.042101
0.028010
0.011859
0.001238
-0.063605
-0.002153
0.058002
0.028107
0.032182
0.036182
0.076057
0.000314
0.030015
0.113202
0.048378
0.083184
0.085405
0.014165
0.007941
0.014618
0.060727
0.034417
0.071366
-0.019892
0.066670
0.039437
0.140581
-0.038171
0.065548
0.074234
0.088996
0.083313
0.010419
0.061872
0.058964
0.010158
0.081589
0.098380
-0.046650
-0.019514
0.107561
0.027327
-0.043888
0.048038
0.078600
0.037425
-0.003041
0.121130
0.119291
-0.038118
0.042408
0.019299
0.115752
0.008657
0.090393
-0.007376
0.117384
0.045656
-0.000576
0.068924
0.103433
0.072664
0.000831
-0.005068
0.017313
-0.016607
0.034460
0.015772
0.109387
0.044891
0.092544
0.022036
0.056681
0.150683
0.151281
0.157375
0.156982
0.086517
0.186617
0.119489
0.204517
0.137408
0.184447
0.195645
0.179884
0.281427
0.202568
0.233231
0.237313
0.236302
0.179927
0.189458
0.142804
0.236727
0.192160
0.158257
0.200755
0.163704
0.195823
0.185711
0.129034
0.164610
0.188844
0.080773
0.140652
0.111293
0.128427
0.009139
0.104858
0.077240
0.094882
0.076531
0.135527
0.150834
0.057793
0.072851
0.019207
0.071100
0.039151
0.012290
0.134703
0.024955
0.079828
0.078584
0.090718
0.050123
0.002924
0.081041
0.063733
0.072846
0.029324
-0.013365
0.081537
0.116404
0.176519
0.432705
0.669606
1.008750
1.326270
1.424919
1.441768
1.126249
0.868972
0.535116
0.287319
0.008103
-0.131536
-0.235471
-0.149713
-0.015829
-0.071954
-0.019684
0.026758
0.032192
0.080989
0.032042
0.123529
0.008578
0.189290
0.170210
0.058513
0.024605
0.107231
