-0.043352
0.042750
-0.068172
0.007654
-0.000004
0.036036
0.026926
0.001728
0.023534
-0.025137
-0.006864
-0.047175
-0.021957
-0.015442
-0.003849
-0.027923
-0.016819
-0.028778
0.060488
0.097897
0.071879
0.065968
0.069970
0.029637
0.129057
0.079000
0.053994
0.121614
0.141998
0.067500
0.082943
0.088600
0.158837
0.215458
0.163702
0.193688
0.184048
0.193420
0.146073
0.206047
0.078378
0.129740
0.157195
0.120133
0.098898
0.177276
0.216691
0.252327
0.180320
0.094467
0.168870
0.117731
0.117717
0.224866
0.068968
0.140746
0.079632
0.075157
0.096307
0.090767
0.048549
0.073773
0.008386
0.082849
0.031589
0.014776
0.035407
0.000763
-0.004128
0.106004
0.014356
0.024925
0.100037
0.200299
0.453745
0.802534
1.045442
1.266024
1.416507
1.274601
1.061283
0.690569
0.289757
0.061338
-0.126943
-0.158539
-0.182880
-0.081859
-0.048784
0.050287
0.144803
0.103671
0.162402
0.072342
0.059996
0.060590
0.097779
0.038871
0.059801
0.149856
0.191335
0.197116
0.187661
0.223181
0.130196
0.284864
0.337293
0.299999
0.308953
0.322008
0.254452
0.370348
0.375916
0.369512
0.409660
0.448927
0.497300
0.390649
0.560889
0.502878
0.533329
0.562406
0.606531
0.504164
0.626051
0.460563
0.617036
0.622651
0.670697
0.613039
0.574067
0.503388
0.625383
0.495300
0.536207
0.501454
0.472673
0.486798
0.482262
0.446056
0.476824
0.496187
0.365459
0.369696
0.285981
0.286682
0.304209
0.288465
0.240383
0.267330
0.223133
0.247601
0.213764
0.097350
0.173521
0.134622
0.158074
0.178282
0.123541
0.147231
0.106893
0.125474
0.174674
0.035597
0.139676
0.116952
0.132142
0.047615
0.054207
0.005254
0.141559
0.124896
0.126119
0.084480
0.099335
0.127847
0.101379
0.057350
0.056629
0.060254
0.085707
0.134592
0.080121
0.076444
0.026986
0.070915
0.062007
0.100516
0.081200
0.029745
0.016574
0.087627
0.091920
0.054635
0.157104
0.153903
0.057767
0.044286
0.012147
-0.017475
0.197243
0.064808
0.129794
0.038055
0.121186
0.068174
0.134501
0.025525
0.100829
0.072714
0.118794
0.120538
0.007561
0.099215
0.150560
0.101506
0.129943
0.097334
0.159325
0.272520
0.178752
0.193081
0.271740
0.190599
0.169374
0.202599
0.187371
0.303814
0.300685
0.201740
0.276355
0.227617
0.224446
0.284964
0.294546
0.280496
0.259927
0.248081
0.256908
0.257920
0.185069
0.229660
0.159822
0.237987
0.290600
0.172274
0.114415
0.193703
0.159061
0.181584
0.162962
0.207409
0.123539
0.147027
0.122864
0.145615
0.027658
0.092485
0.054546
0.090996
0.067109
0.084837
0.048794
0.092377
0.067103
0.062906
0.169237
0.107670
0.359997
0.480803
0.804802
1.179295
1.412331
1.465264
1.306642
1.017609
0.727056
0.323753
0.148434
-0.151317
-0.135908
-0.104797
-0.034642
-0.056060
0.036274
0.090919
0.057206
0.110764
0.086898
0.136521
0.091198
0.203546
0.116150
0.165064
0.130929
0.174127
0.258553
0.198343
0.168402
0.218159
0.267062
0.244342
0.311670
0.282537
0.393605
0.400463
0.389012
0.442201
0.359020
0.400455
0.396380
0.450833
0.430533
0.454167
0.523151
0.541796
0.501577
0.558347
0.564450
0.603162
0.580910
0.600724
0.533355
0.543605
0.421517
0.556914
0.599518
0.550661
0.546046
0.496888
0.502263
0.478773
0.318655
0.447640
0.408217
0.408513
0.360741
0.382235
0.279487
0.339372
0.270119
0.249983
0.261759
0.232920
0.207091
0.184500
0.198839
0.169535
0.178525
0.100309
0.047507
0.187203
0.114848
0.173999
0.142252
0.107651
0.016556
0.050175
0.030782
0.111662
0.023101
0.044113
0.086774
0.005992
0.007013
0.078019
0.028516
0.038299
0.048117
-0.008746
0.024376
0.016109
0.023314
0.070091
0.051573
-0.031813
-0.008528
-0.035372
0.024285
0.080081
0.020818
0.062379
0.062775
0.049864
0.035634
-0.046141
-0.037245
0.038033
0.015440
0.072488
0.096870
0.014656
-0.062177
-0.043289
-0.029625
-0.030345
-0.042692
0.034233
0.009249
-0.013049
-0.005811
0.035026
-0.059081
0.085616
-0.024870
-0.046306
-0.012669
-0.041416
0.017520
0.065202
0.073817
0.005972
0.079413
0.100681
0.064288
0.034379
0.182499
0.073876
0.080631
0.112424
0.125215
0.097231
0.137005
0.059672
0.113385
0.151906
0.161394
0.203358
0.211067
0.172020
0.169325
0.101339
0.193258
0.139997
0.129908
0.131987
0.144526
0.085033
0.132383
0.109838
0.207865
0.069400
0.013637
0.066790
0.016959
-0.085814
0.093849
-0.013245
0.055803
0.000277
-0.007789
0.020191
-0.085562
0.004511
0.071338
-0.068384
0.029257
-0.030904
-0.010883
-0.059584
-0.045041
-0.000151
0.069303
0.222410
0.477171
0.866681
1.086507
1.269886
1.266056
1.147482
0.813105
0.507350
0.155164
-0.059457
-0.134004
-0.243592
-0.238875
-0.208568
-0.024441
-0.039038
0.078804
-0.019835
0.020364
0.025609
-0.012468
0.036753
0.086739
0.027799
0.038209
0.056356
0.059544
0.145940
0.089357
0.080406
0.129023
0.195217
0.100448
0.271383
0.109836
0.248660
0.215405
0.259517
0.247357
0.278643
0.222421
0.360235
0.423387
0.377813
0.372912
0.447142
0.466700
0.441586
0.462161
0.510697
0.534605
0.492882
0.551266
0.518315
0.426396
0.399307
0.452371
0.450309
0.453442
0.420696
0.397965
0.441000
0.412440
0.383919
0.329379
0.321569
0.281510
0.325934
0.255341
0.228112
0.241735
0.186172
0.188736
0.218981
0.037531
0.056557
0.085129
0.127094
0.136712
0.032009
0.091008
-0.013107
0.056602
0.009411
0.041416
0.039687
0.011815
-0.072258
-0.030466
-0.030803
0.020202
-0.103192
-0.130010
-0.016020
-0.044427
0.019215
0.016900
-0.068031
-0.072628
-0.031336
-0.030193
0.009784
-0.088103
-0.027630
-0.108026
-0.083560
-0.039275
0.020726
-0.001948
-0.037085
-0.018677
0.007357
0.018573
-0.035975
-0.078861
-0.036273
-0.066291
-0.023325
-0.095657
-0.080008
-0.042687
-0.032565
-0.056170
-0.065295
-0.012356
-0.050732
-0.009904
-0.030114
-0.012417
-0.073492
-0.038107
-0.050948
-0.125098
-0.053782
0.025413
-0.073174
-0.042079
-0.051049
0.083297
0.056313
-0.031852
-0.001051
0.025906
0.037380
0.011472
0.098647
-0.013150
0.048718
0.042650
0.034116
0.112617
0.045660
0.098098
0.094883
0.170715
0.109202
0.206505
0.090140
0.084521
0.082684
0.163270
0.200893
0.128218
0.044856
0.081600
0.095341
0.103458
0.096897
0.013499
0.115978
-0.000037
0.031401
0.038023
-0.021520
0.106974
0.067765
-0.047729
-0.040528
-0.013338
0.071670
-0.007424
0.040566
-0.024626
-0.006137
0.018977
-0.048877
0.055966
-0.023071
-0.034622
-0.056239
0.007230
-0.041070
-0.057099
0.132904
0.256096
0.570183
0.842703
1.078848
1.329402
1.379163
1.171062
0.768675
0.433979
0.072026
-0.035047
-0.186800
-0.175636
-0.202229
-0.201853
-0.031461
-0.019676
-0.017597
0.114864
-0.048626
0.002237
0.005315
0.100698
0.039126
0.052095
0.025617
0.019216
0.117332
0.126963
0.093166
0.090254
0.158921
0.116261
0.206847
0.226092
0.212148
0.240317
0.362103
0.231084
0.360328
0.387045
0.439254
0.370338
0.393330
0.400293
0.404896
0.459344
0.531798
0.406622
0.536550
0.458221
0.527919
0.514922
0.496187
0.561566
0.543599
0.560017
0.489096
0.497455
0.412318
0.392087
0.355155
0.423405
0.405862
0.454105
0.328520
0.429066
0.379446
0.330426
0.326423
0.235485
0.288469
0.222991
0.205393
0.138319
0.167836
0.186010
0.210277
0.136585
0.192626
0.178089
0.146343
0.152432
0.096724
0.126809
0.136422
0.069234
0.058892
0.027697
0.000697
0.072353
0.017707
0.068715
0.013743
0.033616
0.067130
0.074585
0.024607
0.059678
-0.055706
0.033822
0.115833
-0.067200
0.040178
0.039633
0.032473
-0.000951
0.039227
-0.002098
0.048408
0.014998
-0.052995
0.036539
0.052360
0.041744
-0.014104
0.004859
0.070114
-0.011123
-0.021749
0.059881
-0.018921
0.021873
0.069419
0.041511
0.060260
0.068127
0.075697
-0.020276
-0.021543
-0.010032
0.001317
-0.034327
0.104950
0.113717
0.071263
0.062860
0.002677
0.082311
-0.002703
-0.001340
0.078992
0.088626
0.194201
0.121544
0.095477
0.151144
0.131480
0.145215
0.092406
0.093898
0.264861
0.117436
0.210828
0.167135
0.220552
0.266649
0.324355
0.293498
0.280420
0.220796
0.197629
0.239424
0.194832
0.254738
0.151781
0.249691
0.265253
0.161364
0.133030
0.223016
0.236276
0.098588
0.148555
0.122722
0.139836
0.105567
0.096467
0.099855
0.232910
0.135068
0.076099
0.113487
0.077037
0.167011
0.119289
0.055325
-0.019142
0.020050
0.114077
0.039918
0.057016
0.103602
0.123290
0.209813
0.416143
0.690145
0.998970
1.246330
1.500000
1.451711
1.187486
0.836015
0.561624
0.146958
-0.048112
-0.108739
-0.149440
-0.074339
0.002937
0.067689
0.071227
0.120858
0.039793
0.114594
0.132354
0.219462
0.136869
0.134840
0.192961
0.180350
0.236292
0.235914
0.158679
0.183610
0.202377
0.316907
0.254758
0.350290
0.344479
0.324898
0.367082
0.363250
0.416413
0.447622
0.472448
0.391276
0.518214
0.492333
0.550871
0.549386
0.523744
0.555269
0.609523
0.613011
0.575425
0.513254
0.611860
0.579749
0.626852
0.713175
0.525440
0.592563
0.532526
0.453280
0.579321
0.475776
0.595543
0.478568
0.436591
0.475889
0.341342
0.442015
0.407754
0.325648
0.335983
0.327580
0.314622
0.289150
0.253635
0.321686
0.199766
0.217041
0.218926
0.185418
0.163295
0.169862
0.105537
0.176175
0.239389
0.085625
0.136067
0.094857
0.090456
0.086804
0.013749
0.085862
0.119577
0.121781
0.137748
0.080933
0.085205
0.101539
0.048274
0.130387
0.034789
0.165447
0.016385
0.120660
0.114828
0.080825
0.113966
0.027396
-0.011644
0.100303
0.095689
0.080271
0.030149
0.051707
0.112650
0.029541
0.108674
0.084507
0.115545
0.155099
0.170774
0.108330
0.168726
0.062342
0.027181
0.062606
0.087533
0.107237
0.053236
0.092315
0.089518
0.160771
0.168993
0.045238
0.107626
0.140154
0.095238
0.079144
0.144870
0.115292
0.149174
0.086838
0.129169
0.143525
0.014334
0.068916
0.199679
0.112680
0.153896
0.263481
0.181885
0.206028
0.181604
0.232227
0.213481
0.284360
0.299907
0.191860
0.180132
0.193025
0.208259
0.231681
0.254615
0.226640
0.188553
0.263842
0.252865
0.194837
0.202763
0.233468
0.134722
0.078609
0.155895
0.181803
0.117759
0.117418
0.115841
0.188340
0.166139
0.138103
0.130083
0.144852
0.058028
0.067575
0.018050
0.077607
0.131507
0.093761
0.048301
0.117402
0.006852
0.065851
0.020489
0.161157
0.261109
0.423737
0.709972
1.053339
1.336129
1.467257
1.399850
1.104012
0.651423
0.385636
0.027452
-0.079846
-0.188502
-0.076792
-0.083794
0.047436
-0.006473
0.057110
0.019678
0.077376
0.091336
0.062466
0.192767
0.094981
0.189291
0.113445
0.187782
0.122266
0.105722
0.174275
0.197707
0.146339
0.248252
0.270186
0.238942
0.321049
0.257623
0.400075
0.352581
0.347417
0.439424
0.486091
0.420777
0.388720
0.436685
0.565226
0.474360
0.453949
0.510332
0.600158
0.603456
0.536187
0.494051
0.560925
0.510959
0.548739
0.487195
0.484759
0.530034
0.517309
0.474673
0.435562
0.465469
0.363308
0.394589
0.434276
0.416589
0.338940
0.366475
0.342855
0.248515
0.191092
0.256881
0.225495
0.205459
0.271922
0.119949
0.144964
0.132994
0.099876
0.219906
0.075119
0.170360
0.101769
0.134142
0.041245
0.082756
0.086647
0.034465
-0.048472
0.014290
-0.028417
0.001098
0.013025
-0.035290
0.070800
-0.004449
-0.019768
0.045053
-0.033746
0.021285
0.011225
0.046711
0.089087
0.005348
0.051259
0.014258
0.052523
0.038912
-0.036503
0.033685
0.015406
-0.092014
-0.035989
0.089927
-0.018122
0.013072
-0.026561
-0.006423
0.052922
-0.008689
-0.003083
0.004670
-0.038138
-0.089760
0.048189
-0.076101
0.075340
-0.073354
0.092707
-0.074919
-0.028754
-0.019225
-0.000001
-0.044327
0.011497
-0.054105
-0.051136
-0.027503
-0.062085
0.027762
-0.015311
-0.008565
0.017042
-0.009173
0.006155
-0.009822
0.011363
0.085582
0.080142
0.039178
0.037726
0.028014
0.110857
0.042525
0.102743
0.135997
0.132696
0.137080
0.098217
0.167453
0.112999
0.184513
0.195948
0.077707
0.086212
0.139409
0.169273
0.100839
0.073703
0.156962
0.013096
-0.002220
-0.031082
0.019312
0.067094
0.002120
0.003040
-0.043638
-0.009313
0.019856
-0.029705
-0.028843
-0.030573
0.004824
-0.083377
-0.098615
-0.055728
-0.135545
-0.001836
-0.007535
-0.001782
-0.065607
-0.041970
0.041967
0.218124
0.380825
0.623446
1.042732
1.246947
1.279595
1.199401
0.915641
0.522999
0.234059
-0.098161
-0.314224
-0.193604
-0.245742
-0.220853
-0.194470
-0.122950
0.016529
-0.048892
-0.070671
-0.060549
0.010811
-0.104721
-0.067475
-0.090900
-0.024117
0.076089
0.024146
0.020810
0.093556
0.121789
0.076989
0.100012
0.127489
0.151865
0.269302
0.246213
0.256625
0.212333
0.185522
0.263946
0.401377
0.293654
0.273471
0.351066
0.344675
0.413563
0.386441
0.391804
0.382192
0.527259
0.441397
0.388130
0.378622
0.435548
0.449795
0.404361
0.352624
0.281821
0.365988
0.438158
0.346383
0.363599
0.274542
0.365167
0.243196
0.265457
0.235484
0.272034
0.197516
0.222992
0.137637
0.102247
0.115626
0.152788
0.163265
0.087955
0.057915
0.037776
0.004586
0.049525
0.006919
0.025982
-0.090143
-0.081684
-0.026124
-0.010246
0.026985
0.041474
-0.056772
-0.110173
0.005083
-0.062732
-0.089186
-0.018943
-0.051169
-0.128951
0.000261
-0.117364
-0.040768
-0.150894
-0.032440
-0.079449
-0.091923
-0.010293
-0.052039
-0.051043
-0.075720
-0.097897
-0.188421
-0.043856
-0.020644
-0.029816
-0.071983
-0.048225
-0.078874
-0.041943
-0.058888
-0.112887
-0.097562
-0.038268
-0.175818
-0.070486
-0.044377
-0.071996
-0.021502
-0.038866
-0.106049
-0.082878
-0.097714
-0.065656
-0.045231
-0.022849
0.013996
-0.089108
-0.027333
-0.049162
-0.056327
-0.084107
-0.057615
-0.095123
-0.021076
-0.079137
-0.103224
-0.028882
-0.071660
0.012085
-0.087184
-0.015126
0.026398
0.083353
0.079551
0.060271
0.036970
0.008120
0.064681
0.091624
0.074625
0.019853
0.157702
0.168862
0.171429
0.060889
0.090926
0.182070
0.015828
0.055542
0.000347
-0.005856
0.077628
0.058053
0.032930
0.034034
0.022325
0.046086
0.032094
-0.056301
-0.007849
-0.058826
0.018655
0.026943
-0.080353
-0.043054
-0.006092
-0.066033
-0.104615
-0.015797
-0.043832
-0.115867
-0.132275
-0.040002
-0.159429
-0.070728
-0.092623
0.032292
0.262322
0.400896
0.743282
1.094895
1.217276
1.253952
1.074554
0.934249
0.497907
0.143254
-0.146867
-0.286527
-0.243913
-0.251860
-0.081467
-0.081670
-0.024196
-0.084625
-0.000959
0.015156
0.044338
0.018608
0.050461
-0.022360
-0.022596
0.039013
-0.042445
0.070661
0.102116
0.090105
0.000901
0.156262
0.090615
0.082158
0.143819
0.280594
0.209482
0.220142
0.256184
0.313727
0.363548
0.321720
0.376934
0.377818
0.340449
0.467082
0.376538
0.468486
0.439948
0.435052
0.502650
0.449579
0.461274
0.501531
0.560312
0.455460
0.369122
0.473889
0.497119
0.483249
0.411597
0.419695
0.347134
0.409435
0.336615
0.308181
0.329234
0.334062
0.290706
0.292346
0.226922
0.159730
0.214429
0.210319
0.211004
0.210118
0.130517
0.149147
0.102914
0.126101
0.062960
0.095767
0.055649
0.044051
0.079202
0.005664
0.087669
0.009418
0.077012
-0.039022
-0.004455
0.058396
0.038066
0.101259
0.021018
0.044786
-0.007550
-0.007042
-0.056695
0.104324
0.003877
0.035045
0.014845
0.056219
-0.015708
-0.021207
0.026905
0.018691
-0.030326
0.032153
0.003749
-0.006594
-0.068999
0.005231
0.035750
-0.077863
-0.059753
-0.000775
0.031082
-0.028943
-0.042505
-0.035125
0.011693
0.034536
0.020131
0.064379
0.027992
-0.010554
0.010205
0.061064
-0.001456
0.006856
-0.022044
-0.008358
0.057651
-0.017351
-0.025308
0.085672
0.035055
0.071352
-0.005247
0.017428
0.061025
0.025977
0.061449
0.096250
0.097505
0.055587
0.072599
0.052550
0.192917
0.135818
0.231515
0.210729
0.180477
0.239589
0.218254
0.179936
0.218542
0.163178
0.158450
0.198534
0.147408
0.152951
0.168357
0.086306
0.203647
0.233602
0.129794
0.145478
0.209432
0.047879
0.035836
0.014010
0.152510
0.080982
0.055408
0.051116
0.121450
0.033634
0.128052
0.105335
0.055804
-0.003065
0.040145
0.019665
0.060058
-0.036532
0.030950
0.030418
0.026966
-0.014652
0.045911
0.121920
0.160968
0.300772
0.618293
0.925859
1.275561
1.412722
1.337764
1.146917
0.843281
0.469445
0.143824
-0.134386
-0.129862
-0.145846
-0.100831
-0.027652
-0.002410
0.014541
0.081602
0.013587
0.076703
0.062352
0.076770
0.098089
0.054441
0.119366
0.130629
0.159136
0.197279
0.193494
0.193966
0.204976
0.302140
0.304604
0.278240
0.282046
0.237122
0.216968
0.326415
0.377450
0.313555
0.423401
0.372876
0.443104
0.418681
0.442788
0.449173
0.472291
0.576230
0.494549
0.557422
0.532755
0.504910
0.537795
0.532485
0.595980
0.494450
0.490408
0.506942
0.492007
0.493609
0.491229
0.459986
0.487380
0.454085
0.395490
0.379441
0.373658
0.296021
0.387613
0.417057
0.335036
0.340854
0.260911
0.315591
0.183734
0.256177
0.259047
0.164326
0.191484
0.184234
0.202953
0.157486
0.115024
0.147538
0.057867
0.099800
0.046514
0.063302
0.031318
-0.036606
0.029647
-0.013724
0.061199
0.071161
0.081675
0.035413
0.024784
0.081445
0.042847
0.022240
0.047008
0.032962
-0.066850
0.026048
0.064582
0.075982
0.103750
0.034063
0.053323
0.013328
0.021331
-0.000612
-0.041395
0.090428
-0.006264
0.021489
0.008065
0.047983
0.064475
0.048059
0.015383
-0.023523
0.052489
-0.033192
0.108412
0.066179
0.091470
0.036458
0.095136
0.043243
0.090042
0.045036
0.036092
0.015334
0.007445
0.068283
0.086367
0.053128
0.047538
0.020685
0.072857
0.076125
0.008295
0.018374
0.059818
0.130691
0.034310
0.135892
0.077794
0.032392
0.157521
0.135832
0.082550
0.158689
0.129333
0.192210
0.128398
0.199047
0.124050
0.135558
0.184081
0.201508
0.224761
0.219861
0.194857
0.270872
0.193202
0.192037
0.229587
0.156190
0.159598
0.100774
0.161589
0.077905
0.056931
0.119058
0.051917
0.014721
0.054041
-0.038424
0.105869
0.081055
0.055101
0.136201
0.054176
0.031788
0.029741
-0.024771
0.042248
0.063956
-0.029628
0.017208
-0.044972
0.088013
0.179630
0.287549
0.616272
0.938925
1.286889
1.357585
1.341694
1.117993
0.713629
0.337056
0.110747
-0.155283
-0.208036
-0.248877
-0.102249
-0.087091
-0.008742
-0.001285
0.027011
0.035053
0.061000
0.095176
0.035518
-0.010315
0.053292
0.054693
0.045681
0.065357
0.162487
0.152012
0.074471
0.172629
0.182718
0.200427
0.162368
0.195620
0.185976
0.266790
0.294260
0.263228
0.352636
0.268867
0.332815
0.361109
0.357034
0.397960
0.381417
0.465994
0.430473
0.445371
0.564095
0.510820
0.439430
0.495171
0.565530
0.435316
0.465012
0.453355
0.469734
0.433829
0.424485
0.448857
0.400633
0.393873
0.392591
0.313393
0.360746
0.362421
0.263057
0.322570
0.221941
0.265485
0.211269
0.176456
0.196842
0.197167
0.233214
0.114600
0.063218
0.042455
0.132053
0.015227
0.056620
0.044686
0.050789
0.073176
-0.012790
0.014740
0.016203
0.016846
0.060257
0.014586
0.039440
0.008831
0.013001
-0.125861
0.016258
0.004119
0.017145
-0.085861
-0.084818
-0.084116
-0.053481
-0.041601
-0.056665
-0.115549
-0.111007
-0.079262
-0.064426
-0.018332
-0.034410
-0.054022
-0.023494
-0.007528
-0.042542
-0.078588
-0.114368
-0.080624
-0.085779
-0.030572
-0.074745
0.017975
-0.064516
-0.046790
-0.098349
-0.022883
-0.076563
-0.028451
-0.054913
-0.031561
-0.090363
-0.078417
-0.015750
-0.085221
-0.141071
-0.105393
-0.081059
-0.014198
0.014186
-0.099045
-0.041924
-0.030006
-0.013951
0.006422
0.035985
0.048950
-0.073611
0.053041
0.060097
-0.028478
-0.014971
0.040583
0.083178
0.070480
0.050665
0.046065
-0.014576
0.145139
0.141673
0.060398
0.121746
0.118393
0.072711
0.093397
0.014707
0.074288
0.090681
0.082495
0.097759
0.037981
-0.049544
0.058983
0.019340
-0.066716
-0.028125
-0.017113
-0.052395
-0.030447
-0.027025
0.005107
-0.174663
-0.082633
-0.112745
-0.084167
-0.044699
-0.018756
-0.143840
-0.157438
-0.133918
-0.024515
-0.137527
-0.030758
-0.130383
-0.086014
-0.057338
0.018792
0.309185
0.580199
0.794448
1.234185
1.347236
1.145924
0.963648
0.587605
0.228763
-0.127996
-0.227941
-0.274659
-0.346730
-0.217393
-0.132466
-0.131429
-0.197341
-0.062183
-0.014520
-0.006368
0.035577
-0.005183
-0.086462
-0.030592
-0.095285
0.029441
-0.028379
0.085314
0.117241
0.037113
0.056142
0.083229
0.084271
0.178903
0.118007
0.135944
0.156656
0.222952
0.210302
0.237802
0.287008
0.254140
0.315554
0.357774
0.328687
0.368062
0.326247
0.348053
0.384182
0.466415
0.454233
0.368421
0.305601
0.447568
0.387597
0.371897
0.315780
0.409717
0.324352
0.328103
0.345106
0.400766
0.316932
0.316194
0.283581
0.301498
0.242640
0.208268
0.173383
0.124681
0.185489
0.141261
0.091817
0.080093
0.075493
0.056352
0.078204
-0.008111
0.019675
0.026555
0.002400
-0.024783
-0.025387
0.019704
-0.031712
-0.057238
-0.032793
-0.065468
-0.163267
-0.137322
-0.126937
-0.062770
-0.036795
-0.173809
-0.131654
-0.075477
-0.033943
-0.087275
-0.014412
-0.090767
-0.107272
-0.122942
-0.050018
-0.021234
-0.143967
-0.132407
-0.095912
-0.063841
-0.087068
0.003401
-0.055698
-0.101965
-0.098597
-0.066713
-0.104115
-0.110026
-0.076840
-0.028972
-0.050989
-0.090496
-0.061738
-0.101670
-0.047779
-0.097682
-0.060157
0.007827
-0.084197
-0.143918
-0.145826
-0.150407
-0.064946
0.018212
-0.058652
-0.042492
-0.082887
-0.096002
-0.108885
-0.096752
-0.117348
0.014226
0.000221
-0.109533
-0.021418
-0.039454
0.016991
0.028474
-0.003481
0.016674
-0.002249
0.052517
0.067762
0.082387
0.116339
0.120003
0.019604
0.109678
0.055734
0.147273
0.182315
0.158756
0.067347
0.142948
0.051784
0.104474
0.088075
0.057362
0.082139
0.062654
0.116851
0.057270
0.030110
-0.042500
0.009980
0.030098
-0.060097
-0.069143
0.048964
-0.118311
-0.090589
0.046991
-0.029429
-0.019865
-0.118713
-0.167655
-0.054275
-0.058461
-0.089974
-0.084971
-0.123302
-0.043811
-0.106435
-0.013479
-0.099531
-0.024347
0.165026
0.391513
0.746637
1.023407
1.309940
1.257664
1.187589
1.023926
0.539383
0.227751
-0.011622
-0.217641
-0.143691
-0.247546
-0.131057
-0.063852
-0.035945
0.029306
0.002871
-0.043804
-0.009828
0.014358
0.042020
0.078932
-0.039387
0.080119
0.025645
0.056189
0.051945
0.105219
0.055057
0.117625
0.165681
0.155203
0.109840
0.155707
0.224760
0.282302
0.293158
0.310660
0.231657
0.333612
0.401525
0.348499
0.366768
0.474462
0.412296
0.458146
0.401702
0.524061
0.479030
0.463641
0.514187
0.544629
0.451111
0.466147
0.482635
0.471412
0.488745
0.472625
0.420642
0.461266
0.418782
0.424860
0.337824
0.379369
0.349110
0.271186
0.378394
0.323017
0.215434
0.229718
0.175081
0.250656
0.183573
0.173774
0.158395
0.091410
0.128669
0.171094
0.027153
0.064565
0.049199
0.002126
0.090076
0.108621
0.077308
0.015747
0.035301
0.038916
-0.032158
0.011225
0.016304
0.071848
0.022761
-0.043364
-0.039056
0.034398
0.027175
-0.001268
-0.027800
0.023787
0.026839
0.054863
-0.051700
0.059820
0.043650
0.018068
0.047508
-0.056522
0.023733
0.033348
0.046949
-0.005110
0.029331
0.069549
0.140111
0.028738
0.039808
-0.044350
0.025115
-0.040743
0.008142
0.006405
0.082979
-0.000218
-0.032184
0.000633
0.049215
0.016651
0.025849
0.049275
0.009978
0.045167
0.003178
0.054657
0.099086
0.074879
0.040475
0.033451
-0.014601
0.079842
0.057647
0.117901
0.056247
0.100254
0.149606
0.014187
0.123134
0.092459
0.196512
0.116458
0.165893
0.195950
0.138103
0.191781
0.195004
0.191873
0.193838
0.268113
0.192232
0.284947
0.235523
0.239905
0.141997
0.277587
0.214153
0.247568
0.205384
0.234926
0.092301
0.154171
0.194194
0.079445
0.124742
0.216176
0.104024
0.059047
0.075591
0.077614
0.078038
0.089196
0.121318
0.083982
-0.024897
0.041202
0.148895
0.077772
0.038113
0.043801
0.084190
0.064730
0.006123
0.080837
0.098824
0.304821
0.494342
0.807727
1.143355
1.418510
1.432313
1.336673
1.026330
0.598835
0.286351
-0.006469
-0.108055
-0.142834
-0.112597
-0.027747
0.042132
0.080715
0.158877
0.094508
0.078916
0.126629
0.180507
0.157003
0.108437
0.168907
0.130443
0.107446
0.182440
0.257455
0.221154
0.150679
0.309921
0.230650
0.220536
0.340172
0.350812
0.331996
0.391544
0.389322
0.342054
0.350593
0.415593
0.473580
0.439578
0.502901
0.413390
0.516376
0.456406
0.484227
0.571621
0.599338
0.570429
0.522720
0.601094
0.496044
0.618314
0.584175
0.525727
0.556327
0.586633
0.575845
0.469881
0.514046
0.514378
0.480227
0.390175
0.366336
0.399708
0.330548
0.345895
0.349665
0.329838
0.261876
0.289386
0.238069
0.314731
0.277989
0.270742
0.279467
0.115872
0.093051
0.171291
0.199480
0.084294
0.128552
0.111124
0.099890
0.164518
0.065077
