-0.018441
0.066570
0.011100
0.014947
0.021060
0.063331
-0.005730
-0.087726
-0.028732
0.027662
0.005274
-0.063622
0.050431
-0.054055
-0.062987
0.020401
0.000742
0.008586
0.020251
-0.123279
0.024912
0.090978
0.111366
0.126291
0.074047
0.096830
-0.011069
0.074715
0.083748
0.051210
-0.044106
0.129053
0.094991
0.064711
0.174908
0.128039
0.107624
0.100240
0.140129
0.230556
0.230782
0.184058
0.274847
0.222373
0.170334
0.187441
0.169306
0.147545
0.127912
0.168340
0.177598
0.152387
0.147627
0.093609
0.074258
0.030998
0.141020
-0.024962
0.154378
0.059501
0.072425
0.111503
0.109535
0.060546
0.047168
0.006242
0.120768
0.064013
-0.054863
0.096987
0.024588
0.090879
0.078810
0.062653
0.069957
0.076522
0.070731
-0.057312
-0.002863
0.031875
0.165121
0.231924
0.523520
0.770048
1.050938
1.364763
1.426009
1.296620
0.967696
0.758028
0.327672
-0.025317
-0.185752
-0.231663
-0.143103
-0.166991
0.013802
0.021843
-0.015336
0.045524
0.085649
0.124692
0.065338
0.137188
0.065495
0.025576
0.125792
0.111560
0.138695
0.130123
0.109197
0.124472
0.113501
0.160099
0.229781
0.189964
0.266325
0.303448
0.215847
0.344547
0.207277
0.228608
0.000000
0.000000
0.000000
0.000000
0.000000
0.000000
0.000000
0.000000
0.000000
0.000000
0.000000
0.000000
0.000000
0.000000
0.000000
0.000000
0.000000
0.000000
0.000000
0.000000
0.000000
0.000000
0.000000
0.000000
0.000000
0.000000
0.000000
0.000000
0.000000
0.000000
0.000000
0.000000
0.000000
0.000000
0.000000
0.000000
0.000000
0.000000
0.000000
0.000000
0.000000
0.000000
0.000000
0.000000
0.000000
0.000000
0.000000
0.000000
0.000000
0.000000
0.000000
0.000000
0.000000
0.000000
0.000000
0.000000
0.000000
0.000000
0.000000
0.000000
0.040459
0.083398
0.063476
0.127636
0.113119
0.106601
0.101955
0.119285
0.102790
0.036838
0.077991
0.053101
0.072712
0.059095
0.111609
0.060137
0.047719
0.046138
0.025661
0.059407
0.126935
0.061130
0.088913
0.074330
0.078999
0.121860
0.038814
0.107769
0.062393
0.068447
0.171470
0.093737
0.072196
0.060516
-0.014486
0.152488
0.105851
0.110445
0.107805
0.175184
0.107281
0.072258
0.104861
0.090558
0.078430
0.062947
0.062832
0.130414
0.117621
0.141312
0.046082
0.021950
0.078403
0.085266
0.135306
0.083197
0.123619
0.145488
0.046627
0.192783
0.133820
0.105258
0.143461
0.129699
0.197979
0.253039
0.253981
0.208066
0.244188
0.230584
0.178617
0.197473
0.292955
0.304648
0.306653
0.261048
0.246629
0.258946
0.237314
0.263810
0.220424
0.188375
0.216762
0.223447
0.184842
0.178340
0.097826
0.208781
0.151814
0.131371
0.164989
0.107773
0.101922
0.053857
0.100987
0.072012
0.122044
0.096658
0.065932
0.047089
0.110738
0.106155
0.147731
0.121769
0.105658
0.117414
0.068921
0.076084
0.087718
0.037088
-0.008477
0.141488
0.021989
0.224453
0.375853
0.730861
1.044086
1.301173
1.351716
1.353479
1.162296
0.751414
0.373915
0.152919
-0.059086
-0.190944
-0.282813
-0.100215
-0.127736
-0.013686
0.095021
0.038443
0.105161
0.089676
0.044371
0.201762
0.079873
0.112222
0.052323
0.085987
0.065862
0.098219
0.041060
0.130322
0.150282
0.122792
0.165732
0.164783
0.201411
0.201217
0.235799
0.204281
0.199266
0.227235
0.218424
0.350109
0.356494
0.329488
0.333535
0.414757
0.489332
0.523338
0.376681
0.398476
0.492067
0.448169
0.449581
0.611284
0.447818
0.614396
0.408309
0.538525
0.577719
0.491194
0.489631
0.485531
0.490314
0.534849
0.508495
0.432929
0.474443
0.417823
0.442222
0.416460
0.390132
0.376481
0.306136
0.418259
0.255701
0.245455
0.272611
0.240628
0.173905
0.181064
0.133802
0.160777
0.143186
0.131313
0.115371
0.165445
0.076917
0.130007
0.053372
0.153267
0.040719
0.029352
0.036325
0.027397
0.074936
0.050821
0.061148
-0.010494
0.015523
-0.008755
-0.001357
-0.069376
0.018485
0.101605
0.072552
-0.010682
-0.039536
-0.060498
0.028095
0.000604
0.041762
0.009106
0.030324
-0.002891
-0.013336
0.020346
-0.002094
0.011615
0.001952
-0.022570
-0.059717
-0.025350
0.011987
-0.012728
0.027856
0.083838
0.053778
-0.012761
0.021322
-0.013008
-0.094868
0.007572
-0.002850
0.022127
-0.043664
-0.033004
0.094941
0.005787
-0.021784
0.010099
-0.095983
-0.026102
0.003370
0.021587
-0.079909
0.039143
0.022783
-0.022428
-0.004402
-0.040933
-0.073224
0.002231
-0.006506
-0.014380
0.015110
0.017590
0.074382
-0.017938
0.063662
0.051771
0.053886
0.078297
0.008836
0.128768
0.082352
0.130639
0.120336
0.156178
0.027465
0.078909
0.142778
0.081058
0.125132
0.200320
0.172019
0.128341
0.152216
0.043393
0.047394
0.163644
0.080864
0.179438
0.080065
0.070728
0.118558
0.083254
0.118539
0.073653
0.122054
0.017831
0.042738
0.095578
-0.001971
-0.008528
0.017972
-0.011203
-0.003924
0.000000
0.000000
0.000000
0.000000
0.000000
0.000000
0.000000
0.000000
0.000000
0.000000
0.000000
0.000000
0.000000
0.000000
0.000000
0.000000
0.000000
0.000000
0.000000
0.000000
0.000000
0.000000
0.000000
0.000000
0.000000
0.000000
0.000000
0.000000
0.000000
0.000000
0.000000
0.000000
0.000000
0.000000
0.000000
0.000000
0.000000
0.000000
0.000000
0.000000
0.000000
0.000000
0.000000
0.000000
0.000000
0.000000
0.000000
0.000000
0.000000
0.000000
0.000000
0.000000
0.000000
0.000000
0.000000
0.101181
0.258755
0.238298
0.188838
0.281826
0.274314
0.204757
0.358401
0.286535
0.297041
0.291344
0.353414
0.421738
0.409633
0.344638
0.392128
0.307212
0.445079
0.469023
0.476539
0.428218
0.391710
0.437934
0.388199
0.382230
0.387881
0.379280
0.431685
0.382486
0.340532
0.347909
0.334947
0.276197
0.317325
0.335384
0.265138
0.240370
0.242580
0.270037
0.238165
0.180963
0.141917
0.104516
0.083624
0.138110
0.024871
0.003259
0.058270
0.083861
0.047396
-0.020491
0.035299
0.014629
-0.043741
-0.016699
0.021534
-0.056391
-0.001867
-0.017070
0.032993
-0.033939
0.007209
-0.059108
-0.048870
0.024892
-0.007021
-0.049774
0.008032
-0.072690
-0.022600
0.045548
0.011062
0.011482
-0.091896
-0.066562
-0.058300
0.042679
-0.005081
-0.022223
-0.021952
-0.038906
-0.113406
-0.041645
-0.038163
-0.043528
-0.102355
-0.034182
-0.043897
-0.042782
-0.063224
-0.057278
0.044057
-0.046069
-0.060264
0.009625
0.008940
-0.023719
-0.050794
-0.001981
-0.050827
0.027857
0.008824
-0.037926
-0.015386
-0.039231
-0.048735
-0.128472
-0.076452
0.017334
-0.007921
-0.065875
-0.049406
-0.035883
0.006713
0.009101
-0.028023
-0.092637
0.010693
0.049316
0.000732
0.051212
-0.038352
0.055399
0.075612
0.075390
-0.012588
0.133165
0.113845
0.071838
0.091824
0.078402
0.144052
0.224061
0.205317
0.107751
0.144499
0.143468
0.067414
0.197747
0.161608
0.093663
0.178789
0.189855
0.089511
0.137400
0.158635
0.130942
0.064728
0.056380
0.099445
0.017793
0.138050
0.055735
0.056947
0.050683
-0.000864
-0.016236
-0.057717
-0.019681
0.079722
-0.000240
-0.009668
-0.025079
0.002149
0.043831
0.010186
-0.005276
-0.024253
-0.014767
-0.027675
0.062550
-0.035366
-0.022296
0.034610
-0.067929
0.152118
0.239623
0.519453
0.775424
1.218260
1.363237
1.357766
1.200873
0.905289
0.680505
0.310270
-0.024042
-0.200808
-0.215316
-0.156904
-0.235787
-0.150329
0.045835
0.014361
0.081728
0.045629
-0.012771
0.007316
0.066504
0.054632
0.026586
0.087457
0.035963
0.033090
0.013609
0.112009
0.179291
0.136489
0.142116
0.145057
0.150231
0.180185
0.171801
0.284481
0.226547
0.212991
0.295544
0.281032
0.374292
0.341556
0.324391
0.466644
0.326131
0.338129
0.505358
0.422559
0.440888
0.453166
0.531613
0.504808
0.509395
0.514271
0.466838
0.588312
0.528366
0.472813
0.555081
0.543705
0.535405
0.499995
0.462777
0.493582
0.450600
0.447770
0.487147
0.392397
0.360183
0.340407
0.348670
0.290733
0.299544
0.316802
0.304975
0.286959
0.165835
0.278737
0.247403
0.201500
0.164458
0.157760
0.147929
0.110058
0.131015
0.120802
0.144568
0.143690
0.074115
0.054216
0.084296
0.114008
0.085275
0.032966
0.058844
0.163884
0.010593
0.120465
0.073368
0.091837
0.031846
0.080366
0.083165
0.090676
0.112406
0.109841
0.135614
0.063601
0.090995
0.047051
0.094185
0.086023
0.031422
0.062014
0.049572
0.076895
0.127368
0.029800
0.005797
0.015186
0.079882
0.028873
0.104958
0.054145
0.023132
0.159366
0.112332
0.143901
-0.037615
0.158647
0.102272
0.123003
0.065259
0.066756
0.059060
0.035866
0.091631
0.043312
0.057236
0.083607
0.054849
0.103727
0.051158
0.079436
0.114672
0.141215
0.104900
0.156878
0.107251
0.061197
0.088215
0.161270
0.169303
0.085557
0.117248
0.120938
0.189938
0.138006
0.110516
0.100039
0.059598
0.149794
0.198488
0.235461
0.157515
0.159373
0.271541
0.206751
0.263047
0.260824
0.241831
0.313586
0.268404
0.156454
0.276834
0.230515
0.180371
0.219489
0.181890
0.293447
0.260356
0.270024
0.234801
0.187184
0.207171
0.175194
0.223045
0.194215
0.105590
0.170506
0.115100
0.144467
0.119127
0.121333
0.116926
0.118271
0.043489
0.108289
0.109947
0.106265
0.048504
0.021648
0.117129
0.042189
0.096559
0.057600
0.189323
0.016337
0.038571
0.037163
0.069496
0.123927
0.222308
0.534536
0.751343
1.105142
1.367572
1.500000
1.379152
1.016000
0.680244
0.389582
0.066837
-0.040971
-0.196147
-0.131758
-0.009937
0.042157
0.011023
0.139523
0.000000
0.000000
0.000000
0.000000
0.000000
0.000000
0.000000
0.000000
0.000000
0.000000
0.000000
0.000000
0.000000
0.000000
0.000000
0.000000
0.000000
0.000000
0.000000
0.000000
0.000000
0.000000
0.000000
0.000000
0.000000
0.000000
0.000000
0.000000
0.000000
0.000000
0.000000
0.000000
0.000000
0.000000
0.000000
0.000000
0.000000
0.000000
0.000000
0.000000
0.541023
0.559721
0.529097
0.633198
0.573659
0.630267
0.517375
0.590032
0.449414
0.531822
0.520793
0.458827
0.355103
0.356318
0.422657
0.388266
0.343436
0.252941
0.286603
0.293256
0.276280
0.229389
0.278091
0.257096
0.211113
0.198981
0.167806
0.159952
0.125858
0.197748
0.125752
0.115690
0.126302
0.081344
0.059710
0.080892
0.113202
0.051595
0.086382
0.081337
0.070544
0.065989
0.049436
0.039283
0.086438
0.043004
0.047648
0.070632
0.033453
0.027531
0.119750
0.097210
0.079355
0.033815
0.050866
0.100780
0.002708
0.021461
0.126835
0.035852
0.024900
0.133713
0.012657
0.071839
0.039278
0.017488
0.052070
0.086776
0.018225
0.005598
0.114818
0.055897
0.016920
0.072840
0.115547
0.018995
0.067278
0.003256
-0.006475
-0.032796
0.073047
0.082426
0.042384
0.039231
0.029639
0.056836
0.060193
0.074638
-0.017181
0.050650
0.085975
0.041719
0.006762
-0.002097
0.018142
0.096146
0.079455
0.011946
0.047621
0.089206
0.027532
0.035742
0.053417
0.127825
0.060391
0.162075
0.167188
0.078536
0.137940
0.132228
0.152884
0.220984
0.221810
0.230217
0.171944
0.216295
0.263152
0.205953
0.266729
0.177236
0.139076
0.178763
0.225290
0.132989
0.199616
0.155440
0.084974
0.161721
0.085064
0.124330
0.130257
0.143673
0.107215
0.083422
0.031656
0.125186
0.120306
0.031323
0.098827
0.061800
0.037001
0.036091
0.022196
0.054115
-0.006460
-0.029731
0.090423
-0.014063
0.012413
-0.006299
0.025644
0.030054
-0.035899
0.008445
0.002795
0.024553
0.133264
0.275350
0.610466
0.983405
1.221456
1.304695
1.332822
1.121118
0.748603
0.323843
0.088131
-0.157796
-0.254588
-0.249604
-0.185658
-0.156285
-0.002653
0.013860
-0.068172
-0.023523
0.135251
-0.003122
0.029557
-0.062227
0.036089
-0.018329
0.111146
0.082302
0.068254
0.109059
-0.051309
0.146255
0.119517
0.120594
0.083276
0.102609
0.092846
0.108773
0.110179
0.179178
0.146434
0.252149
0.236693
0.257493
0.315515
0.306592
0.303876
0.330165
0.315140
0.361762
0.413526
0.359801
0.393450
0.356896
0.506780
0.432530
0.489058
0.428903
0.448697
0.433023
0.430910
0.514495
0.480107
0.429272
0.423094
0.400599
0.352512
0.426599
0.334659
0.361151
0.369304
0.241806
0.291766
0.182753
0.289079
0.269748
0.138544
0.187034
0.112476
0.182090
0.201451
0.126238
0.121830
0.138452
0.093926
0.070468
0.086024
0.084384
0.023018
-0.079578
0.009662
-0.102139
0.023123
-0.048909
0.065884
-0.003426
0.004727
-0.034891
-0.061857
-0.048642
0.005598
-0.112502
-0.056960
-0.086151
-0.048574
-0.121053
-0.032796
-0.083872
-0.070439
-0.048064
-0.040975
-0.016067
-0.002108
-0.134497
-0.022437
-0.021388
-0.059535
-0.088938
-0.007486
-0.084042
-0.058348
-0.134796
-0.082656
-0.009709
-0.149005
-0.101853
-0.109688
-0.052745
-0.074796
-0.047827
0.012265
0.006482
-0.081971
-0.072142
-0.084296
-0.049387
-0.029778
-0.091701
-0.171522
-0.076418
-0.001638
-0.072731
-0.079268
-0.040620
-0.069379
-0.054518
-0.084199
-0.086505
-0.093068
-0.056921
-0.030908
0.013377
-0.102297
-0.021028
-0.024714
0.009004
-0.054677
-0.102796
-0.076804
0.047285
-0.006567
-0.032716
-0.026770
-0.002718
0.082181
0.065782
-0.005541
0.052033
0.000710
0.098438
-0.007563
0.119687
0.155705
0.197354
0.065765
0.070183
0.045274
0.053482
0.156621
0.036101
-0.010905
0.107273
0.098376
0.059405
0.056903
0.051686
0.073577
0.106956
-0.082931
0.042606
-0.029620
-0.023389
-0.101030
0.012411
0.003695
-0.091104
-0.087823
-0.078243
-0.089610
-0.049292
-0.108733
-0.004550
-0.157083
-0.103191
-0.081010
-0.107069
-0.005794
-0.109869
-0.074922
-0.098414
-0.164696
-0.104652
-0.023442
-0.068316
0.073239
0.189171
0.518693
0.795420
0.994858
1.228614
1.287434
1.105000
0.793569
0.560502
0.117611
-0.066544
-0.259332
-0.325363
-0.223476
-0.229441
-0.184230
-0.138600
-0.158576
-0.075813
-0.104955
0.016128
-0.011944
-0.067697
-0.014199
0.080655
-0.050424
-0.006180
-0.024210
-0.040366
0.033792
0.017586
0.064054
0.013515
0.076783
0.042371
0.029564
0.114930
0.147623
0.136489
0.167510
0.155818
0.199569
0.318726
0.250982
0.328009
0.277147
0.292804
0.336557
0.311246
0.437520
0.389388
0.384302
0.388092
0.394616
0.460112
0.316248
0.444697
0.452801
0.407402
0.449245
0.427941
0.418612
0.426600
0.389495
0.401279
0.373569
0.301756
0.351804
0.325627
0.340463
0.241630
0.283984
0.265071
0.183680
0.176758
0.178500
0.175087
0.151845
0.104980
0.136171
0.053110
0.135739
0.046525
0.143503
0.070658
-0.007831
0.022281
0.017465
0.044637
-0.010102
-0.011455
0.055564
0.055312
0.060392
0.012648
0.027138
-0.028657
-0.073194
-0.036750
-0.051820
0.008414
-0.034811
-0.028721
0.036016
-0.094671
-0.079062
-0.065234
-0.064696
-0.056679
-0.057558
-0.022621
-0.059308
0.041815
-0.070531
-0.038451
-0.034292
0.014620
0.001995
-0.026552
-0.034287
-0.030349
-0.067115
0.011860
-0.046810
-0.079271
-0.038126
-0.065656
-0.055716
-0.043834
-0.012994
-0.076113
-0.075371
-0.032268
-0.060414
-0.074262
-0.038079
-0.039836
0.031845
0.022493
-0.021482
0.040653
-0.061924
-0.025887
-0.022811
-0.039134
-0.041877
0.026653
0.007124
-0.000356
0.016685
-0.041077
0.012898
0.092653
-0.040202
-0.025561
-0.009490
-0.002601
0.098347
0.009615
0.010094
0.043389
0.036398
0.027035
0.092342
0.045093
0.144361
0.161232
0.044144
0.136676
0.066185
0.081105
0.063793
0.111584
0.130944
0.204864
0.129228
0.156211
0.143015
0.150057
0.213584
0.199822
0.168894
0.114856
0.152945
0.091041
0.153679
0.159408
0.045466
0.089471
0.066558
0.058453
0.036549
0.119446
0.080524
0.025528
0.118379
-0.011388
0.012485
0.031158
0.051455
0.017701
-0.012821
-0.011617
0.034575
-0.082294
0.052506
-0.044414
0.030153
-0.022959
-0.016654
0.015084
-0.030038
0.000499
0.045201
0.259829
0.479174
0.787009
1.149413
1.390731
1.375490
1.181523
0.962660
0.697312
0.277300
-0.051541
-0.156735
-0.230626
-0.263151
-0.132553
-0.135046
-0.009160
0.019105
0.066070
0.036918
0.035001
0.058476
0.010904
0.017723
0.001078
0.084575
0.075609
0.115935
0.063485
0.043246
0.142290
0.137829
0.090656
0.258910
0.173531
0.201548
0.140960
0.269111
0.251521
0.223519
0.288353
0.314588
0.404468
0.314632
0.332020
0.376170
0.382176
0.379584
0.484473
0.453300
0.492879
0.392185
0.463519
0.538140
0.534120
0.525956
0.509160
0.547668
0.509141
0.486830
0.510069
0.614318
0.614641
0.512308
0.494245
0.574630
0.539314
0.476743
0.463039
0.383279
0.420203
0.321553
0.384315
0.408485
0.351919
0.186842
0.351871
0.230144
0.247794
0.269709
0.175866
0.329763
0.230855
0.210311
0.146114
0.165105
0.121736
0.133301
0.089865
0.072210
0.100878
0.086462
0.194353
0.123285
-0.001926
0.041496
0.093899
0.046672
0.052980
0.038800
0.030712
0.068656
0.018402
0.075523
0.118993
0.050741
-0.023216
0.065431
0.039672
0.063718
0.031033
0.004670
0.079967
0.048875
0.089562
0.056084
0.007307
0.037687
0.020886
-0.056152
0.069387
-0.003276
0.001052
0.004412
0.048517
0.072226
0.098865
0.097683
0.047023
0.135594
0.058689
0.118638
0.041910
0.065565
0.059743
0.035139
0.036270
0.063789
0.062790
0.125859
0.096213
0.030669
0.057086
0.059249
0.053756
-0.080774
0.076768
0.070889
0.004329
0.059128
0.038147
0.021564
-0.035061
0.033451
0.055321
0.026661
0.085032
0.035535
0.091449
0.044172
0.107636
0.043436
0.053296
0.141142
0.169204
0.171089
0.172231
0.172077
0.131146
0.165948
0.190456
0.131021
0.221250
0.179434
0.206530
0.254619
0.198151
0.164024
0.152533
0.271422
0.227846
0.205963
0.099190
0.155020
0.078613
0.164332
0.091011
0.176104
0.119312
0.123989
0.134730
0.089404
0.133917
0.129296
-0.062117
0.105856
0.045400
0.031891
0.059245
0.025963
0.105730
0.014931
0.145707
-0.035503
0.017746
0.056135
0.050892
0.035169
0.020597
0.002278
-0.014842
0.013708
-0.026633
0.021921
0.198392
0.467238
0.628109
0.952306
1.308188
1.467268
1.294365
1.008290
0.790911
0.371485
0.068524
-0.081216
-0.226538
-0.263927
-0.176734
-0.062046
-0.041497
-0.055208
0.033012
0.045353
0.024133
0.034621
0.078479
0.060110
0.061667
0.004873
0.055771
0.035904
0.100198
0.102205
0.103643
0.051626
0.125470
0.072567
0.159036
0.025711
0.167318
0.176296
0.199688
0.206471
0.231288
0.282076
0.244650
0.235898
0.280607
0.372724
0.301687
0.372545
0.352053
0.432809
0.378230
0.418483
0.429383
0.392510
0.367348
0.513221
0.532551
0.483583
0.396577
0.479878
0.485287
0.477109
0.511342
0.466592
0.469277
0.506716
0.507592
0.462482
0.346005
0.374842
0.324009
0.336001
0.365214
0.253015
0.334429
0.267692
0.208120
0.238689
0.232689
0.137180
0.161112
0.196399
0.112878
0.156010
0.131065
0.131511
0.051183
0.091029
0.012948
-0.010252
0.091090
0.005903
0.023905
-0.010889
0.028098
-0.013031
0.014276
-0.033473
0.076956
0.032236
-0.025846
-0.046323
-0.087327
-0.015458
-0.017094
-0.006304
-0.117546
-0.060891
-0.040349
-0.013353
-0.050615
0.011751
-0.002162
-0.122611
-0.033890
-0.063190
-0.072503
-0.057652
-0.044543
-0.077684
-0.078071
-0.038386
-0.019805
-0.122222
-0.056177
-0.047895
-0.041084
-0.027285
-0.054770
-0.028490
-0.029626
-0.008613
0.015184
-0.064195
-0.067387
-0.126497
-0.067865
-0.020693
-0.009110
-0.002829
0.006405
-0.073687
-0.041448
-0.001933
-0.126024
-0.066076
0.010658
-0.038822
-0.037004
-0.056113
-0.068032
-0.023154
0.003179
-0.083500
-0.065531
-0.122159
-0.087551
-0.038484
-0.006738
-0.045913
-0.053560
0.051553
-0.060172
-0.061420
-0.034539
0.011550
0.107772
0.064894
0.120100
0.109477
0.140741
0.040206
0.127888
0.032816
0.091060
0.145069
0.102621
0.141153
0.037785
0.108041
0.124726
0.112973
0.011866
0.044826
0.106246
0.080481
0.109935
-0.026370
0.020523
-0.004578
0.036596
0.086525
-0.102752
-0.080192
0.037090
-0.030908
-0.041320
-0.106992
-0.059799
-0.029593
-0.097457
-0.184506
-0.046830
-0.053089
-0.060167
-0.072660
-0.026177
0.003107
-0.151349
-0.081321
-0.128119
-0.099010
-0.092280
-0.043987
-0.037563
0.185255
0.511834
0.813824
1.093475
1.255781
1.199964
1.024425
0.771537
0.338819
0.019742
-0.233605
-0.293665
-0.279383
-0.296850
-0.210300
-0.120350
-0.147135
-0.092674
-0.090026
-0.179227
-0.035542
-0.106306
-0.027390
-0.072378
-0.034419
-0.011658
0.022861
-0.011977
-0.080934
0.029439
0.045142
-0.037721
0.025866
0.050770
-0.022856
0.106320
0.038102
0.141498
0.098097
0.030362
0.175080
0.073974
0.092164
0.222314
0.171279
0.238161
0.294111
0.249699
0.242438
0.359905
0.338199
0.399355
0.397862
0.360106
0.364214
0.439286
0.405988
0.360355
0.384706
0.379972
0.355187
0.424727
0.305396
0.405137
0.360739
0.390611
0.368174
0.286724
0.322086
0.223878
0.310293
0.266978
0.254193
0.169763
0.218764
0.114816
0.151882
0.144629
0.092315
0.054866
0.137639
0.015418
0.074391
0.051042
0.050834
-0.005501
-0.087859
-0.009281
-0.046062
-0.085590
-0.035744
-0.081629
-0.086193
-0.064363
-0.004574
0.022292
-0.056449
0.006330
-0.033550
-0.062617
-0.092032
-0.102103
-0.087492
-0.011239
-0.045398
-0.059147
-0.125827
-0.054990
-0.098388
-0.088712
-0.096809
-0.116176
-0.075608
-0.035599
-0.127745
-0.058467
-0.112638
-0.102904
-0.082259
-0.136769
-0.145368
-0.139594
-0.114811
-0.110250
-0.047774
-0.030401
-0.070242
0.010074
-0.097592
-0.003994
-0.077236
-0.027549
-0.122359
-0.085009
-0.044479
-0.112978
-0.101539
-0.047540
-0.076638
-0.087061
-0.109849
-0.017040
-0.132812
-0.073897
-0.050648
-0.011780
-0.166731
-0.020847
-0.149302
-0.126393
-0.078681
-0.074382
-0.022156
-0.062610
-0.011270
-0.068809
-0.072884
-0.064671
-0.051203
-0.081820
0.033073
-0.000297
-0.044762
0.031686
-0.020478
-0.015877
-0.021819
-0.005937
0.071269
0.040239
0.127966
0.024377
0.079639
0.134239
0.086409
0.148034
0.130605
0.130895
0.131082
0.114752
0.146640
0.069140
0.069310
0.014261
0.044154
-0.024244
0.025598
0.116207
0.063471
0.075819
-0.047308
-0.047037
-0.080142
-0.056260
0.012934
0.011676
-0.076182
-0.090317
0.022200
-0.060758
-0.043809
0.002706
-0.024354
-0.123123
0.012996
0.016043
-0.084455
-0.131906
-0.071811
-0.031871
-0.056098
-0.109911
-0.075738
0.000586
0.229884
0.387192
0.761211
1.048865
1.210330
1.302560
1.182871
0.864864
0.507224
0.235193
-0.165599
-0.247461
-0.233109
-0.343229
-0.269011
-0.095576
-0.017650
-0.010077
-0.017258
-0.106376
-0.051698
0.004384
-0.030951
-0.040482
0.102219
0.032496
0.050444
0.030738
0.018232
0.086236
0.062418
-0.011719
0.027735
0.035667
0.050743
0.058223
0.203148
0.129551
0.142104
0.216842
0.178858
0.220693
0.159907
0.255845
0.354972
0.407597
0.251168
0.340178
0.401863
0.439270
0.350926
0.485007
0.499681
0.366129
0.505920
0.495930
0.496942
0.508868
0.587407
0.487713
0.418103
0.498420
0.482350
0.469866
0.492830
0.431213
0.434551
0.364782
0.452936
0.399577
0.331308
0.346873
0.372648
0.344980
0.255336
0.270718
0.282742
0.293440
0.229661
0.220891
0.134815
0.162870
0.172299
0.185791
0.123187
0.143542
0.156387
0.059240
0.056281
0.075037
0.042328
0.072185
0.053738
0.021750
0.058894
0.028150
0.100794
0.015959
0.001489
0.032365
0.008324
0.030490
-0.031234
0.025136
0.003201
-0.005106
0.073864
0.047969
-0.031299
0.011015
-0.029883
-0.040321
0.010557
0.011509
-0.001198
0.028244
0.032506
-0.027074
-0.032190
0.047816
0.028870
0.051693
0.081617
0.062039
-0.015899
0.025479
0.049929
0.028447
0.051079
0.041861
0.056151
0.035826
0.099587
0.009742
0.074783
0.005615
0.084088
0.028235
-0.006421
0.047910
0.085014
0.027314
0.004457
0.024920
0.029024
0.053296
0.086206
0.051898
0.072699
0.066330
0.013287
-0.009814
0.030320
0.110149
0.125474
0.015045
0.191502
0.026371
0.049616
0.078139
0.059584
0.100524
0.119266
0.060388
0.117935
0.072299
0.144012
0.171918
0.209116
0.133629
0.130990
0.210546
0.254698
0.222328
0.226720
0.207294
0.249362
0.201440
0.285399
0.253042
0.199602
0.194257
0.228059
0.178023
0.181903
0.131795
0.099620
0.049834
0.121916
0.082743
0.121323
0.080255
0.091126
0.162086
0.164895
0.078345
0.146595
0.086306
0.124993
0.064522
0.130688
0.045401
0.080115
-0.012980
0.087378
0.042430
0.021491
0.042610
0.047298
0.058916
0.040691
0.005963
0.040378
0.148870
0.224318
0.445926
0.824635
1.074580
1.299581
1.328673
1.317017
1.096749
0.733526
0.422380
0.121238
-0.054426
-0.297815
-0.123748
-0.048137
-0.091516
0.090563
0.061349
0.100061
0.064416
0.089289
0.125949
0.187337
0.086239
0.092139
0.120090
0.141412
0.088523
0.048737
0.117209
0.133934
0.168047
0.140866
0.159032
0.128277
0.244375
0.263690
0.218605
0.250590
0.258534
0.249314
0.303723
0.307332
0.415146
0.377214
0.442945
0.426336
0.401003
0.439716
0.475807
0.474284
0.488339
0.482506
0.504345
0.530944
0.532765
0.517513
0.523698
0.488207
0.606605
0.615390
0.515445
