0.035755
-0.053372
-0.044671
-0.061942
0.047498
0.049719
0.044414
0.029726
0.050737
0.022007
0.048500
0.010153
0.024254
-0.005262
-0.004815
0.065247
0.044919
0.045942
0.029450
0.098292
0.042457
0.085084
0.074793
-0.046161
0.025135
0.038460
0.007328
0.013031
0.040576
0.026730
-0.054316
0.079994
0.028100
0.040549
0.012021
0.005270
0.053165
-0.029873
0.091448
0.094078
0.096196
0.139007
0.037628
0.096732
0.131810
0.156564
0.146608
0.158261
0.231842
0.146223
0.156543
0.176116
0.189314
0.184078
0.179958
0.168873
0.185712
0.215134
0.131629
0.161172
0.200579
0.243342
0.155903
0.198946
0.133122
0.143000
0.181622
0.171813
0.112304
0.098877
0.064403
0.154665
0.117709
0.070667
0.121023
0.033218
-0.035663
0.082771
0.133331
0.094688
0.008712
-0.043004
0.011977
0.052499
0.055954
0.068160
0.037478
0.031958
-0.016932
0.063054
-0.015017
0.082856
0.045392
0.040558
0.075768
0.123139
-0.000246
0.091189
0.080714
0.038151
0.040057
-0.030184
0.013049
0.056064
-0.002267
0.037270
0.281351
0.433997
0.750265
1.053636
1.368617
1.434770
1.438095
1.181107
0.876251
0.573529
0.236530
0.032399
-0.192484
-0.260347
-0.269485
-0.198659
-0.135316
-0.078267
-0.047199
0.081785
0.070070
0.145179
0.066548
0.079330
0.064862
0.109467
0.055850
0.045193
0.125468
0.044569
0.037175
0.104312
0.115856
0.091741
0.083048
0.075361
0.091708
0.107561
0.150134
0.084121
0.138534
0.101332
0.115470
0.083002
0.138395
0.140574
0.219955
0.108176
0.249042
0.178644
0.225261
0.161625
0.217978
0.169853
0.259464
0.241789
0.307377
0.316321
0.327523
0.365244
0.428066
0.344316
0.484583
0.477661
0.469460
0.472418
0.488962
0.475605
0.447231
0.646496
0.561192
0.574296
0.613444
0.607727
0.621384
0.599222
0.541085
0.523249
0.580726
0.609790
0.527874
0.542894
0.535694
0.524613
0.458877
0.426886
0.374266
0.397220
0.360291
0.381141
0.343007
0.364106
0.394020
0.331393
0.275887
0.306270
0.218544
0.218487
0.249580
0.275192
0.269667
0.149612
0.151798
0.135228
0.184103
0.174448
0.179881
0.165031
0.138997
0.110880
0.124381
0.136656
0.097793
0.114813
0.139675
0.147365
0.134020
0.109463
0.081619
0.068413
0.141336
0.119914
0.108641
0.068853
0.121105
0.108723
0.101713
0.116597
0.156226
0.050119
0.032947
0.023654
0.089317
0.065634
0.051355
0.084426
0.056986
0.092552
0.154538
0.102594
0.002481
0.124868
0.055394
0.096929
0.068404
0.092479
0.138394
0.093993
0.142596
0.139583
0.079361
0.110560
0.061807
0.135300
0.069597
0.121317
0.021434
0.104211
0.031207
0.044406
0.061397
0.043946
0.133302
0.114430
0.093640
0.012651
0.029120
0.035068
0.128898
0.020745
0.096918
0.089429
0.040100
0.018121
0.118438
-0.019936
0.083504
0.075918
0.022235
-0.023781
0.062028
0.063068
0.075009
0.078374
0.069734
0.106164
0.090671
0.123020
0.060766
0.035815
0.084889
0.042876
0.072109
0.084416
0.003487
0.138099
0.026217
0.076799
0.069879
0.125025
-0.028535
0.102628
0.040856
0.011447
0.126618
0.046322
0.020101
0.056897
0.030280
0.100577
0.096521
0.093901
0.165215
0.078774
0.104091
0.089007
0.156269
0.163888
0.178171
0.199321
0.234076
0.270306
0.254439
0.218255
0.245067
0.199459
0.217626
0.255728
0.198305
0.178661
0.153965
0.191848
0.167841
0.177548
0.149561
0.167102
0.141257
0.188069
0.090383
-0.002366
0.054021
0.064822
0.050689
0.098928
0.093835
0.079983
0.040109
0.000897
0.048407
0.049677
0.019364
0.005417
0.058470
-0.038345
0.012154
0.037299
0.003331
0.018604
0.034958
0.014225
0.093154
0.084615
0.055661
-0.020112
0.019480
-0.002508
0.061055
0.022833
-0.018583
0.017037
0.021311
-0.070205
-0.079909
-0.062530
-0.076271
0.061936
-0.012881
0.002898
0.211875
0.494887
0.821774
1.134854
1.222271
1.346700
1.303256
1.055320
0.751876
0.448996
0.245597
-0.053039
-0.184719
-0.289720
-0.322778
-0.266460
-0.186814
-0.076112
0.009396
-0.011800
0.017819
0.025001
0.040288
0.042045
-0.031864
0.003047
-0.000967
0.045428
0.028835
0.029597
-0.017471
-0.036246
0.063492
0.018855
0.046459
0.054757
0.051860
0.017294
0.027854
0.043822
0.032100
0.043677
0.063099
0.098681
0.108846
0.002117
0.075117
0.066967
0.069883
0.101769
0.132214
0.189002
0.136383
0.179229
0.160751
0.283615
0.102379
0.363016
0.215051
0.275435
0.308695
0.347681
0.377013
0.301470
0.397497
0.446659
0.453443
0.444383
0.472433
0.485607
0.516075
0.357357
0.486717
0.460054
0.452457
0.504722
0.442093
0.495029
0.484407
0.500345
0.403387
0.488558
0.432444
0.360550
0.384925
0.376283
0.313420
0.356059
0.344238
0.218334
0.208271
0.267120
0.205876
0.217045
0.260093
0.092446
0.191185
0.162252
0.172232
0.058615
0.101964
0.059022
0.026050
0.059613
0.061579
-0.003156
-0.031919
0.040909
0.052669
-0.009257
-0.005879
0.054451
-0.034158
-0.031867
0.067903
-0.049294
0.000259
0.063421
-0.077619
-0.003143
-0.005325
-0.062122
-0.021316
-0.013035
-0.022500
-0.039021
-0.090611
-0.033964
-0.024837
-0.013756
-0.048959
-0.050154
-0.146844
-0.051016
-0.030118
-0.012453
-0.014476
0.033029
-0.021086
-0.038917
-0.035962
-0.081351
0.004669
-0.018560
-0.064099
-0.058523
-0.000529
0.041595
-0.005882
-0.055641
-0.023438
-0.043237
-0.107124
-0.035290
-0.010504
-0.151309
-0.073958
-0.024923
-0.012679
-0.038975
-0.024973
-0.045092
-0.072847
-0.017955
-0.064145
-0.041630
0.005480
-0.140481
-0.093561
-0.054703
0.037374
-0.053607
0.011888
-0.056325
-0.067720
-0.036570
-0.035501
-0.030321
-0.051687
-0.166465
-0.018586
0.029445
0.055994
-0.085970
-0.035441
0.021437
-0.070983
-0.090192
-0.071276
-0.027140
0.007711
-0.077211
0.065286
-0.021480
-0.076499
-0.058876
0.033278
-0.039633
-0.027755
-0.000880
-0.068412
-0.023305
-0.021360
0.030234
-0.041638
-0.068667
-0.091978
-0.009118
-0.020150
0.003969
-0.000983
-0.011193
-0.039612
-0.015624
0.034433
0.012040
0.096228
0.084234
0.030185
0.020995
0.064793
0.153232
0.107710
0.156374
0.158159
0.130215
0.125364
0.148799
0.182977
0.164406
0.189629
0.104071
0.085746
0.088422
0.119421
0.151635
0.184926
0.032165
0.043748
0.075504
0.045716
0.066126
0.009292
0.000893
0.022916
0.009164
-0.008602
-0.071631
0.008388
-0.038528
0.001902
-0.002251
-0.007025
0.020848
-0.043592
-0.049296
-0.048645
-0.098450
0.003432
-0.016994
-0.001739
0.033736
-0.039161
-0.048074
-0.012284
0.018676
-0.031251
-0.028326
-0.079942
-0.026636
0.042274
-0.006675
-0.086830
-0.032372
-0.142358
-0.160622
-0.068681
-0.013371
0.160312
0.495583
0.794265
1.184754
1.355635
1.388905
1.251778
0.944680
0.718266
0.410626
0.108065
-0.145518
-0.267583
-0.333763
-0.332839
-0.205598
-0.179658
-0.103266
0.017509
-0.004197
-0.017740
-0.000456
-0.073528
-0.049282
-0.033087
-0.042393
-0.017977
-0.016414
-0.100270
-0.010121
0.041864
0.029002
-0.034143
-0.034807
0.065047
0.009542
-0.042786
0.082963
0.068121
0.123597
0.076668
-0.001598
0.105011
0.124738
0.030381
0.129180
0.058268
0.102903
0.105242
0.062013
0.187487
0.185326
0.160197
0.224638
0.126684
0.252049
0.238662
0.225845
0.268450
0.325334
0.366827
0.355465
0.338382
0.371693
0.436412
0.397331
0.488845
0.461415
0.431268
0.475197
0.517075
0.416217
0.514261
0.486862
0.527571
0.509522
0.599735
0.434178
0.534159
0.560798
0.437571
0.439379
0.503861
0.442639
0.358740
0.473383
0.439372
0.375578
0.311713
0.261927
0.264812
0.229373
0.246439
0.188664
0.203235
0.301011
0.172437
0.139974
0.214089
0.229397
0.155500
0.158402
0.197900
0.068180
0.091179
0.058303
0.117734
0.051974
0.020086
0.039507
0.094922
0.075058
0.112315
0.153365
0.026784
0.029179
0.031980
0.031375
0.094142
0.038179
0.022142
0.036407
0.050875
0.133373
-0.020961
0.060471
0.061419
0.071214
0.085158
-0.003762
0.122970
0.076257
-0.029793
0.007088
-0.001388
0.012830
0.113570
0.017360
0.034151
0.098840
0.099340
0.101404
0.031287
0.032103
0.038291
0.062378
0.108554
0.130657
0.047531
0.094293
0.095538
0.074760
-0.059563
0.015129
0.075572
0.061463
0.074315
0.060354
0.064751
-0.015563
0.084658
0.032066
0.060638
0.042041
-0.026697
0.050550
0.023129
0.135380
0.017168
0.082280
0.055890
0.065320
0.062204
0.068734
0.056412
0.089046
0.059302
0.058541
0.010508
0.037481
0.034220
0.078197
0.097887
-0.003196
0.107783
0.041169
0.061610
0.024924
0.053455
0.116567
0.081134
0.067925
-0.000246
0.019571
0.119414
0.083809
0.154221
0.075615
0.103573
0.084159
0.102876
0.113701
-0.017059
0.120013
0.045483
0.107546
0.150213
0.056078
0.171919
0.086342
0.084281
0.132262
0.142792
0.140086
0.142631
0.149333
0.198141
0.203993
0.211630
0.191800
0.266191
0.224154
0.223797
0.249797
0.254277
0.227584
0.207319
0.209479
0.291662
0.214248
0.218066
0.210162
0.273787
0.264903
0.165877
0.206589
0.120398
0.216442
0.263651
0.204008
0.126931
0.157142
0.129855
0.134213
0.091530
0.127517
0.101133
0.120149
0.134011
0.109585
0.040354
0.093084
0.069024
0.085960
0.158314
0.106628
0.100826
0.039814
0.109214
0.108769
0.116775
0.147677
0.073438
0.041010
0.040487
0.006257
0.079124
0.092278
0.086104
0.068786
0.051524
0.086099
0.030814
0.092693
0.079718
-0.000952
0.106174
0.109316
0.360758
0.678749
1.030650
1.269386
1.500000
1.422415
1.260823
1.067466
0.734201
0.417614
0.041812
-0.071926
-0.143848
-0.211209
-0.191732
-0.178080
-0.108708
0.019277
0.071992
0.110571
0.066157
0.158922
0.110872
0.097535
0.140222
-0.005543
0.054677
0.046586
0.122791
0.123718
0.109833
0.143604
0.125157
0.071207
0.136392
0.072045
0.107437
0.157056
0.092338
0.144466
0.145813
0.150991
0.155048
0.112066
0.086962
0.120410
0.179851
0.194001
0.198884
0.218802
0.248258
0.249127
0.258292
0.350460
0.267146
0.283872
0.271939
0.333522
0.346072
0.420856
0.368233
0.425737
0.448824
0.445980
0.450068
0.481163
0.500970
0.540532
0.558001
0.477272
0.582635
0.537454
0.557036
0.510888
0.534386
0.604643
0.551902
0.573433
0.606343
0.574647
0.536121
0.546683
0.546557
0.519545
0.359345
0.444595
0.449308
0.390769
0.405810
0.333460
0.292864
0.346413
0.262151
0.285519
0.261931
0.320805
0.247238
0.246927
0.248021
0.238262
0.138575
0.118854
0.131386
0.149665
0.186814
0.110675
0.096486
0.032988
0.086141
0.147004
0.110485
0.064470
0.083306
0.082141
0.093883
0.064563
0.063990
0.000955
0.078222
0.026463
-0.001735
0.097726
0.119566
0.085402
0.122212
0.098226
0.090110
0.039727
0.028531
0.017455
0.086188
0.113633
0.057450
0.044411
0.017833
-0.041231
0.092409
-0.028143
0.038299
0.023783
0.119332
0.001609
0.063739
0.003485
0.055817
-0.038565
0.070087
-0.022109
0.080130
0.015036
0.116807
-0.008098
0.106938
0.025432
0.016754
-0.069897
0.008968
-0.049605
-0.045134
0.118870
-0.037466
0.073234
-0.008648
0.018706
0.018944
0.046196
-0.036359
0.050129
0.055769
0.023001
-0.001690
0.030019
0.082253
-0.015395
0.107619
-0.059723
-0.042435
0.010726
0.057492
0.020547
0.051996
0.067045
0.007058
-0.031826
0.043094
-0.006044
-0.008841
0.048884
0.011249
0.001524
0.046441
-0.036387
0.063634
0.055856
0.006171
-0.036768
0.046127
0.037452
-0.018877
0.020628
-0.005657
-0.100251
0.019242
0.080880
-0.031459
-0.036861
0.038135
0.013146
0.006240
0.036084
0.035006
0.039565
0.070399
0.008425
0.012819
0.055742
0.122470
0.037868
0.109493
0.088772
0.169539
0.105638
0.169499
0.179576
0.176980
0.140547
0.165371
0.139200
0.047548
0.130762
0.089964
0.149542
0.207317
0.140620
-0.015702
0.086859
0.088650
0.070353
0.122951
0.001135
0.086343
0.065660
0.100415
0.043108
0.004054
0.036986
0.009258
-0.045656
-0.086134
-0.060824
-0.048772
0.010912
-0.020973
-0.054585
-0.068503
-0.073387
-0.073781
-0.012498
-0.126591
-0.062671
-0.049725
-0.001666
-0.044454
-0.074453
0.033813
0.047709
-0.037403
-0.072724
-0.045451
-0.025392
-0.021942
-0.117181
-0.043310
-0.071466
-0.172738
-0.163371
-0.141148
0.067918
0.213967
0.587726
0.914666
1.237618
1.278005
1.321611
1.119438
0.842187
0.519426
0.256267
-0.074788
-0.243943
-0.285190
-0.367185
-0.269130
-0.284431
-0.140230
-0.149643
-0.043586
-0.036069
-0.001595
-0.025269
-0.089142
0.024300
-0.066828
-0.039982
-0.081273
-0.106893
-0.057702
0.011937
-0.023368
-0.094596
-0.149688
-0.127693
-0.069295
-0.113096
-0.087375
0.016680
-0.042487
0.078599
-0.011444
-0.057184
0.019976
0.022349
0.007349
0.041490
0.086513
0.000205
0.022164
0.067657
0.025937
0.096814
0.093410
0.157550
0.111127
0.148240
0.183201
0.193633
0.223834
0.327212
0.257667
0.234428
0.254771
0.314539
0.311466
0.305452
0.389434
0.422823
0.428855
0.436780
0.356597
0.388671
0.462941
0.478497
0.411486
0.441628
0.462447
0.412412
0.435131
0.384641
0.462431
0.349520
0.323918
0.319330
0.360844
0.319816
0.239701
0.297909
0.206833
0.251680
0.171313
0.135915
0.195035
0.153414
0.102478
0.073918
0.051076
0.093902
0.029775
0.074572
0.024152
-0.010252
-0.009695
-0.006609
-0.000805
-0.096013
-0.075796
-0.127558
-0.070662
-0.036209
-0.040958
-0.004713
-0.072595
-0.027900
-0.103638
0.030364
-0.028417
-0.060442
-0.127328
-0.031515
-0.009283
-0.055259
-0.051723
-0.116836
-0.099465
-0.019381
-0.040632
-0.128144
-0.057821
-0.022094
0.038631
-0.015331
-0.122168
-0.060720
-0.114371
-0.099583
-0.043092
-0.053434
-0.030645
0.014058
-0.079227
-0.007664
-0.039292
-0.128930
-0.097139
-0.147362
-0.048839
-0.027484
-0.002689
-0.065864
-0.088757
0.001972
-0.012987
-0.161369
-0.081785
-0.027527
0.036931
-0.126969
-0.092678
-0.125277
-0.051534
-0.022387
-0.067632
-0.078328
-0.086827
0.007681
-0.070569
-0.101813
-0.036312
-0.050787
-0.060316
-0.089985
-0.005227
-0.026335
-0.020122
-0.226075
-0.075304
-0.078734
-0.091618
-0.120984
-0.053837
-0.012116
-0.077378
-0.074938
-0.054349
-0.118202
-0.016993
0.026124
-0.058410
-0.056259
-0.109376
-0.123840
-0.015656
-0.089309
-0.020225
-0.078594
-0.046797
-0.032307
-0.013013
-0.024638
-0.016082
-0.075134
-0.062595
-0.049767
-0.076684
-0.015339
-0.096841
-0.061942
-0.076854
-0.046167
0.032851
-0.003910
0.121559
-0.010315
0.043677
0.011161
0.074508
0.049785
0.079227
0.056846
0.073287
0.125871
0.184105
0.123264
0.135243
0.142238
0.173984
0.126951
0.073647
0.070537
0.171396
0.063685
0.063427
0.085167
0.111443
0.092414
0.099253
0.042631
-0.005139
0.049800
0.033823
0.016888
-0.082667
0.032195
0.055536
-0.028393
-0.027449
0.026221
-0.053988
-0.029672
-0.001037
-0.087797
0.002876
-0.012644
-0.076920
-0.031326
0.030256
-0.089234
0.024206
-0.038823
-0.075854
-0.007027
-0.025613
-0.059460
-0.030710
-0.083348
-0.035784
-0.095368
0.004298
-0.069595
-0.043984
-0.118901
-0.086291
-0.073857
-0.153193
-0.162488
-0.011023
0.157433
0.288053
0.750077
0.955621
1.298535
1.341314
1.297742
1.162345
0.775237
0.476785
0.239847
-0.077307
-0.241113
-0.314609
-0.316923
-0.372709
-0.231204
-0.149249
-0.103923
-0.083562
-0.073726
-0.001940
-0.059559
0.033762
0.026303
-0.018040
-0.129667
0.063548
0.014715
0.018122
-0.033689
-0.031148
0.042056
-0.024921
0.029270
0.062934
0.033631
0.089771
0.008212
-0.033772
0.118829
0.067281
0.031930
0.005682
0.049095
0.083114
0.051705
0.184654
0.088397
0.080968
0.104320
0.190489
0.219263
0.173342
0.176615
0.207541
0.233529
0.239712
0.269860
0.300849
0.354524
0.383406
0.352083
0.377976
0.369686
0.440626
0.372477
0.461426
0.475360
0.482966
0.439082
0.505383
0.506862
0.510558
0.528688
0.585896
0.563772
0.535266
0.485092
0.563355
0.436278
0.495546
0.482078
0.416884
0.451306
0.353982
0.443357
0.377898
0.318963
0.365844
0.325054
0.363100
0.304071
0.280783
0.127112
0.259091
0.262222
0.154725
0.128026
0.171146
0.113318
0.094727
0.132065
0.119078
0.127987
0.099054
0.111722
0.031733
0.190237
0.105950
0.095565
0.054530
0.086854
0.097216
0.063516
0.034093
-0.004151
-0.000624
-0.043057
0.090139
-0.005487
0.089460
0.042403
0.020172
0.064735
-0.017191
0.035465
0.035637
0.111654
0.016639
0.016660
0.031901
-0.001756
0.086498
0.076528
0.001872
-0.037836
0.066552
0.078011
-0.023321
0.012562
0.034730
0.063561
0.054003
0.032853
-0.066229
0.019124
0.008918
-0.026957
0.075916
0.041573
0.054969
0.028468
0.019165
0.097901
0.008629
-0.033949
0.023362
0.036240
0.013726
0.090220
0.061832
0.142514
0.092545
0.076278
0.066454
0.002776
-0.026522
0.012729
0.024862
0.046733
0.003187
0.039125
0.105075
0.004864
0.020078
0.047385
0.060900
-0.003299
0.056221
-0.004801
0.097528
0.136846
-0.013376
0.078778
0.094988
-0.045529
-0.008601
0.029226
0.016497
0.051163
0.046172
0.042532
0.130176
0.034784
0.064751
0.031594
-0.005623
0.052225
0.090438
0.036360
-0.010832
0.079777
0.014953
0.029448
0.046910
0.048709
0.048184
0.055030
0.046683
0.082029
0.099840
0.121635
0.157762
0.097325
0.130912
0.192428
0.126613
0.099322
0.168774
0.153729
0.221824
0.182288
0.253486
0.144688
0.300144
0.195333
0.209806
0.161398
0.148735
0.105744
0.228534
0.217638
0.214509
0.198826
0.107943
0.145962
0.163347
0.210045
0.187160
-0.030796
0.084890
0.175034
-0.009934
0.085878
0.008069
0.158919
0.037202
0.038703
0.037748
0.042728
0.104154
0.043265
0.072914
0.036782
-0.049734
0.093466
0.049357
0.067894
0.103741
0.035824
0.019398
0.036871
-0.058384
0.028881
0.022785
0.022175
0.009937
0.022216
0.024128
0.012624
0.011855
0.015168
-0.010338
-0.028798
-0.069931
-0.093180
0.059171
0.163469
0.581482
0.837031
1.100553
1.368902
1.317172
1.267349
1.070218
0.767963
0.499842
0.250983
-0.049469
-0.194190
-0.248931
-0.281304
-0.197803
-0.086555
-0.044022
-0.111850
0.058264
-0.000084
0.048414
0.090039
0.030241
0.033441
-0.032319
0.051762
0.038611
0.076997
0.057546
0.005680
0.015321
0.065585
-0.018055
0.053156
0.070041
0.056066
-0.032735
0.070392
0.002339
0.068870
0.030349
0.146619
0.130799
0.099595
0.075053
0.108516
0.055115
0.068054
0.068742
0.103958
0.180651
0.179582
0.196598
0.160437
0.247416
0.143664
0.292814
0.188079
0.276087
0.291012
0.424749
0.412269
0.459032
0.378532
0.440226
0.375799
0.489253
0.418706
0.500965
0.545486
0.498488
0.461014
0.481866
0.563030
0.524780
0.469330
0.481258
0.532801
0.455358
0.452762
0.453414
0.403464
0.440988
0.447270
0.328852
0.411586
0.329058
0.356499
0.215605
0.220088
0.240090
0.297907
0.164676
0.258296
0.172226
0.160822
0.217842
0.109401
0.138239
0.109337
0.000784
0.125087
0.043823
0.098797
0.053791
0.097176
0.042990
0.042031
0.018628
-0.055293
0.055542
-0.047611
0.018338
0.047967
-0.044007
-0.021240
-0.060131
-0.011624
-0.048373
-0.023783
-0.032503
-0.014050
-0.012225
0.077121
0.048506
-0.013486
0.029886
-0.016031
-0.062385
0.020198
-0.053523
-0.121249
0.026245
-0.117509
-0.011878
-0.116469
-0.030412
0.002635
0.051781
-0.012503
-0.022391
-0.081238
0.063214
-0.024518
0.034621
-0.034526
-0.028812
-0.120531
-0.043298
-0.073386
-0.063621
-0.090130
0.068127
-0.057911
-0.087899
-0.057718
-0.052802
-0.128072
-0.117561
-0.078198
-0.156147
-0.044399
-0.067764
-0.152508
-0.074777
-0.021963
-0.043006
-0.008575
-0.038672
-0.182394
-0.050524
-0.057908
-0.047740
-0.050677
-0.036666
-0.071776
-0.144636
-0.151060
-0.051160
-0.061186
-0.033068
-0.100968
-0.068929
-0.080794
-0.105785
-0.124105
-0.114874
-0.018877
0.002718
-0.079002
-0.058131
-0.045241
0.007796
-0.142654
-0.111210
-0.064709
-0.090056
-0.088150
-0.107253
-0.051105
-0.029180
-0.098242
-0.029875
-0.017194
0.001147
-0.058392
0.029147
-0.057924
-0.113831
-0.100077
-0.027073
0.010985
0.010967
0.009314
-0.025606
0.060631
0.007006
0.035515
-0.006972
0.084072
0.072411
0.064540
0.062392
0.115832
0.137638
0.053274
0.119042
0.108196
0.093884
0.081945
0.068316
0.098012
0.133354
0.082765
-0.009568
0.099054
0.040439
-0.018245
-0.016709
0.041837
-0.036912
-0.040732
-0.021216
-0.060267
-0.088211
-0.026990
-0.058190
0.038615
-0.054300
-0.170187
-0.070921
-0.104215
-0.042769
-0.101263
-0.110282
-0.021153
-0.124392
-0.047696
-0.081527
-0.058809
-0.071181
-0.027515
-0.093221
-0.088056
-0.135263
-0.084735
-0.032778
-0.130749
-0.177733
-0.113702
-0.133940
-0.096872
-0.158171
-0.232431
-0.227950
-0.160056
-0.122883
0.190505
0.421296
0.705286
1.017233
1.259527
1.312151
1.117628
0.903748
0.545459
0.282207
0.036538
-0.151469
-0.326895
-0.450270
-0.389959
-0.266828
-0.255111
-0.180440
-0.073383
-0.060698
-0.077622
-0.107247
0.001219
-0.061811
-0.122298
-0.077118
-0.142437
-0.111410
-0.085515
-0.092446
-0.030641
-0.108629
-0.132036
-0.061237
-0.026604
-0.039339
-0.107346
-0.064542
-0.013282
-0.007374
-0.037151
-0.071988
-0.019337
-0.013805
-0.089572
-0.029523
0.032490
0.003769
0.017665
0.001537
0.002346
0.056428
0.082423
0.028145
0.062509
0.116755
0.067585
0.184136
0.176608
0.192457
0.231750
0.273085
0.232340
0.252565
0.295961
0.252153
0.302125
0.287958
0.335824
0.407456
0.368734
0.422455
0.409816
0.453865
0.402051
0.419548
0.414420
0.348647
0.423893
0.384677
0.375764
0.432992
0.364892
0.270188
0.323299
0.348028
0.352428
0.195481
0.267956
0.250052
0.142761
0.150387
0.151133
0.103794
0.080926
0.014140
0.059797
0.088429
0.020945
0.047451
0.071673
-0.004091
-0.014734
0.027782
0.039915
-0.051948
0.030533
-0.001373
0.010808
-0.044263
-0.012203
0.045997
-0.083922
-0.067724
-0.115282
-0.085320
-0.156217
-0.085104
-0.107027
-0.010928
-0.078075
-0.124916
-0.044778
-0.131350
-0.036177
-0.087591
-0.119388
-0.046754
0.015200
-0.066306
-0.109465
-0.020621
-0.017899
-0.033703
-0.060872
-0.044600
-0.058207
-0.035740
0.008277
-0.053778
-0.133254
-0.029473
-0.036966
-0.066912
0.010602
-0.012309
-0.052005
-0.067124
-0.053999
-0.034937
-0.103539
-0.059995
0.036799
-0.112984
-0.068375
0.018003
-0.061495
-0.047558
-0.044836
-0.059518
-0.062226
-0.109759
-0.022199
-0.058940
0.006173
-0.093700
-0.111578
-0.028786
-0.002449
-0.055332
0.004699
-0.023601
-0.029596
-0.018168
-0.052579
-0.085822
-0.025647
-0.038596
-0.011166
-0.088824
-0.026995
-0.003519
-0.085283
-0.051202
-0.023579
0.016380
-0.026742
0.034061
-0.082998
-0.045983
-0.016970
0.005740
-0.071619
-0.019656
-0.055819
-0.021000
-0.042585
-0.016341
-0.000157
0.001188
-0.026564
-0.036565
-0.058599
0.018106
0.066454
-0.012014
0.003892
-0.003046
-0.018634
-0.008260
-0.030449
0.022099
0.049903
0.069267
0.049879
0.078530
0.186258
0.089527
0.081214
-0.009561
0.176022
0.115753
0.145404
0.214215
0.118260
0.208204
0.129383
0.164207
0.149612
0.128424
0.218587
0.134735
0.157335
0.101292
0.132982
0.115887
0.045447
0.092608
0.111674
0.051081
0.086626
0.110426
-0.022156
-0.018226
0.063352
0.063965
0.028709
0.070807
0.020715
-0.040787
0.017191
0.021942
-0.000668
0.003837
0.009155
-0.063143
0.020367
0.054400
0.006820
-0.005158
0.041090
-0.014791
-0.010612
0.007259
-0.002016
0.116303
-0.002329
-0.017945
0.007746
-0.012390
0.021583
0.023953
-0.041679
-0.059056
-0.057228
-0.104052
-0.033408
0.134895
0.348089
0.721222
0.965584
1.181641
1.392180
1.391708
1.140402
0.923730
0.629670
0.359662
-0.017758
-0.098524
-0.384405
-0.308560
-0.239282
-0.211611
-0.193771
-0.008642
-0.045025
0.005957
0.093923
0.021597
-0.006015
0.023474
0.024057
0.043062
0.064728
0.028121
0.108416
0.071423
0.024077
0.124477
0.077652
0.058425
0.099471
0.004193
0.055983
0.027307
0.108794
0.095854
0.112433
0.124561
0.017924
0.166231
0.077637
0.174525
0.091138
0.146329
0.212119
0.214095
0.149795
0.101606
0.277947
0.261420
0.283629
0.259188
0.298644
0.389402
0.306665
0.380038
0.384401
0.388863
0.354738
0.462361
0.484218
0.482384
0.462334
0.454463
0.475307
0.522703
0.548979
0.520921
0.516071
0.583487
0.497529
0.585192
0.571069
0.582902
0.542400
0.500154
0.579654
0.474219
0.456850
0.381509
0.430822
0.471721
0.455694
0.401177
0.358201
0.399040
0.375357
0.333663
0.297226
0.290132
0.288979
0.236985
0.278511
0.209653
0.212618
0.148017
0.208619
0.227743
0.167932
0.068896
0.118831
0.177129
0.181745
0.033998
0.108120
0.088169
0.051118
0.068172
0.078674
0.117261
-0.008457
0.077659
0.011242
0.077882
0.085087
0.064238
0.158739
0.119288
0.065136
0.076960
0.073290
0.105042
0.033413
0.071867
0.081129
0.009308
0.039953
0.054659
0.011477
0.079186
0.103106
0.123985
0.023674
0.046572
0.099555
0.079757
0.128845
0.058604
0.010748
0.050599
-0.043120
0.050296
0.097199
0.135650
0.033784
0.057886
0.078944
0.040333
0.035802
0.085230
0.123965
-0.016467
0.024511
0.153217
0.037269
0.086457
0.076028
0.023763
0.097049
0.057560
0.050106
0.115445
0.053605
0.111170
0.070518
-0.011969
0.129612
