-0.029468
-0.085473
-0.023941
-0.001699
0.054591
-0.021201
0.035357
0.023829
0.001057
0.008526
0.047343
-0.023144
-0.030009
-0.023644
-0.003539
0.047415
-0.007681
0.057914
0.058280
-0.019583
-0.033214
0.059501
0.061195
0.053745
-0.000257
0.073356
-0.051612
0.018590
0.050856
0.108221
0.098078
0.075083
0.072084
0.086346
0.103843
0.111298
0.060111
0.001767
0.075008
0.111085
0.130335
0.095572
0.147611
0.223530
0.106534
0.104270
0.163463
0.217708
0.250923
0.183708
0.206465
0.169709
0.216809
0.286188
0.222777
0.157100
0.153391
0.164431
0.099108
0.123403
0.170471
0.097770
0.129935
0.173723
0.194414
0.046944
0.091842
0.107429
0.125656
0.087746
0.133354
0.075384
0.102195
0.096707
0.072996
0.048403
0.004404
0.076878
0.046041
0.023270
0.062900
0.049581
0.020116
0.050523
0.065240
0.076259
0.040014
0.050726
0.055608
0.095468
0.107625
0.002751
0.067412
0.039817
0.022684
-0.040485
0.009460
0.010943
0.143941
0.333005
0.605863
0.931852
1.218891
1.491112
1.417256
1.317196
0.975750
0.613825
0.382159
0.062606
-0.085854
-0.232901
-0.244125
-0.223352
-0.096557
-0.092605
-0.074742
0.087903
0.048287
0.041427
0.036436
-0.000206
0.091594
0.109600
0.124667
0.102892
-0.008224
0.115417
0.117232
0.113217
0.184905
0.135462
0.130183
0.084044
0.125842
0.106632
0.084244
0.179225
0.113160
0.157852
0.145648
0.076242
0.142662
0.153957
0.195135
0.245202
0.263560
0.290728
0.256316
0.292735
0.325440
0.307250
0.350596
0.365134
0.426525
0.451772
0.497651
0.418170
0.420753
0.514282
0.542972
0.595218
0.581716
0.509220
0.579045
0.516666
0.594051
0.556828
0.627409
0.617344
0.605257
0.621083
0.548579
0.579126
0.605652
0.449363
0.482411
0.556505
0.503520
0.465875
0.419324
0.352003
0.359074
0.412293
0.370183
0.340409
0.340449
0.250783
0.250612
0.232047
0.221881
0.278568
0.201178
0.231291
0.163840
0.216741
0.220697
0.127942
0.164881
0.148757
0.163483
0.093291
0.132440
0.105932
0.063129
0.039215
0.114947
0.140412
0.071891
0.090005
0.060985
0.124211
0.060129
0.116736
0.175062
0.064151
0.125426
0.170850
0.087069
0.107626
0.046390
0.125696
0.111242
0.074381
0.040763
0.061233
0.080845
0.194124
0.061705
0.141913
0.121692
0.070642
0.060183
0.139429
0.103747
0.073747
0.063570
0.130372
0.070867
0.124769
0.165962
0.114579
0.129405
0.104376
0.067354
0.096135
0.012061
0.089478
0.015410
0.003636
0.117577
0.015971
0.168520
0.058104
0.150748
0.074012
0.143681
0.057856
0.036114
0.068074
0.092969
0.041811
-0.031596
0.023603
0.114754
0.084706
0.123925
0.061087
0.072551
0.051394
0.055977
0.058212
0.064685
0.121009
0.044722
0.011578
0.039739
0.088744
0.117175
0.039564
0.065787
0.090701
0.011974
0.064190
0.095170
0.056588
0.087616
0.164502
0.061097
0.084039
0.143804
0.073816
0.035048
0.004742
0.134225
0.093504
0.153867
0.096137
0.109086
0.104017
0.197482
0.137843
0.235314
0.274609
0.238541
0.126572
0.182688
0.216373
0.143287
0.232506
0.236726
0.286731
0.204907
0.269939
0.209156
0.243563
0.147779
0.258302
0.162614
0.191198
0.153906
0.066513
0.112589
0.157988
0.100421
0.139493
0.165634
0.043334
0.090367
0.072773
0.080521
0.055604
0.046559
0.148309
0.002154
0.088213
-0.000229
0.047580
0.073396
0.018137
0.033941
0.077001
0.104152
0.079554
0.034666
0.020528
-0.005337
0.095729
0.003075
0.029133
-0.026711
-0.036191
0.059636
0.068800
-0.025483
-0.061986
0.068793
0.130208
0.365924
0.819222
1.017357
1.294620
1.414809
1.400043
1.055308
0.835399
0.539541
0.180002
-0.065754
-0.220355
-0.278015
-0.258956
-0.177971
-0.187194
-0.014059
-0.000690
-0.017440
0.072006
-0.036083
-0.053989
0.038513
0.067886
0.024747
0.030844
-0.049766
-0.011980
0.019987
0.004272
0.061372
0.047979
-0.014944
-0.044219
0.032008
0.075998
0.033772
0.053881
0.089319
0.116700
0.053715
0.137141
0.084926
0.165391
0.115620
0.202503
0.149481
0.199908
0.182797
0.222084
0.248123
0.281039
0.216851
0.313551
0.237111
0.340487
0.393535
0.412220
0.371026
0.417027
0.345146
0.459514
0.462978
0.494769
0.526754
0.504906
0.486840
0.450418
0.484211
0.389956
0.495496
0.529021
0.371836
0.513307
0.457550
0.406658
0.475283
0.450065
0.407966
0.391161
0.390560
0.269127
0.413092
0.317278
0.350055
0.273061
0.230743
0.209903
0.243062
0.251245
0.268231
0.159570
0.163463
0.153235
0.112298
0.111442
0.129480
0.047696
0.121966
0.017807
0.083011
0.004960
-0.028715
0.054840
0.017535
0.010994
0.024925
-0.058839
-0.041462
0.009213
0.013948
0.009786
0.003731
-0.036511
-0.059867
-0.034580
0.028198
-0.001631
0.000986
-0.042905
-0.029187
-0.024131
0.092656
0.038121
0.030427
0.033667
-0.046120
-0.038901
0.009627
0.016269
-0.041650
0.009319
-0.003139
-0.067826
-0.029578
-0.001873
-0.002637
-0.039957
-0.011248
-0.010483
-0.059732
-0.050723
-0.029797
-0.018560
-0.062272
-0.041311
-0.047078
-0.062597
-0.041214
-0.008345
0.032665
-0.048889
0.008150
-0.064261
-0.059668
-0.030811
0.054318
-0.093115
-0.101614
-0.083270
-0.113168
-0.041717
-0.086729
-0.037849
-0.090063
-0.028876
0.000897
0.013926
0.012653
0.002304
-0.040450
-0.030579
-0.008988
-0.069178
-0.037046
-0.006648
-0.039866
0.027343
-0.043143
-0.123971
-0.075444
-0.035771
-0.026228
0.075122
-0.067666
0.023612
-0.082271
-0.039600
-0.006380
0.036755
-0.009177
-0.068722
-0.051393
0.014063
-0.001038
0.041274
0.005886
0.021786
0.003434
0.044297
-0.015865
0.043642
0.127577
0.122296
0.128851
0.080402
0.160037
0.117287
0.122578
0.213874
0.086361
0.188838
0.087676
0.127042
0.174979
0.148594
0.103070
0.076896
0.090454
0.032561
0.134147
0.085312
0.039480
0.040467
-0.017347
0.039049
-0.068639
-0.020827
-0.010653
-0.044483
-0.087057
-0.053077
-0.045962
0.022971
-0.079035
-0.021126
0.003876
-0.020478
-0.111743
-0.082674
-0.076028
-0.026901
-0.014012
-0.063609
-0.075318
0.000953
-0.009836
-0.065395
-0.062716
-0.053416
-0.050837
-0.101058
-0.149714
-0.095967
-0.052632
-0.120058
-0.087737
-0.073926
0.201592
0.387235
0.739843
1.138902
1.344243
1.377282
1.190087
0.956670
0.646379
0.399322
0.134712
-0.233741
-0.308423
-0.365163
-0.357020
-0.268924
-0.155672
-0.116237
-0.130624
-0.074078
-0.019664
-0.051160
-0.081300
0.021107
0.012514
0.024395
-0.059674
-0.043241
-0.020028
-0.029891
-0.014663
0.022803
0.050525
-0.022869
-0.040585
0.018094
0.062176
0.004443
-0.000781
0.067953
0.077625
0.092861
0.095448
0.050725
0.071375
0.052991
0.172032
0.229581
0.143763
0.155110
0.212607
0.310611
0.262103
0.230889
0.232743
0.299302
0.294342
0.377905
0.228240
0.330014
0.368041
0.401876
0.367012
0.472999
0.379447
0.462221
0.471928
0.520870
0.513855
0.464360
0.458044
0.478432
0.485254
0.455754
0.494567
0.358718
0.513096
0.445896
0.414533
0.393250
0.356125
0.376442
0.418013
0.265435
0.323821
0.277862
0.177030
0.298263
0.249560
0.209451
0.200956
0.144931
0.123601
0.141705
0.066058
0.141668
-0.023660
0.075750
0.034537
0.039117
0.114419
0.021649
0.087234
0.070663
0.068947
0.082667
-0.010684
0.020084
0.010025
0.047304
0.068007
-0.010104
0.054115
0.090845
-0.030531
-0.010614
0.023639
-0.002681
0.060972
0.060554
0.047482
-0.046792
0.016739
0.016578
0.008180
-0.025217
0.022952
0.038054
0.069014
0.049933
0.046926
0.099870
0.102811
-0.031263
-0.027221
0.044530
0.120136
0.016882
-0.019917
0.065735
-0.006481
0.019693
-0.014360
0.016130
0.044138
0.049563
0.002218
-0.061433
0.021273
0.014137
-0.024818
0.001511
0.009009
-0.019735
0.061324
0.114258
0.028515
0.058432
0.055393
0.033142
0.050157
-0.024725
-0.004726
0.039583
-0.022986
0.094810
0.006360
0.095616
0.093122
-0.007085
0.018782
0.082603
0.084701
-0.006913
0.025070
0.060285
0.002894
0.100128
0.076339
0.068949
0.047824
0.016921
0.005414
0.035866
0.000062
0.051875
0.075920
0.148621
0.072783
0.092218
0.003903
0.173756
0.040145
0.124452
0.173124
0.057696
0.112767
0.156421
0.187009
0.210389
0.026834
0.201907
0.175291
0.091901
0.168328
0.216718
0.181786
0.235143
0.244862
0.222102
0.261694
0.236492
0.216585
0.218659
0.250066
0.245609
0.213242
0.282685
0.199965
0.226049
0.188176
0.219437
0.220023
0.200151
0.087818
0.180974
0.179015
0.076745
0.061410
0.019403
0.175046
0.079354
0.062171
0.142456
0.105503
0.203640
0.074215
0.106679
0.093233
0.129176
0.070978
0.037037
0.116621
0.109141
0.058568
0.139767
0.044389
-0.042484
0.094455
0.083538
0.070896
0.027959
0.001412
0.032399
0.002526
-0.007216
0.050058
0.009803
0.174423
0.410328
0.670711
1.128201
1.386795
1.469910
1.500000
1.230583
1.035055
0.728728
0.353615
0.131268
-0.161481
-0.290069
-0.252528
-0.133225
-0.125166
0.003511
-0.000759
0.047291
0.043810
0.093827
0.120434
0.107986
0.114398
0.123115
0.130244
0.077696
0.131922
0.079637
0.148142
0.089467
0.101015
0.075062
0.111699
0.045807
0.133991
0.128097
0.075894
0.082049
0.177975
0.120702
0.225388
0.131575
0.179006
0.113287
0.242362
0.263461
0.258893
0.314593
0.355203
0.319491
0.334178
0.406141
0.447093
0.402332
0.430974
0.485558
0.392776
0.569567
0.487163
0.558772
0.516861
0.564132
0.589987
0.617317
0.491787
0.524618
0.578108
0.660841
0.558935
0.615011
0.583037
0.524947
0.598810
0.527796
0.562508
0.544187
0.503255
0.510305
0.510611
0.484795
0.490612
0.497383
0.412596
0.395125
0.352737
0.322334
0.386411
0.372014
0.308904
0.274575
0.245102
0.254729
0.211087
0.200046
0.176719
0.241853
0.147142
0.160260
0.206942
0.170481
0.158430
0.105223
0.084959
0.114344
0.151127
0.032117
0.069251
0.114800
0.043429
0.084265
0.047859
0.050921
0.120166
0.101092
-0.022310
0.024503
-0.006607
0.131300
0.074864
0.106820
0.080847
0.004271
0.085566
0.071328
0.033531
0.127663
0.076889
0.075303
0.050481
0.079465
0.103688
0.022150
0.166558
0.061976
0.065203
0.091892
0.037807
0.149385
0.152071
-0.031684
0.059193
0.120793
-0.031819
0.081574
0.106912
0.125351
0.081630
0.103439
0.129792
0.089182
0.091213
0.066192
0.117277
0.108881
-0.006480
0.132923
0.184732
0.130355
0.123391
0.110899
0.096877
0.066514
0.061285
0.078867
0.067242
0.101277
0.101179
0.070723
0.054509
0.074671
0.095222
0.032661
0.025788
0.077035
0.044818
0.049704
0.086324
0.066180
0.093449
0.058260
0.109688
0.045794
0.030913
0.048797
0.085867
0.113381
0.044799
0.038564
0.149738
0.133568
0.182688
0.053302
0.044720
0.040393
0.054712
0.123004
0.163087
0.092988
0.120614
0.119648
0.167370
0.145900
0.112455
0.169815
0.114670
0.195862
0.093076
0.246476
0.176369
0.206241
0.217576
0.239320
0.213296
0.171100
0.189366
0.240768
0.157013
0.217324
0.210714
0.181532
0.039318
0.046013
0.191299
-0.008116
0.086530
0.141525
0.117239
0.131450
0.055121
0.054716
0.019427
0.061626
0.041031
0.027134
-0.002932
0.040537
0.051578
0.042414
-0.005976
0.124825
-0.039399
0.084646
0.022977
0.037648
0.046324
-0.018128
0.011271
0.013064
0.045471
0.076276
0.000553
0.021513
-0.041450
-0.022394
-0.175380
-0.048357
0.013197
0.119489
0.426685
0.813229
1.102947
1.322093
1.371577
1.365779
1.102804
0.824355
0.449100
0.188136
-0.040269
-0.269942
-0.304787
-0.285609
-0.235592
-0.083795
-0.053077
-0.051435
0.014291
-0.039011
0.035129
-0.045478
-0.055349
0.004414
-0.009400
-0.138064
-0.028525
-0.066444
-0.002074
0.033974
0.055983
0.015653
-0.019816
-0.034071
0.008542
0.033142
-0.014488
0.069569
0.132041
0.055124
0.136050
0.063237
0.025812
0.012640
0.087345
0.151484
0.155485
0.148762
0.144681
0.186709
0.182322
0.274558
0.193147
0.272256
0.334735
0.226256
0.341341
0.345355
0.381657
0.398598
0.388648
0.365804
0.388634
0.418314
0.486356
0.516334
0.418198
0.493589
0.499576
0.502039
0.450677
0.440486
0.445978
0.503354
0.376982
0.330884
0.352319
0.412593
0.286091
0.396361
0.343633
0.352332
0.396951
0.329023
0.219985
0.369474
0.161931
0.155339
0.170379
0.210453
0.227531
0.120373
0.082888
0.120868
0.066856
0.084552
0.093045
-0.001532
-0.036086
-0.003752
-0.008865
0.104354
-0.033694
-0.063727
-0.000841
-0.014006
-0.085460
-0.044410
-0.049387
-0.017088
-0.079827
-0.064751
0.004094
-0.078912
-0.035967
-0.076313
-0.044269
-0.080536
0.012861
-0.049333
-0.085256
-0.047130
-0.087976
-0.039938
-0.067796
-0.100437
-0.020692
-0.143182
-0.097178
0.040830
-0.042650
-0.101418
-0.059402
-0.029793
-0.031571
0.035091
-0.086367
-0.039178
-0.087717
-0.132662
-0.054059
-0.088181
-0.062953
-0.052642
-0.111294
-0.045125
-0.126153
-0.073111
-0.059849
-0.010220
-0.087308
-0.138776
-0.018345
-0.021779
-0.100575
-0.031079
-0.025427
0.018839
0.006379
-0.052747
-0.107882
-0.094412
-0.027242
-0.070901
-0.055821
-0.098664
-0.076973
-0.100410
-0.084863
-0.093845
-0.025330
-0.106038
-0.027958
-0.052861
-0.058535
-0.097878
-0.059861
-0.164431
-0.143158
0.001677
-0.055606
-0.063092
-0.060901
-0.056346
0.001624
-0.051779
-0.143997
-0.076822
-0.088031
-0.040184
-0.032272
-0.004081
-0.055782
-0.063009
-0.055089
-0.035812
0.006747
0.025353
0.014390
-0.052687
0.077871
0.023979
0.039637
0.046129
0.033002
0.090252
0.057403
0.081685
0.085486
0.100862
0.105369
0.042872
0.084413
0.054095
0.165671
0.037229
0.063971
0.080058
0.098201
0.068736
0.029574
0.006038
0.052215
0.033309
-0.004312
-0.073158
-0.014272
-0.027535
-0.037688
-0.031914
-0.089492
-0.075294
-0.070780
-0.102805
-0.015607
-0.023237
-0.044987
-0.126349
0.006341
-0.059572
-0.064366
-0.112669
-0.134198
-0.049749
-0.065321
-0.048073
-0.134477
-0.119029
-0.137359
-0.084849
-0.044374
-0.041166
-0.089757
-0.214640
-0.123731
-0.171760
-0.148535
0.007510
0.137829
0.409210
0.754279
1.105769
1.238934
1.412927
1.214900
0.939006
0.616228
0.280100
-0.014568
-0.260441
-0.317430
-0.380863
-0.368855
-0.194019
-0.128326
-0.200751
-0.143735
-0.052992
-0.076195
-0.068809
0.042365
-0.061507
0.003031
0.001151
-0.112827
-0.057065
-0.016951
-0.072259
0.007092
-0.093657
0.030292
0.031117
-0.013992
-0.027715
-0.027678
0.027424
0.071604
0.028252
0.045352
0.004973
0.080598
0.024689
0.110151
0.047136
0.097763
0.178478
0.155660
0.140884
0.246055
0.215801
0.203179
0.144449
0.165535
0.276492
0.262812
0.276374
0.368115
0.407295
0.370103
0.355740
0.312769
0.400056
0.446772
0.364188
0.472931
0.452667
0.364541
0.441173
0.553812
0.504534
0.521548
0.468003
0.422072
0.411169
0.418467
0.393858
0.285106
0.415952
0.363748
0.291312
0.264495
0.321113
0.265498
0.211147
0.235463
0.241209
0.220596
0.164442
0.198200
0.147751
0.056743
0.113480
0.086938
0.073369
0.099430
0.011676
0.128425
0.068202
0.158784
-0.019374
0.067626
0.008506
0.002473
0.046631
-0.001272
-0.041989
-0.045284
-0.035476
-0.049724
-0.075815
-0.019025
0.004409
0.006728
0.019707
0.041271
-0.052291
0.058161
0.006208
-0.071883
-0.008386
0.017481
-0.027096
-0.017265
-0.015714
-0.004734
-0.051908
0.040520
-0.093689
-0.043808
0.072503
-0.022442
-0.053110
0.079540
-0.066112
0.007397
-0.048466
-0.004453
-0.042284
0.003076
0.047686
-0.053941
-0.011392
0.016415
0.052083
-0.016600
0.032461
0.028605
0.065814
0.043558
-0.038125
-0.064361
-0.000406
0.065605
0.010442
-0.040225
-0.013989
0.020310
-0.095706
-0.027238
-0.088630
0.043159
0.057638
-0.012219
0.074567
-0.031303
0.057708
0.091302
0.021099
-0.002153
0.018756
0.005102
-0.022618
0.031127
0.052179
-0.015693
0.011051
-0.025613
0.038572
-0.024203
-0.006785
0.009972
0.091962
0.044031
0.033672
-0.000266
0.024238
0.091645
0.037511
0.072653
0.068791
0.094081
0.039809
0.029812
0.082142
0.039840
0.069974
0.071125
0.118574
0.165922
0.129065
0.139538
0.171593
0.161802
0.213285
0.080943
0.163770
0.188633
0.185943
0.142796
0.172782
0.220147
0.228961
0.197473
0.211074
0.195502
0.179352
0.155445
0.143595
0.184831
0.077476
0.154120
0.138268
0.075188
0.083854
0.113949
0.048408
0.093865
0.079037
0.060641
0.036525
0.071923
0.033954
0.091623
0.100301
0.074876
0.054726
-0.005184
-0.011961
0.082261
0.080866
-0.005480
0.022547
0.032565
0.045347
0.053219
-0.027549
-0.063968
0.067483
0.045537
0.009955
0.104082
-0.029632
-0.047136
-0.022031
0.013924
0.058482
0.111818
0.384648
0.668344
1.028043
1.280875
1.458952
1.485133
1.234442
0.909563
0.620358
0.204334
0.092698
-0.191678
-0.183276
-0.313370
-0.149561
-0.094443
0.081313
0.027537
0.057215
0.052774
0.075576
0.099280
0.013755
0.049629
0.057424
0.070024
0.060502
0.027502
0.104509
0.046763
-0.011417
0.107993
0.066258
0.034245
0.086954
0.110184
0.047123
0.088911
0.041886
0.126892
0.157939
0.167693
0.173492
0.164544
0.185171
0.194762
0.218689
0.183846
0.287916
0.242168
0.319654
0.323828
0.331921
0.261245
0.315232
0.465510
0.475301
0.455320
0.440982
0.425133
0.453483
0.502465
0.511702
0.482485
0.542413
0.552960
0.562955
0.512065
0.575907
0.575915
0.601702
0.456556
0.486583
0.553270
0.511845
0.545961
0.557491
0.479075
0.510357
0.432387
0.401418
0.414756
0.339560
0.364031
0.289200
0.354569
0.206689
0.201400
0.293484
0.261349
0.192380
0.167761
0.160068
0.196025
0.168684
0.190595
0.116150
0.107177
0.087214
0.127088
0.171782
0.052845
0.137255
0.065114
0.111929
0.080037
0.032521
0.023456
0.024537
0.065167
0.107685
0.070353
0.039695
0.031564
0.052966
0.057108
0.063500
0.025684
0.003417
-0.017610
0.055879
0.078189
0.131048
0.009778
0.040588
0.056792
-0.000455
-0.015265
0.020113
-0.020830
0.037785
-0.011154
0.047502
0.018052
0.042064
0.019194
0.004970
-0.052400
0.058863
-0.017115
-0.016774
-0.001239
0.011290
0.002905
0.065354
0.045709
0.003139
0.062824
0.031773
-0.011305
0.036160
0.092703
0.040826
0.062701
0.033787
0.047824
0.035710
0.001594
0.097208
0.025145
0.019402
0.054183
0.046532
0.018051
0.110984
-0.051571
0.025308
0.021963
0.032512
0.035870
-0.033707
0.050657
-0.048968
-0.009989
0.033758
0.072999
-0.026245
-0.006446
0.026581
0.033254
-0.032266
0.076305
-0.058600
0.015911
0.014052
0.048080
-0.042056
-0.012881
-0.043396
0.019447
-0.035493
0.057050
0.046641
0.116265
0.003181
0.100860
0.078022
0.097913
0.068020
0.133485
0.155480
0.068135
0.139962
0.187837
0.135290
0.200361
0.212785
0.163673
0.139748
0.140495
0.114302
0.131697
0.165255
0.185962
0.155024
0.191545
0.130552
0.163246
0.179981
0.105733
0.082736
-0.003945
0.106900
0.030898
0.076405
0.062110
0.102329
0.001669
0.030292
0.104370
0.026893
0.051701
-0.007520
-0.006105
0.026319
-0.080927
-0.061204
0.023173
-0.056212
0.027909
-0.070050
-0.006624
-0.026752
-0.037298
0.040146
-0.071599
-0.072950
-0.081680
-0.083058
0.054143
-0.024265
-0.080366
-0.035918
-0.019144
-0.013580
-0.219030
-0.117634
-0.067771
0.148625
0.404176
0.775071
1.044719
1.254388
1.451642
1.289870
0.999530
0.696270
0.333747
0.082293
-0.163134
-0.284899
-0.337253
-0.380703
-0.239510
-0.192568
-0.114607
-0.067739
-0.011107
-0.059656
-0.131917
-0.067843
-0.058059
0.022090
-0.034594
-0.047036
0.013886
0.008961
0.036868
-0.032809
-0.070409
-0.026070
-0.040209
-0.060961
0.028251
0.046448
-0.084160
-0.017156
0.007878
0.041845
0.014177
0.008441
0.058842
0.094932
0.063772
0.029623
0.122060
0.092383
0.143696
0.098937
0.264123
0.199290
0.250460
0.250460
0.303062
0.293232
0.329290
0.282565
0.309073
0.278485
0.298660
0.386007
0.464685
0.361709
0.372933
0.478426
0.448251
0.368870
0.436986
0.390799
0.426840
0.400309
0.352613
0.449036
0.345400
0.373278
0.329862
0.327847
0.302940
0.281613
0.395657
0.267657
0.269507
0.156070
0.225684
0.238770
0.281364
0.176059
0.134863
0.140608
0.069726
0.002980
0.058374
-0.028044
-0.020779
-0.007243
0.007741
-0.000314
0.013237
-0.050669
-0.028912
-0.034393
-0.075040
-0.011775
-0.055828
-0.068832
-0.040255
-0.168150
-0.040246
-0.069396
-0.135717
-0.115680
-0.085227
-0.066210
-0.030767
-0.064576
-0.065454
-0.060712
-0.136445
-0.129905
-0.082296
-0.036071
-0.079518
-0.130993
-0.137633
-0.012584
-0.050960
-0.087469
-0.145794
-0.068302
-0.066726
-0.089175
-0.109989
-0.141192
-0.114925
-0.145413
-0.073414
-0.102571
-0.093419
-0.020782
-0.058562
-0.087745
-0.138772
-0.036569
-0.064115
0.002753
-0.140340
-0.133955
-0.214581
-0.154026
-0.053044
-0.101893
0.006914
-0.128467
-0.113119
-0.080902
-0.108512
0.001096
-0.120747
-0.169141
-0.096793
-0.084200
-0.103929
-0.112955
-0.122099
-0.036716
-0.151570
-0.098130
-0.107869
-0.107450
-0.038860
-0.086227
-0.127101
-0.112910
-0.042436
-0.113130
-0.084043
-0.063396
-0.002100
-0.101406
-0.110037
-0.153563
-0.156356
-0.105372
0.025582
-0.110675
-0.042390
-0.054846
-0.066973
-0.025117
-0.140454
-0.041058
-0.011624
-0.076367
-0.043073
-0.072302
0.011626
-0.070643
-0.117197
-0.042128
0.069670
-0.008262
0.042361
0.139513
0.119080
0.086300
0.064452
0.133059
0.051004
0.088081
0.016500
0.104759
0.072550
0.038544
0.043717
-0.004134
0.153129
0.029322
-0.024558
0.075800
0.026090
0.091900
0.096942
-0.015232
0.015369
-0.062987
0.000556
-0.087636
-0.121327
-0.119027
-0.054733
-0.066914
-0.058293
-0.121550
-0.096690
-0.113120
-0.084103
-0.054351
-0.083105
-0.139410
-0.151145
-0.059807
-0.052270
-0.072607
-0.091634
-0.102448
-0.060962
-0.016253
-0.131025
-0.042099
-0.096801
-0.060108
-0.151859
-0.064037
-0.075102
-0.174164
-0.140537
-0.039277
0.262711
0.439048
0.870817
1.164807
1.338558
1.228609
1.178639
0.799008
0.553633
0.181654
-0.058046
-0.244850
-0.302572
-0.479003
-0.268105
-0.264998
-0.182968
-0.102559
-0.159225
-0.119815
-0.102002
-0.060388
-0.060328
-0.056559
-0.096100
-0.109105
-0.122420
0.015364
-0.019708
-0.023554
-0.058754
-0.083167
-0.041280
0.012919
-0.056575
0.023967
-0.061579
0.064804
0.013062
0.055883
0.003165
-0.038231
0.058179
0.032772
0.071288
0.088368
0.090510
0.197979
0.168860
0.166940
0.104443
0.192885
0.188301
0.179484
0.355520
0.276202
0.246719
0.325464
0.373220
0.324472
0.307226
0.352292
0.426899
0.422577
0.467042
0.463110
0.445718
0.489335
0.492321
0.415693
0.598880
0.386619
0.443793
0.491235
0.407672
0.465313
0.461769
0.414315
0.357937
0.336773
0.332448
0.342953
0.245441
0.245348
0.373153
0.326104
0.153604
0.307839
0.208406
0.158971
0.139466
0.132508
0.091454
0.059838
0.078856
0.057856
0.093281
0.129613
0.098764
-0.002171
0.070036
0.045952
-0.041916
-0.042387
-0.001276
0.036765
-0.027211
-0.036332
0.000010
0.077622
0.049654
-0.021836
0.046292
0.015686
0.009616
-0.018876
0.037602
0.019607
-0.037015
0.062007
0.005245
-0.055902
0.043269
-0.017927
0.022395
-0.004360
0.027734
-0.042061
-0.052260
-0.005812
-0.016428
0.063977
-0.006417
-0.055129
-0.026256
0.051618
0.016585
0.022394
-0.023132
0.017772
-0.032588
-0.017904
0.029414
0.042672
-0.077594
-0.032557
0.040885
0.061295
-0.031416
0.000017
0.035394
0.008913
-0.042359
0.025935
0.001528
0.043817
0.053839
0.024625
0.106942
-0.052255
-0.027938
-0.006161
0.008876
0.046244
-0.027294
-0.029488
0.087998
0.037575
-0.014911
0.009237
0.052431
0.052717
0.050790
0.063212
0.022711
0.000165
0.044879
-0.016681
0.038947
-0.047024
-0.006963
0.016680
-0.053519
-0.033234
0.042412
0.072659
0.055247
0.029564
-0.003171
0.018728
0.058763
0.012847
0.076949
0.131773
0.081762
0.118062
0.096425
0.090298
0.149383
0.058089
0.161091
0.172560
0.144264
0.200206
0.172257
0.220905
0.125125
0.180926
0.203390
0.135185
0.243045
0.185508
0.153388
0.232635
0.260197
0.246286
0.193498
0.191643
0.119706
0.144652
0.137706
0.167893
0.144023
0.170323
0.125115
0.102455
0.104908
0.111098
0.070918
0.112832
0.113140
0.067911
0.052974
0.112431
0.036607
0.042050
0.104246
0.050130
0.104262
0.020595
0.126735
0.048994
0.059961
0.005747
0.058197
0.186957
0.139991
0.100400
0.082260
0.127832
0.064290
0.125433
0.082504
0.007356
-0.005318
0.030809
-0.067317
0.049392
0.183919
0.452020
0.753238
1.105215
1.299575
1.470152
1.368271
1.226149
0.876923
0.576629
0.232001
-0.081096
-0.124207
-0.264027
-0.235531
-0.219648
-0.136694
-0.029360
0.093633
0.036450
0.066858
0.037491
0.146367
0.151741
0.044918
0.062695
0.090024
0.070253
0.206627
0.095892
0.086272
0.174992
0.080807
0.059476
0.071976
0.106643
0.079988
0.147246
0.109494
0.216875
0.072088
0.101114
0.138503
0.107012
0.206796
0.158538
0.300812
0.335865
0.246979
0.341499
0.314627
0.272596
0.278420
0.392397
0.351716
0.316111
0.425508
0.423025
0.392342
0.376079
0.554510
0.443627
0.544208
0.413766
0.511996
0.546656
0.589428
0.507846
0.641940
0.547743
0.539475
0.562734
0.516495
0.680409
