0.030951
-0.008869
-0.075579
-0.023673
-0.020283
0.015584
0.033657
0.008219
-0.026508
0.013174
0.023129
-0.069725
0.039219
0.088785
-0.024985
0.046963
0.089254
-0.034769
-0.006292
0.050906
0.000439
0.085344
0.107486
0.061301
0.089807
0.082515
0.205667
0.147607
0.191360
0.109253
0.155785
0.246348
0.178850
0.157771
0.198452
0.174926
0.225198
0.220525
0.267916
0.191766
0.290626
0.188998
0.198385
0.192282
0.126197
0.176111
0.201647
0.135776
0.215132
0.146086
0.198132
0.125078
-0.014975
0.088050
0.143386
0.152421
0.118729
0.080903
0.022750
0.038348
0.046445
0.072224
0.094743
0.178445
0.061123
0.018217
0.068283
0.029190
0.013116
0.062767
0.090366
0.222295
0.395106
0.787452
1.090926
1.367992
1.463215
1.498410
1.134130
0.772003
0.410480
0.148409
-0.161719
-0.207291
-0.211894
0.046616
-0.033331
-0.016570
0.082434
0.115317
0.033715
0.082688
0.107922
0.120594
0.222859
0.198892
0.241541
0.151770
0.189183
0.178967
0.236633
0.227678
0.209761
0.272646
0.310403
0.275983
0.374706
0.323192
0.456550
0.429767
0.342828
0.497262
0.472278
0.460891
0.542836
0.540183
0.433231
0.498840
0.529008
0.621942
0.465824
0.654585
0.616402
0.571928
0.660146
0.605672
0.629032
0.567886
0.544321
0.614397
0.520441
0.483307
0.505634
0.477777
0.505666
0.415402
0.532152
0.464206
0.347611
0.385031
0.397685
0.381282
0.327061
0.313235
0.279439
0.264869
0.246820
0.238952
0.284432
0.202452
0.152920
0.179944
0.183587
0.146479
0.198390
0.147244
0.183307
0.112746
0.114780
0.059356
0.150775
0.077494
0.141739
0.143115
0.054279
0.097864
0.135155
0.112398
0.133751
0.048449
0.089615
0.050137
0.150865
0.009755
0.059580
0.087229
0.084053
0.115371
0.087050
0.071437
0.148405
0.101231
0.121927
0.095892
0.120080
0.032603
0.190974
-0.019026
0.033221
0.093779
0.020643
0.102856
0.005193
0.052517
0.089267
0.075775
0.121233
0.050423
0.146111
0.038614
0.100152
0.056103
0.048722
0.069987
0.087600
0.139788
0.080318
0.083989
0.117153
0.178984
0.115472
0.154010
0.142980
0.155763
0.200734
0.169532
0.266744
0.252913
0.160057
0.220278
0.294003
0.228508
0.326557
0.205357
0.261625
0.260156
0.337270
0.273334
0.356100
0.238086
0.218777
0.262458
0.248170
0.269392
0.208251
0.245624
0.222434
0.212737
0.254859
0.184379
0.203274
0.158437
0.093362
0.046721
0.094966
0.110160
0.088847
0.053413
0.081703
0.020368
0.088678
0.103430
0.080779
0.070100
0.106957
0.141186
-0.033815
0.026222
0.190994
0.153229
0.184937
0.233492
0.542089
0.799482
1.173340
1.383107
1.477574
1.336052
1.125102
0.774803
0.345459
0.059698
-0.045852
-0.162734
-0.109497
-0.109053
-0.037241
0.107664
0.076638
0.071240
0.090248
0.180303
0.162233
0.147277
0.145915
0.128365
0.165725
0.130427
0.201829
0.234727
0.269912
0.269610
0.175333
0.312930
0.394312
0.314818
0.306494
0.363343
0.379393
0.410346
0.442774
0.446220
0.426091
0.505175
0.429836
0.510852
0.538161
0.564594
0.594091
0.521585
0.519884
0.540321
0.602721
0.601620
0.600278
0.600902
0.572887
0.721672
0.544170
0.549273
0.618999
0.558821
0.540266
0.525748
0.431970
0.427683
0.361148
0.356375
0.358926
0.301512
0.390339
0.191560
0.320214
0.298324
0.333767
0.139097
0.198039
0.229723
0.236380
0.155909
0.183031
0.139383
0.230226
0.135000
0.193057
0.132130
0.031075
0.098344
0.103532
0.080454
0.126474
0.046142
0.092460
0.024993
0.083897
0.032618
0.032669
0.151006
0.016251
-0.005081
0.053550
0.029040
0.169194
0.007384
-0.008158
0.007504
0.077814
0.058942
0.094592
-0.004345
0.049994
-0.035961
0.067435
0.034971
-0.016941
-0.015268
0.041285
0.137291
0.008930
0.035777
0.065377
0.051643
-0.109030
0.071546
0.033264
0.016731
0.048120
-0.039567
0.022843
-0.040206
0.009004
-0.043131
-0.077211
-0.022380
-0.058130
0.062395
0.082876
0.096714
0.091625
-0.016767
0.045726
-0.003971
0.058285
0.046626
0.131115
0.131802
0.143090
0.131857
0.140970
0.135254
0.139761
0.060996
0.204061
0.057906
0.291892
0.195793
0.160224
0.238618
0.256408
0.244582
0.216536
0.183707
0.191192
0.203238
0.143125
0.182952
0.107115
0.134079
0.031759
0.150572
0.079172
0.021886
-0.019316
0.004917
0.032319
-0.014702
0.056116
0.061490
-0.022975
0.021858
0.000367
0.034703
0.068850
0.016469
-0.033869
-0.133930
0.049149
-0.024768
-0.023256
0.024952
0.051284
0.188972
0.472985
0.750081
1.061560
1.285647
1.389835
1.284706
0.875965
0.633146
0.193378
-0.002181
-0.205061
-0.293036
-0.140178
-0.166209
-0.033611
-0.053874
-0.035361
0.023158
-0.020890
-0.030430
0.014974
0.033821
0.076798
0.050933
0.118381
0.138631
0.127700
0.088588
0.053709
0.159426
0.175287
0.205799
0.115331
0.230152
0.288841
0.280354
0.277530
0.293294
0.293705
0.379869
0.372637
0.333068
0.424768
0.446079
0.488392
0.553405
0.540272
0.482884
0.394642
0.523082
0.483865
0.456390
0.489658
0.542143
0.430783
0.438220
0.521960
0.406332
0.425971
0.416895
0.395751
0.402419
0.349647
0.362473
0.290358
0.371764
0.354947
0.217302
0.282454
0.174376
0.154542
0.200505
0.163932
0.168728
0.155713
0.100642
0.163281
0.184599
0.124504
0.044702
0.013880
0.048078
0.016380
0.036436
-0.045902
-0.017340
0.040016
-0.086434
-0.073158
-0.031639
-0.084854
-0.018832
-0.093905
-0.048590
0.000428
0.004006
-0.009465
-0.029225
-0.092559
0.072490
-0.012008
-0.073541
-0.087937
-0.053923
-0.025219
-0.060982
-0.027500
-0.012102
-0.016732
-0.071625
-0.062441
-0.000637
-0.044616
-0.044535
-0.013994
-0.040542
-0.075256
-0.016812
-0.113844
0.039444
-0.034526
0.032435
0.039657
0.002778
0.002507
-0.107386
-0.051035
-0.081431
-0.039776
-0.043591
-0.060037
-0.003451
-0.047523
0.053969
-0.069187
-0.005263
0.043404
-0.007284
0.013006
0.009640
-0.041835
-0.011263
0.089900
0.063265
-0.024798
0.042967
0.092314
0.054160
0.143759
0.155475
0.172133
0.046763
0.200090
0.132910
0.123313
0.145742
0.189100
0.174773
0.055609
0.095898
0.117958
0.153560
0.201977
0.064194
0.129163
0.010506
0.049473
-0.039397
0.020525
0.161879
0.060674
-0.001324
0.032845
-0.047398
-0.077044
-0.033241
-0.004355
-0.013799
0.025414
-0.035652
-0.027124
0.001401
-0.065883
0.005155
-0.080691
-0.060015
-0.069960
-0.024051
0.049009
0.213007
0.432316
0.825634
1.099026
1.262303
1.437655
1.200194
0.950850
0.538323
0.100758
-0.031282
-0.190247
-0.226964
-0.293427
-0.169048
-0.090588
0.050115
0.001309
-0.004597
0.049797
-0.029207
0.012196
0.056808
0.164129
-0.022644
0.085503
0.143435
0.125655
0.068901
0.086888
0.215765
0.238700
0.286290
0.232549
0.217911
0.159528
0.349405
0.305660
0.328546
0.254476
0.362120
0.358074
0.420520
0.466292
0.451659
0.496533
0.485514
0.450101
0.508478
0.460078
0.550153
0.488281
0.519689
0.545680
0.417206
0.445570
0.491021
0.536467
0.426748
0.376822
0.517066
0.469245
0.301865
0.361437
0.422440
0.352974
0.267167
0.357054
0.248466
0.273263
0.343650
0.275647
0.268305
0.243664
0.196495
0.199866
0.162663
0.219897
0.098693
0.036568
0.082167
0.059518
0.079359
0.151948
0.021651
0.043114
0.124028
-0.031622
0.018938
0.062395
0.027025
-0.056307
0.147763
0.038316
0.050913
0.067164
0.057598
-0.004039
-0.001664
0.071363
0.082668
0.074873
0.023551
-0.020917
-0.003675
-0.005480
-0.006276
0.096606
0.025587
-0.035011
0.013741
0.024081
-0.012486
0.048473
0.049939
0.072173
-0.009063
0.004237
0.094054
0.097115
-0.035753
0.022613
0.012975
0.010022
0.022323
0.014773
0.095766
0.006137
-0.001193
0.046525
0.016600
0.049005
0.041951
0.038462
0.027106
0.018285
0.136129
0.050804
-0.023393
0.090276
0.134117
0.161608
0.043442
0.135641
0.164630
0.055990
0.157752
0.213131
0.154116
0.279822
0.164297
0.170973
0.227422
0.211634
0.195883
0.191365
0.307295
0.302747
0.192329
0.217630
0.231472
0.191451
0.197741
0.147349
0.184994
0.295124
0.149877
0.098272
0.123290
0.170965
0.206009
0.181684
0.089323
0.076846
0.132206
0.103164
0.096056
0.034337
0.047795
0.122325
0.071324
-0.043817
0.072815
0.037347
0.042597
0.107361
0.130557
0.074232
0.126132
0.243930
0.426809
0.646199
0.969232
1.299330
1.417118
1.422877
1.348169
0.933988
0.575943
0.309742
0.020529
-0.087960
-0.119839
-0.096450
0.000678
0.076738
0.067896
0.106688
0.204900
0.073134
0.139318
0.208928
0.137385
0.180475
0.166998
0.161233
0.196579
0.153432
0.139666
0.196056
0.251672
0.257830
0.334135
0.322736
0.358655
0.395111
0.372077
0.373168
0.423807
0.474406
0.399836
0.514505
0.570929
0.512601
0.571429
0.568726
0.531397
0.652607
0.609403
0.592624
0.653423
0.707049
0.602881
0.535790
0.616618
0.588646
0.562589
0.641824
0.547414
0.566987
0.588207
0.516849
0.502587
0.529872
0.457748
0.441579
0.389230
0.392815
0.432215
0.365803
0.304905
0.354988
0.354384
0.361580
0.303809
0.295954
0.249975
0.203314
0.227901
0.206891
0.187738
0.159093
0.133141
0.092725
0.121809
0.140742
0.072659
0.125821
0.124087
0.086043
0.099307
0.043828
0.062174
0.081629
0.093675
0.092340
0.115747
0.093559
0.059890
0.076527
0.153256
0.138959
0.091395
0.125663
0.108565
0.118006
0.091713
0.116770
0.077132
0.119431
0.065984
0.073579
0.100658
0.062561
0.100401
0.128294
0.158175
0.102142
0.118782
0.065908
0.007085
0.137814
0.127056
0.119467
0.066392
0.120061
0.129327
0.057730
0.111245
0.069897
0.168666
0.089085
0.101457
0.035656
0.143879
0.125762
0.065877
0.122844
0.076526
0.170625
0.166282
0.138691
0.159454
0.202870
0.357588
0.191803
0.181171
0.216594
0.221892
0.213756
0.326441
0.294845
0.259721
0.285877
0.355803
0.258948
0.312023
0.263160
0.286748
0.221091
0.259391
0.349496
0.334582
0.183013
0.218091
0.232342
0.275791
0.236022
0.106994
0.183810
0.178033
0.116094
0.071671
0.112392
0.125484
0.074179
0.149917
0.170816
0.152436
0.141577
0.053183
0.045219
0.046498
0.070021
-0.004080
0.042329
0.043652
0.132124
0.091046
0.172772
0.489348
0.713098
0.960957
1.290495
1.500000
1.486220
1.173619
0.915399
0.538354
0.171638
-0.000605
-0.088764
-0.116750
-0.127843
-0.054542
0.020692
0.018561
0.033637
0.067706
0.160992
0.107052
0.156516
0.172684
0.252001
0.199184
0.151025
0.146551
0.203542
0.255552
0.130463
0.200259
0.194386
0.248319
0.296301
0.390811
0.317383
0.380486
0.392500
0.358898
0.379764
0.426188
0.498780
0.544395
0.513473
0.504158
0.510002
0.549141
0.556209
0.571834
0.576326
0.625775
0.517168
0.600714
0.575042
0.532594
0.558830
0.519980
0.500276
0.573644
0.492979
0.519390
0.451072
0.505755
0.400626
0.406447
0.479688
0.346608
0.347306
0.331942
0.313412
0.301698
0.224729
0.248643
0.266072
0.199899
0.199839
0.198785
0.180106
0.209825
0.087371
0.128011
0.087836
0.041748
0.115025
0.097930
0.120923
0.069840
0.053150
0.057482
0.098467
0.077624
0.083373
-0.011543
0.017659
0.055728
-0.010494
0.021295
0.042988
0.007734
-0.021812
0.022357
0.013043
-0.021940
0.020961
0.032531
0.028994
-0.018004
0.040849
-0.065926
-0.045607
0.050405
0.002007
-0.046652
-0.023750
-0.009076
-0.001413
0.041896
-0.074205
-0.047015
0.059636
-0.034831
-0.054730
0.099602
0.018157
0.076441
0.006240
-0.034166
0.045240
0.007501
0.007911
-0.008387
0.023937
0.003903
0.034855
-0.021280
0.081282
0.041129
-0.088970
-0.008791
-0.004295
-0.005448
0.061998
0.088834
0.098978
0.045545
0.060517
0.029215
0.127630
0.105774
0.208882
0.127459
0.196341
0.156759
0.151625
0.096396
0.165634
0.068892
0.173509
0.108259
0.179871
0.165603
0.091625
0.213651
0.108672
0.085798
0.143493
-0.016579
0.054428
0.118534
0.021910
0.045615
0.030888
-0.046396
0.006490
0.041138
-0.108418
-0.045268
-0.019260
-0.011844
-0.007244
-0.014247
-0.073672
0.000948
-0.057398
0.072838
0.070221
-0.037581
-0.013752
-0.056070
0.080061
0.318227
0.604666
0.943594
1.152288
1.358436
1.235324
1.159731
0.795979
0.346809
0.000465
-0.209883
-0.279149
-0.280282
-0.095959
-0.141282
-0.093680
-0.073789
-0.086734
-0.058739
0.025633
0.068520
0.016892
0.029231
0.009866
0.002580
0.048123
0.032648
0.146671
0.160168
0.118430
0.117548
0.145517
0.252686
0.194542
0.190610
0.310700
0.188726
0.290905
0.258512
0.257295
0.247920
0.306859
0.275471
0.336250
0.447538
0.401638
0.401304
0.422857
0.459692
0.507644
0.406256
0.502911
0.389152
0.371962
0.491573
0.445932
0.431005
0.438978
0.384614
0.373605
0.430797
0.456016
0.327449
0.373584
0.311979
0.277282
0.233315
0.273325
0.158038
0.122565
0.267569
0.126837
0.155796
0.169194
0.094931
0.120560
0.136661
0.081071
0.012713
-0.005726
0.085092
-0.007745
-0.030958
0.043846
-0.004959
0.041347
-0.080751
-0.059190
-0.056757
-0.022261
-0.129416
-0.032578
-0.072753
-0.097283
-0.072593
-0.099136
-0.065500
-0.095790
-0.064098
-0.056222
-0.057214
-0.110231
-0.100924
-0.151446
-0.023031
-0.089908
-0.034124
-0.085024
-0.122958
0.012694
-0.112722
-0.070687
-0.085488
-0.079998
-0.171869
-0.097349
-0.092425
-0.018523
-0.026065
-0.040351
-0.199699
-0.089649
-0.164260
-0.090461
-0.051801
-0.132322
-0.023366
-0.085450
-0.047840
-0.057160
-0.173979
-0.066437
-0.222218
-0.057562
-0.056482
-0.066236
-0.134502
-0.030111
-0.097251
0.018263
-0.070392
-0.067189
0.036450
-0.004620
0.003368
0.042294
0.066178
0.034782
0.074129
0.118120
0.068159
0.150458
0.080888
0.034393
0.135278
0.048289
0.141140
0.162863
0.149985
0.145801
0.106806
0.035875
0.101698
0.052203
0.066654
0.035724
0.069226
0.101103
0.071969
0.014564
0.060423
0.038273
-0.060322
-0.168242
-0.004464
-0.041836
-0.054860
-0.020260
-0.050921
-0.066142
-0.051132
0.005348
-0.021601
-0.099252
-0.073207
-0.117135
-0.066229
-0.021138
-0.108275
0.044153
0.269899
0.638318
0.955910
1.154487
1.325905
1.193352
1.097984
0.655460
0.211822
0.025878
-0.233617
-0.236299
-0.254126
-0.212197
-0.196114
-0.119035
-0.123261
-0.019879
-0.032502
0.005942
-0.075941
0.013374
-0.022303
0.031688
0.013240
0.032688
0.056074
0.106328
0.169665
0.099010
0.140838
0.102856
0.159461
0.162990
0.147723
0.201416
0.267490
0.314324
0.247595
0.271057
0.347752
0.473337
0.373257
0.375092
0.368780
0.469364
0.394359
0.451985
0.467378
0.482277
0.488941
0.506527
0.406172
0.475601
0.467560
0.458852
0.508367
0.453702
0.397230
0.409150
0.412898
0.429348
0.395493
0.352378
0.346452
0.185956
0.278117
0.316039
0.219260
0.181761
0.247626
0.188156
0.179395
0.171584
0.209822
0.084472
0.143919
0.041237
0.002683
0.120727
-0.005169
-0.034550
0.029575
0.046180
-0.025635
0.018840
0.026389
0.001993
0.081396
-0.042626
-0.003944
-0.061774
-0.072349
0.041226
-0.023616
0.036320
-0.044354
-0.034229
0.013644
0.001527
-0.089946
0.003033
-0.001700
-0.026323
-0.016988
-0.068402
-0.086140
-0.023593
0.000047
-0.044999
0.028319
-0.067945
-0.061199
-0.022642
-0.011198
0.053037
-0.087546
-0.054477
0.002747
0.012200
-0.050751
0.044700
0.034064
0.019785
-0.018388
-0.075380
-0.110752
-0.070386
-0.036799
0.017584
-0.027999
0.025738
0.005518
0.003257
0.060201
0.012836
-0.038121
0.017740
-0.009666
-0.043002
-0.062989
0.042584
0.097029
0.122632
0.173799
0.093363
0.213911
0.026822
0.086463
0.222825
0.097583
0.100319
0.144679
0.214204
0.156891
0.225282
0.200569
0.228537
0.170019
0.128216
0.165995
0.095108
0.107848
0.101773
0.191507
0.107609
0.128865
0.093930
0.043351
0.094465
0.095242
0.103235
0.070580
0.052192
0.057105
0.098138
0.034452
0.099502
0.072833
0.015374
0.048526
0.009161
0.067394
0.037874
-0.002622
0.055231
-0.012662
-0.010305
0.074072
0.285973
0.430418
0.693538
1.098608
1.307780
1.452788
1.315209
1.109395
0.702019
0.312069
0.002004
-0.151690
-0.159832
-0.195101
-0.143842
-0.041069
0.029988
0.025762
-0.029149
-0.007431
0.019750
0.132738
0.110889
0.088527
0.022902
0.159937
0.081620
0.175412
0.262402
0.057674
0.191792
0.241378
0.222762
0.230185
0.260110
0.255153
0.364697
0.304326
0.356089
0.351918
0.387661
0.408523
0.520889
0.504792
0.463281
0.421733
0.513064
0.548560
0.590985
0.490655
0.494666
0.585082
0.621509
0.623636
0.579217
0.528179
0.581435
0.569309
0.622025
0.547037
0.397778
0.487662
0.490704
0.493960
0.416733
0.430896
0.437223
0.442190
0.336984
0.311762
0.293636
0.298577
0.192318
0.252250
0.237119
0.238551
0.269229
0.197300
0.223028
0.201388
0.176681
0.085295
0.157241
0.061506
0.104715
0.154569
0.107837
0.099406
0.016223
0.104890
0.168617
0.118425
0.074514
0.130819
0.037329
0.064800
0.108690
0.057490
0.032345
0.147209
-0.025339
0.048493
0.041988
0.027811
0.065183
0.087358
0.124907
0.086031
0.108771
0.030846
0.091435
-0.010759
0.115907
0.112887
0.107653
0.021143
0.027605
0.100895
0.073447
0.028656
0.028849
0.033355
0.003308
-0.012658
0.021837
0.013054
0.037588
0.038075
0.010152
0.038313
0.048355
0.091190
0.057414
0.140181
0.024593
0.037068
0.063593
0.098023
0.050381
-0.036378
0.100243
0.060343
0.105969
0.183012
0.105341
0.180491
0.172188
0.074771
0.121633
0.127158
0.230260
0.205065
0.145319
0.185552
0.199219
0.227874
0.305346
0.148576
0.243813
0.108087
0.147199
0.140175
0.210399
0.137385
0.225598
0.189277
0.166038
0.171120
0.149412
0.121211
0.086205
0.071866
0.094738
0.112188
-0.016796
0.061182
0.018669
0.016086
0.122694
0.135581
0.015451
0.055149
0.087425
0.005540
0.049446
0.065120
0.062356
0.013732
0.004275
0.051480
0.181940
0.441323
0.772221
1.084135
1.433961
1.469994
1.297862
0.994355
0.701204
0.329632
0.014876
-0.124260
-0.160371
-0.145480
-0.125246
0.012842
0.087406
0.080686
0.010544
0.060243
0.061158
0.143239
0.007443
0.089263
0.113931
0.214063
0.134280
0.251465
0.078179
0.132790
0.237467
0.282404
0.251591
0.261543
0.192939
0.336646
0.226097
0.280301
0.235755
0.356874
0.432368
0.357932
0.518633
0.386034
0.536605
0.457180
0.516912
0.491620
0.545919
0.539808
0.563084
0.520100
0.568308
0.562364
0.558105
0.557927
0.495695
0.538912
0.570837
0.508912
0.446335
0.511893
0.455430
0.399367
0.382638
0.403365
0.333224
0.323007
0.358370
0.267290
0.239523
0.236576
0.159557
0.150561
0.229911
0.226923
0.140770
0.119073
0.043002
0.174994
0.117169
0.076295
0.159545
0.040746
-0.030961
-0.023105
-0.006627
0.059626
-0.053882
0.013610
0.010784
-0.043146
-0.021597
0.081687
-0.025251
-0.055160
-0.010554
0.008025
-0.076000
0.054058
-0.006807
0.048896
0.010387
-0.021192
-0.063733
-0.016096
-0.030774
0.018220
0.022606
-0.004531
-0.003088
-0.029387
0.050387
-0.005855
-0.001702
-0.103942
-0.046270
-0.054115
0.010306
0.013418
-0.056824
-0.042420
-0.038164
-0.031403
-0.056336
-0.084244
0.075314
-0.075765
-0.029768
0.073550
-0.037110
-0.020460
-0.081629
-0.045735
0.084371
-0.099583
0.034219
-0.007217
-0.061309
0.037420
0.011276
0.013250
0.014645
-0.072750
-0.046493
0.068788
0.102871
0.061958
0.048406
0.131361
0.045863
0.049858
0.106472
-0.017609
0.152189
0.117773
0.091561
0.129863
0.140376
0.021143
0.168689
0.015555
0.118961
0.114354
0.025259
0.072928
0.083617
0.051737
0.016188
0.011089
0.108346
-0.064260
0.050232
-0.038294
0.013302
0.053725
-0.054032
0.076146
-0.071569
-0.026854
-0.027562
-0.142145
-0.068150
-0.125508
-0.082695
-0.120527
-0.079678
-0.117579
-0.072469
0.040818
0.112248
0.387002
0.782327
1.032877
1.277101
1.423397
1.188255
0.872923
0.474418
0.102323
-0.117631
-0.239386
-0.265765
-0.255650
-0.191655
-0.140834
-0.065038
-0.087816
0.025214
-0.046371
0.002553
0.009135
-0.063343
0.103771
-0.024043
0.019236
0.090690
-0.012830
0.008003
0.013017
0.053668
0.168122
0.123576
0.157910
0.188493
0.147635
0.196022
0.177202
0.222078
0.264547
0.405235
0.317213
0.325251
0.386731
0.400470
0.354378
0.366628
0.415165
0.402661
0.456202
0.547971
0.427517
0.436667
0.451690
0.437110
0.411640
0.428053
0.422174
0.415076
0.430495
0.353139
0.336327
0.324077
0.433457
0.360091
0.368015
0.263377
0.277171
0.128592
0.149925
0.199696
0.120327
0.123938
0.006000
0.079955
0.126971
0.163490
0.023182
-0.019823
-0.030715
0.059415
-0.100363
0.090705
-0.051528
0.037684
0.071470
-0.000633
-0.049033
-0.048895
-0.042916
-0.037681
-0.078253
-0.009339
-0.067506
-0.096350
-0.116782
-0.121652
-0.189150
-0.062286
-0.040653
-0.140506
-0.150656
-0.166021
-0.063435
-0.087851
-0.182767
-0.050569
-0.091135
-0.015074
-0.164885
-0.115982
-0.048776
-0.186506
-0.123133
-0.104867
-0.134379
-0.045769
-0.139820
-0.113039
-0.145599
-0.108777
-0.099427
-0.113390
-0.158087
-0.103484
-0.127396
-0.124346
-0.002382
-0.111718
-0.018377
-0.120930
-0.120879
-0.126070
-0.126670
-0.098153
-0.099088
-0.146271
-0.051509
-0.090309
-0.058160
-0.085051
-0.084140
-0.000049
-0.043601
-0.039475
-0.046127
0.000530
-0.012579
-0.076250
0.043499
0.006326
0.064248
0.018242
0.074904
0.034974
0.088805
0.082985
0.157915
0.115954
0.033780
0.068847
0.110848
0.026475
0.128801
0.121299
-0.013394
-0.021281
0.038570
0.063444
-0.027642
0.019604
-0.031152
-0.008985
-0.021736
-0.023750
-0.004495
-0.148913
-0.099967
-0.000078
-0.048019
-0.150902
-0.089711
-0.055859
-0.119882
-0.077904
-0.026271
-0.101076
-0.024335
-0.066643
0.024165
0.104179
0.407791
0.739380
1.134206
1.322215
1.242317
1.217034
0.835222
0.439633
0.143152
-0.173260
-0.333070
-0.287744
-0.290213
-0.121616
-0.109085
-0.098610
-0.049763
-0.068053
0.015798
-0.009611
-0.042664
0.051295
-0.057213
-0.050599
0.049420
0.077208
0.085655
0.039670
0.088986
0.151027
0.124742
0.114797
0.162480
0.210850
0.132945
0.260989
0.294046
0.313035
0.203465
0.386432
0.304323
0.356821
0.423683
0.442903
0.346201
0.398792
0.389345
0.365018
0.511452
0.530113
0.464242
0.467879
0.470242
0.553082
0.472610
0.439370
0.455460
0.419951
0.434753
0.335272
0.448336
0.293411
0.350891
0.309929
0.297019
0.370860
0.335584
0.310684
0.203560
0.251622
0.202321
0.251267
0.120377
0.138571
0.119274
0.205936
0.069083
0.076232
0.035494
0.072644
0.048233
0.088462
0.025256
-0.022224
-0.048366
0.000002
-0.049718
0.028900
-0.032121
-0.023964
-0.098090
-0.127792
-0.031801
0.006125
-0.070932
-0.037923
-0.017952
-0.056247
-0.013993
-0.008396
0.047722
-0.016355
0.051703
0.053541
-0.021464
0.064556
0.029648
-0.031832
-0.013313
-0.029400
0.015403
0.044128
-0.034006
0.078496
0.011811
-0.010279
-0.039880
-0.004659
0.007725
-0.001271
-0.044812
0.008687
-0.017696
0.023171
-0.033784
0.010607
-0.087263
0.032135
0.075123
-0.009564
0.059511
-0.006249
0.045383
0.057119
0.033630
-0.019453
0.102468
0.057883
0.049704
-0.008507
0.010683
0.088072
0.052885
0.023590
0.101997
0.136741
0.163568
0.171749
0.225617
0.174685
0.137842
0.195305
0.220261
0.250158
0.180845
0.218050
0.251898
0.146417
0.161149
0.285336
0.175153
0.209538
0.180714
0.140022
0.054781
0.123750
0.189912
0.082813
0.101720
0.093305
0.031727
0.060920
0.114291
0.124359
0.110578
0.118298
0.068493
0.034115
0.036595
0.069311
-0.016603
0.058878
0.100269
-0.015622
-0.023483
0.043003
0.011702
0.099618
0.073608
0.373603
0.600039
0.868744
1.213405
1.435630
1.470168
1.175342
0.948884
0.491735
0.175980
-0.057140
-0.157153
-0.175344
-0.157815
-0.173816
-0.050089
-0.001873
-0.014872
0.076652
0.046652
0.102677
0.150907
0.122483
-0.027541
0.110500
0.186698
0.220048
0.221426
0.224531
0.242255
0.235745
0.238950
0.291662
0.223001
0.292961
0.315740
0.316871
0.451985
0.379539
0.512221
0.363378
0.438042
0.482329
0.470598
0.457238
0.557429
0.533712
0.550320
0.522027
0.605987
0.654691
0.540053
0.599521
0.583527
0.610381
0.645629
0.589535
0.566200
0.478397
0.544670
0.504057
0.441362
0.432219
0.498469
0.416954
0.439279
0.396471
0.414181
0.350578
0.321928
0.292316
0.330257
0.321322
0.277423
0.246142
0.232717
0.222513
0.210097
0.134288
0.134060
0.129701
0.285018
0.146828
0.210887
0.112524
0.030336
0.060401
0.128279
0.113635
0.120593
0.026319
0.113974
0.096740
0.109650
0.073432
0.130662
0.083838
0.091811
0.155308
0.059485
0.072421
0.016418
0.024350
0.055420
0.104935
0.076384
0.131811
0.049722
-0.040175
0.076116
0.145697
0.085082
0.072355
0.031391
0.064627
0.094004
0.058566
0.104497
0.108059
0.106665
0.084176
0.047618
0.120851
0.085827
0.067973
0.170990
-0.008477
0.090151
0.054010
0.075719
0.090012
0.098204
0.039306
0.024562
0.048327
0.151740
0.162551
0.090294
0.180497
0.104215
0.072702
0.152024
0.139613
0.164548
0.182062
0.130765
0.215203
0.174905
0.184737
0.188141
