0.014642
-0.066364
0.082432
0.034187
-0.080201
-0.075631
0.014059
0.017249
0.071674
0.098979
-0.034507
0.036581
0.052506
0.027979
0.008143
0.061651
0.039515
-0.049475
-0.068350
0.082940
0.128224
0.134883
0.061572
0.073698
0.139253
0.106978
0.112825
0.180063
0.198931
0.160170
0.172744
0.127518
0.271878
0.126740
0.226830
0.188227
0.192307
0.247174
0.215976
0.232756
0.241764
0.131376
0.174181
0.176394
0.128632
0.144555
0.134470
0.014048
0.130842
0.129932
0.095015
0.104780
0.129933
0.068337
0.067574
0.064726
0.100564
-0.005161
0.000541
0.063886
0.113424
0.027729
0.126533
0.028743
0.114790
0.173297
0.197405
0.702881
0.919334
1.177686
1.392848
1.500000
1.214746
0.976684
0.562972
0.206264
-0.072730
-0.067252
-0.028599
-0.006403
-0.020483
0.049508
0.162092
0.094074
0.072383
0.119339
0.134409
0.174245
0.148541
0.190930
0.201535
0.205361
0.238890
0.188566
0.296601
0.291838
0.322621
0.309874
0.297225
0.407690
0.309411
0.467182
0.432369
0.475324
0.544247
0.471250
0.532941
0.643165
0.493920
0.533752
0.581012
0.557462
0.541203
0.578556
0.642973
0.514369
0.611269
0.600755
0.502538
0.589578
0.563898
0.549060
0.450866
0.537209
0.528508
0.482185
0.509485
0.352617
0.391938
0.412832
0.335965
0.400113
0.338024
0.314713
0.283467
0.271410
0.310601
0.327764
0.244056
0.243821
0.287221
0.195339
0.244022
0.178964
0.161786
0.151749
0.089326
0.058405
0.250055
0.003668
0.106416
0.072566
0.043816
0.135687
0.069074
0.071505
0.113793
0.062621
0.139879
0.073448
0.064099
0.079312
0.082576
-0.026753
0.084187
0.098533
0.068196
0.194928
0.075992
0.012871
0.066390
0.133955
0.051503
0.053043
0.060109
0.147868
0.040787
0.100801
0.116406
0.080774
0.027511
0.099126
0.100816
0.150320
0.055300
0.033330
0.030093
0.109146
0.133017
0.120793
0.201306
0.104572
0.158105
0.091677
0.116168
0.143804
0.219047
0.112593
0.169575
0.103988
0.167610
0.127726
0.209706
0.284348
0.229338
0.208762
0.196774
0.257796
0.205534
0.233361
0.247202
0.274702
0.254344
0.213637
0.286839
0.256345
0.293911
0.233044
0.219446
0.226662
0.220443
0.214596
0.325083
0.174945
0.120155
0.203257
0.175571
0.089734
0.140067
0.155628
0.093788
0.138444
0.075009
0.097467
0.117455
0.184486
0.127691
0.098970
0.043672
0.050363
0.079441
0.162270
0.263503
0.490372
0.771643
1.143586
1.289253
1.473185
1.345595
1.233163
0.728289
0.323920
0.164202
-0.084935
-0.009641
0.060251
-0.036876
0.024747
0.100809
0.137978
0.135950
0.217580
0.103036
0.164451
0.155550
0.213986
0.168598
0.239813
0.159970
0.200949
0.235701
0.305593
0.266436
0.344745
0.356605
0.358385
0.318712
0.370475
0.442035
0.493102
0.453912
0.435888
0.552589
0.468673
0.576034
0.520357
0.580966
0.603874
0.535019
0.548820
0.571968
0.648026
0.570994
0.531677
0.555326
0.573717
0.548379
0.517293
0.513389
0.474414
0.534956
0.475264
0.436722
0.450421
0.368868
0.427927
0.423506
0.272775
0.395569
0.259792
0.309777
0.259558
0.293417
0.266358
0.173565
0.236555
0.151758
0.135360
0.086724
0.141445
0.099064
0.058183
0.086086
0.113443
0.099433
0.170009
0.122166
0.084148
0.025674
0.042322
0.034005
-0.003878
0.110313
0.046961
0.050781
0.023356
0.032136
0.047065
0.081984
0.045033
-0.084032
0.101996
0.032248
0.100422
0.095031
0.091366
0.031592
0.044343
0.044035
0.076594
0.052498
0.055136
0.032859
-0.008935
-0.050874
0.040874
0.003300
0.011802
0.002656
0.088875
0.069204
0.010690
0.004128
0.111334
0.052904
0.041295
0.029646
0.053512
-0.017055
0.012654
0.126624
0.026631
0.021225
0.111212
0.050682
0.087484
0.148115
0.068919
0.145217
0.107952
0.172682
0.129836
0.148990
0.206593
0.209408
0.136568
0.164247
0.175523
0.211435
0.222332
0.220922
0.118223
0.189282
0.154041
0.222360
0.189865
0.198291
0.126167
0.117367
0.132857
0.105622
0.099024
0.048340
0.083054
-0.068125
-0.003549
0.014191
0.120943
-0.015305
0.028686
0.018044
0.030985
0.001897
0.098642
0.002431
-0.025833
0.057795
0.065593
0.103561
0.312483
0.492227
0.816874
1.120221
1.277676
1.383948
1.198550
0.796917
0.447148
0.199503
-0.127867
-0.240342
-0.168571
-0.056882
0.003073
-0.035431
0.045257
0.088266
0.087412
0.093211
0.093667
0.092669
0.125002
0.118661
0.204967
0.105682
0.053981
0.147800
0.147030
0.197232
0.187463
0.234129
0.263748
0.304779
0.233818
0.300127
0.340234
0.355407
0.380965
0.356893
0.421016
0.409017
0.451373
0.542112
0.459063
0.452016
0.486208
0.452456
0.497972
0.492945
0.497866
0.396085
0.423947
0.402422
0.453312
0.476277
0.373834
0.480623
0.455100
0.354830
0.320419
0.382016
0.347648
0.312516
0.296961
0.326972
0.259441
0.290321
0.208266
0.095985
0.129759
0.143116
0.126402
0.166715
0.076310
0.073997
0.126335
0.000789
-0.014382
0.152992
0.041568
0.039175
-0.031089
0.041616
0.007289
0.053008
-0.036372
-0.019847
-0.076712
0.001603
-0.070579
-0.055828
-0.059968
-0.042123
-0.034797
-0.021672
-0.045482
-0.081027
-0.009833
0.011657
-0.116737
-0.032349
0.032255
-0.050579
-0.049061
-0.078990
-0.016583
-0.043747
-0.009290
-0.032880
0.019144
-0.102243
0.012054
-0.015467
-0.014733
-0.053001
-0.044874
-0.059175
-0.050371
-0.114945
0.051771
-0.070213
-0.011913
-0.014176
-0.008645
-0.034209
-0.061562
-0.090359
0.002123
-0.043092
0.003405
0.090728
0.053371
0.100301
0.009372
0.065927
0.053344
0.129286
0.124897
0.140426
0.045568
0.013173
0.158355
0.138346
0.124948
0.080401
0.183193
0.126294
0.069088
0.143761
0.142761
0.192479
0.123327
0.108075
0.100092
0.070535
0.075392
-0.019354
0.093267
-0.055388
0.065787
0.054615
-0.039428
-0.032416
-0.013424
-0.053425
-0.077499
-0.064832
-0.042788
-0.011736
-0.029647
0.007296
-0.100820
-0.044857
-0.002578
0.084420
0.174766
0.346426
0.658313
0.940890
1.218049
1.202784
1.102931
0.998497
0.611006
0.147380
-0.006506
-0.188280
-0.239821
-0.247609
-0.046582
-0.094705
0.001251
-0.006562
-0.037203
0.030924
0.001734
0.054858
0.153101
0.098521
0.050379
0.081003
0.190143
0.128114
0.195103
0.152414
0.195185
0.189403
0.243362
0.264201
0.242596
0.315486
0.330529
0.407949
0.310209
0.364322
0.409911
0.446816
0.372543
0.448989
0.438217
0.468587
0.479441
0.563555
0.514501
0.511995
0.436666
0.541700
0.433636
0.554058
0.470531
0.416036
0.491608
0.428094
0.388348
0.320020
0.354461
0.347494
0.247104
0.292836
0.312677
0.244246
0.252393
0.200619
0.216379
0.226313
0.275355
0.185923
0.101008
0.090641
0.126329
0.227450
0.056547
0.073203
0.097722
0.029896
0.018190
0.029611
0.047897
0.035287
0.075432
-0.059449
0.085334
0.009237
0.030704
-0.087650
0.016361
0.038159
-0.049419
-0.074041
0.006497
-0.004600
0.083019
-0.034762
-0.003387
-0.020704
-0.012352
-0.005516
0.041399
-0.056960
0.009337
0.057890
0.039334
-0.040602
0.052930
0.035384
0.019916
-0.005575
0.021343
0.021308
0.060179
-0.070160
0.067458
0.005299
-0.037613
0.015802
0.038520
0.006842
-0.029283
-0.061036
-0.006181
-0.009743
0.067221
0.048452
0.038006
-0.033191
-0.011456
0.032337
0.067889
0.115782
0.206976
0.149839
0.102819
0.102109
0.094482
0.136501
0.087916
0.121152
0.171324
0.114677
0.209496
0.115105
0.183894
0.184423
0.247654
0.159826
0.241039
0.169019
0.180097
0.129309
0.132162
0.099396
0.089279
0.116222
0.091732
0.103206
0.135989
0.152504
0.029728
0.113301
0.106872
0.101993
0.066632
0.028198
0.040587
0.098671
0.107638
0.066229
0.056971
0.022935
0.026652
0.051443
0.144316
0.316807
0.557643
0.875271
1.183203
1.376885
1.428917
1.189641
0.874610
0.467348
0.081470
-0.025930
-0.072769
-0.148004
-0.115356
0.033256
-0.008483
0.120188
0.065833
0.111689
0.089308
0.153594
0.171989
0.259484
0.153018
0.173042
0.191325
0.158159
0.220867
0.270985
0.210711
0.354980
0.380402
0.332757
0.374780
0.430386
0.408747
0.419577
0.429100
0.453928
0.446647
0.460774
0.517991
0.481331
0.537544
0.676349
0.557086
0.499308
0.504536
0.603990
0.582850
0.502405
0.547253
0.547163
0.549920
0.528350
0.495217
0.487984
0.481369
0.507582
0.513940
0.500772
0.494007
0.473123
0.466779
0.392539
0.324572
0.316144
0.297499
0.251174
0.225312
0.307692
0.312238
0.241193
0.232470
0.269290
0.118127
0.148235
0.160864
0.177396
0.187542
0.125112
0.090329
0.130185
0.098803
0.100290
0.158150
0.084909
0.092901
0.100176
0.112119
0.081771
0.059676
0.075491
0.084297
0.084789
0.121408
0.217980
0.015014
0.069240
0.061029
0.012944
0.064896
0.037805
0.121476
0.072899
0.092025
0.042085
0.066514
0.112527
0.053900
0.051239
0.130913
0.090883
0.126868
0.087866
0.082895
0.072102
0.087811
0.064913
0.062238
0.168693
0.105305
0.144768
0.083121
0.179129
0.075297
0.066992
0.119744
0.055891
0.194237
0.101158
0.179602
0.119395
0.139164
0.176241
0.190952
0.224350
0.208753
0.219614
0.142195
0.256820
0.252408
0.339681
0.282711
0.251647
0.235873
0.298736
0.327091
0.305904
0.355775
0.253960
0.207227
0.263327
0.201586
0.243146
0.199973
0.255290
0.266529
0.188197
0.205570
0.089429
0.139839
0.214924
0.144504
0.119011
0.140393
0.097288
0.096878
0.092313
0.188084
0.050962
0.105594
0.123837
0.141398
0.141408
0.273304
0.236420
0.532955
0.834222
1.151316
1.344533
1.456393
1.378310
1.035269
0.786171
0.349064
0.137147
-0.078180
-0.125303
0.027616
0.013439
0.077947
0.105624
0.107468
0.123619
0.225862
0.114632
0.207487
0.150352
0.212052
0.296615
0.237842
0.179397
0.226102
0.243995
0.228437
0.255780
0.293676
0.455113
0.426577
0.375257
0.453512
0.479742
0.454237
0.495493
0.516547
0.493589
0.537281
0.570722
0.567722
0.595339
0.604766
0.684326
0.541323
0.609655
0.625741
0.614503
0.560073
0.611190
0.599498
0.545832
0.574267
0.525437
0.492796
0.430890
0.510141
0.451704
0.461743
0.444938
0.379257
0.375065
0.378257
0.329656
0.326003
0.304862
0.230615
0.300842
0.255680
0.208911
0.221663
0.168984
0.165187
0.191400
0.099369
0.199485
0.083098
0.108126
0.128942
0.081266
0.076066
0.054145
0.077193
0.199393
0.038598
0.038623
0.083339
0.111552
0.034932
0.031379
0.077237
-0.007612
0.083085
0.028247
0.121618
-0.025669
0.147725
0.064069
0.005506
0.019632
0.034376
0.009516
0.027152
0.128384
0.032086
0.108676
0.095442
0.075660
0.061299
0.075322
0.120781
0.127076
0.030850
0.053336
0.044312
0.066475
0.050128
-0.042101
0.075635
0.003993
0.065425
0.081751
0.057749
0.083307
0.093083
0.122557
0.084492
0.056118
0.016269
0.123509
0.121878
0.121988
0.190806
0.131879
0.181999
0.129676
0.136959
0.116445
0.190036
0.247490
0.167605
0.238334
0.129184
0.263952
0.172759
0.177452
0.193346
0.147583
0.214743
0.186041
0.158503
0.141066
0.163376
0.133920
0.139200
0.146866
0.104060
0.133906
0.064415
0.085503
0.096601
-0.000036
0.128093
0.025831
0.017539
0.034010
-0.039620
-0.059821
0.112118
-0.040227
0.050406
-0.025512
0.008753
0.184760
0.325062
0.626436
0.861650
1.216132
1.277284
1.326070
1.157525
0.783527
0.568006
0.085997
-0.080504
-0.070067
-0.108111
-0.069782
-0.052634
0.063569
-0.035919
0.070656
0.112293
0.028560
0.098241
0.125345
0.077498
0.121300
0.155825
0.156919
0.192539
0.176896
0.151129
0.182271
0.188434
0.314688
0.278237
0.236538
0.352304
0.379315
0.439742
0.344594
0.351201
0.384636
0.409332
0.517566
0.460824
0.450619
0.484655
0.449792
0.468153
0.459460
0.506920
0.530715
0.496448
0.545213
0.539652
0.469667
0.421230
0.465630
0.480489
0.354322
0.324360
0.397740
0.352728
0.293538
0.273897
0.383373
0.211718
0.327981
0.253071
0.275715
0.217856
0.178378
0.102949
0.113292
0.090098
0.071392
0.093884
0.077958
0.011074
-0.030230
0.062057
0.000210
0.098821
0.057853
0.066622
-0.004735
0.009076
0.076686
-0.061092
-0.041756
-0.071273
0.088407
-0.073495
-0.070905
-0.047117
-0.005850
-0.055758
-0.041210
-0.027076
-0.003060
-0.025430
-0.159342
-0.064727
-0.084874
0.016139
-0.057659
-0.099856
0.013346
-0.069504
-0.065556
-0.004943
0.002378
-0.136213
-0.069937
-0.020518
-0.028793
-0.018444
-0.046561
-0.035423
0.043052
-0.130442
-0.083334
0.003840
-0.036154
-0.020264
-0.084563
-0.007954
-0.015947
0.020986
-0.055625
-0.032101
-0.000152
-0.047754
-0.063921
0.035849
0.049822
0.066618
0.054933
0.059526
0.038626
0.051752
0.098241
0.073683
0.044758
0.185290
0.054396
0.125626
0.092115
0.122608
0.122863
0.171856
0.085278
0.108328
0.138439
0.061900
0.131520
0.076664
0.057480
0.079082
0.016477
0.007341
0.013275
-0.039838
0.062026
0.057021
-0.070597
-0.083380
-0.019372
-0.004859
-0.104514
-0.034754
-0.036356
-0.076159
-0.028721
-0.141787
-0.032002
0.011729
-0.038379
0.111736
0.363041
0.607586
0.947965
1.193820
1.174884
1.153644
0.877769
0.544010
0.201969
-0.020061
-0.141353
-0.261076
-0.231141
-0.122468
-0.067171
-0.112946
-0.120705
0.023087
0.103822
-0.011364
0.011484
-0.067835
0.034633
0.080717
0.093548
0.070312
0.145055
0.105344
0.109105
0.141073
0.187281
0.215784
0.224545
0.267922
0.275188
0.270702
0.348641
0.353297
0.307070
0.363091
0.331501
0.440732
0.421385
0.323435
0.417421
0.464831
0.384394
0.472255
0.422389
0.499264
0.468363
0.422672
0.407767
0.369738
0.383591
0.325712
0.374166
0.376792
0.336374
0.331989
0.284956
0.280062
0.270030
0.277502
0.231197
0.168028
0.191364
0.173248
0.213233
0.148835
0.091894
0.041424
0.068067
0.034326
0.087829
0.086124
-0.000478
0.027296
-0.003010
0.042806
-0.030924
-0.123875
0.040147
-0.084162
-0.082866
-0.064167
-0.091177
-0.019631
-0.131538
-0.063987
-0.045991
-0.059736
-0.067704
-0.048854
-0.103753
-0.057684
-0.089102
-0.144268
0.062856
-0.136160
-0.046972
-0.049491
-0.095511
-0.069988
-0.128296
-0.102088
-0.082540
-0.051055
-0.012766
-0.102073
-0.034513
-0.094443
-0.033014
-0.144294
-0.119592
-0.018562
-0.066489
-0.067199
-0.095091
-0.024992
-0.047380
-0.070420
0.002439
-0.049203
-0.018440
0.031036
-0.037488
0.044812
-0.043913
-0.051135
-0.160772
0.116855
0.017147
0.067388
0.083366
-0.024730
0.009568
0.127768
0.129073
0.087136
0.074884
0.120346
0.180748
0.141225
0.094993
0.131466
0.222163
0.058207
0.160940
0.092813
0.134060
0.154475
0.102784
0.061597
0.096225
0.011768
-0.042319
0.017837
-0.013802
-0.029558
-0.011077
0.004294
-0.029656
-0.020284
-0.045895
-0.081249
-0.058934
-0.053459
-0.023204
-0.067691
-0.050808
-0.051457
-0.090052
-0.079624
0.059809
0.100122
0.364737
0.534710
0.859841
1.125599
1.193462
1.295949
1.047613
0.775217
0.409993
0.051931
-0.058328
-0.182509
-0.157882
-0.160573
-0.060900
-0.057735
0.025974
0.022789
-0.008082
0.083789
0.023107
0.067025
0.024059
0.150636
0.083405
0.155076
0.186566
0.111917
0.198277
0.146616
0.211312
0.178440
0.287443
0.232886
0.268818
0.371828
0.375115
0.387579
0.328085
0.433144
0.388538
0.399099
0.511696
0.435062
0.579372
0.501709
0.447222
0.480912
0.497572
0.498644
0.471304
0.575915
0.469439
0.580822
0.496823
0.463657
0.405730
0.433674
0.428112
0.411196
0.448836
0.304123
0.333889
0.360870
0.336506
0.351910
0.263603
0.214642
0.226548
0.204062
0.242364
0.109624
0.160358
0.096773
0.059913
0.040423
0.101886
0.162645
0.046336
0.062307
0.092916
0.025605
0.155544
0.042087
0.058035
0.102456
-0.026126
0.029227
0.007054
0.019035
0.063507
-0.051465
0.058093
0.065413
0.045879
-0.045220
0.067767
0.106035
0.058165
-0.042901
0.062388
0.014979
0.018525
-0.053482
0.018428
-0.007613
0.152320
0.005216
-0.018319
-0.022177
0.057735
-0.006034
0.039268
0.006021
0.041401
0.063908
-0.067245
0.075836
0.100381
0.075896
0.030657
0.029435
-0.047751
0.074689
0.131702
0.042903
0.022974
0.075322
0.040968
0.015025
0.078287
0.076970
0.110229
0.163930
0.160153
0.030875
0.140728
0.111682
0.185834
0.175214
0.167864
0.218911
0.158659
0.223287
0.247489
0.211631
0.228069
0.155220
0.164538
0.166454
0.236310
0.148631
0.105624
0.150748
0.144179
0.193104
0.112075
0.106557
0.159885
0.147275
0.122868
0.012147
0.062674
0.170092
0.069226
0.058250
0.075922
0.014840
0.033254
0.090569
0.008573
0.117408
-0.017325
0.061397
0.134780
0.149477
0.213500
0.523288
0.825860
1.174006
1.378209
1.422896
1.303955
0.948064
0.690330
0.284511
0.023289
-0.165476
-0.087574
-0.080382
-0.044334
-0.009834
0.047078
0.165417
0.045463
0.130164
0.161858
0.103761
0.141677
0.204509
0.185179
0.236626
0.137290
0.274877
0.279909
0.251398
0.248949
0.338862
0.285115
0.273493
0.395037
0.404555
0.500338
0.525327
0.404264
0.584693
0.438177
0.507349
0.548640
0.535405
0.574447
0.573901
0.567351
0.570077
0.525450
0.608956
0.621206
0.477504
0.610482
0.620406
0.530106
0.527104
0.487521
0.577441
0.478880
0.498225
0.444738
0.403753
0.384262
0.332118
0.309521
0.274470
0.266633
0.369176
0.264502
0.269909
0.202317
0.207747
0.227572
0.124916
0.117747
0.166603
0.169600
0.111513
0.155057
0.110401
0.140850
0.031573
0.081352
0.075733
0.102982
0.009509
0.116708
-0.019035
0.018442
0.004632
0.087798
-0.013212
0.023241
0.045143
0.013576
0.069037
-0.021908
0.160936
0.048037
0.099828
0.092458
-0.022718
-0.003205
0.078824
0.093695
0.005316
0.082878
0.040469
0.028357
0.050724
0.011708
0.009767
0.000380
0.011592
0.022943
0.036896
0.024209
-0.024937
-0.010820
0.065494
0.047484
0.057511
0.068488
0.065358
0.118924
-0.010403
-0.016146
0.153209
0.002959
0.126603
0.058054
0.041094
0.135576
0.164174
0.061641
0.038489
0.216955
0.178933
0.082630
0.191130
0.203551
0.198260
0.211742
0.218957
0.093504
0.166136
0.185116
0.216737
0.198684
0.235524
0.157576
0.149757
0.076115
0.134480
0.145384
0.132409
0.119697
0.100364
0.074852
0.133117
0.080489
0.046681
-0.007704
0.033569
0.033289
0.028954
0.070893
0.124315
-0.026578
0.050960
-0.007952
0.084726
0.034672
-0.006569
0.089087
0.090200
0.196672
0.348740
0.552337
0.885062
1.257565
1.360967
1.276442
1.150330
0.808072
0.419423
0.071603
-0.119421
-0.208564
-0.204454
-0.126591
-0.000582
-0.013564
-0.019932
0.003074
0.049946
0.078213
0.102082
0.062581
0.106413
0.129806
0.129438
0.093598
0.182575
0.114080
0.196181
0.225482
0.207282
0.279164
0.242694
0.198988
0.205103
0.332702
0.353667
0.427959
0.348328
0.417130
0.441606
0.382364
0.472872
0.486002
0.553036
0.499925
0.433828
0.503207
0.525495
0.454275
0.475649
0.519335
0.429930
0.483516
0.388592
0.494111
0.484513
0.320117
0.461675
0.390329
0.343807
0.333396
0.294521
0.308558
0.308755
0.253541
0.242419
0.249815
0.170799
0.224717
0.152424
0.041582
0.052815
0.144309
0.138214
0.091524
0.052390
0.074576
0.084545
-0.044339
0.016457
0.067995
-0.028581
0.005627
0.034048
-0.046842
-0.101646
-0.030899
0.013417
0.016442
-0.023669
0.011461
-0.045783
-0.003027
-0.061153
-0.006627
-0.058608
-0.123817
0.037103
-0.019896
-0.017763
-0.142644
-0.021588
0.029215
-0.079519
-0.025931
0.041276
-0.000317
-0.006665
-0.046763
-0.039680
-0.150707
-0.019522
0.012136
-0.145434
-0.061641
-0.116690
-0.016818
-0.039437
-0.009653
-0.098430
-0.013525
-0.027928
0.002595
-0.067324
-0.100021
-0.006346
0.012568
0.033052
-0.033900
-0.011934
0.020086
-0.006570
0.072577
-0.046858
0.096323
-0.025383
-0.005818
0.030104
0.020742
0.046207
0.140772
0.095170
0.140973
0.119201
0.162320
0.148549
0.073518
0.090605
0.181994
0.056664
0.063612
0.042522
0.094029
0.078595
-0.030471
0.121323
0.065377
-0.010746
0.030650
-0.048284
-0.066120
0.034662
-0.045744
-0.046665
-0.029268
-0.085481
-0.080966
-0.009089
-0.156718
-0.061094
-0.008142
-0.068482
-0.093155
-0.039153
0.000532
0.094049
0.265542
0.638082
0.951288
1.181986
1.271565
1.172011
0.756042
0.482303
0.120703
-0.157955
-0.206394
-0.174337
-0.236619
-0.161417
-0.075900
-0.104103
0.022767
-0.113311
-0.073125
-0.060071
0.074983
-0.001080
0.026785
0.029944
0.032955
0.100742
0.166306
0.142486
0.069900
0.181570
0.163237
0.220001
0.141590
0.170397
0.246427
0.287645
0.314706
0.273848
0.281958
0.329842
0.337743
0.340715
0.350703
0.400860
0.339133
0.426055
0.411117
0.458244
0.352557
0.381195
0.424169
0.502202
0.293127
0.320527
0.413278
0.379514
0.366795
0.347534
0.404926
0.338124
0.259688
0.244953
0.262345
0.233236
0.143525
0.126707
0.140595
0.150727
0.079220
0.135447
0.163579
0.118486
-0.022889
0.034948
0.050984
-0.019552
0.007491
-0.058845
-0.079118
-0.024682
-0.060185
-0.120840
-0.042935
-0.058373
-0.130435
-0.080991
-0.052750
-0.047950
-0.038531
-0.145059
-0.002444
-0.125664
-0.009994
-0.066138
-0.129518
-0.103689
-0.112017
-0.147267
-0.135194
-0.112507
-0.062717
-0.018572
-0.136005
-0.058319
-0.064878
-0.113451
-0.059402
-0.163907
-0.098117
-0.171464
-0.098509
-0.093444
-0.020426
-0.100778
-0.062206
-0.119434
-0.063152
-0.085235
-0.103127
-0.065819
-0.093134
-0.050760
-0.079847
-0.026996
-0.072711
-0.079727
-0.025217
-0.146133
0.009608
-0.123140
-0.068609
0.021515
0.015284
-0.025887
0.046734
0.016906
0.052648
0.049548
0.067479
0.054961
0.108514
0.043067
0.108932
0.093729
0.112994
0.114244
0.109029
0.053475
0.113993
0.110186
0.094397
0.034240
-0.012654
0.128414
0.090411
0.048562
0.033738
0.003435
0.003714
-0.075956
-0.035645
0.086453
-0.038902
-0.076420
-0.057304
-0.072125
-0.085009
-0.109862
-0.115925
-0.195143
-0.053083
-0.030407
-0.097091
-0.046717
0.010834
0.093436
0.281016
0.599683
0.863480
1.118106
1.344913
1.229110
1.039238
0.655839
0.354549
0.054159
-0.163502
-0.217298
-0.256735
-0.114746
-0.089758
-0.060833
-0.028697
0.004621
-0.072020
0.075755
-0.044235
0.004652
0.058198
0.056820
0.106432
0.040157
0.104504
0.090214
0.194760
0.194916
0.225644
0.237053
0.299112
0.287228
0.280399
0.311978
0.400019
0.319410
0.380431
0.399597
0.413094
0.375711
0.367972
0.412911
0.409036
0.436299
0.399687
0.492747
0.478858
0.463334
0.520938
0.440189
0.461417
0.474305
0.395322
0.381805
0.405026
0.386758
0.358929
0.332129
0.357118
0.258209
0.284824
0.298410
0.251920
0.303509
0.212486
0.247903
0.195779
0.110015
0.189777
0.153275
0.197035
0.121326
0.080454
0.103491
0.038811
0.052123
0.029706
0.021812
0.004537
-0.013964
0.033650
-0.007970
0.062666
0.021110
0.053609
0.033409
-0.085976
-0.028374
0.013001
-0.018079
-0.016527
-0.035164
0.017157
-0.034504
-0.040529
0.036786
0.039103
-0.034263
0.059869
0.050943
0.069909
0.091492
-0.032535
0.112134
-0.081486
-0.035942
0.084666
0.066578
0.029176
-0.019952
-0.033512
-0.006718
-0.016835
0.017265
-0.072861
0.060228
0.033627
-0.021653
0.005916
0.004550
0.072955
-0.022017
-0.024976
-0.018928
0.006153
0.069657
0.017680
0.054687
0.097646
0.115394
0.113478
0.077774
0.096743
0.128778
0.148640
0.157553
0.102829
0.257099
0.191632
0.159232
0.208744
0.121283
0.222376
0.184145
0.208639
0.187107
0.134337
0.162699
0.212346
0.250121
0.191997
0.088429
0.198081
0.104546
0.152042
0.151040
0.055086
0.069751
0.097012
0.142770
0.078595
0.066255
0.150296
0.087365
0.065702
0.007794
0.047940
0.066310
0.076916
0.062983
0.091024
0.017789
0.119834
0.088213
0.187025
0.507577
0.834615
1.070590
1.397135
1.464789
1.292004
0.884763
0.664013
0.328240
0.024247
-0.064402
-0.129499
-0.067732
0.007946
0.063228
-0.006950
0.118073
0.030853
0.153326
0.052782
0.152633
0.186347
0.078615
0.169899
0.133588
0.184529
0.266646
0.232426
0.265914
0.274547
0.358072
0.342156
0.391899
0.359846
0.376376
0.480298
0.465705
0.352017
0.538666
0.499168
0.468234
0.498496
0.548957
0.526470
0.524283
0.540091
0.524698
0.552626
0.580233
0.561859
0.575641
0.564785
0.504574
0.524377
0.525464
0.506154
0.589810
0.445567
0.420874
0.463163
0.453202
0.389712
0.361721
0.349882
0.353509
0.244279
0.360854
0.213386
0.293334
0.321729
0.263855
0.231842
0.201750
0.245568
0.093133
0.128748
0.144260
0.186769
0.048154
0.211620
0.145174
0.100472
0.063045
0.090382
0.110394
0.111197
0.110047
0.091829
0.086958
0.134290
0.076508
0.102912
0.025478
0.086858
0.069371
0.053401
0.111297
0.106968
0.085774
0.091764
0.072064
0.078290
0.157427
0.091458
0.049457
0.041958
0.091650
0.149893
0.043833
0.098266
0.061707
0.065839
-0.000292
0.085981
0.097682
0.037791
0.087290
0.010413
0.107062
0.075979
0.069125
0.115993
0.034583
0.174500
0.083380
0.156830
0.102410
0.107947
0.184013
0.101653
0.118376
0.135844
0.178645
0.091013
0.165223
0.207213
0.069526
0.250951
0.218409
