-0.044991
0.020644
0.036073
-0.004941
0.045328
0.009990
0.083861
0.023766
-0.036117
0.019024
0.069130
0.048000
-0.057982
-0.001827
-0.030712
-0.005692
0.033773
-0.052723
0.063250
0.130608
0.086850
-0.024433
0.085516
0.023226
0.064163
0.185238
0.094399
0.139957
0.092163
0.085598
0.051479
0.140790
0.113545
0.130289
0.189893
0.281247
0.203152
0.225766
0.195382
0.157630
0.182619
0.182852
0.189343
0.207681
0.162731
0.135264
0.160125
0.191511
0.104672
0.152166
0.115603
0.182613
0.055831
0.076134
0.090969
0.052810
0.028040
0.068918
0.140593
0.092560
0.090429
0.061954
0.120171
0.105253
0.040716
0.055558
0.128739
0.082863
0.029506
0.071699
0.000114
0.019813
0.006230
0.074512
0.271138
0.488287
0.797521
1.094459
1.402092
1.438607
1.394561
1.155561
0.768907
0.349009
0.127075
-0.110786
-0.201632
-0.082003
-0.106977
-0.055639
0.089475
0.022046
0.085734
0.185554
0.056967
0.038276
0.200358
0.120343
0.093734
0.153868
0.186420
0.224461
0.152874
0.159541
0.145456
0.242310
0.226532
0.209265
0.359011
0.330067
0.299186
0.303619
0.352269
0.284180
0.486551
0.406253
0.451900
0.452071
0.434594
0.443720
0.508201
0.528437
0.622465
0.567420
0.607523
0.527693
0.610862
0.605147
0.549783
0.574076
0.553727
0.634992
0.622138
0.634699
0.615541
0.528491
0.482048
0.571655
0.604379
0.440388
0.393378
0.467601
0.445359
0.428493
0.353042
0.360288
0.289129
0.356018
0.271497
0.268384
0.262098
0.148209
0.174254
0.189205
0.156043
0.238643
0.092137
0.208718
0.199062
0.181674
0.187618
0.154411
0.146144
0.081269
0.119880
0.068581
0.010274
0.114255
0.165757
0.086736
0.120967
0.066368
0.099095
0.057977
0.058525
0.061192
0.139138
0.125026
0.026450
0.168457
0.119153
0.075843
0.072890
0.125110
0.100578
0.136711
0.108487
0.122597
0.102146
0.050625
0.106683
0.041785
0.112699
0.105475
0.049150
0.061083
0.130561
0.087563
0.130361
0.085250
0.039860
0.035162
0.085359
0.094222
0.078824
0.107825
0.098890
0.113205
0.043406
0.072485
0.106192
0.146784
0.069398
0.074699
0.048633
0.117151
0.171653
0.113305
0.152360
0.126379
0.225176
0.083810
0.193253
0.153205
0.213853
0.193071
0.154890
0.218623
0.224355
0.221494
0.258368
0.168633
0.219571
0.284705
0.265579
0.251281
0.249688
0.326926
0.218575
0.277717
0.224596
0.295711
0.184232
0.246672
0.160626
0.233971
0.232773
0.286055
0.177724
0.189566
0.217476
0.107140
0.166714
0.110675
0.191953
0.061363
0.094090
0.075386
0.075312
0.105147
0.090588
0.036255
0.085837
0.117472
0.085790
0.140697
0.089726
0.046750
0.040552
0.038541
0.078948
0.180805
0.370188
0.712001
0.995526
1.277378
1.444047
1.420150
1.278580
0.810101
0.425189
0.125215
-0.089399
-0.085593
-0.095253
0.000769
0.045160
-0.017220
0.055688
0.093622
0.100406
0.126546
0.173867
0.069697
0.169319
0.169342
0.148755
0.167355
0.202395
0.190646
0.193853
0.203443
0.222632
0.193606
0.311911
0.220580
0.291684
0.257891
0.325512
0.287417
0.308560
0.429232
0.405342
0.405456
0.460674
0.454175
0.516718
0.509960
0.626896
0.518524
0.556453
0.528641
0.535678
0.580460
0.548329
0.569029
0.586029
0.510732
0.582435
0.547299
0.621962
0.522766
0.483368
0.518760
0.468580
0.542524
0.472842
0.344669
0.386442
0.313542
0.396775
0.369742
0.298711
0.373505
0.251716
0.268001
0.236507
0.259424
0.184587
0.140522
0.217452
0.181043
0.114783
0.117075
0.087972
0.109317
0.114435
0.103661
0.092046
0.107687
0.007793
0.048331
0.073121
0.042592
0.024415
0.070426
0.059255
-0.027476
0.018054
0.021509
0.067842
-0.015372
0.061710
0.049568
-0.005776
0.071808
0.031321
0.054713
-0.004800
0.075757
0.039229
0.030493
0.047059
0.063010
0.031264
-0.049849
0.026258
0.036424
0.036619
-0.028692
-0.039782
0.040096
0.022526
0.056393
-0.006281
0.006012
-0.013513
0.048795
0.003128
0.040117
0.025315
0.040203
-0.011398
0.104279
-0.061310
0.046001
0.033928
-0.014925
0.035162
0.039316
0.016254
-0.051378
0.039262
0.014016
0.081337
0.063635
0.034596
0.025497
0.054057
0.032966
0.109579
0.099894
0.162392
0.066556
0.097182
0.088022
0.140824
0.214807
0.194546
0.097555
0.217774
0.232983
0.180700
0.110757
0.250702
0.154942
0.219579
0.134443
0.182412
0.228963
0.193416
0.198163
0.102406
0.131537
0.176461
0.067755
0.044680
0.052013
0.042880
0.017823
-0.042226
0.013538
0.001612
0.039566
-0.030861
-0.004617
-0.009304
0.072519
0.042848
-0.020141
0.047734
-0.038562
-0.018692
-0.035491
0.012198
-0.097690
-0.000108
-0.054561
0.055493
0.189630
0.479917
0.778513
1.007979
1.414362
1.350342
1.231621
0.908761
0.508516
0.232857
-0.135977
-0.155346
-0.273501
-0.208580
-0.271418
-0.103177
-0.100843
-0.027187
-0.049768
-0.017141
-0.003921
-0.036481
0.073692
-0.013826
0.024667
0.045195
0.081420
-0.015428
0.072046
0.076924
0.084831
0.065021
0.192801
0.165128
0.190998
0.196001
0.212211
0.251880
0.223210
0.324018
0.227698
0.409197
0.391273
0.413719
0.410915
0.337313
0.448009
0.430841
0.381564
0.493144
0.464364
0.425717
0.426717
0.475433
0.489910
0.525092
0.502892
0.496861
0.546683
0.463689
0.476466
0.414652
0.365944
0.405075
0.443068
0.461157
0.270914
0.301908
0.272384
0.285078
0.196817
0.270517
0.212089
0.236141
0.106020
0.132901
0.116712
0.128095
0.156410
0.143023
0.041086
0.084888
0.000906
0.065760
0.042027
0.017640
0.041424
-0.019230
-0.110550
-0.041777
-0.061362
-0.058423
-0.033941
-0.080179
-0.019687
-0.092530
-0.052762
0.056117
-0.051670
-0.026255
-0.036922
-0.008389
-0.138196
-0.048818
-0.066550
-0.046583
-0.006560
-0.068162
0.049431
-0.083317
-0.060626
-0.065401
-0.003001
-0.025747
-0.084009
-0.029015
0.018690
-0.020999
-0.048234
-0.035174
-0.043780
-0.041029
-0.112253
-0.038578
0.027740
-0.112518
-0.026540
-0.000818
-0.006188
-0.002770
-0.011646
-0.098527
0.004976
-0.025551
-0.052350
-0.135548
-0.027415
-0.055161
-0.111436
-0.071521
-0.042893
-0.066652
0.001016
-0.052463
0.021967
0.012242
0.026750
-0.032152
0.100117
0.016772
0.038152
0.056595
0.044191
0.082411
0.097994
0.065911
0.125466
0.059649
0.128512
0.218866
0.174174
0.110682
0.109364
0.147988
0.068756
0.153640
0.201761
0.116263
0.028221
0.112855
0.079443
0.026958
0.067322
-0.022682
0.088705
0.067009
0.046371
0.028908
0.058127
-0.012316
-0.048880
-0.068343
-0.009358
-0.003940
0.012781
-0.037175
-0.047571
0.003229
-0.080778
-0.090463
0.015001
-0.046214
-0.052997
-0.041707
0.011041
-0.040734
0.047871
0.209379
0.393222
0.639029
0.991598
1.288387
1.389156
1.310775
1.049621
0.714789
0.346929
0.057834
-0.265152
-0.265527
-0.199343
-0.158587
-0.070970
0.013489
-0.000900
-0.031373
0.029438
-0.065700
0.020233
0.032229
0.077966
0.042310
0.072176
0.009953
0.094148
0.107524
0.156605
0.124399
0.168851
0.167267
0.116737
0.199920
0.197629
0.190294
0.207739
0.276562
0.316419
0.317640
0.391028
0.328607
0.350489
0.367452
0.433705
0.400418
0.430986
0.389629
0.526437
0.528935
0.551962
0.433643
0.618751
0.619205
0.566996
0.516814
0.529052
0.568207
0.579621
0.513741
0.532573
0.467216
0.441585
0.452867
0.438648
0.381436
0.362441
0.334534
0.369419
0.290406
0.249479
0.296241
0.265327
0.209907
0.181553
0.155680
0.224696
0.155304
0.127330
0.124469
0.206781
0.154373
0.070607
0.085623
0.042160
0.018683
0.080946
0.076598
0.023685
0.087411
0.049128
0.103146
0.098286
0.076919
0.058415
0.110620
0.022942
0.040882
-0.014867
0.095655
0.086174
0.061155
-0.053109
0.135342
0.086684
0.012496
-0.004737
-0.021436
0.008737
0.085336
-0.017799
0.008057
0.025596
-0.017015
-0.013462
0.068426
0.033859
0.073544
0.032268
0.036448
-0.022924
0.063574
0.071788
0.056540
-0.001775
-0.004589
0.101118
0.044866
0.073055
0.006250
0.066164
0.031583
0.092915
0.091589
0.021310
0.119381
0.070244
0.053077
0.062262
0.071298
0.037330
-0.000517
0.023366
0.112436
0.156369
0.127455
0.037156
0.168968
0.183602
0.107185
0.133088
0.227102
0.176368
0.194800
0.239694
0.156666
0.262898
0.167402
0.200422
0.299809
0.229458
0.224547
0.212774
0.168087
0.147702
0.178439
0.163482
0.164348
0.191808
0.241059
0.201960
0.219985
0.218129
0.122816
0.143970
0.128309
0.146235
0.161563
0.120269
0.113122
0.134700
0.117465
0.058162
0.118286
0.068070
0.130175
0.120159
0.134965
0.081160
0.111075
0.065516
0.091284
0.044488
0.058971
0.016968
0.152149
0.155073
0.342069
0.647614
1.000386
1.265034
1.500000
1.451624
1.252317
1.004229
0.679463
0.256153
-0.032745
-0.126706
-0.138791
0.021847
-0.033589
0.060230
0.063989
0.104836
0.079246
0.093558
0.125362
0.186945
0.161710
0.101964
0.214078
0.175963
0.210742
0.219102
0.206324
0.299925
0.191057
0.353414
0.324785
0.330975
0.295421
0.282676
0.285460
0.258881
0.345317
0.447494
0.390988
0.460553
0.511801
0.443298
0.490095
0.600661
0.588004
0.536079
0.561121
0.554185
0.500227
0.611947
0.658056
0.540772
0.655701
0.615445
0.647899
0.618819
0.586521
0.612935
0.573136
0.522960
0.533990
0.538065
0.567186
0.499873
0.505999
0.552466
0.444187
0.414979
0.388235
0.363664
0.293072
0.343941
0.352272
0.231828
0.249311
0.237841
0.311669
0.225102
0.221018
0.271756
0.219173
0.120790
0.169351
0.077762
0.132111
0.122367
0.178952
0.143031
0.175381
0.045945
0.054263
0.209449
0.143692
0.083348
0.088852
0.045718
0.146563
0.163377
0.141563
0.146024
0.099137
0.119843
0.117671
0.138926
0.058798
0.050743
0.156568
0.148203
0.073398
0.099674
0.231379
0.112163
0.098004
0.150080
0.085264
0.075561
0.009654
0.121092
0.071288
0.079962
0.135706
0.089499
0.099987
0.108127
0.077968
0.061193
0.123042
0.122777
0.099855
0.134712
0.154421
0.121750
0.024958
0.080783
0.059173
0.088732
0.137418
0.087426
0.131609
0.069241
0.182754
0.046223
0.094150
0.087771
0.081159
0.146444
0.162734
0.191967
0.183203
0.204038
0.213870
0.166117
0.185679
0.181530
0.223752
0.199179
0.227898
0.358079
0.285224
0.329123
0.262079
0.310614
0.179888
0.236251
0.271792
0.272737
0.273594
0.266409
0.209824
0.177691
0.206621
0.195393
0.123975
0.122476
0.154897
0.160111
0.136615
0.135265
0.093370
0.149851
0.096310
0.047389
0.150550
0.105171
0.005970
0.070740
0.040739
0.050379
-0.000010
0.006675
0.049316
0.081183
0.056839
0.090625
0.038850
0.264928
0.498040
0.736966
1.178735
1.350999
1.432194
1.304538
1.068856
0.698369
0.366694
0.007235
-0.122357
-0.134156
-0.147013
-0.039690
0.031704
0.060054
0.038537
0.044242
0.058061
0.028049
0.100027
0.135863
0.116931
0.119273
0.095440
0.198719
0.070718
0.166227
0.142512
0.152425
0.102832
0.244979
0.216347
0.189618
0.236879
0.257123
0.330140
0.364932
0.313491
0.356445
0.360758
0.429499
0.396787
0.453851
0.471176
0.464416
0.460881
0.428572
0.547978
0.459909
0.660166
0.476269
0.472502
0.516824
0.494214
0.543279
0.489087
0.396123
0.526450
0.483856
0.470656
0.523665
0.484859
0.406864
0.373242
0.408776
0.384648
0.288017
0.381733
0.273336
0.320944
0.195251
0.196561
0.202886
0.219924
0.227853
0.143161
0.203623
0.146092
0.135561
0.098080
0.100998
0.037393
0.038603
0.120944
0.022847
0.055679
0.041024
0.059925
0.006961
-0.059256
0.061236
0.041285
0.100089
0.030338
0.050350
-0.031602
0.058733
0.028798
-0.008191
-0.042889
0.013063
0.010379
0.094030
-0.054907
0.023147
0.039102
-0.004095
-0.007244
0.073851
-0.014486
-0.013666
0.050402
0.049268
-0.121345
-0.058967
0.023646
-0.016751
-0.040374
0.050559
0.015931
-0.045742
-0.003084
-0.052096
-0.047796
0.010389
-0.006183
-0.032552
-0.113916
0.028705
-0.053198
0.006224
-0.073323
0.004568
0.044971
0.000077
-0.011162
0.003495
-0.055774
-0.042697
-0.007957
0.002160
-0.023143
-0.021778
-0.046539
-0.123610
0.070648
-0.028468
0.032299
-0.013040
-0.021394
0.046819
0.016236
0.122979
0.109628
0.137530
0.121011
0.199079
0.114709
0.103192
0.097447
0.085086
0.229299
0.081998
0.118314
0.095185
0.047815
0.050264
0.107827
0.092008
-0.020973
0.056237
0.067658
0.018223
0.022439
0.092419
0.062225
0.008569
-0.018874
-0.014925
-0.032885
0.034971
0.034006
-0.043222
-0.065096
-0.065637
-0.073201
0.039761
0.046842
-0.041273
-0.064685
-0.139186
-0.062469
-0.060225
-0.050226
-0.009770
0.062046
0.264926
0.609518
0.832719
1.232463
1.350144
1.258175
1.103546
0.673168
0.276685
-0.019224
-0.243398
-0.385273
-0.269452
-0.218447
-0.146039
-0.060058
-0.013849
-0.054682
-0.107369
-0.078955
-0.119168
-0.018633
-0.010390
0.020894
0.033301
0.014402
0.047398
0.049118
-0.005980
0.066594
0.081849
0.099500
0.126417
0.162111
0.116986
0.158269
0.218523
0.232242
0.239993
0.206499
0.285164
0.326228
0.346256
0.327710
0.341171
0.436491
0.415319
0.396399
0.362516
0.465638
0.481375
0.489699
0.431817
0.436630
0.470191
0.445665
0.573599
0.396195
0.357540
0.372066
0.340336
0.378479
0.387595
0.355289
0.292513
0.302503
0.297645
0.272451
0.188199
0.234587
0.206003
0.124073
0.113913
0.062850
0.070973
0.121091
0.133326
0.090649
0.093641
0.019258
0.021469
0.011799
0.034297
0.029723
-0.058089
0.002258
-0.026672
-0.059655
-0.095309
-0.011841
-0.095294
-0.057703
-0.077856
-0.152875
-0.059841
-0.117031
-0.142915
-0.006829
-0.033562
-0.073566
-0.112067
-0.005236
-0.015860
-0.054690
-0.073831
-0.153299
-0.005799
-0.036855
-0.080351
-0.073064
-0.053380
-0.049113
-0.097169
-0.139805
-0.081894
-0.069072
-0.053754
-0.015527
-0.041902
-0.061758
-0.063087
-0.010767
-0.000737
-0.134246
0.019058
-0.002195
-0.028767
-0.073228
-0.103423
-0.083656
-0.097086
-0.103613
-0.094425
-0.101509
-0.037755
-0.013426
-0.032095
-0.076564
-0.153347
-0.043341
0.017635
-0.065483
-0.085446
-0.106105
-0.096652
-0.109594
0.015955
0.122769
0.064182
-0.015106
-0.006076
0.067855
0.080074
0.014667
0.037693
0.009314
0.123979
0.065160
0.090538
0.009167
0.063451
0.106920
0.184003
0.205746
0.143962
0.105785
0.136911
0.062426
0.044936
0.119406
0.048172
0.083424
0.068024
0.036344
-0.028723
-0.020826
-0.011799
0.066116
0.034588
0.024255
-0.027946
-0.063380
0.021776
-0.055236
-0.035218
-0.052942
-0.087646
-0.013282
-0.030314
-0.018758
-0.048308
-0.088003
-0.143953
-0.045234
-0.014629
0.038234
-0.020605
0.191372
0.509957
0.885764
1.092777
1.253908
1.353821
1.143809
0.870287
0.566321
0.139488
-0.140901
-0.205045
-0.256432
-0.226509
-0.210690
-0.186855
-0.066493
-0.015208
-0.000750
-0.009004
0.002423
0.113086
0.036507
0.033502
0.024950
0.020104
0.016525
0.037855
0.098056
0.057048
0.167634
0.157281
0.179437
0.159049
0.169281
0.207156
0.232617
0.323651
0.209784
0.248973
0.371831
0.332546
0.342438
0.302343
0.370987
0.404783
0.446445
0.337405
0.447910
0.494673
0.474941
0.471261
0.449069
0.497579
0.477887
0.481350
0.432229
0.491825
0.533930
0.503284
0.444196
0.497485
0.382746
0.399261
0.417159
0.374901
0.321114
0.358800
0.302223
0.432310
0.386073
0.338817
0.201976
0.211230
0.336912
0.302917
0.095728
0.176649
0.105826
0.117155
0.163479
0.041601
0.029481
0.015358
0.015774
0.157866
0.030847
0.096591
0.072026
-0.005221
0.009653
-0.031107
0.058946
0.045191
-0.022181
-0.035750
0.055523
0.019886
-0.012511
-0.039113
0.039241
0.047995
0.031236
-0.008373
-0.052560
0.089166
0.026813
0.088718
-0.033749
-0.040409
-0.001714
0.068810
-0.003371
-0.024947
0.054892
-0.030697
0.051548
-0.043281
0.048308
0.096019
-0.003934
0.029443
-0.001749
0.085328
0.023611
0.068862
0.007598
0.016732
-0.006677
-0.033326
-0.014477
0.025969
0.003020
-0.017741
-0.058546
0.024417
-0.014535
-0.002406
-0.037845
0.022009
0.025114
0.057921
0.059164
0.054891
0.119084
-0.011248
0.008116
-0.001775
0.052140
0.176764
0.116035
0.183448
0.150035
0.204802
0.095459
0.167475
0.165354
0.212031
0.137599
0.214122
0.210901
0.225836
0.193490
0.243704
0.197184
0.168022
0.166704
0.220462
0.270534
0.249386
0.191722
0.154893
0.133897
0.165090
0.229734
0.117468
0.039632
0.107571
0.060266
0.093521
0.080522
0.093611
0.055412
0.043106
0.039262
0.072563
0.093758
0.060210
0.023858
0.070758
0.060019
-0.048464
-0.061506
0.109169
0.041883
0.030091
0.182072
0.137694
0.533737
0.768316
1.121761
1.364990
1.436233
1.318037
1.068564
0.740336
0.335834
0.019191
-0.174268
-0.195010
-0.192196
-0.073508
-0.011834
-0.027941
0.066889
0.060101
0.059589
0.065598
0.094956
0.105432
0.121652
0.181079
0.193032
0.108109
0.223626
0.130238
0.269191
0.242744
0.215546
0.331208
0.254874
0.332696
0.275904
0.305828
0.326798
0.219129
0.374249
0.378925
0.421014
0.351137
0.458264
0.432163
0.453762
0.526146
0.536866
0.528264
0.525048
0.550926
0.588424
0.522707
0.568095
0.570514
0.650924
0.542188
0.585984
0.559504
0.544187
0.461485
0.525016
0.436991
0.537064
0.453299
0.382953
0.471057
0.395221
0.437887
0.438696
0.351532
0.354872
0.353321
0.255145
0.234632
0.273118
0.281626
0.218991
0.189683
0.220562
0.208121
0.095159
0.182479
0.181066
0.077602
0.108429
0.054570
0.131405
0.085914
0.018885
0.116239
0.091954
0.027179
0.082679
0.046169
-0.033836
-0.012396
-0.041128
0.063856
0.079069
0.076549
-0.015702
0.027054
0.039487
0.015689
0.036103
0.073581
0.065023
0.023926
0.046280
0.057094
0.053924
0.033126
-0.044209
-0.008599
-0.061112
0.008927
0.050760
0.043569
-0.027053
0.026173
0.009791
0.014633
-0.006987
-0.001109
0.060404
0.008722
0.052120
0.047711
0.078370
0.028307
0.051432
-0.033658
0.027071
0.085980
-0.000133
0.053171
0.099037
-0.001820
-0.040155
0.054283
0.057316
0.173035
0.023363
0.027040
0.098800
0.091149
0.084784
0.053403
0.113871
0.120602
0.081043
0.183184
0.185255
0.056016
0.101810
0.119995
0.157515
0.097100
0.156909
0.120935
0.143688
0.207725
0.313488
0.271800
0.185505
0.138287
0.149655
0.189668
0.057688
0.166556
0.139024
0.195193
0.120656
0.068089
0.110449
0.067633
0.120196
0.041860
-0.012605
0.059554
0.005904
0.034080
0.070044
-0.028053
0.043259
0.013596
0.056801
0.040140
-0.001298
-0.093970
-0.002429
0.013399
-0.018512
-0.087418
-0.074720
0.040707
0.069732
0.322880
0.614938
0.881113
1.244239
1.400970
1.328643
1.158842
0.803308
0.439707
0.048614
-0.058291
-0.310746
-0.256859
-0.112865
-0.123176
-0.070754
-0.107199
-0.022270
-0.025989
-0.053780
0.066581
0.018055
0.073311
0.047928
0.071854
0.084479
0.101459
0.084106
0.098496
0.073085
0.152142
0.108043
0.138308
0.157934
0.209866
0.217322
0.250236
0.227727
0.217901
0.310006
0.397628
0.303706
0.324678
0.315124
0.362935
0.484682
0.421808
0.434449
0.490463
0.481345
0.454396
0.446728
0.471398
0.437906
0.389117
0.440319
0.514172
0.458818
0.443033
0.439298
0.391989
0.322103
0.455422
0.357431
0.376219
0.360255
0.278853
0.264698
0.208186
0.263885
0.168203
0.195131
0.170063
0.296246
0.149349
0.200645
0.157104
0.140817
0.017824
0.118526
0.039654
0.073380
0.046760
-0.015025
-0.046898
0.018132
-0.022738
-0.074952
-0.007046
-0.013830
-0.011762
-0.051884
-0.032132
-0.080986
-0.085397
-0.068649
0.024595
-0.090913
-0.084621
-0.103321
-0.060299
-0.021100
-0.075920
-0.025401
-0.124585
-0.055811
-0.074015
-0.053577
-0.035404
-0.059357
0.036939
-0.077227
-0.041437
-0.041425
-0.096644
-0.021607
-0.049767
-0.037941
-0.016160
-0.082597
-0.129351
-0.140163
-0.056702
-0.038416
-0.009262
-0.081545
0.027612
-0.053622
-0.085081
-0.005958
-0.114787
-0.082123
-0.006575
-0.034401
-0.086103
-0.050712
-0.052023
-0.148531
-0.101187
-0.039729
-0.032774
-0.137071
-0.009685
-0.066748
-0.102422
0.048671
0.024081
-0.053639
-0.065548
-0.046264
0.023442
-0.008628
-0.020585
-0.051677
0.024324
0.062873
0.071116
0.042001
0.043463
-0.010913
0.133438
0.049724
0.097336
0.166534
0.088387
0.083782
0.097844
0.073769
0.032256
0.050021
0.138134
0.055177
-0.027319
0.048326
-0.051374
-0.008818
-0.027713
-0.160075
0.063773
-0.031468
-0.047548
-0.060189
-0.105755
-0.088178
-0.049643
-0.147069
-0.100359
-0.177896
-0.079866
-0.088718
-0.158619
-0.065643
-0.144670
-0.099559
-0.067166
-0.067669
-0.037459
0.184568
0.377459
0.686013
1.084937
1.300376
1.356238
1.138197
0.860747
0.483949
0.085364
-0.107917
-0.305962
-0.372328
-0.308909
-0.176670
-0.190614
-0.096754
-0.081276
-0.099858
-0.101244
-0.033414
0.036946
-0.065802
-0.002895
0.021120
-0.030963
-0.042861
0.048811
0.060832
0.077767
-0.000602
0.021726
0.134523
0.181054
0.080958
0.166093
0.254147
0.114796
0.175397
0.221907
0.204313
0.282781
0.240393
0.306689
0.384993
0.350655
0.350726
0.356264
0.405720
0.336427
0.418299
0.400288
0.393807
0.423511
0.430354
0.399023
0.399418
0.408235
0.430805
0.449468
0.365620
0.311318
0.301955
0.377214
0.321722
0.345913
0.277386
0.230330
0.309357
0.230591
0.238844
0.182987
0.165534
0.144352
0.238309
0.136028
0.116246
0.087979
0.073637
0.036464
0.052406
0.052655
0.045606
-0.036026
-0.037392
-0.046909
-0.091908
0.012783
-0.050495
-0.107894
-0.029797
-0.062800
-0.006050
-0.121816
-0.110171
-0.079687
-0.086453
0.041892
-0.089228
-0.112423
-0.095339
-0.174468
-0.053905
-0.161329
-0.003656
-0.006156
0.022781
-0.151315
-0.172153
-0.136707
-0.092102
-0.006196
-0.053824
-0.095058
-0.126378
-0.109855
-0.047993
-0.125691
-0.087410
-0.136037
-0.028215
-0.149270
-0.111772
-0.032696
0.002251
-0.026747
-0.040897
-0.068534
-0.091945
-0.117457
-0.109702
-0.100837
0.001831
-0.146078
-0.096131
-0.086866
-0.004491
-0.093936
-0.012630
0.015828
-0.056696
-0.029491
-0.069288
0.072349
-0.067651
0.035386
0.019824
0.019185
-0.039645
-0.042227
-0.009865
0.000922
0.061524
0.044006
0.082126
0.166241
0.016094
0.083805
0.107471
0.151474
0.131291
0.072844
0.100523
0.151634
0.094637
0.177764
0.045582
0.075707
0.092149
0.056299
0.161104
0.043964
0.012757
-0.002582
0.081235
0.072811
-0.024496
-0.006667
-0.050095
-0.021333
0.012630
0.024362
0.047164
-0.039121
-0.026292
-0.029259
-0.053526
-0.002994
-0.052614
-0.017271
-0.071099
-0.023577
-0.026385
-0.102641
-0.064321
-0.038653
-0.023868
0.058095
0.337390
0.653910
0.996738
1.295297
1.321755
1.239930
1.013110
0.658316
0.291719
-0.013171
-0.169755
-0.197063
-0.187332
-0.171594
-0.199837
-0.109268
-0.004833
0.051439
-0.044869
0.040209
0.021382
-0.003483
0.038422
0.063577
0.070559
0.094186
0.140740
-0.017836
0.070699
0.091663
0.171223
0.164918
0.208897
0.233381
0.242054
0.223920
0.238602
0.271031
0.263756
0.366667
0.437751
0.298925
0.356204
0.468175
0.364125
0.390099
0.521408
0.462514
0.460222
0.472167
0.512566
0.575620
0.609893
0.574772
0.481749
0.492860
0.520638
0.480528
0.487436
0.433754
0.507752
0.488539
0.427588
0.494581
0.441462
0.419967
0.403155
0.447830
0.348474
0.316992
0.387968
0.240955
0.209564
0.275659
0.214055
0.134809
0.169229
0.122930
0.170541
0.137404
0.067102
0.022555
0.081933
0.068912
0.032238
0.047364
0.074211
-0.020586
-0.009411
-0.028126
0.072491
0.117544
0.121136
0.049402
0.017213
0.009188
0.099488
0.080580
-0.003772
0.040396
-0.006204
0.037412
-0.057697
0.082834
0.004453
0.051900
0.076753
0.082169
0.043144
-0.034641
0.051200
0.091573
0.038469
0.060357
0.044422
0.062908
-0.017334
0.079202
0.083509
0.031505
0.009498
0.038314
0.062672
0.071972
0.082996
0.141594
0.090294
0.008269
-0.027564
0.050068
0.039591
-0.065811
0.026418
0.103957
0.031214
0.011109
-0.044849
0.066041
0.116067
0.058460
0.075281
0.049128
0.063631
0.147250
0.092300
0.074421
0.070748
0.113416
0.125734
0.028485
0.184920
0.192955
0.137225
0.159333
0.163854
0.253462
0.232652
0.251462
0.192560
0.178182
0.160795
0.190468
0.224894
0.188254
0.274199
0.227272
0.170920
0.248395
0.250166
0.152025
0.160449
0.152664
0.095993
0.125036
0.067586
0.190958
0.214322
0.095979
0.125339
0.045712
0.130952
0.067169
0.185025
0.157641
0.053540
0.097387
0.027837
0.126488
0.047766
0.026961
0.098861
0.153788
0.066882
0.053384
0.122451
0.110353
0.146365
0.402628
0.697365
0.946210
1.305624
1.469813
1.439819
1.227707
0.814042
0.567140
0.234397
-0.106205
-0.125685
-0.093314
-0.144954
-0.049245
0.013221
0.063117
0.106036
0.108668
0.042056
0.065363
0.129434
0.145452
0.037904
0.176575
0.103705
0.183566
0.149178
0.242181
0.217838
0.154075
0.231249
0.295132
0.352963
0.374591
0.404160
0.301221
0.354442
0.398323
0.395728
0.412902
0.380191
0.515134
0.508173
0.569107
0.518747
0.529981
0.562308
0.581616
0.574989
0.575568
0.619048
0.534700
0.642756
0.528772
0.591291
0.582432
