-0.114762
0.052632
0.043770
-0.019661
0.015125
0.076350
0.017400
-0.055488
0.024748
0.004602
-0.016725
0.037552
0.006898
0.127496
0.070813
0.026097
-0.033247
0.125328
0.000142
0.060165
0.064513
0.050572
-0.002582
0.126787
0.061190
0.149263
0.118940
0.186781
0.189199
0.132519
0.211678
0.168306
0.185430
0.137261
0.256719
0.172135
0.144592
0.211948
0.216426
0.261104
0.260772
0.202179
0.265627
0.124491
0.222068
0.226291
0.073961
0.221350
0.083758
0.080151
0.142308
0.070237
0.065159
0.042669
0.095206
0.037353
0.031948
0.043817
0.081319
0.028368
0.134942
0.038303
-0.016211
-0.036316
0.077005
0.099877
0.241654
0.313178
0.667512
1.011841
1.241286
1.421659
1.446009
1.147907
0.922847
0.493650
0.306050
0.020614
-0.171837
-0.154525
-0.070166
0.025788
0.013167
0.088135
0.006343
0.119855
0.084242
0.251695
0.113602
0.213851
0.114059
0.134137
0.227279
0.227267
0.188884
0.244065
0.209917
0.263476
0.361433
0.316481
0.264174
0.323497
0.459880
0.415204
0.368121
0.572160
0.581618
0.504837
0.585120
0.465223
0.537493
0.584813
0.617331
0.603345
0.619046
0.598036
0.588510
0.569427
0.672579
0.625740
0.585041
0.649737
0.557983
0.529089
0.532003
0.453385
0.406848
0.436736
0.422156
0.425406
0.371440
0.404036
0.354543
0.368931
0.316086
0.396195
0.282811
0.302385
0.265010
0.180392
0.192069
0.237340
0.195203
0.136599
0.165734
0.110018
0.177470
0.200978
0.139597
0.169042
0.137602
0.064564
0.094891
0.133586
0.125138
0.149301
0.104603
0.066193
0.025933
0.050015
0.095685
0.089113
0.084049
0.021072
0.088945
0.111305
0.057630
0.022651
0.129714
0.092941
0.166359
0.083395
0.137451
0.064705
0.047534
0.126329
0.121224
0.002960
0.167457
0.121933
0.041234
0.008975
0.078346
0.156043
0.033125
0.056010
0.110132
0.044003
0.088957
0.041331
0.093231
0.110311
0.149276
0.084314
0.007578
0.108738
0.148731
0.164365
0.166354
0.152268
0.162574
0.119133
0.131782
0.128454
0.271621
0.236182
0.217950
0.221232
0.229667
0.188376
0.295513
0.268331
0.290188
0.285813
0.263874
0.186096
0.291631
0.279583
0.249867
0.246244
0.226344
0.177380
0.247309
0.214891
0.163202
0.219546
0.164277
0.180769
0.092418
0.143274
0.186753
0.074302
0.123690
0.096978
0.129567
0.098090
0.138518
0.053716
0.147819
0.075302
0.082232
0.100368
0.073041
0.143874
0.193454
0.321130
0.502910
0.787131
1.102717
1.423914
1.445427
1.386287
1.098361
0.715154
0.393225
0.131095
-0.036821
-0.074852
-0.022468
0.020884
0.042261
0.088735
0.195251
0.089008
0.208691
0.105021
0.116060
0.150520
0.175596
0.170106
0.290582
0.227629
0.182061
0.246274
0.211092
0.309339
0.373073
0.300947
0.351394
0.356026
0.388866
0.443433
0.432931
0.440846
0.480621
0.470257
0.461123
0.511685
0.602173
0.609162
0.638310
0.660004
0.575926
0.684257
0.619038
0.565997
0.606448
0.656766
0.589425
0.644446
0.498832
0.504403
0.487819
0.539055
0.544755
0.476849
0.413485
0.377518
0.438846
0.447665
0.360912
0.427652
0.275241
0.328869
0.288593
0.375046
0.244917
0.263501
0.189695
0.177741
0.218530
0.124280
0.187560
0.154454
0.111159
0.137533
0.136682
-0.023219
0.160006
0.026914
0.126428
0.074880
0.055795
0.072453
0.027627
0.089600
0.035744
0.060858
0.046690
0.089979
0.079304
-0.052446
0.043426
0.000339
0.022094
0.033044
-0.042204
0.054871
0.017503
0.082943
-0.008386
0.116469
0.012759
0.060284
0.092909
0.056342
-0.020957
-0.027172
0.033330
0.012575
0.018566
0.067244
-0.051125
-0.003713
0.061473
0.035862
0.108436
0.019860
0.017187
-0.040365
0.009212
0.061250
0.040539
0.021651
0.073010
0.025339
0.048345
0.074534
0.191936
0.062103
0.059303
0.094746
0.122531
0.118153
0.062384
0.178674
0.178038
0.146250
0.172831
0.228422
0.165354
0.151194
0.177980
0.195680
0.212048
0.251075
0.205055
0.266094
0.215543
0.177061
0.160048
0.153419
0.090460
0.184617
0.175502
0.006287
0.056026
0.045828
0.108459
0.110037
-0.095511
0.025891
0.071966
-0.014376
-0.059269
-0.038844
-0.034324
-0.041082
0.021176
0.025860
0.017150
0.057633
0.005332
0.059805
0.366057
0.529881
0.879489
1.142173
1.378119
1.391399
1.133481
0.822971
0.436308
0.136280
-0.180274
-0.128231
-0.138820
-0.193676
-0.110462
-0.044433
-0.023420
0.061259
0.120122
0.029870
0.003789
0.156034
0.162376
0.130349
-0.002772
0.167859
0.182719
0.138686
0.203460
0.257457
0.265613
0.244846
0.294352
0.224738
0.330744
0.203678
0.314364
0.436192
0.382526
0.361416
0.431308
0.452859
0.406627
0.366837
0.455132
0.575672
0.567407
0.421248
0.502849
0.586748
0.488744
0.462116
0.506881
0.519000
0.407900
0.479227
0.421793
0.507656
0.366558
0.427714
0.390248
0.326745
0.341299
0.299959
0.262104
0.312900
0.255975
0.178948
0.233593
0.138196
0.139211
0.139125
0.161091
0.118167
0.136461
0.054358
0.034815
0.048626
0.064355
0.075204
0.056574
0.049937
0.027904
-0.010755
-0.090648
0.027116
0.034110
-0.026499
0.011774
-0.080058
-0.010902
-0.061470
-0.042663
-0.018557
0.003761
-0.080014
-0.065431
-0.016902
-0.048712
-0.060121
-0.042647
-0.005909
-0.059369
-0.045690
-0.043302
-0.083044
-0.031017
-0.077430
-0.029159
-0.102410
0.053751
-0.071565
-0.106246
0.004579
0.017422
-0.045467
-0.094839
-0.059296
0.009011
0.011711
-0.066184
-0.044187
-0.035985
-0.100304
-0.011478
-0.053152
0.019555
-0.051384
-0.007863
-0.041553
0.011160
-0.003127
0.018986
0.006076
0.004303
0.020784
0.094607
0.029205
0.019876
0.050762
0.105950
0.122683
0.018149
0.137709
0.137024
0.063438
0.110582
0.134584
0.196064
0.148342
0.188674
0.154681
0.129450
0.048926
0.072960
0.112824
0.025721
-0.018842
0.064699
0.106726
-0.028820
0.084707
-0.007989
0.046500
-0.011136
0.003219
-0.005894
-0.042907
-0.016296
-0.016676
-0.004009
-0.048223
0.037526
-0.074101
-0.020729
-0.054850
-0.113629
-0.093450
0.099379
0.333768
0.546695
0.815629
1.298184
1.398631
1.262088
1.045541
0.735274
0.315344
-0.074766
-0.137986
-0.285870
-0.192557
-0.106819
-0.082805
-0.011631
-0.050619
-0.024846
0.020814
-0.045244
-0.019472
0.103501
0.038762
0.087311
0.098646
0.064795
0.070439
0.116130
0.185786
0.137815
0.157294
0.258592
0.202143
0.226895
0.378563
0.372641
0.311717
0.383667
0.401754
0.393550
0.466255
0.365058
0.383533
0.511944
0.429300
0.509936
0.425179
0.544648
0.473396
0.504959
0.542381
0.447742
0.536663
0.511065
0.382430
0.494370
0.431640
0.372234
0.379273
0.378984
0.439487
0.380846
0.384414
0.272292
0.281407
0.279593
0.274687
0.152863
0.257841
0.142009
0.227233
0.158502
0.157323
0.136212
0.039080
0.032489
0.087343
0.051254
0.067835
0.145866
-0.005168
-0.031239
0.012931
-0.058486
0.019409
-0.034725
-0.024058
0.043471
-0.045739
0.015992
0.054904
-0.032840
-0.030632
-0.031069
0.013201
-0.037404
-0.066166
-0.059646
0.069208
0.023348
-0.031151
0.018222
-0.065073
0.028939
0.067990
-0.046299
-0.065507
-0.055785
0.019702
-0.019311
0.002254
0.032037
-0.077769
-0.049325
0.005429
-0.055588
-0.042438
-0.021245
0.021048
-0.030384
-0.036016
0.062724
0.009958
-0.004168
0.120479
0.079101
-0.010679
-0.004362
0.097235
0.117364
0.067350
0.060946
0.113357
0.044278
0.103629
0.077858
0.104638
0.182014
0.243619
0.175551
0.181142
0.137180
0.231978
0.125807
0.184784
0.218387
0.220474
0.230104
0.167353
0.160128
0.130609
0.184596
0.217108
0.164927
0.145120
0.235245
0.176282
0.186752
0.129902
0.174934
0.009289
0.102292
0.044629
0.105270
0.085991
0.075939
0.012236
-0.002841
-0.004481
0.046128
0.078960
0.138707
0.113837
0.061145
0.026660
0.144935
0.032130
0.158679
0.309770
0.517469
0.851091
1.176005
1.408070
1.426347
1.362644
0.915906
0.651701
0.312174
0.023273
-0.139820
-0.083384
-0.075666
-0.107297
0.065837
0.081448
0.083531
0.103093
0.123449
0.115552
0.050643
0.134251
0.152593
0.181961
0.260209
0.213081
0.174090
0.234448
0.260749
0.320128
0.326233
0.357070
0.389096
0.415787
0.346266
0.416685
0.411081
0.383870
0.459281
0.536755
0.596471
0.538378
0.531286
0.528372
0.547866
0.539600
0.503159
0.623560
0.570984
0.615172
0.565443
0.682279
0.579614
0.589907
0.560461
0.582221
0.582889
0.516811
0.441581
0.517311
0.524133
0.491216
0.420342
0.510751
0.344462
0.343772
0.314622
0.310393
0.266090
0.268262
0.236546
0.225212
0.209879
0.245128
0.164367
0.179883
0.130064
0.212559
0.167616
0.137482
0.179611
0.176094
0.039011
0.189822
0.132501
0.121454
0.164376
0.144565
0.061854
0.099656
0.124390
0.128190
0.082292
-0.004912
0.072018
0.169709
0.125772
0.089773
0.056201
0.076466
0.085592
0.073785
0.129844
0.119544
0.116798
0.153166
0.153292
0.075988
0.104596
0.065383
0.080299
0.047979
0.099684
0.076514
-0.014355
0.050702
0.139181
0.000976
0.066517
0.111446
0.114063
0.037075
0.077620
0.073683
0.088691
0.155594
0.058828
0.219660
0.103841
0.143679
0.128297
0.177773
0.142510
0.156173
0.181033
0.216350
0.138492
0.218507
0.155519
0.249092
0.308079
0.156516
0.254259
0.220744
0.225038
0.265372
0.227880
0.220411
0.243465
0.266177
0.194769
0.252927
0.273479
0.290240
0.246641
0.224682
0.211166
0.192225
0.148762
0.128066
0.147101
0.168823
0.126629
0.158783
0.099818
0.118608
0.106100
0.061678
0.163696
0.114696
0.091872
0.181512
0.026761
0.059247
0.094565
0.219369
0.088792
0.180012
0.488150
0.666987
1.110356
1.346221
1.500000
1.419841
1.163704
0.878126
0.491800
0.113723
-0.007736
-0.099588
-0.109589
-0.039021
0.121633
0.074152
0.154233
0.094871
0.170043
0.160781
0.163947
0.166215
0.218403
0.121793
0.257182
0.211335
0.237000
0.240296
0.300269
0.363424
0.253416
0.389335
0.356225
0.357866
0.329869
0.411969
0.453740
0.472837
0.512366
0.494708
0.509591
0.616858
0.526535
0.558744
0.569615
0.688167
0.601456
0.623928
0.584727
0.569710
0.613573
0.663315
0.631363
0.634535
0.554300
0.470405
0.560137
0.556303
0.519388
0.469330
0.500864
0.459839
0.449180
0.420183
0.412740
0.335709
0.323096
0.408084
0.321093
0.379731
0.211599
0.335704
0.207152
0.255625
0.166297
0.128544
0.205221
0.192510
0.117471
0.112390
0.100224
0.174594
0.072700
0.165167
0.047528
0.050253
0.071472
0.196390
0.107040
0.096243
0.016957
0.004402
0.131384
0.099510
0.060305
0.035644
0.023974
0.109873
0.116003
0.064516
-0.013140
0.094554
0.068371
0.098275
0.089471
0.087487
0.010317
0.032558
-0.016933
0.001792
0.064674
0.061367
0.051049
0.100165
0.005003
0.130096
0.008682
0.044126
0.071411
-0.040521
0.073242
0.006598
0.093022
0.090647
0.089413
0.082249
0.021647
0.038536
0.009200
0.136044
0.123441
0.146024
0.128260
0.135572
0.098306
0.102050
0.145489
0.035363
0.131845
0.167423
0.220870
0.176937
0.183116
0.130916
0.269492
0.208403
0.234083
0.213194
0.206794
0.164058
0.164241
0.247017
0.202167
0.227698
0.166214
0.179177
0.200496
0.141651
0.124781
0.083169
0.048919
0.097810
0.131942
0.063761
0.098370
0.041762
0.019963
0.087336
0.011273
-0.011333
0.103819
0.003105
-0.021254
0.006955
-0.021570
0.009926
0.059079
0.089457
0.268651
0.415186
0.704146
1.035037
1.312926
1.399182
1.311938
0.984531
0.624242
0.281601
-0.009610
-0.163698
-0.144805
-0.116311
-0.049502
-0.124003
0.022211
0.056724
0.051918
0.001105
0.034916
0.054707
0.126975
0.152197
0.133427
0.111387
0.172637
0.148282
0.115584
0.241577
0.216220
0.228080
0.240635
0.310587
0.266060
0.403791
0.246869
0.367289
0.403142
0.451543
0.340245
0.476191
0.435448
0.500565
0.455950
0.565223
0.489980
0.506241
0.490096
0.471676
0.517811
0.452406
0.469382
0.517022
0.551421
0.442083
0.371286
0.387006
0.524226
0.403964
0.289631
0.410937
0.282694
0.242554
0.276051
0.251473
0.255333
0.213875
0.193773
0.187434
0.190472
0.152269
0.132120
0.053720
0.093833
0.029026
-0.036250
0.031635
0.009485
0.179942
-0.026530
-0.021846
-0.008896
0.008669
-0.007572
-0.070583
-0.115712
-0.019637
-0.009095
-0.006285
-0.017233
-0.044180
-0.051601
-0.032917
-0.170174
-0.085557
-0.100280
-0.069690
-0.047140
0.013920
0.012597
-0.158073
-0.011177
-0.076763
-0.128232
-0.011384
-0.088670
-0.118937
-0.112177
-0.055018
-0.044907
-0.020509
-0.023004
-0.030613
-0.030420
-0.033575
0.037137
-0.135065
-0.046370
-0.115711
0.040143
-0.020086
-0.088864
-0.035016
-0.059027
-0.078346
-0.051842
-0.118893
-0.038601
-0.070234
-0.121996
-0.059259
0.017698
-0.031947
0.023976
0.068537
0.043705
-0.060751
0.001453
0.069101
0.042038
0.095377
0.105074
0.179139
0.024924
0.067740
0.102738
0.096923
0.107226
0.112216
0.180623
0.128791
0.071296
0.013001
0.039401
0.058681
0.079933
0.010604
0.074302
-0.074845
-0.082390
-0.026839
0.030099
-0.009972
0.004280
0.050745
0.025462
-0.056052
-0.079688
-0.125014
-0.135932
-0.029790
-0.050139
-0.059165
-0.069789
0.031759
-0.066603
-0.053013
0.005638
0.189363
0.512275
0.819362
1.048346
1.216040
1.340368
1.020657
0.788731
0.347898
0.007476
-0.199708
-0.327939
-0.281692
-0.131920
-0.075009
-0.153372
-0.067905
-0.085346
-0.083334
0.074718
-0.007355
0.061593
0.031143
-0.018109
-0.017638
0.038687
-0.010594
0.089078
0.012781
0.170682
0.131148
0.164218
0.238785
0.177762
0.188668
0.285872
0.226395
0.325675
0.276162
0.298822
0.316793
0.300091
0.376863
0.409881
0.457367
0.435372
0.432503
0.496937
0.416226
0.440228
0.413178
0.488663
0.461267
0.352328
0.381626
0.387166
0.321559
0.379281
0.382554
0.276477
0.344111
0.353751
0.377194
0.314897
0.244436
0.149398
0.239072
0.277252
0.159783
0.228735
0.106884
0.208163
0.074917
0.043849
0.001133
0.068285
-0.010381
-0.039431
0.074511
-0.061363
-0.127670
0.000526
-0.077125
-0.091584
-0.102435
-0.065481
-0.006131
-0.016842
-0.026155
-0.075921
-0.047897
-0.174185
-0.069235
-0.093112
-0.024804
-0.057033
-0.068401
-0.083004
-0.109673
-0.091776
-0.060217
-0.131076
-0.077613
-0.039804
-0.049072
-0.140015
-0.094711
-0.007113
-0.094069
-0.132580
-0.116488
-0.015918
0.028750
-0.022431
0.031162
-0.107802
-0.052413
-0.118782
-0.031516
-0.107168
-0.045103
-0.046204
-0.065648
-0.133185
-0.003682
-0.072754
-0.035212
-0.075190
0.038089
-0.072579
-0.034339
0.008540
0.060239
0.002120
0.022841
0.024899
-0.002510
0.089212
0.109237
0.062269
-0.003168
0.116454
0.202904
0.171475
0.106018
0.168199
0.063222
0.142716
0.051346
0.209884
0.206182
0.024030
0.171697
0.057423
0.158890
0.066130
0.116104
0.099080
-0.013340
0.095665
0.098837
-0.091252
0.054889
0.024126
0.025929
-0.036202
0.058329
-0.106293
0.031236
-0.031202
0.029949
-0.031454
-0.072430
-0.015382
-0.012034
-0.023040
-0.074266
0.023362
0.182231
0.362268
0.655498
1.022008
1.253193
1.368837
1.284682
1.069593
0.611036
0.264338
-0.061040
-0.187563
-0.166507
-0.185867
-0.057578
-0.051195
-0.046518
0.016927
0.004313
-0.003414
-0.019565
0.045301
0.066191
0.076786
0.066707
0.069387
0.089971
0.220783
0.252503
0.242347
0.228860
0.194534
0.258867
0.248689
0.286544
0.288386
0.323406
0.366687
0.434195
0.326544
0.381623
0.520684
0.473759
0.446604
0.452715
0.514121
0.479216
0.418524
0.471916
0.480514
0.483361
0.544933
0.601328
0.558335
0.550700
0.473412
0.428008
0.467586
0.472668
0.474657
0.410536
0.371570
0.409319
0.411864
0.350353
0.317480
0.349895
0.197725
0.260430
0.268674
0.244678
0.273368
0.200838
0.139383
0.161453
0.011628
0.076991
0.183114
0.107761
0.106511
0.088280
0.137465
0.089087
0.076613
0.113560
0.067945
0.120638
0.008487
0.011773
-0.020139
0.021654
0.011176
0.030374
-0.001714
-0.021509
-0.001964
-0.022577
0.084103
-0.001892
0.011391
0.056321
-0.008083
-0.004355
0.029256
0.000514
0.078309
0.036792
0.022649
0.043712
-0.021194
0.034996
-0.001432
0.086198
0.046128
-0.005637
0.093729
0.097953
0.063873
0.135241
-0.031076
-0.004391
-0.065144
0.073874
0.004483
0.027386
0.043809
0.019296
0.156045
0.010551
0.071055
0.075223
0.112094
0.049612
0.146425
0.055194
0.074727
0.143962
0.242797
0.094200
0.211380
0.145079
0.128138
0.192026
0.102511
0.164064
0.179451
0.163178
0.213636
0.145963
0.122882
0.260161
0.166732
0.249045
0.280009
0.152574
0.120741
0.193397
0.104587
0.138748
0.194189
0.165283
0.175521
0.156957
0.039839
0.177286
0.046407
0.030860
0.098045
0.099782
0.057582
0.053576
0.084287
0.029225
0.044161
0.091388
0.041380
0.122692
0.066920
0.158176
0.263068
0.547839
0.977107
1.147494
1.379461
1.413920
1.239103
0.980030
0.517770
0.185214
0.019881
-0.133843
-0.111759
0.018114
0.034240
0.097907
0.092505
0.036351
0.150647
0.132830
0.151986
0.133166
0.158442
0.158387
0.195315
0.252568
0.158525
0.197486
0.261567
0.269569
0.257588
0.323513
0.341668
0.327189
0.330244
0.404903
0.433211
0.387652
0.478303
0.456193
0.444247
0.491843
0.491775
0.554955
0.586862
0.559060
0.577712
0.516041
0.585274
0.610593
0.620667
0.567751
0.556322
0.609841
0.595679
0.465797
0.595618
0.471197
0.464301
0.437296
0.346298
0.421173
0.444627
0.459523
0.456539
0.363982
0.389847
0.361469
0.395293
0.237508
0.253498
0.201959
0.190988
0.200036
0.179116
0.138440
0.169082
0.114785
0.148590
0.060902
0.116164
0.094769
0.021925
0.016914
0.098968
0.093521
0.023277
0.140489
-0.003907
0.080669
0.041399
0.032534
-0.010221
0.122178
0.064165
0.065634
0.039387
0.061484
0.040785
0.037534
0.030763
0.051814
-0.085064
-0.048754
0.068235
0.035293
0.004334
-0.063000
-0.025272
0.033789
-0.025264
0.035987
0.111495
-0.027834
-0.022935
-0.020768
0.008498
-0.005389
0.088721
-0.014687
-0.041191
0.070817
0.041061
0.074842
-0.042599
0.001069
0.021742
0.015807
0.027736
0.013596
0.089775
0.056958
0.046222
0.058976
0.067175
0.018253
0.018182
0.095707
0.116538
0.083224
0.130778
0.177922
0.152791
0.209106
0.192603
0.227637
0.279753
0.193800
0.202830
0.197673
0.269740
0.224655
0.171376
0.172135
0.202457
0.136301
0.119701
0.156208
0.093368
0.127302
0.027670
0.102909
0.051462
0.134443
0.078505
0.080138
0.085663
-0.018817
0.061998
0.056033
-0.024079
-0.008213
-0.104618
0.016422
-0.086779
0.053389
-0.009414
-0.001066
0.182653
0.341558
0.623232
0.911623
1.213986
1.409198
1.311391
0.998994
0.766227
0.282378
0.107194
-0.136637
-0.197319
-0.190501
-0.138861
-0.028572
0.027147
0.019901
0.062287
0.010163
0.121950
0.047984
0.083978
0.116010
0.139457
0.060617
0.154004
0.129727
0.136105
0.155527
0.184612
0.199397
0.253909
0.219712
0.331265
0.257280
0.340541
0.315964
0.450984
0.327566
0.422644
0.364126
0.404579
0.435443
0.470255
0.483805
0.469671
0.491210
0.543701
0.511665
0.439661
0.532493
0.438858
0.518513
0.516066
0.419944
0.450188
0.452102
0.401474
0.383794
0.364662
0.382850
0.292456
0.315570
0.304946
0.285580
0.289514
0.258216
0.160884
0.120464
0.213209
0.165246
0.168936
0.086791
0.056251
0.062293
0.016825
0.034410
0.067350
0.070518
0.090878
0.018971
0.003926
-0.028388
-0.009752
-0.094846
-0.136220
0.012579
-0.084372
0.035918
-0.013448
-0.047764
-0.035632
-0.108257
-0.024308
-0.074467
-0.131180
-0.012644
-0.022816
-0.033994
-0.048518
-0.015737
-0.107901
-0.111828
-0.013492
-0.007659
-0.124155
-0.047490
-0.066862
-0.071028
-0.085499
-0.089395
-0.049649
-0.002580
0.016718
-0.195196
-0.002017
-0.136735
-0.037603
-0.070814
-0.086708
-0.014221
-0.072025
-0.094190
0.024772
-0.066749
-0.066815
-0.042762
-0.061010
-0.082441
-0.040132
0.030839
-0.100500
-0.035850
-0.056428
0.023227
0.034258
-0.027692
0.107928
0.018995
0.002503
0.061197
-0.034642
0.089870
0.091559
0.114936
0.077889
0.177204
0.126916
0.095959
0.072838
0.156845
0.085325
0.047469
0.111343
0.009078
-0.007672
-0.011654
-0.026065
-0.007667
-0.008697
0.025610
-0.048447
-0.006952
-0.115033
-0.029681
-0.077673
-0.111511
-0.066080
-0.089902
-0.117277
-0.103670
-0.162837
-0.054845
-0.106763
-0.088705
-0.108400
-0.144403
0.098280
0.114972
0.476076
0.683317
0.990488
1.215486
1.279784
1.082767
0.926563
0.388965
0.114535
-0.125704
-0.294403
-0.256465
-0.251823
-0.192681
-0.089566
-0.069141
-0.051931
-0.076177
-0.071616
-0.027175
-0.046183
0.005557
-0.044785
-0.015151
-0.011513
0.059891
0.036737
0.079451
0.126218
0.043171
0.076001
0.164783
0.289722
0.198121
0.193375
0.241593
0.252344
0.295384
0.260878
0.335986
0.301589
0.311271
0.346524
0.427075
0.305462
0.415230
0.471580
0.421042
0.431049
0.464661
0.468179
0.383280
0.462941
0.352645
0.423505
0.283567
0.404243
0.465334
0.298859
0.301922
0.284927
0.297520
0.200271
0.186957
0.139950
0.181534
0.226726
0.086346
0.064895
0.123109
0.151106
0.061930
-0.005348
0.050313
0.050471
0.090466
-0.023736
0.008242
-0.019685
-0.087359
-0.051816
0.020883
-0.008048
-0.045935
-0.022727
-0.053388
0.031796
-0.120908
-0.116758
-0.086953
-0.061667
-0.046124
-0.042322
-0.039842
-0.147807
0.019984
-0.105092
-0.084962
-0.165948
-0.022552
-0.041651
-0.135944
-0.052945
-0.030868
-0.156841
-0.022952
-0.088885
-0.130131
-0.164613
-0.230109
-0.065984
-0.026729
-0.122680
-0.131356
-0.122260
-0.105139
-0.080134
-0.036080
-0.099500
-0.004360
-0.098929
-0.161811
-0.098867
-0.023004
-0.126264
-0.041275
-0.027375
-0.062539
-0.034211
-0.094006
-0.040380
0.020658
0.041580
-0.046023
0.034486
0.100285
0.030503
0.014144
0.031000
0.033424
0.048397
0.109815
0.123540
0.086879
0.144128
0.099478
0.126608
0.160059
0.072114
0.116038
0.068485
0.120784
0.024470
0.074949
0.149067
0.067694
0.094067
0.009847
0.075254
0.085425
0.054116
-0.040375
0.047667
-0.093517
0.016069
-0.084759
-0.026986
-0.052060
-0.053866
-0.019600
-0.087523
0.051025
-0.047082
-0.029833
-0.076628
-0.084029
-0.026575
0.039283
0.257466
0.578237
0.866592
1.233734
1.317270
1.271014
1.135035
0.766380
0.395179
-0.074508
-0.203877
-0.298168
-0.119799
-0.096653
-0.054696
-0.056181
0.009026
-0.033433
-0.007498
0.054347
-0.024262
0.009165
0.089616
0.054345
0.140313
0.135965
0.138606
0.148837
0.141005
0.264766
0.268213
0.226230
0.240483
0.267974
0.227109
0.198603
0.342516
0.440312
0.421677
0.361715
0.391760
0.371354
0.450757
0.496129
0.451565
0.511999
0.489558
0.593894
0.570728
0.566727
0.563873
0.498481
0.504881
0.449706
0.488709
0.420991
0.524710
0.441413
0.419583
0.317182
0.311023
0.363202
0.428748
0.275747
0.349805
0.189261
0.183658
0.270363
0.186191
0.208571
0.225288
0.194077
0.167089
0.067144
0.177067
0.144068
0.057374
0.055991
0.000218
0.076681
0.084564
0.047140
0.035037
0.023943
-0.049318
0.007973
0.155722
-0.011339
0.012725
0.005931
-0.019689
0.013904
0.081362
-0.071480
-0.010784
0.030524
0.004987
0.009324
0.052565
-0.041624
-0.040491
0.021847
0.021162
0.034667
0.004155
-0.030130
0.044226
0.057240
-0.018299
-0.009990
0.019069
0.045288
-0.062826
-0.047112
0.049805
0.061772
-0.016694
0.030521
0.037244
0.075541
0.024949
0.073463
0.025672
0.074713
0.017637
0.100052
0.082184
0.005043
0.067668
0.035508
0.068638
0.143396
0.065945
0.118798
0.148382
0.146331
0.148785
0.159219
0.206631
0.176844
0.213273
0.225067
0.167252
0.142751
0.243451
0.175120
0.200392
0.142707
0.223651
0.154509
0.222710
0.173104
0.297632
0.264253
0.226237
0.090997
0.165801
0.166711
0.076941
0.194773
0.155257
0.098035
0.080904
0.122045
0.040238
0.111418
0.027615
0.076963
0.049691
0.047064
0.047056
0.078407
0.093533
0.104954
-0.049568
0.037500
0.095587
0.058182
0.277668
0.482796
0.744463
1.125959
1.328800
1.388550
1.360884
1.104673
0.746768
0.259188
0.083722
-0.121050
-0.140446
-0.142890
-0.039790
0.081836
0.073628
0.131608
0.113464
0.179608
0.109986
0.158700
0.168510
0.144615
0.154686
0.240905
0.199859
0.265023
0.304726
0.256785
0.346474
0.269605
0.378770
0.341895
0.279990
0.454392
0.414488
0.420126
0.440682
0.408581
0.584441
0.542467
0.597104
0.496188
0.540102
0.614884
0.553891
0.552086
0.556820
0.607466
0.582216
0.621240
0.570071
0.558898
0.596641
0.743017
0.469310
0.566393
0.484398
0.461018
0.440554
0.398132
0.392705
0.496316
0.414934
0.370966
0.356347
0.331662
0.323709
0.189808
0.289758
0.242945
0.315813
0.269435
0.153717
0.126194
0.214164
0.230129
0.100145
0.141868
0.136795
0.125585
0.195576
0.083268
0.116610
0.131736
0.077400
0.051948
0.047929
0.091041
0.102385
0.050857
0.119272
0.028786
0.016720
0.074491
0.112584
0.198081
0.061227
0.063529
0.108774
0.157737
0.077170
0.112274
0.076057
0.104945
0.043763
0.028658
0.031313
0.052492
0.133464
0.145839
