0.027889
0.035055
-0.004390
-0.093702
-0.001284
-0.072558
-0.024748
0.043545
-0.047809
-0.044313
-0.014326
0.010134
0.100366
0.016166
-0.004812
0.032455
-0.021741
0.058523
0.108777
0.095737
0.119877
0.008891
0.116100
-0.009196
0.044344
0.105090
0.081817
0.119814
0.161760
0.055093
0.091043
0.212894
0.233758
0.219716
0.117444
0.177158
0.302318
0.207221
0.184785
0.150413
0.213367
0.246860
0.216236
0.174101
0.191468
0.209644
0.196102
0.190735
0.193958
0.111662
0.229595
0.093413
0.143951
0.037344
0.102270
0.037075
0.095767
0.073613
0.110180
0.175682
0.159762
0.092813
0.032689
0.055861
0.047427
0.025014
0.030400
0.005564
-0.010782
0.009691
0.045140
0.262721
0.380497
0.768883
1.099534
1.342125
1.466919
1.346631
1.176834
0.684169
0.371013
0.103861
-0.073144
-0.182697
-0.176600
-0.038175
-0.036942
0.097580
0.132031
0.130771
0.135063
0.115207
0.095728
0.114887
0.099175
0.084415
0.180171
0.094228
0.145186
0.202948
0.216593
0.201552
0.251714
0.320918
0.312955
0.241467
0.367362
0.366950
0.338923
0.399323
0.444790
0.400885
0.435146
0.411798
0.495417
0.519738
0.519308
0.527216
0.612221
0.604461
0.497845
0.541062
0.716083
0.570399
0.645804
0.598649
0.625139
0.510571
0.553765
0.564794
0.599959
0.544973
0.564640
0.429392
0.517129
0.547049
0.419817
0.400746
0.397841
0.404252
0.344446
0.423969
0.366963
0.283656
0.247853
0.283714
0.265039
0.237675
0.267220
0.214596
0.139782
0.243998
0.191080
0.205291
0.132476
0.132326
0.159103
0.077901
0.185249
0.134164
0.075303
0.123842
0.091813
0.091819
0.163893
0.128895
0.085132
0.092677
0.150904
0.088760
0.058630
0.076527
0.066313
0.105619
0.113570
0.101449
0.189983
0.081103
0.019033
0.114749
0.093105
0.059898
0.098938
0.069067
0.071124
0.071044
0.087230
0.079383
0.122488
0.069771
0.120291
0.062129
0.051824
-0.008877
0.111181
-0.010330
0.067599
0.041536
0.037225
0.132418
0.147467
0.099743
0.081396
0.077439
0.105016
0.115466
0.076270
0.190166
0.149263
0.152984
0.096302
0.097656
0.187843
0.156661
0.154956
0.120492
0.179200
0.095450
0.164233
0.097921
0.261850
0.213496
0.247709
0.297621
0.106680
0.211783
0.205864
0.228650
0.266686
0.285821
0.282809
0.201202
0.245278
0.275660
0.212342
0.245844
0.186563
0.151952
0.178058
0.133705
0.153039
0.197129
0.173601
0.210745
0.129401
0.162986
0.191664
0.080540
0.168009
0.075035
0.021232
0.100533
0.090586
0.103455
0.015285
0.020742
0.106192
0.077126
0.129776
0.105861
0.207223
0.287590
0.515143
0.817599
1.101019
1.372747
1.500000
1.363582
1.057231
0.762643
0.332022
0.058606
-0.058287
-0.059372
-0.130428
-0.077001
-0.091920
0.087603
0.090858
0.120869
0.140313
0.176512
0.028243
0.163327
0.109022
0.185242
0.240669
0.186592
0.223202
0.190336
0.224239
0.247227
0.309107
0.281132
0.216055
0.311516
0.348872
0.316127
0.394386
0.420392
0.427716
0.407942
0.395372
0.415035
0.532774
0.541905
0.503442
0.507321
0.598676
0.625273
0.601622
0.512030
0.630425
0.633657
0.674988
0.509868
0.529112
0.604291
0.502055
0.429381
0.567718
0.497987
0.530482
0.473512
0.469558
0.402669
0.445084
0.404575
0.425929
0.424306
0.428583
0.200753
0.366852
0.356120
0.239280
0.262638
0.212587
0.153592
0.158370
0.201066
0.148520
0.168428
0.187218
0.099328
0.094116
0.043796
0.096031
0.104125
0.093151
0.069019
0.035156
0.089482
0.072835
-0.024423
0.033383
0.016227
0.078112
0.138113
0.026531
0.071748
0.032945
0.027003
0.028481
0.047929
0.007749
-0.052572
0.104395
-0.042611
-0.029108
-0.012290
0.013671
0.074307
0.022318
0.038270
0.034881
-0.013770
0.014069
0.016977
-0.032237
0.060703
0.054423
0.108214
-0.059732
0.091273
0.042973
0.028400
0.007451
0.000900
0.068768
0.032004
0.036162
0.009806
0.020481
0.018177
-0.021628
0.047203
0.024560
0.003295
0.122911
0.086016
0.024301
0.043524
-0.007824
0.032070
0.117742
0.136687
0.138873
0.105871
0.147318
0.146615
0.142663
0.109594
0.252104
0.120487
0.160632
0.106322
0.150573
0.229624
0.222783
0.121898
0.158037
0.153987
0.150097
0.175983
0.121032
0.090146
0.192466
0.105186
0.130082
0.026027
0.102765
0.031625
0.122232
-0.008545
0.076585
0.011969
-0.013067
-0.037337
0.071598
-0.071548
0.060407
0.090371
0.069986
-0.000970
0.027189
-0.072613
0.036284
0.009026
0.004099
-0.009161
0.019719
0.173479
0.468868
0.851274
1.100879
1.281602
1.418636
1.230922
0.957043
0.547965
0.293815
-0.081734
-0.177092
-0.188184
-0.155359
-0.091883
-0.070329
-0.103608
-0.054025
0.014658
0.054834
0.081104
-0.021980
0.130349
0.117802
-0.061761
0.124787
0.092001
0.047989
0.149694
0.192512
0.201289
0.165376
0.264855
0.187046
0.193488
0.228337
0.297522
0.313083
0.265849
0.302621
0.317455
0.397287
0.380710
0.458995
0.422233
0.447748
0.428829
0.459480
0.433501
0.524269
0.463095
0.497140
0.464256
0.474500
0.429388
0.428413
0.431284
0.425112
0.402608
0.479482
0.338854
0.421186
0.407629
0.414004
0.371588
0.325229
0.220874
0.267460
0.307206
0.167349
0.233518
0.178072
0.168908
0.214108
0.183495
0.129392
0.166440
0.120093
0.119328
0.038145
-0.000505
0.049045
0.011154
0.097572
-0.030548
-0.064932
-0.023810
0.040142
0.062573
-0.104546
-0.068121
-0.016030
-0.030186
-0.036857
-0.077479
-0.164991
-0.036249
-0.043986
-0.075715
-0.038438
0.007469
-0.050054
-0.040810
-0.072188
-0.040331
0.034790
-0.128259
-0.039611
0.002154
-0.002912
-0.062566
0.002397
-0.102449
-0.069336
-0.040679
-0.115466
-0.092879
-0.101609
-0.108997
-0.019987
-0.090285
-0.115329
0.004263
0.002087
-0.098623
0.015444
-0.068162
-0.024288
0.003896
0.059733
-0.063443
-0.098909
-0.015580
-0.070873
-0.108624
-0.018920
-0.011297
0.050575
-0.027894
0.045061
-0.008190
0.011574
0.009306
0.063144
-0.049510
0.051652
0.093306
0.069140
0.091722
0.143022
0.155627
0.185554
0.118744
0.145764
0.014676
0.183559
0.149738
0.169405
0.127959
0.144853
0.110033
0.159193
0.095866
0.102085
0.068557
0.126130
0.077502
0.023366
0.030777
0.028652
0.139588
0.057426
-0.005567
0.036909
0.041482
0.048533
0.047937
0.035924
-0.022528
0.097049
-0.025187
0.015279
-0.006848
0.010691
-0.022986
-0.058851
0.047478
-0.028787
-0.020869
0.082948
0.257416
0.493949
0.833492
1.199078
1.380577
1.373905
1.213163
0.950067
0.526121
0.063363
-0.111099
-0.216422
-0.268236
-0.258672
-0.185477
-0.039725
0.022469
-0.016934
-0.019273
0.007934
0.069689
0.084678
0.120957
0.083464
0.065885
0.067069
0.144157
0.029453
0.017041
0.068877
0.237849
0.189819
0.223381
0.229481
0.286322
0.178161
0.288721
0.278983
0.361463
0.307554
0.431276
0.357124
0.364200
0.451994
0.480955
0.424546
0.465839
0.539931
0.483462
0.433295
0.512622
0.539099
0.497221
0.466288
0.493034
0.530863
0.536879
0.414720
0.507582
0.452035
0.547155
0.406616
0.388591
0.402259
0.412842
0.314133
0.347260
0.361679
0.360288
0.205836
0.255508
0.272836
0.238257
0.224608
0.137456
0.117964
0.079218
0.165799
0.119624
0.060287
0.103998
0.122040
0.158271
0.065120
0.150952
0.085515
0.000408
0.026251
0.034460
-0.027197
0.062466
0.059021
0.019724
0.063027
0.016507
-0.051045
0.031146
0.098205
-0.022100
-0.018802
0.032341
0.028940
0.037505
-0.001000
0.035751
0.020432
-0.033572
0.006150
0.071184
-0.051938
0.012699
0.022193
0.032086
0.054321
-0.016921
-0.005182
0.041985
0.019912
0.078725
-0.004346
-0.035703
0.016848
0.078933
-0.030763
-0.017163
0.184592
0.007133
-0.027749
0.081722
-0.012196
-0.018483
0.006541
0.060110
0.086269
0.046285
0.081064
0.010524
0.086338
0.063142
0.070882
0.130489
0.049836
0.149123
0.073750
0.142753
0.082513
0.140673
0.203934
0.138686
0.229992
0.250013
0.184141
0.134731
0.310889
0.193541
0.225876
0.259280
0.205674
0.281086
0.201468
0.242588
0.181426
0.199267
0.205676
0.258376
0.173871
0.183300
0.177229
0.168784
0.126057
0.055547
0.067542
0.123553
0.020625
0.014615
0.104697
0.134356
0.097375
0.090838
0.121991
0.071936
0.073972
0.043649
0.079203
0.023393
0.017723
0.057376
0.197666
0.049415
0.115852
0.377746
0.536277
1.021802
1.270508
1.476773
1.388206
1.334209
0.952156
0.463154
0.220716
0.009743
-0.090635
-0.091859
-0.063497
0.003638
-0.040349
0.061780
0.044953
0.166313
0.192441
0.023286
0.182312
0.202254
0.118735
0.125345
0.099913
0.253244
0.164599
0.320600
0.313762
0.229152
0.318185
0.288386
0.394432
0.296678
0.440147
0.372203
0.362271
0.413329
0.423435
0.472646
0.570381
0.448390
0.591994
0.597963
0.545437
0.621578
0.568666
0.575644
0.596416
0.586287
0.579567
0.594437
0.668906
0.543486
0.560762
0.514627
0.562032
0.554523
0.556142
0.568362
0.494361
0.432115
0.535281
0.535064
0.460354
0.424616
0.393069
0.423568
0.398668
0.337605
0.245658
0.272007
0.320046
0.307379
0.187366
0.170425
0.125290
0.225169
0.254354
0.243741
0.185409
0.109255
0.140640
0.096306
0.159172
0.148067
0.067180
0.099635
0.131424
0.130006
0.082472
0.104188
0.105757
0.124945
0.058169
0.109117
0.048027
0.143394
0.053046
0.243186
0.147692
-0.008355
0.049296
0.125368
0.045621
0.048427
0.007644
0.120611
0.173817
0.115734
0.182064
0.038036
0.101900
0.054598
0.113993
0.161800
0.008788
0.139420
0.123662
0.013274
0.151006
0.149778
0.071823
0.047277
0.035441
0.154381
0.029776
0.192037
0.167040
0.118877
0.052503
0.117737
0.182216
0.112889
0.123741
0.101739
0.088403
0.179840
0.119940
0.187265
0.136454
0.150336
0.153019
0.213477
0.243264
0.225727
0.154222
0.244117
0.222809
0.221587
0.268967
0.261837
0.291660
0.220386
0.279517
0.253895
0.283575
0.255142
0.277632
0.342267
0.175988
0.255632
0.272064
0.157276
0.203683
0.074504
0.130538
0.161533
0.175989
0.156838
0.094504
0.134045
0.123941
0.090294
0.127576
0.180801
0.079925
0.173987
0.003439
0.070301
0.090521
0.079239
-0.013825
0.045173
0.062372
0.048474
0.069414
0.091612
0.162938
0.333059
0.670493
0.945010
1.225360
1.434080
1.404561
1.338023
0.967823
0.560175
0.193219
-0.013689
-0.183644
-0.208277
-0.030729
-0.034577
-0.011897
0.152918
0.047222
0.037595
0.120761
0.126666
0.069136
0.148374
0.119505
0.222660
0.192522
0.232943
0.183380
0.232786
0.146415
0.252070
0.271722
0.258304
0.275670
0.335750
0.307741
0.304729
0.409093
0.378783
0.421925
0.430208
0.385229
0.408904
0.463902
0.555334
0.604920
0.638255
0.502777
0.598149
0.586413
0.589798
0.616815
0.499536
0.577126
0.524025
0.662602
0.556976
0.608566
0.509105
0.465590
0.461958
0.382291
0.523543
0.395123
0.450218
0.390316
0.358593
0.339589
0.356068
0.371900
0.229907
0.334179
0.292732
0.169684
0.235999
0.150228
0.211668
0.136044
0.117260
0.104559
0.181139
0.237165
0.090506
0.143898
0.037783
0.066965
0.057638
0.104239
0.037932
0.035270
0.053758
0.153275
0.092441
-0.046965
0.037677
0.051050
-0.018761
0.065304
0.058300
0.011074
0.067512
0.041186
-0.046304
-0.063103
0.045971
0.024455
0.054899
-0.001396
0.025311
-0.024608
-0.040214
0.001184
0.034472
0.060617
-0.034359
0.032379
0.047553
0.016890
0.020666
0.005905
0.010854
0.021135
0.033893
0.055596
-0.056454
-0.062236
0.011068
-0.037493
0.064102
0.065012
0.009415
0.057952
-0.016152
0.044495
-0.005340
-0.070075
-0.002827
-0.004873
0.055499
0.051010
-0.005972
0.055724
0.112036
0.054996
0.084096
0.080708
0.068237
0.135279
0.083700
0.128847
0.144206
0.211420
0.225608
0.248654
0.159218
0.123497
0.221400
0.187158
0.174489
0.155088
0.157607
0.237246
0.135684
0.126488
0.070978
0.070646
0.075381
0.104033
0.100091
0.046337
0.046594
0.113244
0.011756
0.056762
-0.046838
-0.076366
0.014873
-0.001347
-0.033472
0.020786
-0.046529
-0.015179
-0.003901
-0.029611
-0.040831
-0.061303
0.017456
-0.005034
0.092694
0.134339
0.278636
0.594373
1.019178
1.223625
1.348052
1.341690
1.075066
0.711975
0.366662
-0.029471
-0.266952
-0.273519
-0.240393
-0.226394
-0.060893
-0.062686
-0.072184
0.031281
-0.065182
0.001319
-0.014795
0.056490
-0.029323
0.054586
0.043004
0.064713
-0.015754
0.120721
0.076897
0.089593
0.195991
0.103629
0.165754
0.147440
0.140419
0.206438
0.228493
0.241331
0.298206
0.364077
0.382795
0.423642
0.346752
0.350957
0.455833
0.393508
0.492453
0.433881
0.437114
0.419296
0.461394
0.406717
0.421018
0.439785
0.512726
0.473933
0.374384
0.394852
0.381331
0.441502
0.311982
0.420653
0.352738
0.297330
0.291833
0.357688
0.342321
0.226032
0.157557
0.162238
0.083132
0.143536
0.073420
0.106750
0.116418
0.081773
0.095868
0.086313
0.070675
0.007760
0.048982
0.004426
0.031335
-0.047689
-0.058496
-0.039502
-0.043029
-0.088175
-0.013305
-0.059923
-0.105883
-0.046855
-0.100792
-0.023008
-0.063560
-0.017959
-0.089556
-0.049758
-0.152485
-0.107187
-0.118375
-0.014288
-0.070445
-0.127489
-0.043680
-0.098643
-0.004827
-0.136624
-0.030083
-0.136025
-0.101724
-0.066467
-0.060277
-0.083009
-0.106227
-0.105283
-0.109592
-0.095964
-0.089752
-0.132679
-0.049810
-0.072408
-0.038034
-0.113065
-0.113022
-0.069836
-0.060522
-0.046557
-0.067984
-0.040206
-0.081241
-0.060781
-0.055781
-0.140338
-0.076571
-0.012278
-0.024592
0.015738
-0.036613
-0.004502
0.014778
-0.038675
-0.041960
0.034071
-0.075597
-0.034526
0.001025
0.041713
0.004028
0.086035
0.090094
0.058157
0.133319
0.071108
0.046909
0.133393
0.103478
0.128231
0.090845
0.007831
-0.034655
0.094995
0.021357
0.134455
0.126151
0.002013
0.041534
0.013048
-0.070499
-0.011652
-0.026848
0.012815
-0.024498
0.008112
-0.080229
-0.018208
-0.059902
0.030001
-0.049808
-0.065092
-0.055729
-0.076531
-0.084793
-0.075220
-0.069369
-0.031591
-0.130809
-0.193235
-0.027142
0.103525
0.242621
0.611107
0.894776
1.183701
1.290516
1.204378
1.046509
0.609641
0.382330
-0.071990
-0.220551
-0.215308
-0.247854
-0.167755
-0.151285
-0.118164
-0.046306
-0.032436
-0.014316
-0.087218
-0.001215
-0.007570
0.017638
0.020161
0.018729
0.047706
0.076777
0.006964
0.004484
0.146010
0.139227
0.209005
0.143841
0.241908
0.168600
0.187498
0.344069
0.259258
0.324558
0.355936
0.281237
0.373896
0.474823
0.406768
0.341836
0.456278
0.401464
0.442441
0.378912
0.466817
0.461189
0.513878
0.530649
0.491734
0.446764
0.463534
0.402452
0.437262
0.388560
0.441471
0.350345
0.297072
0.391960
0.351028
0.273772
0.292709
0.208327
0.299174
0.262462
0.123629
0.232526
0.191924
0.158840
0.200417
0.154870
0.196603
0.128031
0.108011
0.125775
0.053073
0.057836
-0.023206
0.009801
-0.014232
-0.003937
0.022620
-0.009688
0.123426
-0.017890
0.019910
-0.083280
-0.044136
0.011793
-0.011695
-0.051506
-0.065784
-0.001916
0.011939
-0.020079
-0.002160
-0.057947
-0.081555
-0.010675
-0.021848
-0.105183
0.054688
-0.023890
-0.024177
-0.062646
0.030694
0.068280
-0.047398
-0.043868
-0.001405
0.041455
-0.049912
-0.007999
-0.002631
0.012164
0.049129
-0.049203
-0.095963
-0.052060
-0.057988
0.015784
-0.003359
0.016408
-0.047902
0.002556
0.031547
-0.068663
0.048931
-0.001854
-0.035189
0.050980
-0.025642
0.067926
-0.018195
-0.101325
0.041541
0.091198
-0.045101
0.090388
0.136860
0.208272
0.090022
0.102298
0.172010
0.144064
0.081608
0.136407
0.190464
0.170525
0.125274
0.139189
0.126210
0.119768
0.162197
0.140443
0.130983
0.148684
0.136241
0.229048
0.200928
0.101352
0.125205
0.170725
0.195677
0.132605
0.048488
0.087635
0.088418
0.078284
0.056675
0.006942
0.028446
-0.012158
0.088626
-0.027034
0.021122
0.022618
0.033382
-0.004211
0.108004
0.065487
-0.052584
0.028405
-0.068681
0.094447
0.149539
0.437047
0.781442
1.150906
1.348510
1.425064
1.314991
1.026232
0.787136
0.321276
0.059144
-0.162049
-0.194006
-0.187586
-0.074646
-0.025829
0.011392
0.036869
0.083774
0.121909
0.164793
0.153906
0.047204
-0.011523
0.147766
0.091703
0.127082
0.210193
0.183126
0.159798
0.156616
0.308718
0.212274
0.188725
0.301905
0.296135
0.294887
0.404116
0.409299
0.409682
0.413861
0.433196
0.490015
0.424434
0.465348
0.493760
0.547351
0.515755
0.489342
0.547672
0.561939
0.557315
0.611467
0.667808
0.557062
0.540985
0.539028
0.545474
0.564117
0.511851
0.595566
0.477693
0.437893
0.481123
0.441935
0.399715
0.428372
0.372998
0.449768
0.317974
0.354295
0.299703
0.263413
0.265166
0.244913
0.214878
0.144229
0.221477
0.178924
0.166626
0.112492
0.182494
0.196506
0.121347
0.100473
0.080799
0.095756
0.099800
0.086091
0.036921
0.004910
0.129020
0.099067
0.095796
-0.012474
0.049448
0.025344
0.049055
0.050533
0.027334
0.022953
0.134970
0.085233
0.131835
0.067047
0.007435
0.058287
-0.010251
0.141174
0.096089
0.051729
0.072182
0.037161
0.041665
0.053121
0.090025
0.036345
0.119296
-0.028201
0.074900
0.013595
0.045210
0.071553
0.088303
0.055840
0.108949
0.107600
0.123683
0.122279
0.019876
-0.007240
0.011671
0.055520
0.040114
0.102177
0.122270
0.034993
0.075633
0.080489
0.015786
0.078176
0.085825
0.070677
0.090130
0.159726
0.155537
0.172629
0.186953
0.194606
0.187839
0.202033
0.283566
0.276634
0.292005
0.270051
0.220270
0.166638
0.287956
0.228892
0.273995
0.077276
0.216159
0.185888
0.179496
0.186666
0.180740
0.147497
0.122766
0.194362
0.108154
0.114627
0.126374
0.159405
0.138179
0.074828
0.087594
0.026247
0.112971
0.032812
0.007313
0.012437
0.052126
0.051914
0.007606
0.099147
0.032842
0.030677
0.026022
0.033496
-0.008303
0.344557
0.471144
0.774260
1.137172
1.390280
1.437224
1.337285
0.993885
0.609664
0.368721
0.044554
-0.098293
-0.165930
-0.207201
-0.088499
-0.029085
0.034037
0.028563
0.100184
0.023568
0.085313
0.177295
0.059809
0.133222
0.069659
0.150860
0.139532
0.078636
0.165559
0.198869
0.187358
0.158321
0.221913
0.279565
0.211334
0.202580
0.382878
0.352085
0.324138
0.300175
0.362637
0.377910
0.416612
0.445911
0.452810
0.456753
0.570501
0.481116
0.490878
0.565262
0.431832
0.474536
0.539212
0.504600
0.525435
0.547917
0.555465
0.513855
0.437637
0.432103
0.495405
0.495403
0.407001
0.380428
0.346489
0.320994
0.222064
0.392895
0.331007
0.207824
0.241767
0.233121
0.266812
0.179039
0.252298
0.124108
0.126574
0.117050
0.062632
0.079205
0.106131
-0.018540
0.059574
0.052299
0.154426
0.059808
0.085316
0.054091
0.021021
0.007143
0.023254
-0.029012
0.010996
-0.007505
-0.001087
-0.008719
-0.098149
-0.040012
-0.000239
0.005075
0.068538
-0.019254
-0.002435
-0.066407
0.013893
0.011910
-0.009055
0.000248
0.004404
-0.013947
0.005221
-0.037446
-0.010655
-0.131874
0.045919
-0.038185
-0.011224
-0.008638
-0.053104
-0.114928
-0.038648
-0.110759
-0.058445
-0.065687
-0.030835
-0.045886
0.025791
0.054526
-0.044854
-0.007172
-0.067941
-0.010833
-0.047257
-0.090241
-0.001956
0.006738
0.001208
0.034658
-0.026719
-0.051414
0.027636
-0.007614
-0.049168
0.037712
-0.008106
0.040686
0.086476
0.099742
0.087810
0.078847
0.071387
0.074471
0.030064
0.117281
0.191986
0.047037
0.192754
0.126479
0.098894
0.180845
0.113687
0.116220
0.124156
0.028206
0.084015
0.025645
0.057187
0.099093
0.066129
0.017395
0.061336
-0.055810
0.045908
0.022994
-0.008147
-0.086777
-0.039599
0.025777
-0.038810
-0.031921
-0.027922
-0.083616
-0.049945
-0.078158
-0.078155
-0.074812
-0.113041
-0.106097
-0.005656
0.033314
0.196208
0.384556
0.729790
1.029901
1.272749
1.318308
1.208489
0.890616
0.409016
0.150696
-0.075491
-0.325964
-0.213974
-0.260696
-0.204264
-0.117031
-0.063801
-0.089358
-0.048039
0.004830
0.002864
-0.047103
0.053610
-0.053657
-0.029395
-0.042658
0.078190
-0.008111
-0.013884
0.130615
0.185711
0.077201
0.145236
0.121266
0.205640
0.174890
0.207814
0.211789
0.235764
0.184305
0.289991
0.305611
0.354296
0.275987
0.433363
0.393335
0.355154
0.432552
0.384594
0.373111
0.428896
0.500529
0.449372
0.434863
0.474771
0.467080
0.396614
0.422877
0.393201
0.486065
0.354464
0.408141
0.293943
0.289337
0.297746
0.333747
0.204198
0.209740
0.265731
0.137691
0.118108
0.182297
0.049304
0.111856
0.102576
0.048032
-0.016884
0.052332
0.054397
0.022923
0.024074
0.067644
0.016018
-0.006045
-0.100947
-0.061920
-0.066306
-0.131901
-0.077471
-0.062808
-0.069576
-0.082458
-0.079615
-0.093912
-0.102399
-0.223421
-0.074284
-0.109046
-0.095722
-0.141191
-0.131866
-0.057978
-0.134083
-0.098928
-0.129789
-0.116791
-0.150220
-0.100804
-0.088838
-0.013774
-0.034338
-0.095665
-0.137740
-0.118282
-0.116595
-0.160409
-0.021032
-0.080563
-0.096478
-0.088137
-0.096021
-0.076629
-0.107591
-0.095027
-0.080173
-0.009189
-0.096441
-0.045919
-0.026290
-0.067390
-0.098286
-0.173547
-0.060580
-0.149617
-0.088231
-0.036259
-0.094300
-0.020244
-0.038854
-0.053707
-0.072158
-0.049747
0.015467
-0.111624
0.051538
-0.036092
0.001384
0.024167
0.052632
-0.046483
0.026085
0.094801
0.093772
0.047350
0.020492
0.119773
0.119538
0.034016
0.020405
0.106284
0.128461
0.031872
-0.019061
0.052879
0.103675
0.027818
0.036908
0.016797
0.045983
-0.054287
-0.003181
-0.088215
-0.057611
-0.022497
-0.024754
-0.023653
-0.119727
-0.099778
-0.094110
-0.085884
-0.052319
-0.037340
-0.045006
-0.139885
-0.024388
-0.059340
-0.100741
-0.089984
-0.055705
-0.003975
0.195025
0.463575
0.714711
1.134771
1.239936
1.320111
1.176772
0.870472
0.445524
0.086632
-0.175442
-0.290009
-0.279723
-0.209911
-0.177751
-0.127691
-0.072838
0.008194
-0.072827
-0.016374
-0.012896
0.034397
0.023233
0.073709
0.065279
-0.005479
0.012832
0.068907
0.010393
0.043634
0.188283
0.164185
0.192983
0.181837
0.167992
0.222839
0.265117
0.174151
0.322812
0.374981
0.224631
0.353021
0.404864
0.312031
0.348549
0.334078
0.470865
0.440236
0.477656
0.472631
0.449260
0.438181
0.472545
0.435304
0.406782
0.501447
0.425585
0.472072
0.435364
0.384631
0.407063
0.372813
0.376823
0.370580
0.376232
0.334346
0.305635
0.282263
0.270763
0.205014
0.231068
0.255420
0.109697
0.144746
0.113295
0.163577
0.091082
-0.027989
0.076550
0.103318
0.077874
0.053373
0.153987
0.049950
0.073509
0.087374
0.008095
-0.095376
0.025314
-0.041208
0.007970
-0.089201
-0.069827
-0.084006
-0.018774
0.013625
0.019200
-0.001316
0.007490
-0.017742
-0.056946
0.023006
0.052069
-0.017006
0.018712
-0.011946
0.005068
-0.006606
-0.020936
0.027423
-0.020049
0.027212
0.018785
0.028298
-0.042475
0.001150
-0.001646
0.047627
-0.038575
-0.078290
-0.141272
0.006184
-0.010801
0.023998
-0.019286
-0.039670
0.035460
-0.044154
-0.042782
0.037490
-0.000064
0.060922
0.108400
-0.021469
0.037649
0.009623
0.057002
-0.066245
0.067216
0.033785
0.107905
0.088080
0.027032
0.064396
0.109442
0.095338
0.139885
0.149938
0.145028
0.195976
0.149594
0.304930
0.181067
0.178112
0.232167
0.193764
0.158681
0.222093
0.239473
0.205468
0.134618
0.185071
0.095670
0.201965
0.161787
0.141571
0.164173
0.186613
0.096349
0.018476
0.110344
0.018270
0.043200
0.054202
0.140675
0.069327
0.037942
0.019850
0.033978
0.016384
0.042225
-0.009211
0.081082
-0.034373
0.090895
0.102931
0.019027
0.050627
0.140750
0.106956
0.355708
0.596848
0.850759
1.154268
1.399978
1.368577
1.197958
0.977110
0.460462
0.174584
-0.052575
-0.170454
-0.118827
-0.066739
-0.039143
0.020611
0.056556
0.109233
0.056715
0.157976
0.115133
0.075062
0.124608
0.111831
0.165100
0.117552
0.135844
0.134274
0.118685
0.197382
0.186801
0.189709
0.215902
0.282349
0.388788
0.298189
0.399931
0.402628
0.477978
0.424339
0.487049
0.501881
0.491565
0.491798
0.551637
0.540462
0.521087
0.501818
0.549129
0.540750
0.572368
0.565682
0.627092
0.601788
0.557065
0.629740
0.678524
0.505228
0.553163
0.531313
0.604394
0.518747
0.449152
0.500639
0.459598
0.371339
0.427518
0.392256
0.334963
0.199158
0.268167
0.263125
0.293166
0.242981
0.235098
0.177712
0.177696
0.328489
0.218079
0.120328
0.122698
0.053154
0.190747
0.117478
0.145518
0.200431
0.203646
0.141233
0.105240
0.105390
0.087809
0.023673
0.064496
0.106092
0.094103
0.025553
0.040004
0.064561
0.076003
-0.058264
0.060604
0.062344
0.060909
0.106526
0.091167
0.063484
0.129956
0.057858
0.130575
-0.000581
0.097824
0.070582
0.064295
0.096451
0.013915
0.074118
0.105779
-0.002581
0.084467
0.047259
0.119307
0.079606
0.080831
0.056315
0.012483
0.007670
0.117297
0.029549
0.076111
0.060869
0.065569
0.198897
0.042688
0.085838
0.118049
0.079884
0.085470
0.093002
0.136995
0.130757
0.124948
0.114056
0.143452
0.136758
0.200775
0.141286
0.152418
0.200749
0.280888
0.236795
