0.281434
-0.398454
-0.453257
0.468338
-0.030888
-0.010144
-0.388073
-0.424987
0.078035
-0.533659
0.050429
0.119307
0.195268
-0.040228
-0.189230
0.213461
-0.698674
-0.168058
0.397469
-0.035317
-0.267558
-0.366468
0.441794
0.076287
0.642754
-0.221088
0.180190
-0.234790
0.240158
-0.384462
0.464483
0.090777
0.149535
0.866759
0.414455
-0.057016
0.008951
-0.574190
0.081238
0.100613
0.002739
0.969746
0.230474
-0.088667
0.183438
0.017343
-0.405490
-0.196399
-0.440171
-0.074524
0.496217
0.726128
0.518207
-0.402386
0.652602
0.163829
0.731720
-0.633807
0.384998
0.467034
-0.360765
-0.032384
-0.300422
-0.246347
0.100928
-0.159598
0.245959
0.341430
0.140297
0.203149
-0.259680
-0.877055
-0.003640
0.279140
-0.177417
0.797468
-0.314709
0.258530
-0.207569
-0.452310
0.198319
-0.039371
0.242982
-0.008354
0.508937
0.168241
-0.160839
-0.023152
0.190840
0.035781
0.038384
0.564553
-0.124678
-0.408154
0.163158
0.458560
0.341857
0.757025
0.567779
0.174572
0.418540
0.843413
0.709536
0.829847
0.339059
0.496283
-0.277088
0.187489
-0.652826
-0.529657
0.042164
-0.633569
-0.122731
0.570844
-0.270351
0.627236
0.488163
0.664493
-0.535296
-0.808520
0.193509
0.109939
0.887455
0.334491
-0.308596
0.088145
-0.130721
0.527174
-0.248148
-0.126626
0.366485
-0.185262
-0.264703
0.144593
0.281670
-0.213568
-0.008156
-0.108684
0.156327
0.143807
0.399715
0.281066
-0.242968
1.118311
0.004249
0.142676
-0.080371
0.534617
0.311565
0.186524
0.676225
0.160515
0.506143
0.387876
0.143711
-0.132146
-0.330732
-0.266260
0.325817
0.141813
0.410100
0.077019
0.365754
-0.077078
0.586467
-0.395281
0.001312
0.804324
0.551284
-0.243766
0.580413
0.449641
0.580443
-0.287022
-0.145835
0.253549
0.714823
0.200772
0.898153
-0.084248
-0.005773
0.381871
0.486855
0.330447
0.683861
0.195941
0.067033
0.151783
0.479551
-0.236850
0.259072
0.052624
-0.111964
0.648895
0.068391
0.081481
-0.195857
0.835652
0.253174
-0.587420
-0.380276
0.428791
-0.518144
0.199492
-0.494088
0.103537
0.267774
0.456966
0.401400
0.411476
0.082175
-0.561979
0.111756
0.123866
0.039373
-0.252920
0.355734
0.520693
0.047080
-0.477477
-0.468387
-0.387162
0.530301
-0.094121
-0.389126
-0.525267
-0.129449
-0.109956
-0.492220
-0.709644
-0.262418
0.261499
0.192623
-0.169483
-0.386874
0.104397
-0.144878
-0.025462
-0.046473
0.378909
-0.135673
0.233292
0.359994
-0.255605
0.868169
-0.366872
0.038885
-0.589483
-0.334164
0.452701
0.352662
0.269415
0.671956
0.084919
0.687854
0.220777
0.067557
0.341951
-0.000351
-0.081931
0.301868
0.274039
-0.099811
0.409255
0.874499
0.151998
0.086945
-0.066290
-0.138842
0.503275
0.357958
0.327737
0.273377
0.007869
-0.901720
0.497520
-0.263966
0.629000
-0.072551
0.095456
0.134529
0.161350
-0.022623
0.519579
0.049864
0.177874
-0.031133
0.073919
-0.165545
1.046758
0.230569
-0.372979
0.238363
0.525120
-0.122545
0.297468
-0.029090
-0.159779
0.630865
0.164627
0.448277
0.308466
0.236080
-0.001421
0.248318
0.208170
-0.567650
-0.014245
1.044459
0.076834
-0.272480
0.250805
1.159096
0.419295
0.007064
0.105282
-0.238540
0.126403
0.246187
0.308260
0.215378
0.115993
-0.210692
0.687194
0.368327
-0.157081
0.189856
-0.805919
-0.068190
0.790728
0.607597
0.140711
-0.420598
-0.098035
0.158606
-0.400627
-0.117454
-0.534717
0.141026
-0.149384
0.182021
-0.209609
0.391810
-0.490716
-0.034225
-0.042589
-0.214208
-0.451252
0.077508
-0.426649
-0.025918
-0.378475
-0.036387
0.601437
0.713609
0.427437
1.102822
0.817131
0.560285
0.424535
0.514292
0.615045
-0.313584
-0.460885
-0.817776
0.098963
-0.283983
-0.234955
0.392102
0.200301
0.451594
0.039281
-0.506672
-0.100051
0.122136
0.691284
0.468446
0.026271
0.716601
0.105758
-0.457205
0.103741
0.291339
-0.111409
0.066661
-0.100343
-0.126078
-0.196673
-0.213123
-0.255068
0.395097
-0.350918
-0.041542
0.851823
-0.063970
0.230109
-0.249384
0.417190
0.569659
-0.103537
-0.146390
0.057086
0.378201
0.406518
0.391367
-0.195473
0.466336
0.236223
0.645248
0.622601
0.142850
0.268939
0.444786
-0.093690
-0.132840
0.223252
0.179374
0.426304
0.014361
0.154765
0.538170
1.027008
0.879511
0.301447
-0.122332
0.019554
0.274531
0.453653
0.375577
0.157435
0.188043
-0.006577
0.033024
-0.339227
0.074031
0.113641
0.179380
0.160048
0.195956
-0.040985
0.027241
-0.379750
0.163103
-0.201809
-0.252862
0.130093
0.064096
0.019475
0.174660
-0.171873
0.169870
-0.169788
-0.065279
-0.459738
0.320862
-0.449072
0.198589
-0.205434
0.062053
0.225339
0.101721
-0.221590
0.218336
-0.351706
0.254327
-0.494312
-0.305076
0.004852
0.345485
0.445239
0.262909
-0.290433
0.324984
-0.288195
0.313172
0.403249
0.143873
-0.358926
-0.492790
0.245271
0.476100
-0.126294
-0.532111
0.328591
-0.494745
-0.382791
0.021548
-0.335829
0.779144
-0.134422
0.300198
0.013557
-0.227021
-0.618388
-0.033252
-0.244379
0.220490
-0.326797
0.207182
0.234378
0.014658
0.109844
-0.232136
-0.065568
0.208897
-0.307653
0.162852
0.362171
-0.189589
-0.344749
0.437769
0.146038
0.307604
0.682894
0.423477
0.000229
-0.330104
0.679167
-0.295834
0.141890
0.320771
-0.640488
-0.360838
-0.491262
-0.509861
0.236955
0.468319
-0.160151
0.336478
0.732726
0.064765
-0.292370
0.468737
0.301178
0.282615
-0.003526
-0.106581
0.868528
0.040789
-0.094822
-0.462312
0.450264
0.562685
-0.302201
0.786579
0.240922
-0.087253
0.129799
0.157413
0.332761
0.208635
0.130850
0.046452
0.023143
0.242513
0.084478
0.254335
-0.018587
0.341266
0.306710
0.491932
0.064198
0.294032
0.021578
0.551482
0.071635
-0.395554
0.398172
-0.058766
0.388210
0.011695
-0.253187
-0.460467
-0.842577
-0.213932
-0.264240
-0.279870
-0.380334
0.090431
0.081008
-0.011763
0.161433
-0.257585
-0.112195
-0.143839
0.394779
0.477999
0.055415
-0.200124
-0.354259
-0.355741
0.021373
-0.157583
0.403258
0.177332
0.201909
0.636657
0.087364
-0.240653
0.215362
0.649735
-0.078680
-0.370604
0.571140
-0.384302
0.281117
0.395507
0.172281
-0.349612
0.389270
0.454413
0.493440
0.536969
0.209352
-0.062302
-0.519168
-0.375102
0.339178
-0.426037
-0.231909
0.165054
0.101265
0.078925
-0.229435
-0.005178
0.013046
0.002265
0.144733
0.093423
0.450124
-0.123460
-0.470119
-0.631196
-1.028650
-0.030087
-0.280663
-0.423720
-0.041056
-0.009332
0.002578
-0.302240
0.097361
-0.624686
-0.714192
-0.305090
0.479980
0.842096
0.022890
0.301424
0.093233
-0.181087
0.241792
-0.928867
0.199423
-0.135744
0.785288
0.392274
0.243607
0.301503
0.244540
0.492418
-0.110135
0.157455
0.026290
-0.068662
-0.361260
0.242883
-0.037740
0.345897
0.660303
0.125884
0.282771
0.140613
0.452397
0.012359
-0.050078
0.095714
-0.527120
0.439710
-0.021603
0.507321
-0.979212
0.344481
-0.154801
-0.120271
-0.240150
-0.006463
-0.263215
0.340300
0.292382
0.537058
0.249392
0.266985
0.561822
0.503321
0.470866
0.226014
0.467546
-0.182964
-0.132232
0.393137
-0.122285
0.500630
0.273209
0.298912
-0.068586
0.056798
0.536215
-0.104243
-0.031035
-0.279696
0.470377
0.217718
0.596269
-0.276455
-0.002554
0.108787
-0.100150
-0.535304
-0.380766
0.150120
-0.362112
-0.113221
0.194313
0.057823
0.118822
0.172026
-0.097169
-0.189554
0.321655
0.444331
0.046906
0.149501
-0.137340
0.591174
-0.174996
0.885494
-0.168032
-0.162400
-0.059415
-0.794044
0.098092
-0.022983
-0.088123
0.131365
0.480164
-0.185006
0.307462
0.228604
-0.555989
0.378622
0.059838
-0.310574
0.129435
0.086167
-0.545395
0.169774
-0.607798
-0.151489
0.141504
-0.590950
-0.378678
0.665362
-0.127877
-0.042719
-0.041783
-0.389704
0.162849
0.359668
-0.393200
-0.384555
-0.353018
0.211694
0.183736
0.146176
0.311687
-0.363420
-0.102034
0.671590
0.135816
0.010977
-0.485745
-0.152067
0.035330
-0.014077
-0.017441
0.581456
-0.602023
0.799312
0.171766
-0.442107
-0.000775
-0.093734
-0.000815
0.292951
0.239631
0.073052
0.375899
-0.277226
0.123794
-0.511113
-0.923894
0.359953
0.614882
0.848795
-0.026517
-0.144288
0.195072
0.038877
-0.080773
-0.364333
0.448756
0.182364
-0.082441
0.387380
0.753924
-0.384069
-0.021395
0.283318
-0.116176
0.073972
0.262574
0.905217
0.129813
0.271173
-0.087722
0.221844
0.170575
0.156286
0.467206
-0.054252
0.493468
0.504674
0.175929
-0.251789
0.152641
0.535307
0.232554
0.494908
0.037022
0.168957
-0.153621
0.095750
0.633634
-0.815576
0.356255
0.750053
0.273240
0.604875
-0.036721
0.205172
-0.463432
0.703155
-0.019602
0.305727
-0.099879
0.045537
0.044422
0.262915
0.373373
-0.026502
0.647167
0.618654
0.457492
0.536699
0.496345
0.341677
0.830982
0.551043
0.946368
0.520914
0.190605
0.291158
0.435505
0.280072
0.333479
0.011300
0.266312
-0.362724
-0.212064
-0.166054
-0.463792
0.034779
0.718301
0.223103
-0.454275
0.375284
-0.107394
0.201024
0.553668
0.803613
0.213886
-0.599600
0.227859
-0.108383
-0.490321
0.152986
0.024623
-0.579750
0.189787
0.007115
-0.103015
-0.055338
0.209884
0.249518
-0.020756
0.312505
-0.088311
0.191045
-0.054608
-0.188452
-0.007744
0.539928
-0.284702
-0.074870
0.770234
0.176481
-0.505790
0.089698
-0.414044
0.026533
0.642388
1.167637
0.067635
0.252781
0.617192
0.638389
0.784919
-0.207118
-0.128213
0.863130
0.556114
-0.314845
0.422837
0.240060
0.026593
0.075640
0.329320
-0.291301
0.203252
0.616129
0.701517
0.337231
0.419431
0.165800
0.212588
0.419771
0.464280
0.248703
-0.159980
0.216556
0.195060
-0.451841
-0.374473
0.080779
0.479563
-0.035145
-0.469884
0.452192
0.488581
0.314696
0.175862
-0.358462
0.047562
-0.485390
0.242333
0.106326
0.066360
-0.190222
-0.638505
0.017471
0.068993
0.277042
0.165365
-0.588396
-0.463464
0.413476
0.327656
0.251095
-0.345812
0.122116
-0.663296
-0.004436
0.274927
-0.208454
0.567708
-0.074257
0.459331
-0.034469
0.397771
0.052018
-0.160591
-0.499671
0.041998
0.361270
0.088429
-0.201567
0.193227
-0.062946
0.251291
-0.288056
0.087286
0.419275
0.163128
-0.020479
-0.015736
0.416231
-0.007207
-0.678342
0.329798
0.036872
0.514236
0.474513
-0.163831
-0.056171
0.621669
-0.107877
0.323427
0.322478
0.067443
0.234019
0.195052
-0.130341
-0.103781
-0.306802
0.944397
0.367021
0.215736
-0.300428
-0.178855
0.252151
-0.351323
-0.354140
-0.192173
-0.461325
0.385456
-0.612240
-0.141178
0.081270
-0.767893
-0.012567
-0.408401
-0.240138
-0.498858
-0.080437
0.703782
-0.455634
0.026201
0.790876
0.262139
0.332056
0.435189
0.160441
0.247545
0.351488
0.677349
0.511946
0.572300
-0.089961
-0.152287
-0.009995
0.223648
-0.033950
0.426573
0.212139
0.362028
-0.020187
0.213636
0.420719
-0.016809
0.520385
0.188643
0.309631
0.557563
0.190923
-0.639055
-0.149131
0.045376
0.117365
-0.001242
0.054336
0.757691
-0.298242
-0.178093
-0.626911
-0.021507
0.398173
0.182205
-0.192624
0.193721
-0.418223
0.047795
-0.045956
0.420282
0.543838
0.402807
-1.056066
-0.149303
0.021367
0.019691
0.164657
-0.260244
0.369993
0.042271
-0.329287
0.850813
0.308084
0.046011
0.022636
-0.243141
-0.122751
0.777555
-0.059610
-0.114327
-0.111529
0.537616
0.860971
0.746045
0.869584
1.500000
0.579266
-0.474191
-0.111191
0.271995
0.326671
-0.450598
-0.209880
0.671016
-0.513613
-1.174409
-0.252695
-0.269637
-0.238734
0.143471
-0.214843
0.249273
-0.193900
0.038970
-0.616866
0.253809
-0.202027
-0.037091
0.791026
0.038802
0.034572
-0.101429
0.376409
0.244045
0.022663
0.414993
0.694765
-0.954083
-0.300572
0.514393
0.434841
0.185921
0.244324
-0.218060
0.115509
0.664903
0.113283
0.040600
0.071643
-0.481399
-0.256699
0.706607
0.203235
0.248535
-0.343185
0.020563
0.051579
0.388040
0.257532
0.273975
0.253220
0.326472
0.232740
0.344640
0.104249
-0.052649
0.461510
0.615026
-0.127971
-0.244861
0.283675
0.304572
0.279510
0.148354
-0.141200
0.398909
-0.304657
0.619018
-0.107320
0.477266
0.084187
-0.016656
0.334177
0.468791
0.287916
0.195053
-0.286604
-0.350403
0.341205
-0.554127
0.410097
0.432396
-0.097940
-0.210579
0.333064
-0.346928
0.506366
-0.259530
-0.005526
0.426133
0.158883
-0.166086
0.082894
-0.419939
-0.223292
0.432807
-0.197234
0.730215
-0.576567
-0.044817
0.546491
-0.048153
-0.234164
0.251804
-1.049176
-0.440542
0.400922
0.188594
0.233261
0.061904
-0.289824
0.635101
0.556348
-0.172964
-0.118178
0.327214
-0.040289
0.237195
-0.108178
-0.098110
-0.428673
0.668898
-0.135873
0.311834
0.085597
0.195412
-0.040472
0.479837
-0.325535
0.244388
0.084513
-0.700787
-0.002072
0.274921
-0.367509
-0.426534
-0.254830
0.369276
0.751453
-0.215447
0.444477
0.130737
0.154387
0.173421
0.107762
0.828632
0.232335
-0.376420
0.134411
-0.483828
-0.796244
0.164828
0.141860
-0.149340
-0.059501
0.681219
-0.059283
0.018663
0.048423
0.767764
0.080852
0.012962
0.159171
0.192803
-0.209317
0.415759
-0.691530
-0.076362
-0.022180
0.336967
-0.431814
-0.080148
-0.148648
-0.432611
0.070889
-0.053485
0.324622
-0.430277
0.305942
-0.425173
-0.413545
0.062547
-0.699954
0.080400
-0.078153
-0.175285
-0.045586
0.636890
0.255487
0.435505
0.115381
-0.346073
-0.639091
-0.033430
0.067386
0.315741
0.022995
-0.076255
-0.679818
0.182483
-0.145807
0.339513
0.257759
-0.148005
-0.099291
-0.450851
0.961465
-0.272442
-0.187495
0.150106
0.048250
0.563250
-0.074158
-0.049671
0.293891
-0.129279
-0.076786
0.437222
0.117864
-0.129380
-0.152586
0.286145
0.062381
-0.073486
0.269077
0.089881
-0.023878
-0.369241
0.052852
-0.549037
-0.279624
0.381874
0.187346
-0.413992
0.541775
0.039032
-0.010907
-0.573275
0.284718
-0.051260
0.477861
-0.608481
-0.231111
-0.022789
0.388399
0.851912
0.444658
0.389386
0.588621
0.602360
0.449588
1.017069
0.634572
0.471310
0.350609
0.486580
0.087749
-0.396423
-0.469836
-0.045562
-0.875560
-0.132380
0.152692
0.219730
0.698371
0.597535
0.889152
-0.090873
-0.587065
-0.305236
0.177835
-0.067638
-0.103912
-0.399364
-0.225920
0.171532
0.016647
-0.211994
0.169695
0.745037
0.110217
0.020875
0.259769
-0.536432
0.490986
-0.042086
-0.377457
0.048914
0.495753
0.797460
0.321305
0.236738
-0.045614
0.197076
-0.036995
0.066945
0.639767
-0.499178
-0.038132
-0.059413
0.424457
-0.079047
0.263899
0.437831
0.044234
-0.341951
-0.134629
-0.070126
-0.243047
0.101165
-0.269209
0.684165
0.294552
-0.015360
0.155866
0.634533
0.187003
-0.012820
-0.427100
0.414353
0.311418
-0.073059
0.310407
-0.022149
0.917258
0.170137
-0.066381
0.057817
0.710228
-0.722773
0.305837
0.259842
-0.273882
0.525961
-0.002457
0.301712
0.348618
-0.445892
0.195279
-0.198828
0.092684
-0.395255
0.493106
-0.131225
0.312157
0.128090
0.295815
-0.184704
-0.085517
0.037499
-0.011424
0.190722
-0.233979
-0.190921
-0.283777
-0.232533
-0.362646
0.261561
-0.057208
-0.207923
0.081933
0.296712
-0.704448
-0.745162
0.388312
-0.297517
0.233136
-0.043627
0.017698
0.107612
-0.120968
-0.343248
-0.214731
0.641870
-0.280465
-0.579337
-0.264105
-0.301205
-0.235373
-0.194375
0.210423
-0.079725
0.081265
0.154445
0.110415
-0.011644
0.207195
-0.291075
-0.109695
0.035562
0.475108
0.052394
0.030268
-0.147400
-0.262714
-0.377690
0.086859
-0.121589
0.427800
0.358416
0.075150
0.905114
0.177383
-0.105713
0.092891
-0.797486
0.603070
-0.865839
-0.259090
-0.332712
0.147811
-0.113551
0.377385
0.621794
0.388678
0.031402
-0.251695
-0.895786
0.549172
0.359291
0.149258
-0.074151
0.101578
-0.663039
0.063348
0.323607
0.265695
-0.109514
-0.672393
-0.441934
0.089615
-0.073316
0.071108
-0.069079
0.033436
-0.146857
-0.134527
-0.118004
0.376882
0.294294
-0.250701
0.145990
-0.339946
0.454405
0.002064
-0.069557
0.191341
0.271844
0.410758
-0.143930
0.318848
0.331332
0.092684
-0.239011
0.388850
0.328620
0.267063
-0.099695
-0.013135
0.465169
0.079881
-0.156188
0.539263
0.921701
0.412220
0.097690
0.216855
0.975329
-0.102897
-0.087345
-0.123718
0.036810
0.660189
0.464572
-0.623060
0.434801
-0.261483
-0.055686
0.267881
-0.376969
0.178150
0.554406
-0.478732
0.077050
0.295391
0.485917
0.128149
0.082341
0.184316
-0.544859
0.493687
0.437238
0.101316
-0.367926
0.160444
0.237496
-0.316294
-0.135647
0.158580
0.011699
0.263960
-0.152852
1.257524
0.298983
-0.112933
0.777548
0.015466
0.708528
0.361125
-0.140990
0.858038
-0.453872
-0.848629
0.228701
0.367467
0.282679
0.038908
-0.049999
-0.450827
-0.387847
0.184446
-0.015253
0.372378
-0.730684
-0.277793
0.371319
-0.265676
-0.079323
-0.590376
-0.213821
0.031963
-0.057780
-0.023485
0.535864
-0.063676
-0.281328
0.463976
0.083966
-0.282118
0.112812
-0.177647
0.419815
0.217346
0.043257
0.043730
-0.833061
0.318198
-0.187516
-0.532111
0.334802
-0.018441
0.208335
0.217901
-0.267110
0.665514
-0.430127
-0.000112
0.857225
0.872041
0.349396
0.090002
0.185182
0.090929
0.067386
0.644519
0.163768
0.463594
0.277449
0.450892
0.158190
0.758680
0.459211
-0.000136
1.000208
0.689703
-0.132202
-0.001558
-0.134417
-0.202930
0.442486
0.449824
0.480049
0.242889
0.248202
-0.085175
0.429094
-0.395869
-0.404739
0.141022
0.119781
0.578823
-0.191774
-0.042818
-0.169471
0.213308
0.173483
0.403809
0.186562
-0.173556
0.264516
-0.166028
-0.645085
0.128072
0.247438
-0.071244
-0.549890
0.300333
0.300633
-0.040357
-0.017393
0.102252
-0.059084
0.082853
-0.587380
-0.289099
0.467361
0.281697
-0.289774
-0.064835
0.558223
0.124342
-0.170093
-0.006857
-0.790272
-0.186283
-0.304758
0.460689
0.308407
-0.239981
0.144870
-0.258218
0.636854
0.220356
0.207393
-0.627867
-0.422104
-0.034116
0.222957
-0.550085
-0.188317
0.124492
0.296652
0.644508
0.042416
-0.172360
-0.095870
0.288969
0.464837
0.347168
0.274315
-0.228027
-0.096496
-0.060173
-0.243488
-0.114888
-0.004851
0.326470
0.283036
0.370973
-1.043250
0.580746
-0.310869
-1.062728
-0.038709
-0.342876
-0.413639
-0.024809
-0.199570
-0.082460
-0.069963
0.152408
-0.261209
-0.004722
0.388424
-0.431835
-0.349116
0.364373
-0.248709
0.176925
0.216837
0.252851
-0.141138
0.122131
-0.234522
-0.151981
-0.248985
-0.222196
-0.466628
0.049132
0.320579
-0.579602
-0.092568
0.245341
-0.393781
-0.023271
0.786354
-0.234096
-0.091332
0.185045
-0.057659
0.065199
-0.081200
-0.204329
0.113820
-0.248303
0.572003
0.742224
-0.543494
-0.214946
0.876953
0.179504
-0.531684
0.040208
-0.416751
0.292500
0.028802
-0.157112
0.322581
0.675723
-0.113285
0.156868
0.734678
0.208200
0.561067
-0.019846
-0.094959
-0.023039
-0.150643
-0.229611
0.460987
0.029856
-0.046021
-0.038953
0.267484
0.361498
-0.452313
-0.097641
0.689567
0.637771
-0.246904
0.432413
-0.112838
0.138217
-0.249168
-0.130708
0.159747
-0.384660
-0.183153
0.133829
0.607654
0.287275
0.004327
-0.135963
-0.005521
-0.313570
0.441194
0.452080
0.649117
0.648718
0.172672
-0.164163
-0.024672
-0.384417
0.717000
0.427777
-0.500071
-0.079360
-0.462254
-0.448587
0.151901
0.407315
-0.350045
0.120332
0.089588
0.096449
-1.223292
-0.321571
0.840839
0.722045
0.679801
0.237141
0.270642
-0.174216
0.141223
1.208705
-0.092109
0.421636
0.019749
-0.365283
-0.067668
-0.149503
0.325935
0.148153
-0.209591
0.310367
0.143338
0.455001
0.359567
-0.021486
-0.435452
0.372888
-0.563931
-0.126223
0.405512
0.396354
-0.510566
0.576326
0.622363
-0.291241
-0.096718
-0.075392
0.088673
0.457302
0.532166
0.208120
0.513315
0.142854
-0.038844
-0.226916
-0.020592
0.493084
0.403873
0.737552
0.328318
0.407819
0.286356
0.378025
0.009187
0.399404
0.785995
0.278720
0.585288
0.091042
-0.494177
0.757048
-0.009183
0.101516
-0.337823
0.406676
-0.089539
0.494090
0.543909
0.356657
0.325428
0.661038
0.355352
0.257153
0.425752
0.236560
-0.040369
-0.365349
-0.200110
-0.587056
0.436771
0.385418
0.064363
0.038644
0.099975
0.135134
-0.400293
-0.237411
0.152712
0.035150
0.446437
-0.563176
-0.271904
-0.635846
0.245189
-0.061280
0.098657
-0.809275
-0.066382
0.237016
0.036770
0.286349
-0.200037
0.045078
0.630932
-0.351250
0.038942
0.138601
-0.262960
0.483469
-0.097452
0.312767
0.425631
0.213230
0.212993
-0.167911
1.180837
-0.586165
0.154628
0.726616
0.143641
-0.030647
0.137667
-0.020312
0.479120
0.006578
-0.236025
0.628086
-0.793056
-0.381454
-0.161407
0.260947
-0.187404
-0.253062
0.724519
-0.311913
0.136896
-0.062506
0.159467
0.472640
-0.158142
-0.227138
0.047987
-0.115367
-0.149232
0.171461
-0.423107
0.515762
0.065300
0.075570
0.258875
-0.613037
-0.294833
-0.555921
-0.204557
0.255170
0.160021
-0.197352
-0.170487
0.232384
-0.556711
-0.249757
-0.535311
-0.840480
-0.016674
-0.204464
-0.738527
-0.499140
-0.130897
0.150555
-0.073238
0.127416
-0.390220
0.274547
0.095983
-0.075116
-0.076672
-0.359855
-0.603667
0.490944
-0.473994
0.589692
0.136120
-0.110536
-0.019364
-0.474117
0.316821
0.433336
0.273448
-0.256270
-0.193703
0.311223
0.024002
0.394545
-0.536672
-0.838852
-0.500239
-0.399120
-0.271955
0.481421
-0.349587
0.242051
-0.137627
0.621859
0.339554
-0.006161
-0.080141
-0.445020
-0.809477
0.079532
0.091501
-0.228931
0.171893
-0.425219
-0.624280
-0.290674
0.030388
0.278389
-0.073624
-0.234957
-0.239546
-0.737007
0.268712
0.280521
-0.151043
-0.364156
-0.366097
0.145995
0.297247
-0.273318
0.170211
0.070390
0.646074
0.014268
0.259583
0.237967
0.593143
1.094998
0.547209
0.912502
0.372117
0.110233
0.367196
0.187007
0.004013
-0.183172
-0.653359
-0.738747
-0.049058
0.431910
-0.140682
-0.158542
0.282480
0.084416
-0.214169
0.716676
0.559219
0.004658
-0.067329
-0.338389
-0.484607
-0.162273
0.119966
-0.600535
-0.181389
-0.382260
0.063607
0.265762
-0.016802
0.430336
-0.533892
-0.674163
-0.279645
-0.336002
-0.295669
0.120186
0.331312
-0.253001
0.181126
-0.317285
0.567043
0.568803
0.583466
0.607334
0.466409
0.265676
0.632130
0.808048
-0.701181
-0.562711
0.227744
-0.214007
-0.128574
0.989970
0.394711
0.065555
-0.135306
0.291628
-0.318521
0.437561
0.270809
0.064738
-0.178296
0.093146
0.640099
0.474623
0.200685
-0.064527
0.611605
1.016659
0.605018
0.979980
0.523513
0.407786
0.129437
-0.128264
-0.072257
0.617958
-0.181581
0.133463
-0.036982
0.184325
0.425304
0.254016
0.602670
-0.330602
0.218150
-0.117463
0.466554
-0.655764
0.580941
-0.588512
-0.114662
-0.270615
0.245239
-0.537252
0.099103
-0.156161
0.232713
-0.023129
-0.305663
-0.039018
0.380101
0.054066
-0.316801
0.041088
-0.405057
-0.331397
-0.395628
0.091972
-0.131968
0.234772
0.287772
-0.214729
0.068338
-0.178522
-0.348356
-0.404164
0.317819
0.114142
0.643771
-0.221610
-0.217839
-0.108990
0.295719
0.096623
0.442746
0.110015
0.377714
-0.554987
-0.457573
-0.081537
0.214336
-0.637808
0.454396
-0.010007
0.059486
-0.188028
-0.373343
-0.198096
-0.809514
-0.024184
-0.214994
0.365455
-0.042365
-0.327787
-0.050553
0.617694
-0.410338
-0.684318
0.227183
-0.217186
0.053324
-0.137212
-0.079710
0.458511
-0.692605
-0.392161
0.024197
-0.209991
-0.092402
-0.303982
0.269553
-0.305770
0.527046
0.499089
0.089543
0.142344
0.238800
-0.039003
-0.574126
0.002140
-0.119960
-0.464513
-0.194447
-0.023768
-0.385212
0.586655
-0.619979
0.616641
0.369703
0.079812
-0.550848
-0.096935
-0.031341
-0.278512
-0.169722
-0.362370
0.192341
-0.541692
-0.048733
-0.082072
0.038722
-0.091145
0.203388
0.398174
-0.535920
0.548894
0.367209
0.147116
-0.317693
0.459846
0.129958
1.055633
0.104251
-0.620604
0.187974
0.993230
0.012747
0.712785
-0.105313
0.288844
-0.107953
-0.824858
0.138236
-0.512314
0.016668
0.640148
-0.661558
0.769449
0.581806
0.470123
0.198788
0.129946
0.220514
-0.554848
-0.066600
-0.028260
-0.542512
0.057523
0.371109
-0.055160
0.188498
-0.050762
0.192143
-0.214801
0.577837
0.570227
0.264159
-0.132141
-0.330805
-0.331144
0.129759
0.741653
0.034974
-0.022912
0.473537
0.619422
0.500840
0.459560
0.184804
0.380366
0.519411
1.175403
0.284755
0.826449
0.519269
0.456498
-0.467200
-0.202910
0.829990
-0.016780
0.267147
-0.349184
-0.146120
0.259749
0.124894
0.034299
-0.014160
-0.171384
0.220371
0.319803
-0.002736
0.827917
0.260162
-0.156493
0.136624
0.283779
-0.105584
0.551082
-0.363201
0.204649
-0.025034
0.097443
0.235482
0.032153
0.417962
0.914044
-0.327054
0.223619
0.294402
-0.602041
0.024447
0.311398
0.478815
0.273326
0.532923
-0.198036
-0.441607
-0.315088
-0.483950
0.333329
0.180833
0.461297
0.206426
0.083329
-0.565980
0.193695
0.754205
0.515588
0.146309
0.546493
0.284474
0.204236
0.097976
0.472604
0.085617
0.706943
0.403874
0.630695
-0.263354
0.760699
0.377493
0.486581
0.147883
0.115613
-0.225339
-0.225273
-0.174836
0.168230
0.622675
0.182340
1.064784
0.569310
0.599383
-0.029871
-0.206007
0.322170
-0.492044
-0.042161
0.410433
-0.076354
0.941273
0.176669
-0.068207
0.154012
0.124036
0.100801
0.447656
-0.232484
0.177381
-0.155287
-0.121305
-0.334997
-0.032573
0.194068
0.037145
-0.270795
0.395139
-0.356250
0.292785
0.189062
-0.369247
