0.025293
-0.012813
-0.010368
-0.006892
0.068974
0.112680
0.026706
-0.077530
0.059318
-0.032874
-0.028664
0.000489
-0.041102
0.033801
0.000926
0.071556
0.056539
0.013449
0.077096
-0.040184
0.089636
-0.043695
0.073155
0.048645
-0.090550
0.000673
0.114206
0.081639
0.053533
0.087294
0.086331
0.068478
0.183569
0.099620
0.127078
0.175872
0.156943
0.160752
0.215138
0.192883
0.174674
0.170733
0.190677
0.229468
0.192658
0.232473
0.171099
0.168130
0.218658
0.164637
0.117850
0.168951
0.182490
0.161869
0.099642
0.109587
0.169380
0.134891
0.121818
0.039373
0.051745
0.030952
0.008000
-0.003451
0.082795
0.054555
0.094328
0.011786
0.038240
0.083508
0.025486
0.129071
0.037175
0.117075
0.101398
0.015977
0.068513
0.102192
0.014142
0.000596
0.055839
0.133581
0.210726
0.386606
0.815599
1.084829
1.378762
1.435826
1.347145
1.114688
0.745072
0.387048
0.147105
-0.146000
-0.209255
-0.170369
-0.112566
-0.020077
0.005687
0.097674
0.074498
0.136336
0.113812
0.106362
0.145950
0.052406
0.100906
0.131019
0.046086
0.083908
0.084576
0.146573
0.241125
0.216349
0.199954
0.206528
0.274595
0.202986
0.236878
0.225873
0.239427
0.394268
0.278863
0.402828
0.324540
0.273309
0.411099
0.439872
0.453479
0.397261
0.475587
0.488859
0.503981
0.443423
0.625839
0.594041
0.594012
0.529509
0.513490
0.607959
0.556359
0.569988
0.565042
0.534206
0.561160
0.620462
0.590932
0.560772
0.424946
0.594068
0.470660
0.507449
0.409097
0.420868
0.456316
0.336826
0.400224
0.430806
0.326299
0.382185
0.298083
0.320633
0.200491
0.277205
0.160570
0.281042
0.249029
0.206645
0.215428
0.185719
0.071864
0.163121
0.076918
0.063521
0.129614
0.169525
0.048690
0.164251
0.044232
0.107937
0.064835
0.154747
0.196275
0.052536
0.035551
0.081574
0.021365
0.026864
0.097101
0.127270
0.061233
0.069337
0.070206
0.084014
0.098637
0.070436
0.107674
0.084471
0.071568
0.042718
0.104580
0.071723
0.073904
0.030298
0.065357
0.091495
0.066832
0.113817
0.112109
0.147678
0.072778
-0.029272
0.114885
0.106493
0.152582
0.006894
0.087141
0.108804
0.120563
0.142812
0.036396
0.069137
0.034679
0.037887
0.105323
0.061446
0.068053
0.115719
0.096564
0.082778
0.076225
0.101258
0.071474
0.065976
0.073231
0.157181
0.152264
0.173483
0.132986
0.102772
0.120542
0.124141
0.118320
0.135806
0.100269
0.090498
0.204698
0.215381
0.124504
0.134483
0.280646
0.190169
0.253757
0.181257
0.115813
0.245382
0.250989
0.183492
0.272784
0.157074
0.334566
0.226729
0.302289
0.327721
0.279808
0.135470
0.169647
0.282686
0.338463
0.178948
0.166893
0.161400
0.108011
0.071063
0.165306
0.163317
0.119098
0.185864
0.099044
0.156515
0.070193
0.148300
0.053427
0.086319
0.115906
0.075117
0.063376
0.001530
0.049527
0.099769
0.025865
0.082869
0.083299
0.109341
0.018788
0.031925
0.023811
0.040629
0.069243
0.144302
0.307803
0.630794
1.048239
1.220096
1.468370
1.430116
1.282410
0.929741
0.550914
0.169534
-0.024878
-0.111609
-0.211842
-0.167746
-0.132550
0.007027
-0.004707
0.090491
-0.007322
0.067078
0.052459
0.149124
0.116289
0.137227
0.019930
0.104455
0.056384
0.097609
0.079286
0.105269
0.197689
0.149039
0.208593
0.097271
0.203368
0.231772
0.272017
0.180253
0.216544
0.285320
0.261418
0.280033
0.299192
0.311021
0.380379
0.409672
0.406495
0.360716
0.443645
0.393523
0.433975
0.474415
0.419950
0.520176
0.506902
0.439346
0.523989
0.572050
0.565835
0.530269
0.563081
0.579003
0.448177
0.490183
0.541541
0.438023
0.518282
0.475635
0.442344
0.439461
0.377509
0.373335
0.372848
0.393159
0.333204
0.350490
0.231060
0.281476
0.234976
0.238108
0.239867
0.189521
0.152648
0.180896
0.167496
0.113040
0.189024
0.137098
0.097366
0.038967
0.112052
0.032680
0.097368
-0.005321
-0.007644
0.069349
-0.025403
0.031969
0.111925
-0.025762
0.043421
0.050210
0.117345
-0.016640
-0.103200
0.057207
0.043863
0.065511
-0.015249
0.051230
0.004490
0.113195
0.021208
-0.038301
-0.033830
0.045081
-0.009890
-0.028417
0.021064
0.073009
0.010839
0.002861
-0.035315
0.026330
-0.004396
-0.006725
0.011706
-0.012570
0.004784
-0.020927
-0.080662
0.006122
-0.018783
0.010766
-0.066421
-0.031183
-0.105335
-0.110099
0.103833
-0.010124
-0.035315
-0.063757
-0.033800
-0.012544
-0.069612
-0.000348
-0.044620
-0.044009
-0.091576
-0.000276
0.045419
0.077335
0.006516
0.037386
0.035797
0.004334
-0.004895
-0.061387
0.027893
0.054089
0.023255
0.065591
0.036052
0.065170
0.023947
0.058622
0.053184
0.091402
0.149034
0.077457
0.114545
0.133058
0.116771
0.086435
0.142701
0.120919
0.079953
0.139160
0.144008
0.124134
0.216726
0.095389
0.182481
0.101952
0.142312
0.077532
0.126077
0.082585
0.092124
0.049091
0.056622
0.051827
0.002791
0.013409
-0.061755
0.057943
0.008410
-0.050506
0.098029
0.023456
-0.018744
-0.022346
0.008025
-0.038130
-0.105710
-0.001784
0.013816
0.005139
-0.053310
-0.026230
-0.105596
-0.097299
-0.095376
-0.052843
-0.036245
-0.058975
0.011254
0.170906
0.454094
0.704943
1.019604
1.331318
1.327033
1.270344
0.963519
0.598136
0.243803
-0.009472
-0.260528
-0.275208
-0.343612
-0.250956
-0.177259
-0.132896
-0.058928
-0.058228
-0.005536
-0.022823
-0.006711
-0.013814
-0.018084
-0.048734
0.011677
0.004396
-0.003418
-0.008482
-0.073947
-0.007487
0.118652
0.030627
0.069075
0.069436
0.119481
0.118110
0.098840
0.053689
0.203243
0.167470
0.259727
0.219846
0.286433
0.217948
0.281014
0.243697
0.297973
0.330212
0.343703
0.342224
0.321671
0.364003
0.495594
0.499483
0.387092
0.506063
0.462877
0.430481
0.395634
0.471565
0.430225
0.493076
0.447533
0.504661
0.464312
0.473988
0.391518
0.462597
0.330276
0.357691
0.212792
0.313259
0.329317
0.195777
0.191900
0.219775
0.187005
0.170327
0.172422
0.229878
0.125509
0.075242
0.128965
0.061044
0.103674
0.045829
0.081419
0.091443
0.070397
-0.008358
0.008860
-0.058449
0.021652
0.053378
-0.000724
-0.086406
-0.102690
-0.015418
0.050638
-0.000040
-0.067814
-0.012715
-0.007408
-0.065601
-0.024217
-0.051980
-0.023818
-0.078661
-0.089849
-0.048036
-0.076403
-0.041232
-0.043753
-0.092736
0.040634
0.027622
-0.065687
-0.034500
-0.030208
-0.066741
-0.047347
-0.040878
-0.015971
-0.081380
-0.023008
-0.031493
-0.046971
0.007991
-0.025063
0.040326
0.040936
-0.058872
-0.048681
-0.028806
-0.038415
-0.042705
-0.043246
-0.042952
0.032120
-0.113697
-0.044582
0.087553
0.044569
-0.032947
0.039110
-0.014998
-0.057034
-0.003629
0.039827
-0.042492
-0.011961
0.015578
-0.058191
0.006272
-0.030101
-0.022651
0.010069
-0.057329
0.035801
0.019002
-0.035145
0.058586
0.015650
0.078784
0.098857
0.058701
0.028240
0.098636
0.111775
0.063845
0.070188
0.101238
0.146161
0.154593
0.087301
0.222926
0.103463
0.162668
0.200366
0.176303
0.226658
0.087177
0.099010
0.082225
0.175282
0.081700
0.062684
0.135898
0.104021
0.190721
0.149467
0.114148
0.051159
0.065507
0.032150
0.056920
0.034258
0.070362
0.030231
0.058769
0.048790
0.006963
0.067230
0.072815
0.002201
0.009320
0.033778
0.032273
-0.020968
0.024557
0.045786
-0.016403
-0.038575
0.042577
0.023462
-0.001032
0.055256
0.390467
0.660470
0.967241
1.259856
1.377683
1.352719
1.124069
0.784851
0.479302
0.126050
-0.139676
-0.211708
-0.210341
-0.170485
-0.129107
0.060886
-0.031588
0.039846
0.123074
-0.005025
-0.047248
0.061961
0.076503
0.056130
-0.004334
0.134151
0.046946
0.081817
0.144889
0.143133
0.039090
0.080231
0.201758
0.161598
0.177687
0.143507
0.194692
0.176340
0.228442
0.322758
0.235534
0.247565
0.390327
0.355194
0.395529
0.335847
0.381470
0.369686
0.441998
0.429244
0.512564
0.495629
0.517932
0.476979
0.623120
0.551188
0.487634
0.520864
0.621922
0.501232
0.586649
0.575393
0.563012
0.553681
0.536222
0.545220
0.502769
0.512522
0.388628
0.467498
0.437331
0.408899
0.451993
0.319315
0.334429
0.327586
0.250253
0.297732
0.390506
0.273696
0.223896
0.173856
0.152122
0.128078
0.110903
0.182670
0.148051
0.118646
0.162754
0.111543
0.163166
0.126009
0.131199
0.134757
0.102504
0.136026
0.141093
-0.039631
0.171142
-0.030236
0.111522
0.080036
0.028852
0.075470
0.052820
-0.010298
0.057215
0.019415
0.057962
0.033747
0.090878
0.125978
-0.001018
0.068619
0.030111
0.053122
0.046885
0.066038
0.104027
0.087159
0.062711
0.003689
0.132687
0.024270
0.089672
0.068597
0.080702
0.109332
0.043650
0.088537
0.061066
0.042036
0.045964
0.125469
0.101109
0.033521
0.070639
0.066342
0.042603
0.073721
0.087626
0.080483
0.098512
0.046920
0.078134
0.080004
0.103847
0.103785
0.089140
0.012983
0.002985
0.142225
0.133894
0.069973
0.005697
0.141681
0.117903
0.079439
0.052606
0.086772
0.219771
0.138143
0.206325
0.101485
0.186268
0.155161
0.206203
0.245943
0.138483
0.220959
0.218161
0.282353
0.239521
0.242497
0.256862
0.219920
0.276930
0.340663
0.183208
0.225364
0.244332
0.254261
0.228154
0.266624
0.263116
0.214291
0.210044
0.224895
0.241644
0.206134
0.163758
0.111589
0.213517
0.148619
0.124902
0.137174
0.085360
0.113592
0.072742
0.106801
0.146068
0.103314
0.114409
0.153909
0.043778
0.054004
0.118839
0.094368
0.088090
0.117902
0.122900
0.121045
0.051149
0.169720
0.000795
0.054437
0.219140
0.366711
0.599099
0.971139
1.249458
1.488371
1.500000
1.330047
1.032129
0.674456
0.368428
0.067753
-0.096655
-0.218298
-0.223803
-0.091132
0.031004
0.026605
0.034616
0.115275
0.069516
0.172746
0.212659
0.116730
0.159756
0.134714
0.124824
0.168558
0.149014
0.096167
0.108065
0.108202
0.189801
0.151801
0.177451
0.196059
0.248444
0.250766
0.227880
0.282450
0.364573
0.303368
0.262088
0.377625
0.396787
0.439006
0.405041
0.461333
0.438248
0.464511
0.526517
0.514642
0.560458
0.500605
0.551687
0.560944
0.563019
0.570094
0.569421
0.648960
0.532718
0.583906
0.577898
0.547573
0.587687
0.603986
0.545082
0.579729
0.533998
0.453408
0.460392
0.491057
0.481327
0.424122
0.367470
0.392212
0.396165
0.339018
0.329872
0.323659
0.286305
0.240286
0.240241
0.160677
0.233559
0.176364
0.223814
0.136927
0.163396
0.101427
0.096236
0.096008
0.077528
0.063137
0.102563
0.095648
0.051406
0.010507
0.171016
0.073803
0.093315
0.070694
0.006310
0.094071
0.025831
0.061810
0.083306
0.008736
0.067733
0.019889
0.118812
0.024056
0.064328
0.029879
0.141719
0.046595
0.066183
0.047599
0.024680
0.073119
0.039046
0.038872
0.020102
0.038656
0.082812
0.086815
0.023327
-0.024362
-0.019305
0.001423
0.088148
-0.009294
0.000583
0.057474
0.070992
0.007867
0.095212
0.034708
0.013345
0.047031
0.019459
0.053468
0.069637
0.052688
0.054390
0.145471
0.086962
0.003040
0.047741
0.018419
0.079976
0.028095
0.010540
0.001981
0.034576
0.067313
0.096837
0.048975
0.042548
0.076001
0.104505
0.096230
0.042495
0.111677
0.103365
0.037483
0.077397
0.118315
0.103992
0.129591
0.153173
0.266323
0.143564
0.174986
0.188881
0.150768
0.153740
0.109534
0.203773
0.179821
0.163826
0.186489
0.179794
0.214422
0.165819
0.213016
0.095639
0.260159
0.065982
0.123225
0.179476
0.193499
0.100942
0.011305
0.119470
0.039870
0.026855
0.060680
0.023883
0.050898
0.037147
-0.035661
0.020579
0.021161
0.052693
-0.031968
0.053171
-0.048562
0.002219
0.023196
-0.115996
0.040359
-0.016390
-0.010158
-0.087386
-0.163482
-0.102712
-0.009934
0.104564
0.398470
0.686501
1.003251
1.285732
1.392237
1.341069
1.035633
0.633691
0.344320
0.026541
-0.240639
-0.206418
-0.300674
-0.185219
-0.198685
-0.041429
-0.092642
-0.036677
-0.126896
0.036407
-0.080364
-0.027733
-0.042900
-0.055036
-0.067101
0.014288
0.022107
0.007930
0.026090
0.065907
0.021792
0.053642
0.062825
0.131460
0.056976
0.127963
0.150214
0.170028
0.182377
0.203672
0.274313
0.189592
0.230467
0.306447
0.318151
0.278602
0.300188
0.371744
0.421283
0.311425
0.402456
0.377261
0.419899
0.467963
0.412927
0.500791
0.387278
0.501269
0.413768
0.502244
0.534998
0.422255
0.386153
0.427609
0.442786
0.391066
0.418470
0.366445
0.365741
0.260124
0.316206
0.205022
0.288716
0.275286
0.190566
0.156228
0.224956
0.114671
0.126770
0.104273
0.105656
0.113115
0.124092
0.022809
0.011298
0.030411
0.048530
0.085023
0.069846
-0.019769
-0.067767
-0.050207
-0.018654
0.039170
0.099887
-0.088519
-0.053540
0.045053
-0.020760
-0.073201
-0.038839
-0.053996
-0.075192
-0.012778
-0.088243
-0.000356
-0.031630
-0.030065
-0.044382
-0.061020
-0.076844
-0.056703
-0.065057
-0.100410
-0.126922
-0.106735
-0.155151
-0.061169
-0.119765
-0.023481
-0.002336
-0.084337
-0.082050
-0.118144
-0.128304
-0.059210
-0.021986
-0.103274
-0.062773
-0.068546
-0.027417
-0.020069
-0.016379
-0.065447
-0.081116
-0.087085
-0.004820
-0.064508
0.008178
-0.000963
-0.115565
-0.100913
-0.085094
0.025022
-0.115491
-0.025757
-0.103247
-0.095835
-0.065362
-0.065021
-0.026265
-0.043424
-0.037216
-0.121369
-0.056772
-0.048517
-0.071822
-0.012962
-0.031083
-0.085690
-0.024074
-0.017452
0.038306
-0.008292
-0.015101
0.024302
-0.034791
-0.015114
0.037080
0.063453
-0.001987
-0.006952
0.095038
0.115134
0.098797
0.174064
0.110573
0.114323
0.027358
0.096846
0.150777
0.062766
0.154108
0.126347
0.054871
0.104310
-0.035176
0.016570
0.051943
-0.028051
-0.011973
-0.001200
0.001922
0.028612
-0.034163
-0.108268
-0.073232
-0.028515
-0.052267
-0.057751
-0.059901
-0.081451
-0.046522
-0.053495
-0.096609
-0.072902
-0.026147
-0.106380
-0.061935
-0.111190
-0.064849
-0.076937
-0.107452
-0.166311
-0.092726
-0.088408
0.016470
0.279878
0.547026
0.921131
1.131459
1.303129
1.225141
1.043438
0.771119
0.450787
0.136280
-0.054403
-0.371466
-0.323670
-0.200190
-0.199206
-0.134415
-0.150038
-0.043754
-0.126259
-0.104848
0.025745
0.016010
-0.009924
-0.012392
0.019702
-0.024926
0.039654
0.004619
0.013642
-0.010760
0.016807
0.026547
0.010777
0.076786
0.043902
0.103936
0.064500
0.023973
0.115534
0.063920
0.096492
0.297537
0.181139
0.295345
0.244500
0.263297
0.312934
0.376695
0.324983
0.305885
0.376731
0.447652
0.406090
0.484925
0.429319
0.434737
0.403128
0.388731
0.457163
0.496622
0.471361
0.513099
0.407425
0.417056
0.414182
0.371717
0.359161
0.440310
0.459909
0.391531
0.291267
0.277816
0.257719
0.312559
0.295238
0.222577
0.172392
0.262001
0.191505
0.080247
0.111538
0.132323
0.133682
0.091662
0.089776
0.018430
0.073182
0.102202
0.102707
-0.104267
-0.037995
0.008838
-0.060688
-0.029614
0.021123
-0.022285
0.009027
0.005941
-0.018155
-0.046767
-0.005990
0.072319
-0.087901
-0.052187
0.005969
0.036013
0.047262
-0.042163
-0.041900
0.035909
0.008808
-0.034979
0.023416
-0.064724
-0.025780
0.009727
0.057256
-0.059243
0.058844
-0.084580
-0.051158
0.068570
-0.052905
-0.023680
0.031531
0.013614
-0.026158
-0.045496
-0.058488
-0.025452
-0.006159
-0.052669
-0.000899
0.006931
-0.024343
-0.013677
-0.020877
0.005736
-0.013089
-0.000342
0.063949
-0.020416
-0.036659
0.004929
-0.005330
0.012266
-0.033616
-0.010344
-0.069277
-0.104292
-0.008017
-0.028545
-0.085905
0.019866
0.001133
-0.044447
-0.045670
0.013879
0.018513
0.051601
0.048289
0.065276
0.106304
0.066633
0.105099
0.114945
0.100507
0.224350
0.110249
0.057056
0.018497
0.148847
0.179991
0.140594
0.155404
0.213822
0.192131
0.093199
0.194389
0.201569
0.202366
0.270781
0.184179
0.133651
0.166897
0.156678
0.269703
0.113235
0.108960
0.180609
0.126322
0.056218
0.061444
0.108943
0.104919
0.077359
0.117967
0.056370
0.082172
0.025595
-0.051897
0.086458
0.055793
0.084296
-0.001958
0.049818
0.077005
0.022714
0.042898
0.046475
-0.005085
-0.024334
-0.000120
0.014671
0.088043
-0.017814
0.078539
0.193035
0.526605
0.748641
1.175547
1.417877
1.442465
1.278361
1.093437
0.649461
0.298893
0.104592
-0.214013
-0.232526
-0.240926
-0.111830
-0.089457
0.055496
0.031898
-0.020615
0.057871
0.063571
0.067832
0.112295
0.071325
0.095237
0.059831
0.020133
0.060623
0.071929
0.140169
0.070604
0.197350
0.143967
0.153107
0.138537
0.227557
0.209502
0.187198
0.271582
0.297139
0.214511
0.347733
0.268975
0.300321
0.353788
0.331570
0.390101
0.371909
0.511090
0.482702
0.368740
0.473613
0.472697
0.534065
0.529080
0.574392
0.543636
0.521798
0.571424
0.460102
0.552715
0.564765
0.536916
0.608206
0.462053
0.516788
0.424170
0.542952
0.504649
0.522085
0.390097
0.412052
0.264944
0.379580
0.386538
0.310831
0.375044
0.218700
0.264762
0.359743
0.244162
0.197670
0.220316
0.187999
0.123564
0.197865
0.120288
0.081583
0.124500
0.065184
0.222680
0.099678
0.047924
0.140527
0.059972
0.120645
0.101596
0.108064
-0.006365
0.066589
0.071277
-0.014656
0.060149
0.065269
0.139698
0.115763
0.030004
0.036573
0.035515
0.029215
0.094527
0.070378
0.023247
0.058842
0.041788
0.076831
0.052565
0.106920
0.034050
0.029719
-0.006318
0.079863
0.079093
0.014002
0.065830
0.030243
0.066242
0.005026
0.074616
0.064231
0.073421
0.091477
-0.014448
-0.060509
0.034040
0.074880
0.043369
0.016438
0.110760
0.049329
0.000645
0.053280
-0.005615
0.073775
0.087068
0.033813
0.008633
-0.022618
0.110219
0.052768
-0.051121
0.049376
0.016667
0.055141
0.045495
-0.008441
0.014642
0.099085
0.093225
0.082561
0.048908
0.144129
0.004092
0.100158
0.115272
0.074442
-0.006009
0.110709
0.127980
0.135385
0.155862
0.140987
0.147413
0.257996
0.238197
0.156678
0.144982
0.150450
0.198689
0.238183
0.216396
0.171032
0.167107
0.212801
0.159003
0.199298
0.199417
0.124575
0.092051
0.100620
0.027868
0.033117
0.138768
0.078201
0.020904
0.093601
0.022858
0.031383
0.010167
0.062410
-0.003655
0.102797
0.054790
0.057739
0.007474
0.019019
0.015383
0.055233
-0.028970
0.077200
0.003937
-0.056506
0.000319
-0.109112
0.006489
-0.004637
0.063358
0.098697
0.395738
0.717417
1.000819
1.296517
1.414061
1.328284
1.185444
0.788881
0.475861
0.046220
-0.181298
-0.218927
-0.283284
-0.201610
-0.090403
-0.134029
-0.064998
-0.012479
0.053006
0.013429
0.066605
0.087229
0.052009
0.057337
0.055978
0.007098
0.045224
0.046472
0.069422
0.038662
0.021128
0.154257
0.128507
0.184314
0.051590
0.135923
0.154922
0.198321
0.208509
0.184206
0.130086
0.255885
0.327187
0.343546
0.298334
0.234778
0.390640
0.425471
0.406616
0.398088
0.412985
0.426800
0.472751
0.428309
0.555563
0.445684
0.443858
0.508261
0.461422
0.459189
0.519422
0.470497
0.478939
0.568768
0.477070
0.444020
0.429401
0.459763
0.394934
0.443666
0.363226
0.289620
0.220708
0.321139
0.214590
0.159986
0.273553
0.157533
0.220529
0.145802
0.079720
0.217730
0.056248
0.090438
0.082485
0.065862
0.090579
0.010756
-0.002562
-0.011827
0.098605
0.073480
0.017758
0.022846
-0.033355
-0.023725
-0.029843
-0.065946
0.011948
-0.061075
-0.080588
-0.000187
-0.024802
-0.036129
-0.046325
-0.078959
-0.114314
0.034244
-0.076494
-0.091430
-0.065888
-0.000459
-0.044654
0.000217
0.012293
-0.035344
-0.107766
-0.068481
-0.082807
-0.118574
-0.057451
-0.061707
-0.045485
-0.072210
-0.169057
-0.005893
-0.048241
-0.127101
-0.094768
-0.094008
-0.088987
-0.136951
-0.061400
-0.068561
-0.060310
-0.026692
-0.051395
-0.071075
-0.065413
-0.044611
-0.079649
-0.058261
-0.090715
-0.157718
-0.042879
0.010066
-0.065539
-0.018635
-0.111308
-0.152433
-0.100794
-0.074818
-0.031411
-0.113346
-0.081413
-0.089287
-0.100949
0.031826
-0.109858
-0.068235
-0.034676
-0.068573
0.036522
-0.098669
0.001721
-0.019633
-0.088298
0.044137
-0.005598
0.069511
0.013600
0.043057
-0.061657
0.092194
0.065533
0.052101
0.119811
0.121865
0.065415
0.195582
0.080292
0.023876
0.046816
0.097553
0.044509
0.071033
0.127570
0.051859
0.036252
0.047324
-0.021985
0.013056
-0.001742
-0.024919
-0.057527
-0.125269
-0.106113
-0.114719
-0.084070
-0.160418
-0.127459
-0.049786
-0.067640
-0.108094
-0.063495
0.001486
-0.080588
-0.155549
-0.125002
-0.103719
-0.084301
-0.126746
-0.072617
-0.109364
-0.042043
-0.073873
-0.045347
0.138995
0.374120
0.771125
1.148438
1.255193
1.235309
1.100510
0.785750
0.423399
0.056870
-0.204883
-0.280481
-0.381448
-0.385324
-0.224463
-0.223874
-0.107246
-0.069135
-0.081279
-0.123502
-0.091471
-0.060568
-0.101774
-0.029128
-0.102317
-0.169095
0.025615
-0.056473
-0.087955
-0.002826
0.065072
0.041029
0.026086
-0.023680
0.056813
0.053869
0.082778
0.188588
0.136812
0.166672
0.162097
0.200837
0.174976
0.241666
0.206399
0.235435
0.215372
0.203385
0.307014
0.356084
0.298814
0.371104
0.299459
0.376455
0.396601
0.364113
0.392784
0.386970
0.463371
0.414828
0.444847
0.363151
0.350282
0.483777
0.459668
0.393324
0.373321
0.294207
0.315669
0.344395
0.270152
0.241969
0.272200
0.269850
0.213891
0.187445
0.139905
0.144574
0.155083
0.080282
0.114029
0.051712
0.020586
-0.045644
0.098316
0.035519
0.053416
-0.030301
-0.023472
-0.062212
-0.014234
-0.041722
-0.114039
-0.035156
-0.031494
-0.062008
-0.070287
-0.073513
-0.148605
-0.109309
-0.083389
-0.134421
-0.027895
-0.165445
-0.102941
0.019421
-0.095814
-0.070238
-0.098152
-0.048588
0.002030
-0.018529
-0.046510
0.002843
-0.085533
-0.029159
-0.100105
-0.128765
-0.082692
-0.101378
-0.018859
-0.091454
-0.026756
-0.072519
-0.176553
-0.038847
-0.026694
-0.105590
-0.083532
-0.051919
0.031504
-0.113355
0.048155
-0.067471
-0.195512
-0.081722
-0.057415
-0.060311
-0.066428
-0.038382
-0.065550
-0.084579
-0.038027
-0.090221
-0.115511
-0.018980
-0.138661
0.003585
-0.033514
-0.037197
-0.069710
-0.097704
-0.018851
-0.147626
-0.116613
-0.060077
-0.026234
-0.056967
-0.082291
-0.034690
-0.009216
-0.018080
-0.023271
0.057117
0.010795
0.014236
0.000433
-0.005126
0.057103
0.065110
0.096165
0.159741
0.029136
0.061817
0.183014
0.177522
0.134059
0.114381
0.100256
0.097867
0.071108
0.044666
0.171269
0.177775
0.110376
0.013986
0.068645
0.015923
0.071401
0.050209
0.017907
-0.010954
0.077268
-0.042841
-0.025025
0.004830
0.008690
0.098519
-0.056741
-0.056996
0.023505
-0.036008
-0.044147
-0.036376
-0.073479
-0.018492
-0.032768
-0.056783
0.042042
0.018528
0.022497
-0.028286
-0.092146
-0.116139
-0.077021
-0.088033
0.008826
0.059440
0.417579
0.801489
0.926917
1.260332
1.409830
1.296812
0.920917
0.635118
0.340435
0.103679
-0.202314
-0.208380
-0.177952
-0.209953
-0.147407
-0.091854
-0.025405
0.066908
0.040908
-0.008013
0.074845
-0.021090
-0.007501
0.040912
0.052837
0.057618
0.035686
-0.007754
0.077107
0.042734
0.080762
0.034137
0.043270
0.203687
0.215481
0.178621
0.070320
0.182208
0.233142
0.195793
0.284613
0.195945
0.299866
0.386968
0.294605
0.324280
0.429833
0.373881
0.459550
0.423641
0.530005
0.469854
0.481542
0.496234
0.528487
0.484925
0.534988
0.546975
0.552821
0.487215
0.483033
0.583848
0.520356
0.483299
0.515721
0.478890
0.531993
0.427049
0.498024
0.389714
0.291892
0.384337
0.340121
0.450203
0.299278
0.261572
0.256795
0.274571
0.245711
0.182558
0.263332
0.197564
0.172167
0.151045
0.175669
0.106964
0.187335
0.121326
0.069704
0.101258
0.137923
0.044245
0.066846
0.099850
0.144187
0.029686
0.015961
0.060271
0.051584
0.076350
0.032419
0.029268
0.096902
-0.010083
0.096921
0.029532
-0.028884
0.003186
0.061445
0.018597
0.017883
0.039224
0.100850
0.076816
0.060520
0.022833
-0.045717
0.124706
0.004867
0.060639
0.059289
0.061790
0.091943
-0.021696
0.060840
0.029099
0.097652
0.109336
0.058451
0.009367
0.159860
-0.000439
0.088521
0.026321
0.071431
0.049282
0.076672
-0.003063
0.099822
0.057115
0.004283
0.041709
0.090539
-0.019370
0.011598
0.018371
0.128558
0.044667
0.063180
0.015156
0.041736
0.050258
0.161259
0.068330
0.077226
0.066297
0.035240
0.120667
0.062978
0.042651
0.123352
0.007250
0.174596
0.125961
0.153515
0.164015
0.181478
0.273243
0.108836
0.195184
0.127397
0.218444
0.246963
0.199125
0.162983
0.263078
0.242388
0.233152
0.253765
0.283220
0.252883
0.248743
0.317446
0.183215
0.140159
0.152134
0.229806
0.245366
0.155060
0.110725
0.215256
0.124012
0.151707
0.203384
0.135998
0.212924
0.168223
0.120501
0.143897
0.130833
0.150385
0.147637
0.141061
0.127476
0.016430
0.081045
0.085572
0.042713
0.158055
0.138685
0.098318
0.038758
0.020427
-0.032768
0.102594
0.084513
0.212885
0.342233
0.669186
1.049057
1.293120
1.460881
1.369756
1.208844
0.947680
0.543869
0.269326
0.013339
-0.229519
-0.253509
-0.132104
-0.060856
-0.008915
0.027886
0.066767
0.062997
0.176343
0.042471
0.025293
0.159366
0.117823
0.164232
0.233936
