0.036562
0.012081
0.010786
-0.074140
-0.003148
0.027511
0.028479
-0.035016
0.025306
0.084540
0.006379
0.087077
-0.049892
0.031394
-0.022476
0.064463
0.094449
0.010992
-0.015997
0.026873
-0.020372
0.015905
0.106724
-0.007089
0.012592
0.074129
0.023669
0.003823
-0.028109
-0.039961
0.026129
0.006703
0.117198
0.066740
-0.005240
0.044868
0.039073
-0.052002
0.058116
0.099218
0.010038
0.151505
0.077310
0.186347
0.139227
0.093714
0.086822
0.165860
0.007677
0.130439
0.221275
0.196467
0.217194
0.286517
0.128397
0.161059
0.248402
0.212401
0.201730
0.148147
0.193663
0.244626
0.206890
0.286861
0.236331
0.133554
0.162530
0.171413
0.205573
0.158776
0.184569
0.060376
0.108371
0.071977
0.006938
0.103232
0.090105
0.083532
0.050403
0.094136
0.032085
0.063525
0.069246
0.113064
0.069765
0.076435
0.014285
0.065890
0.062177
0.008007
0.070204
0.135104
0.055383
0.063544
0.079990
0.066322
0.016404
0.138811
0.102605
-0.028412
0.042315
0.035163
0.053470
-0.053586
0.089389
0.022743
-0.107726
-0.032869
0.193374
0.410520
0.772200
1.011222
1.315047
1.500000
1.440354
1.118487
0.957033
0.659024
0.408550
0.093256
-0.080433
-0.253773
-0.312678
-0.190800
-0.165815
-0.074520
-0.006834
-0.051358
0.129867
0.064533
0.065856
0.115244
0.126137
0.031778
0.066566
0.086810
0.068537
0.055329
0.048693
0.058608
0.068818
0.174495
0.096479
0.068600
0.099977
0.100171
0.146173
0.149667
0.106516
0.102157
0.145910
0.121318
0.160376
0.158266
0.148663
0.126919
0.118155
0.236727
0.186995
0.233662
0.210213
0.274235
0.307971
0.325919
0.244677
0.327011
0.308648
0.298088
0.296773
0.365944
0.408593
0.466468
0.483939
0.444922
0.474843
0.440883
0.592965
0.469829
0.611748
0.491544
0.610875
0.671041
0.592529
0.662334
0.628511
0.632906
0.486713
0.565751
0.538943
0.544975
0.524874
0.551865
0.568401
0.558600
0.509262
0.472150
0.458603
0.390611
0.368566
0.414698
0.412636
0.396887
0.302466
0.282745
0.290444
0.251767
0.291880
0.180414
0.266344
0.148143
0.272443
0.157235
0.144894
0.108067
0.153690
0.127964
0.187434
0.186914
0.076612
0.079284
0.106273
0.096690
0.072339
0.067068
0.041476
0.103449
0.126605
0.096736
0.106265
0.103894
0.065871
0.055323
0.036877
0.107107
0.112180
0.002938
0.137589
0.072908
0.137628
0.035485
0.124553
0.082656
0.052929
0.078519
0.092649
0.042755
0.076379
0.115116
0.121481
0.039132
0.036868
0.223663
0.072225
0.079252
0.106099
0.088513
0.045226
0.033066
0.084799
0.089955
0.083261
0.121320
0.056527
0.110473
0.140204
0.072714
0.015315
0.114734
0.032002
0.039539
0.090204
0.034572
0.055265
0.049259
0.067074
0.051960
0.069032
0.069802
0.013126
0.026565
0.086237
0.048244
0.124468
0.057292
0.086442
0.174229
0.120066
0.102122
0.050907
0.063494
0.085945
0.049518
0.011183
0.085829
0.057146
0.093441
-0.014967
0.103638
0.108894
0.116585
0.049658
0.102971
0.099023
0.119786
0.063574
0.085159
0.081136
0.128884
0.038254
0.029185
0.105048
0.018858
0.070778
0.096896
0.063314
0.012655
0.076031
0.088382
0.101634
0.098289
0.092149
0.095115
0.104819
0.150081
0.095215
0.067383
0.138070
0.141246
0.123453
0.156277
0.082748
0.102433
0.176729
0.178250
0.205325
0.230658
0.159503
0.277981
0.249508
0.220167
0.249622
0.149118
0.161518
0.308471
0.234886
0.160410
0.190687
0.230486
0.099509
0.255568
0.157275
0.203491
0.123095
0.084981
0.104506
0.102998
0.154949
0.162721
0.049828
0.017144
0.150747
0.030718
0.058871
-0.017252
0.095364
0.057136
0.092720
0.029860
0.000415
0.153045
-0.016730
-0.012005
-0.009799
-0.000786
0.131832
0.007856
0.097321
0.010640
0.047774
0.011464
-0.010731
0.090507
0.017344
0.086900
-0.023122
-0.023434
-0.004527
-0.038894
-0.113676
-0.083612
-0.008980
0.103540
0.344445
0.802981
1.070650
1.314073
1.363204
1.429419
1.166704
0.927245
0.610281
0.301276
0.040645
-0.154175
-0.257791
-0.312544
-0.322350
-0.232437
-0.117606
-0.122157
-0.027582
-0.036676
0.030495
-0.077639
-0.000220
-0.002971
0.058121
-0.007313
-0.036077
-0.017655
-0.012540
-0.025662
-0.048374
0.007261
-0.014452
0.010352
-0.004120
0.065824
-0.005736
0.019952
0.062010
0.078853
0.060422
0.008137
0.039443
-0.008843
0.062901
0.050828
0.057355
0.076363
0.133950
0.145969
0.124900
0.178128
0.090968
0.186004
0.151305
0.117003
0.183605
0.313128
0.208929
0.351980
0.274660
0.276818
0.325333
0.445991
0.371269
0.420833
0.422938
0.435944
0.379302
0.459180
0.426010
0.414107
0.483977
0.502361
0.513450
0.514902
0.527381
0.490575
0.414626
0.457693
0.434462
0.409830
0.488357
0.399847
0.452260
0.418026
0.366329
0.319484
0.351769
0.265880
0.375971
0.223865
0.182182
0.194007
0.201267
0.196478
0.180024
0.115415
0.140909
0.079310
0.030571
0.141095
0.067406
0.041847
0.071939
0.004631
0.078733
0.005101
0.030079
-0.045251
0.018046
0.006235
-0.011549
-0.039911
0.020275
-0.012922
-0.044423
-0.076379
-0.004611
-0.098849
-0.040787
-0.020344
-0.024285
-0.083944
-0.012751
-0.033450
-0.009300
-0.050047
-0.032941
-0.020039
-0.033635
0.045108
-0.099951
-0.081736
-0.087724
-0.051144
-0.029040
-0.000167
-0.019140
0.009912
-0.035988
-0.115579
-0.064983
-0.048760
-0.005244
-0.067439
-0.088789
-0.070367
-0.032695
-0.030545
-0.014995
-0.021647
-0.023614
-0.038944
0.051685
-0.010715
-0.081833
-0.059842
0.039940
-0.063914
-0.048293
0.009077
-0.046112
0.026608
-0.078283
-0.010352
0.033903
0.056803
-0.057188
-0.064402
-0.012176
-0.096986
-0.030543
-0.100760
-0.061249
-0.068669
0.018209
-0.114195
-0.049678
-0.030716
-0.055165
-0.034227
-0.061272
-0.028346
-0.066192
-0.087719
-0.085749
-0.008955
-0.016566
-0.062122
-0.017636
-0.039721
-0.024786
-0.071800
-0.084859
-0.072259
-0.078992
-0.084502
-0.048300
-0.130263
-0.026537
-0.035620
0.012647
-0.017006
0.043407
-0.024220
-0.032808
0.024102
0.015373
-0.083951
-0.034231
-0.055623
0.073933
-0.046279
0.070362
0.004577
0.043585
0.011795
0.053010
0.001581
0.122248
0.081530
0.015292
0.060092
0.156649
0.139851
0.072940
0.100758
0.113437
0.189703
0.089189
0.155175
0.116469
0.160159
0.116869
0.156013
0.159358
0.138111
0.009070
0.113882
0.094440
0.074436
0.040604
0.024468
0.016055
-0.008179
0.054523
0.072681
-0.039459
-0.016315
-0.013240
0.089959
0.021795
0.104895
-0.044748
-0.017596
-0.050645
0.004583
-0.011779
0.023257
-0.042283
-0.012696
0.040414
-0.031617
-0.075333
-0.026034
-0.002690
-0.008787
-0.068141
0.028456
-0.086649
0.061515
-0.085837
-0.012341
-0.019296
-0.002167
-0.027737
-0.037850
-0.041287
-0.233701
-0.070240
-0.030369
0.115164
0.251146
0.623566
1.018112
1.300258
1.436695
1.400812
1.209963
0.802042
0.641703
0.265706
0.003314
-0.206099
-0.283723
-0.313423
-0.284496
-0.299710
-0.136897
-0.073311
-0.001393
-0.059709
-0.036856
-0.053624
-0.021057
-0.015293
-0.054356
0.055491
-0.045726
0.004849
0.006938
-0.015632
0.033940
-0.012524
-0.001479
-0.000352
0.000048
-0.013642
0.060874
0.014041
0.013818
0.014979
0.019052
0.036793
0.063334
-0.062067
0.026358
0.110859
0.150426
0.107214
0.100739
0.156805
0.281744
0.079054
0.212032
0.233956
0.198850
0.170799
0.270598
0.255294
0.341150
0.263367
0.258932
0.419553
0.437600
0.398916
0.424928
0.356626
0.428129
0.452031
0.466185
0.446197
0.520152
0.538694
0.567336
0.523323
0.600984
0.479721
0.513496
0.546889
0.554385
0.496538
0.480562
0.468210
0.470155
0.486162
0.362834
0.528741
0.443823
0.419899
0.437121
0.375748
0.393058
0.223482
0.286067
0.303726
0.182927
0.260949
0.209647
0.271119
0.279674
0.148769
0.090607
0.151406
0.085476
0.104632
0.037507
0.238866
0.093339
0.129054
0.061889
0.144767
0.079544
0.091593
0.111707
-0.027468
0.035116
0.020805
0.119625
-0.030774
0.067866
0.001660
0.015453
0.089701
0.024349
-0.007049
0.011219
-0.021415
0.111796
0.158243
0.040757
0.065930
0.018501
0.110668
0.046914
0.063384
0.049236
0.022654
0.043379
0.076241
0.118988
0.057823
0.063149
0.027581
0.112923
-0.039618
0.076336
0.127362
-0.030313
-0.019158
0.052525
0.126006
0.126310
0.133925
0.089383
0.073360
0.079165
0.051836
0.031785
0.056876
0.060933
0.087356
0.033579
0.118391
0.106873
0.034729
0.022110
0.031618
0.023580
0.130135
0.086848
0.050825
0.052735
0.072315
0.079812
0.109581
0.086960
0.056335
0.095224
0.081233
0.118309
0.054415
0.112067
0.118736
0.046785
0.110107
0.076946
0.039705
0.030311
0.073036
0.029358
0.167357
0.034981
0.139300
0.119218
0.055431
-0.033742
0.079189
0.092663
0.135745
0.024668
0.088038
0.077159
0.060938
0.053848
0.100872
0.101325
0.127456
0.118925
0.170104
0.104956
0.096164
0.129003
0.098550
0.093190
0.127551
0.140684
0.187005
0.157184
0.136426
0.226901
0.205753
0.169678
0.203444
0.183788
0.348298
0.185313
0.201656
0.280522
0.281485
0.228187
0.262429
0.320467
0.279964
0.338921
0.301413
0.346275
0.281813
0.256284
0.186751
0.217104
0.236181
0.215666
0.252294
0.245002
0.073375
0.222459
0.261500
0.118388
0.142630
0.124664
0.097358
0.088939
0.120934
0.146425
0.060790
0.119955
0.114046
0.124752
0.086324
0.132819
0.119058
0.102737
0.147272
0.092185
0.096001
0.074920
0.069167
0.097589
0.189287
0.053693
0.078230
-0.022221
0.179906
0.079340
0.146110
0.132841
0.089201
0.070512
0.064750
0.105163
0.040433
0.000656
0.084123
0.186266
0.510989
0.780400
1.126202
1.305784
1.493704
1.408727
1.318882
0.976013
0.724515
0.372942
0.142278
-0.100711
-0.232265
-0.277740
-0.241717
-0.215033
-0.134091
0.005885
0.077739
0.080815
0.121009
0.086105
0.072254
0.074293
0.064786
0.061481
0.005583
0.069640
0.024497
0.121787
0.135639
0.110058
0.157264
0.156900
0.044074
0.096289
0.033078
0.094381
0.145210
0.093624
0.183965
0.110166
0.111818
0.016830
0.116133
0.112843
0.164730
0.224474
0.150395
0.185411
0.192662
0.201759
0.222810
0.213391
0.292257
0.234723
0.296184
0.337938
0.300054
0.378719
0.373696
0.368572
0.434608
0.380314
0.524189
0.467203
0.492456
0.459068
0.456987
0.624671
0.539430
0.488801
0.587000
0.633257
0.540208
0.570099
0.552697
0.565903
0.664833
0.529490
0.524284
0.474634
0.478083
0.503959
0.555002
0.474278
0.480285
0.399094
0.460369
0.402762
0.285966
0.353461
0.305380
0.321071
0.238833
0.263193
0.351842
0.255240
0.337607
0.305894
0.170959
0.187023
0.240300
0.197932
0.160324
0.156471
0.107925
0.103388
0.082781
0.112209
0.120016
0.096084
0.136461
0.040816
0.042620
0.007670
0.087532
0.055114
0.052562
0.077699
0.113664
0.068889
0.048440
0.024731
0.031117
0.012413
0.053691
-0.002983
0.018536
-0.038206
0.004525
0.074670
0.029604
0.002296
-0.015477
0.060249
-0.002393
0.012295
-0.009194
0.060236
0.080612
0.034089
0.017905
-0.009611
-0.009221
-0.055663
0.045222
0.021439
-0.023280
-0.024148
0.059346
0.066726
0.080642
0.004642
-0.013889
0.028539
0.022375
0.023884
0.058636
0.004794
0.000284
0.072304
0.075494
0.048503
0.054459
0.064167
-0.088701
-0.037371
-0.011575
0.073358
0.050574
0.014663
0.031273
0.053489
0.042724
0.021673
-0.014749
0.063085
-0.000576
0.002359
-0.050241
-0.000898
-0.005781
-0.036910
0.000516
0.030844
-0.022584
-0.039788
0.065344
-0.000974
-0.083791
-0.017825
-0.060394
0.035817
0.003203
-0.018286
0.043220
-0.020408
-0.020593
0.030553
-0.081161
0.030958
0.021673
-0.017194
0.044115
-0.076731
-0.009659
0.016289
-0.062978
-0.007316
0.034524
0.034923
-0.038266
0.042943
0.002111
0.051012
-0.006796
0.021833
0.059456
0.067993
0.079576
0.007192
0.066260
0.070636
0.147935
0.133783
0.119072
0.142798
0.133178
0.154760
0.144356
0.140648
0.180113
0.101896
0.138854
0.096947
0.115430
0.100340
0.051593
0.084138
0.110007
0.094769
0.068400
0.045427
0.017601
0.008115
-0.000212
0.015619
0.005844
0.006314
-0.037884
0.036879
-0.042985
-0.028336
0.011785
-0.066174
-0.054441
0.036037
-0.061147
-0.035823
-0.036672
-0.004758
0.039005
-0.011231
-0.009223
-0.036355
-0.056716
-0.060877
-0.023165
-0.022447
-0.086212
-0.020120
-0.091781
-0.045307
-0.037444
-0.029966
-0.152117
-0.067736
-0.097352
-0.160868
-0.208770
-0.081630
0.117281
0.305250
0.592287
0.980789
1.205754
1.281599
1.300244
1.186025
0.865211
0.560886
0.224922
-0.035084
-0.271632
-0.449332
-0.452851
-0.407896
-0.326415
-0.219016
-0.195298
-0.085471
-0.098765
-0.071134
-0.075175
-0.023031
-0.000038
-0.081566
-0.092900
-0.117095
-0.088862
-0.051825
-0.078921
0.007795
-0.074393
-0.070434
-0.019192
-0.079015
-0.068026
-0.035816
-0.133873
-0.014835
-0.029331
-0.041882
0.087312
0.041712
-0.010606
0.017682
0.030828
-0.074579
-0.039663
0.020272
-0.007363
0.016808
0.037196
0.077782
0.164145
0.202686
0.213879
0.190759
0.168592
0.236971
0.181733
0.296338
0.239218
0.268995
0.250003
0.329792
0.317427
0.340523
0.366930
0.405254
0.419120
0.373913
0.427400
0.517116
0.443553
0.441632
0.474770
0.520298
0.548102
0.390490
0.442147
0.386746
0.332369
0.347327
0.257916
0.292566
0.377710
0.286501
0.249677
0.343723
0.224673
0.231871
0.252208
0.171121
0.199558
0.160012
0.142489
-0.059920
0.028076
0.071865
0.108035
0.107511
0.035442
0.031067
-0.012691
-0.047203
0.019165
-0.019070
-0.057653
-0.031338
-0.017357
0.000165
-0.034271
-0.060249
-0.037961
-0.053188
-0.011461
-0.165867
-0.062739
-0.022629
-0.024645
-0.090867
-0.077684
-0.087637
-0.091821
-0.032771
-0.089864
-0.083434
-0.074815
-0.005448
-0.104942
-0.072785
-0.079591
-0.065653
-0.126629
-0.097010
-0.095618
-0.051834
-0.001342
-0.098953
-0.025445
-0.097252
-0.079728
-0.074897
-0.078395
-0.035330
-0.049299
-0.135991
-0.029056
-0.053953
-0.027706
-0.064964
-0.163036
-0.067476
-0.108170
-0.082062
-0.131284
-0.116707
-0.072336
-0.075599
-0.041338
-0.046851
-0.036445
-0.159996
-0.170567
-0.094644
-0.052629
-0.022831
-0.112110
0.003897
-0.018793
-0.086042
-0.110036
-0.009152
-0.010086
-0.034236
-0.124593
-0.062364
-0.046300
-0.080178
-0.082479
-0.028696
-0.045320
-0.028142
-0.021993
0.040761
-0.075664
-0.085052
-0.076690
-0.105717
-0.040121
-0.102459
-0.090479
-0.143145
-0.045893
-0.055423
-0.074804
-0.039152
-0.117326
-0.051486
-0.065566
-0.110910
0.036663
-0.119904
-0.139379
-0.079249
-0.196186
-0.105390
-0.028663
-0.082791
-0.060090
0.016089
0.051094
-0.038958
-0.044361
-0.067301
0.052547
0.001847
0.008335
-0.031619
0.002355
0.002735
0.072664
0.025370
-0.003432
0.082124
0.086834
0.148975
0.105596
0.071614
0.184823
0.210457
0.156227
0.217240
0.178877
0.018577
0.216842
0.044151
0.096291
0.042788
0.087073
0.082106
0.084061
0.121049
0.070202
0.046516
0.059608
-0.039468
-0.009875
0.024166
0.088850
-0.070003
-0.026524
0.018439
0.023369
-0.030176
0.017519
0.015283
-0.006173
-0.016855
-0.110033
-0.045819
-0.013804
-0.003699
-0.036866
-0.064820
-0.012932
0.039983
0.011183
-0.000225
0.018733
-0.016477
0.010023
0.014523
0.035092
-0.006415
0.018715
-0.005028
-0.018760
-0.107786
-0.127971
-0.146917
-0.075238
0.089676
0.440179
0.638599
0.868615
1.263122
1.457219
1.340569
1.118795
0.957612
0.651480
0.255198
0.044419
-0.157330
-0.372968
-0.306124
-0.360363
-0.165515
-0.138786
-0.003715
0.019990
0.075310
-0.062456
-0.048784
-0.075806
-0.000961
0.100608
0.056517
-0.016376
-0.063433
-0.038375
-0.018625
0.006941
0.019062
0.083546
-0.086825
0.065090
0.009580
0.074637
0.032950
0.042850
-0.063632
-0.063356
0.086407
0.041891
0.034411
0.076347
0.045624
0.093977
-0.021541
0.062732
0.147196
0.147601
0.211722
0.124002
0.114407
0.213079
0.261515
0.241119
0.255455
0.253327
0.257250
0.299920
0.324120
0.306284
0.331194
0.422214
0.478519
0.390311
0.414147
0.399954
0.466564
0.535626
0.501221
0.512762
0.555542
0.544664
0.500751
0.638321
0.529006
0.576403
0.512169
0.510552
0.487803
0.500323
0.420080
0.531054
0.477111
0.405251
0.416766
0.422669
0.330704
0.314192
0.338778
0.276314
0.234219
0.202472
0.298613
0.130910
0.186370
0.165302
0.148255
0.088590
0.150746
0.077984
0.138704
0.097771
0.144386
0.058444
0.080155
0.176825
0.125018
0.086777
0.079117
0.028560
0.016486
0.106844
0.009789
0.115426
0.106508
0.110412
-0.004544
0.089209
0.087491
0.029079
0.043245
0.090403
0.019637
0.091196
0.026020
0.011410
0.012231
0.038572
0.001057
0.090714
0.028323
-0.003776
0.120848
-0.001687
-0.014844
0.059353
0.042631
0.003084
0.036528
0.114551
0.062679
0.011429
0.025967
-0.013205
0.069991
0.049699
0.027139
0.015708
0.029765
-0.022240
-0.014808
0.070916
0.057802
0.103756
0.069838
0.000725
0.102979
0.076187
0.056098
0.025030
0.051835
0.029362
0.060962
0.054526
0.054574
0.103989
0.103216
0.072810
0.098359
-0.007409
0.051910
0.028931
0.001273
0.067147
0.067669
0.061770
0.049246
0.036559
0.077472
0.036544
0.103476
0.031155
0.132392
0.061278
0.053464
0.061702
0.036758
0.060214
0.122541
0.062299
0.067837
0.001756
0.070027
-0.012862
-0.036716
0.043056
0.052087
0.021621
0.015103
0.010253
0.052440
0.054330
0.050249
0.060681
0.093059
0.093292
0.095812
0.089446
0.108799
0.095444
0.031089
0.111093
0.156417
0.174917
0.137845
0.145522
0.124285
0.090545
0.052019
0.146999
0.227663
0.147458
0.191123
0.148133
0.242971
0.306790
0.187303
0.194345
0.250329
0.142905
0.278971
0.230973
0.145358
0.233612
0.163035
0.100421
0.104023
0.144272
0.146875
0.132675
0.117412
0.103173
0.099271
0.062639
0.102299
-0.003479
0.095207
0.131212
0.086292
0.071594
0.069586
0.065983
0.013014
0.067514
-0.001865
0.032105
-0.013332
-0.014620
0.007659
0.025677
0.019342
0.039152
0.060678
-0.018682
0.079966
-0.007082
0.053113
0.052844
-0.048228
0.105015
0.101562
0.038702
0.032494
0.003289
-0.085666
-0.021038
-0.025621
-0.078986
-0.083135
0.080469
0.302614
0.718201
1.081186
1.294133
1.403537
1.358320
1.304733
0.926778
0.682296
0.315783
0.045401
-0.150023
-0.242143
-0.331531
-0.319923
-0.240447
-0.108247
-0.116205
-0.073631
-0.002816
-0.010023
0.016163
0.075426
-0.021707
-0.069286
0.010581
-0.002465
-0.015751
0.014159
0.057604
-0.043820
-0.061677
0.012390
0.045459
-0.004935
-0.045477
-0.007681
0.037025
0.137721
0.034416
0.020559
0.035646
0.046707
0.119131
0.078569
0.005615
0.099785
0.093727
0.097133
-0.014823
0.185712
0.129468
0.172583
0.094569
0.179301
0.190918
0.147648
0.235440
0.268755
0.270636
0.284177
0.298109
0.301784
0.396940
0.356608
0.478209
0.353076
0.367204
0.480173
0.419304
0.489967
0.423161
0.482608
0.415649
0.522730
0.511270
0.495575
0.474303
0.554882
0.389435
0.466603
0.401949
0.392881
0.379396
0.348624
0.284744
0.380291
0.383644
0.250071
0.356642
0.290106
0.211297
0.263351
0.251782
0.151887
0.130272
0.180144
0.097863
0.155575
0.144292
0.070518
0.065860
0.035737
0.016343
0.039735
0.074226
-0.057593
-0.058297
0.062169
0.026257
-0.018527
-0.006418
-0.092107
-0.111392
-0.089290
-0.042661
0.020159
-0.030327
-0.100608
-0.084720
-0.111012
-0.020120
0.035751
0.026141
-0.022656
-0.021391
0.004955
0.049033
-0.065523
-0.021127
-0.102863
-0.076417
-0.064339
-0.064253
-0.021400
0.003712
-0.051057
-0.033831
-0.153888
-0.072345
-0.089453
-0.029718
-0.060391
-0.109096
-0.065354
0.026362
-0.022628
-0.073773
-0.081840
-0.038173
0.002838
-0.017525
-0.043831
-0.040936
-0.061449
-0.120624
-0.104639
-0.037602
-0.096571
-0.007448
-0.053121
-0.124767
-0.081717
-0.073295
0.026582
-0.043066
-0.069946
-0.113113
-0.070192
-0.012913
-0.079531
-0.022768
-0.081498
-0.067488
0.018055
-0.028540
-0.021299
-0.074949
-0.087160
-0.003684
-0.065448
-0.058664
-0.118262
-0.096954
-0.102337
-0.060883
-0.125715
0.030134
-0.101070
-0.045983
-0.062326
-0.084594
-0.044203
-0.008168
-0.110438
-0.096063
-0.075295
-0.148996
-0.155934
-0.075725
-0.037477
-0.110300
-0.032057
-0.073687
-0.100043
-0.110763
-0.109396
-0.061028
-0.019816
-0.055452
-0.061983
-0.062165
-0.069334
-0.097984
-0.006513
0.022086
0.029812
-0.034078
-0.041017
-0.029386
0.077464
-0.023489
0.042121
0.030157
0.054990
0.092220
-0.002786
0.112068
0.121579
0.113434
0.067690
0.081687
0.127913
0.062380
0.043282
0.063888
0.130276
0.058009
-0.007107
0.087172
0.001845
0.030978
-0.062925
-0.057399
-0.017082
-0.016057
-0.009794
-0.017157
-0.094518
-0.083235
-0.102425
-0.058905
-0.141799
-0.014603
-0.009039
0.000867
-0.101211
-0.015585
-0.132913
-0.087799
-0.027073
-0.063194
-0.081405
-0.075623
-0.118563
-0.118205
-0.107251
-0.082722
0.009120
0.008249
-0.122471
-0.124674
-0.090636
-0.029641
-0.140521
-0.175882
-0.094967
-0.107734
-0.171835
-0.187194
-0.165014
-0.166764
-0.068690
0.231930
0.574126
0.848896
1.128506
1.342670
1.259063
1.128580
0.969270
0.539213
0.242658
-0.017289
-0.232098
-0.381914
-0.446280
-0.478574
-0.343936
-0.258721
-0.215591
-0.180725
-0.076983
-0.168973
-0.121758
-0.086723
-0.017011
-0.119796
-0.125793
-0.096583
-0.155115
-0.071349
-0.085811
-0.063922
-0.127053
-0.080169
-0.034609
-0.062190
-0.091421
-0.117422
-0.068416
-0.099607
-0.140050
-0.029445
-0.096953
-0.074091
-0.023368
0.001400
-0.051612
0.000185
0.020871
0.029208
-0.005517
0.095046
0.036589
0.124621
0.193178
0.091839
0.138758
0.238391
0.164422
0.207763
0.275901
0.214006
0.284464
0.256648
0.293904
0.281233
0.349814
0.352061
0.410729
0.376951
0.432018
0.445524
0.449191
0.444758
0.377958
0.425181
0.406389
0.431811
0.472205
0.500587
0.328829
0.427504
0.419953
0.365886
0.378143
0.386282
0.313518
0.366147
0.327570
0.288331
0.378358
0.247360
0.212856
0.103931
0.151031
0.188668
0.183635
0.111389
0.015695
0.046312
0.102044
0.086838
0.040554
0.032041
-0.033807
0.042751
0.018802
0.064405
0.007914
-0.009187
-0.000321
-0.052661
0.017345
-0.000931
-0.111016
-0.058158
-0.009923
-0.054258
-0.128590
-0.089798
-0.054428
-0.050744
-0.063068
-0.017710
-0.053877
0.011022
-0.110502
-0.074636
-0.040328
-0.010019
-0.116336
0.017555
-0.064393
-0.095134
-0.029921
-0.042558
0.003924
-0.065770
-0.052926
-0.113796
-0.173269
-0.042588
-0.036298
0.007676
-0.051259
0.012527
-0.076691
0.014959
-0.007138
-0.021241
0.109916
-0.046776
-0.019697
-0.033984
-0.040313
-0.012668
-0.032098
-0.084513
-0.009297
-0.028555
-0.058059
0.079131
-0.038652
-0.030676
0.001692
-0.070096
0.000004
0.079684
-0.024531
-0.122653
0.019411
-0.074812
-0.037478
-0.102638
-0.143723
-0.007470
-0.001856
0.006795
0.015008
-0.015492
-0.042225
0.051388
0.066571
-0.111359
0.025220
0.002667
-0.018123
0.019821
0.018953
0.003429
0.004504
-0.052571
-0.068509
0.022065
-0.018743
-0.032897
0.070294
-0.105678
-0.030541
-0.073890
0.007850
0.018714
0.055628
-0.069860
-0.040118
0.024765
-0.098255
0.017135
0.086517
0.025809
-0.056838
-0.011444
-0.021680
0.032080
-0.016330
0.033067
0.062803
0.040115
0.061960
0.073253
0.072457
0.063067
0.119926
0.071521
0.173817
0.187574
0.177682
0.128668
0.188166
0.194606
0.196678
0.144133
0.221375
0.213470
0.155144
0.155836
0.181928
0.168092
0.111402
0.118245
0.071355
0.189643
0.093962
0.057939
0.113171
0.141522
0.045722
0.066020
0.014686
0.004101
0.062530
0.029986
0.079555
0.008522
0.028056
0.006856
0.010445
0.011092
-0.013955
0.001778
-0.011181
0.043695
0.050130
0.041385
0.081065
0.004260
0.124211
0.003011
0.091560
0.019100
0.014346
0.103710
0.033957
0.040611
-0.032520
0.124153
-0.015591
0.119418
0.048281
-0.010064
-0.035020
-0.111953
0.032768
0.064573
0.394260
0.669800
1.015437
1.313183
1.451373
1.427000
1.334235
1.055312
0.662155
0.371992
0.133589
-0.031902
-0.244049
-0.304281
-0.223338
-0.182117
-0.213021
0.008524
-0.005461
0.061916
0.007028
0.139052
-0.013633
0.054151
0.072683
0.133639
0.097518
0.042177
0.036033
0.075808
0.094868
0.044782
0.086556
0.073351
0.112064
0.069722
0.018715
0.103352
0.068817
0.138292
0.126357
0.069315
0.155852
0.100415
0.101727
0.180591
0.152569
0.125432
0.236123
0.192013
0.285074
0.265711
0.171514
0.287525
0.218866
0.261183
0.233656
0.317472
0.362911
0.259278
0.348374
0.417244
0.495006
0.410672
0.500154
0.431586
0.497863
0.483383
0.483370
0.547343
0.576703
0.539180
0.570649
0.612954
0.621561
0.559235
0.513442
0.622902
0.548255
0.593984
0.502798
0.542270
0.555885
0.568403
0.436409
0.454064
0.448568
0.417255
0.354049
0.406841
0.436270
0.401848
0.375368
0.364810
0.242615
0.279544
0.306246
0.226022
0.282613
0.149263
0.256566
0.149783
0.170001
0.206172
0.161140
0.121586
0.093031
0.033333
0.126781
0.085626
0.124411
0.152209
0.141172
0.091312
0.029983
0.198885
0.109235
0.224734
0.060492
0.039380
0.129473
0.102295
0.031720
0.100603
-0.002375
0.130476
0.104302
