0.072304
-0.000340
-0.021212
-0.019846
-0.073248
-0.038175
-0.017100
0.035530
-0.014961
0.040102
-0.011296
0.019854
0.074637
0.126300
0.018254
-0.010405
0.042832
0.011082
0.010305
-0.021830
-0.003848
-0.019568
0.029634
-0.065768
0.072581
-0.028986
0.157212
-0.005054
0.072792
0.067833
0.143084
0.128877
0.066542
0.124404
0.114793
0.074290
0.262635
0.153362
0.144284
0.234570
0.100602
0.229123
0.127359
0.365805
0.269329
0.250616
0.169200
0.194153
0.159784
0.172257
0.220330
0.172360
0.185226
0.188492
0.188682
0.219751
0.059942
0.140213
0.110309
0.196276
0.135385
0.171469
0.076777
0.061909
0.027508
0.082084
0.046651
0.007287
0.127332
0.050829
0.011920
0.013542
0.039188
0.024923
0.068827
0.066112
0.038946
0.016639
0.142481
0.046703
0.004519
0.087828
0.071326
-0.030550
0.036547
0.064601
0.226669
0.432248
0.724386
1.022714
1.401880
1.485833
1.417574
1.209678
0.904496
0.419659
0.076559
-0.060985
-0.152890
-0.199909
-0.159931
-0.050213
0.014179
0.020660
0.018434
0.045148
0.132640
0.128905
0.027046
0.143686
0.078574
0.074072
0.152881
0.076279
0.110727
0.149119
0.169263
0.150768
0.130344
0.013834
0.154353
0.219310
0.219693
0.215305
0.279283
0.195657
0.267593
0.354121
0.253442
0.280032
0.373241
0.295861
0.352726
0.375233
0.460001
0.436167
0.387210
0.474287
0.436664
0.574433
0.569828
0.609434
0.584155
0.587211
0.549219
0.543658
0.652102
0.543253
0.625769
0.625288
0.632787
0.601681
0.596976
0.482138
0.565176
0.571830
0.528693
0.455574
0.499294
0.397551
0.436940
0.420500
0.399863
0.338955
0.396725
0.368607
0.345689
0.383608
0.300353
0.406593
0.186883
0.199606
0.249770
0.181580
0.247325
0.209769
0.154567
0.133748
0.171833
0.070585
0.159017
0.160607
0.161900
0.084840
0.162163
0.054585
0.146188
0.102798
0.075577
0.041873
0.077765
0.077444
0.138559
0.053221
0.190131
0.021136
0.129405
0.052636
0.056027
0.064817
0.027242
0.067607
0.065312
0.071713
0.123099
0.095373
0.081419
0.093664
0.078355
0.082980
0.053883
0.085801
0.072709
0.101623
0.136613
0.130739
0.166437
0.165483
0.065282
0.103507
0.082844
0.062397
0.129060
0.039656
0.094198
0.080318
0.035501
0.107207
0.083688
0.027699
0.082480
0.074225
0.009016
0.087503
0.132915
0.030000
0.195490
0.121916
0.017267
0.098671
0.065989
0.088326
0.087137
0.146473
0.074891
0.173708
0.078710
0.019951
0.051132
0.110779
0.079712
0.077357
0.100184
0.079236
0.088711
0.150279
0.055276
0.094487
0.099865
0.192192
0.167535
0.116309
0.129639
0.215289
0.216648
0.175502
0.234723
0.222554
0.226979
0.217522
0.159885
0.252849
0.287471
0.270174
0.258205
0.271520
0.172438
0.239297
0.226723
0.211035
0.158355
0.172783
0.228326
0.186073
0.190974
0.165760
0.124260
0.090172
0.099201
0.125413
0.065576
0.150399
-0.001455
0.114122
0.123648
0.097036
0.113107
0.055405
0.150303
0.048186
0.120445
0.041717
0.109129
0.070065
0.026059
0.099797
0.102064
0.023705
0.079466
0.064932
0.029279
0.013931
0.020775
0.134122
0.417872
0.673002
1.067599
1.345009
1.468432
1.385698
1.199490
0.921809
0.479580
0.153704
-0.032668
-0.212798
-0.172399
-0.191967
-0.104049
-0.095928
0.026898
-0.007076
0.105066
-0.002281
0.074310
0.107146
0.061148
0.148438
0.036532
0.113366
0.091171
0.139632
0.133899
0.098173
0.149539
0.109657
0.125100
0.154016
0.136171
0.116405
0.240440
0.163715
0.141059
0.283560
0.209149
0.211804
0.264144
0.222678
0.331980
0.289208
0.343473
0.423266
0.399428
0.354193
0.449740
0.408885
0.384059
0.508840
0.472217
0.535211
0.516260
0.584789
0.522519
0.433046
0.570788
0.500779
0.596404
0.573083
0.513032
0.461766
0.474144
0.535621
0.441064
0.516885
0.439180
0.426794
0.413479
0.331094
0.325942
0.368715
0.389140
0.294006
0.319299
0.239478
0.203222
0.246583
0.207301
0.218022
0.159402
0.193141
0.080081
0.099413
0.119216
0.102751
0.022624
0.092480
0.037125
0.097125
0.064632
0.059811
0.092156
-0.007641
0.024156
-0.021185
-0.066362
-0.066584
-0.019331
-0.017544
0.097174
0.036883
-0.014086
-0.013931
0.036358
-0.009465
0.079040
-0.057172
0.016821
-0.022018
-0.000607
0.035859
0.018522
-0.067361
-0.040615
0.023762
-0.014877
-0.111360
-0.007268
-0.043684
-0.000491
0.023976
0.013082
-0.006800
0.031695
-0.005213
-0.080206
-0.036390
0.021898
0.012824
0.027434
-0.027387
-0.041233
-0.041375
-0.062330
0.038230
0.003217
-0.010385
-0.042423
-0.047909
-0.005488
-0.090567
-0.045152
-0.033014
0.008420
-0.023859
-0.007471
0.020944
-0.040464
-0.020527
0.076051
0.006427
-0.028277
-0.065350
0.104208
-0.017690
-0.011840
-0.003376
0.042990
0.039652
0.023479
0.025144
0.021591
-0.009718
0.105516
0.012166
0.105436
0.043828
0.049812
0.085868
0.088019
-0.005697
0.087820
0.114338
0.035080
0.091435
0.074846
0.100396
0.121877
0.136887
0.204675
-0.049973
0.143427
0.120262
0.128818
0.231791
0.054086
0.162663
0.116182
0.102446
0.121978
0.038936
0.123960
0.087751
0.084497
-0.001587
-0.062578
0.039925
-0.032926
-0.045200
-0.003216
-0.048794
0.022422
-0.005056
0.077477
-0.104649
-0.061932
-0.050699
-0.024278
-0.019530
-0.021661
-0.107315
-0.018830
-0.010942
-0.066646
-0.082161
-0.155647
-0.044041
0.046230
-0.062146
-0.138948
-0.070995
0.054598
0.276342
0.533232
0.858837
1.207185
1.363660
1.254695
1.165450
0.910882
0.520187
0.207616
-0.054739
-0.319022
-0.322486
-0.294929
-0.203834
-0.232681
-0.072885
-0.096086
-0.095290
0.021188
0.042683
-0.085364
-0.013653
-0.051867
-0.019320
-0.013639
0.004063
-0.049436
-0.034145
-0.076020
0.052142
0.013370
0.012410
0.003002
0.067238
0.056909
-0.005827
0.102053
0.128151
0.142042
0.086130
0.144900
0.116192
0.231383
0.161313
0.217065
0.297174
0.269029
0.367776
0.268711
0.278115
0.344094
0.440349
0.358138
0.405616
0.468263
0.482302
0.463294
0.418672
0.462042
0.460207
0.421386
0.452267
0.463321
0.464220
0.448905
0.354312
0.363973
0.403245
0.442654
0.387227
0.403695
0.352509
0.373433
0.335820
0.319435
0.210690
0.233838
0.290784
0.186678
0.300595
0.224684
0.179942
0.134855
0.112266
0.154953
0.072929
0.160891
0.051759
0.073064
-0.015779
0.013371
0.060730
0.014260
0.084036
0.036515
-0.034981
-0.021910
-0.057993
-0.126709
-0.001058
-0.018360
-0.012380
-0.081077
-0.027573
-0.004845
0.001737
-0.035589
-0.083028
0.003032
-0.012371
-0.039430
0.015047
-0.067744
-0.017180
-0.067164
-0.033627
-0.075933
-0.048409
-0.061678
-0.029275
0.051567
-0.033403
0.001758
-0.026478
0.008131
-0.050168
-0.050731
-0.088072
-0.047939
-0.042748
0.010053
-0.034285
-0.076772
0.034402
0.004940
0.069594
-0.002276
0.058714
-0.034084
0.009766
-0.065802
-0.052145
0.029703
0.054762
-0.062823
-0.029150
-0.000726
-0.016819
0.027764
0.019815
-0.001690
-0.005429
-0.040189
0.057154
-0.091026
-0.089259
-0.043040
-0.063342
0.029033
0.030990
0.070791
0.015871
0.074392
0.062595
0.005852
0.111091
-0.019061
0.061287
0.009483
0.043014
0.019607
0.059812
0.092303
0.044953
0.105949
0.050622
0.170967
0.093711
0.095397
0.175626
0.130805
0.082613
0.141695
0.235576
0.173214
0.204454
0.172414
0.148892
0.134051
0.137829
0.231453
0.179032
0.155692
-0.047563
0.193995
0.070340
0.188366
0.101403
0.070527
0.080789
-0.001045
0.056962
0.068534
0.071158
0.081162
-0.009156
0.101214
0.088651
0.062325
0.061494
0.059212
0.047296
-0.045070
0.035458
0.103012
0.022510
0.039822
-0.073871
0.087530
0.041463
-0.019140
-0.042159
-0.008660
-0.030733
-0.050731
0.091311
0.185610
0.423322
0.794227
1.117785
1.500000
1.457434
1.335321
1.099886
0.773857
0.315459
0.079179
-0.203362
-0.253914
-0.246930
-0.158603
-0.057086
0.020176
-0.000950
0.049536
0.063727
0.029277
0.063548
0.041435
0.021423
0.013093
0.083499
0.093559
0.035294
0.082184
0.026006
0.103571
0.133454
0.134174
0.130103
0.083709
0.144572
0.103552
0.216869
0.202821
0.205531
0.225647
0.272406
0.306767
0.299419
0.345995
0.318332
0.409160
0.451733
0.454738
0.419649
0.448906
0.484599
0.519382
0.536051
0.579580
0.539801
0.525373
0.619305
0.562670
0.590335
0.526907
0.627776
0.563769
0.617082
0.480737
0.548333
0.564714
0.517051
0.619450
0.540264
0.472964
0.439735
0.499680
0.477703
0.429873
0.372810
0.382999
0.373287
0.410265
0.325698
0.278306
0.357625
0.277152
0.245001
0.251225
0.214332
0.275397
0.190653
0.082802
0.200562
0.146857
0.136121
0.107573
0.151925
0.107349
0.131550
0.137889
0.103428
0.003643
0.131555
0.162302
0.111596
0.067139
0.115770
0.086089
0.137067
0.112953
0.087624
0.188289
-0.010334
0.056854
0.071650
0.078684
0.122637
0.046351
0.140275
0.038899
0.106821
0.126515
0.108017
0.139290
0.118305
0.137340
0.049413
0.106184
0.102817
0.093653
0.027344
0.072200
0.012034
0.100901
0.018180
0.108611
0.143751
0.055414
0.117363
0.094291
0.125482
0.142786
0.002261
0.057374
0.081881
0.105700
0.144012
0.083262
0.076932
0.056110
0.032194
0.024812
0.109830
0.053816
0.138901
0.145404
0.162322
0.106210
0.066662
0.154714
0.093422
0.074344
0.091449
0.084066
0.059116
0.086591
0.082511
0.108231
0.135296
0.087277
0.148291
0.102646
0.105665
0.173013
0.128471
0.231943
0.125370
0.135788
0.151889
0.174890
0.178312
0.134466
0.179562
0.238123
0.314303
0.259766
0.327957
0.290676
0.247063
0.209481
0.276102
0.307034
0.304222
0.231623
0.255504
0.152411
0.306527
0.251961
0.176987
0.230610
0.166939
0.161083
0.203027
0.069086
0.094047
0.101878
0.046542
0.162593
0.190863
0.069416
0.018392
0.134661
0.117169
0.156225
0.139324
0.022154
0.095616
0.098960
0.126481
0.046165
0.046735
0.092780
0.084524
0.117603
0.069579
0.165632
0.143344
0.063403
0.073352
0.131694
0.245704
0.479208
0.844003
1.165553
1.286865
1.472008
1.413366
1.210262
0.872446
0.551170
0.133294
-0.043643
-0.172310
-0.240219
-0.191601
-0.090342
0.038712
0.028992
0.100603
0.042789
0.039067
0.061895
0.048414
0.121899
0.072271
0.131087
0.070475
0.060389
0.064957
0.091108
0.034894
0.144059
0.159347
0.125254
0.157344
0.169071
0.109647
0.157883
0.163685
0.253866
0.210969
0.265023
0.340140
0.285595
0.339054
0.351915
0.407661
0.478040
0.455822
0.460354
0.554210
0.502040
0.531223
0.469093
0.523479
0.496055
0.550480
0.636160
0.539461
0.533535
0.580917
0.563633
0.541216
0.513425
0.562823
0.599473
0.564096
0.540617
0.539643
0.523361
0.507783
0.524198
0.447017
0.358189
0.462437
0.425710
0.388561
0.376297
0.319968
0.329561
0.322769
0.218687
0.330151
0.198891
0.239798
0.211021
0.207753
0.129318
0.100120
0.130124
0.099761
0.186197
0.092960
0.033814
0.032243
0.162058
0.108284
0.052383
0.044178
0.106795
0.099308
0.103812
0.073570
0.054242
0.001883
0.018588
-0.084992
0.075350
0.074225
0.020506
0.023478
0.030690
0.007889
0.027647
-0.012714
-0.022394
-0.023796
-0.052756
0.013536
0.026861
0.052660
0.010238
-0.085815
0.034631
0.033324
0.021781
0.005372
0.096145
-0.032574
0.038104
0.028083
-0.003205
0.023766
0.041831
0.024890
-0.006486
0.031681
-0.017663
0.012620
0.002989
0.012138
-0.017843
-0.042885
0.011587
-0.031908
0.027554
-0.036207
-0.003364
-0.063382
0.061099
-0.008928
-0.035821
0.001660
-0.007606
-0.019235
0.062900
-0.094545
-0.029365
0.049010
-0.006936
0.063831
0.007401
-0.099348
-0.034442
-0.004242
0.004795
-0.013485
0.030369
-0.050075
0.046788
0.047432
0.089919
0.018411
0.102023
0.045487
0.052004
0.165741
0.119156
0.030114
0.039814
0.111728
0.076243
0.160500
0.133077
0.110905
0.143320
0.144945
0.188279
0.131713
0.181086
0.088394
0.008635
0.121936
0.083923
0.058521
0.177198
0.085644
0.091906
0.075741
0.065495
0.067980
0.077877
0.029745
-0.053121
-0.022279
-0.051203
0.048318
-0.066784
-0.048622
0.004895
-0.012288
-0.047110
0.058403
-0.004360
-0.069551
-0.084448
0.031874
-0.021176
-0.038245
-0.028568
-0.009548
-0.049293
0.002804
-0.087231
-0.169187
-0.110813
-0.061484
0.059915
0.267111
0.549411
0.835324
1.228776
1.355945
1.359225
1.139214
0.851093
0.452213
0.114718
-0.109860
-0.267205
-0.357698
-0.331385
-0.192681
-0.132789
-0.147149
-0.135842
0.037431
-0.049032
0.007672
0.027405
-0.007970
-0.026149
-0.063777
-0.043496
0.005752
-0.065937
-0.024914
0.018552
0.051083
0.019775
0.018618
0.022292
0.098278
-0.017580
0.096788
0.051326
0.050995
0.144956
0.041932
0.046866
0.222154
0.161344
0.206954
0.196325
0.323274
0.257018
0.284988
0.300720
0.291355
0.343742
0.375211
0.340732
0.320595
0.329945
0.456563
0.430205
0.460866
0.423551
0.357691
0.459214
0.476005
0.464281
0.424187
0.389723
0.430406
0.345218
0.395630
0.355043
0.362780
0.300818
0.327608
0.260593
0.277835
0.208199
0.273578
0.266732
0.197077
0.143457
0.176185
0.128338
0.061047
0.153672
0.073706
0.025429
0.049212
0.000415
0.104426
0.039020
0.027655
0.056642
0.019326
0.026664
0.023871
-0.032532
-0.035879
-0.056115
-0.000445
-0.110710
-0.056011
-0.095441
-0.018302
-0.053941
-0.032413
-0.073797
-0.068107
0.043519
-0.039132
-0.036428
-0.099771
-0.088265
-0.046349
-0.030177
-0.028365
0.011100
-0.083746
-0.058783
-0.040361
-0.113061
-0.045874
-0.087029
-0.149062
-0.026008
-0.078076
-0.100886
-0.123232
-0.145870
-0.142741
-0.021430
-0.132729
-0.066184
-0.105595
-0.116808
-0.133969
-0.079041
-0.061435
-0.129330
-0.069241
-0.075165
-0.020052
0.008599
-0.117975
-0.076224
-0.060461
-0.082499
-0.112632
-0.074942
-0.089835
-0.086717
0.037964
-0.062240
-0.122228
-0.099391
0.003155
-0.120581
-0.027214
-0.158903
0.006668
-0.039207
-0.036594
-0.052815
-0.057147
-0.096323
-0.101857
0.013055
-0.041814
-0.067194
-0.088759
-0.066664
-0.085942
0.003267
-0.004419
-0.010498
0.067308
0.074737
0.060636
0.100776
0.027534
0.041349
0.087218
0.057046
0.146868
0.036009
0.121822
0.130435
0.044377
0.119952
0.144954
0.117678
0.057625
0.061466
0.154911
0.139181
0.047829
0.095789
0.041718
0.022462
-0.008738
0.026038
-0.033875
0.030671
0.013345
-0.028136
0.025901
-0.097373
-0.001126
-0.071390
-0.018625
-0.118747
-0.046307
-0.013527
-0.025153
-0.045680
-0.042699
-0.078319
-0.029530
-0.008572
-0.057171
-0.032115
-0.100839
-0.026289
-0.047673
-0.055924
-0.145155
-0.112478
-0.049774
0.138111
0.441817
0.764243
1.161613
1.334080
1.373987
1.200793
0.876726
0.465987
0.105610
-0.093978
-0.226565
-0.294597
-0.283840
-0.117047
-0.187324
-0.143829
-0.087763
-0.114369
-0.142623
-0.058924
-0.080840
-0.001250
-0.020768
-0.029365
-0.002744
0.013626
0.018907
0.030685
0.072296
-0.010850
0.076474
0.095069
0.026510
0.051258
0.063483
0.128443
0.051388
0.167789
0.129224
0.154054
0.102267
0.193585
0.216340
0.181641
0.232117
0.254193
0.298912
0.312315
0.421423
0.348357
0.322961
0.353724
0.350888
0.505826
0.490258
0.468587
0.449161
0.475192
0.440050
0.476421
0.466925
0.592165
0.510928
0.433306
0.482811
0.454946
0.533153
0.382449
0.498269
0.409355
0.405425
0.433252
0.329708
0.370899
0.327316
0.189797
0.254511
0.203887
0.306244
0.197867
0.240230
0.203325
0.121272
0.083619
0.132234
0.134577
0.095823
0.121448
0.100779
-0.002581
0.039012
0.017408
0.092299
0.078433
0.095955
-0.016995
0.047105
0.079704
0.097215
-0.049791
-0.035003
-0.027905
-0.038229
0.013621
0.013334
-0.027464
-0.051345
-0.017609
-0.012001
0.088732
0.027608
0.038477
0.014079
0.015318
0.023187
0.011402
0.045013
-0.058408
-0.023230
-0.011526
0.011596
0.091899
0.008936
0.045735
0.006999
-0.035882
0.012274
0.032782
0.050889
0.067540
-0.025537
0.097361
0.060234
0.069109
0.159633
-0.076119
0.028220
0.046452
0.046050
0.028213
0.048447
0.067771
0.063492
0.045875
0.038188
0.043608
-0.013936
0.021605
0.038989
0.095561
0.017125
0.017343
-0.019123
0.083520
0.015665
-0.009367
-0.022806
0.057788
-0.001427
0.016609
-0.024762
0.023893
0.003422
0.042971
0.070843
0.043113
0.058253
0.042317
0.026835
0.091392
0.167732
0.110755
0.087715
0.126132
0.139360
0.190206
0.097104
0.201129
0.209062
0.233614
0.126254
0.110998
0.151551
0.292602
0.206370
0.263715
0.129402
0.119800
0.255835
0.178924
0.153187
0.222050
0.136681
0.092148
0.134890
0.086302
0.143525
0.108177
0.178542
0.057309
0.103683
0.145306
0.021838
0.025724
0.016867
0.013225
0.098453
0.072365
-0.006078
0.003754
0.059842
0.005194
0.071719
0.053474
0.032742
0.054638
0.085006
0.074877
0.013581
-0.014837
-0.066561
0.030427
0.022668
-0.039902
0.007000
0.038635
0.255636
0.490629
0.785191
1.096810
1.444572
1.477926
1.361586
1.169571
0.810326
0.401470
0.100614
-0.079230
-0.253940
-0.298397
-0.185366
-0.104601
-0.121307
0.074981
0.047279
-0.003586
0.038306
-0.024610
0.056868
0.106264
0.070018
0.061467
0.071833
0.053621
0.028883
0.175898
0.045856
0.093570
0.119178
0.092869
0.124557
0.110368
0.093786
0.143964
0.253058
0.126933
0.244743
0.254690
0.263944
0.316754
0.287720
0.359985
0.304455
0.377270
0.456425
0.406614
0.462272
0.432206
0.474898
0.505788
0.501656
0.476374
0.506457
0.501222
0.613858
0.575736
0.593242
0.514963
0.539322
0.531516
0.516654
0.465768
0.507345
0.462549
0.486525
0.379627
0.532870
0.531954
0.410887
0.437586
0.329250
0.286345
0.325711
0.350998
0.283471
0.317637
0.265432
0.263833
0.232274
0.262237
0.162322
0.214176
0.173107
0.180686
0.178348
0.115031
0.157612
0.182586
0.119654
0.053091
0.032030
0.127488
0.016871
0.068999
0.130300
0.150149
0.092619
0.123842
0.066230
0.068449
0.014446
0.000961
0.048121
0.100126
0.000816
0.019954
-0.011707
0.066750
0.037444
-0.002636
-0.001865
-0.025069
0.045702
0.004240
0.087020
0.032028
0.016938
-0.009753
-0.029572
0.017083
0.027278
-0.046351
0.106722
0.074159
0.012674
-0.017151
0.129527
0.002507
-0.003096
0.036783
0.091583
0.063276
-0.007200
-0.088567
0.043325
0.085373
0.054214
0.076712
0.147526
-0.001207
-0.036122
-0.016255
0.048705
0.074534
-0.068081
0.194607
0.020880
0.077243
0.020214
0.041395
0.039529
0.051826
0.001114
-0.052375
-0.017875
0.084833
0.092805
0.062103
-0.031701
-0.002321
-0.003575
0.083417
-0.010247
0.045594
-0.011485
-0.008434
0.067692
0.025034
0.074980
0.035146
0.155500
0.034680
0.075643
0.072417
0.118352
0.117645
0.141081
0.151645
0.135232
0.072303
0.109037
0.195097
0.176616
0.172805
0.192936
0.197038
0.187975
0.105957
-0.006919
0.080109
0.145084
0.048451
0.133737
0.142050
0.025339
0.014702
0.059248
0.029030
0.007170
0.004552
0.051406
0.017428
-0.021905
0.016056
0.067074
-0.058083
0.054136
-0.027546
-0.079480
-0.045036
-0.043707
0.002683
-0.007047
-0.026206
-0.005121
-0.014072
0.000566
-0.020969
-0.013090
-0.102579
-0.112561
-0.144228
-0.007812
0.043924
0.295184
0.702030
0.978940
1.175580
1.352310
1.289463
1.134893
0.765844
0.412694
0.039973
-0.126096
-0.327464
-0.260588
-0.291710
-0.182125
-0.149120
-0.167828
-0.106549
-0.020144
-0.041131
-0.078528
-0.048703
-0.091205
0.026560
-0.035431
-0.065487
-0.003558
-0.037251
-0.054143
0.085106
0.058458
0.024019
-0.001392
0.120562
0.089290
0.039745
0.074858
0.088821
0.035292
0.121191
0.221481
0.119454
0.165175
0.190192
0.184426
0.280603
0.204874
0.283955
0.272354
0.388678
0.357334
0.384411
0.404093
0.344180
0.365434
0.451479
0.392246
0.444092
0.477483
0.503433
0.473628
0.354441
0.361081
0.393661
0.393884
0.390491
0.391385
0.356900
0.421290
0.427924
0.316795
0.447990
0.352550
0.274779
0.193914
0.291925
0.216690
0.173147
0.222100
0.147141
0.070461
0.069924
0.084625
0.147511
0.047062
-0.001231
0.085070
0.072943
0.020896
0.065728
-0.090237
-0.015163
0.000635
-0.097852
-0.066102
-0.034924
0.020553
-0.087613
-0.059482
-0.095488
-0.047839
-0.075019
0.022213
-0.094853
-0.144796
-0.066110
-0.001649
-0.072047
-0.014566
-0.118187
-0.040047
-0.114478
-0.156853
-0.107814
-0.073559
-0.023128
-0.113775
-0.047294
-0.147781
-0.080250
-0.073424
-0.018153
-0.083437
-0.085495
-0.038132
-0.112877
-0.085488
-0.107246
-0.104918
-0.096595
-0.082787
-0.139599
-0.025368
-0.113551
-0.121966
-0.098043
-0.147224
-0.103740
-0.154607
-0.087239
-0.057337
-0.078698
-0.097855
-0.056628
-0.092195
-0.059499
-0.157783
0.002360
-0.060417
-0.005992
-0.163083
-0.076425
-0.082551
-0.164904
-0.065306
-0.005961
-0.078214
-0.123832
-0.106964
-0.092166
-0.122213
-0.087036
-0.157910
-0.086036
-0.026164
-0.093566
-0.069376
-0.075396
-0.080859
-0.061246
-0.027158
0.022633
-0.073102
-0.024743
0.009339
0.004894
-0.055460
0.019403
0.018729
0.006365
0.026836
-0.030703
-0.012279
0.115607
0.082631
0.093766
0.036185
0.098118
0.059548
0.051169
0.101075
0.016703
0.053082
0.055679
0.051254
0.035429
0.033734
0.026957
-0.092403
-0.007800
0.098643
-0.031929
-0.089328
0.026384
-0.119350
-0.119442
-0.056425
-0.057117
-0.091144
-0.025461
-0.046960
-0.052055
-0.109220
-0.085516
-0.105894
-0.039652
-0.059113
-0.111046
-0.099067
-0.196048
-0.070545
-0.142125
-0.158271
-0.156596
-0.059275
-0.059519
-0.102125
0.184233
0.482474
0.836993
1.109882
1.409298
1.370684
1.096800
0.826280
0.469165
0.068523
-0.171528
-0.330633
-0.394013
-0.377827
-0.342962
-0.151948
-0.168444
-0.159234
-0.003687
-0.062446
-0.046473
-0.018398
-0.027772
0.001246
-0.057235
-0.084124
-0.091442
-0.076143
-0.018940
-0.019186
0.010735
-0.013776
-0.061072
-0.003059
-0.075566
0.008174
-0.017673
0.041384
0.140914
0.025185
0.131976
0.124396
0.137193
0.157618
0.255808
0.178612
0.178332
0.241388
0.270575
0.250863
0.286391
0.287817
0.396410
0.371110
0.361310
0.422802
0.411040
0.429277
0.413254
0.484480
0.541529
0.450556
0.468787
0.425166
0.484178
0.448477
0.389956
0.412576
0.409798
0.394766
0.333217
0.361105
0.367472
0.387660
0.360320
0.229803
0.238466
0.211999
0.109258
0.152872
0.169994
0.120366
0.183058
0.061680
0.111403
0.121524
0.212289
0.079889
0.136742
0.007463
0.073234
0.043213
0.083463
0.056483
-0.007704
0.039973
-0.076399
0.000041
0.009690
-0.177112
-0.037671
-0.055728
-0.053787
-0.011850
-0.047507
0.011239
-0.083983
-0.050020
0.001591
-0.098844
0.026498
0.039368
-0.089301
-0.000795
-0.011365
-0.069483
-0.096341
-0.034104
0.001446
-0.023670
-0.028035
0.013019
-0.059168
0.025254
0.032787
-0.103110
-0.063720
-0.053181
0.038965
-0.034585
-0.043225
-0.012115
-0.040040
-0.045302
-0.054963
-0.030099
0.013999
-0.011683
0.006699
-0.037005
0.004953
-0.036115
-0.006204
-0.032205
-0.009039
-0.045199
0.005420
-0.033086
-0.058882
-0.012738
0.100109
0.050197
-0.039504
-0.082918
-0.054261
-0.015597
0.026097
-0.057674
-0.001245
-0.028700
-0.034848
-0.018884
-0.002234
-0.086443
0.022664
0.040653
0.106231
0.040732
0.030739
0.047526
-0.010743
0.038897
0.069152
0.025315
0.151850
0.131159
0.169331
0.127212
0.098273
0.150934
0.152478
0.138105
0.246895
0.186568
0.275596
0.209362
0.228321
0.150493
0.128669
0.203960
0.218616
0.165286
0.165913
0.114521
0.170866
0.148518
0.114579
0.118789
0.141019
0.113442
0.049571
0.084253
0.019874
0.080242
0.004409
0.016135
0.105575
0.019645
0.029023
0.046421
-0.028309
0.047813
0.077846
0.111183
0.057180
0.096917
0.102463
0.022506
0.030819
0.063139
-0.001168
0.030452
0.114354
-0.010190
-0.076636
-0.058428
0.132407
0.252357
0.584823
0.816781
1.241921
1.426573
1.484221
1.328930
1.067176
0.636778
0.257592
-0.005437
-0.169336
-0.235045
-0.154362
-0.160211
-0.114692
-0.009457
0.014670
-0.073779
0.070481
0.021305
0.023864
0.049217
0.044346
0.062575
0.008054
0.056272
0.133531
0.048451
0.097545
0.148459
0.061530
0.067451
0.127102
0.228506
0.230481
0.189505
0.248806
0.276362
0.215384
0.362931
0.228046
0.293473
0.341939
0.379425
0.297679
0.356091
0.444485
0.452651
0.492395
0.496508
0.449815
0.486317
0.489556
0.616552
0.568763
0.559820
0.563850
0.534919
0.567666
0.583246
0.575154
0.640068
0.540663
0.489308
0.580686
0.595144
0.559022
0.577074
0.509129
0.570860
0.494189
0.469778
0.461766
0.485945
0.375144
0.440360
0.346363
0.378730
0.299665
0.370656
0.274980
0.327405
0.193653
0.305002
0.192051
0.255288
0.160616
0.133788
0.183249
0.263436
0.206653
0.142843
0.087214
0.088647
0.143495
0.068501
0.078634
0.136355
0.116354
0.063269
0.048883
0.147843
0.073064
0.052495
0.156516
0.106330
0.077843
0.158813
0.126440
0.153479
0.105720
0.063416
0.143258
0.092806
0.039745
0.016987
0.063563
0.114294
0.037258
0.039495
0.053555
0.085124
0.076927
-0.008209
0.124113
0.108101
0.176718
0.008558
0.073657
0.109230
0.137738
-0.000664
0.109371
0.159231
0.058367
0.063228
0.064126
0.105076
0.009293
0.059034
