-0.036310
0.037787
0.010265
0.019130
0.017561
0.008546
0.013386
0.044063
0.100862
0.052576
0.067007
0.079299
-0.018110
0.049586
-0.021875
0.046439
-0.039169
0.046789
-0.010732
0.038167
0.061649
-0.025967
0.063231
0.079010
0.054925
0.042091
-0.008827
-0.016177
0.033461
0.073982
0.103486
0.036074
0.082098
0.066041
0.109332
0.087326
0.150164
0.040428
0.167428
0.172773
0.191907
0.219624
0.166042
0.146380
0.156632
0.169448
0.149226
0.094626
0.185098
0.175518
0.209356
0.243586
0.216534
0.131864
0.231820
0.146237
0.210155
0.123992
0.126444
0.074870
0.170096
0.150210
0.013294
0.070080
0.036587
0.093491
0.132381
0.014606
0.025303
0.051918
0.065438
0.018990
0.037231
0.029106
0.037810
-0.002209
0.041848
-0.058298
0.029115
0.064215
-0.007455
0.074414
0.052817
0.072037
0.010245
0.051166
-0.010741
0.034883
0.038910
0.268497
0.383036
0.786538
1.078149
1.345012
1.422253
1.235192
1.027332
0.705514
0.354065
0.126965
-0.110290
-0.272427
-0.117204
-0.195364
-0.042016
-0.093848
0.084442
0.096071
0.115964
0.117335
0.087755
0.132266
0.090695
0.008504
0.123259
0.078724
0.096934
0.061413
0.129482
0.021288
0.061369
0.101124
0.144094
0.123043
0.106613
0.180537
0.108150
0.116906
0.181374
0.257735
0.232583
0.216266
0.261928
0.340979
0.337355
0.302778
0.402487
0.355720
0.363275
0.418468
0.395555
0.398156
0.408740
0.437246
0.547584
0.414998
0.447811
0.490067
0.481746
0.557378
0.577728
0.554767
0.552981
0.597208
0.567631
0.551122
0.630774
0.555678
0.556184
0.537419
0.546774
0.495417
0.488854
0.464579
0.442703
0.420498
0.320871
0.326117
0.291446
0.356268
0.396036
0.244381
0.308557
0.249811
0.289361
0.263494
0.246188
0.172450
0.228929
0.234711
0.162458
0.101178
0.126941
0.144173
0.155534
0.137455
0.136284
0.144179
0.110215
0.084858
0.096707
0.169832
0.118183
0.043252
0.122692
0.080265
0.105155
0.058503
0.059921
0.095981
0.063429
0.096027
0.093319
0.037176
0.107578
0.088833
0.025913
0.119323
0.129526
0.096911
0.109301
0.032804
0.098296
0.045084
0.041721
-0.006053
0.095329
0.122672
0.091850
0.056003
0.116658
0.110909
0.046841
0.069023
0.159881
0.091942
0.069766
0.067685
0.029212
-0.016422
0.007363
0.082158
0.053071
0.110789
0.102376
0.100185
0.037261
0.146467
0.078954
0.113598
0.089845
0.077998
0.136916
0.089010
0.089894
0.112534
0.024230
0.084586
0.024611
0.154704
0.010630
0.182733
0.048220
0.001574
0.021007
0.056326
0.081402
0.110793
0.058980
0.089750
0.041890
0.110035
0.131974
0.116411
0.142011
0.068860
0.095897
0.084431
0.120312
0.059641
0.120100
0.190076
0.229032
0.161800
0.214045
0.250704
0.185764
0.306087
0.161292
0.237495
0.209575
0.260869
0.253397
0.227453
0.191743
0.307348
0.211324
0.239489
0.258521
0.241556
0.226302
0.122036
0.139378
0.145898
0.093193
0.104640
0.138476
0.144101
0.067150
0.174262
0.032109
0.039796
0.136617
0.164810
0.152747
0.036908
0.024184
0.087401
0.058869
0.078654
0.048195
0.078107
0.073165
0.043564
0.081343
0.059375
0.080610
0.068713
0.043836
0.096717
-0.022908
-0.048280
0.124554
0.216217
0.438355
0.726887
1.052902
1.255283
1.332935
1.379068
1.047292
0.839313
0.546835
0.273801
-0.080907
-0.265014
-0.226114
-0.173689
-0.129639
-0.111521
0.053947
0.046053
-0.011651
0.059781
0.033487
0.082619
0.009977
0.066014
0.018714
0.050222
0.023916
0.088413
0.076602
0.067132
0.054068
0.017428
0.051894
0.108193
0.202144
0.167431
0.078681
0.117966
0.159096
0.228526
0.147124
0.203879
0.240302
0.278323
0.273188
0.290106
0.240502
0.353321
0.295511
0.354071
0.376365
0.395432
0.378258
0.340409
0.429965
0.448794
0.401599
0.438924
0.391768
0.484611
0.529065
0.446509
0.532546
0.492821
0.518690
0.468359
0.458038
0.443058
0.518604
0.428612
0.401944
0.418653
0.432682
0.367196
0.370510
0.424382
0.257941
0.273786
0.333538
0.222585
0.233601
0.259816
0.297506
0.159788
0.165934
0.161279
0.100220
0.102710
0.125822
0.142224
0.173829
0.106169
0.122555
0.061444
0.056517
0.017479
0.086967
0.076493
-0.012090
-0.014103
-0.056305
-0.008151
-0.078637
-0.010150
-0.029406
-0.006633
-0.031846
-0.017438
0.033736
-0.008265
-0.012252
0.034661
-0.012558
-0.035459
0.033370
0.046321
-0.048373
-0.046962
0.013245
-0.078480
0.077400
-0.025833
0.045326
0.008808
-0.022134
-0.060546
-0.007905
-0.047353
-0.007406
0.018042
-0.014001
0.001836
-0.023733
-0.002617
-0.011447
0.026966
0.021483
-0.019979
-0.051578
0.001170
-0.087487
-0.011498
-0.049037
-0.120382
-0.019567
-0.010552
-0.019557
0.046039
0.049005
0.004146
-0.049461
0.049514
-0.061086
-0.024439
-0.009264
-0.049020
-0.007189
-0.035239
-0.079587
-0.009612
-0.013064
-0.026120
-0.079529
-0.032366
-0.066850
-0.000193
0.020544
-0.087272
-0.085335
-0.067652
0.015859
-0.031046
0.003041
0.029059
-0.020489
0.007513
0.067299
-0.003763
0.069114
0.029575
0.060649
0.069140
0.066062
0.178838
0.100749
0.101138
0.112232
0.093001
0.117284
0.079765
0.152477
0.182456
0.140101
0.168436
0.052132
0.054854
0.138751
0.092853
0.094356
0.052177
0.028530
0.031908
0.077359
0.015883
0.045204
0.062900
-0.069640
0.000905
0.055023
-0.012229
0.019239
0.008765
-0.001755
-0.070307
-0.061708
-0.022451
0.014135
0.050604
-0.022332
0.010264
-0.044458
-0.094226
-0.033069
-0.080442
-0.079626
-0.072118
0.002123
-0.024225
-0.067790
-0.089114
-0.062212
0.041829
-0.136028
0.007222
0.254648
0.496763
0.759005
1.108868
1.258372
1.298614
1.203641
0.840765
0.534251
0.232537
-0.141557
-0.228958
-0.291909
-0.281469
-0.232158
-0.169155
-0.090779
-0.065393
-0.063353
-0.056080
0.006560
-0.054975
-0.041085
-0.012960
0.048651
0.003732
-0.101120
-0.081661
-0.087369
0.018615
0.037646
-0.000490
0.027658
0.040659
0.017241
-0.023188
0.053558
0.118233
0.011588
0.093396
0.067501
0.156427
0.165450
0.213765
0.094489
0.205329
0.195478
0.252412
0.254239
0.323493
0.218636
0.316814
0.298832
0.397053
0.256312
0.372254
0.377805
0.402520
0.313057
0.441083
0.484883
0.430131
0.428235
0.476726
0.440639
0.435541
0.482873
0.429107
0.425944
0.389659
0.266530
0.390614
0.436530
0.376280
0.400220
0.391429
0.299578
0.291540
0.248663
0.204416
0.242048
0.163418
0.163353
0.189281
0.098557
0.162966
0.091659
0.118819
0.019623
0.118497
0.056477
0.029500
0.015097
0.012157
0.052554
0.038308
-0.014100
-0.042689
-0.010223
-0.038317
-0.018777
0.076610
0.025581
0.067391
-0.041264
-0.041520
0.001476
-0.001052
0.014307
-0.016910
-0.001539
0.028382
-0.006582
0.011850
0.011736
-0.041748
-0.084672
-0.033904
-0.016451
-0.059990
-0.063251
0.029895
-0.045213
0.011628
-0.046425
0.003168
-0.020145
-0.031737
-0.003479
-0.078866
0.000188
-0.067684
-0.039768
0.024114
-0.026993
0.042711
0.019287
0.018078
0.011130
0.033294
0.061764
0.058031
0.065763
0.007046
-0.024091
0.022974
0.014005
0.046455
0.013789
-0.017519
-0.058151
-0.026929
0.089691
0.074276
0.024059
0.021563
-0.016040
0.037866
0.032480
-0.001816
0.058210
-0.087652
-0.037676
0.016979
0.002776
0.089456
0.061552
-0.021030
0.028126
0.034461
0.065069
-0.073302
0.024299
0.087144
0.015406
0.074005
-0.016910
0.056157
0.104073
0.132428
0.103945
0.128774
0.095556
0.140501
0.091749
0.142841
0.161923
0.071425
0.179050
0.128667
0.288721
0.199565
0.168127
0.139855
0.177306
0.145603
0.153058
0.105614
0.121803
0.113922
0.064743
0.155674
0.177581
0.134912
0.187967
0.110693
0.093756
0.155010
0.147491
0.098723
0.098751
0.135639
0.075291
0.042878
0.014805
-0.000398
0.034404
0.104568
-0.002129
0.017867
0.109545
0.054689
0.014337
0.025982
-0.000937
-0.017318
0.050382
0.050738
0.003360
0.155219
-0.036076
0.002108
0.069357
0.130013
0.175261
0.423145
0.759725
1.065954
1.288633
1.372511
1.271691
1.028172
0.764228
0.326948
0.115938
-0.080049
-0.276016
-0.185332
-0.266364
-0.133984
-0.054514
-0.034907
0.043199
0.021186
0.044400
0.117681
0.050293
0.043738
0.045467
0.080797
0.127963
0.104639
0.118520
0.089543
0.168964
0.086424
0.134053
0.108906
0.100800
0.085270
0.121043
0.110242
0.241465
0.145844
0.224086
0.269494
0.191030
0.310580
0.187911
0.292303
0.236851
0.382634
0.346426
0.359677
0.439964
0.389687
0.423212
0.417745
0.542462
0.515462
0.452412
0.501441
0.454602
0.549223
0.519184
0.534342
0.580854
0.632481
0.558039
0.472785
0.513524
0.512678
0.479484
0.496857
0.487487
0.409289
0.466109
0.416895
0.460108
0.482975
0.353496
0.366378
0.413487
0.390683
0.318398
0.287062
0.286963
0.314670
0.307709
0.233883
0.233609
0.185509
0.235568
0.150471
0.182435
0.178155
0.165793
0.149408
0.186688
0.156307
0.147613
0.095906
0.152885
0.131776
0.115816
0.061145
0.089645
0.090125
0.090257
0.159556
0.121483
0.067459
0.095055
0.084021
0.072309
0.008670
0.111800
0.130193
0.106342
0.072272
-0.008059
0.096919
0.075110
0.051474
0.078031
0.019460
0.028625
0.122423
0.064284
0.100749
0.071006
0.105992
0.074699
0.039422
0.046913
0.147112
0.097506
0.116813
0.138356
0.046757
0.015603
0.045502
0.043432
0.099140
0.114549
0.088350
0.107702
0.130262
0.016237
0.053405
0.118574
0.037623
0.069053
0.073805
0.102838
0.017416
0.091911
0.084096
0.126900
0.107019
0.050460
0.131397
0.107062
0.048763
0.114195
0.099833
0.109992
0.136421
0.088330
0.193904
0.128443
0.121736
0.128766
0.087050
0.113065
-0.000785
0.124238
0.140739
0.058862
0.083851
0.082989
0.118778
0.161511
0.170107
0.209555
0.200153
0.166371
0.153452
0.161109
0.225900
0.282445
0.209367
0.233250
0.199190
0.322999
0.273831
0.334590
0.210722
0.287566
0.246018
0.239963
0.218848
0.195676
0.256395
0.217385
0.160475
0.163595
0.133477
0.183342
0.196940
0.099480
0.100305
0.050349
0.134079
0.126749
0.075415
0.117119
0.092027
0.043253
0.024768
0.137862
0.005556
0.029739
0.104840
0.071784
0.050563
0.052246
0.089370
0.068957
0.070984
0.089445
0.088067
0.111619
0.076710
0.020571
-0.072636
-0.024988
0.084343
0.184787
0.405160
0.623701
0.993341
1.245910
1.374893
1.320752
1.197002
1.031235
0.528058
0.169735
-0.013376
-0.133233
-0.231164
-0.163321
-0.111353
-0.012341
0.013542
0.053444
0.064623
0.056695
0.115672
0.062657
0.030426
0.002942
0.095758
0.123823
0.036432
0.096459
0.054116
0.066221
0.115571
0.034373
0.131013
0.137501
0.152149
0.161569
0.162097
0.163676
0.168930
0.200557
0.192034
0.191880
0.174118
0.247793
0.334207
0.246922
0.257208
0.339653
0.344420
0.377116
0.373294
0.349334
0.379229
0.425732
0.400776
0.465179
0.554628
0.466620
0.473663
0.471931
0.439432
0.514124
0.544307
0.512020
0.481617
0.522504
0.512031
0.522309
0.460257
0.548696
0.434088
0.434832
0.446209
0.456620
0.411811
0.352541
0.277056
0.324619
0.298425
0.275312
0.294465
0.309584
0.208282
0.249561
0.226560
0.211845
0.178859
0.141953
0.202543
0.234011
0.135015
0.086780
0.041258
0.039471
0.118275
0.036553
0.132825
0.059148
0.057846
0.070952
-0.022663
0.019308
0.048708
-0.056932
0.058058
0.006576
-0.002781
0.010962
-0.003967
-0.016373
0.061105
0.002058
-0.129859
0.008043
0.011155
-0.052040
0.006694
0.000776
-0.019002
-0.009591
0.026124
-0.004093
-0.002690
0.040832
0.030036
0.017631
0.054669
0.031008
-0.008336
-0.025418
-0.077331
-0.006611
0.045933
0.050173
-0.020662
-0.044749
-0.011516
0.020151
0.031155
-0.001259
0.049002
-0.026098
-0.036595
-0.036828
-0.018099
0.033240
0.063931
-0.037304
0.048156
-0.026657
-0.047994
-0.026320
-0.075182
-0.091044
-0.076888
-0.052739
0.011923
-0.050021
-0.000925
-0.074115
-0.025975
-0.083263
0.000510
0.020461
-0.088615
-0.065427
-0.069121
-0.032137
-0.049160
-0.043605
0.008669
-0.051792
-0.000359
-0.030737
0.012031
-0.020408
0.028347
0.054903
-0.017333
0.073289
0.014254
0.102470
0.133265
0.081658
0.108996
0.131617
0.011734
0.109256
0.125369
0.146858
0.123518
0.133240
0.128356
0.136112
0.181813
0.071858
0.089978
0.163867
0.073804
0.067662
0.075787
0.108975
0.005610
0.061457
-0.013296
0.044022
0.010073
0.057051
-0.055342
0.021800
-0.022232
0.007531
-0.074911
0.002951
-0.046471
0.013457
-0.007969
-0.086053
-0.055468
-0.102371
-0.046258
-0.052027
-0.042564
-0.022699
-0.082464
-0.068510
-0.061533
-0.030365
-0.087346
-0.114640
-0.029347
-0.129800
-0.066614
0.007219
0.198052
0.441370
0.726117
0.979899
1.309472
1.305016
1.144449
0.888150
0.513905
0.223980
-0.077022
-0.260685
-0.309299
-0.308239
-0.235340
-0.145493
-0.153701
-0.055107
-0.061750
-0.044384
-0.063245
0.000753
-0.021779
-0.114343
-0.034526
-0.001343
-0.059523
-0.027535
-0.028048
-0.137275
0.011101
-0.029693
-0.017996
-0.015196
-0.050136
0.031846
0.024037
-0.001693
0.100575
0.073388
0.038535
0.030811
0.101512
0.145826
0.147413
0.162574
0.155254
0.209712
0.180838
0.240413
0.220376
0.274093
0.326154
0.310730
0.330515
0.310169
0.299224
0.312249
0.365308
0.415190
0.351497
0.366987
0.346689
0.371440
0.422241
0.400913
0.397364
0.331570
0.393298
0.396505
0.437261
0.345175
0.365048
0.343174
0.273505
0.299303
0.157432
0.379141
0.237504
0.170753
0.166395
0.158171
0.098774
0.187505
0.128674
0.112623
0.044705
0.040009
0.042904
-0.002797
-0.027914
0.016307
0.013076
-0.073893
0.006654
-0.007579
0.008709
-0.048209
-0.080143
-0.068325
-0.108428
-0.061683
-0.114302
-0.055739
-0.072920
-0.001145
-0.008259
-0.036675
-0.130544
-0.041711
-0.009890
-0.090159
-0.068361
-0.066415
-0.067936
-0.101437
-0.135417
-0.069992
-0.010659
-0.074487
-0.041709
-0.011992
-0.057267
-0.005869
-0.029196
-0.026195
-0.060984
-0.018510
-0.096880
-0.101274
-0.123342
-0.069178
-0.129609
-0.016276
-0.070949
-0.051825
-0.158316
-0.101182
-0.082664
-0.096011
-0.109141
-0.082455
-0.033081
-0.070609
-0.045055
-0.030131
-0.068760
-0.043762
-0.086361
-0.079971
-0.099110
-0.007436
-0.086555
-0.064729
-0.090315
-0.113432
-0.088278
-0.025246
-0.057568
-0.044278
-0.034985
-0.035990
-0.020229
-0.059528
-0.122423
-0.000111
-0.017572
-0.039182
-0.053133
-0.072155
-0.071087
-0.015263
0.025370
-0.033381
0.047448
-0.052540
0.051840
-0.015107
-0.098867
0.053814
0.017701
-0.007429
0.005650
0.068762
0.142677
0.093045
-0.006062
0.151219
0.099778
0.083363
0.112918
0.199092
0.102636
0.088664
0.110809
0.207303
0.098892
0.034146
0.127042
-0.005933
0.078023
0.048971
0.067660
-0.006306
0.144450
-0.020941
0.002848
0.012776
-0.033438
0.093703
-0.012425
0.007583
-0.049301
0.014057
0.035750
0.008155
-0.000893
-0.039908
0.031939
-0.083530
-0.049925
-0.083376
-0.048590
-0.039391
-0.066416
-0.091389
-0.045222
-0.027511
-0.060116
-0.087403
-0.004587
-0.020851
-0.048190
0.020090
0.125842
0.345614
0.623163
1.028876
1.133803
1.331931
1.219318
0.965194
0.730815
0.321749
0.019404
-0.093971
-0.317772
-0.319737
-0.215412
-0.174005
-0.049621
-0.054479
-0.049952
-0.067063
-0.105126
-0.047271
0.065748
0.083536
0.027522
-0.027480
-0.005135
-0.020161
0.069016
-0.031508
-0.032220
0.069735
0.064078
-0.005912
0.100814
0.040461
0.073440
0.060605
0.164249
0.101740
0.176002
0.222994
0.144499
0.177139
0.110917
0.294095
0.169190
0.216532
0.271453
0.312375
0.263473
0.409781
0.341724
0.362799
0.376315
0.425275
0.374429
0.420056
0.466679
0.404877
0.433198
0.524747
0.490560
0.525757
0.407601
0.497344
0.541689
0.506605
0.415099
0.433773
0.446297
0.385434
0.396999
0.430737
0.497386
0.383856
0.364558
0.362828
0.325617
0.281942
0.235179
0.367413
0.241384
0.231155
0.264018
0.206060
0.114765
0.144696
0.130963
0.174959
0.137151
0.065207
0.049534
0.128880
0.091657
0.134865
0.045533
0.078418
0.125980
0.077498
0.038703
0.145210
0.038544
0.051577
0.012581
0.025900
-0.028361
0.070505
0.034610
-0.022744
0.031234
0.139211
0.001270
0.043852
-0.028655
-0.036707
0.054221
0.149062
-0.055502
0.008893
0.012585
0.041724
0.033409
0.064735
0.017152
0.044403
0.088739
0.063062
0.008617
0.036769
0.082133
-0.033741
0.030832
0.035742
0.044381
0.013186
0.038678
-0.020915
-0.008301
-0.018559
0.021286
0.049894
0.026523
0.005366
0.062178
0.089420
0.076343
-0.043745
0.010073
0.051515
0.129124
0.089232
0.084855
0.066164
-0.002675
0.004219
0.047555
0.048764
0.031276
-0.021258
0.069159
0.051088
0.066885
-0.014574
0.079901
0.024560
0.027863
-0.030707
0.108972
0.017391
-0.027770
0.022602
0.053255
0.128004
0.116543
0.052370
0.132079
0.135023
0.080222
0.057730
0.181581
0.187088
0.179816
0.242392
0.254324
0.148238
0.114322
0.149784
0.212566
0.194657
0.087922
0.207687
0.229200
0.222178
0.198246
0.191284
0.198420
0.229159
0.202329
0.192992
0.111580
0.097417
0.182940
0.183910
0.101713
0.105346
0.096858
0.038022
0.082356
0.103154
0.060207
0.112670
0.112455
0.047000
0.066627
0.067856
0.044703
-0.033053
0.013869
0.050778
-0.009898
0.028721
0.093081
0.008965
0.078088
0.018775
0.017335
0.055989
0.048471
-0.014578
0.066261
-0.004766
0.050402
0.135782
0.136158
0.312992
0.542989
0.935500
1.155760
1.409692
1.348953
1.156638
0.937945
0.574682
0.269820
-0.034591
-0.154620
-0.258746
-0.313687
-0.160176
-0.050670
0.051211
0.016218
0.027172
0.083231
0.093528
-0.016590
0.022482
0.057500
0.076180
0.023770
0.066266
0.083949
0.040454
0.052307
0.097649
0.109214
0.133038
0.117183
0.105029
0.165784
0.141109
0.203333
0.073641
0.134892
0.106636
0.269178
0.180635
0.302583
0.253434
0.205179
0.332681
0.290961
0.253250
0.330722
0.333979
0.433336
0.429443
0.351035
0.445261
0.419106
0.431993
0.481703
0.461164
0.419507
0.512970
0.510492
0.404640
0.515536
0.549997
0.503958
0.479975
0.480564
0.403769
0.521683
0.483686
0.464724
0.391027
0.424164
0.351147
0.389712
0.353880
0.358914
0.246769
0.250464
0.271924
0.276880
0.177571
0.207938
0.100234
0.187204
0.134450
0.216385
0.087865
0.067427
0.146684
0.117559
0.091652
0.133088
0.104301
0.011366
0.111270
0.088449
0.054893
-0.000122
0.029214
0.022269
0.023740
-0.002603
-0.011042
-0.022369
-0.027410
-0.032205
0.023834
-0.003162
-0.059265
-0.017922
-0.026949
-0.031773
0.012850
-0.023837
0.045929
0.041829
0.064514
0.044898
-0.032895
0.033946
-0.034117
-0.047895
0.027049
0.030938
-0.067330
0.017530
-0.012188
-0.032918
-0.058990
-0.020745
-0.034677
-0.056613
-0.014126
0.093115
0.029069
0.042501
-0.034711
-0.063721
-0.035761
-0.021640
-0.006991
-0.002740
-0.029458
0.008243
0.014731
-0.029479
-0.002095
0.025460
-0.024786
-0.019514
-0.003673
0.020296
-0.024811
-0.006951
-0.024867
-0.024784
-0.068964
-0.044161
-0.026890
-0.033876
0.020594
-0.057576
-0.101899
-0.042611
0.010666
-0.002800
0.007064
-0.068896
0.025511
0.009294
-0.010018
-0.016788
-0.016483
0.042009
-0.012381
-0.012915
0.024458
0.026764
0.093084
0.069565
0.034769
0.098376
0.159138
0.074984
0.105447
0.102812
0.128278
0.061614
0.126915
0.034078
0.061418
0.176396
0.055964
0.202138
0.116969
0.129286
0.082027
0.091619
0.055936
0.144985
0.129216
0.058405
0.042135
-0.000026
0.010634
-0.019647
-0.047444
-0.046622
-0.008022
0.008312
0.024322
-0.111454
-0.015257
-0.070327
0.049081
-0.081254
-0.074101
-0.051009
-0.062671
-0.033211
-0.071884
-0.052538
-0.089716
-0.037393
-0.102073
-0.121853
-0.082109
-0.098150
-0.126588
-0.084056
-0.122640
-0.018869
0.153267
0.368571
0.634005
0.938335
1.146458
1.254299
1.182276
0.802797
0.521281
0.259372
-0.044693
-0.238518
-0.356111
-0.326143
-0.300599
-0.190209
-0.136129
-0.068407
-0.011243
-0.040648
-0.085287
-0.075953
-0.012047
-0.007966
-0.062829
-0.005765
-0.034768
-0.071379
-0.045102
-0.079177
-0.021360
-0.097925
0.051549
-0.013088
0.031104
-0.003176
0.000961
0.078955
0.015345
0.034114
0.028463
0.059765
0.060118
0.160210
0.108378
0.118550
0.163322
0.222909
0.224389
0.249018
0.328233
0.332447
0.295371
0.280610
0.382158
0.255704
0.353008
0.333147
0.329110
0.383079
0.363784
0.336228
0.377997
0.346040
0.387278
0.403281
0.395790
0.318519
0.438116
0.303392
0.320361
0.363997
0.335451
0.319859
0.376929
0.275061
0.273126
0.157685
0.184446
0.191557
0.160488
0.126861
0.098799
0.063763
0.084154
0.114305
0.053984
0.050312
0.040805
-0.017993
-0.087444
0.023756
-0.004904
-0.049061
-0.060491
-0.029736
-0.029478
-0.049250
-0.034639
-0.044420
-0.082659
-0.048583
-0.017727
-0.013105
-0.042254
-0.076462
-0.137809
-0.028330
-0.105648
-0.110857
-0.157134
-0.093490
-0.057697
-0.022835
-0.114128
-0.103292
0.011663
-0.135344
-0.121149
-0.038649
-0.098243
-0.144758
-0.097797
-0.058184
-0.031379
-0.133987
-0.109772
-0.078411
-0.096405
-0.094278
-0.078967
-0.100148
-0.090504
-0.142299
-0.046884
-0.115399
-0.132836
-0.173923
-0.044654
-0.072933
-0.178271
-0.094612
-0.155028
-0.059627
-0.022845
-0.032784
-0.068269
-0.075891
-0.059388
-0.110070
-0.071717
-0.041967
-0.103011
-0.060115
-0.164515
-0.135196
-0.058370
-0.077509
-0.107530
-0.104038
-0.050154
-0.037766
-0.074636
-0.097602
-0.003160
-0.034845
-0.072378
-0.043814
-0.099895
-0.025217
-0.099674
-0.029748
-0.017364
-0.021190
-0.037120
0.044344
-0.057197
0.002076
-0.119978
-0.032592
0.102256
-0.007781
-0.017717
0.031023
0.085302
-0.031996
0.105762
0.053039
0.087274
0.072410
0.135939
0.107113
0.062869
0.176397
0.173254
0.090061
0.083916
0.130992
0.035017
0.028944
0.012892
0.074466
0.050037
0.040291
-0.014969
0.003694
-0.015799
0.046407
0.075075
-0.026865
-0.101162
-0.019675
-0.073132
-0.086411
-0.078064
-0.012899
-0.083045
-0.063723
0.005390
-0.015876
-0.156035
-0.063057
-0.049099
-0.049483
-0.075626
-0.011467
-0.053475
-0.061079
-0.081787
-0.083056
-0.097254
-0.123842
-0.075143
-0.047013
0.028919
0.230287
0.550189
0.815300
1.139763
1.214361
1.116008
1.001388
0.726863
0.350918
0.124279
-0.137550
-0.282129
-0.332334
-0.251001
-0.189410
-0.042438
-0.040915
-0.061409
-0.042646
-0.095338
-0.061376
-0.019452
0.057922
-0.075953
-0.076274
-0.015080
-0.028287
0.050299
0.074655
-0.017571
0.005202
0.015288
0.011353
-0.011565
0.147353
0.076133
-0.021952
0.043012
0.054897
0.064245
0.080466
0.071007
0.149600
0.136545
0.170195
0.203905
0.241900
0.219683
0.242875
0.319703
0.322985
0.314504
0.324848
0.355362
0.425993
0.414524
0.448341
0.418963
0.436954
0.364141
0.392258
0.449030
0.502582
0.415301
0.446881
0.438366
0.402165
0.463604
0.365574
0.374401
0.404264
0.347056
0.319857
0.353362
0.337807
0.344233
0.279038
0.280450
0.296470
0.212829
0.291395
0.180282
0.150872
0.202443
0.175699
0.113895
0.131895
0.058446
0.074700
0.073091
0.161402
0.032885
0.116542
0.109823
0.073597
0.039149
-0.020328
0.096027
0.033729
0.058059
0.062078
-0.050838
-0.004289
0.001802
-0.106916
0.019492
-0.051294
-0.016912
0.119732
0.007099
0.048591
0.036167
-0.000954
0.004097
0.016312
0.062003
0.031019
0.040568
0.011208
0.053568
0.047914
0.083165
0.001722
-0.004797
0.092969
0.033594
0.010533
0.026500
0.084747
0.037979
0.040944
-0.035778
0.089720
-0.065227
-0.008611
0.017130
0.030261
0.039530
0.018012
-0.015446
-0.025535
-0.005335
-0.041959
0.042082
0.047443
0.028101
0.055863
0.051340
0.046103
0.100455
0.042998
0.084351
0.023410
0.077452
-0.053121
-0.010702
0.047728
0.053347
0.046157
0.034665
0.041486
0.018335
0.056328
-0.024402
0.014288
0.050263
0.047601
-0.005058
0.044800
0.042121
0.090127
0.058392
0.115139
0.049624
0.168551
0.070017
0.091555
0.135923
0.052670
0.077801
0.113998
0.128337
0.167885
0.223926
0.212741
0.238569
0.173457
0.161501
0.231837
0.290199
0.280702
0.241611
0.226427
0.241637
0.183190
0.217601
0.253326
0.233384
0.160509
0.188598
0.208894
0.144108
0.162761
0.144438
0.098104
0.132081
0.225719
0.042416
0.109494
0.090579
0.102068
0.148446
0.185620
0.090395
0.033693
0.114099
0.014784
0.076729
0.053832
0.107217
0.013386
0.037033
-0.019493
0.081247
0.057167
0.018759
0.103993
0.212361
0.080854
0.018419
-0.004280
0.066435
0.018439
0.045182
0.330340
0.592620
0.873729
1.153925
1.347272
1.500000
1.255776
0.920338
0.677955
0.310104
0.002467
-0.141227
-0.206044
-0.182979
-0.160289
-0.039316
0.082650
0.002374
0.079498
0.105754
0.093208
0.074078
0.070916
0.113818
0.092053
0.152704
0.074897
0.033864
0.088268
0.076541
0.076111
0.073490
0.166637
0.178212
0.106701
0.202235
0.211754
0.223060
0.239421
0.199171
0.196512
0.233298
0.198144
0.223645
0.290866
0.245454
0.335389
0.309768
0.333707
0.381093
0.381617
0.445529
0.340433
0.504754
0.435303
0.493347
0.553446
0.455862
0.502328
0.535029
0.530810
0.495388
0.523868
0.515962
0.507936
0.517109
0.536542
