0.013311
0.033066
0.047076
0.012426
0.045335
0.040287
0.001346
-0.017443
-0.025852
-0.018557
-0.006127
0.006016
-0.006532
0.046842
0.070384
-0.001205
0.048878
0.063776
0.022615
0.057851
0.037962
0.098591
0.141562
0.002593
0.080646
0.172504
0.085708
0.117085
0.130360
0.235874
0.069583
0.163605
0.194188
0.179654
0.092894
0.184391
0.263061
0.122387
0.272413
0.211488
0.254411
0.207205
0.185140
0.152529
0.192792
0.152623
0.134245
0.072999
0.165000
0.125042
0.093738
0.128128
0.001343
0.100306
0.116707
-0.036400
0.156513
0.041454
0.094621
0.035015
0.075512
0.070384
0.010730
0.035873
-0.016916
0.031994
0.071159
0.049054
0.129351
0.222760
0.455661
0.788161
1.103339
1.351272
1.412302
1.360738
1.061065
0.800833
0.460858
0.111089
-0.055682
-0.143005
-0.016958
-0.056308
-0.012546
0.030921
0.147001
0.061709
-0.031915
0.127927
0.063409
0.212367
0.168303
0.179931
0.175928
0.236742
0.154865
0.171441
0.236036
0.286120
0.293073
0.217783
0.373858
0.292622
0.339265
0.352465
0.427436
0.442931
0.410946
0.441068
0.407056
0.540971
0.482018
0.603731
0.538043
0.544055
0.557133
0.569600
0.570743
0.604083
0.653267
0.642202
0.623104
0.648086
0.618160
0.550262
0.541398
0.587305
0.494997
0.451529
0.492200
0.503049
0.442333
0.450401
0.408470
0.325344
0.359239
0.382444
0.352370
0.253289
0.335477
0.265463
0.287271
0.221668
0.137022
0.163894
0.209942
0.121666
0.248858
0.136984
0.114363
0.148703
0.185354
0.147547
0.094102
0.156848
0.076251
0.095373
0.076369
0.144651
0.153341
0.083463
0.105365
0.023020
0.125149
0.025620
0.056021
0.051360
0.091030
0.056163
-0.012136
0.114755
0.093167
0.085037
0.057930
0.109076
0.021855
0.200707
0.128776
0.042888
0.164215
0.008413
0.064333
0.123594
0.029390
0.045732
0.135581
0.086689
0.151379
0.200310
0.172631
0.124898
0.147204
0.073821
0.081045
0.074652
0.181445
0.073620
0.059583
0.116485
0.053383
0.021904
0.117091
0.081934
0.144289
0.145962
0.140542
0.136098
0.175707
0.184850
0.083375
0.233540
0.190541
0.238737
0.270077
0.201779
0.147754
0.259234
0.246784
0.255115
0.219292
0.250256
0.179615
0.345385
0.211984
0.301144
0.294407
0.233831
0.280148
0.250071
0.173823
0.222405
0.231288
0.205407
0.173584
0.104011
0.127909
0.134477
0.125044
0.148413
0.076145
0.082252
0.168353
0.150609
0.069031
0.123965
0.118052
0.072219
-0.017573
0.120843
0.163799
0.106435
0.050913
0.058717
0.183618
0.374421
0.703712
1.089878
1.317423
1.500000
1.382542
1.218460
0.932532
0.538150
0.156336
0.008705
-0.094509
-0.077373
-0.044285
0.053414
0.036059
0.167899
0.129133
0.050977
0.055085
0.153105
0.176654
0.144273
0.125241
0.214129
0.102707
0.197573
0.260091
0.248610
0.287780
0.249489
0.224005
0.273469
0.284337
0.378719
0.402529
0.329870
0.379026
0.395026
0.453040
0.454383
0.397524
0.450381
0.500884
0.483657
0.598648
0.491973
0.580554
0.541188
0.555946
0.548027
0.609560
0.618977
0.563909
0.589996
0.502842
0.501552
0.559428
0.604223
0.470745
0.524002
0.491409
0.423660
0.464097
0.410008
0.329221
0.354503
0.392668
0.269868
0.330947
0.275898
0.182651
0.200350
0.225946
0.166854
0.215736
0.125825
0.189913
0.108589
0.121315
0.165900
0.136753
0.161327
0.026043
0.065204
0.150925
0.060536
0.101331
0.095171
0.116428
0.096531
0.079147
0.032937
0.104701
0.036801
0.018354
0.034383
0.029977
0.055629
0.017774
0.113590
0.006114
0.066551
0.088326
-0.036584
0.021139
0.050534
-0.013552
0.104413
-0.051268
0.030548
0.027196
-0.008486
-0.069967
-0.028931
0.016367
0.078256
-0.016821
-0.007823
-0.012699
-0.008088
-0.075772
0.010119
0.011052
0.071825
0.084661
0.063752
0.052344
0.048264
0.092221
0.044699
0.090197
0.018842
0.064396
0.077208
0.025244
0.037728
0.015494
0.066079
0.044913
0.162747
0.058034
0.028532
0.046146
0.188862
0.054243
0.142106
0.186572
0.089684
0.162201
0.252512
0.215734
0.225241
0.207209
0.205113
0.196308
0.179390
0.123305
0.106398
0.160037
0.111343
0.100292
0.083028
0.080538
0.105977
0.134542
0.055967
-0.039909
0.055715
0.126938
0.076488
0.067271
0.103925
0.033463
0.027213
-0.010559
0.052060
0.071451
-0.022211
-0.061164
-0.054254
-0.011834
0.002698
-0.034545
0.105637
0.251566
0.584501
0.814939
1.113175
1.288698
1.313483
1.137687
0.821531
0.509724
0.132663
0.018017
-0.168230
-0.105287
-0.192358
-0.068978
-0.006185
0.017242
-0.017436
0.006206
0.086134
0.096904
-0.021106
0.125299
-0.063275
0.130856
0.167114
0.132959
0.169769
0.160544
0.113196
0.136298
0.176296
0.171432
0.185081
0.246075
0.261991
0.315949
0.328088
0.363376
0.405676
0.327155
0.379211
0.384616
0.423042
0.450076
0.533765
0.439131
0.448317
0.536081
0.479153
0.380999
0.469436
0.466918
0.432059
0.475818
0.505540
0.509661
0.451296
0.447703
0.379987
0.377415
0.356022
0.329901
0.368116
0.315447
0.296467
0.285247
0.223609
0.248972
0.171999
0.140182
0.176368
0.077015
0.086219
0.178450
0.098662
0.024362
0.108837
0.028832
0.070366
0.050378
0.047223
0.039577
-0.033146
0.049866
-0.064360
0.060248
0.024210
-0.115904
0.091157
-0.021374
-0.010516
0.054000
-0.040990
0.012578
-0.059675
-0.021735
-0.041071
-0.101584
-0.176638
-0.103720
-0.061173
-0.060130
-0.035503
0.031523
-0.057642
-0.063072
-0.017808
-0.123819
-0.075133
-0.016810
-0.074570
-0.052798
-0.078616
-0.059764
-0.038494
0.021092
0.030219
0.028848
-0.055651
-0.026157
-0.038054
-0.075884
-0.099940
-0.046946
-0.051858
-0.038540
-0.031414
-0.035335
-0.078380
-0.072211
-0.040789
-0.006093
-0.078037
-0.057394
0.006746
-0.053832
0.029387
0.000020
-0.012356
0.028887
-0.006985
0.024430
0.048241
0.109534
0.112861
0.045367
0.075377
0.108118
0.187709
0.117971
0.094247
0.145059
0.136359
0.160087
0.064569
0.179704
0.153106
0.089609
0.105193
0.081206
0.096857
0.043944
0.060703
0.048710
0.113115
0.034995
0.061439
0.001229
-0.015762
0.017397
-0.007512
0.071927
-0.021596
-0.047492
-0.046176
0.046807
0.002652
0.003950
-0.106042
-0.053109
-0.112928
-0.039914
-0.022911
0.057277
0.233056
0.423153
0.747839
1.057620
1.257207
1.326438
1.214420
0.834330
0.527472
0.184052
-0.035264
-0.263690
-0.279043
-0.180599
-0.078879
-0.066541
-0.101856
-0.030915
-0.029006
0.035304
-0.006932
0.020771
0.073521
-0.004979
0.077919
0.073068
0.154149
0.094983
0.182132
0.138737
0.245781
0.264220
0.217140
0.266129
0.323654
0.320874
0.237356
0.322934
0.297186
0.419557
0.393456
0.386887
0.374590
0.373673
0.485746
0.481285
0.487383
0.517246
0.501965
0.459989
0.384111
0.388833
0.494863
0.522183
0.408743
0.467234
0.492696
0.473853
0.436828
0.327263
0.361605
0.385132
0.412761
0.361891
0.323796
0.289582
0.304367
0.238212
0.256949
0.165386
0.268308
0.244152
0.204043
0.149300
0.138695
0.091580
0.213480
0.070344
0.051181
0.150037
0.039365
0.101352
0.118573
0.128656
0.042071
0.122290
0.014973
0.038609
0.040320
0.128712
0.082305
0.045083
-0.016800
0.071292
-0.065017
-0.072792
-0.000140
0.009906
-0.043327
0.053956
0.037322
0.000957
-0.083827
0.027661
0.061897
-0.033466
-0.004084
0.074264
-0.014261
-0.016666
-0.004654
-0.066651
0.027258
0.027935
0.073038
0.063117
0.094993
0.016003
0.016051
-0.007379
0.033243
0.007531
-0.013574
-0.041059
0.005080
0.050213
0.129941
0.030968
0.068241
0.006026
0.055115
-0.016625
0.004485
-0.005390
0.021892
0.141235
0.039595
0.085074
0.080039
0.104478
0.194943
0.130778
0.174246
0.171022
0.231897
0.172671
0.191455
0.149668
0.196697
0.132828
0.103454
0.242419
0.081646
0.212485
0.201225
0.250984
0.233101
0.144871
0.178864
0.179921
0.169068
0.207108
0.162141
0.222204
0.211987
0.198179
0.124088
0.165165
0.172351
0.024487
0.141623
0.118052
0.062863
0.080534
-0.042176
0.103618
0.047241
0.115825
0.105631
0.071716
0.056958
0.004408
0.117481
-0.007273
0.120801
0.213555
0.542821
0.796136
1.104141
1.338209
1.442965
1.218310
1.040974
0.759543
0.345138
0.044891
-0.084777
-0.135847
-0.095097
-0.076273
0.064385
0.100301
0.156060
-0.003558
0.179553
0.108314
0.120097
0.193065
0.252394
0.201708
0.170368
0.241406
0.233077
0.199172
0.230175
0.207579
0.233890
0.226778
0.294320
0.347758
0.412309
0.368302
0.417725
0.423545
0.475132
0.412087
0.499175
0.479761
0.491395
0.521213
0.573862
0.552209
0.579839
0.645519
0.605762
0.642265
0.617361
0.617416
0.595211
0.644551
0.536143
0.600908
0.539751
0.585169
0.486318
0.460994
0.500661
0.456822
0.463776
0.500488
0.395433
0.377831
0.449903
0.416411
0.313377
0.409891
0.320359
0.310377
0.250848
0.177091
0.227767
0.238857
0.220745
0.196131
0.293964
0.208933
0.114793
0.151785
0.230154
0.195518
0.017211
0.146269
0.191285
0.103211
0.149151
0.105383
0.092455
0.115342
0.112350
0.165788
0.080839
0.129041
0.113718
0.043800
0.075799
0.079964
0.104386
0.104086
0.036275
0.134522
0.149013
0.158721
0.087686
0.109158
0.079979
0.103725
0.123371
0.043563
0.149129
0.058873
0.111617
0.100879
0.143062
0.096387
0.118209
0.180133
0.139098
0.100801
0.040609
0.029265
0.100996
0.060237
0.157176
0.110921
0.085493
0.083347
0.182844
0.174695
0.109784
0.152111
0.097291
0.083258
0.144636
0.121833
0.171658
0.134463
0.089093
0.252016
0.149054
0.223873
0.242473
0.281258
0.255891
0.205975
0.289878
0.197492
0.259890
0.273394
0.237313
0.231145
0.289703
0.254670
0.259421
0.172463
0.187669
0.274485
0.193112
0.216776
0.270992
0.143959
0.181656
0.093829
0.175257
0.245060
0.175404
0.186464
0.149177
0.105535
0.106923
0.030170
0.045533
0.139646
0.107525
0.061478
0.097740
0.069542
0.058185
0.109782
0.029975
0.171100
0.238723
0.469502
0.792973
1.105163
1.396623
1.384935
1.409066
1.166091
0.837437
0.293210
0.078234
-0.058882
-0.079844
-0.162552
0.080671
0.072749
0.172493
0.217116
0.118909
0.180484
0.161110
0.178733
0.167317
0.122315
0.172757
0.130861
0.243930
0.270815
0.237682
0.333549
0.280727
0.269363
0.274777
0.256616
0.344987
0.406161
0.488969
0.360098
0.471497
0.447901
0.589127
0.489455
0.528929
0.473335
0.490796
0.550946
0.505158
0.584262
0.577774
0.566825
0.613353
0.638684
0.563141
0.618935
0.577379
0.543665
0.563970
0.592721
0.576344
0.459901
0.530890
0.409936
0.508674
0.474486
0.418714
0.454905
0.341917
0.327972
0.336085
0.314549
0.330226
0.190930
0.257422
0.248199
0.172810
0.057673
0.176186
0.161884
0.134489
0.124375
0.153673
0.129086
0.079069
0.066568
0.084183
0.093017
0.049766
0.062963
0.084858
0.029904
0.112792
0.014246
0.108708
0.073353
0.097957
0.006095
0.017336
0.033140
0.036211
-0.016620
0.054525
0.096650
0.065718
-0.006627
0.026220
-0.006965
0.073285
0.067164
0.029389
-0.023277
0.011489
0.052320
0.035237
0.044594
0.088612
0.084636
-0.010317
0.002153
-0.010746
0.003412
0.063268
0.121951
0.030540
0.048354
-0.019408
0.055252
-0.012852
0.052569
0.051556
-0.004611
-0.086575
0.018731
-0.000491
0.039059
0.044740
0.082349
0.106680
0.132558
0.071297
0.088709
0.080747
0.101000
0.160221
0.146648
0.119198
0.150863
0.215824
0.175603
0.128495
0.185522
0.102298
0.129560
0.210357
0.110645
0.187979
0.192639
0.155147
0.141826
0.102155
0.077915
0.147511
0.071152
0.181630
0.156258
0.143838
0.082839
0.129178
0.044217
0.112322
0.004772
0.016695
0.022624
-0.021905
-0.105134
0.121153
-0.007672
-0.051030
-0.140146
-0.003190
-0.036818
0.024895
-0.036618
0.014617
-0.037349
0.077760
0.071654
0.365508
0.607937
0.983651
1.271598
1.327467
1.329062
1.099717
0.812757
0.337725
0.064794
-0.138276
-0.275797
-0.241756
-0.069438
-0.117575
0.029508
-0.061967
0.004306
0.040624
0.100727
-0.020853
-0.009184
0.049958
0.026738
0.098883
0.047049
0.064627
0.088306
0.111819
0.146979
0.151152
0.202850
0.266153
0.289712
0.238581
0.272018
0.267704
0.285908
0.354048
0.355781
0.368882
0.428716
0.432315
0.397943
0.407521
0.404121
0.419853
0.447470
0.437046
0.471321
0.467034
0.439899
0.504445
0.482750
0.469376
0.460457
0.429781
0.389720
0.433240
0.361282
0.390676
0.374897
0.285471
0.298882
0.304721
0.270462
0.204256
0.239081
0.241760
0.139285
0.094195
0.109684
0.132208
0.100635
0.072287
0.064073
0.023845
0.062504
0.101867
0.000278
0.061980
0.034201
0.037303
-0.028005
-0.031972
-0.060752
0.057316
-0.014952
-0.038575
-0.055335
0.015855
-0.103958
0.019148
-0.128222
-0.076246
-0.120206
0.005596
-0.062016
-0.076391
0.008509
-0.030772
0.015589
-0.085041
0.002845
-0.060101
-0.065110
-0.089198
-0.051451
-0.000531
-0.040687
-0.077696
-0.082703
-0.096858
-0.155193
-0.054241
-0.077033
-0.112535
-0.069325
-0.073234
-0.034020
-0.052940
-0.021119
-0.030782
-0.077847
-0.047736
-0.033963
-0.016424
-0.042362
-0.057036
-0.047635
-0.151409
-0.017222
0.001581
-0.059268
-0.071082
0.050635
-0.026112
0.066430
0.079970
-0.078575
-0.100647
0.051256
-0.004007
0.076302
0.110036
-0.006693
0.219670
0.051746
-0.029033
0.086965
0.120090
0.105061
0.101710
0.052517
0.036048
-0.042012
0.074349
0.110940
0.064604
0.046730
0.043415
0.022150
0.090328
0.067418
-0.018017
-0.068935
-0.009396
-0.034472
-0.086953
-0.040079
-0.008604
-0.073792
-0.035061
-0.069081
-0.135243
-0.110204
-0.080169
-0.089887
-0.101514
-0.036055
-0.073256
-0.063971
-0.101268
0.007013
-0.032874
0.181944
0.544132
0.788476
1.141437
1.274298
1.287044
1.049708
0.741739
0.324782
0.056502
-0.133122
-0.258852
-0.290273
-0.169723
-0.113856
-0.038806
0.011076
-0.050405
-0.080568
-0.059708
-0.017600
-0.050000
0.005933
-0.023673
0.084837
0.082283
0.071770
0.053712
0.137557
0.092763
0.108324
0.137195
0.118047
0.152585
0.230893
0.213700
0.289199
0.292572
0.245079
0.266369
0.334285
0.378224
0.363395
0.423945
0.440811
0.394626
0.411961
0.432551
0.398477
0.473333
0.432101
0.401235
0.469710
0.292699
0.435621
0.407219
0.411832
0.432420
0.398902
0.394516
0.378496
0.343111
0.258971
0.279150
0.215516
0.294249
0.135425
0.204763
0.147062
0.200265
0.210086
0.166854
0.112891
0.185406
0.073840
0.036714
0.068962
0.053294
0.079813
0.025711
0.003094
0.036928
-0.026490
-0.031830
-0.035120
-0.069096
-0.030665
-0.061723
0.021895
0.018292
0.016464
-0.005219
-0.045721
0.062198
-0.008799
-0.011909
-0.085185
0.033354
-0.023553
-0.081132
-0.048373
-0.030368
-0.045083
-0.057926
-0.100166
-0.007823
-0.087455
0.021693
0.052138
-0.046681
-0.039394
-0.054056
-0.039927
-0.029725
0.026600
-0.026148
-0.031380
-0.015542
-0.098394
0.001693
-0.031264
-0.053387
-0.012439
0.035487
-0.016652
0.042355
-0.056115
-0.077322
0.032971
0.019610
-0.055491
-0.001874
-0.013359
-0.000692
0.077455
0.041488
-0.001089
0.083149
0.133285
0.131368
0.093192
-0.030900
0.062674
0.083585
0.154759
0.125212
0.206037
0.183303
0.135111
0.171847
0.174608
0.130858
0.170180
0.211611
0.121848
0.120277
0.166931
0.219466
0.135816
0.119005
0.164737
0.132024
0.083833
0.067428
0.059490
0.151862
0.091727
0.109974
0.020887
0.022447
0.027192
0.040428
-0.003676
-0.076687
0.059684
0.011777
0.003594
0.025329
0.018661
-0.002956
0.008735
-0.055996
-0.048889
0.005064
-0.000029
0.222300
0.535441
0.883665
1.133745
1.331966
1.383016
1.280051
0.925673
0.479992
0.205955
-0.030666
-0.145300
-0.213223
-0.124023
-0.083290
0.093584
-0.028185
0.092606
0.077944
0.054905
0.133824
0.133277
0.111942
0.105596
0.201188
0.146913
0.184482
0.149345
0.102761
0.164827
0.222890
0.186833
0.273102
0.221444
0.349715
0.290791
0.375160
0.341808
0.314844
0.445790
0.388989
0.506593
0.393005
0.503908
0.508739
0.500342
0.510258
0.553327
0.543456
0.547938
0.516125
0.408071
0.583664
0.609214
0.538440
0.636022
0.508179
0.513897
0.436696
0.500586
0.488276
0.373544
0.372251
0.441374
0.430972
0.351326
0.330295
0.309569
0.372071
0.231234
0.225925
0.258302
0.234793
0.205026
0.167444
0.133866
0.191661
0.178161
0.166826
0.134742
0.114951
0.078778
0.032764
0.113234
0.103821
0.118720
0.041161
-0.001160
0.144908
0.138316
0.025469
0.128839
0.103735
-0.006972
0.102993
-0.017059
0.059609
-0.006092
0.000155
-0.018093
0.016768
0.007817
0.022094
0.004870
0.086975
0.019880
0.040444
-0.025793
0.027870
0.099331
-0.076453
0.062883
0.100604
0.108540
0.001619
0.066759
0.050723
0.073555
0.054594
0.087303
0.107221
0.052791
0.091859
0.078364
-0.026156
0.126608
0.102768
0.020199
0.082509
0.079319
0.069171
0.117773
0.073246
0.059291
0.003780
0.138288
0.176038
0.139107
0.109672
0.063377
0.145224
0.062923
0.135613
0.156320
0.160176
0.185029
0.184410
0.279493
0.213538
0.240478
0.283608
0.234915
0.240866
0.261035
0.182320
0.179394
0.171146
0.155188
0.198394
0.202340
0.143015
0.081150
0.200236
0.103776
0.100508
0.108016
0.113966
0.086071
0.122116
0.116517
0.080209
-0.024919
0.075720
0.071931
0.144152
0.053023
0.081826
0.038013
0.072377
0.039094
0.104646
0.049665
0.063351
0.093399
0.142475
0.308251
0.509729
0.846177
1.196592
1.378364
1.460374
1.264841
0.926719
0.653589
0.280085
-0.025846
-0.173312
-0.165859
-0.147809
-0.094315
0.057148
0.091906
0.105259
0.059431
0.100081
0.045767
0.135180
0.101493
0.134392
0.193747
0.163847
0.190814
0.051055
0.124890
0.203441
0.188263
0.222530
0.206845
0.213701
0.385745
0.290284
0.390338
0.375317
0.290412
0.384824
0.388951
0.440427
0.422715
0.523421
0.495369
0.515951
0.412712
0.469532
0.606093
0.583074
0.590439
0.485351
0.585599
0.515570
0.564113
0.550454
0.474721
0.482873
0.499988
0.524766
0.429461
0.427795
0.410962
0.375265
0.326500
0.337206
0.355985
0.296046
0.279233
0.266399
0.261259
0.237596
0.126035
0.232905
0.226577
0.149986
0.094196
0.063703
0.087993
0.219549
0.116245
0.065296
0.112506
0.060836
0.018613
-0.057060
0.140413
0.099391
0.055856
0.066163
0.067653
-0.031177
0.004803
-0.021577
0.016371
-0.058883
-0.002998
0.030489
0.063728
0.021706
-0.058335
-0.050059
0.021688
0.037272
-0.024313
0.037124
-0.001752
-0.040118
0.047129
0.036067
-0.024599
0.008386
-0.043704
-0.001465
0.045511
-0.047873
-0.118827
-0.041472
-0.035432
0.026451
-0.060129
0.003305
-0.072759
-0.068955
-0.040049
0.108970
0.033351
0.008240
-0.054085
0.079883
0.020909
-0.028893
-0.013449
-0.032702
0.001567
-0.002447
-0.103141
0.047789
0.015559
0.067177
0.084377
0.079533
0.038833
0.042671
0.188095
0.149650
0.046114
0.154658
0.127267
0.080947
0.225418
0.175019
0.259566
0.212165
0.161788
0.092598
0.223961
0.129468
0.161899
0.171957
0.125237
0.057386
0.032899
-0.006894
0.069704
0.063873
0.092080
0.021695
0.107715
-0.057614
-0.049981
0.029045
0.022162
0.006028
0.017596
-0.044372
0.000832
-0.058451
-0.091816
0.015369
-0.061868
-0.026407
-0.057744
0.075066
-0.009353
0.150205
0.448940
0.647474
1.031034
1.234951
1.226700
1.196612
0.990638
0.634022
0.206161
0.010624
-0.200847
-0.164704
-0.194926
-0.104912
-0.130497
-0.021658
-0.043341
0.072102
-0.069802
-0.094732
-0.033569
-0.002033
0.025383
0.029621
0.010478
0.047993
0.001290
0.121087
0.107607
0.111706
0.129238
0.211919
0.261716
0.202461
0.238825
0.153793
0.322162
0.334883
0.356798
0.372381
0.309568
0.378627
0.325567
0.354622
0.399585
0.457240
0.446846
0.420777
0.474008
0.442728
0.363663
0.447813
0.427335
0.405705
0.361178
0.460457
0.436325
0.372374
0.346925
0.336818
0.361216
0.385093
0.223382
0.297376
0.263655
0.236570
0.282166
0.080376
0.150904
0.101324
0.139110
0.166910
0.069457
0.096827
0.117673
0.024830
0.026719
-0.007871
-0.003411
-0.050966
0.042812
-0.063210
-0.008670
-0.009253
-0.075704
-0.015871
-0.096613
-0.051708
-0.120729
-0.081412
-0.085653
-0.061253
0.029649
-0.125506
-0.053459
-0.100378
-0.001893
-0.078296
-0.007904
-0.033577
-0.071778
-0.020680
-0.067396
-0.107923
-0.001322
-0.019668
-0.078825
-0.142747
-0.062696
-0.122744
-0.104649
-0.119216
-0.067357
-0.051269
-0.037739
-0.105829
-0.163235
-0.081485
-0.077150
0.037265
-0.044210
-0.071285
-0.129616
-0.059675
-0.176874
-0.163082
-0.052214
-0.099448
-0.049253
-0.029607
-0.047658
-0.075629
-0.050319
-0.073143
-0.093879
-0.137246
-0.141123
-0.123216
-0.032361
-0.013800
-0.043873
0.006456
0.094152
0.085435
0.053522
0.086611
0.108700
0.000594
0.094456
0.071345
0.048136
0.108003
0.003411
0.001741
0.029266
0.048436
0.113168
0.090618
0.013284
0.020849
0.019630
0.048655
0.117124
0.044652
-0.013403
-0.069174
-0.064395
-0.025278
-0.007233
-0.082233
-0.112668
-0.080795
-0.067041
-0.059065
-0.076141
-0.104074
-0.051828
-0.073649
-0.126961
-0.112378
-0.064652
-0.109187
-0.039078
0.009941
0.111718
0.325589
0.545808
0.844103
1.169612
1.308487
1.183207
0.942372
0.665866
0.295486
-0.067360
-0.275366
-0.304892
-0.281525
-0.204739
-0.149164
-0.061960
-0.041531
-0.020986
-0.079475
-0.009940
0.000536
-0.047629
0.042046
0.047496
-0.098036
0.110504
0.033867
0.003320
0.089815
0.078335
0.113021
0.106090
0.153138
0.142480
0.123509
0.261153
0.281222
0.238310
0.263396
0.354450
0.339139
0.284366
0.371486
0.418488
0.462433
0.436835
0.384510
0.483288
0.441307
0.454058
0.402003
0.470376
0.478248
0.486676
0.379616
0.425110
0.398166
0.430892
0.453912
0.360096
0.341639
0.289310
0.323560
0.260148
0.252109
0.293506
0.299821
0.304759
0.119097
0.207954
0.177675
0.071916
0.115609
-0.002425
0.103011
0.112539
0.103594
0.044218
-0.046945
-0.075367
-0.017105
-0.017476
-0.024024
-0.030757
-0.037468
-0.006019
-0.088945
0.001798
0.030148
-0.055356
0.008927
-0.024842
-0.096047
-0.080314
-0.032088
-0.096948
-0.042908
-0.080092
-0.066384
-0.179621
-0.082811
-0.094322
-0.139977
-0.010936
-0.044169
-0.058451
0.017018
-0.070254
-0.043894
-0.171098
-0.027151
-0.055191
-0.075670
-0.057888
-0.122147
-0.049231
-0.061017
-0.120271
-0.087682
-0.112619
-0.058768
-0.097060
-0.101088
0.041184
-0.037407
-0.011597
0.001933
0.009962
-0.037467
-0.074874
-0.051929
-0.033674
-0.016704
-0.023468
0.033912
0.054927
0.040067
0.098752
0.082904
0.034770
0.065885
0.095903
0.030421
0.104788
0.169402
0.106670
0.148249
0.067580
0.089577
0.082818
0.140954
0.184032
0.043449
0.260604
0.201055
0.174392
0.117797
0.165180
0.114335
0.063310
0.143580
0.039350
0.093219
0.112040
0.085596
0.023594
0.054128
0.077064
0.063061
-0.019993
0.081218
-0.027962
0.039953
0.021270
0.054412
-0.006619
0.040016
0.066552
0.071828
0.039804
-0.087382
-0.046053
0.040795
0.041360
0.179367
0.288584
0.554871
0.842241
1.214926
1.387171
1.254866
1.122526
0.746907
0.510530
0.138508
-0.120648
-0.206667
-0.212658
-0.114353
-0.092789
0.040126
0.024963
0.077877
0.114607
0.116173
0.130020
0.120402
0.059556
0.137768
0.177596
0.162878
0.163183
0.093514
0.107082
0.186281
0.149977
0.215718
0.255336
0.224689
0.289614
0.285091
0.361723
0.343787
0.440401
0.294266
0.364831
0.492597
0.480788
0.494817
0.513224
0.581435
0.546799
0.609485
0.509715
0.599046
0.491228
0.514253
0.570360
0.491287
0.433767
0.453997
0.634001
0.463565
0.533496
0.467515
0.482729
0.450701
0.491185
0.421300
0.416955
0.354051
0.270111
0.316493
0.347123
0.182380
0.277490
0.266675
0.169206
0.204505
0.213423
0.207153
0.110347
0.120481
0.076203
0.100238
0.129778
0.149238
0.187449
0.048993
0.117218
0.070593
0.055650
0.038607
0.071585
0.082143
0.077186
0.130838
0.109192
0.041099
0.013199
0.122252
0.091842
0.089371
0.053203
0.080610
0.016383
0.028866
0.031626
0.090393
0.105131
0.052463
0.081763
0.040429
0.136954
0.061961
0.050046
0.111212
0.152977
0.032011
-0.039403
0.033620
0.055308
0.143091
0.078720
0.090091
0.064980
0.110237
0.122460
0.008003
0.030789
-0.017393
0.038242
0.121169
0.055548
0.004888
0.019288
0.019148
0.101662
0.088965
0.000842
0.131596
0.153533
0.123619
0.176746
0.127912
0.085486
0.091442
0.207098
0.121961
0.209808
0.186411
0.168009
0.237571
0.224056
0.150228
0.178211
0.357775
0.181038
0.253377
0.162651
0.235907
0.207876
0.168932
0.141984
0.127557
0.173254
0.171738
0.155401
0.120558
0.094940
0.169245
0.127180
0.090849
0.089447
0.055093
0.113715
0.147654
0.144816
0.073854
0.164385
0.039775
0.050783
0.041243
0.095345
0.102009
0.022602
0.112774
0.064140
0.009437
0.215428
0.420197
0.643711
0.907767
1.219226
1.463787
1.467119
1.315148
0.848534
0.537496
0.239333
0.026074
-0.067995
-0.092124
-0.080835
-0.056083
0.084915
0.141269
0.141296
0.169600
0.123199
0.088733
0.088860
0.063997
