-0.062502
-0.103934
0.033175
0.037720
0.033386
-0.006576
-0.002227
-0.004803
0.068062
-0.000643
0.047425
0.026178
0.091279
-0.009615
-0.012511
0.016735
0.052640
0.031188
0.009894
-0.045185
0.057199
0.077218
0.003665
0.148586
0.039359
0.030793
0.000685
0.009536
0.044311
0.118110
0.042142
0.079921
0.093904
0.125832
0.082173
0.197797
0.200621
0.170571
0.092868
0.229692
0.213161
0.196162
0.217524
0.140427
0.208341
0.155968
0.196296
0.193890
0.214719
0.089992
0.031874
0.154164
0.127845
0.210490
0.160277
0.063725
0.107188
0.162790
0.093159
-0.004106
0.081850
0.046019
0.079006
0.019012
0.017700
0.042226
0.059486
0.089084
0.097054
-0.003777
-0.025236
0.055102
0.002276
-0.021145
0.047982
0.039056
0.059063
0.083254
0.178054
0.322871
0.596426
0.938386
1.259758
1.432562
1.393630
1.220131
0.900733
0.661313
0.115097
-0.055445
-0.166410
-0.154251
-0.223756
-0.125584
0.027887
0.084914
0.091702
0.147412
0.060542
0.133947
0.069968
0.105217
-0.000657
0.058378
0.129295
0.125049
0.105958
0.142952
0.155843
0.114262
0.168008
0.104747
0.184079
0.248037
0.235893
0.297483
0.092312
0.320330
0.367346
0.330179
0.299423
0.351195
0.414197
0.391321
0.477017
0.443904
0.498686
0.516905
0.597875
0.516424
0.562798
0.606959
0.532297
0.590190
0.566688
0.577390
0.598116
0.594542
0.567179
0.546564
0.710238
0.501940
0.525315
0.441854
0.559588
0.484103
0.496932
0.393932
0.480177
0.406826
0.422773
0.412898
0.352604
0.299375
0.262615
0.332980
0.320744
0.215978
0.207347
0.220311
0.229181
0.162742
0.185868
0.171861
0.228994
0.169901
0.199278
0.120686
0.089589
0.128726
0.068222
0.060143
0.095355
0.075525
0.091141
0.056356
0.118111
0.079624
0.094233
0.063679
0.149387
0.139318
0.049004
0.024785
0.086928
0.025087
0.056051
0.028592
0.099549
0.065901
0.059256
0.064127
0.084962
0.051668
0.011902
0.078200
0.087172
0.100569
0.060864
0.084633
0.091920
0.066323
0.085200
0.134372
0.080369
0.110456
0.046839
0.108454
0.133828
0.042413
0.097106
0.101396
0.074781
0.054700
0.136176
0.084940
0.100197
0.144584
0.055764
0.075564
0.049218
0.115348
0.112048
0.106078
0.098409
0.113496
0.068167
0.132559
0.102268
0.096650
0.148000
0.084581
0.155826
0.139299
0.116422
0.157811
0.124255
0.140644
0.184484
0.167491
0.209629
0.107029
0.232877
0.184797
0.227445
0.245124
0.229907
0.237060
0.284182
0.182935
0.239072
0.275226
0.264895
0.260301
0.156297
0.195932
0.083527
0.176449
0.249914
0.176836
0.154081
0.091678
0.194558
0.205938
0.162955
0.108719
0.128083
0.200731
0.109540
0.158856
0.057657
0.081638
0.081714
0.076028
-0.004871
0.197678
0.090950
0.046831
0.052323
0.015150
0.052034
0.108223
0.021643
0.076594
0.046725
0.130778
0.064425
0.340298
0.547336
0.849012
1.077679
1.411196
1.452546
1.246750
0.949011
0.693698
0.253951
-0.014615
-0.168076
-0.161905
-0.149283
-0.104142
0.050872
0.048433
-0.008975
-0.000004
0.127841
0.177756
0.086497
-0.003283
-0.014618
0.135843
0.144549
0.129818
0.137418
0.118798
0.171584
0.240752
0.238203
0.213804
0.162641
0.170100
0.180072
0.244676
0.235271
0.239504
0.311134
0.331377
0.388248
0.332794
0.378658
0.422186
0.395423
0.385548
0.449603
0.443444
0.557802
0.497179
0.494680
0.593704
0.501417
0.574285
0.574728
0.561785
0.527785
0.526699
0.524163
0.511408
0.569183
0.492793
0.575894
0.449646
0.450165
0.430827
0.412248
0.395915
0.413787
0.415983
0.359963
0.396072
0.259582
0.236457
0.252412
0.235687
0.183939
0.174589
0.199689
0.159652
0.172104
0.110945
0.128532
0.146226
0.094891
0.184756
0.084793
0.064752
0.069335
0.060275
0.091581
0.120347
0.030514
0.037309
-0.032904
0.110690
0.139382
-0.029698
0.069746
0.047774
0.030128
0.094795
0.092569
0.002081
0.010367
0.035179
0.068182
0.015208
0.017370
0.005347
0.090320
0.037393
-0.014211
-0.004723
-0.023126
-0.068650
-0.013470
0.000052
0.078754
0.057482
0.008401
0.010531
-0.070004
0.020262
0.005042
-0.007627
-0.012027
0.041444
0.005827
0.018497
0.005204
-0.045717
0.011124
-0.003854
0.011817
-0.038794
-0.015400
-0.034749
-0.024459
0.079327
-0.009144
0.008205
0.001509
-0.031493
0.050040
-0.034529
0.002776
-0.029963
0.027986
0.016213
0.073672
0.066768
0.035480
0.067456
0.023762
-0.024080
0.081066
0.071665
0.143378
0.056633
0.097308
0.119542
0.123805
0.106696
0.078391
0.061879
0.124294
0.045238
0.142451
0.154268
0.105355
0.115646
0.112789
0.067979
0.158536
0.090560
0.084117
0.095348
0.080468
0.050667
0.050986
0.099212
0.145612
0.102173
0.084273
0.082915
0.004082
-0.083834
-0.027256
-0.051970
0.034189
0.018037
-0.062442
-0.043594
-0.027910
-0.012593
0.017437
0.031301
-0.068367
-0.007047
0.028589
-0.108520
0.004471
-0.138795
-0.092061
-0.012745
-0.042198
0.098015
0.400427
0.637062
0.909632
1.242520
1.381143
1.225624
1.031689
0.657291
0.420370
0.015440
-0.228279
-0.262516
-0.289868
-0.216714
-0.217310
-0.027399
-0.008645
0.043836
-0.058857
0.007487
-0.018394
-0.042154
-0.035718
-0.075693
-0.024346
0.093442
0.071752
0.015898
0.069529
0.053617
0.068174
0.040843
0.077183
0.105533
0.145535
0.118728
0.193661
0.093943
0.240438
0.207766
0.219189
0.203878
0.331444
0.249876
0.321459
0.277799
0.399789
0.370310
0.371910
0.399706
0.491683
0.381007
0.415032
0.491917
0.446652
0.439257
0.522710
0.493859
0.377210
0.512197
0.400858
0.467089
0.375527
0.435802
0.364043
0.409418
0.337731
0.362249
0.375848
0.311264
0.211843
0.240461
0.312601
0.188045
0.230338
0.192042
0.180669
0.080289
0.136302
0.136760
0.162852
0.072413
0.076150
0.046301
0.047068
0.009606
-0.012084
-0.055023
0.094447
0.065921
-0.084626
0.001009
0.087887
-0.028066
-0.095039
0.036795
0.001595
0.044296
-0.056350
-0.042669
-0.061561
-0.086002
-0.067303
-0.063393
-0.065053
0.022088
-0.045880
0.016112
-0.080542
-0.067250
0.000862
-0.012942
0.022077
-0.093825
-0.032209
-0.069285
0.007355
-0.017974
-0.070197
-0.039350
0.000276
-0.067497
-0.068193
-0.117579
-0.051194
-0.100463
-0.025832
-0.083842
0.022444
0.039235
-0.041126
0.042878
-0.037255
0.018751
0.022417
-0.019336
-0.055883
-0.029179
-0.001847
-0.064861
-0.037093
-0.017351
0.013160
-0.035790
-0.006613
0.000119
0.000519
-0.071181
0.010172
0.040602
-0.023669
-0.026991
0.040283
-0.045361
0.075506
0.020789
0.072627
-0.011257
0.058471
0.048464
0.161152
0.037822
0.077372
0.039353
0.131298
0.171878
0.134016
0.209691
0.092591
0.197804
0.226778
0.121623
0.162538
0.109821
0.148160
0.108433
0.075038
0.062965
0.181460
0.040951
0.055688
0.089542
0.097467
0.115612
0.083393
0.028883
0.073528
0.093735
0.015419
0.076233
-0.014056
-0.012212
0.028789
-0.081107
0.003298
0.032392
0.124984
-0.008896
0.025175
0.005760
-0.035719
0.000164
0.010864
-0.004920
-0.044832
-0.118199
-0.016220
0.027479
0.329174
0.537684
0.903410
1.119088
1.297356
1.289826
1.130688
0.838797
0.423714
0.167510
-0.145678
-0.193732
-0.227967
-0.200564
-0.081592
-0.050012
-0.098000
-0.011879
0.066717
0.020894
0.030694
0.078967
0.008942
0.151390
0.091284
0.090645
0.060703
0.046440
0.031195
0.145180
0.118838
0.096032
0.069721
0.132116
0.191045
0.241534
0.212993
0.265287
0.210911
0.247404
0.313736
0.357378
0.250892
0.378594
0.401532
0.361257
0.328557
0.425385
0.563095
0.515353
0.446272
0.441695
0.542644
0.485363
0.580201
0.469397
0.472095
0.499514
0.653832
0.542674
0.575350
0.545457
0.589123
0.448255
0.468844
0.492531
0.415319
0.355103
0.501253
0.373512
0.349101
0.405783
0.386821
0.305598
0.259511
0.266338
0.221304
0.167950
0.255319
0.200691
0.195413
0.212728
0.246513
0.127934
0.110474
0.101455
0.144017
0.115159
0.037287
0.188821
0.007537
0.068092
0.036163
0.098074
0.020342
0.104992
-0.004132
0.082338
0.117003
0.037842
0.021490
0.036774
0.061474
0.044541
-0.007908
0.002074
0.070114
-0.080775
0.029822
0.084112
0.028063
0.117936
0.112930
-0.006281
0.017829
0.060306
0.018299
0.120230
-0.020049
0.051744
0.063646
0.137119
-0.023123
0.068940
0.096065
0.060666
0.032648
0.100537
0.055519
-0.028477
0.005249
0.094203
0.111927
0.083410
0.070554
0.143758
0.066408
0.123828
0.088704
0.123994
0.122113
0.096287
0.153283
0.170675
0.082092
0.111674
0.093874
0.033337
0.089746
0.073171
0.131463
0.115179
0.133021
0.078225
0.171026
0.062101
0.082572
0.183553
0.153155
0.106794
0.182463
0.141379
0.194378
0.228053
0.198199
0.240054
0.226985
0.266250
0.236038
0.285315
0.207690
0.337046
0.278374
0.233964
0.253305
0.199729
0.243460
0.239543
0.221469
0.098831
0.249973
0.239731
0.191760
0.196740
0.096272
0.132302
0.195481
0.127881
0.138739
0.118670
0.031395
0.166461
0.122595
0.140510
0.023565
0.042536
0.177256
0.184403
0.070819
0.062880
0.108489
0.058920
0.091175
0.077702
0.091495
0.060586
0.061300
0.164310
0.300740
0.629202
0.802452
1.154300
1.377983
1.500000
1.323955
1.004526
0.743382
0.302592
0.068963
-0.065586
-0.161492
-0.116509
-0.068653
-0.022195
0.123473
0.082514
0.094509
0.099470
0.123794
0.118296
0.194094
0.166987
0.108446
0.123575
0.207173
0.216712
0.199731
0.256692
0.187143
0.167649
0.143681
0.165616
0.187662
0.293802
0.254916
0.288919
0.374603
0.335464
0.349677
0.301125
0.350898
0.393736
0.479038
0.452776
0.425848
0.436716
0.548764
0.605683
0.569868
0.494283
0.545438
0.582067
0.538960
0.648708
0.558007
0.579474
0.588282
0.590137
0.581089
0.592502
0.603393
0.553993
0.612660
0.495665
0.546131
0.475598
0.425002
0.439842
0.432828
0.448157
0.395944
0.339327
0.327406
0.238362
0.299215
0.270569
0.298380
0.175031
0.266949
0.269354
0.177837
0.137643
0.202132
0.160499
0.104688
0.215186
0.117995
0.157976
0.139941
0.167261
0.092800
0.196052
0.041850
0.093101
0.098475
0.025624
0.109813
0.102333
0.064397
0.000358
0.173947
0.021109
0.100973
0.169645
-0.017554
0.081373
0.111135
0.028265
0.093591
0.051810
0.081860
0.043948
0.067476
0.091924
0.024895
0.075471
0.077756
0.031777
0.073206
0.000251
-0.008990
0.061867
0.141919
0.033959
0.143299
0.042998
0.119354
0.060734
0.193755
0.111486
0.123984
0.103984
0.076954
0.159525
0.106686
0.023437
0.060732
0.024297
0.013191
0.072320
0.053203
0.120836
0.053222
0.061938
-0.015259
0.163015
0.092977
0.143282
0.041078
0.099980
0.079129
0.022780
0.086040
0.073720
0.095321
0.150024
0.080762
0.117815
0.244730
0.202486
0.204015
0.121709
0.187097
0.165717
0.114666
0.260216
0.225972
0.254151
0.242985
0.166094
0.246355
0.147907
0.216646
0.101707
0.166749
0.179813
0.170991
0.092238
0.189346
0.164827
0.120957
0.186510
0.103750
0.148852
0.105826
0.159506
0.010140
0.046591
0.097219
0.048785
0.054382
0.019187
-0.051561
0.029403
0.030554
0.078228
0.044415
0.098025
0.026508
0.046240
0.017729
-0.039600
0.067402
-0.055288
-0.009936
0.098943
0.201366
0.414363
0.690671
1.027000
1.265731
1.403645
1.386903
1.066632
0.756820
0.334973
0.055720
-0.151275
-0.257468
-0.218582
-0.146394
-0.100794
0.033618
0.004557
-0.048796
0.148326
-0.022486
0.066984
-0.007794
0.068565
0.109757
0.000594
0.074631
-0.019466
0.072533
0.048003
0.116437
0.040179
0.175035
0.002355
0.175574
0.152497
0.147233
0.112756
0.228746
0.226899
0.303020
0.172537
0.204896
0.387046
0.305280
0.332630
0.352025
0.351359
0.381778
0.402377
0.448152
0.468819
0.498972
0.472961
0.350211
0.458269
0.477383
0.511612
0.527227
0.505628
0.441677
0.533020
0.483757
0.501169
0.416990
0.464115
0.431946
0.401414
0.374520
0.321275
0.274318
0.246148
0.319096
0.244816
0.232512
0.205993
0.190552
0.171455
0.215245
0.198874
0.067333
0.138587
0.122264
0.042662
0.035795
-0.051673
0.041310
-0.029887
0.015295
-0.026512
0.041390
0.017998
0.011693
-0.067245
0.006558
0.063134
-0.048617
-0.007322
-0.072376
-0.139307
-0.015419
-0.033686
-0.019848
-0.029162
-0.087372
0.025241
-0.024057
-0.015947
-0.108391
-0.054355
0.013268
-0.079121
-0.021885
-0.134547
-0.041128
-0.074017
0.012384
-0.022150
-0.081726
0.022317
-0.105413
-0.025204
-0.010796
-0.108814
-0.077115
0.004818
-0.002343
-0.095537
-0.068489
-0.098500
-0.061714
-0.044656
-0.059880
-0.073886
-0.033259
-0.104335
-0.032040
-0.064570
-0.087198
-0.036788
-0.039273
-0.156595
-0.037453
-0.123249
-0.103382
-0.077252
-0.086684
-0.036995
-0.091308
-0.012542
-0.063823
-0.023655
-0.002883
-0.003919
-0.059938
-0.088508
-0.011275
-0.109045
-0.030829
0.005911
-0.067317
0.016621
0.032150
-0.000950
0.099353
0.103695
0.120078
0.096782
0.083107
0.153246
0.096722
0.161667
0.094788
0.095232
0.018284
0.117504
0.054441
0.092062
0.100347
-0.022989
0.150935
0.018514
0.088357
0.037637
-0.034058
0.033800
-0.031990
0.004814
-0.056572
-0.030208
-0.063618
-0.081134
-0.048378
-0.067975
-0.052620
-0.049123
-0.017995
-0.049521
-0.048790
-0.127478
-0.063492
-0.107926
-0.092283
-0.071012
-0.143707
-0.157401
-0.169364
-0.056574
0.078412
0.166244
0.492967
0.913472
1.172914
1.284781
1.231721
1.125827
0.740623
0.379867
-0.026110
-0.191720
-0.276553
-0.288313
-0.273018
-0.216262
-0.122745
-0.106333
-0.028769
-0.070051
-0.134786
0.009540
-0.049402
-0.091150
0.005125
-0.113231
0.045496
-0.027721
0.020680
-0.009192
-0.023277
0.014722
0.012738
0.090202
-0.003756
0.066339
0.100865
0.096620
0.088248
0.086855
0.164897
0.160796
0.118315
0.243024
0.313838
0.258828
0.285477
0.364106
0.393776
0.332657
0.340117
0.415310
0.367469
0.411574
0.425451
0.400081
0.438441
0.345730
0.509047
0.390154
0.349515
0.433998
0.408469
0.416331
0.388874
0.269778
0.389604
0.374329
0.296803
0.292634
0.293912
0.134011
0.272502
0.242624
0.172053
0.208946
0.185322
0.118308
0.105226
0.092973
0.140278
0.090719
0.108503
0.030233
0.119560
0.024852
-0.011924
0.020003
0.006534
-0.045831
-0.007243
-0.028924
0.016239
-0.031773
0.014156
0.046377
-0.108147
-0.103290
-0.002728
0.008264
-0.128146
-0.037783
0.016085
-0.003256
-0.074494
-0.098069
-0.055446
-0.049542
-0.057209
-0.156486
-0.071484
-0.099438
0.077825
-0.020881
-0.017088
-0.119278
-0.062095
-0.060408
-0.121007
-0.053936
-0.066234
-0.008094
-0.076925
-0.053619
0.033049
-0.031114
-0.115653
-0.049626
-0.021487
-0.018500
-0.025919
-0.066659
-0.076881
-0.088960
-0.002648
-0.075788
-0.050239
0.008401
-0.101534
0.007012
-0.103968
-0.067223
-0.069610
-0.035851
0.028246
-0.017699
-0.049248
-0.010792
-0.101491
-0.027727
-0.051990
-0.006409
0.027245
-0.014731
-0.065706
-0.003890
-0.000693
0.002636
0.114080
0.043428
0.029093
0.068710
0.037922
0.069869
0.140128
0.119128
0.089213
0.146379
0.095808
0.149894
0.144707
0.151036
0.098522
0.082029
0.111103
0.154405
0.174082
0.144254
0.143200
0.140264
0.083795
0.145396
0.026386
0.064636
0.112711
0.101816
0.036590
0.008190
0.026985
-0.004567
0.017807
0.038898
0.012379
0.040706
-0.019075
0.050022
0.011506
-0.069688
0.032194
-0.029795
0.026989
-0.138744
-0.086525
-0.009546
-0.020781
-0.000175
-0.140196
-0.007168
0.010337
0.187568
0.504225
0.775285
1.019803
1.343810
1.423766
1.206750
0.927847
0.604100
0.265835
-0.079579
-0.256043
-0.220844
-0.209412
-0.176442
-0.122262
-0.014542
0.024851
0.123611
0.039735
0.048333
0.046487
0.072771
-0.023405
0.097122
-0.006145
0.065643
-0.041923
0.090759
0.153197
0.098281
0.130109
0.186438
0.177873
0.094579
0.134415
0.242743
0.303877
0.245662
0.316688
0.287467
0.376726
0.238911
0.377668
0.343106
0.291293
0.383677
0.428946
0.452730
0.422942
0.479586
0.421223
0.480934
0.489384
0.576398
0.510171
0.580666
0.502821
0.523260
0.563917
0.504718
0.488494
0.515141
0.514924
0.443712
0.484505
0.376562
0.458884
0.497224
0.431621
0.384747
0.413836
0.376505
0.370373
0.328845
0.303980
0.332670
0.286001
0.181471
0.242057
0.188176
0.221378
0.148752
0.167470
0.111053
0.050321
0.060829
0.091741
0.097421
0.095984
0.076784
0.112021
0.083664
0.029370
0.033404
0.076778
0.068483
0.028484
0.043412
0.203996
0.005585
0.007715
0.053107
0.076112
-0.012719
0.058989
-0.003690
-0.029427
0.019488
-0.015784
0.044969
0.046790
-0.005909
-0.002500
0.053706
0.078686
-0.021027
0.093184
0.082055
0.043517
0.102119
0.035622
0.087259
0.102197
0.072334
0.006696
0.022598
0.051381
0.116467
0.126687
0.014156
-0.001444
-0.000052
0.019987
0.072462
0.080123
0.016839
-0.006273
-0.008370
0.066531
0.068002
0.070451
-0.023485
0.047841
0.000593
0.090761
0.085632
0.056257
0.092759
0.015369
0.120948
0.007378
0.030428
0.156611
0.099472
0.132945
0.169078
0.131309
0.036649
0.033757
0.173603
0.261027
0.184241
0.210260
0.129012
0.250377
0.115176
0.247098
0.256746
0.206225
0.153451
0.197710
0.174702
0.266057
0.228888
0.160576
0.250660
0.140073
0.165805
0.159642
0.069860
0.078376
0.145287
0.118433
0.119115
0.052431
0.106000
0.113632
0.101913
0.035990
0.113821
0.071829
0.027416
0.059985
0.064605
0.073859
0.125465
-0.065112
0.130795
0.000027
-0.006190
0.047456
0.066304
0.100699
0.029731
0.035821
0.004198
0.045198
0.131964
0.424998
0.654897
1.106445
1.291064
1.426113
1.319196
1.053974
0.783251
0.386808
0.143457
-0.131101
-0.105582
-0.187516
-0.106801
-0.063918
0.004308
0.043321
0.125899
0.056042
0.010235
0.012300
0.040285
0.077899
0.042201
0.052288
0.082466
0.113731
0.153537
0.112797
0.140169
0.179156
0.235460
0.119893
0.137956
0.184590
0.203159
0.193010
0.271149
0.287559
0.302482
0.254366
0.386174
0.401866
0.380494
0.360773
0.479038
0.411676
0.436159
0.629381
0.444405
0.484223
0.528598
0.504732
0.512441
0.555662
0.530528
0.604493
0.597692
0.522977
0.531622
0.523677
0.514668
0.521404
0.404333
0.468804
0.488086
0.443736
0.430108
0.396301
0.306222
0.390162
0.360364
0.338663
0.237401
0.281605
0.287314
0.239473
0.269522
0.145169
0.184417
0.129693
0.060504
0.120049
0.115419
0.042179
0.121214
0.028518
0.060786
0.015690
0.078912
0.073593
0.079211
0.071494
-0.039480
-0.010126
0.021719
0.056104
-0.021000
0.023263
0.066556
-0.021557
-0.005206
0.037328
-0.018748
0.027736
0.017803
-0.104506
-0.006602
-0.047015
0.042453
-0.032291
-0.082584
0.009943
-0.044816
0.025332
-0.000525
0.026431
-0.049292
-0.004440
-0.023387
-0.098180
-0.044656
-0.021598
0.057672
0.028839
-0.018078
-0.003725
-0.012840
-0.037333
-0.057782
-0.097774
-0.024731
-0.012858
-0.029600
-0.079900
-0.016763
-0.011831
0.026771
-0.028377
-0.015086
-0.107029
-0.070181
-0.009032
-0.027952
-0.010669
-0.065436
0.015910
0.026602
-0.037038
0.015154
-0.020596
-0.080069
-0.011176
0.015624
0.009375
0.008178
0.045204
0.052405
0.021889
0.036897
0.110742
0.093237
0.117137
0.087035
0.059876
0.142077
0.089909
0.161471
0.078987
0.060692
0.142189
0.069030
0.197007
0.076785
0.132220
0.108865
0.159542
0.035568
0.138562
0.006689
-0.026908
0.081297
0.141783
0.039080
0.033448
0.005601
-0.011911
0.003688
0.031756
-0.065603
-0.003875
0.033027
-0.008078
-0.077020
-0.039051
-0.175491
-0.011129
-0.106070
-0.056390
-0.086467
-0.068970
-0.000765
-0.138564
-0.121868
-0.067325
-0.215188
-0.000904
0.076428
0.241488
0.459552
0.932409
1.122268
1.285077
1.239415
1.071206
0.734860
0.351418
-0.012695
-0.163928
-0.356148
-0.290501
-0.281984
-0.167317
-0.161421
-0.061196
-0.013329
-0.106185
-0.130237
-0.040106
-0.096873
-0.019382
0.001775
0.019366
-0.061129
0.020507
-0.055258
-0.081112
0.076386
-0.002688
-0.012087
0.111891
0.021836
0.063475
0.089048
0.104863
0.113771
0.120246
0.189734
0.170526
0.187410
0.195728
0.273302
0.270135
0.318326
0.332335
0.257454
0.258027
0.308964
0.421976
0.390626
0.402542
0.427343
0.400481
0.387516
0.472916
0.378094
0.347985
0.386063
0.412731
0.435045
0.387869
0.386280
0.384516
0.282773
0.282999
0.307687
0.334418
0.295284
0.282720
0.269825
0.156727
0.289203
0.228315
0.209019
0.110620
0.089836
0.162988
0.115969
0.037642
0.113700
0.040086
-0.004696
0.013684
-0.052860
-0.028157
0.008657
-0.043207
-0.007925
-0.110061
0.000187
-0.161812
-0.054484
-0.079965
-0.091789
-0.030371
-0.092743
-0.067757
-0.138686
-0.145210
-0.018429
-0.069673
-0.097381
-0.007030
-0.083428
-0.191897
-0.062331
-0.098443
-0.138356
-0.095123
-0.152156
-0.108366
-0.071660
-0.050024
-0.049822
-0.043494
-0.194816
-0.094205
-0.064465
-0.138754
-0.159947
-0.052404
-0.145312
-0.075294
-0.043979
-0.047732
-0.187155
-0.134233
-0.067424
-0.121650
-0.132259
-0.170565
-0.018702
-0.077083
-0.091873
-0.064060
-0.130068
-0.110905
-0.080923
-0.170612
-0.042092
-0.051816
-0.026672
-0.098751
-0.128979
-0.127556
-0.030110
-0.059837
-0.073757
-0.093006
-0.060376
-0.108998
-0.057445
-0.072804
-0.020562
-0.038419
-0.068063
0.047075
0.021732
0.033681
0.006685
-0.042282
0.062235
0.094530
0.031806
0.110461
0.157402
0.029204
0.095682
0.081564
0.051985
0.017608
-0.058773
0.046293
0.031750
0.091993
0.101596
0.098963
0.086266
0.070522
0.067546
0.023839
-0.028930
-0.008703
-0.036260
-0.006202
-0.022185
-0.061248
-0.059709
-0.050966
-0.041392
-0.100622
-0.070245
-0.077619
-0.090416
-0.124123
-0.021782
-0.003626
-0.063821
-0.162303
-0.069903
-0.076195
-0.119132
-0.071229
-0.112470
-0.106107
-0.017743
0.137685
0.411277
0.637018
1.053411
1.292348
1.295743
1.144941
0.840308
0.500073
0.147847
-0.126502
-0.272193
-0.344279
-0.174620
-0.254596
-0.130397
-0.058209
-0.046313
-0.047294
-0.055625
-0.099703
-0.022069
-0.038431
0.010147
-0.000939
0.011061
0.037390
0.031005
0.024179
-0.052418
0.078286
0.041977
0.141718
0.079885
0.067101
0.089412
0.086512
0.124995
0.278226
0.179342
0.142793
0.217529
0.246290
0.292227
0.362926
0.244391
0.352507
0.388260
0.379700
0.346522
0.434358
0.415365
0.451093
0.391475
0.391069
0.479422
0.439985
0.487015
0.368145
0.360008
0.431987
0.421067
0.480159
0.449004
0.404605
0.448613
0.419389
0.394275
0.373615
0.345438
0.284762
0.320486
0.273304
0.253579
0.258487
0.210898
0.149038
0.215590
0.214143
0.125259
0.221600
0.083629
0.161411
0.063918
0.028363
0.085873
0.077417
0.052569
0.075958
0.004644
0.053695
-0.023999
-0.078979
-0.058833
-0.045830
-0.010987
0.120268
-0.059112
0.002784
-0.089960
-0.044417
-0.044101
-0.033904
0.049648
-0.011787
0.074382
-0.004033
-0.133349
-0.022087
-0.021073
-0.016661
-0.052145
-0.064370
-0.020225
0.027279
0.011795
0.016299
0.000998
-0.067700
0.076263
-0.016010
-0.019018
0.046153
0.049122
-0.083531
-0.042196
-0.050069
0.080595
0.040987
-0.037991
-0.009630
-0.026290
-0.079840
-0.038268
-0.015186
0.015842
0.039143
-0.025512
-0.007439
-0.015464
-0.018622
0.098338
0.054070
-0.036195
0.049732
-0.039749
0.025655
0.066402
0.006314
-0.003159
-0.003674
-0.024430
0.023881
0.087731
0.097224
0.061528
0.060414
0.047606
0.052755
0.119250
0.099666
0.047326
0.060439
0.111375
0.137579
0.071134
0.254048
0.200357
0.141396
0.264987
0.174551
0.162291
0.214662
0.237306
0.163097
0.225474
0.177505
0.107230
0.222803
0.204594
0.205282
0.184943
0.098627
0.045588
0.089068
0.063549
0.112171
0.103393
0.038691
0.055807
0.076096
0.040092
0.114653
0.033006
0.051604
0.035578
0.022524
0.009248
0.087285
0.067061
0.076504
-0.063750
0.162596
0.005391
0.034289
0.019733
0.000706
0.003234
0.113829
0.445367
0.708865
0.999674
1.415580
1.388118
1.396078
1.014702
0.792806
0.402749
0.047372
-0.131548
-0.279151
-0.168290
-0.135000
-0.003072
0.016444
0.090519
-0.047456
0.043677
0.064013
0.076764
0.084187
0.102649
0.072396
0.062678
0.129466
0.256745
0.165908
0.142072
0.178367
0.187127
0.147428
0.218690
0.222087
0.288012
0.236413
0.191190
0.345244
0.210733
0.199389
0.387210
0.437003
0.415202
0.418026
0.371653
0.448712
0.467990
0.472018
0.503968
0.469101
0.542142
0.568869
0.523867
0.540112
0.521099
0.591855
0.515982
0.535270
0.535426
0.457966
0.593795
0.502667
0.513530
0.468743
0.492175
0.468528
0.462913
0.464655
0.431805
0.440493
0.488336
0.369631
0.348023
0.342902
0.256333
0.301587
0.366967
0.153939
0.235575
0.196056
0.253914
0.201762
0.138598
0.077564
0.175654
0.129213
0.125798
0.152038
0.078653
0.073817
0.126492
0.087384
0.139999
0.097334
0.083110
0.141359
0.053416
0.015957
0.060097
0.134583
0.117078
0.116488
0.051491
0.074992
0.137879
0.053709
0.105423
0.058371
0.026783
0.101677
0.053714
0.084228
0.068417
0.050464
0.067736
0.038923
0.020396
0.011839
0.058934
0.097192
0.060363
0.102001
0.049546
0.093086
0.022467
0.046885
0.015440
-0.026777
0.142136
