-0.023781
0.045073
0.009523
0.011960
0.026654
0.017754
0.029830
-0.037651
-0.074500
-0.013547
-0.028752
0.056719
0.063854
0.074441
-0.039556
0.031144
0.072646
0.038180
0.056748
-0.001443
0.001323
-0.040208
0.066766
0.035853
0.046490
-0.001611
0.026486
-0.048977
0.050484
0.098706
0.056213
0.143715
0.114321
0.068276
0.101996
0.020902
0.105794
0.155328
0.084806
0.131032
0.205330
0.217786
0.163043
0.209281
0.170330
0.176142
0.234335
0.107669
0.194334
0.157696
0.182656
0.235987
0.310221
0.183548
0.184364
0.163494
0.112233
0.171298
0.115783
0.140883
0.149851
0.057978
0.073599
0.069597
0.031210
0.153298
0.038119
0.021732
0.097852
0.056709
0.128320
0.026315
0.042196
-0.003474
0.102045
0.096509
0.016941
0.073198
-0.025222
-0.014742
0.111460
-0.009713
0.035500
0.055988
0.051495
-0.018918
-0.102382
0.070464
0.057080
0.214420
0.467989
0.858455
1.190724
1.381578
1.462223
1.205279
1.077365
0.794254
0.423779
0.050574
-0.146022
-0.184219
-0.154533
-0.166853
-0.100949
0.001420
0.090044
0.002265
0.033950
0.110533
0.065851
0.008524
0.117258
0.100529
0.036186
0.099310
0.074537
0.037872
0.086300
0.112199
0.141113
0.199287
0.147008
0.088446
0.155176
0.133293
0.182425
0.203420
0.164333
0.242900
0.283072
0.198390
0.278045
0.268559
0.332332
0.277765
0.382900
0.356666
0.343009
0.399616
0.440664
0.508065
0.500746
0.459277
0.503411
0.522669
0.577335
0.539266
0.536693
0.545702
0.689804
0.503877
0.593192
0.543909
0.490642
0.573553
0.598286
0.524289
0.616993
0.482645
0.489359
0.487372
0.406262
0.478170
0.496254
0.482252
0.468151
0.339291
0.418053
0.344278
0.312891
0.395779
0.265441
0.291643
0.242153
0.130394
0.220715
0.226267
0.153992
0.028880
0.179018
0.159081
0.111889
0.059286
0.121161
0.121312
0.133762
0.059230
0.118436
0.093436
0.045909
0.194987
0.110979
0.184374
0.063977
0.103052
0.064114
0.109839
0.098166
0.164384
0.059675
0.074687
0.178829
0.146566
0.072118
0.009793
0.063737
0.083925
0.016023
0.171524
0.095639
0.083989
0.042054
0.144907
0.064910
0.043662
0.002188
0.070385
0.076487
0.035426
0.127264
0.056786
0.087843
0.058221
0.099024
0.091857
0.066267
0.088609
0.022214
0.043401
0.038569
0.097101
0.063698
-0.000780
0.164591
0.110666
0.054740
0.060678
-0.000492
0.062752
0.086746
0.202807
0.095876
0.045419
0.085816
0.135851
0.145445
0.074626
0.150142
0.098317
-0.045037
0.056096
0.063449
0.069094
0.000379
0.165117
0.086605
0.081281
0.086636
0.063765
0.075597
0.066634
0.157827
0.150659
0.152595
0.161961
0.157691
0.126885
0.100188
0.153812
0.150278
0.145099
0.202082
0.181932
0.173148
0.206262
0.305963
0.225180
0.191893
0.293006
0.220073
0.271892
0.302436
0.284600
0.250466
0.230116
0.276290
0.227380
0.219718
0.190082
0.278812
0.169571
0.133146
0.177836
0.149137
0.065965
0.144049
0.142176
0.123530
0.120648
0.090669
0.106457
0.112451
0.105738
0.103044
0.094118
0.060204
0.044972
0.065142
0.057985
0.045484
0.031524
0.053832
0.015868
0.107358
0.027393
0.038717
0.069976
-0.012663
0.057021
-0.037120
0.094926
-0.003807
0.112578
0.333712
0.680794
1.046057
1.304180
1.426655
1.489849
1.210948
0.909464
0.467597
0.157007
-0.092171
-0.231951
-0.257271
-0.208455
-0.218813
0.016618
-0.009872
-0.015895
0.040582
0.082118
0.030340
0.040989
0.115010
0.033522
-0.000818
0.015438
0.095076
0.105548
0.092756
0.128216
0.018825
0.053673
0.043668
0.072546
0.045039
0.064244
0.178238
0.210044
0.166770
0.213153
0.237007
0.222195
0.205200
0.275232
0.258204
0.329186
0.313797
0.423161
0.282428
0.379989
0.291486
0.406259
0.452617
0.396406
0.437755
0.508099
0.507931
0.409760
0.490313
0.586612
0.567440
0.544687
0.560935
0.564759
0.504949
0.524733
0.554328
0.474434
0.471693
0.500453
0.538889
0.550493
0.461873
0.476529
0.443630
0.383246
0.400616
0.307824
0.279761
0.246162
0.213344
0.171985
0.246545
0.222564
0.252264
0.195795
0.180006
0.222485
0.128987
0.098977
0.139577
0.023214
0.015537
0.116804
0.068168
0.099846
-0.003769
-0.029976
-0.012178
0.004588
0.062311
-0.001614
-0.068250
0.011995
-0.021675
0.066744
0.042162
0.006761
-0.028615
0.059759
0.008361
0.090321
0.011598
-0.060482
-0.007200
-0.023820
-0.021448
0.035464
0.002365
-0.002470
0.003005
0.019979
-0.009678
0.008842
0.006919
-0.035906
0.022269
0.006020
-0.033886
0.016314
-0.002933
0.033043
-0.061012
-0.018513
-0.039138
-0.045304
-0.017901
0.077591
-0.027391
0.034374
-0.040947
-0.057379
-0.056665
-0.025563
0.031024
0.026290
-0.021316
-0.014604
-0.022610
-0.039185
0.048043
-0.007359
0.008496
-0.074807
-0.022719
-0.010223
-0.050459
0.024484
-0.093793
-0.027335
-0.041394
0.009994
-0.042470
-0.101829
-0.041841
-0.051627
-0.059167
-0.036004
-0.008082
-0.004811
-0.019842
0.004711
0.043406
0.066135
0.138231
-0.009703
-0.022314
0.029079
-0.016986
0.094122
0.030016
0.072917
0.074043
0.051564
0.156745
0.055796
0.137683
0.105848
0.067648
0.118220
0.156870
0.181353
0.124842
0.223484
0.119382
0.201194
0.124413
0.141817
0.103342
0.026958
0.048417
0.106643
0.118276
0.011133
0.037656
-0.022588
0.063190
0.048462
-0.024097
-0.048669
-0.015392
-0.039034
0.025590
0.023881
-0.028374
-0.041012
-0.098068
-0.030682
-0.066133
-0.001903
0.010261
-0.002719
0.005054
0.035428
-0.071203
-0.020247
-0.023620
-0.030749
-0.055348
-0.025674
-0.053664
-0.113451
-0.042548
0.004337
0.170943
0.560450
0.852726
1.068237
1.286946
1.328271
1.205347
0.945340
0.555734
0.254346
-0.024563
-0.297117
-0.200957
-0.414578
-0.210920
-0.132809
-0.097951
-0.071562
0.025939
-0.032044
-0.072863
-0.069568
0.010960
-0.024466
-0.047586
-0.002732
-0.003756
-0.016147
-0.010726
0.071781
0.136552
0.019054
-0.006866
0.038122
0.127284
0.025399
0.078526
0.056406
0.169783
0.108573
0.135752
0.137639
0.146256
0.133733
0.175704
0.138896
0.229886
0.252522
0.354884
0.230081
0.313791
0.327019
0.320270
0.327281
0.301844
0.450400
0.435558
0.382884
0.382378
0.530458
0.415234
0.449921
0.464975
0.450490
0.487406
0.402071
0.484533
0.465430
0.415440
0.366445
0.382860
0.459033
0.449747
0.330703
0.364989
0.286327
0.337577
0.264810
0.215800
0.246895
0.199972
0.201947
0.106818
0.225830
0.202201
0.132324
0.098283
0.072969
0.097190
0.070797
-0.012393
0.034177
0.070496
-0.020013
0.064324
0.065508
0.079170
0.045413
0.095207
0.044925
-0.029846
0.060445
-0.036415
-0.040317
0.019329
-0.122563
-0.005664
-0.084426
0.021471
-0.102045
-0.022148
0.022048
-0.026705
-0.015960
-0.071767
-0.039683
0.041036
0.066351
-0.037816
-0.050232
-0.050734
-0.083085
-0.027129
0.044650
-0.075909
-0.025911
-0.104196
-0.030864
-0.091836
0.043256
-0.070728
-0.048459
-0.001274
0.026298
0.006484
-0.031119
-0.004698
0.019780
-0.038733
0.026806
-0.060816
-0.058472
-0.075437
0.003516
0.079186
-0.006853
-0.003776
0.034491
0.027379
-0.071141
0.024433
-0.076124
-0.001580
-0.009829
0.089849
-0.020480
0.041982
-0.064333
0.096528
-0.004053
-0.013695
-0.031150
0.070949
0.024601
-0.004680
0.072107
0.013595
0.013547
-0.022266
0.069759
0.026183
0.102389
-0.023514
0.083278
0.093062
0.059405
0.100536
0.076886
0.009228
0.160034
0.166154
0.130341
0.125326
0.176635
0.147846
0.170248
0.167610
0.132133
0.099405
0.165141
0.201902
0.283620
0.208400
0.188742
0.192015
0.159869
0.175873
0.173423
0.220979
0.194582
0.171291
0.147689
0.149203
0.132270
0.134440
0.181802
0.043582
0.008249
0.047918
0.104271
0.050294
0.121231
-0.020007
0.013343
0.002055
-0.000151
0.064314
0.032721
0.144615
-0.038114
0.010356
0.040620
0.070617
0.064054
0.022260
0.083701
0.027766
0.016820
0.056044
0.021858
0.076733
0.061772
-0.064090
0.061393
0.217557
0.391324
0.798425
1.048932
1.297724
1.351861
1.293627
1.220416
0.791491
0.503884
0.171125
-0.180244
-0.246343
-0.179830
-0.224751
-0.140264
-0.009877
-0.045580
0.075009
0.075438
0.049600
0.046685
0.052884
0.004063
0.108852
0.025737
0.206908
0.081320
0.134934
0.173137
0.057564
0.073098
0.117229
0.103668
0.094947
0.155085
0.229573
0.124585
0.155736
0.248263
0.220959
0.238917
0.193799
0.267705
0.254952
0.299428
0.312460
0.371448
0.348023
0.397103
0.408253
0.455858
0.431682
0.480642
0.499526
0.569054
0.489627
0.539568
0.581451
0.555180
0.636690
0.578923
0.595395
0.587000
0.631088
0.634869
0.557589
0.640249
0.539181
0.518191
0.534048
0.500321
0.484585
0.521133
0.488522
0.541377
0.402606
0.432806
0.377433
0.285243
0.298373
0.278349
0.289299
0.165331
0.292444
0.308726
0.242325
0.260256
0.150257
0.222193
0.151292
0.203501
0.243622
0.157864
0.142334
0.108735
0.094507
0.160603
0.064350
0.073124
0.089192
0.036486
0.166043
0.091900
0.095787
0.074186
0.058949
0.142700
0.088288
0.092252
0.118130
0.114124
0.125519
0.120915
0.094547
0.146170
0.114421
0.072671
0.093314
0.151469
0.112526
-0.015572
0.100932
0.032344
0.103358
0.150368
0.087093
0.065284
0.104178
0.131701
0.117754
0.155477
0.094798
0.055669
0.074849
0.068655
0.064635
0.044200
0.110463
0.139067
0.142978
0.116463
0.114103
0.090027
0.113223
0.083063
0.069745
0.076753
0.078538
0.127299
0.069852
0.059283
0.146688
0.145168
0.064062
0.120994
0.156010
0.035489
0.083316
0.094237
0.094892
0.129896
0.047145
0.067363
0.143868
0.117120
0.116365
0.054752
0.093141
0.143465
0.103699
0.094115
0.108657
0.082593
0.107432
0.081287
0.102964
0.123212
0.108276
0.147272
0.218469
0.190553
0.162750
0.181969
0.222652
0.166111
0.262392
0.245819
0.247401
0.211230
0.204424
0.245995
0.175490
0.216287
0.269160
0.216646
0.318905
0.226573
0.244512
0.215649
0.292270
0.271414
0.208781
0.141703
0.202148
0.178512
0.137940
0.212156
0.179246
0.101466
0.205908
0.091926
0.102124
0.081509
0.134938
-0.009152
0.066679
0.141664
0.089379
0.121444
0.028976
0.086342
0.077085
0.073564
0.101815
0.123879
0.060315
0.126777
0.086992
0.132107
0.002866
-0.004360
-0.039749
0.054593
0.143707
0.359656
0.611194
1.084447
1.285836
1.500000
1.420061
1.263232
0.927671
0.530131
0.210465
0.044833
-0.179108
-0.176574
-0.238396
-0.157862
0.001347
-0.081083
0.070936
-0.019531
0.055179
0.094434
0.089335
0.120302
0.029285
0.015247
0.039288
0.115183
0.085686
-0.006002
0.083370
0.101314
0.146910
0.163684
0.184903
0.155361
0.080828
0.233899
0.096047
0.170352
0.110602
0.232659
0.262140
0.306922
0.268796
0.288006
0.328169
0.300480
0.343898
0.344113
0.422486
0.339585
0.443178
0.452580
0.358693
0.493048
0.412957
0.559282
0.529957
0.566251
0.485477
0.550040
0.528714
0.440340
0.544503
0.516093
0.610768
0.488898
0.556463
0.541758
0.572860
0.481303
0.452158
0.414499
0.422210
0.345155
0.431549
0.428413
0.414537
0.326492
0.353817
0.254507
0.341973
0.259947
0.260463
0.187776
0.135547
0.113900
0.165011
0.170677
0.082335
0.216865
0.033809
0.151322
0.064070
0.129043
0.079967
0.047655
0.080047
0.077064
-0.027351
0.022159
0.019346
0.029288
0.026008
-0.063546
-0.000367
-0.029832
-0.053331
0.046094
0.000816
-0.001911
0.107336
0.060398
0.012657
-0.029456
0.000482
0.009961
0.014647
0.017710
0.023147
0.012777
-0.018303
0.029183
-0.060000
0.059119
-0.022458
0.027648
-0.078259
0.089384
0.000508
-0.030920
0.016847
-0.103878
0.005207
0.082190
-0.093394
-0.001200
-0.002485
-0.081818
-0.016417
-0.101503
-0.004645
-0.056060
0.010629
-0.059220
0.053174
-0.039077
-0.034316
0.001907
-0.012426
-0.027059
0.046855
-0.030521
0.012459
0.004229
-0.073659
-0.078142
0.038675
-0.004939
-0.037054
-0.044129
-0.050517
0.011400
-0.034146
0.038758
-0.077341
-0.005158
-0.074456
-0.007351
0.010653
0.048288
0.092698
-0.060604
0.011011
-0.029749
0.008248
0.063462
0.061675
0.022224
-0.008840
0.009869
0.132699
0.107345
0.094209
0.071056
0.116809
0.123500
0.132758
0.080555
0.134944
0.186507
0.137316
0.131482
0.125621
0.118023
0.176534
0.156531
0.086411
0.054737
0.078599
0.072099
0.047688
0.046012
-0.015271
0.103334
0.044387
0.023411
-0.023615
-0.059920
-0.005838
0.026684
-0.009624
-0.045988
0.032684
-0.021952
-0.112272
0.028343
-0.020473
-0.048873
-0.077115
-0.071349
-0.176179
-0.066482
-0.004049
-0.069101
-0.018991
-0.093385
-0.097362
-0.080666
-0.078869
-0.122263
-0.115938
-0.133348
0.026433
0.173139
0.451545
0.780841
1.084955
1.310288
1.324223
1.204169
0.903705
0.585659
0.216520
-0.058191
-0.188902
-0.356263
-0.510992
-0.255616
-0.180709
-0.090658
-0.072348
-0.082175
-0.145211
-0.103226
-0.067321
-0.081778
-0.075502
-0.121933
-0.039190
-0.098813
-0.100012
-0.051105
-0.064540
-0.056795
-0.071509
-0.023838
0.019289
-0.007448
-0.021682
-0.006072
0.002331
0.052311
0.095338
0.110060
0.059508
0.053626
0.095491
0.176120
0.241458
0.211381
0.158145
0.195040
0.280356
0.269261
0.205454
0.320651
0.322396
0.372950
0.356553
0.380333
0.362586
0.397450
0.412016
0.399563
0.428890
0.428998
0.435847
0.462914
0.493199
0.388117
0.445730
0.430722
0.339231
0.371528
0.369469
0.311558
0.422234
0.341236
0.287447
0.278957
0.205329
0.204301
0.226235
0.171872
0.117979
0.173043
0.138095
0.106817
0.110471
0.093424
0.090872
0.112638
0.016852
0.028860
0.028108
0.047895
-0.058674
-0.004497
-0.068012
0.010601
-0.072831
-0.060505
-0.103427
-0.008505
-0.075719
-0.062410
-0.019742
-0.110766
-0.099661
0.051509
-0.086422
-0.105398
-0.013917
-0.114732
-0.080836
-0.012232
-0.142637
-0.098365
-0.083426
-0.099884
-0.074763
-0.082616
-0.062440
-0.118695
-0.135872
-0.060764
-0.018754
0.006589
-0.048080
-0.059312
-0.057450
0.018431
-0.163227
-0.140824
-0.099584
-0.122439
0.040399
-0.035249
-0.062750
-0.061356
-0.151249
-0.061675
-0.092449
-0.124933
-0.095262
0.049934
-0.084878
-0.065777
0.013248
-0.086613
-0.082045
-0.019495
-0.049695
0.004755
-0.082156
-0.057334
-0.016969
-0.067719
-0.059183
-0.139798
-0.093094
-0.151399
-0.079186
-0.014561
-0.032104
-0.033278
-0.055007
-0.091772
-0.081317
-0.081593
-0.001671
-0.060502
-0.067611
-0.051402
-0.080976
-0.008554
0.011173
-0.002037
-0.057663
0.048074
0.038842
0.066638
0.131223
0.009919
0.084455
0.067656
0.025753
0.132503
0.128294
0.156459
0.098426
0.108905
0.143084
0.149922
0.187049
0.211941
0.232539
0.118241
0.144997
0.124159
0.062862
0.071671
0.125296
0.109612
0.074576
0.141785
-0.000879
0.037948
0.059054
0.043248
0.010875
0.003150
0.070023
0.030624
-0.032432
-0.051107
-0.054203
0.005808
0.038388
-0.090529
-0.050560
-0.023372
-0.068378
-0.006686
-0.060041
-0.001355
-0.084652
0.076529
-0.045616
-0.019802
0.056427
-0.123521
-0.113174
-0.102108
-0.003978
-0.122998
-0.077147
0.129094
0.333338
0.706380
1.041584
1.252581
1.352743
1.281366
1.136955
0.792680
0.439513
0.034439
-0.192882
-0.241845
-0.312035
-0.260101
-0.162150
-0.050691
-0.097441
0.118606
0.018643
-0.018228
0.000307
-0.050850
0.060571
0.026568
-0.031691
0.074709
-0.022051
0.049607
0.049670
0.083434
0.170606
0.059056
0.060555
0.095818
-0.010860
0.115258
0.088455
0.128407
0.073100
0.052362
0.177627
0.187537
0.184314
0.168358
0.222645
0.376132
0.289712
0.338244
0.335542
0.332901
0.258820
0.397957
0.353182
0.411508
0.527822
0.566085
0.440138
0.546921
0.426781
0.489860
0.428859
0.464501
0.453303
0.522089
0.464244
0.496595
0.418688
0.435289
0.507452
0.487936
0.452877
0.409434
0.360876
0.423884
0.326493
0.322142
0.363107
0.301462
0.286455
0.297852
0.323417
0.253042
0.240485
0.220989
0.261064
0.197470
0.196402
0.057378
0.032026
0.146119
0.109795
0.148461
0.131874
0.172398
0.065965
0.044600
0.104623
-0.059150
0.089902
0.057016
-0.022965
0.055513
0.063467
-0.008453
0.010169
-0.009211
0.083740
0.088111
0.068425
0.034867
0.013222
0.025987
0.080609
0.028920
0.013120
0.092975
-0.038282
0.003045
0.020715
0.025567
0.010711
0.139149
0.053258
0.012222
-0.039666
0.008003
0.072706
0.027878
-0.054164
0.045102
0.030895
0.015243
0.032413
0.047802
0.064351
-0.000673
0.040679
0.051930
0.023578
-0.018493
0.034498
0.073453
0.026584
-0.012073
-0.026132
0.071825
0.018111
0.095735
-0.000227
0.038285
0.034319
0.004070
0.038788
0.119780
0.101443
0.021707
0.089048
0.073878
0.090457
-0.058167
0.130285
0.004477
0.037860
0.053874
0.048392
0.064233
0.057925
0.009089
0.040695
0.026224
0.120473
0.118593
0.120824
0.117562
0.087369
0.110861
0.067380
0.008952
0.027347
0.068098
0.173712
0.057225
0.165765
0.176815
0.175102
0.156067
0.341982
0.241075
0.203269
0.138129
0.138752
0.176547
0.288658
0.223939
0.239687
0.169254
0.226039
0.154592
0.162236
0.167575
0.203318
0.227782
0.086539
0.114849
0.088285
0.034792
0.127713
0.104893
0.028080
0.036298
0.026457
0.015855
0.021237
-0.016119
-0.027467
0.048079
0.081548
0.080831
-0.019345
0.114095
0.036599
0.005491
0.053754
0.109968
0.112814
0.065181
0.113362
0.082491
0.047806
0.039732
-0.016543
0.051918
0.028949
0.105956
0.321734
0.622244
0.943884
1.265739
1.378543
1.444216
1.315867
0.932874
0.548307
0.224658
0.049916
-0.243945
-0.233605
-0.209640
-0.224356
-0.092800
0.027173
-0.009777
0.036893
0.021036
-0.032590
0.184453
0.040704
0.084025
-0.018489
0.014604
0.061544
0.033573
0.029622
0.055856
0.118664
0.144833
0.047493
0.125539
0.040526
0.132503
0.102411
0.166828
0.079781
0.205897
0.265656
0.156696
0.153662
0.234524
0.276841
0.281218
0.291420
0.397818
0.341365
0.353720
0.397778
0.373678
0.435756
0.481737
0.482843
0.526702
0.498047
0.585607
0.483601
0.548630
0.502064
0.598094
0.524179
0.480364
0.566253
0.492794
0.506409
0.559406
0.535597
0.445787
0.489449
0.475761
0.473007
0.391131
0.374718
0.444144
0.367278
0.349841
0.274168
0.314667
0.342138
0.250750
0.220123
0.197814
0.162612
0.278951
0.191630
0.141059
0.124987
0.176946
0.122703
0.158759
0.093612
0.050273
0.082840
0.081950
0.019487
0.025186
0.081040
-0.039853
0.046338
0.102230
0.049114
0.012575
0.014927
-0.020717
-0.090018
0.055377
0.026240
-0.084932
0.024218
0.011359
0.006478
0.041632
-0.000329
-0.023360
0.093260
0.016793
0.001191
0.007167
-0.037398
-0.037513
0.008899
-0.079926
0.024623
0.057901
-0.020462
0.073062
-0.037917
-0.033817
0.046019
0.005698
0.018583
-0.015796
-0.026549
0.023642
0.001105
-0.078560
-0.036015
-0.014643
-0.066186
0.015516
-0.057355
-0.000788
-0.125448
0.010936
0.017931
-0.106282
-0.016327
-0.039901
-0.067069
-0.002060
0.083329
0.011330
0.038152
0.001410
-0.059826
0.017285
-0.006664
-0.104820
0.015412
0.074172
0.070208
-0.022557
-0.058723
-0.052035
-0.033064
-0.026826
0.071615
-0.061074
-0.036227
0.014563
0.091039
0.012362
-0.038326
-0.022838
-0.130853
-0.022470
0.080693
0.020894
0.029962
0.053656
0.072604
0.009124
0.105515
0.083983
0.088760
0.064730
0.127960
0.164160
0.101341
0.088499
0.116080
0.075796
0.178808
0.089204
0.103259
0.136369
0.117596
0.121859
0.047256
0.054891
0.127211
0.044291
-0.021618
-0.023033
0.033492
0.001762
0.043254
-0.000057
-0.020664
-0.079759
-0.025604
-0.069282
-0.140531
-0.020837
-0.030695
-0.097798
-0.079024
-0.086141
-0.112117
-0.062629
-0.049346
-0.060258
-0.064835
-0.123136
-0.004886
-0.079761
-0.077496
-0.096113
-0.117091
-0.079443
-0.049850
-0.106616
0.030601
0.418475
0.634253
1.024394
1.209026
1.287889
1.192149
0.938899
0.636980
0.197325
-0.073091
-0.290489
-0.389214
-0.396831
-0.304939
-0.216905
-0.122926
-0.112470
-0.172824
-0.134689
-0.103375
-0.024217
-0.012663
-0.050397
-0.014500
-0.013800
0.014640
-0.057893
-0.041899
0.019732
-0.035463
-0.011816
-0.001518
-0.037948
-0.010675
0.066387
0.041948
0.018118
-0.006903
0.018174
0.013886
0.082498
0.153658
0.187956
0.215482
0.178472
0.225178
0.153449
0.271804
0.221129
0.184274
0.268466
0.224480
0.344374
0.312144
0.303223
0.466635
0.368830
0.412903
0.428731
0.475692
0.442942
0.383848
0.436024
0.464671
0.451036
0.393908
0.366889
0.441193
0.346114
0.290368
0.333937
0.235983
0.336645
0.342061
0.266997
0.268764
0.279094
0.193278
0.202197
0.200416
0.150518
0.188230
0.172537
0.132955
0.080175
0.062750
0.088072
0.059327
0.089261
-0.039957
-0.044281
-0.064608
0.078948
0.048682
-0.061497
-0.108369
-0.034925
-0.025658
-0.081834
-0.083564
-0.101876
-0.021133
-0.038659
-0.042049
-0.040140
-0.084981
-0.028574
-0.078516
-0.099643
-0.153303
-0.120840
-0.050026
-0.070715
-0.098232
-0.046902
-0.095963
-0.075119
-0.152034
-0.044518
-0.061391
-0.092252
-0.124790
-0.062639
-0.071396
-0.059444
-0.147289
-0.092815
-0.155008
-0.088362
-0.086885
-0.029958
-0.175666
-0.102048
-0.061393
-0.067494
-0.112431
-0.066507
-0.095165
-0.156824
-0.029037
-0.102929
-0.168451
-0.117640
-0.056750
-0.106878
-0.093517
-0.134710
-0.132500
-0.097654
-0.117627
-0.073746
-0.169344
-0.113608
-0.081802
-0.179996
-0.089289
-0.117038
-0.170022
-0.108776
-0.046632
-0.145481
-0.128003
-0.047778
-0.142636
-0.105985
-0.110662
-0.017152
-0.125703
-0.069105
-0.074483
-0.057751
-0.035912
-0.143368
0.018034
-0.039675
-0.064187
-0.057059
-0.047958
-0.000969
-0.077278
0.001716
0.002823
-0.096728
0.056548
0.059744
0.059574
0.035535
0.102622
0.136776
0.047352
0.096911
0.122878
0.088413
0.071043
0.141037
0.076234
0.125717
0.077499
0.060864
0.023182
-0.001377
0.019351
0.017072
0.048234
0.039820
-0.017098
-0.045481
-0.045733
-0.047348
0.035727
-0.045125
-0.111867
-0.115686
-0.033597
-0.043050
-0.028946
-0.072142
-0.025631
-0.086646
-0.108943
-0.034021
-0.049177
-0.117721
-0.010912
-0.129281
-0.085366
-0.123235
-0.140838
-0.128182
-0.125875
-0.071842
-0.088230
-0.152462
0.053230
0.240612
0.573851
0.970549
1.247820
1.371890
1.365650
0.976643
0.787963
0.411842
0.096092
-0.187799
-0.292432
-0.340893
-0.306133
-0.220091
-0.122658
-0.083700
-0.032708
-0.131358
-0.039021
-0.059602
-0.077671
-0.003199
-0.072169
-0.077341
-0.072326
0.027632
-0.017271
-0.074919
0.056039
-0.022518
0.013359
0.028211
-0.038902
0.018958
0.054150
0.161338
0.113055
0.026936
-0.001925
0.084451
0.100565
0.167189
0.177746
0.164137
0.164244
0.293635
0.255987
0.177215
0.351535
0.377351
0.365394
0.380268
0.358286
0.403042
0.419419
0.498477
0.559728
0.545812
0.473403
0.542970
0.437400
0.410800
0.495498
0.511736
0.512065
0.443569
0.478289
0.482297
0.369738
0.554616
0.451121
0.347584
0.337157
0.398840
0.374868
0.370922
0.312939
0.216509
0.275330
0.253404
0.178631
0.297493
0.164795
0.206826
0.031090
0.205855
0.115497
0.144819
0.030266
0.099996
-0.006550
0.003903
0.082114
0.030267
0.063490
0.010472
0.092367
0.062499
0.011346
0.023518
-0.060939
0.005221
-0.044671
0.030659
0.036354
-0.029554
0.031662
0.030621
0.020522
0.007298
0.032765
0.041806
0.088319
0.001411
0.004842
0.038944
-0.017648
0.031636
0.098829
-0.013153
-0.025769
0.117804
0.023054
0.113080
-0.061308
-0.011726
-0.014733
-0.023099
0.018793
-0.019142
0.022769
0.044340
0.063568
0.011763
0.046925
-0.049560
-0.026665
0.053123
0.047089
-0.002562
0.033108
0.057499
0.033492
0.053937
0.057881
0.071520
0.031476
0.063707
0.005490
0.071106
0.050267
-0.045027
0.072084
-0.018181
0.097187
0.055765
-0.010742
0.024694
0.008673
0.082666
0.143711
0.037687
0.055120
0.057009
-0.011510
0.174886
0.040476
0.028540
0.097067
0.024483
0.095507
0.112010
0.065429
0.077233
0.058853
0.109383
0.105301
0.118975
0.170400
0.134742
0.224594
0.174903
0.134583
0.195030
0.150104
0.151169
0.132123
0.197899
0.258163
0.187974
0.217551
0.122911
0.249154
0.261170
0.192361
0.209438
0.194784
0.125258
0.237136
0.127098
0.210325
0.210188
0.150131
0.173043
0.099915
0.039658
0.084374
0.083575
0.087325
0.121815
0.037066
0.074898
0.011641
0.077826
0.039129
0.057516
0.051787
0.074824
0.080616
0.049357
0.144322
0.111674
0.039568
0.025444
0.135502
0.096649
-0.034459
0.076641
0.003449
-0.029440
0.061027
0.066712
0.140096
0.362975
0.585221
0.903322
1.250131
1.436518
1.400483
1.292368
0.960133
0.622374
0.289337
0.006723
-0.166034
-0.185891
-0.196560
-0.130203
-0.054954
0.044157
0.060889
0.071643
0.025769
0.106593
0.063474
0.058594
0.110001
0.092092
0.149552
0.101884
0.074433
0.081685
0.139416
0.063404
0.154447
0.138236
0.097589
0.218636
0.084824
0.142641
0.227284
0.196321
0.238080
0.275007
0.200205
0.293575
0.208239
0.310595
0.419025
0.319121
0.344080
0.371118
0.401866
0.460393
0.434619
0.460998
0.440298
0.492072
0.556360
0.504128
0.499963
0.564054
0.601881
0.567941
0.578274
0.552802
0.562414
0.571918
0.496501
0.611955
