-0.076112
-0.040477
-0.048536
0.022191
0.021480
0.033832
0.090348
-0.056397
-0.093852
0.092089
0.012276
0.036157
0.030357
-0.020924
-0.047776
0.092152
0.005508
0.050926
0.005742
0.071956
0.111276
0.107937
0.083524
0.116417
0.083670
0.142060
0.148522
0.182049
0.119268
0.116756
0.105761
0.242184
0.275298
0.228385
0.176342
0.270299
0.148231
0.251760
0.199765
0.153664
0.235987
0.200256
0.188957
0.194814
0.074300
0.056584
0.171194
0.085608
0.212279
0.115477
0.049596
0.025507
0.152444
0.067284
0.094174
0.022468
0.097421
0.078441
0.059980
0.068686
-0.023358
0.061775
0.063457
0.037649
0.120383
0.107335
0.275397
0.567382
0.901172
1.228179
1.339057
1.443126
1.317244
0.930625
0.638585
0.140474
0.052264
-0.108132
-0.121049
0.048359
-0.022573
0.096688
0.098443
0.151996
0.109306
0.007175
0.216284
0.148750
0.130362
0.171234
0.096600
0.133294
0.189569
0.278006
0.319191
0.292666
0.267108
0.256019
0.392655
0.303523
0.371652
0.488701
0.434475
0.459601
0.541807
0.512922
0.485282
0.453707
0.535696
0.537319
0.595991
0.546114
0.668865
0.560820
0.658903
0.600766
0.593271
0.543331
0.640873
0.548330
0.484252
0.502386
0.558457
0.518100
0.439639
0.456959
0.471226
0.483072
0.445736
0.356180
0.384703
0.289866
0.363486
0.373117
0.236577
0.242160
0.386172
0.291306
0.272823
0.139823
0.250216
0.260397
0.217957
0.110089
0.221178
0.134115
0.154980
0.154879
0.089584
0.133476
0.122004
0.035258
0.220820
0.067158
0.077165
0.163627
0.071339
-0.057914
0.070519
0.089899
0.127597
0.071820
0.075491
-0.015122
0.072164
0.091207
0.108929
0.092239
0.109479
0.185821
0.071157
0.104595
0.093516
0.067225
0.111868
0.051261
0.049301
0.095070
0.051727
0.054553
0.063420
0.082223
0.142843
0.069674
0.035293
0.050555
0.112501
0.061884
0.100357
0.171876
0.142366
0.103608
0.084822
0.123193
0.190999
0.174315
0.179318
0.195916
0.157525
0.146392
0.167136
0.229619
0.203661
0.134849
0.244815
0.226657
0.196829
0.266358
0.223144
0.315785
0.316266
0.299573
0.264524
0.193463
0.280974
0.263441
0.224153
0.206959
0.203579
0.210471
0.230782
0.218215
0.143251
0.216909
0.184580
0.154656
0.157715
0.139096
0.170330
0.192616
0.112113
0.070935
0.104111
0.188746
0.122830
0.180763
0.039766
0.003553
0.035301
0.137165
0.109827
0.054365
0.152997
0.500915
0.705514
1.047862
1.364579
1.500000
1.441702
1.151887
0.751381
0.370367
0.060019
-0.127633
-0.013406
-0.060059
-0.072761
0.084143
0.100974
0.067777
0.174124
0.140339
0.143988
0.210661
0.148988
0.245277
0.244969
0.271306
0.298014
0.235284
0.176640
0.302576
0.380957
0.302735
0.391210
0.324961
0.403504
0.339966
0.367100
0.481491
0.452390
0.499680
0.601406
0.495909
0.645561
0.559825
0.521621
0.662829
0.542228
0.686942
0.574650
0.600085
0.631801
0.581740
0.636561
0.552771
0.530858
0.562285
0.615035
0.554754
0.513827
0.480689
0.488056
0.431861
0.457432
0.429868
0.377348
0.362021
0.257684
0.372495
0.291659
0.385766
0.236912
0.209349
0.205439
0.249728
0.138702
0.137164
0.137936
0.096465
0.105244
0.119833
0.249135
0.030855
0.129224
0.040950
0.174110
-0.068610
0.084309
0.096124
0.159186
0.078803
0.093269
0.083272
0.055579
0.055075
0.000217
0.056902
0.128123
0.012274
0.018531
-0.002161
-0.011673
0.023845
0.114106
0.020885
0.023456
0.011400
0.005171
-0.017523
0.059271
-0.044181
0.067413
0.087034
0.016428
-0.012418
-0.058623
0.031077
0.027974
0.041344
0.071698
0.010539
0.038843
0.075842
0.044863
0.029136
0.104007
0.074417
0.091561
0.068603
0.087600
0.113510
0.132850
0.004915
0.111652
0.083226
0.141666
0.067775
0.141049
0.157460
0.151550
0.137011
0.166474
0.137646
0.191826
0.169653
0.173429
0.262012
0.188931
0.160466
0.231892
0.206222
0.222902
0.262490
0.214470
0.148744
0.148331
0.123106
0.074353
0.185273
0.148883
0.134194
0.079553
-0.015455
0.031931
0.095050
0.077300
0.021540
-0.050246
-0.002696
-0.015863
-0.045509
-0.033418
0.052135
-0.031008
-0.067931
-0.079908
0.012373
0.160962
0.245114
0.505975
0.802407
1.144404
1.303889
1.424318
1.150348
0.785412
0.437159
0.183472
-0.080769
-0.179505
-0.098508
-0.125760
-0.152911
-0.015443
0.031477
-0.011068
0.143681
0.073291
0.094024
0.074868
0.118779
0.123427
0.095831
0.036376
0.119212
0.174700
0.230058
0.230032
0.213642
0.205461
0.267366
0.310430
0.348726
0.275661
0.353090
0.374645
0.451391
0.336837
0.505082
0.407279
0.482166
0.453992
0.474304
0.529776
0.541647
0.501813
0.560430
0.480149
0.478649
0.497503
0.516010
0.475390
0.389361
0.499444
0.439457
0.400805
0.357647
0.385337
0.350218
0.415365
0.296506
0.326232
0.287726
0.296337
0.237739
0.236523
0.226635
0.176234
0.146219
0.182223
0.131744
0.165689
0.064114
0.070124
0.047291
0.046805
0.012678
0.074291
-0.001696
0.074038
-0.033852
0.012012
0.021207
-0.112772
0.025317
-0.087750
-0.056623
-0.053302
0.036452
-0.062424
0.006779
0.029474
-0.032632
0.010859
-0.032923
-0.047562
0.015010
0.002115
0.048210
0.032865
-0.053206
-0.053097
0.025907
-0.070825
-0.047092
-0.033787
-0.082125
0.038263
0.052923
-0.009790
-0.035685
-0.099316
-0.010972
-0.016479
-0.031633
-0.044150
-0.064925
-0.041983
0.048870
-0.048097
0.038529
0.012167
0.019868
-0.026255
-0.011753
0.015309
0.030266
-0.014368
0.006013
-0.029767
0.022600
0.060922
0.030662
0.109904
0.106374
0.117015
0.114951
0.138716
0.003358
0.092673
0.166931
0.183712
0.079221
0.172006
0.108283
0.160862
0.092998
0.201281
0.091824
0.110970
0.113532
0.020940
0.129546
0.050742
-0.004208
0.142711
0.040626
-0.016815
0.006847
0.084567
-0.055694
0.023049
-0.032287
-0.050489
-0.082641
-0.011863
-0.113168
-0.068422
-0.042634
-0.012442
0.021209
-0.074496
0.000992
0.065951
0.074220
0.331355
0.639322
0.942087
1.312913
1.374440
1.174956
0.961728
0.610785
0.232832
-0.070731
-0.218918
-0.168367
-0.179008
-0.153598
-0.011449
0.035554
-0.010456
0.094989
0.007377
-0.019976
0.052724
0.122394
0.049385
0.148007
0.090107
0.114929
0.133864
0.111296
0.216545
0.110438
0.289168
0.180382
0.316684
0.363481
0.290812
0.337153
0.298472
0.364099
0.383178
0.349934
0.485246
0.384368
0.462248
0.467192
0.529587
0.427341
0.497921
0.500487
0.502894
0.502221
0.481129
0.507881
0.458798
0.526114
0.486371
0.474382
0.440918
0.440033
0.405217
0.272039
0.388548
0.304924
0.362942
0.321264
0.243722
0.329420
0.200831
0.245849
0.121130
0.182255
0.154248
0.182211
0.164477
0.101430
0.146335
0.095646
0.067901
0.120726
0.056404
0.103189
0.002118
-0.018101
-0.034057
-0.004258
-0.048489
-0.024281
0.084653
0.028325
-0.040450
-0.012955
0.118566
-0.044459
0.115311
0.015632
0.044519
-0.021940
-0.043384
-0.085307
-0.034717
0.019858
0.055131
-0.029162
-0.053412
-0.040263
0.031440
0.014820
-0.019590
-0.014164
0.007500
0.029196
0.046660
-0.056532
0.084777
-0.015799
0.034506
0.051343
-0.050150
-0.067904
-0.046222
-0.010393
0.051575
-0.021202
0.025454
0.090167
-0.020439
-0.013234
0.065904
-0.011286
0.065515
0.091501
0.113942
0.115033
0.088708
0.082937
0.010567
0.141742
0.183757
0.127135
0.171948
0.228548
0.080918
0.193163
0.141314
0.203423
0.163281
0.247954
0.241545
0.138137
0.298241
0.170974
0.112323
0.157094
0.170454
0.108729
0.092413
0.102788
0.164146
0.130919
0.189572
0.099782
0.001156
0.111516
0.071309
0.134528
0.173981
0.083056
-0.037178
-0.001137
0.067769
0.051145
-0.006480
0.014914
0.096671
0.096462
0.098917
0.163981
0.279454
0.659233
0.965605
1.180231
1.387806
1.392923
1.265123
0.955385
0.574852
0.125829
-0.011966
-0.142052
-0.130999
-0.087091
-0.006687
-0.008774
0.134276
0.059817
0.199476
0.169702
0.145975
0.178898
0.104623
0.087643
0.191961
0.184696
0.219029
0.231098
0.255138
0.266950
0.286395
0.356368
0.333964
0.409136
0.440282
0.309721
0.412919
0.482984
0.488041
0.564543
0.544593
0.523948
0.587397
0.585019
0.524562
0.568906
0.626308
0.525590
0.603928
0.501376
0.605016
0.547181
0.651118
0.637083
0.607000
0.585205
0.485071
0.508639
0.533131
0.471932
0.418783
0.461652
0.445241
0.335101
0.437321
0.369791
0.321258
0.323003
0.309188
0.302800
0.311851
0.259319
0.195595
0.277677
0.145260
0.211379
0.172444
0.197799
0.147983
0.249864
0.159320
0.054427
0.064976
0.164291
0.117436
0.131231
0.090221
0.033817
0.141316
0.173631
0.094176
0.111563
0.098126
0.050838
0.099348
0.070397
0.038600
0.055074
0.083902
0.082548
0.052447
0.119827
0.119843
0.090131
0.096551
0.127662
0.155614
0.114514
-0.002754
0.085684
0.066057
0.082884
0.085002
0.045160
0.053723
0.052117
0.023812
0.186113
0.021986
0.060995
0.152180
0.127376
0.162180
0.124257
0.128640
0.110367
0.142052
0.144051
0.111659
0.108947
0.210244
0.185356
0.166380
0.167437
0.201902
0.223985
0.213031
0.278229
0.298142
0.165031
0.207445
0.239469
0.297456
0.201133
0.297835
0.320042
0.258653
0.294198
0.237209
0.313341
0.279486
0.268977
0.178437
0.242118
0.193533
0.269923
0.175224
0.197945
0.246112
0.188150
0.100219
0.168189
0.196990
0.161254
0.161448
0.153707
0.058153
0.181323
0.180463
0.063220
0.046066
0.015830
0.173423
0.108832
0.079388
0.097962
0.277847
0.511957
0.803418
1.179211
1.373997
1.369811
1.356757
1.084482
0.702934
0.440618
0.151500
-0.023645
-0.096969
-0.084392
0.029769
0.006890
0.212246
0.080356
0.105594
0.116798
0.236784
0.189879
0.183854
0.206084
0.295995
0.254671
0.282841
0.288537
0.278635
0.278145
0.361810
0.306232
0.281976
0.471861
0.414550
0.408780
0.431583
0.543684
0.429432
0.489259
0.544299
0.519039
0.578937
0.668264
0.576276
0.575836
0.579129
0.607544
0.602913
0.686725
0.618191
0.596391
0.561442
0.544125
0.556271
0.514545
0.594867
0.533255
0.527196
0.534809
0.491564
0.499268
0.415002
0.347466
0.354138
0.409064
0.424184
0.354164
0.350010
0.289624
0.271079
0.294709
0.252100
0.244505
0.234693
0.172156
0.170452
0.121314
0.137250
0.121138
0.226122
0.224034
0.136537
0.097866
0.104214
0.164588
0.025260
0.107504
0.122621
-0.008258
0.046971
0.096558
0.144207
0.044078
0.094082
0.114132
0.056678
0.041732
0.075934
0.045147
-0.024696
0.116689
0.100377
0.054479
0.057198
0.021860
0.078840
0.009749
0.056706
0.008328
0.075915
0.091367
0.022253
0.077734
0.027159
0.004786
0.029989
0.037305
0.050007
0.124553
0.024600
0.057448
0.063392
0.021650
0.002811
0.077234
0.110788
0.137716
0.037103
0.156476
0.081113
0.116843
0.037889
0.071917
0.194699
0.102140
0.190150
0.166679
0.118877
0.251821
0.225864
0.279744
0.216162
0.213319
0.252999
0.245442
0.276441
0.243336
0.258415
0.141890
0.220580
0.206939
0.310280
0.180431
0.230438
0.144309
0.135876
0.100004
0.108102
0.152910
0.097092
0.061766
0.121086
0.079523
0.072148
0.046558
0.062021
0.117968
0.015853
0.062396
0.053991
0.049425
0.050950
0.033080
0.097144
0.123704
0.175344
0.349927
0.630031
1.013421
1.158875
1.300470
1.374712
1.213863
0.783838
0.488559
0.123965
-0.121618
-0.198786
-0.152792
-0.065972
-0.109457
-0.007878
0.064520
0.051067
-0.008683
0.032894
0.109414
0.060090
0.073473
0.073509
0.121477
0.089343
0.227812
0.170716
0.230197
0.260282
0.269924
0.205729
0.183277
0.414162
0.279343
0.358278
0.414069
0.445376
0.420763
0.375318
0.477858
0.471168
0.419722
0.476638
0.503806
0.480613
0.485392
0.577572
0.556717
0.458235
0.441279
0.553972
0.460932
0.558700
0.527210
0.518419
0.425714
0.502927
0.400273
0.445960
0.400109
0.258383
0.332530
0.276522
0.352262
0.268012
0.209881
0.258408
0.170527
0.184755
0.151615
0.068356
0.165833
0.038817
0.121224
0.126055
0.174258
0.043407
-0.012015
-0.057067
-0.008044
-0.009079
-0.023839
-0.090322
0.024414
-0.043032
0.026472
-0.087888
0.052523
-0.096967
-0.003891
-0.010063
0.016289
-0.039976
-0.000918
-0.040371
-0.045000
-0.120791
-0.047405
0.030608
-0.012151
-0.079140
-0.063879
-0.031414
-0.061397
-0.093351
-0.085421
-0.059275
-0.126477
0.005710
-0.131863
-0.054193
-0.042666
-0.117002
-0.068268
0.019601
0.022341
-0.037524
-0.087324
-0.075670
-0.113445
-0.059951
-0.050000
-0.099913
-0.039313
-0.058891
-0.072862
-0.090799
0.036127
0.033610
-0.054609
0.015484
-0.046436
-0.021693
0.077967
0.082603
0.107860
0.129218
0.140431
0.142723
0.072890
0.035729
0.107350
0.174376
0.099837
0.159921
0.138763
0.188585
0.148361
0.079758
0.085892
0.050107
0.062346
0.013357
0.050782
0.032046
-0.040582
0.007103
0.076183
-0.009833
-0.008723
0.075158
-0.019337
0.007269
-0.028967
-0.014188
-0.070936
-0.031227
0.030889
-0.035714
-0.007876
-0.028798
-0.065145
-0.047232
-0.163902
0.028646
0.092391
0.349817
0.567301
1.088407
1.263477
1.377508
1.253167
0.907996
0.481891
0.261186
-0.051763
-0.246000
-0.313582
-0.177058
-0.135917
-0.068761
-0.096082
-0.029112
-0.007918
0.017344
-0.013351
0.040045
0.082605
0.048959
0.101324
0.046946
0.037485
0.128472
0.112575
0.108096
0.169981
0.233275
0.230931
0.234840
0.216925
0.351039
0.216596
0.264756
0.346047
0.367402
0.307904
0.357442
0.385986
0.389803
0.376043
0.511211
0.419159
0.456479
0.432721
0.470219
0.423648
0.412419
0.389786
0.464918
0.399876
0.384376
0.314088
0.379162
0.356897
0.362449
0.327423
0.378192
0.297106
0.283848
0.223809
0.232981
0.160108
0.197046
0.282096
0.135739
0.078350
0.123808
0.084193
0.076451
0.115521
0.144199
0.081531
0.072407
-0.034280
-0.033497
-0.027825
0.033660
-0.044843
-0.032546
-0.069005
-0.085450
-0.000012
-0.026700
-0.076085
-0.059208
-0.085265
-0.124621
-0.068049
-0.003234
-0.102218
-0.015330
-0.119339
-0.087537
-0.099000
-0.081930
-0.043647
-0.057035
-0.035613
-0.088708
-0.135452
-0.068122
-0.076876
-0.109285
-0.071189
-0.080713
-0.090987
-0.065303
-0.080514
-0.065085
-0.081375
-0.084661
-0.101951
-0.028814
-0.079464
-0.077109
-0.021081
-0.145965
-0.075371
-0.023071
-0.078699
-0.069901
-0.086141
-0.017712
0.030400
-0.063810
0.028184
-0.031537
-0.059184
0.014785
0.074928
-0.004885
0.021641
0.037883
-0.003052
0.097563
0.095997
0.062603
0.159357
0.115426
0.185536
0.137160
0.099657
0.078141
0.015525
0.097198
0.050233
0.063744
0.111351
0.123708
0.074406
0.032090
0.060399
0.044633
0.020089
-0.082748
0.073778
0.020093
-0.011273
0.044726
-0.006274
0.012004
-0.069183
0.102441
0.007278
-0.010420
0.042000
-0.036863
-0.057258
-0.033143
-0.068786
-0.049655
0.107021
0.225075
0.592365
0.795204
1.134665
1.276003
1.308402
1.050524
0.735202
0.444695
-0.000315
-0.129661
-0.202977
-0.172043
-0.069408
-0.102432
-0.052720
0.032143
0.101348
0.049761
0.052550
0.009893
0.069606
0.073960
0.097245
0.114818
0.166197
0.083549
0.139753
0.171169
0.168369
0.242356
0.246667
0.276142
0.343688
0.231001
0.305453
0.339274
0.418681
0.345554
0.289514
0.366006
0.422962
0.423372
0.525266
0.521839
0.495235
0.540574
0.504445
0.536446
0.581226
0.487454
0.489373
0.488713
0.552423
0.484573
0.520896
0.446189
0.467221
0.383668
0.382606
0.392568
0.360459
0.426941
0.328350
0.224906
0.197995
0.197530
0.167608
0.271081
0.202172
0.201261
0.112814
0.147811
0.117535
0.149509
0.061465
0.072865
0.132722
0.168924
0.085655
0.194566
-0.027599
0.053063
0.036137
-0.037662
0.047413
-0.013933
0.089217
0.053720
0.046224
-0.002789
0.068444
0.004670
0.084487
0.030121
-0.035806
-0.006380
0.021178
0.038502
0.046567
0.056774
-0.001292
0.061664
0.070893
0.020696
0.026775
-0.021268
0.055051
0.091043
0.064064
0.046183
0.027524
0.020911
-0.034015
0.029619
0.031161
-0.012747
0.066032
0.027117
0.050780
0.102090
0.029685
0.092118
-0.002521
-0.045010
-0.041006
0.086998
0.004481
0.166915
0.057553
0.102349
0.100093
0.087272
0.115701
0.179381
0.204328
0.231152
0.187166
0.193644
0.163114
0.131222
0.126252
0.130175
0.255547
0.169741
0.227192
0.203215
0.246511
0.240533
0.213024
0.205824
0.218156
0.134030
0.236398
0.142408
0.215429
0.153456
0.130881
0.226001
0.070750
0.089203
-0.030612
0.084465
0.015302
0.101507
0.086712
0.083315
0.079330
0.125483
0.059644
0.091379
0.115472
0.000697
0.052112
0.102264
0.108624
0.239094
0.519093
0.756010
1.171375
1.354316
1.434713
1.276032
1.121255
0.682991
0.287157
0.061675
-0.115841
-0.103122
-0.184336
-0.039151
0.049927
0.030630
0.102683
0.126133
0.082508
0.198535
0.180876
0.109155
0.122861
0.103193
0.217110
0.214432
0.168709
0.265968
0.226321
0.249916
0.310482
0.354237
0.245072
0.311095
0.446623
0.387030
0.435928
0.426083
0.440420
0.551533
0.567369
0.545600
0.481978
0.593536
0.516745
0.671091
0.573728
0.533282
0.607293
0.628073
0.616087
0.559646
0.567507
0.560490
0.552916
0.462179
0.647271
0.467204
0.413813
0.406171
0.406217
0.449735
0.362585
0.345921
0.398992
0.316096
0.262974
0.290650
0.216291
0.347303
0.136245
0.130580
0.045365
0.245739
0.212177
0.136343
0.187252
0.136334
0.088437
0.119002
0.156892
0.052112
-0.005972
0.150915
0.077664
0.053103
0.046940
0.076160
0.022737
0.087341
0.130169
0.037580
0.083367
0.062390
0.083487
0.022440
0.016087
-0.020724
-0.054685
0.073545
0.053238
-0.056660
0.035351
0.053126
0.042003
0.045836
0.052445
0.011763
0.056096
0.096767
0.003681
-0.062113
-0.101015
-0.061634
0.068638
0.038458
0.018587
0.020791
-0.011930
0.107756
0.004374
0.057224
0.009927
0.007421
0.025520
0.055796
0.036829
0.122474
0.109001
0.105450
0.076944
0.055390
0.135378
0.146710
0.171768
0.048494
0.190616
0.147795
0.235074
0.124174
0.134281
0.196074
0.137578
0.139181
0.220581
0.175133
0.180545
0.114959
0.288147
0.229105
0.096670
0.135984
0.133873
0.204038
0.169406
0.072244
0.091576
0.168785
0.114347
0.137907
0.040740
0.093701
-0.012720
0.043474
0.006133
0.071341
0.066600
0.064289
0.078479
-0.011147
0.009711
0.005632
0.032366
-0.036886
0.049378
0.193714
0.364717
0.578149
0.910523
1.195336
1.378535
1.350302
1.137812
0.811845
0.461655
0.170588
-0.150758
-0.139792
-0.148894
-0.112445
-0.044642
-0.029839
0.054456
0.090004
0.116199
0.053201
0.008725
0.099262
0.097223
0.087367
0.025776
0.173808
0.141520
0.218195
0.255372
0.266057
0.204135
0.292523
0.303691
0.160192
0.335349
0.410997
0.430293
0.389967
0.451638
0.446812
0.442643
0.487723
0.483594
0.508626
0.504202
0.534109
0.546656
0.579632
0.477053
0.430670
0.583595
0.448613
0.569598
0.503768
0.478672
0.481304
0.410012
0.406220
0.365327
0.340209
0.291481
0.392329
0.355420
0.175320
0.343183
0.292877
0.252049
0.217253
0.171716
0.150779
0.185873
0.158035
0.176478
0.106843
0.059972
0.124097
0.043194
0.027871
0.025845
0.072028
0.009383
-0.003190
-0.010334
-0.076783
0.054025
-0.106005
0.011724
-0.013331
-0.034437
-0.078790
-0.123662
-0.033760
-0.028412
-0.066349
-0.076675
-0.018833
0.007680
0.010962
0.054472
-0.001291
-0.074639
-0.075214
-0.054121
-0.100303
-0.057496
-0.053793
-0.099852
-0.059663
-0.067065
-0.061801
-0.076179
-0.095793
-0.078968
-0.107455
-0.098435
-0.080583
-0.105075
0.041041
-0.072735
-0.055036
-0.106615
-0.062219
-0.058861
-0.058581
-0.003052
-0.082567
-0.035523
-0.045275
-0.030875
-0.024128
-0.035325
-0.006572
-0.030649
0.003824
0.078069
0.031970
0.092184
0.056107
0.076858
0.007095
0.021055
0.137157
0.094212
0.114444
0.124983
0.053122
0.085358
0.079877
0.076576
0.119325
0.073803
0.076881
0.047362
0.068258
0.090094
0.055572
0.038290
0.042236
-0.047474
-0.057232
-0.075071
0.009307
-0.043439
-0.038633
-0.007446
-0.014788
-0.088414
-0.019435
-0.107077
-0.151982
-0.099921
-0.077816
-0.097009
-0.199686
-0.129642
-0.009288
0.102089
0.299427
0.634067
1.040196
1.202017
1.277588
1.143540
0.883940
0.458596
0.144827
-0.156305
-0.233609
-0.336182
-0.274068
-0.184307
-0.068332
-0.010069
-0.057516
0.027569
0.021789
-0.026896
-0.072778
0.006339
0.033479
0.037576
-0.009647
0.089082
0.126255
0.073183
0.143044
0.104108
0.188657
0.083160
0.223375
0.274429
0.249353
0.198065
0.341220
0.329350
0.317062
0.389584
0.332989
0.362553
0.308669
0.391643
0.446386
0.400371
0.447125
0.350753
0.426147
0.380900
0.442651
0.495873
0.436835
0.398785
0.395468
0.343451
0.327327
0.306073
0.355248
0.401116
0.230043
0.332753
0.291534
0.309073
0.127204
0.222927
0.157408
0.160529
0.099887
0.113163
0.158153
0.057163
0.022611
0.058077
0.092186
-0.055874
-0.007754
0.007132
-0.084502
-0.025399
-0.080303
-0.053209
-0.082081
-0.087442
-0.083941
0.014214
-0.174033
-0.042133
-0.117470
-0.043924
-0.076244
-0.167983
-0.068508
-0.063476
-0.157873
-0.113509
-0.113641
-0.096509
-0.133388
-0.125981
-0.103201
-0.064555
-0.033844
-0.063022
-0.100564
-0.073996
-0.038649
-0.125971
-0.157346
-0.028132
-0.053155
-0.179962
-0.106235
-0.088791
-0.056789
-0.143057
-0.071470
-0.109787
-0.128416
-0.112193
-0.101437
-0.006950
-0.100363
-0.125638
-0.086278
-0.064515
-0.096239
-0.025309
-0.037147
-0.076789
0.014495
-0.055547
0.025789
-0.047815
0.016572
0.072833
0.034062
0.010235
0.002060
0.111287
0.122042
0.131440
0.132241
0.084445
0.140180
0.129631
0.086430
0.059514
0.013293
0.059436
0.011028
0.050193
0.050745
0.034047
0.009257
0.042578
0.065358
-0.034262
-0.064780
-0.072479
-0.034709
-0.060321
0.015880
-0.094311
-0.081524
-0.024022
-0.088099
-0.064432
-0.125403
-0.082988
-0.068848
-0.083685
-0.106338
-0.096232
-0.076240
0.034802
0.304928
0.606220
0.905969
1.095629
1.352826
1.243010
1.061763
0.674762
0.292167
-0.013805
-0.258590
-0.258865
-0.215517
-0.137282
-0.159696
-0.136031
-0.076024
-0.053560
-0.110651
-0.059136
0.114247
0.002182
0.136915
-0.015345
0.038290
0.033161
0.085780
0.123267
0.166553
0.192850
0.203449
0.183928
0.211507
0.320324
0.308184
0.280221
0.325341
0.348476
0.333039
0.319232
0.455098
0.401282
0.462774
0.512681
0.504184
0.456621
0.484545
0.410496
0.499921
0.384751
0.561429
0.491989
0.448611
0.498750
0.470557
0.377866
0.465023
0.401650
0.354093
0.326175
0.325175
0.281215
0.344992
0.385464
0.380768
0.223338
0.157844
0.235187
0.231814
0.172825
0.207339
0.142497
0.110708
0.169409
0.112372
0.201311
-0.000114
0.099548
0.114860
-0.002497
0.053245
0.158737
-0.075309
-0.001211
-0.013582
-0.030147
0.100902
0.008983
-0.004062
-0.016105
-0.089861
0.003882
0.001791
-0.042898
-0.004487
0.014741
0.006784
0.022990
-0.076101
-0.044765
-0.019907
0.054103
-0.111167
-0.044574
-0.082258
0.006263
0.044372
-0.047120
0.023687
0.070839
-0.078323
0.028126
0.027149
-0.014268
0.022418
0.052725
-0.015906
-0.027146
-0.005784
-0.013219
-0.025086
-0.059029
0.015022
0.084222
0.016886
-0.014990
0.042340
0.041503
0.022968
0.026996
0.111328
0.115965
0.119042
0.077808
0.096217
0.120038
0.121849
0.087616
0.100820
0.089849
0.105083
0.203542
0.258258
0.166981
0.158756
0.180406
0.159670
0.237200
0.186341
0.203256
0.141312
0.081556
0.211886
0.110108
0.178957
0.145945
0.028749
0.133320
0.124926
0.147122
0.136081
0.094791
0.077548
0.098269
0.035325
0.169042
-0.004093
0.126766
0.155274
0.051415
0.040663
0.075267
-0.044574
0.034860
0.095766
0.179841
0.269102
0.532075
0.804823
1.148758
1.369716
1.460715
1.283691
1.015723
0.598376
0.174620
-0.039655
-0.091455
-0.121220
-0.117280
-0.030740
0.076999
0.102877
0.170047
0.057658
0.096331
0.157162
0.201725
0.099033
0.112519
0.062964
0.201946
0.295951
0.233669
0.229558
0.296663
0.303948
0.350557
0.388004
0.329609
0.403570
0.317742
0.347972
0.487936
0.546340
0.429338
0.445808
0.505316
0.499994
0.579211
0.592203
0.570032
0.522677
0.522168
0.571025
0.555844
0.606867
0.595061
0.523462
0.535122
0.569143
0.535514
0.571949
0.528385
0.524894
0.413871
0.488157
0.443333
0.458848
0.403503
0.364353
0.366505
0.311356
0.298183
0.328700
0.259835
0.289894
0.254714
0.204656
0.261117
0.134650
0.117020
0.193888
0.145381
0.103537
0.109902
0.162342
0.168877
0.096776
0.127137
0.140385
0.135095
0.145727
0.148054
0.040642
0.090272
0.044183
0.103847
0.098697
0.153290
0.062250
0.110369
0.028532
0.048419
0.087663
0.014703
0.147815
0.088432
0.071382
0.107739
0.055836
0.037350
0.008585
0.120426
0.066188
0.102837
0.084131
0.079262
0.084194
0.117756
0.090618
0.075225
0.047982
0.125386
0.111169
0.039983
0.047542
0.121864
0.098506
0.116921
0.118918
0.090715
0.113217
0.106615
0.138737
0.127988
0.099939
0.046057
0.176217
0.131250
0.222320
0.084132
0.190272
0.184513
0.210489
0.203159
