0.009072
-0.023753
-0.047259
-0.056383
-0.039777
-0.039219
-0.002173
-0.005596
0.004442
0.058465
0.013178
0.055575
-0.043923
0.004115
0.000820
0.007662
0.014111
0.033105
0.020217
-0.001687
0.066328
-0.010568
-0.036257
0.002320
0.149718
0.079769
0.144044
0.096995
0.129748
0.080708
0.108861
0.129158
0.088659
0.198462
0.176690
0.212155
0.147950
0.201731
0.353898
0.162628
0.177943
0.156105
0.198434
0.212734
0.182454
0.190119
0.210670
0.062946
0.179730
0.072342
0.173757
0.169863
0.151418
0.233727
0.071195
0.042298
0.202652
0.146337
0.105403
0.078008
-0.039919
0.066476
0.030629
0.072821
0.016799
0.026226
0.026247
-0.017901
0.094247
0.086251
-0.011909
0.033832
0.053708
0.083412
0.141912
0.159481
0.399476
0.756336
0.988104
1.436264
1.454017
1.409377
1.134601
0.724270
0.381166
0.099752
-0.142832
-0.180690
-0.110650
-0.092775
-0.041915
0.031046
0.137011
0.068445
0.037137
0.101117
0.036818
0.070469
0.140336
0.175609
0.190538
0.070360
0.216856
0.177037
0.163787
0.207973
0.227411
0.200238
0.287071
0.312882
0.157307
0.300958
0.288792
0.325125
0.300443
0.401291
0.401116
0.495945
0.499386
0.529045
0.555444
0.508416
0.626521
0.511918
0.570817
0.519672
0.659776
0.621961
0.577216
0.565689
0.642348
0.463047
0.668892
0.510635
0.537920
0.572912
0.535264
0.477594
0.543424
0.445823
0.557133
0.419091
0.462527
0.453749
0.444642
0.470038
0.385245
0.302749
0.358952
0.307052
0.290740
0.244240
0.233669
0.290530
0.224356
0.172391
0.223597
0.153995
0.173324
0.170999
0.122468
0.180201
0.103189
0.161436
0.022446
0.077089
0.157478
0.127315
0.051192
0.047368
0.062422
0.184699
0.094368
0.081830
0.130695
0.069575
0.138968
0.035789
0.080189
0.145023
0.072494
0.128308
0.198673
0.160834
0.097096
0.114293
0.098172
0.101080
0.117497
0.147691
0.085359
0.042840
0.093127
0.081448
0.073154
0.115651
0.124095
0.159085
0.073509
0.096510
0.170964
0.064691
0.012982
0.071998
0.076643
0.070950
0.120197
0.053348
0.134628
0.084602
0.096408
0.118897
0.143326
0.155363
0.083687
0.109290
0.093783
0.061498
0.097502
0.107608
0.070649
0.137873
0.140709
0.128509
0.106474
0.068408
0.193381
0.139425
0.248286
0.118162
0.234015
0.208206
0.216025
0.251236
0.291496
0.228102
0.308438
0.223088
0.241452
0.295053
0.278803
0.231975
0.203370
0.306924
0.271366
0.237475
0.262473
0.235787
0.187098
0.143477
0.174825
0.173165
0.196429
0.244120
0.179338
0.133915
0.120171
0.129834
0.067597
0.172756
0.067030
0.152663
0.033275
0.138371
0.051151
0.028619
0.042980
0.011978
0.072248
0.046106
0.116573
0.098144
0.066005
0.071397
0.113364
0.198095
0.478103
0.751719
1.100807
1.316352
1.500000
1.382915
1.180149
0.833489
0.370001
0.098314
-0.098946
-0.115446
-0.159911
0.011195
-0.043577
0.102870
0.054899
0.075527
0.118499
0.000515
0.068049
0.003360
0.140547
0.099441
0.082599
0.159724
0.159902
0.192237
0.231502
0.096294
0.170566
0.116683
0.212653
0.320985
0.207664
0.274540
0.345751
0.348340
0.352105
0.273090
0.409309
0.388083
0.522950
0.449551
0.412111
0.540013
0.565936
0.561580
0.560891
0.536982
0.552266
0.565879
0.589010
0.594612
0.590029
0.574020
0.528665
0.652505
0.537338
0.519167
0.550424
0.599991
0.537931
0.473515
0.435698
0.377649
0.410886
0.374862
0.421357
0.344891
0.303010
0.330189
0.287696
0.343847
0.145193
0.230630
0.189092
0.184780
0.155506
0.118993
0.203484
0.172532
0.108473
0.001753
0.162049
0.105788
0.164268
0.111715
0.078922
0.073583
0.043918
0.069972
0.067989
0.079072
0.063987
0.075227
0.049656
0.067061
0.009222
0.035598
0.075752
0.094708
0.064811
0.011597
0.011063
-0.027227
0.076420
0.072678
0.020894
-0.025736
-0.068601
0.020436
-0.016766
0.021810
0.061833
0.003954
-0.002925
0.074518
-0.043554
0.094661
-0.056566
0.017504
-0.042600
0.029341
0.062028
0.070826
0.020668
-0.005028
0.054254
0.070365
0.025254
0.050680
-0.025302
0.019651
0.081950
0.025095
0.060413
0.008202
0.002565
0.010011
0.077887
-0.011469
0.065637
0.002911
0.007564
0.077846
-0.022136
0.048021
0.022587
0.047559
0.087862
-0.015403
0.070092
0.180612
0.088236
0.133576
0.103133
0.153658
0.157247
0.107360
0.153892
0.055648
0.188554
0.207377
0.150706
0.244519
0.103332
0.123511
0.150485
0.142773
0.087243
0.139152
0.103638
0.041338
0.169462
0.034403
-0.000569
0.138573
-0.035511
0.086049
-0.014076
0.059939
-0.012380
-0.009363
-0.087881
0.020319
-0.034780
-0.020692
-0.071859
-0.032696
-0.059204
-0.028974
-0.017057
0.012127
-0.128202
-0.049978
-0.040286
-0.087215
-0.010776
0.230497
0.250409
0.686315
1.019937
1.322844
1.420071
1.322426
0.986366
0.668215
0.378502
-0.015811
-0.277573
-0.206004
-0.229892
-0.162141
-0.069453
-0.077880
0.019130
0.026558
0.000438
0.101710
-0.033118
0.099189
0.027600
-0.041098
0.053280
0.044853
0.103857
0.093314
0.101890
0.030211
0.130591
0.143118
0.176857
0.186416
0.134911
0.255228
0.230620
0.183286
0.195310
0.252343
0.352625
0.389118
0.332525
0.324967
0.352827
0.379875
0.388625
0.415642
0.471599
0.549334
0.404546
0.448374
0.485676
0.475733
0.522626
0.566882
0.522833
0.467408
0.436171
0.392009
0.426148
0.525936
0.326745
0.480495
0.468570
0.284623
0.376578
0.328137
0.279594
0.260293
0.340731
0.259439
0.181429
0.177267
0.236503
0.155439
0.229900
0.159850
0.067767
0.122731
0.090411
-0.007810
0.044180
0.003518
-0.076600
0.014476
0.108967
0.043349
-0.006038
0.040115
-0.050673
-0.016082
-0.034248
-0.018074
-0.105447
-0.063436
0.006495
-0.092733
-0.049377
-0.062618
-0.024299
-0.021181
-0.122955
0.012411
-0.126271
-0.063610
-0.062813
-0.018631
-0.047640
-0.036648
-0.049396
-0.026294
-0.013460
-0.171913
-0.156163
-0.078648
-0.043398
-0.090469
-0.068289
-0.023249
-0.107723
-0.018538
-0.078153
-0.082858
-0.098016
-0.131775
-0.009569
-0.071244
-0.076637
-0.044017
0.064603
0.029765
0.005722
-0.042746
-0.078611
-0.024098
0.003621
-0.079891
-0.037591
0.043971
-0.030571
-0.039572
-0.008062
-0.030337
0.064039
-0.006771
-0.075833
0.002004
0.011053
-0.076092
0.078426
0.025315
0.017368
0.057010
0.031022
0.125587
0.048574
0.066542
0.154868
0.169379
0.153641
0.122190
0.129859
0.146792
0.144725
0.181637
0.219404
0.141845
0.143005
0.157452
0.155737
0.119345
0.174509
0.071156
0.199208
0.028097
0.028843
0.000718
0.087947
-0.019583
0.011108
-0.037913
0.044454
0.035932
-0.005755
0.002131
-0.065837
0.034533
-0.003018
-0.123238
-0.022086
0.032323
0.053930
-0.014837
-0.062520
-0.027357
-0.042819
-0.001675
-0.015419
0.171916
0.331263
0.706184
1.125326
1.265351
1.358143
1.345215
1.129322
0.684318
0.319536
0.078475
-0.243315
-0.178158
-0.248514
-0.225174
-0.072593
-0.093359
0.024848
0.059229
0.048194
0.007823
0.016956
-0.032075
0.070790
0.106549
0.068726
0.088904
0.175863
0.160339
0.162667
0.070445
0.154558
0.140790
0.227904
0.255011
0.238979
0.222775
0.270791
0.256814
0.303064
0.363977
0.298252
0.415960
0.427353
0.405918
0.508269
0.404124
0.420662
0.455292
0.579943
0.524486
0.561839
0.595619
0.540221
0.581043
0.469991
0.514047
0.503530
0.533340
0.508789
0.525350
0.502223
0.506629
0.409429
0.506050
0.454718
0.375845
0.432016
0.370220
0.423116
0.316972
0.388445
0.328283
0.264281
0.257156
0.213195
0.173741
0.227175
0.240979
0.115881
0.149964
0.142082
0.120934
0.172442
0.084483
0.129487
0.202674
0.157216
0.106022
0.085960
0.114386
0.115478
0.064006
0.127527
-0.008711
0.056582
0.063751
0.004292
0.086002
-0.003447
-0.020795
0.006554
0.082306
0.004826
-0.003560
-0.019667
0.045884
0.012269
0.016549
0.009131
0.066591
-0.004864
0.076384
0.115471
0.038877
0.118891
-0.004050
-0.012064
0.024127
0.120351
0.117078
0.097075
-0.023891
0.047377
0.050751
0.072229
0.065937
0.019437
0.109027
0.063351
0.113434
0.093228
-0.009830
0.084287
0.082171
-0.018648
0.049596
0.081501
0.009104
0.068754
0.043287
0.054055
0.083126
0.112635
0.093216
0.057409
0.149137
0.067719
0.104307
0.221676
0.205055
0.155781
0.176838
0.182330
0.131273
0.184083
0.143607
0.245141
0.273711
0.191504
0.165808
0.239798
0.316982
0.149546
0.247277
0.299134
0.216022
0.223515
0.184654
0.351339
0.191305
0.156101
0.211588
0.233932
0.181094
0.104956
0.212889
0.142005
0.174463
0.067277
0.197491
0.207443
0.110457
0.053154
0.138336
0.084054
-0.007915
0.089650
0.029855
0.142347
0.124635
0.068528
0.030653
0.092385
0.043838
0.123407
0.101189
0.117181
0.072235
0.172484
0.261134
0.471815
0.827943
1.046939
1.393562
1.463522
1.433742
1.200666
0.775047
0.464177
0.126470
-0.196553
-0.169608
-0.115918
-0.047299
0.049965
0.039609
0.059090
0.184694
0.105797
0.152912
0.125753
0.146843
0.241048
0.089892
0.118283
0.190758
0.125604
0.228232
0.273837
0.333673
0.192962
0.238496
0.319364
0.266733
0.242785
0.331162
0.363160
0.358132
0.435392
0.388667
0.498957
0.404541
0.495400
0.546663
0.525801
0.574950
0.500373
0.577731
0.524660
0.562479
0.580497
0.626870
0.612098
0.636589
0.637010
0.639852
0.615585
0.561733
0.615854
0.639868
0.574039
0.601980
0.465218
0.502732
0.560792
0.432903
0.487148
0.486948
0.493992
0.390047
0.389311
0.360311
0.362800
0.352192
0.305334
0.328062
0.269448
0.304548
0.320947
0.247280
0.221922
0.243709
0.166323
0.118582
0.197148
0.233312
0.142544
0.133126
0.046968
0.097415
0.159002
0.141417
0.115323
0.051006
0.120313
0.073233
0.096974
-0.002359
0.093053
0.037114
0.162692
0.061065
0.051278
0.113513
0.013829
0.152682
0.105514
0.113863
0.012194
0.041597
0.014851
0.126451
0.112640
0.144910
0.118214
0.167296
0.082162
0.060128
0.068569
0.038463
0.120717
0.146930
0.016404
0.094293
0.024984
0.050645
0.035945
0.067719
-0.022865
0.067050
0.059196
0.139199
0.121462
0.121324
0.086174
0.102146
0.077890
0.094997
0.073621
0.060300
0.101316
0.054399
0.063768
0.022043
0.136390
-0.007403
0.115912
0.189884
0.164636
0.190530
0.110616
0.128341
0.156040
0.186615
0.212941
0.269099
0.264780
0.166968
0.281649
0.311596
0.293590
0.222698
0.201645
0.152969
0.325115
0.195257
0.218472
0.232567
0.238457
0.210287
0.162297
0.241777
0.160922
0.137586
0.155308
0.075998
0.058518
0.188004
0.151749
0.091029
0.086145
0.086722
0.086361
0.103947
0.032968
0.087754
0.097861
0.096340
0.045856
0.037060
0.019666
0.024690
0.047311
0.090077
0.028600
0.069333
-0.002350
0.021033
0.128813
0.181151
0.490212
0.763283
1.043791
1.415321
1.390817
1.369053
1.227834
0.877416
0.352330
-0.045335
-0.137473
-0.196330
-0.175005
-0.103036
-0.146761
-0.008578
0.028349
0.025341
0.052754
0.034693
0.073910
0.010425
0.114352
0.110927
0.106382
0.155545
0.196980
0.173635
0.177721
0.147886
0.223769
0.235128
0.188109
0.213388
0.285322
0.332952
0.284869
0.284532
0.246742
0.400926
0.362116
0.469089
0.427405
0.468613
0.429219
0.400476
0.466486
0.466135
0.513049
0.504073
0.488942
0.436463
0.509429
0.599092
0.533244
0.469371
0.544584
0.513375
0.456407
0.452854
0.469550
0.438310
0.426779
0.491623
0.435537
0.455485
0.356365
0.287442
0.401046
0.369723
0.250468
0.286653
0.269335
0.200920
0.204129
0.206652
0.167467
0.116294
0.228577
0.109540
0.144451
0.066871
0.069797
0.067511
0.049460
0.050539
0.060885
0.000212
0.063723
0.072392
0.060671
0.063449
0.011564
0.023369
0.069790
0.018737
0.004032
-0.018336
-0.014010
-0.035951
0.045465
-0.093296
-0.087162
-0.022915
0.067816
0.035165
-0.037077
-0.054140
-0.037395
-0.066119
0.019237
0.048498
0.001319
-0.029342
-0.006688
0.010566
-0.074446
-0.110168
0.014441
-0.006961
-0.026528
-0.006975
-0.063116
-0.129919
-0.067311
-0.001170
-0.057973
-0.049494
0.048857
-0.064176
-0.026974
-0.042553
-0.032021
-0.072164
-0.066368
0.012340
-0.026486
-0.041256
-0.056132
-0.083445
0.001465
-0.044852
-0.046901
-0.010446
-0.077709
0.073554
0.009973
-0.040352
0.106769
0.010210
-0.009482
-0.059366
0.068761
-0.009783
0.151544
0.078399
-0.000936
0.093303
0.180684
0.054114
0.204633
0.093634
0.129478
0.123737
0.126086
0.136648
0.117152
0.123291
0.111272
0.048965
0.147078
0.086651
0.142276
0.070196
0.077210
0.131795
0.070959
0.072934
0.027124
0.012954
0.026942
0.025475
0.031949
0.040904
-0.068894
-0.050300
-0.033720
-0.081825
-0.070536
-0.069120
-0.076946
-0.091585
-0.079759
-0.091763
-0.086285
0.003473
-0.088437
-0.093586
-0.024324
0.125646
0.353507
0.639224
1.025228
1.253545
1.340762
1.223298
1.074458
0.653544
0.354584
-0.023471
-0.198744
-0.358863
-0.249394
-0.231332
-0.225729
-0.118670
0.000466
-0.037173
-0.015689
-0.036949
-0.039433
-0.035354
-0.004966
0.044715
-0.042150
0.035326
-0.025644
0.017408
0.082738
0.059989
0.063537
0.125832
0.057637
0.039320
0.087157
0.133205
0.178868
0.115214
0.334035
0.217910
0.244775
0.272066
0.326674
0.336310
0.254202
0.326343
0.338894
0.435875
0.392602
0.513443
0.474068
0.380434
0.392774
0.504914
0.489375
0.401717
0.370885
0.467011
0.469812
0.431884
0.437404
0.330925
0.364770
0.218624
0.304194
0.421163
0.235410
0.336783
0.187829
0.198336
0.311429
0.190253
0.116027
0.117574
0.064792
0.072999
0.050367
0.083292
0.045759
0.008722
-0.015162
0.002457
-0.039292
-0.086913
-0.056977
0.055447
-0.014296
0.072705
-0.064797
-0.031275
-0.102253
-0.092742
-0.059100
-0.138358
-0.053477
-0.023328
-0.064369
-0.038903
-0.067244
-0.109498
-0.139935
-0.047755
-0.152207
-0.084321
-0.140395
-0.025463
-0.056437
-0.123682
-0.093553
-0.069096
-0.127958
-0.032196
-0.137739
-0.078522
-0.072996
-0.063730
-0.037362
-0.042318
-0.145724
-0.042939
-0.117665
-0.096893
-0.094057
-0.146735
-0.039162
-0.078745
-0.061974
-0.047081
-0.114581
-0.166799
-0.065709
-0.021331
-0.189856
-0.072389
-0.029844
-0.038576
-0.045507
-0.082863
-0.102224
-0.026441
-0.021232
-0.062939
-0.065107
0.011290
0.024781
-0.114435
-0.004753
-0.011453
-0.009049
-0.114964
-0.023211
0.033262
0.086419
0.054982
0.046976
0.032349
0.082363
0.084905
0.101664
0.111642
0.133035
0.177707
0.087439
0.136122
0.053896
0.132386
0.133963
0.072700
0.080486
0.082714
0.118281
0.127093
0.122885
0.089274
0.142224
-0.004560
0.092930
0.057067
0.105932
0.051474
0.012282
-0.002822
-0.047084
-0.017002
-0.068178
-0.021215
-0.042214
0.007331
-0.016069
0.068126
0.013751
0.021317
-0.025289
-0.054881
-0.064053
0.016630
-0.033571
-0.055876
-0.095830
0.106031
0.400532
0.653875
1.028750
1.262022
1.403792
1.234836
1.089427
0.745294
0.287554
-0.023170
-0.202853
-0.328602
-0.223151
-0.203710
-0.207469
-0.110490
-0.090263
-0.021787
-0.010966
-0.083518
0.046868
-0.026717
0.059957
-0.053199
-0.020251
0.129639
0.059996
0.156129
0.117063
0.099867
0.149469
0.158109
0.083641
0.164458
0.216260
0.263646
0.249251
0.328727
0.178528
0.280199
0.239004
0.363086
0.378063
0.361340
0.383094
0.418419
0.471494
0.397385
0.563126
0.468251
0.509939
0.394085
0.465542
0.496002
0.544285
0.466612
0.508462
0.506026
0.546699
0.465223
0.433686
0.506465
0.397386
0.463249
0.311125
0.385482
0.420531
0.403015
0.380949
0.420797
0.286950
0.224157
0.205548
0.194395
0.205732
0.228088
0.177598
0.081360
0.103111
0.136234
0.127191
0.107029
0.031952
0.080385
0.067172
0.114692
0.017517
0.098994
-0.088014
0.134863
0.044074
0.010438
0.016219
0.035554
0.092084
0.067757
0.077685
0.040267
-0.030002
0.011790
0.023303
-0.008159
0.016595
0.034949
0.043426
0.012718
0.007702
0.028647
-0.035359
0.110686
0.057053
0.059512
-0.006076
0.043490
0.084756
-0.008334
0.020700
0.038237
0.019155
0.021592
0.086199
0.007657
0.082078
0.014179
0.071211
-0.026766
0.023180
0.008300
0.054127
0.046929
0.034319
-0.008961
0.020765
0.044806
0.012209
-0.048774
0.036419
-0.002024
-0.054033
0.045019
0.072110
0.035932
0.052165
0.005936
0.038195
-0.001820
0.020925
0.108306
0.072557
0.075469
0.108268
0.079358
0.061970
0.134066
0.150447
0.126489
0.223123
0.185081
0.243666
0.272466
0.204578
0.225736
0.313624
0.242744
0.234852
0.263161
0.169577
0.208448
0.199340
0.221048
0.228146
0.174801
0.175366
0.137325
0.162835
0.221663
0.080613
0.200976
0.068834
0.092899
0.089578
0.067942
0.016067
0.093740
0.124920
0.096408
0.008992
0.141969
0.049896
0.053243
-0.047387
-0.023982
0.037456
0.071116
0.078699
0.032254
0.053380
0.028931
0.099484
0.194642
0.485231
0.716705
1.080415
1.425492
1.453847
1.450876
1.102743
0.825146
0.410339
0.152798
-0.043590
-0.111292
-0.148144
-0.144248
-0.083323
0.048773
0.057441
0.076292
0.089881
0.112385
0.096053
0.083837
0.083587
0.132799
0.205376
0.172806
0.154221
0.172969
0.135089
0.236116
0.225828
0.231419
0.260288
0.239021
0.235290
0.337353
0.334090
0.367931
0.343016
0.342081
0.393085
0.432492
0.456026
0.482756
0.458025
0.470430
0.512746
0.579041
0.603164
0.506044
0.588085
0.568961
0.539810
0.526137
0.524114
0.556723
0.606936
0.615466
0.483927
0.517636
0.600483
0.529742
0.501616
0.426137
0.404054
0.439878
0.418206
0.454913
0.369007
0.335946
0.393261
0.174354
0.238590
0.388070
0.313870
0.287909
0.232579
0.266816
0.190939
0.202400
0.192922
0.093388
0.156811
0.191440
0.142782
0.063794
0.108172
0.132954
0.013879
0.099978
0.110496
0.016015
0.063757
0.042845
-0.017933
0.071778
0.155645
0.006284
0.042894
-0.017478
0.016834
0.083940
0.040985
0.059282
0.031471
0.056595
0.048139
0.088758
-0.027234
0.047009
0.096905
0.032120
-0.020454
0.028175
-0.034080
-0.020263
0.018462
0.083640
0.017704
0.074951
0.071015
0.066219
0.026255
-0.033648
0.063887
-0.025961
-0.025903
0.016491
0.027070
0.049787
0.023862
-0.001334
0.034649
0.033219
0.043945
0.108339
0.085734
0.001496
0.027920
0.033917
-0.071998
0.008686
0.052180
0.120872
0.062473
0.094436
0.009683
-0.013399
0.097872
0.115507
0.082441
0.055943
0.125407
0.166643
0.131329
0.089405
0.186811
0.114990
0.061604
0.134883
0.203338
0.141334
0.204004
0.195032
0.176265
0.132221
0.211130
0.235954
0.130235
0.197721
0.094999
0.120731
0.201999
0.107335
0.104571
0.089976
0.053219
0.087410
0.043080
0.055442
0.051035
0.013954
0.053681
0.030083
0.021031
-0.023274
0.041012
0.040337
-0.021553
0.025594
-0.029244
-0.047509
0.000950
-0.010010
-0.032937
-0.005321
0.005955
-0.038433
0.022874
0.111417
0.332933
0.724062
1.067076
1.259020
1.452125
1.307253
1.007487
0.715181
0.291911
0.019305
-0.160626
-0.236635
-0.347283
-0.167871
-0.133651
-0.029058
-0.019801
-0.081062
0.046957
0.003181
0.000061
0.123360
0.030457
0.031123
0.096119
-0.057577
0.056301
0.077812
0.104186
0.083707
0.075512
0.064836
0.174096
0.198753
0.133670
0.217510
0.188440
0.281823
0.223426
0.180982
0.251540
0.256861
0.372102
0.344966
0.437981
0.408077
0.451374
0.357611
0.375784
0.390080
0.377903
0.455735
0.487806
0.474047
0.426541
0.481560
0.442484
0.401605
0.392459
0.451634
0.412165
0.473516
0.385305
0.372116
0.332991
0.403375
0.336703
0.335089
0.310975
0.251475
0.241804
0.235223
0.217544
0.135887
0.194211
0.171259
0.068945
0.053736
0.108233
0.063554
0.037927
-0.014014
-0.000697
-0.068476
-0.037610
0.020115
-0.000571
-0.025698
0.020763
-0.090967
-0.033943
-0.046424
-0.015836
-0.034792
-0.088024
-0.034149
0.012301
-0.142908
-0.085735
-0.130028
-0.036520
-0.094749
-0.086085
-0.065436
-0.071506
-0.092209
-0.055950
-0.052290
-0.075492
-0.075214
-0.074841
-0.007088
-0.106944
-0.147400
-0.158139
-0.040028
-0.046343
-0.101210
-0.069655
-0.081317
-0.077475
-0.105231
-0.124593
-0.074907
-0.163874
-0.179884
-0.106079
-0.020741
-0.024801
-0.107919
-0.071623
-0.127487
-0.105216
-0.113048
-0.059885
-0.053323
-0.114710
-0.028485
-0.160700
-0.023535
-0.084865
-0.048334
-0.068425
-0.071238
-0.095738
-0.097725
-0.057518
0.082185
-0.029615
-0.014237
-0.019322
-0.110197
-0.012502
0.031176
-0.046089
0.012171
0.041671
-0.084669
0.104536
0.007606
0.054375
0.092290
0.087825
0.058786
0.153250
0.121292
0.139731
0.154576
0.025874
0.047856
0.063309
0.045758
0.029331
-0.019589
0.041603
0.001052
-0.082889
-0.038942
0.037280
-0.130116
-0.106602
-0.067153
-0.034044
-0.065902
-0.062043
-0.154014
-0.088949
-0.116426
-0.067238
-0.145179
-0.051807
-0.063916
-0.156017
-0.091732
-0.057306
-0.081812
-0.039625
-0.081977
-0.014937
0.104736
0.240279
0.591855
1.022048
1.216234
1.334569
1.326973
1.038894
0.681374
0.302313
-0.040430
-0.319526
-0.236900
-0.344535
-0.223487
-0.125478
-0.126795
-0.066241
-0.046354
-0.046713
-0.055255
-0.109197
-0.043973
-0.019335
-0.018932
-0.105006
-0.058542
-0.052787
-0.021063
0.041139
0.057851
-0.021917
0.092972
0.024273
0.117822
0.181895
0.201935
0.151129
0.182058
0.202940
0.320588
0.153434
0.158747
0.277833
0.295396
0.332610
0.376156
0.322434
0.310883
0.410460
0.314201
0.418760
0.436475
0.419748
0.350155
0.393684
0.415436
0.376051
0.454285
0.398311
0.406192
0.401423
0.401522
0.388124
0.371100
0.248249
0.363857
0.327581
0.294425
0.296342
0.210003
0.269241
0.168145
0.077489
0.152822
0.142360
0.021177
0.119105
0.058227
0.057380
0.038701
-0.038060
0.012576
-0.016556
-0.038482
0.018557
0.004390
0.039229
-0.046057
-0.041833
-0.037365
-0.068381
-0.080955
0.046004
-0.039892
-0.100588
-0.084678
-0.073367
-0.076650
-0.090095
-0.097063
-0.063885
-0.032324
-0.085061
-0.045618
-0.045201
-0.074605
-0.123807
-0.031661
-0.019303
-0.114254
-0.146069
-0.101203
-0.151127
-0.119894
-0.042217
-0.156513
-0.016053
0.031277
-0.010519
-0.061460
-0.024399
0.015061
-0.021939
-0.131948
-0.012634
-0.043770
-0.084913
-0.062418
-0.064566
-0.021779
-0.118501
-0.012415
0.019197
-0.069722
-0.056793
-0.062224
-0.099772
-0.089475
-0.040961
-0.072039
-0.038856
-0.056081
-0.061338
-0.023073
0.026462
-0.043764
-0.046127
-0.034151
-0.032626
0.011301
-0.012395
0.011195
0.075522
0.028885
0.054867
0.152611
0.123522
0.102601
0.072978
0.054955
0.146602
0.283622
0.126921
0.124706
0.206447
0.192940
0.113098
0.211429
0.104807
0.132795
0.117971
0.065800
0.109602
0.169380
0.184328
0.019929
0.040381
0.011105
0.027251
-0.000652
-0.005199
0.040262
-0.071070
0.027865
-0.063944
-0.032802
-0.012823
-0.031037
0.027721
-0.071681
-0.043800
-0.020466
-0.074624
-0.032633
-0.001714
-0.039192
0.004545
-0.107650
0.033542
0.272730
0.374780
0.639995
1.027159
1.281392
1.470826
1.309523
1.127108
0.763555
0.301434
0.004237
-0.197574
-0.253361
-0.256843
-0.232428
-0.071763
0.070272
-0.002645
-0.029791
0.007121
0.062614
0.000370
0.115099
0.046187
0.054218
0.031012
0.035973
0.155944
0.154005
0.105699
0.199048
0.185301
0.093737
0.177950
0.136547
0.256369
0.199771
0.413794
0.307069
0.376717
0.319878
0.340594
0.345482
0.538965
0.437785
0.513941
0.462245
0.452264
0.456010
0.525021
0.503191
0.476248
0.601775
0.603846
0.556596
0.563748
0.636732
0.508143
0.532597
0.642124
0.472095
0.433446
0.584215
0.468154
0.462565
0.438343
0.391344
0.464342
0.304259
0.345028
0.359593
0.302696
0.307266
0.194759
0.210647
0.285447
0.205152
0.218072
0.140225
0.293791
0.264826
0.131955
0.132127
0.122793
0.141024
0.118061
0.131848
0.094073
0.143922
0.130133
0.096518
0.097220
-0.060947
0.055942
0.067714
0.073584
0.095398
0.081668
0.098402
0.002055
0.055957
0.004460
0.019896
0.047912
0.079135
0.028870
0.061594
0.052260
0.000024
0.087166
0.085680
0.122307
0.109921
0.015558
0.001183
0.037113
0.046293
0.066204
0.081663
0.049935
0.144949
0.090322
0.070948
0.047341
0.022669
0.014015
0.028219
0.080910
0.047823
0.069841
0.133605
0.004941
0.062850
0.075242
0.044947
0.113780
0.046433
0.088183
0.144843
0.056942
0.073214
0.026945
0.077264
0.116280
0.049257
0.166723
0.100602
0.080474
0.088281
0.050061
0.239132
0.104186
0.061722
0.117366
0.138886
0.163966
0.203162
0.170543
0.217552
0.252425
0.251536
0.180359
0.285722
0.167232
0.294216
0.253116
0.290620
0.289934
0.175911
0.187603
0.195746
0.190219
0.200426
0.196844
0.152971
0.205915
0.238691
0.148767
0.121093
0.125544
0.037996
0.086705
0.066157
0.164511
0.110630
0.121761
0.138317
0.090318
0.056077
0.049006
0.064240
0.020813
0.051724
0.056982
0.028908
0.126198
0.105051
-0.029194
0.026479
0.138297
0.177878
0.583714
0.772849
1.136050
1.382866
1.499884
1.386401
1.173040
0.855221
0.393766
0.054456
-0.045528
-0.160976
-0.201129
-0.107284
-0.001003
0.042177
0.099684
0.070579
0.184178
0.167005
0.140904
0.082434
0.202227
0.161633
