0.068733
0.079212
0.132711
0.109380
0.149796
0.117462
0.114323
0.151982
0.120828
0.231206
0.203946
0.133458
0.172357
0.217309
0.197471
0.319031
0.175769
0.341570
0.281183
0.247649
0.318321
0.272810
0.222506
0.280734
0.446172
0.550400
0.719442
0.913162
1.191902
1.359268
1.403403
1.265219
1.106659
0.826117
0.654571
0.532515
0.468548
0.407102
0.400899
0.501940
0.465002
0.492978
0.449459
0.531626
0.409767
0.518589
0.528981
0.506095
0.534313
0.560348
0.523899
0.552418
0.583184
0.522266
0.596876
0.570437
0.495119
0.468494
0.441840
0.413502
0.406982
0.392679
0.392212
0.329545
0.334687
0.363461
0.312833
0.263202
0.242095
0.241233
0.260991
0.222673
0.201026
0.148222
0.153247
0.165199
0.126022
0.150486
0.165894
0.195625
0.189160
0.146787
0.183899
0.233154
0.274844
0.220119
0.175089
0.210688
0.288787
0.298468
0.253439
0.233386
0.289080
0.409402
0.312383
0.265983
0.378054
0.337750
0.355043
0.449170
0.594538
0.744461
0.987147
1.241874
1.376648
1.471660
1.295052
1.134608
0.882993
0.748953
0.552525
0.543510
0.484944
0.429963
0.533356
0.496999
0.518772
0.535448
0.463121
0.559402
0.610265
0.518149
0.518750
0.602794
0.598460
0.630689
0.587860
0.563385
0.592016
0.518061
0.483727
0.526068
0.493672
0.528691
0.465470
0.471724
0.396465
0.476582
0.387567
0.436863
0.270040
0.334929
0.388632
0.358560
0.296740
0.273719
0.236714
0.221317
0.251487
0.279932
0.196910
0.172921
0.189808
0.123981
0.245360
0.158690
0.182825
0.180702
0.257820
0.146709
0.272270
0.269399
0.243373
0.203724
0.355405
0.268015
0.309724
0.318750
0.280014
0.230836
0.420883
0.367274
0.359596
0.455432
0.557888
0.646780
0.832995
0.966880
1.132999
1.400804
1.433584
1.382764
1.076133
0.986056
0.705404
0.614523
0.598380
0.507429
0.503257
0.440911
0.591302
0.558519
0.515826
0.531932
0.602497
0.515794
0.725184
0.620144
0.637153
0.610728
0.630337
0.609028
0.546046
0.675154
0.532674
0.526806
0.558375
0.558965
0.553153
0.461340
0.481364
0.460555
0.436882
0.450285
0.344317
0.372294
0.355662
0.460939
0.313270
0.242909
0.294154
0.346496
0.169228
0.251313
0.252807
0.068724
0.163384
0.181213
0.180476
0.263788
0.176762
0.205722
0.230351
0.281074
0.286336
0.254537
0.248069
0.228135
0.289903
0.220012
0.353783
0.350536
0.321425
0.340736
0.377409
0.314209
0.314215
0.378241
0.471467
0.508240
0.567374
0.771581
1.006319
1.191956
1.391220
1.448398
1.270446
1.146122
0.892095
0.703418
0.707408
0.513562
0.502302
0.447041
0.576671
0.527137
0.449854
0.586104
0.559254
0.633399
0.599928
0.619891
0.584402
0.646276
0.596926
0.618215
0.603550
0.555010
0.579282
0.538422
0.572017
0.561607
0.536500
0.470676
0.492129
0.494260
0.391000
0.446019
0.438177
0.367347
0.359116
0.309815
0.350772
0.286373
0.315471
0.271090
0.237066
0.205920
0.178293
0.276357
0.153972
0.162242
0.190822
0.207550
0.186514
0.187126
0.201232
0.174647
0.172842
0.269997
0.292792
0.228139
0.265133
0.297935
0.236069
0.375628
0.314248
0.281031
0.305951
0.247510
0.370005
0.358084
0.396872
0.403534
0.462311
0.587579
0.845234
0.990701
1.217252
1.370804
1.370542
1.259377
1.086022
0.809471
0.685712
0.516920
0.540127
0.453733
0.549352
0.474951
0.512112
0.535583
0.570087
0.535153
0.473062
0.586801
0.525273
0.506705
0.501267
0.554334
0.499765
0.647912
0.586732
0.614190
0.552901
0.500790
0.489631
0.371617
0.427695
0.479640
0.454429
0.405770
0.435261
0.352751
0.372539
0.257309
0.366861
0.287756
0.241296
0.296926
0.233119
0.201371
0.197846
0.273951
0.146670
0.138881
0.034576
0.046642
0.130788
0.091794
0.189217
0.102425
0.148271
0.095242
0.190902
0.172643
0.208367
0.131860
0.159739
0.280348
0.228723
0.219091
0.243789
0.255731
0.226255
0.243511
0.299361
0.270500
0.309775
0.465160
0.528962
0.730397
0.939942
1.076075
1.278418
1.399081
1.274594
0.988010
0.826035
0.704474
0.575199
0.434415
0.529473
0.464295
0.452888
0.387352
0.484082
0.448319
0.468163
0.482023
0.554779
0.526073
0.509425
0.596737
0.493240
0.536310
0.536671
0.559699
0.485366
0.567326
0.439454
0.443491
0.426896
0.422898
0.462958
0.431553
0.424734
0.352501
0.240317
0.306716
0.273144
0.299571
0.209948
0.171708
0.237098
0.152732
0.226422
0.172091
0.095940
0.052710
0.076650
0.050309
0.033373
0.041461
0.048185
0.168617
0.121782
0.126586
0.131002
0.131892
0.157013
0.174202
0.295379
0.230158
0.200125
0.237824
0.243717
0.208061
0.219446
0.303019
0.163188
0.233252
0.211688
0.308947
0.425592
0.477285
0.685358
0.908247
1.089230
1.301801
1.389426
1.243477
1.018184
0.858734
0.600920
0.601791
0.363938
0.328710
0.372351
0.475464
0.445536
0.464050
0.384598
0.487495
0.385890
0.516433
0.501306
0.439625
0.539074
0.499774
0.413714
0.433637
0.545177
0.455430
0.463501
0.441720
0.354483
0.398799
0.337896
0.355571
0.380168
0.331076
0.277197
0.265869
0.306839
0.264255
0.236993
0.188945
0.140148
0.098213
0.178503
0.184190
0.143619
0.145172
0.157111
-0.024011
0.116906
0.066146
0.045889
0.051504
0.132323
0.142111
0.043610
0.127095
0.064391
0.146255
0.122906
0.199610
0.207013
0.053543
0.201856
0.211977
0.212036
0.144228
0.162319
0.167461
0.284046
0.245579
0.336670
0.325668
0.469715
0.711978
0.866495
1.110713
1.267152
1.239846
1.271970
0.932666
0.806700
0.614063
0.456504
0.381959
0.406778
0.346863
0.394542
0.448430
0.355541
0.343296
0.464418
0.564682
0.449669
0.480276
0.528114
0.469194
0.442803
0.461181
0.532759
0.451286
0.366720
0.401529
0.415117
0.361700
0.388466
0.350451
0.353834
0.374633
0.356811
0.304335
0.298407
0.289643
0.271590
0.237660
0.163228
0.208769
0.119419
0.162398
0.129719
0.128045
0.093836
0.128234
0.029327
0.024542
0.023011
0.004157
0.002053
0.101452
0.037064
0.058788
0.133342
0.164430
0.235442
0.108066
0.204894
0.176500
0.183915
0.134213
0.167478
0.206914
0.152729
0.204981
0.222028
0.187007
0.256825
0.309584
0.346441
0.481202
0.672511
0.900725
1.141012
1.334100
1.320983
1.282844
0.990017
0.753790
0.633447
0.472469
0.437272
0.382095
0.399141
0.380284
0.401302
0.430450
0.410672
0.446856
0.448104
0.487703
0.497118
0.403705
0.418596
0.434516
0.471580
0.555795
0.490501
0.493576
0.452161
0.471128
0.469327
0.379796
0.363664
0.363408
0.407243
0.361899
0.271619
0.261226
0.225022
0.187825
0.243029
0.215580
0.191885
0.175381
0.134819
0.188269
0.100128
0.142195
0.035715
0.103193
0.117113
0.109067
0.039994
0.130541
0.145209
0.159442
0.140664
0.133100
0.132158
0.210383
0.129194
0.139123
0.157586
0.211949
0.175077
0.293752
0.275010
0.276372
0.294505
0.209074
0.299159
0.323011
0.371741
0.393757
0.526128
0.782769
0.911550
1.189534
1.419984
1.344784
1.290718
1.010561
0.812144
0.648382
0.506717
0.517504
0.376389
0.462085
0.456131
0.547332
0.571905
0.396222
0.506061
0.496800
0.507422
0.464614
0.520799
0.478438
0.572533
0.513020
0.539053
0.541278
0.522973
0.515213
0.477802
0.522947
0.347343
0.453266
0.471475
0.428453
0.437594
0.319657
0.357832
0.210545
0.331310
0.297489
0.240769
0.249222
0.203479
0.129413
0.214225
0.131334
0.189042
0.246309
0.038341
0.103947
0.180067
0.083868
0.155678
0.110774
0.147126
0.112152
0.195351
0.208274
0.186383
0.196427
0.248193
0.219716
0.154015
0.282961
0.270536
0.335237
0.240071
0.279867
0.342117
0.254339
0.292230
0.376364
0.436479
0.629025
0.730754
0.968322
1.202582
1.417801
1.500000
1.312266
1.139651
0.899981
0.616038
0.549613
0.494197
0.478516
0.447124
0.494173
0.501603
0.529835
0.453319
0.457843
0.572573
0.596534
0.535975
0.568974
0.561990
0.564563
0.633029
0.594559
0.592365
0.611356
0.536680
0.578017
0.543730
0.508362
0.475271
0.524283
0.488262
0.407146
0.419333
0.319010
0.342144
0.348847
0.327163
0.306329
0.212686
0.237977
0.354622
0.217493
0.181031
0.127115
0.218008
0.090997
0.103547
0.131600
0.246060
0.120235
0.157605
0.214807
0.248431
0.293076
0.275319
0.244621
0.215366
0.234704
0.288199
0.238631
0.237714
0.354527
0.239293
0.344724
0.321885
0.330015
0.346464
0.352622
0.383354
0.452696
0.632559
0.766426
0.964884
1.227895
1.380843
1.392727
1.337629
1.057572
0.997378
0.716320
0.616273
0.586819
0.505345
0.501729
0.517594
0.559182
0.556048
0.517475
0.608519
0.545566
0.529960
0.468173
0.618961
0.593669
0.563107
0.598874
0.597288
0.545022
0.530415
0.610911
0.587741
0.507364
0.511263
0.493353
0.449700
0.416122
0.456842
0.477464
0.432579
0.342113
0.407453
0.387869
0.373298
0.282334
0.315372
0.255372
0.309732
0.187626
0.240857
0.153267
0.142703
0.206549
0.165010
0.193070
0.197274
0.176490
0.120839
0.187418
0.278642
0.138904
0.205025
0.263806
0.291773
0.343007
0.272632
0.287913
0.272139
0.341090
0.325250
0.337121
0.423021
0.309176
0.436131
0.378193
0.446398
0.612314
0.764225
0.984241
1.206681
1.391754
1.439998
1.381573
1.178464
0.890641
0.724361
0.591979
0.487798
0.485218
0.570698
0.608073
0.576846
0.522189
0.497274
0.480993
0.558720
0.580756
0.685310
0.641819
0.671518
0.563429
0.575093
0.573565
0.581953
0.595537
0.610537
0.607899
0.548469
0.540003
0.588317
0.493191
0.435816
0.564612
0.370245
0.422212
0.420593
0.399564
0.377987
0.301698
0.285905
0.223622
0.315641
0.287360
0.219168
0.204757
0.179759
0.168388
0.216303
0.223569
0.216319
0.317750
0.197400
0.191829
0.250344
0.283831
0.245871
0.251717
0.325609
0.303939
0.259715
0.283443
0.308481
0.345064
0.283692
0.346739
0.288443
0.364571
0.259449
0.292846
0.430043
0.454736
0.588418
0.796443
1.031127
1.229336
1.399622
1.392548
1.415119
1.140527
0.867130
0.754623
0.540675
0.567466
0.459606
0.455088
0.564848
0.514919
0.481802
0.562047
0.544153
0.577883
0.564700
0.483313
0.610938
0.603025
0.570481
0.550296
0.524458
0.589769
0.566476
0.495417
0.562731
0.461488
0.564851
0.537985
0.493872
0.520627
0.332090
0.431082
0.395513
0.287291
0.336592
0.351670
0.289667
0.282473
0.304235
0.197697
0.245705
0.254684
0.309526
0.178278
0.084850
0.071726
0.131659
0.171239
0.207906
0.126198
0.223624
0.218497
0.149038
0.209760
0.210778
0.342178
0.249195
0.226848
0.281243
0.172758
0.348214
0.310226
0.317452
0.247392
0.330168
0.322823
0.322157
0.310732
0.464510
0.606030
0.664743
1.033621
1.187487
1.249279
1.398892
1.277115
1.036471
0.883314
0.649959
0.653398
0.499804
0.428971
0.399596
0.431052
0.487985
0.454395
0.554934
0.488487
0.571727
0.526303
0.522978
0.612383
0.524118
0.505749
0.513058
0.478336
0.480752
0.479917
0.491107
0.576345
0.513364
0.407448
0.472354
0.451885
0.405974
0.360146
0.341013
0.311172
0.292320
0.359459
0.310743
0.241999
0.142610
0.237164
0.178061
0.211848
0.187666
0.094945
0.053174
0.048908
0.153830
0.078344
0.085551
0.061960
0.129093
0.203307
0.184431
0.111189
0.223574
0.200790
0.195664
0.252943
0.208068
0.162884
0.268532
0.282083
0.263444
0.228438
0.294897
0.254922
0.174434
0.265850
0.348863
0.421436
0.645508
0.617296
0.972388
1.077100
1.351688
1.312142
1.186149
1.020241
0.760760
0.701767
0.518376
0.455581
0.447926
0.453330
0.550036
0.525637
0.499566
0.441403
0.451511
0.528173
0.484216
0.516320
0.448700
0.577636
0.446341
0.455467
0.544430
0.482674
0.448264
0.490697
0.539759
0.487464
0.447690
0.463197
0.338613
0.352777
0.364172
0.335654
0.258241
0.263143
0.293975
0.240966
0.211269
0.228178
0.250598
0.222208
0.043649
0.034317
0.081717
0.121524
0.026471
-0.003605
-0.001840
0.037349
0.086398
0.124293
0.079155
0.138176
0.062410
0.100135
0.178687
0.151397
0.156574
0.231756
0.121047
0.217352
0.149151
0.186455
0.247192
0.171187
0.196500
0.244815
0.296974
0.313640
0.400738
0.473538
0.645373
0.889990
1.067280
1.272543
1.321564
1.143799
1.085214
0.768490
0.613678
0.505428
0.303252
0.318530
0.388435
0.409696
0.274653
0.392982
0.421336
0.457211
0.388662
0.411752
0.422685
0.367344
0.402257
0.424322
0.437476
0.376316
0.428917
0.451432
0.390477
0.452099
0.420267
0.273032
0.291806
0.352278
0.324989
0.284852
0.279884
0.177366
0.305903
0.152235
0.189483
0.122238
0.213265
0.024038
0.157551
0.063797
0.164016
0.072886
0.098704
0.044817
-0.114330
0.041935
0.006278
0.054415
0.030105
0.030121
0.122198
0.043365
0.119396
0.089060
0.129144
0.191060
0.142146
0.181740
0.077446
0.183406
0.125957
0.210691
0.160835
0.176214
0.224852
0.247710
0.309208
0.297705
0.502337
0.620560
0.943174
1.098393
1.311268
1.293875
1.149930
0.999523
0.716637
0.603790
0.445839
0.385538
0.463597
0.405578
0.388339
0.370410
0.368541
0.339849
0.442032
0.361298
0.392316
0.435824
0.443715
0.390381
0.378348
0.484825
0.536670
0.456154
0.446902
0.479464
0.402706
0.375386
0.362886
0.275487
0.307015
0.300240
0.215126
0.216613
0.248801
0.253430
0.272629
0.208930
0.085971
0.121441
0.157995
0.115339
0.174150
0.050279
0.066664
0.030372
0.023849
-0.031757
-0.016357
0.045176
0.059392
0.042918
-0.003687
0.146803
0.080429
0.150357
0.107112
0.153437
0.103984
0.130367
0.110212
0.141696
0.178755
0.185520
0.145513
0.068820
0.193357
0.273282
0.227601
0.252706
0.338811
0.467223
0.719017
0.823800
1.152344
1.171613
1.258601
1.198194
0.922710
0.831764
0.512404
0.369796
0.411280
0.355519
0.324074
0.287702
0.376953
0.341455
0.401786
0.309929
0.301146
0.448455
0.374284
0.480817
0.403279
0.352337
0.474197
0.425139
0.417159
0.408955
0.443252
0.404697
0.403502
0.381371
0.393667
0.335229
0.298622
0.311861
0.187057
0.256103
0.246404
0.332180
0.158259
0.261273
0.176918
0.138556
0.123848
0.148655
0.058644
-0.002588
0.098558
0.037299
0.026203
0.000342
0.004724
0.132831
0.064728
0.090612
0.050778
0.085969
0.130722
0.129405
0.060566
0.113067
0.125046
0.239025
0.121295
0.143987
0.121459
0.241351
0.193894
0.190342
0.204731
0.217126
0.295363
0.414582
0.547441
0.674094
0.801431
1.132490
1.282225
1.338725
1.201136
1.020200
0.758702
0.594363
0.448770
0.419122
0.316619
0.421773
0.377180
0.403565
0.398821
0.401233
0.351311
0.486463
0.472262
0.464298
0.453860
0.450305
0.549134
0.428562
0.467976
0.464527
0.448850
0.485610
0.448751
0.328376
0.392333
0.391902
0.400377
0.414315
0.332616
0.291558
0.240549
0.328217
0.230505
0.207782
0.221875
0.265089
0.178563
0.206035
0.044846
0.093640
0.076974
0.190840
0.007581
0.130273
-0.097381
0.074006
-0.014652
0.071440
0.071287
0.191106
0.111988
0.219679
0.184838
0.188912
0.151417
0.145978
0.239385
0.211431
0.235851
0.239785
0.226481
0.175769
0.187691
0.321194
0.238427
0.286262
0.403100
0.535846
0.678341
0.957394
1.150005
1.417322
1.339020
1.172786
1.017058
0.772756
0.601504
0.581754
0.438869
0.445205
0.356626
0.409781
0.511410
0.427696
0.467554
0.462827
0.508140
0.443890
0.507587
0.562399
0.415424
0.568139
0.568236
0.566721
0.428178
0.542764
0.464005
0.453054
0.505995
0.534225
0.391658
0.428189
0.388146
0.324642
0.390615
0.277700
0.370838
0.370049
0.302605
0.272180
0.204563
0.168417
0.197698
0.244124
0.144343
0.136960
0.147916
0.028806
0.100922
0.095782
0.107717
0.141427
0.174932
0.167862
0.183416
0.217915
0.170718
0.207516
0.174515
0.314802
0.142320
0.169678
0.208284
0.202938
0.331377
0.270945
0.324630
0.249467
0.317579
0.332634
0.398312
0.497270
0.608584
0.664644
0.931137
1.075429
1.317133
1.374519
1.283757
1.147192
0.918739
0.717576
0.567062
0.456435
0.523545
0.519904
0.460502
0.514715
0.483165
0.489084
0.514114
0.491228
0.575255
0.603530
0.489352
0.593212
0.502406
0.635908
0.568872
0.567988
0.494793
0.521387
0.488577
0.514510
0.542907
0.478420
0.478677
0.412953
0.499217
0.360797
0.412176
0.381323
0.398848
0.366196
0.292906
0.255805
0.237376
0.200315
0.167994
0.220201
0.204122
0.220941
0.107856
0.050966
0.124343
0.173367
0.138639
0.133187
0.080783
0.152354
0.235631
0.117928
0.267421
0.203997
0.225549
0.314398
0.208862
0.176279
0.270576
0.291754
0.270885
0.302817
0.273458
0.296912
0.331548
0.278212
0.432062
0.641096
0.822535
1.039159
1.136402
1.189683
1.403351
1.343768
1.089644
0.963978
0.694916
0.571748
0.461177
0.425827
0.493661
0.450847
0.472708
0.529356
0.632628
0.551874
0.567124
0.505751
0.509802
0.549658
0.636113
0.636391
0.583143
0.511272
0.549008
0.574909
0.530838
0.547263
0.516763
0.472904
0.451842
0.443580
0.405992
0.364554
0.380622
0.422302
0.253863
0.347457
0.372518
0.296350
0.239544
0.233882
0.253168
0.307372
0.186136
0.183805
0.219436
0.057050
0.089660
0.143402
0.116446
0.158003
0.087862
0.157808
0.219745
0.183249
0.202722
0.173744
0.262228
0.246864
0.192513
0.339742
0.183500
0.215330
0.224235
0.326897
0.258990
0.328307
0.265572
0.307453
0.370074
0.441926
0.570226
0.741623
0.961090
1.165203
1.371651
1.433937
1.285909
1.059342
0.843297
0.650733
0.533933
0.521544
0.462939
0.483720
0.460072
0.547942
0.571110
0.605362
0.485004
0.513563
0.522669
0.435685
0.558793
0.553452
0.529559
0.637213
0.573068
0.552670
0.554637
0.558797
0.478348
0.519876
0.534889
0.463512
0.376034
0.464227
0.359952
0.322805
0.414255
0.318888
0.243541
0.392587
0.297849
0.198156
0.241440
0.186078
0.103958
0.194439
0.193889
0.059197
0.109888
-0.051285
0.158941
0.143549
0.047657
0.179489
0.118914
0.087985
0.148686
0.207237
0.206778
0.124256
0.063128
0.259684
0.247472
0.179611
0.202783
0.251399
0.174443
0.200041
0.274848
0.204911
0.384551
0.384161
0.450857
0.519437
0.695591
0.989894
1.199118
1.306622
1.372209
1.221194
1.046305
0.882103
0.607606
0.478507
0.455762
0.489353
0.463165
0.346689
0.467077
0.475441
0.555996
0.539562
0.545056
0.597967
0.550048
0.460161
0.445464
0.437692
0.546438
0.473674
0.480112
0.522850
0.470553
0.451450
0.426562
0.408555
0.434352
0.354879
0.372189
0.349037
0.337680
0.343900
0.340796
0.343037
0.241756
0.228969
0.253136
0.227575
0.178370
0.120113
0.079364
0.158423
0.120964
0.017600
0.059838
0.038114
0.122435
0.136132
0.154482
0.167577
0.081622
0.136483
0.044778
0.182385
0.184728
0.117927
0.169546
0.149762
0.167209
0.175709
0.200827
0.117674
0.183425
0.267191
0.250379
0.262934
0.346655
0.378715
0.538131
0.655774
0.941444
1.040740
1.227005
1.323719
1.172819
0.971549
0.832977
0.644735
0.459411
0.382599
0.416752
0.460390
0.391088
0.352140
0.419086
0.389292
0.466557
0.457743
0.456186
0.460825
0.546568
0.496768
0.478434
0.470809
0.419356
0.539898
0.526373
0.416739
0.454326
0.422030
0.347726
0.340211
0.327585
0.364023
0.356962
0.344553
0.242791
0.216013
0.224638
0.186208
0.131070
0.165280
0.171722
0.095450
0.096408
0.119018
0.076744
0.089389
-0.072881
0.018633
0.021890
0.042569
0.020417
0.009945
-0.012166
0.094720
-0.004075
0.055959
0.159153
0.244267
0.160743
0.159875
0.077103
0.145342
0.132686
0.166270
0.154169
0.114759
0.154403
0.197128
0.237765
0.210974
0.334048
0.417153
0.653323
0.821612
1.052294
1.191928
1.236553
1.198399
0.976061
0.742769
0.561498
0.383425
0.383328
0.317862
0.326438
0.309496
0.433265
0.365011
0.413428
0.405389
0.365786
0.480545
0.408377
0.396295
0.452637
0.559159
0.455978
0.528342
0.452020
0.384432
0.337417
0.473316
0.369257
0.302205
0.421102
0.378054
0.313002
0.330212
0.254987
0.215952
0.267174
0.232773
0.276184
0.086543
0.121759
0.113661
0.142642
0.143914
0.035966
0.051253
0.006514
-0.062570
-0.063580
0.003673
0.044943
0.051068
0.101521
0.056950
0.043520
0.095823
0.107981
0.120873
0.112496
0.126491
0.121171
0.076843
0.119054
0.151613
0.130039
0.152120
0.215095
0.115645
0.163289
0.171348
0.225736
0.224739
0.415594
0.602947
0.902935
1.041615
1.124198
1.246431
1.095902
0.963031
0.782831
0.486063
0.330537
0.284827
0.293747
0.444400
0.351264
0.322706
0.370285
0.345159
0.355792
0.474875
0.402405
0.371694
0.407747
0.419469
0.478844
0.421486
0.407569
0.383492
0.308276
0.402037
0.386577
0.431443
0.337412
0.283473
0.195888
0.260084
0.268438
0.299098
0.262513
0.264916
0.264352
0.179799
0.180953
0.054569
0.087945
0.119618
0.083473
0.022901
0.079032
0.041545
-0.059952
0.012550
-0.012358
-0.087659
0.035181
0.030586
0.020123
0.031504
0.136197
0.130473
0.080566
0.083702
0.038561
0.116443
0.125884
0.114860
0.069846
0.107966
0.130393
0.109815
0.179587
0.169035
0.238961
0.210898
0.382804
0.453539
0.613796
0.854024
1.026966
1.246813
1.268736
1.125138
0.966795
0.757196
0.543427
0.510821
0.356293
0.349376
0.326209
0.380263
0.300538
0.369311
0.318566
0.451474
0.466108
0.401141
0.409492
0.437773
0.442574
0.462736
0.449808
0.470193
0.365054
0.453539
0.382394
0.421991
0.447198
0.399677
0.338695
0.209113
0.313881
0.247206
0.275533
0.256184
0.279189
0.175482
0.243846
0.120241
0.143556
0.100122
0.101372
0.034593
0.020535
0.060218
0.049525
-0.004832
-0.084192
-0.005350
0.007033
0.030985
-0.010587
0.083392
-0.029122
0.149020
0.053668
0.110010
0.115222
0.149436
0.197409
0.162267
0.133216
0.206702
0.147358
0.160722
0.250858
0.132090
0.198570
0.273234
0.250252
0.411365
0.438372
0.654400
0.803017
1.169211
1.238980
1.245356
1.214286
1.033551
0.761279
0.674379
0.482865
0.398347
0.361633
0.425388
0.397052
0.382392
0.464329
0.460591
0.480891
0.460975
0.480822
0.454840
0.418718
0.513522
0.501911
0.498189
0.376023
0.334681
0.414583
0.457452
0.338971
0.432141
0.381640
0.343844
0.321340
0.355018
0.339823
0.296092
0.271304
0.319565
0.232866
0.203219
0.252102
0.244677
0.209209
0.109650
0.226548
0.097778
0.129835
0.114964
0.050219
0.043961
0.082570
0.045704
0.175055
0.125059
0.100088
0.118051
0.156199
0.128552
0.094596
0.089558
0.178215
0.182717
0.128026
0.134696
0.162998
0.153301
0.222663
0.195232
0.213851
0.293761
0.327740
0.305020
0.340617
0.567083
0.730305
0.997902
1.114735
1.303390
1.311607
1.252920
1.042828
0.777380
0.596297
0.561542
0.499264
0.531905
0.470197
0.429988
0.549315
0.382090
0.502200
0.442613
0.526235
0.533262
0.584009
0.502326
0.565507
0.426168
0.563051
0.499942
0.482918
0.540318
0.484803
0.516516
0.568776
0.430376
0.402673
0.416924
0.303537
0.362267
0.387279
0.321064
0.285013
0.330678
0.250765
0.340699
0.231466
0.198378
0.255274
0.185169
0.219480
0.165892
0.121547
0.123310
0.059046
0.138478
0.062386
0.143013
0.119998
0.136502
0.158135
0.171152
0.247753
0.186265
0.175382
0.242036
0.286521
0.273596
0.251752
0.245574
0.244503
0.265114
0.276622
0.300617
0.207877
0.356797
0.393253
0.476494
0.609561
0.766814
1.008383
1.238677
1.415746
1.344286
1.264923
1.132415
0.935741
0.680435
0.527726
0.475821
0.547333
0.425579
0.403415
0.443341
0.528363
0.545602
0.542597
0.460122
0.587308
0.511927
0.517203
0.741066
0.565003
0.565207
0.505131
0.544468
0.554224
0.598597
0.510939
0.453003
0.537398
0.513525
0.514540
0.382643
0.386556
0.411728
0.331933
0.466074
0.326290
0.284885
0.295409
0.353146
0.284764
0.249503
0.218285
0.165466
0.121098
0.170887
0.078880
0.138792
0.142693
0.106993
0.192046
0.187800
0.239980
0.194708
0.216436
0.219553
0.225425
0.310484
0.305352
0.325227
0.275338
0.178026
0.237675
0.238946
0.348270
0.317899
0.318811
0.352749
0.344853
0.451426
0.437226
0.566705
0.874897
1.033018
1.283285
1.382917
1.458105
1.264215
1.104947
0.926203
0.821509
0.629208
0.497049
0.452452
0.467492
0.451118
0.504266
0.487542
0.589499
0.540424
0.503015
0.625846
0.556627
0.648756
0.570208
0.537243
0.615816
0.619475
0.546060
0.537130
0.491245
0.503625
0.505949
0.517962
0.464435
0.476410
0.528917
0.429924
0.430940
0.394517
0.311716
0.305267
0.303827
0.307772
0.378421
0.222370
0.267180
0.223527
0.281332
0.239089
0.205202
0.125153
0.138887
0.185813
0.133203
0.229853
0.189937
0.155202
0.245037
0.196954
0.314450
0.319726
0.273842
0.256976
0.264985
0.260621
0.297762
0.251195
0.200288
0.366327
0.242511
0.289732
0.412985
0.353286
0.423539
0.557452
