0.020260
-0.026504
-0.061773
0.082170
0.051137
-0.053296
0.072785
0.042320
0.021512
-0.034946
0.065517
0.082073
0.096075
-0.016071
0.059545
-0.054871
0.012337
-0.018087
-0.004375
0.095604
0.064536
0.104069
-0.018944
0.068192
0.055355
0.027805
0.084068
0.045274
0.080765
0.095276
0.110537
0.050037
0.071968
0.097656
0.143899
0.156678
0.179640
0.175988
0.244953
0.214173
0.164911
0.285323
0.153424
0.194482
0.155865
0.242651
0.239216
0.268847
0.185058
0.187011
0.190333
0.199979
0.105131
0.140386
0.087179
0.106877
0.120573
0.118454
0.101139
0.153189
0.068751
0.060173
0.121000
0.115757
-0.004264
-0.003963
0.039282
0.084479
0.076206
0.066150
0.006824
-0.002520
0.121997
-0.086748
0.018263
-0.004303
0.068156
0.052376
-0.017427
0.058616
-0.014087
-0.020220
0.048276
0.205411
0.353766
0.706988
1.033920
1.314484
1.497287
1.409104
1.183222
0.922814
0.523935
0.250552
-0.037126
-0.168409
-0.195987
-0.203105
-0.072406
-0.067912
0.018918
0.120654
0.120528
0.068553
0.018206
0.095903
0.096779
0.143466
0.059306
0.180069
0.123829
0.105523
0.075019
0.158303
0.168961
0.084693
0.260441
0.207937
0.136601
0.242183
0.208045
0.189883
0.319602
0.264018
0.295547
0.322365
0.363757
0.451922
0.443364
0.417497
0.445026
0.414777
0.471838
0.501547
0.588972
0.515662
0.589299
0.568458
0.582781
0.646111
0.546017
0.576529
0.569765
0.575858
0.611611
0.650515
0.615527
0.723560
0.541836
0.551676
0.551449
0.372167
0.523213
0.625275
0.472782
0.487218
0.462618
0.393540
0.361930
0.471453
0.328150
0.245844
0.374974
0.198830
0.291649
0.245908
0.245533
0.297572
0.275760
0.167452
0.189904
0.163168
0.130639
0.141793
0.161872
0.119736
0.198516
0.189786
0.123012
0.026235
0.189977
0.143808
0.080448
0.155851
0.060696
0.148143
0.086939
0.079589
0.129070
0.206496
0.068098
0.098743
0.103470
0.127894
0.109430
0.128452
0.062242
0.053524
0.057910
0.144962
0.103235
0.077054
0.015488
0.120506
0.088808
0.050186
0.169376
0.170806
0.169807
0.087316
0.049290
0.064504
0.051091
0.056950
0.057502
0.116917
0.098053
0.101991
0.057441
0.184326
0.054273
0.043711
0.109137
0.130385
0.016516
0.095548
0.102997
0.095491
0.025190
0.080419
0.055007
0.013825
0.082337
0.089953
0.084024
0.087050
0.100717
0.076959
0.172785
0.073201
0.050945
0.109247
0.176255
0.074255
0.118266
0.134647
0.143704
0.122399
0.008772
0.162167
0.111344
0.152584
0.181605
0.162497
0.143283
0.111198
0.288478
0.206235
0.265091
0.255430
0.215556
0.229632
0.308581
0.236088
0.238026
0.300607
0.172107
0.311447
0.271216
0.200428
0.185739
0.221397
0.248580
0.179127
0.169375
0.255827
0.193233
0.228417
0.101463
0.115242
0.098534
0.131218
0.049662
0.103794
0.070049
0.077024
0.127163
0.062800
0.067987
0.045722
0.111413
0.061646
0.039347
0.099752
0.032388
0.083853
0.071421
0.044295
0.006216
0.096599
-0.020020
0.042553
0.017878
0.075214
0.226303
0.539516
0.799467
1.130858
1.336275
1.441355
1.379964
1.142612
0.629876
0.397029
0.129903
-0.124355
-0.221702
-0.205585
-0.130271
-0.106408
0.006178
0.047839
0.056164
0.095552
0.048941
0.099778
0.116150
0.127082
0.025316
0.105071
0.033765
0.090821
0.074752
0.185163
0.077367
0.126027
0.129346
0.108470
0.119422
0.163719
0.191300
0.148720
0.217901
0.207167
0.248853
0.264434
0.285980
0.280088
0.370503
0.391924
0.350528
0.406385
0.367125
0.414486
0.448293
0.472221
0.524170
0.518013
0.477543
0.514807
0.585944
0.569010
0.553493
0.487954
0.545715
0.547202
0.536547
0.507541
0.497818
0.481068
0.476192
0.490276
0.442746
0.432081
0.367037
0.354264
0.447441
0.372437
0.391117
0.315241
0.326170
0.289189
0.259559
0.192306
0.224936
0.205504
0.198536
0.238476
0.115919
0.191026
0.205463
0.143287
0.124999
0.137748
0.141916
0.082026
0.060164
0.129401
0.012909
0.014107
0.061830
-0.090866
0.052754
0.017830
0.059356
-0.023493
0.028758
0.022677
-0.099498
0.058672
0.002279
-0.035810
0.024277
-0.013617
-0.008554
0.043169
-0.102039
0.064136
0.006183
-0.029558
-0.018724
0.011649
0.039788
0.053089
-0.025429
0.050468
-0.169234
0.069971
-0.029768
-0.001081
-0.075349
-0.003330
0.021300
0.025419
0.084673
0.000338
0.039787
0.003672
0.002201
-0.000896
-0.001739
0.026226
-0.027341
0.063584
-0.001343
0.007802
-0.011137
-0.016287
-0.013450
-0.059751
-0.107093
-0.022111
-0.114672
0.000866
0.015577
-0.001266
-0.054411
0.000879
0.002485
-0.038056
-0.011455
0.056869
0.003092
-0.019734
-0.056096
0.067255
-0.027063
0.008142
-0.114267
0.134122
0.052315
0.014501
0.051998
0.063671
-0.005893
0.115648
0.085175
0.084213
0.212759
0.109973
0.062652
0.089275
0.193770
0.119540
0.280818
0.158446
0.132851
0.115032
0.119411
0.104029
0.116547
0.144750
0.173503
0.129383
0.125741
0.110040
0.084746
0.091981
0.058506
0.064675
0.050559
0.061241
0.043844
0.101627
-0.085884
-0.013296
-0.050743
0.009174
-0.011141
-0.068849
-0.104057
-0.036755
0.043259
-0.035385
-0.118877
-0.007870
-0.019546
-0.054605
-0.017375
0.006269
-0.102372
-0.001107
-0.049406
-0.062150
0.051157
0.218936
0.529819
0.850192
1.155611
1.401910
1.283144
1.098019
0.842759
0.438874
0.091910
-0.163865
-0.221941
-0.307108
-0.237730
-0.216574
-0.125277
-0.144187
0.071835
-0.079596
-0.005481
-0.010180
-0.064676
0.002292
-0.053394
0.008616
-0.053728
-0.003356
-0.003458
0.008623
0.035788
0.078670
0.030866
0.021852
0.052783
0.037716
0.194532
0.154088
0.076568
0.094699
0.136629
0.116291
0.155247
0.191762
0.250512
0.225436
0.197165
0.309541
0.330358
0.317476
0.451795
0.345978
0.426073
0.418746
0.442588
0.442330
0.442100
0.395631
0.501206
0.445521
0.503892
0.390172
0.475645
0.398170
0.489503
0.443865
0.468619
0.368715
0.450045
0.407824
0.470510
0.424167
0.323079
0.350065
0.337108
0.276677
0.263894
0.182789
0.158545
0.185854
0.118054
0.181176
0.146532
0.170718
0.092306
0.098140
0.067882
0.045120
0.072629
0.087855
0.060336
-0.022316
0.002965
0.037851
-0.007324
0.008821
0.009761
-0.015708
-0.008623
0.006863
0.063114
-0.037648
-0.036967
-0.108876
-0.056385
0.079724
-0.072350
-0.055876
-0.035071
0.002163
-0.000159
-0.037494
-0.031153
-0.012681
-0.064329
-0.005754
0.051849
-0.000286
0.014101
0.037085
0.035563
-0.011542
-0.099792
-0.037496
-0.102038
-0.084851
-0.072099
-0.136981
-0.063365
0.029843
0.000265
-0.077746
0.013996
-0.092178
-0.052191
-0.051558
0.064422
0.007367
-0.058869
0.021387
0.037662
0.012263
-0.102565
-0.034611
-0.063514
0.001767
0.041860
-0.078551
-0.025654
0.006732
-0.035540
-0.041121
-0.010261
0.047348
-0.029287
0.071596
-0.022586
0.026252
-0.045120
-0.012206
-0.021063
-0.020125
0.010431
0.077663
-0.028214
0.002301
0.066751
0.042053
0.075577
0.046601
0.083160
0.143984
0.193035
0.042875
0.087557
0.124453
0.059651
0.185316
0.148717
0.109943
0.178540
0.092920
0.172558
0.190660
0.184895
0.208567
0.110895
0.120981
0.177616
0.116617
0.145142
0.165984
0.062631
0.057983
0.053536
0.078260
0.108073
0.079711
0.084139
0.073513
0.059160
0.106046
-0.024167
0.105169
0.099740
-0.000845
0.074917
0.094414
-0.040018
0.039690
0.026750
0.006635
0.015461
-0.049084
0.019960
0.004478
0.002875
0.001217
0.029627
-0.032266
0.106413
0.121650
0.511582
0.738151
1.103153
1.302471
1.382860
1.391017
1.084449
0.760104
0.467777
0.051703
-0.110099
-0.191294
-0.286228
-0.098853
-0.082779
-0.037165
-0.004884
-0.055674
0.007003
0.003393
0.026350
0.106084
0.109630
0.076653
0.092517
0.045022
0.029372
0.107521
0.040187
0.128583
0.034580
0.189045
0.151778
0.189966
0.160912
0.129963
0.120332
0.255470
0.159157
0.273162
0.237549
0.349190
0.352057
0.353841
0.298053
0.359438
0.442294
0.323610
0.457323
0.470167
0.537480
0.467895
0.576717
0.527360
0.541409
0.595688
0.558424
0.613392
0.533580
0.600694
0.649391
0.553621
0.514872
0.554100
0.589636
0.501758
0.469618
0.451952
0.538064
0.481078
0.560463
0.338214
0.405795
0.401509
0.374112
0.314408
0.319277
0.355806
0.280107
0.341787
0.297629
0.259483
0.276986
0.258431
0.136894
0.175561
0.193778
0.209636
0.138326
0.099558
0.154110
0.171212
0.192986
0.070767
0.074753
0.147391
0.072454
0.071300
0.125465
0.107402
0.171672
0.128436
0.121617
0.053059
0.098938
0.141924
0.117503
-0.009360
0.151673
-0.039160
0.131678
0.062041
0.086628
0.032993
0.096747
0.089682
0.076235
0.068470
0.043836
0.123619
0.134101
0.024712
0.122444
0.066373
0.060509
0.002092
-0.017974
0.149743
0.060283
0.077096
0.047960
0.031281
0.159626
0.011562
0.122292
0.036678
0.117251
0.034178
0.127953
-0.018086
0.118012
0.146713
0.077581
0.145406
0.120885
0.122517
0.060224
0.103396
0.068663
0.035137
0.136306
0.117464
0.153497
0.109037
0.045034
0.112917
0.102214
0.138580
0.121381
0.054829
0.164255
0.073463
0.129778
0.145206
0.200119
0.136134
0.133858
0.151028
0.125585
0.189426
0.171027
0.259750
0.215956
0.179134
0.214794
0.244220
0.263197
0.273404
0.311845
0.327086
0.158597
0.381967
0.253259
0.285924
0.318832
0.248496
0.144998
0.264357
0.180340
0.284090
0.172641
0.166907
0.271434
0.121940
0.214409
0.119018
0.159888
0.117639
0.083053
0.072184
0.159097
0.112349
0.105685
0.154566
0.130937
0.151482
0.114876
0.135734
0.114190
0.111974
0.125461
0.080071
0.091912
0.150021
0.090477
0.088719
0.014776
0.103151
0.056827
0.179962
0.335887
0.628756
0.881580
1.334142
1.436932
1.500000
1.377580
1.021625
0.657894
0.333790
0.051007
-0.146311
-0.215463
-0.106648
-0.082794
-0.051186
0.066115
0.064537
0.172709
0.108396
0.090797
0.142634
0.012791
0.121229
0.177111
0.148518
0.152570
0.120291
0.177623
0.114116
0.222446
0.124915
0.119304
0.204264
0.207450
0.236359
0.257544
0.197190
0.145616
0.243341
0.287329
0.331221
0.330656
0.375302
0.319990
0.329345
0.421055
0.447426
0.533169
0.445677
0.584722
0.504115
0.567203
0.550894
0.585140
0.527484
0.562887
0.693531
0.550192
0.591033
0.518945
0.610155
0.572191
0.542099
0.541919
0.541511
0.593559
0.443366
0.464457
0.418136
0.472706
0.413337
0.470938
0.490038
0.360738
0.374912
0.317877
0.391248
0.288071
0.239958
0.221794
0.322519
0.173672
0.189439
0.076807
0.153654
0.202066
0.135764
0.171622
0.075218
0.143389
0.150153
0.168823
0.145336
0.083405
0.122949
0.114865
0.107366
0.093367
0.041590
0.141435
0.036414
0.033508
0.141421
0.042301
0.032560
0.072261
0.087529
0.051905
0.005851
-0.029965
0.017698
0.025570
0.058561
0.083134
0.033894
0.014508
-0.028573
0.016024
0.002403
0.024252
0.012377
-0.017285
0.042603
0.015546
0.029626
0.111735
0.115184
0.037949
0.013235
0.065262
0.033983
0.035344
-0.013125
0.004199
-0.030370
0.027410
0.148034
0.007580
0.017749
0.015463
0.086274
0.074304
0.018968
0.027730
-0.012463
0.082473
0.023036
-0.062042
0.083005
0.030996
0.017283
0.028287
0.019770
0.000740
0.046676
0.016800
0.015524
0.057092
-0.023352
-0.026530
0.085573
0.008384
-0.013800
0.016296
0.049452
0.016844
0.120579
0.057452
0.129131
0.097400
0.100220
0.113602
0.113562
0.179325
0.128335
0.129108
0.176308
0.123421
0.250599
0.107979
0.183323
0.178578
0.163741
0.081016
0.120201
0.130606
0.156733
0.167324
0.050407
0.185419
0.002147
0.027148
0.013657
0.026008
0.028413
-0.022368
0.097215
0.045606
-0.007375
0.023798
-0.026872
-0.052303
0.030261
0.005677
0.032950
0.023422
-0.040747
-0.018433
-0.102458
-0.016355
0.046378
-0.025290
0.054021
-0.025064
-0.036898
0.004215
-0.063984
-0.062168
-0.000424
0.130943
0.201291
0.660016
0.883531
1.194615
1.355492
1.317734
1.176760
0.816132
0.408324
0.023314
-0.106350
-0.350805
-0.325972
-0.280027
-0.189654
-0.108792
-0.129198
-0.058019
0.054507
0.032286
0.013335
-0.025897
-0.030597
-0.063779
0.017036
0.055230
-0.104602
0.025924
0.020572
-0.043322
-0.008950
0.076815
0.021973
-0.024857
-0.011869
0.082804
0.147115
0.078449
0.121885
0.238419
0.065563
0.217964
0.193792
0.205054
0.309361
0.253952
0.281140
0.280510
0.416878
0.325714
0.335279
0.410212
0.392511
0.388722
0.438948
0.350293
0.478702
0.514888
0.473751
0.484280
0.417565
0.439808
0.394966
0.420661
0.427086
0.435656
0.313262
0.544904
0.369137
0.324368
0.315541
0.417665
0.349466
0.289855
0.266378
0.206115
0.215920
0.183241
0.186068
0.236095
0.072961
0.076477
0.148334
0.165752
0.097320
-0.000301
0.052065
0.101717
0.005909
-0.029519
-0.073048
-0.161257
0.012443
-0.031977
-0.011491
-0.019457
-0.047917
-0.019054
-0.040804
-0.022436
-0.035178
-0.044238
-0.001897
0.026391
-0.100356
-0.089200
0.015420
-0.103076
0.031441
-0.078023
-0.073572
-0.020012
-0.020381
-0.090968
-0.059125
-0.122315
-0.005293
-0.120937
-0.083376
-0.114970
-0.174571
-0.059689
-0.021386
-0.034194
-0.052817
-0.109041
0.007061
-0.058210
-0.149387
-0.074346
-0.092924
-0.086274
-0.025752
-0.049166
-0.128037
-0.054682
-0.104300
0.066805
-0.104654
-0.073810
-0.053999
-0.055547
-0.068542
-0.027314
-0.115118
-0.026633
-0.072735
-0.105273
-0.008865
-0.065599
-0.063534
-0.046291
-0.081197
-0.091785
-0.132140
-0.119378
-0.019761
-0.030293
0.008136
-0.012100
-0.055870
-0.046139
-0.144214
-0.040211
-0.083605
-0.052891
0.022986
0.020481
-0.008558
-0.029356
0.073126
0.072481
0.106673
0.021175
0.045322
0.066738
0.040713
0.166137
0.052807
0.148731
0.115906
0.151425
0.092795
0.038594
0.133127
0.019314
0.060605
0.022167
0.047137
-0.030019
0.021357
0.045996
0.010854
0.002375
-0.003098
0.014310
-0.043155
-0.022340
-0.006394
-0.052478
-0.109556
-0.030170
0.001003
-0.035057
-0.035452
-0.019650
0.000845
-0.041220
0.030856
-0.035477
0.015476
-0.106754
-0.037048
-0.064872
-0.074352
-0.105429
-0.124397
-0.182017
-0.191553
0.025008
0.125746
0.326164
0.677328
1.064761
1.182809
1.325489
1.144965
0.908880
0.586548
0.220621
-0.102615
-0.188946
-0.228651
-0.320721
-0.180687
-0.138755
-0.153368
-0.069762
-0.068321
-0.087171
0.031858
-0.101294
-0.000337
-0.050947
0.010913
-0.083951
-0.007700
-0.006286
0.062459
-0.014502
-0.014347
0.040713
0.052421
0.041191
0.051744
0.058637
0.080551
0.180541
0.162591
0.152225
0.159809
0.167513
0.196105
0.311868
0.273709
0.255844
0.287810
0.299948
0.311543
0.244368
0.306083
0.377505
0.390166
0.407690
0.409298
0.489967
0.438073
0.346760
0.526288
0.457490
0.443537
0.460641
0.472717
0.455114
0.443998
0.470343
0.364468
0.331701
0.411799
0.414111
0.293514
0.378369
0.319084
0.229525
0.295338
0.320003
0.249334
0.172434
0.250470
0.214741
0.099892
0.096362
0.183995
0.123032
0.120923
0.120560
0.111427
0.092213
0.103859
0.044102
-0.041641
0.088457
0.055842
-0.017263
-0.023945
0.028185
0.091303
0.025450
0.033556
0.040696
0.010255
-0.004737
0.030043
-0.077386
0.035861
-0.023822
-0.002943
-0.065293
-0.055749
0.063703
-0.002705
-0.055311
0.060860
-0.046089
0.000680
-0.067697
-0.097061
-0.019344
-0.039187
-0.037870
0.023906
-0.038518
0.000327
-0.036328
0.036772
-0.002116
-0.073804
0.089819
0.016449
0.011643
0.004394
-0.060556
-0.001703
0.022033
0.005185
-0.026320
-0.017175
-0.080448
-0.024381
0.020651
0.104580
-0.027320
-0.091663
0.041426
-0.035914
0.030758
0.000324
0.031820
0.046403
0.031907
0.041181
-0.030060
-0.034261
0.068560
0.078542
0.037061
0.010612
0.031446
0.098718
0.056649
0.056418
-0.008943
0.024229
0.024498
0.113469
0.036279
0.154599
0.053315
-0.020816
0.048357
0.091894
0.086563
0.030758
0.138077
0.133003
0.160135
0.185077
0.140268
0.237281
0.161640
0.177477
0.156977
0.170407
0.213345
0.242986
0.131153
0.120216
0.136654
0.183450
0.188330
0.116121
0.125720
0.207470
0.144482
0.045989
0.081246
0.132126
-0.033271
0.014172
0.048756
0.013813
-0.022778
0.087766
0.118205
0.056522
-0.009815
-0.016151
0.001218
0.026436
-0.005125
0.106384
0.021559
-0.017296
0.025604
-0.000292
0.051440
-0.044394
0.022827
0.025005
-0.023269
0.170535
0.309016
0.541502
0.879565
1.242991
1.407508
1.400738
1.179499
0.950716
0.529701
0.255405
-0.105338
-0.204418
-0.224372
-0.247184
-0.142955
-0.090019
0.053971
-0.013160
0.011438
0.033606
0.007711
0.026831
0.018235
0.131099
0.099008
0.080083
0.063973
0.076167
0.082324
0.124806
0.100935
0.126802
0.185422
0.136684
0.178621
0.191646
0.123746
0.252014
0.192548
0.306515
0.221554
0.341722
0.326087
0.383541
0.295967
0.349233
0.337903
0.402252
0.447269
0.421029
0.517157
0.406463
0.545523
0.478468
0.543052
0.504543
0.569964
0.519305
0.553222
0.545939
0.576496
0.573455
0.533253
0.524114
0.544889
0.504540
0.484183
0.504131
0.442856
0.472664
0.547915
0.419970
0.353638
0.388479
0.333556
0.286096
0.297940
0.251864
0.268222
0.279243
0.260897
0.203456
0.226151
0.224418
0.183450
0.150335
0.086093
0.129919
0.144021
0.110379
0.107907
0.073076
0.087706
0.032712
0.095454
-0.008995
0.063521
0.047486
0.099980
0.072808
-0.023268
0.024300
0.013650
-0.017937
0.149134
0.081459
0.092791
0.038499
0.033835
0.035198
0.095537
-0.034110
0.029620
0.080403
0.020332
0.000559
0.037656
-0.005609
0.046556
0.050950
0.166335
0.050860
0.045441
-0.018049
0.096413
0.086523
0.030087
0.029632
-0.013561
0.005150
0.051252
0.030715
0.002741
-0.019830
0.132142
0.116137
0.082042
0.021632
0.035372
0.030223
0.034476
0.057548
-0.018885
0.024097
0.081994
0.067386
-0.000657
0.108941
0.056486
0.004150
0.005907
-0.108865
0.044761
0.088262
0.065204
0.020768
0.060585
0.047367
0.071869
0.025015
0.015021
0.020472
0.046457
0.141605
0.053370
0.023989
0.039977
0.052857
0.054211
0.129677
0.082605
0.150805
0.151232
0.140845
0.133473
0.166798
0.147301
0.121721
0.196323
0.107007
0.131634
0.190623
0.163381
0.127043
0.187651
0.200634
0.164796
0.129389
0.155870
0.108430
0.097518
0.058529
0.145910
0.107630
0.124169
0.057940
0.085203
0.048913
0.016776
0.100388
-0.009624
0.063482
-0.024514
-0.055028
0.026470
-0.042225
-0.043273
0.009188
-0.029605
0.108315
0.022613
-0.001201
-0.016795
0.025331
-0.069096
0.012474
-0.067834
-0.121063
-0.051893
0.012557
0.114042
0.406418
0.764446
0.927170
1.268393
1.449970
1.324404
1.045051
0.747246
0.320379
0.094481
-0.166391
-0.285823
-0.272143
-0.210901
-0.170430
-0.124656
0.023032
0.009924
-0.032412
-0.011177
0.020492
0.057714
0.044884
0.019353
-0.003598
0.061816
0.058604
0.078499
0.054440
0.070263
0.101125
0.049522
0.098178
0.076847
0.136588
0.111730
0.126600
0.117139
0.214024
0.207499
0.133562
0.136618
0.252417
0.245237
0.297766
0.358144
0.306760
0.420569
0.300053
0.298398
0.361038
0.413496
0.488038
0.451740
0.586804
0.361407
0.473536
0.480191
0.489834
0.529567
0.483509
0.478451
0.448069
0.447893
0.450983
0.459721
0.521542
0.421697
0.376215
0.353591
0.312132
0.352492
0.290613
0.219585
0.277298
0.212873
0.185890
0.211667
0.247944
0.187820
0.192715
0.111553
0.017480
0.049258
0.135692
0.099989
0.116123
0.024994
0.065740
0.006698
0.040669
0.049964
-0.010631
-0.022763
0.007503
-0.056037
-0.023390
-0.008479
-0.125846
-0.003121
-0.117156
-0.094375
-0.053444
-0.064475
-0.095053
-0.061920
-0.044771
-0.006026
-0.020514
-0.106498
-0.015976
-0.062659
-0.072538
-0.166240
-0.082294
-0.101268
-0.004746
0.016736
-0.049465
-0.111874
-0.016058
-0.125252
-0.038029
-0.063612
-0.067109
-0.165080
-0.002189
-0.083246
-0.045341
-0.046515
-0.117676
-0.124370
-0.187196
-0.092161
-0.054493
-0.037971
-0.009460
-0.071090
-0.091401
-0.140359
-0.117070
-0.128467
-0.127369
-0.038753
-0.046410
-0.031613
-0.109094
-0.046041
-0.067521
-0.076980
-0.071845
-0.074929
-0.132778
-0.032975
-0.078105
-0.160712
-0.033602
-0.018655
-0.023165
0.051862
-0.072792
-0.089824
-0.005097
-0.051035
-0.064458
-0.047602
-0.039170
0.007977
0.002968
-0.025878
-0.024050
0.022509
0.003257
0.077671
0.067070
0.096067
0.148735
0.067720
0.108166
0.100482
0.026003
0.080291
0.034831
0.038269
0.100445
0.082686
-0.002001
0.063566
-0.010171
-0.034353
-0.017572
-0.054048
-0.006903
-0.031649
-0.041239
-0.117207
-0.060288
-0.037320
-0.135783
-0.116014
-0.138380
-0.097055
-0.105782
-0.010824
-0.156285
-0.009594
-0.103124
-0.061331
-0.140540
-0.086757
-0.077956
-0.143795
-0.130798
-0.063120
-0.156760
-0.142921
-0.092378
-0.109710
-0.144413
-0.073881
0.124053
0.393254
0.713218
1.106965
1.245189
1.217609
1.072544
0.828862
0.477123
0.159713
-0.070438
-0.345535
-0.350423
-0.311566
-0.242870
-0.191933
-0.061612
-0.130848
-0.120030
-0.092437
-0.059454
-0.081410
-0.063584
0.013938
-0.063059
-0.024978
-0.124386
-0.029452
-0.040381
-0.078797
-0.114863
0.022959
-0.069844
0.106087
0.044477
0.100343
0.020006
0.061845
0.143163
0.175919
0.079371
0.171132
0.181751
0.157870
0.143445
0.254097
0.253238
0.260220
0.286960
0.259107
0.269650
0.326385
0.415535
0.474868
0.437657
0.388448
0.418414
0.428134
0.489275
0.412499
0.446698
0.475580
0.292188
0.379054
0.390209
0.373024
0.405467
0.415527
0.374900
0.270257
0.334152
0.371881
0.269134
0.333676
0.199870
0.257522
0.242307
0.169126
0.163272
0.076973
0.115922
0.120688
0.080137
0.087599
0.144571
0.027634
0.057536
0.022954
-0.010478
-0.016324
0.011506
0.025210
0.020335
-0.053053
-0.014266
-0.121920
-0.114107
-0.064558
-0.024887
-0.099655
-0.081705
-0.106517
-0.060479
-0.039308
-0.036282
-0.077714
-0.018615
-0.078105
-0.137668
-0.004174
-0.013315
-0.047270
-0.038613
-0.032978
-0.061718
-0.017215
-0.050232
-0.146018
-0.054971
-0.051732
-0.015532
-0.112885
-0.054276
-0.063467
-0.108246
-0.049165
-0.095743
-0.086210
-0.014795
-0.018224
-0.013541
0.030858
0.055011
-0.099448
-0.046330
-0.060160
-0.008444
-0.014105
-0.022164
-0.041417
-0.049083
-0.041907
-0.080204
-0.009718
-0.138622
-0.022355
-0.074477
-0.092825
-0.069040
-0.102759
-0.049820
0.008506
-0.021360
-0.125845
-0.129644
0.020431
-0.065262
-0.003428
-0.093836
-0.004858
-0.007621
-0.046675
0.018168
0.005466
-0.023723
-0.014557
0.038275
0.042562
0.084136
0.059089
0.070836
0.065652
0.069015
0.070086
0.125892
0.154952
0.111975
0.109923
0.136455
0.201403
0.202159
0.103024
0.090001
0.100335
0.098964
0.126983
0.102242
0.037373
0.090606
0.110778
0.059003
0.099733
0.018527
0.002691
0.026349
0.055759
0.027066
-0.064296
-0.026966
0.030190
0.012183
-0.027237
-0.022515
-0.034622
-0.016234
-0.026572
0.025425
0.004593
-0.046617
-0.106913
0.062790
-0.110457
-0.067990
0.057287
-0.124978
0.005638
-0.018047
-0.013651
-0.095860
0.078585
0.144043
0.353720
0.677743
0.971276
1.219860
1.380791
1.371251
1.177188
0.856500
0.380188
0.061461
-0.154057
-0.283657
-0.224720
-0.160977
-0.103770
-0.125912
-0.045663
0.004737
-0.093795
-0.011210
0.063051
-0.012612
0.001988
0.015327
0.043393
0.144016
-0.011137
0.125405
0.070055
0.077141
0.089239
0.165272
0.138070
0.149400
0.111167
0.243834
0.191798
0.211543
0.235256
0.240856
0.300519
0.286875
0.232213
0.357253
0.317886
0.233415
0.370999
0.385033
0.351217
0.392876
0.371001
0.407883
0.571121
0.469683
0.488173
0.555895
0.472746
0.479983
0.569152
0.562148
0.512344
0.424166
0.589696
0.486247
0.507401
0.557994
0.551873
0.496487
0.458201
0.378091
0.491105
0.475107
0.395947
0.358073
0.326474
0.260425
0.379032
0.315371
0.204817
0.321370
0.229412
0.204487
0.147334
0.208162
0.129913
0.183818
0.173838
0.081676
0.186096
0.057916
0.127629
0.076094
0.047483
0.128588
0.018618
0.077659
0.075203
0.023849
0.052361
0.100510
0.077966
0.049943
0.036135
0.029831
0.103674
0.101337
0.075709
0.017547
0.070822
0.138940
0.017832
0.095492
0.033843
0.065575
0.114942
0.020931
0.076501
0.063981
0.120807
0.103807
0.064442
0.078282
0.008140
0.096082
0.061741
0.081056
0.104872
0.092077
0.121214
0.121723
0.023102
0.033997
0.055500
0.018444
0.108931
0.127510
0.086211
0.099572
0.098255
0.128704
0.055185
0.035844
0.106052
-0.004017
0.020093
0.077706
0.090558
-0.008628
0.130543
0.054223
0.083654
0.079321
0.125459
0.069324
0.036775
-0.041454
0.093914
0.132470
0.114610
0.076179
0.089061
0.109483
0.043143
0.124747
0.140020
0.067396
0.132743
0.168887
0.138346
0.091974
0.138166
0.189295
0.246829
0.224497
0.214459
0.275101
0.138225
0.299878
0.302216
0.206992
0.316791
0.247523
0.285405
0.229379
0.226748
0.165850
0.282455
0.253914
0.221203
0.181723
0.167347
0.134190
0.115213
0.213418
0.129479
0.071649
0.057701
0.131800
0.155719
0.131964
0.082326
0.106519
0.081800
0.088609
-0.021509
0.135832
0.063320
0.048491
0.020524
0.091695
