-0.062795
0.014787
0.028573
-0.010513
-0.020658
0.035542
-0.067749
0.019966
0.042101
-0.041650
-0.018541
-0.050303
0.031768
-0.008611
0.058651
0.055876
-0.056815
-0.006770
-0.021699
0.030674
0.035378
0.068148
-0.002359
-0.043813
-0.009457
0.012542
-0.036041
0.143856
0.073924
0.081725
0.090685
0.081046
0.128314
0.109090
0.132419
0.158302
0.166526
0.092911
0.162842
0.077457
0.206490
0.223696
0.248335
0.180312
0.164499
0.161481
0.093999
0.203247
0.177145
0.189065
0.170440
0.242112
0.234555
0.189724
0.238063
0.140644
0.151862
0.122434
0.161825
0.145008
0.104716
0.081728
0.098322
0.154688
0.111564
0.023117
0.094453
0.031974
0.023473
0.100134
0.004501
0.018163
0.060819
0.040995
0.102459
0.030417
0.042940
0.065213
0.067762
0.017562
0.114284
0.074747
-0.011688
0.029958
0.025851
0.084261
-0.027819
-0.019668
0.086483
0.277303
0.515360
0.762982
1.106240
1.314218
1.337012
1.295156
0.973969
0.752087
0.354914
0.172167
-0.116377
-0.242851
-0.234767
-0.164555
-0.072020
0.035361
0.078441
-0.012138
0.123878
0.077284
0.117537
0.058720
0.091735
0.204062
0.047836
0.045234
0.027624
0.067644
0.160166
0.165964
0.172889
0.102636
0.179179
0.170435
0.230002
0.168972
0.177505
0.173385
0.186744
0.300910
0.271669
0.264123
0.299321
0.242461
0.308178
0.231565
0.330422
0.351695
0.416894
0.428493
0.448781
0.429005
0.403906
0.473683
0.609928
0.482809
0.564668
0.503841
0.547803
0.568323
0.538790
0.574678
0.619966
0.548022
0.591038
0.534776
0.515737
0.585639
0.533305
0.499265
0.452449
0.577692
0.425463
0.399030
0.517462
0.454608
0.363173
0.322468
0.343855
0.385605
0.287941
0.350548
0.323235
0.265038
0.307407
0.261031
0.209736
0.299062
0.190595
0.168408
0.150101
0.144005
0.197761
0.154693
0.209202
0.092581
0.112916
0.081618
0.116641
0.128925
0.048807
0.078272
0.075046
0.060609
0.008287
0.095375
0.141491
0.023305
0.068466
0.123423
0.089500
0.064394
0.092522
0.105464
0.089453
0.030511
0.136273
0.072308
0.114342
0.121305
0.020063
0.119238
0.131270
0.161488
0.094506
0.067574
0.009619
0.068202
0.080365
0.029746
0.021625
0.085716
0.116962
0.080643
0.007555
0.073362
0.061739
0.096324
0.116701
0.055049
0.071428
0.129177
0.025393
0.087101
0.163552
0.018560
0.069585
0.075323
0.028357
0.136555
0.039645
0.048296
0.057182
0.083771
0.084549
0.134532
0.174591
0.041126
0.082691
0.094096
0.055484
0.118389
-0.025743
0.087676
0.125902
0.150902
0.050034
0.076670
0.106141
0.073036
0.134536
0.154038
0.065400
0.122329
0.118360
0.101089
0.164328
0.105222
0.100550
0.202543
0.170460
0.139161
0.207631
0.214805
0.186919
0.171835
0.259915
0.237639
0.308738
0.192563
0.254591
0.241377
0.215395
0.234452
0.212559
0.191630
0.248566
0.145016
0.235973
0.155569
0.199336
0.158312
0.097255
0.113359
0.142071
0.165382
0.076377
0.074453
0.061416
0.005649
-0.003528
0.093928
0.039896
0.070520
0.059690
0.095740
0.128708
0.020634
0.042537
0.056963
0.051051
0.065540
0.000859
0.085920
0.012580
0.084794
-0.079397
0.109824
0.071820
0.003553
0.038595
0.061522
0.006855
0.165881
0.388032
0.780244
0.926199
1.240868
1.366232
1.373005
1.115413
0.846857
0.513106
0.152015
-0.044973
-0.225057
-0.255278
-0.080302
-0.153854
-0.012711
-0.005889
0.002318
0.007704
-0.056049
0.007821
0.041590
0.038633
0.081243
0.014739
0.012237
0.049944
0.068904
0.123157
0.042850
0.082615
0.041220
0.121370
0.074706
0.141795
0.082738
0.051386
0.144939
0.203656
0.210363
0.212582
0.206043
0.319811
0.315190
0.196091
0.275162
0.315153
0.331526
0.349177
0.311703
0.378051
0.296679
0.445060
0.401340
0.446151
0.510398
0.463621
0.417380
0.451892
0.512267
0.528873
0.534834
0.523963
0.509900
0.485362
0.535599
0.540957
0.459125
0.421024
0.425462
0.395659
0.326827
0.455031
0.490011
0.363237
0.375214
0.329499
0.278356
0.338553
0.296975
0.318558
0.259496
0.187320
0.215842
0.199068
0.173845
0.233851
0.111332
0.104228
0.046265
0.005575
0.149183
0.106018
0.018240
0.055310
-0.007082
-0.014854
0.062237
0.034660
0.059543
0.078264
0.040808
-0.023996
0.043176
-0.011861
-0.040751
-0.044961
0.029937
-0.079216
-0.038887
0.021873
-0.002255
0.031483
-0.023548
-0.073102
0.002383
-0.083535
0.021093
0.032340
0.005027
-0.032938
0.033855
-0.005272
0.055880
-0.004750
-0.043287
-0.025236
0.043372
-0.023164
-0.024091
0.002458
0.046823
0.044271
0.001916
-0.000203
-0.017080
-0.014401
0.017875
-0.046074
-0.001072
-0.034453
-0.005011
0.050622
-0.005288
-0.054653
-0.012617
-0.005509
-0.005930
-0.004468
0.062716
-0.081288
-0.054343
0.046642
0.022691
-0.074161
-0.007380
0.001112
-0.062665
-0.059159
0.011871
0.025010
-0.083446
-0.014056
-0.067229
-0.133672
-0.008154
-0.048538
-0.029940
-0.078460
0.047277
-0.002682
-0.000363
0.111070
-0.022602
-0.001560
-0.066024
-0.019217
-0.007682
0.092718
0.042628
0.065856
0.063341
-0.023365
0.156790
0.146941
0.065154
0.101429
0.174660
0.125072
0.141457
0.169602
0.129554
0.127944
0.142462
0.091648
0.185078
0.066604
0.106314
0.102727
0.049182
0.045706
-0.010445
0.015126
0.032756
0.010003
0.089007
-0.012287
0.009462
0.001834
-0.042712
0.014937
-0.034185
-0.007601
0.010482
-0.016935
0.063838
0.042945
-0.125826
-0.001235
0.018387
-0.089576
-0.019843
-0.006254
-0.030479
-0.044199
-0.077602
-0.031240
-0.059037
-0.062942
-0.061506
-0.022507
-0.086361
-0.035381
0.063101
0.197362
0.497557
0.833552
1.017751
1.426529
1.242778
1.152488
0.865101
0.503147
0.110816
-0.050715
-0.257641
-0.437329
-0.335905
-0.232675
-0.172923
-0.100115
-0.165904
-0.034020
-0.059289
0.034346
-0.020740
-0.056236
-0.051689
-0.076710
-0.001081
-0.046802
-0.036735
0.012932
-0.040122
-0.006241
0.054026
0.030892
0.028250
0.105598
0.099418
0.118638
0.026644
0.073660
0.110104
0.078869
0.046623
0.119549
0.168288
0.178991
0.185787
0.171002
0.274155
0.278051
0.289299
0.228092
0.267375
0.339681
0.357648
0.408603
0.389147
0.439606
0.443797
0.386531
0.429447
0.359016
0.465536
0.470551
0.469628
0.515468
0.454884
0.446482
0.362822
0.402729
0.404743
0.349179
0.377872
0.419225
0.309494
0.298788
0.345101
0.260339
0.317859
0.194408
0.234993
0.166527
0.209010
0.220544
0.129471
0.215202
0.100365
0.106440
0.104083
0.083873
0.132977
0.078117
0.026404
-0.014272
0.030249
0.046593
0.012226
0.030919
0.081422
-0.040263
-0.042627
-0.056900
0.053374
-0.044890
-0.004280
0.046777
-0.013400
-0.045371
-0.043979
0.016644
-0.028050
-0.015186
-0.028683
0.012740
-0.013956
0.014729
-0.051948
-0.057271
-0.016461
0.006981
0.000401
-0.027726
0.004342
-0.026395
0.021822
0.068696
-0.038626
-0.106215
-0.008908
-0.015601
-0.047924
0.005165
0.033240
-0.004723
-0.012253
0.050917
-0.030997
-0.035802
0.016074
-0.056231
-0.084302
-0.006990
-0.006530
0.032687
0.007920
0.022064
-0.003123
-0.113884
-0.003333
-0.044453
-0.009673
0.009106
-0.048065
0.035809
0.047412
0.058291
0.063086
0.026019
0.005298
0.028888
-0.041957
-0.017430
-0.089018
0.021768
-0.026885
0.015444
0.045172
0.018038
-0.019001
0.073515
0.006832
0.033878
0.090397
-0.065615
-0.020060
0.030769
0.022182
0.035288
0.065908
-0.025418
0.142520
0.121514
0.101401
0.096178
0.144397
0.147992
0.126196
0.198978
0.176070
0.110302
0.232904
0.230488
0.161110
0.257144
0.198437
0.212989
0.150708
0.174161
0.205341
0.214145
0.138501
0.177506
0.112002
0.202030
0.129883
0.071328
0.167814
-0.006073
0.050082
0.061728
0.076350
0.112672
0.017517
0.015898
0.032379
0.059899
0.073439
0.047666
-0.003407
-0.025580
0.007893
0.084300
0.061088
0.078087
-0.046565
0.034624
0.028238
0.038913
0.084972
0.042970
0.030873
0.051500
0.001281
0.039337
0.003070
0.198327
0.456871
0.839536
1.000173
1.236557
1.325506
1.319490
1.028819
0.754021
0.391583
0.089568
-0.130301
-0.253081
-0.151669
-0.172681
-0.106274
-0.076244
0.006105
0.072332
0.075384
0.047256
0.085760
0.038981
0.009976
0.045589
0.077585
0.014979
0.007774
0.113337
0.057169
0.095657
0.169813
0.097260
0.044991
0.201914
0.113335
0.106720
0.128424
0.288340
0.279591
0.193400
0.255506
0.280422
0.213735
0.238661
0.306187
0.291240
0.322906
0.348454
0.404085
0.422822
0.471283
0.408029
0.427236
0.507584
0.507933
0.586720
0.534479
0.598533
0.565217
0.556556
0.607090
0.564955
0.504887
0.568046
0.592257
0.545404
0.603521
0.568051
0.530659
0.591458
0.571062
0.526086
0.497917
0.482589
0.412463
0.414300
0.453190
0.416975
0.385792
0.352949
0.334029
0.240966
0.256343
0.337183
0.261217
0.174859
0.188112
0.175787
0.203040
0.126834
0.161773
0.137942
0.155872
0.172377
0.173162
0.092960
0.117346
0.082999
0.044043
0.116658
0.068081
0.097394
0.087830
0.091337
0.070141
0.051116
0.083908
0.100677
0.111749
0.124408
0.149276
-0.013902
0.148291
0.052088
0.089695
0.103009
0.140043
0.137158
0.128245
0.060516
0.113758
0.124186
0.086743
0.152009
0.152890
0.099888
0.086828
0.012867
0.078355
0.110114
0.175761
0.082840
0.110196
0.185431
0.085886
0.082227
0.154329
0.082875
0.115354
0.079248
0.089477
0.110120
0.063277
0.052396
0.102346
0.161835
0.102625
-0.001608
0.112899
0.171527
0.112102
0.047170
0.091828
0.122008
0.095026
0.076378
0.088815
0.089268
0.037446
0.099693
0.058687
0.097124
0.084965
0.113317
0.139185
0.061595
0.158374
0.093604
0.122257
0.039325
0.118520
0.162710
0.059160
0.055938
0.198115
0.100163
0.130101
0.108333
0.191517
0.168970
0.149364
0.162514
0.148172
0.263654
0.216386
0.209261
0.241372
0.209828
0.251405
0.197183
0.234101
0.243351
0.286849
0.274920
0.202792
0.258893
0.213322
0.175409
0.231314
0.163655
0.203071
0.277105
0.178774
0.120321
0.082600
0.167225
0.143403
0.195272
0.105125
0.087196
0.094654
0.008920
0.138396
0.107773
0.043487
0.077692
0.058252
0.044074
0.077928
0.099442
0.061779
0.016008
0.092141
0.106212
0.069818
0.103477
0.115830
0.114958
0.077224
0.080787
0.018496
-0.024740
0.019120
0.212486
0.357242
0.689967
0.942940
1.210858
1.500000
1.370227
1.123894
0.861473
0.598475
0.156469
0.031560
-0.109857
-0.164112
-0.144181
-0.132082
-0.072892
-0.015175
0.065279
0.163067
0.105531
0.118705
0.020630
0.069001
0.049869
0.165452
0.010509
0.097452
0.069841
0.125434
0.066838
0.018064
0.113918
0.141376
0.188013
0.162094
0.175255
0.142142
0.121331
0.160462
0.239036
0.170980
0.197154
0.218430
0.313795
0.179248
0.252703
0.299699
0.328062
0.467224
0.354674
0.373477
0.345967
0.390592
0.296789
0.446636
0.352172
0.461870
0.583725
0.436512
0.499621
0.465661
0.482863
0.558679
0.594121
0.468112
0.556362
0.480744
0.506607
0.415965
0.566464
0.461191
0.469733
0.437859
0.346399
0.376022
0.374066
0.364045
0.317391
0.297683
0.378019
0.300271
0.261908
0.280070
0.223161
0.179840
0.102209
0.143605
0.169210
0.142823
0.068982
0.140126
0.076096
0.080709
0.046864
0.080622
0.079745
0.079941
0.040581
0.072076
0.054859
0.042804
0.083768
0.064464
0.053265
-0.015029
0.066644
-0.034440
-0.081277
0.005776
0.057246
-0.046579
-0.019256
0.062732
-0.002240
0.045670
-0.020656
0.013453
-0.003984
0.022613
-0.046862
-0.045784
-0.030609
-0.016298
0.063739
-0.070631
0.033979
-0.085398
-0.039168
-0.005271
-0.001599
0.065372
-0.030109
0.031154
0.008704
0.008231
-0.086413
-0.004402
-0.060536
-0.006760
0.050964
0.004835
0.052297
-0.091651
0.028240
-0.025196
-0.007288
-0.025415
0.018177
0.008567
0.051887
-0.034679
0.087010
0.000394
-0.120311
-0.000468
-0.041703
0.061321
-0.009279
0.091869
-0.040630
0.025523
-0.032949
-0.109813
-0.083490
-0.072325
-0.046071
0.002310
0.042378
-0.009838
-0.006009
-0.018531
0.054840
-0.031744
-0.055365
-0.041311
-0.016131
0.065522
0.001290
0.052328
0.098775
0.076798
0.037190
0.053783
0.024962
0.052475
0.098669
0.036656
0.121624
0.121791
0.200971
0.146392
0.146572
0.134244
0.070006
0.076132
0.133434
0.214681
0.108945
0.138782
0.082301
0.152286
-0.010688
0.011849
-0.031312
0.047930
0.082111
0.003515
-0.001654
-0.017785
-0.008253
-0.032662
-0.075426
-0.025965
-0.039751
-0.012207
-0.067057
-0.004553
-0.024223
-0.194417
0.033020
-0.087741
-0.046604
-0.038797
-0.062457
-0.067869
-0.237466
-0.087326
-0.048939
-0.101082
-0.070294
-0.169335
-0.126019
-0.181117
0.010783
0.172230
0.391314
0.716393
1.001732
1.246110
1.348970
1.107808
0.878294
0.577843
0.176946
-0.085072
-0.349060
-0.305123
-0.365159
-0.274114
-0.184616
-0.149610
-0.082460
-0.054463
-0.077720
-0.048415
-0.141647
-0.028904
-0.087824
-0.076115
-0.003079
-0.019632
0.049123
-0.010389
-0.009898
-0.082848
-0.046347
-0.032929
0.033487
-0.011712
0.036055
0.045223
0.027026
0.060158
0.059452
0.007000
0.109565
0.101323
0.124529
0.134327
0.182310
0.197354
0.216828
0.231249
0.255451
0.263202
0.312751
0.368630
0.327874
0.377300
0.274504
0.315135
0.262597
0.460540
0.349601
0.418842
0.372830
0.519223
0.469398
0.362954
0.404098
0.448684
0.374295
0.365577
0.395033
0.396357
0.416574
0.268524
0.300163
0.382791
0.193523
0.246843
0.277595
0.166552
0.248439
0.242021
0.218782
0.181812
0.135605
0.116690
0.013767
0.094444
0.026753
0.013239
0.030567
-0.009848
-0.051514
0.047275
-0.073283
0.053563
0.052423
-0.062930
-0.013479
-0.008692
0.010608
-0.045080
-0.059911
-0.130192
-0.078831
-0.090126
0.010960
-0.025275
-0.094838
0.034060
-0.172499
-0.002279
-0.010929
-0.082994
-0.057143
-0.138555
-0.057758
-0.074891
-0.093830
-0.120904
-0.045425
-0.037984
-0.043049
-0.001089
-0.044532
-0.023119
-0.047598
-0.047051
-0.070553
-0.094120
-0.090230
-0.130627
-0.116631
-0.069021
-0.124688
-0.066698
-0.044430
-0.041133
-0.039220
-0.058036
0.012463
-0.075640
-0.021870
-0.099351
-0.102549
-0.102373
-0.066035
-0.059885
-0.015910
-0.048803
-0.064803
-0.135710
-0.106118
-0.128467
-0.001984
-0.073195
-0.068560
-0.145569
0.010824
-0.106419
-0.049045
-0.101988
-0.010679
-0.090495
-0.091524
-0.015360
0.032555
-0.082003
-0.066629
-0.097400
0.007078
0.005609
-0.075825
-0.062274
0.001224
-0.054041
-0.107106
-0.044999
0.033928
0.067197
0.045833
0.075551
0.026116
0.005576
0.105327
0.057927
0.099913
0.024128
0.105709
0.134855
0.096498
0.120303
0.070829
0.105461
0.080532
0.106893
0.139621
0.102998
0.132223
0.112357
0.054593
0.089688
0.087732
-0.033149
0.016502
0.113928
-0.009057
0.032601
0.021203
0.000152
0.034952
-0.020273
-0.060038
0.060999
0.002577
-0.033756
0.018817
-0.044244
-0.051399
0.026613
-0.009007
-0.027171
-0.001072
-0.066042
-0.050405
-0.059631
-0.024144
-0.075545
0.008634
-0.042584
-0.023440
-0.129278
-0.137535
-0.102202
-0.085579
0.050676
0.285532
0.663815
0.945737
1.227959
1.319662
1.303798
0.988206
0.721122
0.366282
0.097835
-0.176310
-0.296024
-0.258677
-0.219392
-0.113420
-0.144641
-0.143760
0.051219
-0.018238
-0.034398
0.030618
-0.002898
0.000396
0.031194
-0.011629
0.003571
0.030857
0.137022
-0.022289
0.037846
0.075573
0.057169
0.085621
-0.005296
0.085009
0.023240
0.113769
0.162596
0.163819
0.094839
0.182314
0.152269
0.154395
0.271210
0.170844
0.341487
0.224963
0.237821
0.272711
0.296601
0.309091
0.347751
0.389386
0.315148
0.406303
0.365550
0.462781
0.522937
0.432769
0.439787
0.480803
0.398892
0.423229
0.427119
0.429988
0.441608
0.485659
0.494151
0.384864
0.404736
0.430213
0.394680
0.433337
0.351304
0.339600
0.434501
0.342647
0.326159
0.315779
0.232251
0.326486
0.240334
0.187992
0.172442
0.151070
0.135434
0.149475
0.079116
0.128535
0.127320
0.051175
0.087513
0.088478
0.078305
0.128524
0.110962
0.080690
0.128632
-0.017398
0.001293
0.005202
-0.043106
0.072236
0.032656
0.084539
-0.016862
0.061175
0.011389
0.024496
0.022648
0.008403
-0.070423
0.035147
0.057533
0.057194
0.062053
-0.011855
-0.024413
0.114392
0.036975
0.053181
0.102526
-0.010408
0.059874
0.122382
0.027485
0.094640
0.151401
0.077960
-0.021601
0.021320
-0.013088
0.118686
0.032540
-0.001647
0.018050
0.070661
0.026121
-0.035508
0.016302
-0.030021
0.085767
0.026890
0.046057
0.035931
-0.020977
0.021938
0.039256
0.035223
0.031320
0.042332
0.100779
0.038421
0.005767
0.105298
0.070139
0.087976
0.035977
0.042557
-0.009298
0.068806
-0.063682
0.028076
0.086463
0.020165
0.078306
-0.006763
0.115276
0.017208
0.103157
0.078299
0.030272
0.108918
0.178549
-0.016671
0.049432
0.070200
0.093453
0.163992
0.088657
0.121922
0.171430
0.167566
0.206331
0.159287
0.205990
0.192160
0.171469
0.154762
0.227441
0.198268
0.134720
0.242868
0.285002
0.181664
0.230778
0.239851
0.155100
0.187604
0.153476
0.089768
0.149313
0.115063
0.089348
0.157884
0.153157
0.165611
0.085159
0.030195
0.116197
0.114443
0.076039
0.073696
-0.057271
0.055235
0.065790
0.059048
0.032391
0.120614
0.048252
0.029145
0.071427
0.030179
0.014670
0.108918
0.167553
0.017046
-0.028931
-0.005138
0.048570
0.010759
-0.010237
0.024562
0.107415
0.272777
0.578588
0.914708
1.269620
1.335918
1.420129
1.163371
0.863551
0.610025
0.252100
-0.100811
-0.168195
-0.272573
-0.190087
-0.155304
-0.159741
-0.013632
-0.022743
0.011118
0.068175
0.122592
0.032267
0.055965
0.059993
0.037735
0.116630
0.032993
0.033355
0.056938
0.145919
0.146777
0.151447
0.120111
0.047569
0.140800
0.118457
0.097074
0.066699
0.248809
0.213974
0.204121
0.148465
0.222855
0.261655
0.251466
0.251333
0.250318
0.219280
0.410525
0.357729
0.328176
0.408417
0.419104
0.428878
0.474264
0.433339
0.537583
0.427322
0.471314
0.427466
0.515938
0.549526
0.571720
0.509832
0.511616
0.551512
0.573487
0.506928
0.470054
0.465907
0.467054
0.505033
0.453962
0.381988
0.396543
0.381669
0.320197
0.343578
0.260570
0.316977
0.345380
0.312794
0.186716
0.197435
0.202975
0.157193
0.153968
0.216175
0.064502
0.124475
0.043230
0.068997
0.086255
0.117009
0.066208
0.007826
0.025958
0.053604
0.067512
0.020583
0.004599
0.061055
0.043452
0.071821
0.052131
0.025735
0.010387
0.028386
0.060109
0.052232
-0.018918
-0.046378
-0.071462
-0.024637
-0.004063
0.057969
0.037233
-0.000309
0.044240
0.025637
0.062160
-0.080688
-0.024232
0.060832
0.060598
-0.028913
0.035592
-0.013263
0.029273
0.027875
0.028317
0.039551
-0.000599
-0.024754
-0.009650
-0.055709
-0.058263
-0.013684
-0.039630
-0.067921
-0.053450
0.007881
-0.030304
-0.027472
0.000704
0.001522
0.003545
-0.103813
-0.005467
0.027189
-0.032093
-0.049710
-0.027818
-0.015222
0.010225
0.013699
0.046600
-0.072780
-0.018730
-0.034561
-0.084221
-0.005579
0.026225
-0.005246
-0.027784
-0.022023
-0.034129
-0.058918
0.028184
-0.014115
-0.012080
-0.074588
-0.033008
0.018121
-0.000948
-0.039240
0.022156
-0.029058
0.094581
-0.012336
0.098168
0.083716
0.096699
0.037119
0.109934
0.089263
0.075746
0.020598
0.109671
0.108484
0.131742
0.193521
0.081030
0.227814
0.058327
0.069874
0.158393
0.088665
0.101820
0.190141
0.014703
0.105928
0.096671
0.015019
0.012986
0.058393
-0.029757
-0.019902
-0.026188
-0.051384
-0.029779
0.002600
-0.008134
-0.070367
-0.053045
-0.048385
-0.053556
0.006884
-0.097038
0.015482
-0.117991
-0.039384
-0.007604
-0.117382
-0.037538
-0.077201
-0.137413
-0.079109
-0.014815
-0.124771
-0.114455
-0.064261
-0.039862
-0.073064
0.091916
0.357418
0.730042
1.029300
1.199633
1.234451
1.127831
0.932364
0.639141
0.156762
-0.018619
-0.227314
-0.330570
-0.262270
-0.253916
-0.201074
-0.135466
-0.126451
-0.084571
-0.031170
-0.119125
-0.018324
-0.120313
-0.115287
-0.022122
0.013095
-0.035453
-0.050383
-0.057784
0.002753
-0.038454
-0.057104
0.039127
-0.003194
0.033639
0.058417
-0.049101
-0.019956
0.079570
0.087749
0.078775
0.103479
0.049284
0.046426
0.165966
0.105937
0.159001
0.195528
0.210705
0.334289
0.224214
0.239171
0.351067
0.305663
0.342360
0.318120
0.368705
0.357300
0.362616
0.434727
0.443485
0.305088
0.425967
0.373244
0.444842
0.382665
0.349987
0.442309
0.401047
0.304370
0.360927
0.326717
0.291058
0.265821
0.287795
0.292246
0.282189
0.241703
0.212816
0.207564
0.150675
0.171943
0.049444
0.110631
0.100014
0.072591
0.118273
0.095893
0.040462
-0.026308
0.054720
-0.072470
-0.027895
-0.043759
-0.040279
0.000018
-0.004055
-0.069241
-0.015433
-0.082285
0.042392
-0.078661
-0.161536
-0.092132
-0.091117
-0.119946
-0.069454
-0.019465
-0.071688
-0.126844
-0.022265
-0.092741
-0.029117
-0.081746
-0.132989
-0.094024
-0.024453
-0.063493
-0.091858
-0.061422
-0.043114
-0.099219
-0.016366
-0.100575
-0.182538
-0.061192
-0.098664
-0.010208
-0.078662
-0.048810
-0.058820
-0.098664
-0.109677
-0.053661
-0.021405
-0.103708
-0.039991
-0.090150
-0.118846
-0.074433
-0.165430
-0.032070
-0.118797
-0.076151
-0.067770
-0.142967
-0.156529
-0.015126
-0.162325
-0.138858
-0.066848
-0.153071
-0.091283
-0.146072
-0.141693
-0.054391
-0.055815
-0.114232
-0.091371
-0.048707
-0.077710
-0.068690
-0.068320
-0.084898
-0.067926
-0.122925
-0.070929
-0.094710
0.013584
-0.047029
-0.081557
-0.090863
0.008080
-0.067755
0.001322
-0.065385
0.003231
-0.023585
0.014624
-0.032871
0.064162
0.001286
0.000907
-0.026239
0.035841
-0.056972
0.082347
0.021384
0.096978
0.079800
0.085181
0.103524
0.068224
0.001684
0.153528
0.075833
0.067216
0.077405
0.022009
0.098868
0.046611
0.022366
-0.012596
-0.052567
-0.028977
0.035946
-0.016884
0.008064
-0.053679
-0.046270
-0.084044
-0.023684
-0.053425
-0.050448
-0.123801
-0.060565
-0.043990
-0.096311
-0.060376
-0.092399
0.027781
-0.015059
-0.156532
-0.047883
-0.045561
-0.082471
-0.068631
-0.103389
-0.067540
-0.135685
-0.076007
-0.198667
-0.055673
-0.069265
0.061296
0.309749
0.536509
0.912701
1.178289
1.273645
1.176941
1.105357
0.735837
0.437305
0.138054
-0.110862
-0.310535
-0.318868
-0.327181
-0.225931
-0.174007
-0.029598
-0.022237
-0.016949
-0.009660
-0.011367
-0.009639
-0.039699
-0.045006
-0.046240
0.019877
-0.096350
-0.013265
0.048546
0.014552
0.072625
-0.074192
0.049237
0.121776
0.019940
0.088323
-0.015697
0.087383
0.106856
0.117681
0.168199
0.121205
0.163645
0.088352
0.186131
0.254908
0.231972
0.281993
0.315772
0.276902
0.343486
0.348875
0.319628
0.379787
0.360153
0.387612
0.443414
0.442903
0.354765
0.426777
0.467709
0.474972
0.483879
0.434805
0.486253
0.524358
0.520403
0.447365
0.538022
0.455348
0.397624
0.416925
0.422286
0.393109
0.348585
0.378930
0.374231
0.166582
0.419856
0.295951
0.247885
0.264078
0.144349
0.218353
0.206206
0.155038
0.100413
0.088597
0.176876
0.041005
0.161054
0.062482
0.034076
-0.052412
0.069174
-0.037916
-0.055056
0.019265
0.072104
0.052318
-0.015811
-0.015317
0.032906
0.010178
0.041134
0.009039
0.010060
0.074662
0.045901
-0.060661
-0.042453
-0.007154
0.004748
0.077690
0.052278
-0.092475
-0.027468
0.036362
0.004536
0.048671
0.002800
0.044450
0.083540
-0.053568
-0.016158
0.088434
0.019902
0.059304
-0.007563
0.061765
-0.016366
0.040589
0.002264
0.065338
0.005660
-0.006970
-0.053187
0.001609
0.013603
0.009574
0.052409
-0.004586
0.008038
0.020548
0.069597
0.035222
-0.024441
0.042009
0.028462
-0.005320
0.102578
-0.004362
0.061751
0.050322
0.066382
0.062265
0.031855
0.015216
0.058038
0.028290
-0.013206
0.020970
0.063860
0.084848
0.033123
0.005853
-0.004210
0.025677
-0.035881
0.013620
0.004088
0.128822
0.093074
0.056580
0.065027
0.165607
0.078937
0.011155
0.120161
0.148807
0.100685
0.110341
0.190791
0.128624
0.138753
0.124443
0.169965
0.231509
0.218132
0.199302
0.224177
0.181631
0.203141
0.225845
0.270946
0.227601
0.201942
0.150994
0.103905
0.143566
0.165252
0.197688
0.051152
0.102457
0.130207
0.107810
0.124889
0.154913
0.149622
0.099367
0.078966
0.081878
0.155439
0.062221
0.059420
0.086750
0.094942
0.088898
0.043031
0.063123
0.038436
0.025133
0.081820
0.119428
0.089311
0.117484
-0.033030
0.034683
0.067633
0.024520
0.004027
0.015306
0.021161
0.102557
0.274887
0.511774
0.937821
1.198846
1.465036
1.408417
1.273373
1.044339
0.590174
0.236865
0.099558
-0.150451
-0.201199
-0.289068
-0.101606
-0.036995
-0.026833
0.022468
0.048126
0.069404
0.099386
0.128220
0.141609
0.105084
0.072341
0.144241
0.049494
0.099162
-0.005564
0.160899
0.114188
0.150505
0.075132
0.113104
0.243683
0.159316
0.129306
0.168546
0.206185
0.180340
0.254828
0.255255
0.249000
0.294606
0.257078
0.347412
0.424050
0.365881
0.339566
0.362162
0.436878
0.435445
0.414513
0.397856
0.502511
0.471536
0.525250
0.419063
0.533354
0.533050
0.549592
0.501794
0.583353
0.546984
0.504685
0.550752
0.478173
