-0.003099
-0.015253
-0.000171
-0.045322
0.012413
0.036424
-0.045043
0.008650
0.046963
0.019413
0.008163
0.052706
0.030922
0.025894
-0.038313
0.029996
-0.013846
0.114506
0.079422
0.146008
0.043417
0.120361
0.057032
0.112409
0.155860
0.175119
0.148232
0.204979
0.211710
0.229425
0.128549
0.148150
0.233812
0.204433
0.208684
0.198271
0.183254
0.251753
0.122395
0.202803
0.163328
0.211486
0.123207
0.124387
0.048007
0.132630
0.143504
0.078053
0.074232
0.139299
0.038794
0.032490
0.065823
0.130434
0.034453
0.040328
0.031298
0.098399
0.046435
0.070146
0.059232
0.071151
0.211142
0.318210
0.564456
0.841109
1.088282
1.284972
1.280233
1.157301
0.845068
0.527923
0.190128
-0.067799
-0.053319
-0.102743
0.024255
0.042625
0.114011
0.118517
0.114277
0.119112
0.153779
0.169788
0.149468
0.218237
0.219486
0.167470
0.258567
0.231796
0.253258
0.340043
0.271261
0.317029
0.346192
0.335188
0.342984
0.417909
0.493388
0.373347
0.482659
0.562322
0.607173
0.497071
0.582699
0.576718
0.484042
0.552849
0.544431
0.584342
0.526684
0.606562
0.514241
0.625564
0.515266
0.515152
0.621239
0.542802
0.517117
0.441029
0.492371
0.438914
0.472464
0.390665
0.428045
0.334144
0.280161
0.286579
0.297549
0.302422
0.301186
0.273840
0.320098
0.250839
0.140506
0.190820
0.166204
0.220119
0.169073
0.180087
0.217147
0.108966
0.104658
0.036492
0.129805
0.164768
0.135278
0.099545
0.120078
0.049375
0.136232
0.126026
0.115157
0.115341
0.019787
0.146746
0.125684
0.078097
0.052454
0.059855
0.134311
0.148211
0.094982
0.132125
0.082454
0.069569
0.049387
0.052939
0.036283
0.061813
0.091587
-0.031848
0.074175
0.049855
0.155155
0.037057
0.121069
0.111307
0.101977
0.010103
0.141388
0.044932
0.040605
0.113801
0.128691
0.109712
0.145122
0.220535
0.057862
0.194225
0.129812
0.128077
0.216716
0.138504
0.144206
0.136543
0.225451
0.218413
0.234819
0.222845
0.201222
0.227074
0.314638
0.289288
0.257967
0.199394
0.326490
0.204644
0.212308
0.206223
0.270639
0.175714
0.233547
0.193563
0.181597
0.150843
0.130305
0.139842
0.137452
0.101230
0.090994
0.119949
0.153256
0.079160
0.051965
0.071087
0.009891
-0.008587
0.026766
0.203535
0.241775
0.250651
0.422998
0.832407
1.079391
1.305732
1.448503
1.346227
1.085519
0.663979
0.278680
0.083694
-0.051430
-0.008143
0.042048
0.046675
0.125731
0.055159
0.128429
0.153650
0.110098
0.172677
0.240213
0.224666
0.245017
0.281097
0.214805
0.251090
0.290491
0.252021
0.405837
0.380171
0.458976
0.404818
0.387564
0.428671
0.388202
0.420788
0.524022
0.451798
0.418954
0.607901
0.529431
0.552852
0.532525
0.525766
0.580974
0.505151
0.538368
0.616908
0.484707
0.565540
0.613084
0.523037
0.437861
0.487876
0.464106
0.556713
0.527979
0.512227
0.410154
0.370432
0.353965
0.336903
0.280358
0.308606
0.364488
0.326021
0.305998
0.248628
0.211906
0.269904
0.168937
0.246119
0.237797
0.144318
0.095792
0.061527
0.129123
0.087884
0.060488
0.121669
0.136965
0.142671
0.069815
0.011686
0.055936
0.129358
0.080378
0.034019
0.144097
0.039529
0.009701
0.087545
0.110566
0.062809
0.045564
0.071750
0.006615
0.056879
0.026658
0.008984
0.077283
0.060099
0.138553
0.006183
-0.028491
-0.034084
0.080884
0.053631
0.082350
0.110020
-0.026197
0.082511
0.037521
0.086740
0.014259
0.086696
0.056371
0.144445
0.047280
0.050828
0.055289
0.082267
0.069962
0.138144
0.079109
0.078808
0.193437
0.147638
0.150405
0.105295
0.155893
0.080876
0.153958
0.198356
0.206438
0.208691
0.136519
0.203525
0.249938
0.216268
0.223968
0.237255
0.161022
0.159929
0.142559
0.160068
0.208931
0.106785
0.144923
0.092148
0.157063
0.102711
0.125535
0.078159
0.078061
0.085847
0.058162
-0.006023
-0.041030
0.015641
0.033396
0.027127
0.059011
0.009411
0.008738
0.049824
0.057089
0.177350
0.274137
0.465399
0.828380
1.129491
1.270728
1.290971
1.195933
0.846440
0.393382
0.167480
-0.072140
-0.083825
-0.178706
-0.044113
-0.011852
-0.035974
0.013816
0.053801
0.039420
0.160481
0.057097
0.193150
0.092767
0.176813
0.137701
0.169785
0.145169
0.179734
0.307840
0.207756
0.235291
0.241323
0.354972
0.371002
0.312743
0.396456
0.365234
0.456748
0.373586
0.482821
0.472095
0.426980
0.541916
0.414629
0.456855
0.464534
0.466479
0.466284
0.560937
0.518717
0.553252
0.481238
0.505397
0.429054
0.370813
0.401487
0.437075
0.386909
0.469332
0.320438
0.270283
0.294534
0.328929
0.248958
0.292008
0.261974
0.254641
0.136221
0.114219
0.233829
0.101344
0.077814
0.107901
0.100062
0.105974
0.038137
0.031606
0.085468
-0.009229
0.018316
0.017738
-0.044468
-0.065616
-0.012579
-0.048168
-0.048747
-0.040111
0.016320
-0.053187
-0.116662
0.016732
0.039921
-0.126051
0.006241
0.029043
-0.052816
0.007262
-0.043604
0.016925
0.027352
0.011547
0.040404
-0.028067
-0.024915
-0.021053
0.038769
-0.063919
-0.025525
-0.032530
-0.037243
0.030349
-0.063028
-0.008791
-0.010605
0.060401
-0.084089
-0.002881
-0.065425
-0.043150
0.041834
-0.024347
0.121829
0.009666
-0.005797
0.042472
-0.025156
0.061399
0.020964
0.037282
0.005037
0.057350
0.020705
0.101366
0.148845
0.085197
0.136956
0.122210
0.164742
0.081927
0.102991
0.085858
0.125227
0.166949
0.132128
0.176025
0.084746
0.154208
0.134748
0.088218
0.124599
0.121204
0.058619
0.060996
0.000255
-0.012661
-0.050274
-0.022823
-0.007551
0.012768
0.020571
-0.008901
-0.052760
-0.014885
-0.031508
0.001808
0.025746
-0.069866
0.098263
0.228417
0.312191
0.620332
0.982814
1.103619
1.235641
1.332614
0.979986
0.612852
0.228793
0.019784
-0.099460
-0.179252
-0.153513
-0.103813
-0.097453
0.008450
0.030875
0.040454
0.004102
0.063533
0.123194
0.134300
0.057197
0.109732
0.072092
0.133082
0.216284
0.177409
0.189366
0.212016
0.169216
0.257361
0.323738
0.298479
0.349904
0.325644
0.333375
0.353984
0.364709
0.407590
0.377425
0.452792
0.451790
0.391739
0.385996
0.445256
0.370570
0.481929
0.493120
0.404946
0.489040
0.503449
0.377027
0.411340
0.406384
0.421250
0.310728
0.305725
0.289241
0.202246
0.238185
0.279295
0.189418
0.244643
0.169815
0.099097
0.194145
0.212962
0.158498
0.065331
0.145935
0.078507
0.153164
0.052623
0.047827
0.111591
0.058186
0.026143
-0.008274
0.005423
0.089601
0.092881
-0.023738
0.033674
-0.016741
-0.006144
-0.045894
-0.039642
0.054563
-0.111158
-0.003444
-0.004589
-0.052838
-0.044702
-0.059619
-0.067877
0.020535
0.016659
-0.033972
-0.020662
-0.045767
-0.140207
-0.014565
0.023478
-0.025686
-0.018647
-0.034115
0.003100
-0.025787
-0.047400
0.061889
-0.005347
0.022583
-0.013457
0.020613
-0.064425
-0.010338
0.006312
0.039115
0.019560
0.051004
0.090612
-0.012939
0.052790
-0.007700
0.115513
0.095170
0.034576
0.184606
0.072656
0.147617
0.141468
0.079286
0.221037
0.217148
0.132454
0.211095
0.097829
0.165178
0.205931
0.155149
-0.005981
0.164722
0.248722
0.118774
0.145790
0.135961
0.102882
0.079399
0.132587
0.092023
0.058534
0.033888
0.127767
0.017989
0.122544
-0.000012
0.019774
0.122552
0.051570
-0.008489
0.023713
-0.008639
-0.015779
0.027136
-0.022704
0.053266
0.138190
0.265039
0.487027
0.853505
1.169290
1.269486
1.360090
1.044255
0.868547
0.450434
0.138619
-0.055410
-0.093822
-0.123302
-0.036071
-0.055112
0.024042
0.132509
0.037109
0.179577
0.156359
0.166843
0.261737
0.200961
0.196535
0.168495
0.207263
0.244397
0.193432
0.323255
0.335418
0.259977
0.363576
0.369073
0.414418
0.392987
0.502851
0.473684
0.308032
0.501215
0.484806
0.556277
0.554307
0.462108
0.557991
0.573455
0.582402
0.552804
0.530018
0.579626
0.556636
0.542604
0.546728
0.462058
0.518502
0.467869
0.498537
0.435292
0.485555
0.390003
0.388841
0.312074
0.372841
0.331803
0.366419
0.318487
0.267057
0.288933
0.283734
0.254030
0.222241
0.211608
0.203321
0.170934
0.199657
0.187901
0.139845
0.068853
0.157135
0.207357
0.064329
0.054892
0.110575
0.186245
0.097120
0.105679
0.018289
0.006532
0.149128
0.047519
0.096090
0.166696
0.012694
0.085694
0.068853
0.048564
0.021912
0.048229
0.080504
0.098135
0.035721
0.080433
0.042348
0.117886
0.092448
-0.005803
0.173446
0.065126
-0.008027
0.056550
-0.022203
0.068468
0.101968
0.149652
0.069382
0.099294
0.152395
0.066863
0.082602
0.117155
0.140503
0.122081
-0.027937
0.196926
0.071489
0.148470
0.188577
0.113015
0.218449
0.147853
0.152200
0.240379
0.222529
0.227392
0.216986
0.274451
0.298251
0.242625
0.240763
0.253591
0.177286
0.210369
0.320596
0.325065
0.295052
0.225734
0.244074
0.196012
0.245199
0.195302
0.219462
0.224335
0.148274
0.111243
0.155036
0.056196
0.084702
0.111563
0.170175
0.077145
0.104715
0.078547
0.074782
0.096530
0.141793
0.028900
0.097492
0.195172
0.122578
0.305954
0.527465
0.667689
0.945065
1.222000
1.500000
1.292881
1.117729
0.773825
0.475547
0.087572
-0.070467
-0.093998
-0.058621
0.071143
0.096197
0.076583
0.116754
0.171717
0.167542
0.230184
0.200916
0.262211
0.169181
0.286043
0.236782
0.267830
0.376242
0.362195
0.352940
0.376080
0.350783
0.383370
0.347307
0.420163
0.594472
0.531606
0.530548
0.378469
0.614284
0.479653
0.505899
0.604569
0.534656
0.597471
0.598789
0.667617
0.585587
0.654713
0.664871
0.614002
0.607687
0.553690
0.545339
0.535724
0.510288
0.505610
0.568802
0.441785
0.542737
0.405399
0.425108
0.364163
0.371259
0.272744
0.299706
0.315279
0.316029
0.306181
0.204378
0.286108
0.246864
0.270819
0.149808
0.195391
0.169489
0.181152
0.153154
0.140431
0.192138
0.184008
0.112762
0.056408
0.155791
0.049708
0.141528
0.084737
0.095657
0.139722
0.130283
0.066871
0.061988
0.019289
0.146269
0.114713
0.079591
0.067079
0.107301
0.123834
0.088384
0.037566
0.140912
0.085235
0.130909
0.053192
0.054268
0.111310
0.105803
0.023217
0.101262
0.107892
0.155986
0.076420
-0.041165
0.069973
0.032457
0.082542
0.018772
0.097713
0.082858
0.134192
0.101904
0.146580
0.033380
0.179365
0.056590
0.225072
0.156669
0.190297
0.131397
0.161983
0.234544
0.150371
0.221587
0.200680
0.303816
0.168908
0.295647
0.248724
0.245959
0.212365
0.230992
0.286555
0.223798
0.173610
0.179284
0.176704
0.216053
0.144797
0.205709
0.165798
0.144519
0.141717
0.108933
0.166157
0.078420
0.148475
0.084962
0.042623
0.122719
0.133695
0.091325
0.089265
0.012510
0.130944
0.037934
0.031953
0.128042
0.178717
0.211466
0.518114
0.783478
1.135254
1.347841
1.306103
1.282063
0.867619
0.578128
0.094772
0.062631
-0.187730
-0.028777
-0.112461
0.041946
0.030717
0.072949
0.101963
0.170622
0.230428
0.210493
0.111901
0.200936
0.121485
0.174044
0.129956
0.237694
0.205517
0.178897
0.287546
0.282349
0.339633
0.350319
0.361328
0.351899
0.419239
0.503423
0.419417
0.419585
0.380226
0.484493
0.473095
0.470464
0.564818
0.520067
0.538228
0.536058
0.521215
0.512996
0.569280
0.485627
0.487524
0.436049
0.442341
0.507617
0.448879
0.410701
0.428742
0.383673
0.323671
0.424573
0.425671
0.326499
0.340511
0.305389
0.253455
0.175516
0.188008
0.163121
0.155436
0.146292
0.107751
0.124059
0.088222
0.048263
0.021691
0.096191
0.056472
0.117690
0.058912
0.047298
0.070242
-0.000463
0.008466
0.047564
0.046483
0.017740
0.001855
0.050948
0.094713
0.019322
-0.033028
0.085908
-0.041810
-0.053941
-0.055952
-0.018242
0.017411
-0.021789
-0.031360
0.003110
-0.030779
0.029473
-0.014592
-0.044399
-0.057342
0.016825
0.048309
0.052496
-0.041993
-0.113767
0.032529
-0.041597
-0.039305
-0.036914
-0.019051
0.000087
-0.032159
-0.031556
0.057334
-0.048892
0.039857
-0.022707
-0.015655
-0.050477
0.014303
-0.000667
-0.012150
0.020835
0.081257
0.133864
0.096688
0.071241
0.089214
0.088310
0.101419
0.048553
0.046701
0.027049
0.094178
0.114303
0.118173
0.087415
0.189717
0.072585
0.217436
0.131646
0.073254
0.059641
0.050748
0.029203
0.022977
0.031029
0.031678
-0.056319
0.026414
0.022023
-0.037529
-0.022768
-0.021446
0.023093
0.017319
0.042200
-0.011208
-0.073053
-0.077965
-0.058669
0.051598
0.165767
0.201730
0.505328
0.875861
1.117496
1.279974
1.189877
0.927175
0.661860
0.285169
-0.004685
-0.243851
-0.161284
-0.266705
-0.080160
-0.125875
-0.083478
-0.043891
0.002591
0.020182
-0.005656
0.005769
0.079320
-0.006824
0.129356
0.092901
0.154851
0.089804
0.216831
0.161279
0.127088
0.270836
0.294533
0.325018
0.252341
0.272899
0.314337
0.402672
0.298340
0.397035
0.378808
0.462130
0.396331
0.421976
0.521135
0.414118
0.442834
0.432195
0.402097
0.415640
0.406291
0.456716
0.363332
0.408850
0.392586
0.373892
0.371689
0.383707
0.319611
0.276119
0.200139
0.286873
0.214189
0.129828
0.196511
0.165658
0.137950
0.168895
0.083426
0.038900
0.142255
0.028137
0.059915
0.103879
0.044486
0.015680
0.051827
-0.046292
-0.003731
-0.043138
0.082932
-0.047890
-0.034231
-0.136108
-0.030430
-0.084927
-0.072854
-0.100624
-0.012138
-0.048936
-0.105281
-0.045342
-0.098463
-0.035054
-0.143147
-0.003706
-0.086141
-0.025224
-0.019925
-0.036876
-0.090955
-0.085203
-0.048821
-0.027055
-0.107886
-0.068726
-0.090831
0.026017
-0.071593
-0.099674
-0.059713
-0.063500
-0.140591
0.014798
-0.055157
-0.059634
-0.081248
-0.152239
-0.041248
-0.040641
-0.066696
-0.055899
-0.148849
-0.123358
-0.041848
-0.068857
-0.058672
-0.004886
0.064698
0.067573
-0.039071
0.055210
-0.004701
0.105721
0.058728
0.095255
0.114166
0.125952
0.165871
0.085081
0.151245
0.106009
0.065677
-0.022580
0.031178
0.107621
0.096829
0.078751
0.003875
0.117975
0.045902
-0.059151
-0.071722
0.076908
-0.042779
-0.048487
-0.047517
-0.043155
-0.102173
-0.033073
-0.077975
0.007480
-0.039573
-0.023251
-0.106051
-0.107869
-0.121528
-0.023980
0.020124
0.180311
0.362398
0.712099
0.936596
1.190833
1.254867
1.123573
0.812680
0.424718
0.145313
-0.099543
-0.154588
-0.211483
-0.132585
-0.124938
0.000659
-0.022031
0.047029
0.042238
0.000524
0.008092
0.070536
0.097595
0.028802
0.055804
0.160727
0.150808
0.101080
0.164880
0.237890
0.210507
0.254233
0.253480
0.282389
0.266627
0.304195
0.303931
0.420249
0.390403
0.381308
0.445427
0.416426
0.447396
0.440427
0.496961
0.372601
0.502776
0.493306
0.407005
0.408717
0.405108
0.445243
0.375389
0.449952
0.445874
0.367004
0.362457
0.390732
0.351304
0.314340
0.328390
0.271580
0.253904
0.247432
0.259631
0.159152
0.207761
0.223147
0.104626
0.170815
0.065220
0.066636
0.113276
0.111924
0.050615
0.007837
0.010192
-0.035563
0.077357
0.122761
0.030048
-0.019850
-0.039712
-0.032920
-0.044067
-0.018633
0.007907
-0.018506
0.042860
0.027226
-0.039349
-0.012796
-0.072947
-0.081266
-0.020988
-0.017338
-0.031650
0.041337
-0.003005
-0.029246
-0.066802
-0.014430
0.005215
-0.065186
-0.030799
-0.070543
-0.066536
0.015218
0.022654
0.068288
-0.028933
-0.002672
0.001396
0.070328
0.004971
-0.011592
0.058713
-0.005746
0.004436
-0.014725
-0.018413
0.014043
0.075891
0.107984
0.009810
0.070293
0.049466
0.073118
0.084034
0.135821
0.169608
0.061440
0.145063
0.219654
0.141395
0.214824
0.145744
0.196381
0.247993
0.157888
0.229326
0.103966
0.184361
0.165446
0.156708
0.176155
0.199092
0.158842
0.122521
0.174547
0.064614
0.026568
0.093462
0.102909
0.051295
0.089693
0.090030
0.040977
0.046738
0.033503
0.114977
-0.012537
0.051307
0.037027
0.016626
0.040452
-0.007845
0.093702
0.220581
0.279536
0.577394
0.920867
1.131334
1.328861
1.258955
1.095632
0.802725
0.339328
0.087844
-0.159901
-0.129257
-0.104914
0.028361
0.003743
0.012179
0.116770
0.060865
0.075217
0.175092
0.149457
0.119642
0.193581
0.098412
0.268826
0.149536
0.214085
0.219660
0.270043
0.203499
0.398487
0.372709
0.320839
0.484752
0.412458
0.348146
0.384620
0.460742
0.457773
0.467735
0.512623
0.482056
0.534793
0.447356
0.523294
0.527687
0.515114
0.587926
0.478537
0.563267
0.530963
0.498998
0.466302
0.538687
0.438206
0.501702
0.490180
0.400055
0.418870
0.424150
0.369763
0.427738
0.332983
0.340840
0.314444
0.327060
0.317870
0.258576
0.186677
0.168200
0.218052
0.216568
0.209993
0.127040
0.257643
0.176883
0.133735
0.123108
0.068151
0.023617
0.048401
0.045087
0.063797
0.002859
0.093350
0.109807
0.091983
0.053589
0.135567
0.083059
0.034884
0.049802
0.028763
0.066947
0.056239
0.090447
0.006024
0.020497
-0.032019
0.058851
0.090698
0.008900
0.037811
-0.013785
0.040652
0.027569
0.066139
0.033270
0.050696
0.041092
0.048225
0.018843
0.066788
0.120403
0.047494
-0.033458
0.097158
-0.072486
0.061774
0.050826
0.142488
0.086847
0.185366
0.083010
0.137930
0.067987
0.161104
0.131049
0.102092
0.049034
0.150547
0.145604
0.203292
0.215507
0.249039
0.189592
0.213634
0.241834
0.223258
0.145325
0.212037
0.268923
0.217387
0.203606
0.190721
0.205228
0.187444
0.199537
0.214566
0.225429
0.108956
0.112760
0.089022
0.107791
0.045115
0.089641
0.016645
0.034294
0.042798
0.126803
0.043574
0.051272
0.021052
0.066421
0.005235
0.121068
-0.047186
0.095617
0.221087
0.517384
0.817697
0.979859
1.281181
1.392404
1.158663
0.883494
0.629941
0.225192
0.002260
-0.005143
-0.089381
-0.022445
-0.033942
0.016323
0.120903
0.140301
0.159294
0.111532
0.150778
0.146412
0.085860
0.204904
0.151369
0.219713
0.255236
0.187657
0.291955
0.292089
0.273573
0.305216
0.314651
0.372003
0.382701
0.344482
0.454265
0.450236
0.454187
0.529881
0.372734
0.502051
0.547004
0.505000
0.484413
0.444119
0.522887
0.508496
0.553813
0.463465
0.528172
0.556564
0.478058
0.472592
0.497373
0.469568
0.331743
0.429746
0.448161
0.351952
0.345648
0.316723
0.274328
0.301171
0.250587
0.266235
0.305862
0.226696
0.206666
0.137626
0.193477
0.171999
0.126042
0.051223
0.149250
0.124987
0.000104
0.060566
0.115089
0.029324
0.014385
0.086954
0.106264
-0.087106
0.041116
-0.015323
0.073682
-0.060173
-0.017474
-0.058145
-0.009472
-0.031474
0.068314
0.055988
-0.068459
0.053513
-0.026889
-0.045668
-0.015815
-0.040083
0.060222
0.006166
-0.038366
0.000491
-0.011591
-0.034847
0.085010
-0.027020
0.009884
-0.050595
0.000636
-0.027568
0.002262
0.000613
-0.026932
-0.037599
0.011667
-0.023292
0.036489
0.091087
-0.008759
0.082696
-0.008777
0.062880
0.032930
0.103805
-0.023129
0.036059
-0.007539
0.104872
0.203206
0.082566
0.027419
0.157742
0.152177
0.194886
0.124577
0.198422
0.162677
0.161062
0.089877
0.143886
0.094929
0.157940
0.147341
0.089422
0.142045
0.094648
0.120506
0.082942
0.033345
0.012199
0.074243
0.052906
0.019064
0.010201
0.025717
-0.016975
0.050686
-0.017728
-0.029309
0.014891
-0.065145
-0.008598
0.012885
-0.025102
0.006821
0.033001
0.116091
0.271207
0.505027
0.742882
1.196180
1.284104
1.197131
0.979876
0.699340
0.405398
0.047843
-0.204972
-0.197014
-0.221192
-0.080330
-0.030518
-0.057239
0.055119
0.053302
0.000249
0.126494
0.067650
0.027159
0.093045
0.089113
0.156611
0.111952
0.157998
0.211239
0.151095
0.283581
0.229327
0.181431
0.232310
0.239561
0.307974
0.352970
0.340050
0.342588
0.323174
0.398006
0.418270
0.458130
0.435804
0.392226
0.484044
0.388636
0.364871
0.510874
0.486816
0.382131
0.382069
0.371860
0.400405
0.402166
0.360591
0.386149
0.350658
0.359322
0.292455
0.313090
0.284570
0.197154
0.233658
0.255424
0.251183
0.204544
0.143435
0.079839
0.141737
0.071316
0.077582
0.045933
0.038215
0.007020
0.054576
-0.021807
-0.077307
-0.060940
0.053666
-0.071723
-0.107805
-0.048709
-0.081809
-0.125044
-0.061929
-0.095529
-0.016787
-0.116034
-0.088731
-0.079000
-0.129088
-0.100345
-0.080018
-0.083396
-0.076751
-0.135841
-0.144361
-0.126288
-0.026378
-0.079587
-0.040976
-0.084409
-0.134446
-0.062151
-0.116561
-0.127495
-0.088388
-0.148587
-0.132976
0.009379
-0.111607
-0.079235
-0.104572
0.006840
-0.038138
-0.096288
-0.108680
0.010252
-0.037606
-0.124478
-0.107554
-0.035390
-0.021005
-0.039447
-0.015956
-0.025912
0.017414
0.037745
0.044080
-0.006796
0.013049
0.071500
0.047791
0.057887
0.070399
0.018515
-0.025153
0.095418
0.097247
0.059391
0.142910
0.093608
0.057541
0.064835
0.067167
0.013371
0.027052
0.093228
0.003467
0.048552
-0.008929
-0.023891
-0.003635
-0.026132
-0.131059
-0.033590
-0.124636
-0.020859
-0.046074
-0.132210
-0.126705
-0.051681
-0.053770
-0.043242
-0.106932
-0.043783
-0.063206
-0.081622
0.140632
0.278344
0.559544
0.918497
1.120093
1.250606
1.067430
0.844667
0.461743
0.145666
-0.041252
-0.236358
-0.242277
-0.210924
-0.109439
-0.096442
-0.077401
0.010713
-0.007951
0.051460
0.032158
0.029037
-0.066937
0.024206
0.001093
0.168119
0.084848
0.099071
0.081305
0.121045
0.200816
0.241084
0.122302
0.281808
0.294907
0.267670
0.314701
0.318886
0.309181
0.328179
0.302932
0.333863
0.417017
0.427561
0.364482
0.489849
0.437980
0.418918
0.414826
0.452096
0.465645
0.429536
0.309708
0.372616
0.391752
0.440073
0.304990
0.271017
0.229397
0.274416
0.254152
0.207138
0.225502
0.194549
0.063890
0.166042
0.166925
0.148612
0.104738
0.114321
0.087195
0.109865
0.086843
0.058836
0.025614
-0.045706
-0.008360
-0.082705
-0.017860
-0.032960
-0.087616
0.016293
0.004981
-0.028764
-0.028227
-0.051110
-0.043035
-0.052645
0.012528
-0.108343
-0.078817
-0.093308
-0.099480
-0.004364
-0.113069
-0.072950
-0.089071
-0.059542
-0.037128
-0.021327
-0.049461
-0.028049
-0.109913
0.038255
-0.097273
-0.119139
-0.079138
-0.120105
-0.033885
-0.086451
-0.107481
-0.112140
-0.076487
-0.099249
-0.050246
-0.009401
-0.066949
-0.125207
-0.013537
-0.023001
-0.000914
-0.156056
0.006931
0.023278
0.048104
0.036280
0.038543
0.003993
-0.018433
0.018157
0.030639
0.038157
0.085686
0.065524
0.066666
0.129574
0.144316
0.140144
0.140342
0.130814
0.093403
0.143609
0.095225
0.135342
0.131056
0.054883
0.077970
0.156440
0.041388
0.081206
0.052801
-0.023559
0.080812
-0.009116
0.023547
0.031179
0.031487
-0.033010
-0.006778
-0.010911
-0.004440
-0.050227
-0.052754
0.088915
0.021692
0.020038
0.050061
-0.001566
0.106339
0.258965
0.479785
0.829876
1.134933
1.271234
1.263453
1.141967
0.718813
0.430368
0.072249
-0.157821
-0.185908
-0.125822
-0.103560
-0.054635
0.022629
0.036616
0.093117
0.101055
0.058189
0.025616
0.085197
0.042249
0.109730
0.164562
0.174107
0.252720
0.233901
0.230555
0.244856
0.302985
0.239589
0.331798
0.396335
0.330932
0.349816
0.387183
0.381756
0.420616
0.407712
0.425602
0.496474
0.462960
0.481910
0.488991
0.585032
0.536176
0.465853
0.463981
0.559762
0.550535
0.477584
0.464065
0.506855
0.516827
0.468687
0.435826
0.420560
0.350645
0.345685
0.394645
0.287285
0.367019
0.272649
0.311678
0.271713
0.189085
0.221101
0.224878
0.241954
0.229130
0.160754
0.085769
0.173758
0.082043
0.115332
0.056191
0.133738
0.007765
0.032734
0.095739
0.017187
-0.010429
0.103215
0.055345
0.068851
0.008760
0.048237
0.007835
0.068421
0.135829
0.060067
0.080455
-0.021632
0.057521
0.029845
0.058408
-0.012476
0.036401
0.093505
0.026722
0.017684
0.043986
0.043389
0.087498
0.071890
0.014324
-0.007664
0.090875
0.051113
0.088966
0.120452
0.054620
0.027078
0.066868
0.004279
0.148271
0.103548
0.065532
0.052858
-0.002093
0.053946
0.098029
0.059783
0.061500
0.105006
0.150547
0.185643
0.156727
0.147754
0.156258
0.046919
0.219072
0.194798
0.237758
0.251659
0.255538
0.220463
0.182418
0.140131
0.219139
0.172516
0.179690
0.116458
0.170333
0.273461
0.267477
0.208609
0.171629
0.213748
0.128433
0.191739
0.200060
0.132395
0.084247
0.109880
0.096805
0.087995
0.129311
0.175022
0.112683
0.038894
0.089618
0.040222
0.065946
0.079281
0.021318
0.076177
0.234087
0.478243
0.748163
1.071449
1.270113
1.328571
1.241353
0.919540
0.685627
0.336359
0.098027
-0.049768
-0.026945
-0.033190
0.062288
0.072542
0.163777
0.094946
0.156573
0.077712
0.101904
0.145618
0.130689
0.207038
0.233803
0.290580
0.289503
0.231553
0.252399
0.251245
0.377233
0.415650
0.371163
0.340006
0.368475
0.465664
0.482180
0.550815
0.421462
0.464412
0.497965
0.615114
0.539661
0.567575
0.616339
0.624386
0.601270
0.540985
0.602455
0.618378
0.574416
0.531672
0.524166
0.474766
0.552624
0.491771
0.468632
0.487516
0.494098
0.456245
0.446393
0.474278
0.381046
0.380327
0.396627
0.287227
0.227352
0.360058
0.250008
0.217073
0.265915
0.157052
0.153064
0.204084
0.226297
0.165486
0.136558
0.153888
