0.029284
-0.012072
0.059105
-0.046630
-0.016223
0.022708
-0.070691
0.054187
0.012538
0.011568
-0.056041
-0.049223
-0.012066
0.014136
0.058355
-0.020025
-0.006431
0.084523
0.019694
0.060560
0.034925
0.130441
0.075960
0.088301
0.070720
0.091870
0.062687
0.154112
0.144834
0.116863
0.170656
0.190621
0.126635
0.094758
0.065251
0.097047
0.250190
0.221125
0.232800
0.280090
0.183524
0.254218
0.124206
0.200740
0.176131
0.194286
0.148155
0.101923
0.180924
0.145516
0.171215
0.035771
0.066326
0.073625
0.097952
0.072044
0.032146
0.086161
0.090101
0.019113
0.038206
0.010353
-0.016103
0.111043
0.036763
0.026568
-0.026615
0.076507
0.042952
0.102717
0.257574
0.359565
0.789139
1.007720
1.448541
1.455969
1.379027
1.130885
0.728870
0.409008
0.162369
-0.103653
-0.154106
-0.184717
-0.084049
0.076444
0.047580
0.048982
0.090828
0.097922
0.114724
0.166869
0.173235
0.157177
0.198100
0.164502
0.175192
0.250349
0.195021
0.260371
0.250538
0.183074
0.323699
0.275887
0.318629
0.435424
0.345392
0.436225
0.345648
0.492877
0.424603
0.503243
0.482003
0.535674
0.552056
0.502394
0.582728
0.646907
0.578068
0.643966
0.584034
0.678180
0.665216
0.630049
0.626154
0.556004
0.526830
0.585232
0.602186
0.573211
0.532619
0.548720
0.489885
0.465991
0.446753
0.404689
0.474387
0.427438
0.412318
0.432164
0.361530
0.335972
0.355475
0.290817
0.317597
0.242423
0.132761
0.289620
0.250838
0.226464
0.161627
0.106828
0.141555
0.151876
0.114050
0.069428
0.174358
0.048320
0.055024
0.075787
0.105878
0.022210
0.100359
0.111360
0.028867
0.078221
0.035267
0.085249
0.120235
0.067924
0.112001
0.129152
0.053386
0.145311
0.078944
0.155667
0.061159
-0.029786
0.102599
0.129919
0.101023
0.126093
0.118726
0.128195
0.087985
0.104203
0.080939
0.137491
0.055429
0.111980
0.113977
0.210330
0.169973
0.065449
0.092405
0.089701
0.100157
0.194723
0.090348
0.113781
0.045981
0.113635
0.111127
0.128166
0.075522
0.122545
0.118353
0.157298
0.121902
0.139183
0.201531
0.172241
0.209296
0.099481
0.223183
0.295371
0.178649
0.125192
0.276913
0.217273
0.226910
0.300792
0.254284
0.266446
0.283939
0.284858
0.242065
0.317055
0.236760
0.245317
0.331550
0.246399
0.184056
0.198163
0.188020
0.205070
0.169285
0.252467
0.199437
0.196969
0.149584
0.143219
0.217858
0.046494
0.103625
0.147036
0.105945
0.117346
0.108218
0.120029
0.103678
0.128196
0.101607
0.186643
0.053911
0.144203
0.043179
0.247488
0.350482
0.657471
0.999949
1.349916
1.414643
1.493854
1.348118
0.926445
0.593796
0.220621
-0.044906
-0.192038
-0.058056
-0.164885
-0.009276
0.073748
0.176127
0.095766
0.152386
0.192820
0.080745
0.065715
0.084751
0.173715
0.122900
0.212034
0.184996
0.154294
0.228196
0.241846
0.246464
0.272267
0.335298
0.297605
0.335379
0.316575
0.435193
0.446699
0.378500
0.598836
0.470675
0.562733
0.525138
0.524356
0.478890
0.480344
0.577309
0.445174
0.551111
0.642364
0.619983
0.694733
0.520290
0.595290
0.616994
0.569890
0.635028
0.561084
0.586880
0.565024
0.538898
0.452149
0.431059
0.437420
0.486391
0.428421
0.449477
0.381057
0.307646
0.389990
0.272869
0.293251
0.340305
0.267267
0.235902
0.289187
0.187870
0.226605
0.199439
0.163581
0.166150
0.115735
0.088376
0.054996
0.122439
0.050127
0.071061
0.109805
0.017165
0.081898
0.089583
0.017418
0.063948
0.072830
0.059450
0.053783
0.068203
0.100166
0.003107
0.096756
0.049838
-0.057043
0.018202
0.097663
0.049453
0.059860
0.034657
0.088195
-0.000701
-0.023579
0.042143
0.048439
-0.017437
0.004963
0.033280
0.018484
-0.054002
-0.037514
-0.026921
0.090447
0.091939
0.050207
-0.039994
0.023693
0.014921
0.044071
-0.006300
0.056163
0.016888
0.005232
0.026410
-0.010418
0.032484
0.029731
0.033343
0.083785
0.155599
-0.061502
0.097841
0.039385
0.013152
0.153246
0.051342
0.096405
0.116553
0.139391
0.161598
0.061287
0.221559
0.193560
0.148006
0.190628
0.191485
0.229774
0.169719
0.205075
0.161300
0.209671
0.143332
0.138060
0.145021
0.159486
0.054902
0.107645
0.108746
0.141769
0.125487
0.073668
0.025285
0.020443
0.113564
0.084559
0.080036
0.012708
0.151933
-0.012500
-0.020894
-0.078709
-0.050692
-0.022321
0.022564
-0.030465
0.085042
-0.133235
0.034917
0.010040
0.033205
0.216486
0.401637
0.695321
1.012870
1.253571
1.435810
1.369068
1.058645
0.652553
0.332864
0.060109
-0.117521
-0.310544
-0.191983
-0.138511
-0.123565
-0.013070
-0.092665
0.052770
0.008101
-0.019096
-0.069373
0.055584
0.078942
0.066451
0.133046
0.090792
0.129178
0.194359
0.132279
0.144726
0.182902
0.179413
0.234717
0.198472
0.239965
0.202264
0.349158
0.355834
0.306463
0.425398
0.355657
0.392104
0.545705
0.399891
0.437058
0.415823
0.457401
0.542786
0.465395
0.398130
0.490937
0.518818
0.528838
0.452484
0.484035
0.508313
0.466155
0.513242
0.370198
0.473884
0.436856
0.479494
0.369267
0.359896
0.276288
0.243254
0.339486
0.167291
0.206227
0.144628
0.123707
0.289037
0.138551
0.174033
0.149011
0.108817
0.135866
0.033460
0.115625
0.064617
0.039299
0.153044
0.063140
0.023855
0.066754
-0.011588
-0.079194
-0.069974
-0.059696
-0.003776
-0.087411
0.023243
-0.056170
-0.078361
-0.038156
-0.081043
-0.088356
0.015823
-0.074265
-0.061499
-0.021744
-0.116509
-0.096462
0.011984
-0.045940
-0.154595
-0.047458
0.016528
-0.003185
-0.058192
-0.086306
-0.015158
0.039800
-0.067939
0.026544
0.040636
-0.024942
-0.093751
-0.058642
-0.067033
-0.025710
-0.131905
-0.045199
-0.089374
-0.119896
-0.115937
-0.106723
-0.044967
-0.033270
-0.035490
-0.084078
-0.040339
-0.013324
-0.089043
-0.019435
0.010687
-0.069806
0.020442
-0.016860
0.023831
0.058313
0.041761
0.035827
0.067657
0.126934
0.094026
0.069210
0.075175
0.088757
0.148141
0.129110
0.081461
0.106224
0.189522
0.062795
0.122372
0.132875
0.141526
0.134951
0.160463
0.084212
0.092667
0.065242
0.125101
0.102707
0.057769
0.099033
0.064816
0.088688
0.031890
0.028394
0.062669
-0.054432
-0.034769
-0.014981
-0.017849
-0.010018
0.019649
-0.038430
0.052675
-0.090318
0.065729
-0.005212
-0.123552
-0.051889
-0.120007
0.084945
0.241704
0.471326
0.815923
1.184018
1.412976
1.436750
1.204017
0.880244
0.495168
0.125517
-0.032560
-0.158271
-0.293558
-0.217222
-0.151777
-0.114768
0.111287
-0.010601
-0.069171
-0.062446
0.047014
0.064103
0.072972
0.076849
0.014768
0.103447
0.089451
0.145740
0.145919
0.191197
0.185806
0.262281
0.179238
0.134600
0.281933
0.244886
0.352318
0.337120
0.367940
0.349043
0.442481
0.343342
0.421838
0.460158
0.454833
0.460114
0.525918
0.532934
0.492606
0.563947
0.541908
0.593860
0.511857
0.566475
0.454576
0.493679
0.460710
0.597782
0.446878
0.452953
0.466051
0.456621
0.481083
0.412628
0.390484
0.323083
0.350531
0.311645
0.294681
0.231157
0.253382
0.154896
0.187241
0.204247
0.220824
0.195105
0.230103
0.130847
0.114760
0.132928
0.094522
0.130313
0.076224
0.023320
0.055288
0.048604
-0.033498
0.060202
0.031278
0.071573
-0.062055
0.038861
-0.079522
-0.002569
-0.012700
0.028135
-0.019124
-0.021874
0.039461
-0.089630
0.034237
0.014163
-0.030400
0.067510
-0.035285
-0.007576
-0.026695
0.010565
0.036905
0.014282
0.059726
-0.005465
-0.031980
0.030780
0.049292
-0.068041
0.027630
-0.001273
-0.005310
-0.002136
0.043147
-0.087491
-0.010406
0.029040
0.005688
0.066694
0.142549
-0.026587
0.021137
0.062801
-0.002240
0.059064
-0.036255
0.009175
0.158885
0.073708
0.122048
0.098102
0.065409
0.137062
0.065578
0.063251
0.179468
0.109136
0.194444
0.191350
0.287468
0.189363
0.270204
0.120072
0.234382
0.304878
0.172912
0.240410
0.246180
0.216373
0.216071
0.254598
0.299659
0.287768
0.228549
0.229241
0.221649
0.253267
0.153226
0.225649
0.243037
0.137254
0.159622
0.133791
0.089756
0.152296
0.088532
0.155753
-0.045124
0.162324
0.125909
0.109030
0.111514
-0.006070
0.065240
0.163278
0.049865
0.053945
0.116871
0.013583
0.127235
0.280763
0.480620
0.876470
1.073137
1.324562
1.480179
1.500000
1.178049
0.806240
0.310308
0.120725
-0.123141
-0.158511
-0.170425
-0.169924
0.042787
0.153437
0.100174
0.118184
0.097473
0.147945
0.049792
0.067315
0.213279
0.162427
0.257352
0.199608
0.224761
0.232585
0.178657
0.239221
0.341634
0.310974
0.253148
0.264777
0.392052
0.401379
0.405113
0.486046
0.441518
0.489516
0.425543
0.449222
0.464595
0.587065
0.695932
0.492452
0.677495
0.609785
0.612965
0.616971
0.516616
0.655356
0.617058
0.678946
0.578548
0.566223
0.565570
0.647445
0.582347
0.632790
0.550873
0.496359
0.427800
0.560155
0.475292
0.412048
0.458636
0.331982
0.373727
0.293462
0.308311
0.344400
0.261767
0.307302
0.228586
0.301167
0.232916
0.212796
0.191772
0.159361
0.255383
0.091516
0.145264
0.111894
0.125848
0.153220
0.156342
0.056235
0.139511
0.162267
0.133807
0.117824
0.122682
0.104388
0.089663
0.154464
0.119551
0.189344
0.162556
0.044974
0.166314
0.165543
0.126390
0.118499
0.140713
0.134483
0.098060
0.063596
0.070676
0.056385
0.178171
0.115504
0.098758
-0.016190
0.078513
0.160149
0.057733
0.089681
0.086383
0.077606
0.128388
0.106803
0.166170
0.059082
-0.031517
0.226067
0.140347
0.011972
0.081062
0.024324
0.162709
0.149696
0.145763
0.048770
0.079469
0.084682
0.130712
0.068285
0.121853
0.210956
0.177198
0.165572
0.149772
0.154937
0.252461
0.145779
0.298721
0.253582
0.268441
0.307073
0.222676
0.228021
0.315271
0.364393
0.324108
0.359663
0.330582
0.306874
0.267772
0.251068
0.245722
0.247102
0.237210
0.263502
0.252974
0.178448
0.185901
0.223508
0.215700
0.167200
0.052813
0.172495
0.121689
0.044035
0.132655
0.147039
0.101035
0.067511
0.139865
0.095822
0.111518
0.058616
0.047971
0.081249
-0.002640
0.080255
0.232485
0.393818
0.536862
0.982609
1.298641
1.410263
1.465136
1.276169
1.002143
0.565107
0.189161
0.077653
-0.138267
-0.100141
-0.093962
0.053023
0.041576
0.066320
0.071985
0.045309
0.172123
0.260135
0.146075
0.119417
0.087797
0.217245
0.233262
0.252108
0.211187
0.227854
0.272995
0.204157
0.279213
0.295104
0.304417
0.349361
0.402710
0.386870
0.427209
0.461010
0.400766
0.504375
0.478358
0.507242
0.447308
0.557599
0.534253
0.584118
0.616984
0.483225
0.603497
0.659791
0.610894
0.591163
0.612154
0.704039
0.598900
0.625305
0.550055
0.530733
0.581839
0.608366
0.487750
0.416954
0.520610
0.474576
0.390415
0.361805
0.370277
0.344329
0.328789
0.352867
0.346656
0.225087
0.260822
0.250364
0.179318
0.149298
0.105809
0.116152
0.137593
0.049391
0.149257
0.151430
0.138436
0.009124
0.110972
0.057117
0.068377
0.119696
0.124169
-0.042029
0.011788
0.045320
0.023592
-0.012806
-0.044566
0.022746
0.048887
0.060034
-0.008771
0.043549
0.079695
0.062555
0.027583
0.123499
0.053909
0.006951
-0.020219
0.075460
0.096722
0.077427
-0.038456
-0.026907
0.064604
-0.027694
0.037106
-0.044693
0.075991
0.125059
-0.009538
-0.025753
-0.047795
0.075944
0.008878
-0.053044
0.018315
0.005057
0.042842
0.005692
0.052657
-0.082376
0.038553
0.050810
0.063201
0.030834
0.021312
0.030560
0.060742
-0.003966
0.000775
0.097304
0.103537
0.120905
0.091352
0.099354
0.153377
0.099402
0.101954
0.107849
0.216821
0.069484
0.195826
0.257031
0.176681
0.100167
0.146674
0.122821
0.158198
0.141255
0.184211
0.106611
0.088274
0.152509
0.050878
0.056599
0.128607
0.059537
0.115949
0.028129
0.038206
0.109833
-0.051305
0.024086
-0.016368
0.079801
-0.010258
-0.019563
0.019239
-0.047178
-0.043193
0.001615
0.050180
-0.017059
0.000138
0.019393
-0.036920
0.031861
0.159992
0.422766
0.649280
1.053395
1.253115
1.403467
1.320745
1.082533
0.697558
0.243906
-0.019364
-0.187955
-0.191826
-0.245323
-0.199765
-0.158614
-0.022602
-0.036305
-0.028597
-0.019496
0.048262
0.034447
0.069991
0.113195
0.039504
0.181032
0.131217
-0.043483
0.034195
0.113557
0.140067
0.094209
0.175000
0.214275
0.214384
0.200988
0.226474
0.259627
0.242344
0.341942
0.354933
0.358602
0.377580
0.443970
0.350129
0.498828
0.457563
0.411924
0.467263
0.483611
0.539679
0.487134
0.573189
0.520928
0.448207
0.542238
0.427914
0.518215
0.497862
0.447121
0.445753
0.333486
0.422473
0.312354
0.253097
0.330330
0.279457
0.268293
0.295369
0.344318
0.154226
0.136827
0.214133
0.097501
0.090521
0.084309
0.102721
0.026601
0.099809
0.083248
-0.047973
0.011209
-0.002845
0.024624
-0.000264
-0.006227
0.027276
-0.042261
-0.068940
-0.072928
-0.066471
0.031034
-0.012315
-0.078684
-0.105041
-0.055057
-0.091533
-0.029695
-0.131229
0.001118
-0.088264
-0.056435
-0.065416
-0.150742
-0.055880
-0.047768
-0.067418
-0.131107
-0.035374
-0.100845
-0.050457
-0.086091
-0.060378
-0.136450
-0.129096
-0.132425
-0.090888
-0.053494
-0.124927
-0.109752
-0.123146
-0.182883
-0.091422
-0.091585
-0.092845
-0.123684
-0.100448
-0.123703
-0.046003
-0.096818
0.019305
-0.121897
-0.065430
-0.062930
-0.112810
-0.060919
-0.088567
-0.002071
-0.037022
-0.073861
-0.034981
0.007211
-0.060400
0.141102
-0.012562
0.088013
0.068110
0.060691
0.037862
0.039373
0.051886
0.026398
0.024968
0.171858
0.069057
0.110709
0.094015
0.078069
0.067812
0.083750
0.035971
0.088291
0.057179
0.124351
-0.035303
0.073378
0.049390
0.120109
0.003937
-0.006331
0.022482
-0.061749
-0.101223
-0.023666
-0.086819
-0.044540
-0.142342
-0.093876
-0.099176
-0.153136
-0.110810
-0.090824
-0.097275
-0.093281
-0.079521
-0.073516
-0.084877
0.052447
0.177946
0.397477
0.800543
1.051700
1.356861
1.347085
1.183501
0.805219
0.413662
0.059286
-0.098900
-0.335043
-0.261761
-0.197516
-0.166324
0.012569
-0.069714
-0.066299
0.051226
-0.093718
-0.064375
0.014813
-0.064937
-0.038960
0.018580
0.077138
0.079517
0.104090
0.067602
0.144736
0.151974
0.113955
0.129784
0.143343
0.187425
0.292645
0.268306
0.305850
0.251864
0.247769
0.309954
0.396636
0.397861
0.484768
0.478186
0.410611
0.449589
0.416091
0.498490
0.490347
0.447974
0.426281
0.522517
0.570427
0.453547
0.525686
0.515753
0.456806
0.436550
0.408975
0.409133
0.357018
0.335653
0.327495
0.337389
0.270385
0.341322
0.326402
0.199293
0.202953
0.284441
0.222155
0.201579
0.098149
0.200856
0.021250
-0.044324
0.047739
0.035266
0.077904
0.098233
-0.014369
-0.032250
-0.080751
-0.005324
0.018802
-0.042472
0.049751
0.033385
0.055302
-0.014907
-0.052535
-0.031973
0.035198
-0.139310
0.009711
-0.066696
0.004402
-0.070556
-0.105233
-0.062203
-0.022685
-0.118986
-0.083335
-0.044323
-0.059480
-0.115329
0.017126
0.038900
0.049633
-0.018368
-0.059167
0.006757
-0.037685
-0.047057
-0.004185
-0.005062
-0.037887
-0.069153
0.094670
-0.090526
-0.008270
-0.099762
-0.017210
-0.104932
0.061879
-0.002397
-0.091981
-0.075578
-0.029997
-0.032139
0.052674
-0.138677
0.031946
-0.008644
0.069469
-0.040863
-0.031392
-0.004146
0.082089
-0.033785
0.038273
0.080422
0.170121
0.025417
0.073280
0.096250
0.163222
0.173195
0.124096
0.165370
0.137248
0.115981
0.167954
0.238643
0.131197
0.180914
0.228719
0.192380
0.201152
0.172143
0.208921
0.122932
0.166673
0.116461
0.167917
0.141943
0.069037
0.100222
0.063900
0.076540
0.059238
-0.025602
0.050015
-0.026327
0.022741
-0.069103
0.109549
0.098380
0.081630
-0.043358
-0.058626
0.020608
0.037088
-0.004374
-0.013423
0.003733
0.217400
0.464633
0.715042
1.078420
1.344965
1.472037
1.401889
1.069711
0.693684
0.376545
0.092747
-0.104997
-0.201005
-0.163634
-0.151269
0.011678
0.079314
0.020594
-0.028739
-0.047469
0.057291
0.072126
0.074868
0.123018
0.114816
0.134553
0.158156
0.162802
0.154828
0.145825
0.234033
0.240144
0.283462
0.285641
0.293141
0.334507
0.389694
0.376141
0.393679
0.380298
0.488584
0.461189
0.516825
0.509964
0.584600
0.531603
0.497424
0.474225
0.537879
0.548614
0.625254
0.602358
0.634699
0.575952
0.557477
0.683446
0.593083
0.583669
0.555646
0.512294
0.470605
0.464468
0.405630
0.483614
0.467565
0.463278
0.378260
0.387558
0.279438
0.390279
0.313639
0.280218
0.228810
0.183286
0.198623
0.274396
0.178268
0.145757
0.180876
0.169086
0.090160
0.111682
0.132265
0.188378
0.116583
0.177663
-0.006923
0.061319
0.060545
-0.000833
-0.034391
0.091602
0.071621
0.064449
0.037713
0.085716
0.103487
-0.033447
-0.012756
0.127016
0.028021
0.086450
0.007375
0.017846
0.092824
-0.007466
0.100032
0.006731
-0.030240
0.113426
0.039997
0.124318
0.000926
0.112864
0.094268
0.037370
0.020586
0.088942
-0.030627
0.014066
-0.057825
0.024184
0.050603
0.031453
0.124886
0.101252
0.063299
0.125052
0.028778
0.047859
0.069906
0.111634
0.102354
0.063809
0.019709
0.034727
0.082746
0.082800
0.094788
0.110840
0.125573
0.017768
0.152732
0.214376
0.096211
0.130320
0.194681
0.228823
0.195850
0.229438
0.161750
0.304529
0.143857
0.208420
0.246252
0.241342
0.203539
0.231060
0.226410
0.246632
0.262873
0.170494
0.176240
0.146509
0.177448
0.073714
0.231890
0.136547
0.129967
0.054589
0.123662
0.112464
0.032103
0.107958
-0.032180
0.076508
0.038768
0.097171
0.063569
0.040642
0.033685
0.119044
0.029584
0.082228
-0.005733
0.111557
0.069518
0.161006
0.284537
0.681338
0.878451
1.235968
1.420081
1.477044
1.279006
0.919416
0.491807
0.249403
-0.079229
-0.170219
-0.037913
-0.118525
-0.106812
0.008852
-0.009452
0.137616
0.107991
0.193690
0.080483
0.150296
0.139196
0.083730
0.111821
0.166071
0.230997
0.133417
0.208443
0.192926
0.183115
0.130275
0.362954
0.305688
0.267945
0.329199
0.328662
0.413903
0.419109
0.380986
0.475617
0.394829
0.464195
0.509991
0.506735
0.502967
0.488351
0.525140
0.586366
0.561237
0.544877
0.530004
0.509948
0.478545
0.522321
0.585391
0.529683
0.493425
0.480345
0.572434
0.454057
0.468521
0.371206
0.329859
0.363168
0.475519
0.440496
0.324967
0.297349
0.302678
0.202896
0.205011
0.177737
0.151249
0.170237
0.172015
0.116514
0.115014
0.132653
0.128397
0.118486
0.053963
0.054147
0.026262
0.056683
0.073945
0.008988
0.054501
0.036539
0.110374
-0.016078
0.007706
-0.104044
0.040287
0.053981
-0.019412
0.014023
-0.052754
0.070346
-0.033438
0.046179
0.010382
0.018084
0.024980
0.012466
-0.151544
0.011839
0.008785
-0.064595
0.074156
0.037079
0.026814
-0.039152
-0.001588
0.039363
-0.004100
0.038182
-0.022751
-0.091960
0.091918
0.068190
-0.013469
0.031314
0.009088
-0.115103
-0.047485
-0.064211
0.056612
-0.063248
-0.065523
-0.017186
-0.035144
-0.099696
-0.048820
0.024300
-0.100079
0.027537
-0.035474
-0.010177
0.087801
0.038030
0.094264
0.068457
0.105849
0.087661
0.095384
0.100573
0.036478
0.163612
0.079977
0.151780
0.087160
0.186253
0.177044
0.216041
0.159082
0.193500
0.183120
0.183253
0.137410
0.158800
0.111774
0.134083
0.106729
0.071398
0.122961
0.052092
0.078199
-0.065140
-0.028252
0.005601
-0.009779
-0.048263
-0.071281
0.049725
-0.034362
0.026971
0.066042
-0.049287
-0.011385
-0.099299
-0.085670
-0.091681
-0.015673
-0.041221
-0.036031
-0.039487
0.112231
0.354050
0.634317
0.902895
1.212699
1.424759
1.305579
0.981075
0.701472
0.255678
0.017221
-0.194683
-0.297238
-0.229014
-0.164823
-0.165259
-0.056452
0.023475
-0.075653
-0.036471
0.065742
0.021734
0.010899
-0.012770
0.023609
0.068916
0.060403
0.020981
0.037031
0.097040
0.150672
0.105146
0.085870
0.242001
0.083957
0.183666
0.241865
0.171822
0.199930
0.333079
0.342599
0.335482
0.329600
0.334489
0.310084
0.380101
0.418835
0.449328
0.388545
0.455161
0.400332
0.389167
0.405432
0.514517
0.486292
0.508512
0.439449
0.377745
0.468882
0.383012
0.370470
0.287461
0.382321
0.327279
0.212612
0.260817
0.163882
0.233989
0.201278
0.141371
0.245507
0.120075
0.121570
0.125157
-0.028550
0.111112
0.015298
-0.052975
0.047203
0.092755
0.009732
0.010805
-0.001215
0.051835
-0.032028
0.030232
-0.016948
-0.083242
-0.100405
-0.082549
-0.100524
-0.141861
-0.134077
-0.152632
-0.110340
-0.108480
-0.141357
-0.171123
-0.029113
-0.130621
-0.120573
-0.110330
-0.122767
-0.186963
-0.178900
-0.141416
-0.030780
-0.135378
-0.131961
-0.123020
-0.087913
-0.126110
-0.102065
-0.069327
-0.161429
-0.148651
-0.141151
-0.042211
-0.078588
-0.078583
-0.185333
-0.078691
-0.070693
-0.083739
-0.100778
-0.085464
-0.124396
-0.150595
-0.099707
-0.149627
-0.080452
-0.054624
-0.051278
-0.123503
-0.090366
-0.070873
-0.180761
-0.068039
-0.045108
0.011873
-0.083711
0.016419
0.009827
0.054776
0.012725
0.032052
0.063491
0.020977
-0.021257
0.105398
0.014600
0.094941
0.105230
0.080633
0.055243
0.107187
0.027323
-0.001781
0.040184
0.052607
0.109800
0.006307
0.038681
0.069942
-0.013556
0.078276
0.047094
0.003459
0.004000
-0.019192
-0.000459
-0.075513
-0.105662
-0.057178
-0.092262
-0.157913
-0.078497
-0.143812
-0.077187
-0.096576
-0.142579
-0.029614
-0.056550
-0.120095
-0.086522
-0.144498
-0.001585
0.032414
0.146592
0.530600
0.834421
1.093331
1.289641
1.324824
1.100385
0.768857
0.468134
0.156369
-0.268747
-0.274925
-0.244594
-0.200204
-0.081548
-0.127896
-0.053373
-0.093988
-0.070005
-0.023851
-0.086085
-0.095722
-0.018068
-0.029426
0.084856
0.013882
-0.002957
0.125741
0.001135
0.163004
0.086055
0.126622
0.114845
0.173205
0.162282
0.179748
0.239574
0.313010
0.279555
0.296748
0.403408
0.282173
0.385534
0.378490
0.414425
0.433935
0.509361
0.414873
0.482286
0.445531
0.421770
0.462444
0.411737
0.495247
0.486959
0.423212
0.443546
0.441005
0.446127
0.417952
0.368649
0.385213
0.407303
0.376267
0.262507
0.290912
0.278493
0.213268
0.203338
0.281645
0.178349
0.209150
0.203801
0.060225
0.181010
0.088538
0.113678
-0.018437
0.095127
0.081675
0.059122
0.007304
-0.035657
0.072157
0.015345
-0.001238
0.005468
0.009964
-0.062352
-0.047977
-0.002817
-0.076381
-0.069590
-0.068409
-0.091840
-0.044013
0.017712
-0.000798
-0.095455
-0.065411
0.034207
0.017477
-0.121629
-0.034093
-0.087507
-0.053117
-0.070715
0.000036
-0.198957
-0.034646
-0.063915
-0.011931
-0.050150
-0.087562
0.033111
-0.050354
-0.047348
-0.067667
0.048838
-0.049185
0.010237
-0.094135
0.036173
-0.023141
-0.028340
0.030977
-0.087488
0.039007
-0.075118
-0.035933
0.056113
-0.046587
0.033396
0.023882
-0.080933
-0.045696
0.034750
-0.015982
0.021223
0.039181
0.090891
0.094201
0.182171
0.012045
0.210394
0.132251
0.207591
0.132228
0.155268
0.112765
0.195297
0.183472
0.202533
0.213398
0.216905
0.191744
0.170698
0.175190
0.250053
0.186173
0.122879
0.218247
0.096548
0.175339
0.067624
0.116953
0.052429
0.108919
0.064596
0.093313
0.088347
-0.045569
-0.042821
-0.029792
0.012618
0.011643
0.039375
0.093828
0.015417
0.058588
-0.024744
0.006270
0.078238
0.091098
0.018157
-0.010260
0.084215
0.300850
0.340936
0.689547
1.116568
1.341879
1.480190
1.432803
1.163407
0.665035
0.383694
-0.007569
-0.149574
-0.241799
-0.218615
-0.002943
0.070103
0.087051
0.060557
0.128579
-0.031329
0.101741
0.078141
0.001650
0.112647
0.088398
0.048380
0.206808
0.144382
0.240487
0.185647
0.188796
0.229707
0.243831
0.295945
0.266896
0.345745
0.366597
0.419124
0.404130
0.475706
0.421223
0.525611
0.507439
0.546527
0.557336
0.526143
0.564622
0.543348
0.587917
0.543619
0.548572
0.598720
0.603384
0.607047
0.529116
0.586088
0.603702
0.602828
0.545839
0.503105
0.525924
0.567309
0.487062
0.458542
0.404382
0.424019
0.469312
0.343123
0.388348
0.310047
0.345503
0.212153
0.289920
0.212233
0.306479
0.259587
0.189218
0.203863
0.159402
0.138826
0.103998
0.189107
0.146719
0.107358
0.238220
0.093775
0.102520
0.055988
0.009076
0.031943
0.103305
0.141991
0.102784
0.078520
0.084600
0.088061
0.102154
0.054970
0.102512
-0.009749
0.127802
0.049345
0.143920
0.041706
0.117780
0.047734
0.113501
0.034223
0.113654
0.046989
0.024971
0.131022
0.056105
0.064299
0.122619
0.041498
-0.001243
0.134734
0.083579
0.121624
0.083531
0.080029
0.093056
0.154451
0.086947
0.067861
0.040197
0.059128
-0.002878
0.024762
0.069454
-0.032097
0.140393
0.126400
0.140078
0.048902
0.107772
0.162850
0.129316
0.104656
0.083749
0.137224
0.173672
0.161714
0.129619
0.164327
0.171788
0.270626
0.221856
0.255954
0.284112
0.162535
0.268764
0.151718
0.163788
0.297154
0.225244
0.281355
0.221835
0.260181
0.265666
0.151999
0.225912
0.157014
0.200798
0.143639
0.190877
0.124886
0.132490
0.148583
0.095474
0.079487
0.102566
0.114147
0.145384
0.127051
0.038142
0.032739
0.112886
0.119239
