0.004261
-0.038375
0.116078
0.047843
-0.041052
0.000914
0.036152
0.039428
0.010301
0.060873
0.054190
-0.056236
0.022005
0.005421
0.059683
0.093333
0.005337
0.007313
0.082754
0.058695
0.125871
0.112520
0.006467
0.049657
0.097198
0.054493
0.063224
0.105126
0.137056
0.077236
0.143385
0.163098
0.153199
0.189024
0.164442
0.228587
0.172665
0.193906
0.215848
0.181410
0.119490
0.252699
0.175605
0.237201
0.262634
0.211350
0.239474
0.151558
0.153357
0.100132
0.138485
0.204641
0.135069
0.090545
0.016368
-0.033224
0.055078
0.117495
0.093588
0.008602
0.069636
0.007787
0.011536
0.137330
-0.000439
0.003913
-0.002021
-0.001976
0.037096
0.030369
0.070285
0.064843
0.063253
0.154439
0.514722
0.755699
1.125645
1.333405
1.443732
1.389055
1.115739
0.748532
0.374071
0.040827
-0.061466
-0.149385
-0.148332
-0.147595
-0.014211
-0.036919
0.149816
0.114432
0.033597
0.128814
0.181792
0.153196
0.174209
0.185662
0.192180
0.199072
0.213496
0.166928
0.209876
0.254561
0.180839
0.247610
0.282315
0.281228
0.325774
0.387643
0.363088
0.409649
0.402351
0.373365
0.472867
0.431814
0.480333
0.533616
0.545621
0.522238
0.521777
0.584644
0.577324
0.574590
0.591336
0.607022
0.647025
0.642199
0.642481
0.562852
0.542485
0.685907
0.546736
0.584969
0.548394
0.512189
0.532921
0.439075
0.528023
0.499806
0.415527
0.458152
0.462894
0.425821
0.334151
0.337254
0.242774
0.334607
0.286873
0.198510
0.223140
0.262284
0.135209
0.238876
0.212520
0.190001
0.221010
0.132959
0.212659
0.121450
0.047010
0.089547
0.084065
0.049739
0.140888
0.114290
0.123509
0.077041
0.004915
0.123377
0.163831
0.088621
0.159316
0.124132
0.029403
0.039398
0.108059
0.148793
0.113030
0.151316
0.140096
0.139788
0.124087
0.055580
0.123170
0.074308
0.101445
0.118339
0.032336
0.083743
0.102522
0.127064
0.067929
0.035641
0.134728
0.138080
0.132297
0.067950
0.128915
0.083516
0.109290
0.155935
0.067178
0.145716
0.102712
0.094106
0.131286
0.039981
0.095387
0.139810
0.093526
0.167297
0.076006
0.147403
0.077818
0.047114
0.140983
0.077797
0.202121
0.103357
0.146600
0.142650
0.234441
0.120404
0.146801
0.166060
0.189634
0.263227
0.286465
0.282690
0.127409
0.217132
0.294327
0.289206
0.271520
0.202030
0.312297
0.303640
0.244775
0.357910
0.235396
0.232834
0.203526
0.175179
0.178898
0.191461
0.264028
0.231718
0.210468
0.094689
0.158536
0.139329
0.101118
0.147184
0.135512
0.238491
0.128428
0.046053
0.147154
0.077925
0.135476
0.085819
0.055888
-0.000388
0.075084
0.128742
0.095138
0.175284
0.259334
0.545786
0.900281
1.144806
1.434236
1.471155
1.364363
1.026450
0.667429
0.352657
-0.011553
-0.132061
-0.135523
-0.070248
0.044124
-0.001434
0.089587
0.008900
0.158515
0.102286
0.098348
0.153259
0.152348
0.212486
0.145372
0.154399
0.213904
0.179906
0.138718
0.224465
0.115219
0.328947
0.290994
0.230538
0.319479
0.310088
0.327393
0.348256
0.325631
0.398011
0.383254
0.371218
0.442961
0.430595
0.514394
0.516188
0.534049
0.612071
0.495055
0.531560
0.516961
0.546614
0.545922
0.642307
0.536309
0.615206
0.626423
0.578493
0.657806
0.501896
0.517616
0.509547
0.489092
0.474181
0.543057
0.387810
0.399370
0.373336
0.424602
0.317490
0.373802
0.282617
0.271700
0.294205
0.291049
0.234614
0.235226
0.211270
0.075228
0.143983
0.148505
0.192964
0.144560
0.172813
0.156270
0.124955
0.118211
0.080746
0.165584
0.077730
0.074907
0.015056
0.018518
0.064656
-0.050036
0.014119
0.093965
0.054011
0.055200
0.089046
0.025822
0.055197
0.076470
0.044669
0.014381
0.067311
0.088353
0.031423
0.145070
-0.056434
0.062019
-0.010558
0.093639
0.046708
0.047456
0.046134
0.012343
0.114070
0.087809
0.025978
0.051416
0.125023
0.074215
-0.068789
0.024491
0.038279
-0.002462
0.045488
0.028561
0.019305
-0.034780
-0.006175
0.050440
0.022129
-0.015187
0.044866
-0.033797
0.066965
-0.025731
0.062237
0.113596
0.037242
0.041419
0.072333
0.086391
0.078190
0.063803
0.025999
0.069599
0.037140
0.050101
0.062827
0.204470
0.183275
0.133002
0.134463
0.178378
0.221190
0.262636
0.170545
0.194943
0.135240
0.142807
0.190244
0.174250
0.157392
0.112030
0.108584
0.088644
0.096156
0.145426
0.137469
0.114244
0.091775
0.129823
0.012749
0.072001
0.093717
-0.027075
0.045473
-0.026578
0.050266
-0.018726
-0.047985
-0.028111
0.054675
-0.002208
-0.025419
0.016865
0.041115
-0.011411
-0.062934
-0.065383
0.073253
0.000502
0.241935
0.508588
0.810150
1.130303
1.381951
1.413248
1.176658
0.934346
0.474795
0.169931
-0.050418
-0.235810
-0.299632
-0.241379
-0.115021
-0.014282
-0.038358
-0.022479
-0.012141
0.089677
0.043227
0.037278
-0.006968
0.127880
0.044216
0.044764
0.087901
0.114382
0.084904
0.115303
0.136116
0.151989
0.202455
0.156232
0.186130
0.248148
0.293600
0.235739
0.353840
0.280082
0.411677
0.359653
0.350559
0.287094
0.325178
0.342600
0.386723
0.441026
0.498741
0.465769
0.455439
0.461192
0.484763
0.484014
0.473401
0.558279
0.434053
0.479833
0.486624
0.384672
0.389874
0.464581
0.316657
0.358499
0.327187
0.363752
0.414785
0.319292
0.269985
0.218323
0.231248
0.229612
0.180952
0.183244
0.143437
0.139698
0.038062
0.064718
0.087633
0.046007
0.019678
0.074341
0.046030
0.000937
0.051934
-0.020679
-0.009913
-0.030448
-0.051065
0.037491
-0.034739
-0.032216
-0.028791
-0.037046
-0.023671
-0.014655
0.014042
-0.062927
-0.029167
-0.051193
-0.048760
-0.048862
-0.016831
-0.039432
-0.038593
-0.022317
0.007417
-0.008573
-0.085922
-0.088076
-0.066408
-0.033389
-0.140581
-0.068740
-0.117317
-0.051063
-0.086484
-0.068503
-0.049705
0.009562
-0.043863
-0.051492
-0.156521
0.053561
-0.101284
0.054351
-0.024949
-0.030931
-0.034370
-0.052715
0.038711
-0.059721
-0.038130
-0.046322
0.044785
-0.050899
-0.006891
-0.022404
-0.055405
-0.066003
-0.077470
0.007258
0.028921
-0.000472
0.070412
-0.006007
0.066558
0.009782
0.061364
-0.002145
-0.002187
0.110439
0.078440
0.061900
0.100203
0.072147
0.082923
0.104467
0.198870
0.206939
0.106608
0.201373
0.011264
0.180521
0.189046
0.121987
0.152620
0.102482
0.138573
0.057581
0.137222
0.038851
0.047911
0.030458
0.084691
0.035707
-0.038026
0.027831
-0.053617
-0.003807
0.030262
0.011519
0.004042
-0.018586
-0.009929
-0.030471
-0.062987
-0.015772
0.003648
-0.043038
0.032034
0.023540
-0.009857
-0.021972
0.141354
0.328476
0.552540
0.871375
1.252999
1.412469
1.437077
1.194993
0.846895
0.466135
0.125503
-0.239203
-0.346386
-0.292555
-0.145503
-0.092335
-0.053502
0.022874
0.001719
0.006591
0.068070
0.043307
0.011663
0.023632
0.002067
0.064356
0.039664
0.095894
0.004685
0.068464
0.154887
0.097361
0.206838
0.200387
0.200745
0.239435
0.259998
0.242852
0.306974
0.322998
0.305339
0.405500
0.301682
0.513966
0.444990
0.422600
0.428512
0.465892
0.443896
0.514598
0.476149
0.567379
0.526490
0.524426
0.546991
0.552637
0.541115
0.532105
0.499872
0.495817
0.450550
0.377833
0.512472
0.364497
0.510739
0.430047
0.446965
0.429150
0.314770
0.318642
0.290917
0.347482
0.217930
0.347370
0.225434
0.231439
0.157756
0.154317
0.063841
0.121584
0.142872
0.071371
0.152473
0.038013
0.055256
0.142867
0.124759
0.055517
0.049548
0.146862
0.060423
-0.005743
0.023001
0.067254
-0.018292
0.057035
0.120072
0.034477
0.024985
0.032517
0.051319
0.100392
-0.025070
-0.014926
0.070861
0.040343
0.035088
0.017796
0.047326
-0.007629
0.081915
0.071187
0.082490
0.058858
0.002262
0.010686
-0.006705
0.092462
0.060057
0.024615
0.043477
0.045191
0.152584
0.033150
0.054673
0.018041
0.075899
0.127910
0.057454
0.044911
-0.008534
0.088471
0.011180
0.089993
0.026371
0.057511
0.062800
0.093724
-0.000595
0.201657
0.088325
0.048734
0.137518
0.162117
0.069459
0.155078
0.117427
0.149436
0.146710
0.210973
0.168710
0.148965
0.208463
0.275519
0.167620
0.154433
0.171960
0.279206
0.226778
0.193974
0.225437
0.253532
0.233441
0.236789
0.228377
0.219552
0.200555
0.174640
0.222830
0.211768
0.238768
0.136088
0.173640
0.096895
0.148530
0.085967
0.062816
0.116166
0.069325
0.080421
0.182008
0.048215
0.159843
0.039056
0.069126
0.126664
0.039922
0.039249
0.097546
0.079315
0.135287
0.111969
0.073440
0.062295
0.082453
0.192210
0.405680
0.780544
1.064511
1.308074
1.387299
1.481514
1.285225
0.767703
0.446242
0.147958
0.015039
-0.138267
-0.167791
-0.101662
0.047532
0.052100
0.119200
0.083259
0.061759
0.070050
0.197681
0.052939
0.140894
0.236249
0.147326
0.091240
0.267767
0.311291
0.207881
0.172048
0.232106
0.284764
0.300418
0.321376
0.345102
0.312007
0.462800
0.452174
0.418436
0.427741
0.479425
0.438406
0.485305
0.563398
0.560818
0.537813
0.543259
0.521612
0.659699
0.644294
0.587463
0.624887
0.572179
0.614323
0.588581
0.664327
0.569251
0.570254
0.637956
0.525809
0.585630
0.508660
0.541792
0.524279
0.447526
0.465871
0.487615
0.506473
0.406228
0.388146
0.324853
0.327183
0.269320
0.283960
0.258305
0.264995
0.338790
0.253676
0.275907
0.236119
0.190075
0.270737
0.169961
0.202233
0.164998
0.191437
0.216694
0.158003
0.143115
0.169427
0.109355
0.152876
0.084567
0.113289
0.107460
0.124366
0.174651
0.050684
0.045669
0.149500
0.089219
0.135887
0.053297
0.051382
0.138801
0.111976
0.109828
0.185289
0.153046
0.127063
0.077626
0.098890
0.124922
0.079699
0.119105
0.099883
0.115485
0.092029
0.105144
0.117556
0.022396
0.098196
0.065142
0.048333
0.073254
0.084034
0.140009
0.065412
0.110040
0.009755
0.019593
0.050519
0.120698
0.091736
0.124633
0.108711
0.159421
0.097286
0.162282
0.139043
0.091386
0.139216
0.160205
0.026934
0.086029
0.176787
0.160303
0.209467
0.169089
0.059201
0.133797
0.137271
0.275337
0.181000
0.216602
0.250078
0.280160
0.311733
0.266404
0.268377
0.217048
0.243195
0.286732
0.241508
0.263249
0.273628
0.191566
0.225370
0.206667
0.184355
0.226464
0.162832
0.190828
0.107645
0.025785
0.058358
0.136103
0.115264
0.177120
0.067985
0.120459
0.107220
0.107755
0.097819
0.000323
0.121700
0.076930
0.034297
0.099741
0.091719
0.010866
0.073895
0.031849
0.190215
0.227078
0.450357
0.686941
1.063005
1.403158
1.465466
1.387025
1.098916
0.720389
0.322878
0.084852
-0.064388
-0.143951
-0.134030
-0.040978
-0.027577
0.032492
0.129258
0.058140
0.075670
0.071256
0.129373
0.152887
0.150265
0.165664
0.096314
0.186728
0.130965
0.110279
0.205436
0.196262
0.214296
0.249520
0.308230
0.258799
0.224378
0.289777
0.369232
0.385246
0.324445
0.420615
0.449640
0.470920
0.498970
0.450693
0.493662
0.515998
0.486611
0.493424
0.549803
0.567349
0.605357
0.547266
0.648760
0.489062
0.528563
0.586838
0.508288
0.526846
0.508345
0.497485
0.438118
0.533689
0.515826
0.433221
0.462243
0.368525
0.328537
0.354034
0.318994
0.324385
0.310073
0.228187
0.223309
0.318828
0.214749
0.198890
0.157859
0.106695
0.126228
0.102063
0.127741
0.134894
0.060893
0.017816
0.105667
0.085679
0.152719
-0.044295
0.041893
0.034692
-0.008201
0.084925
-0.017848
0.025617
0.057400
-0.023801
-0.018404
-0.061395
-0.053515
-0.017349
0.031813
-0.032802
-0.061700
0.082229
0.027167
-0.002621
-0.101793
-0.009942
-0.004868
0.002228
-0.044645
0.023742
0.104913
0.029947
0.003263
0.017905
-0.024728
0.037030
0.024879
0.001822
0.052413
0.052860
-0.122253
-0.010883
0.032990
-0.026278
0.038591
0.104565
0.046199
-0.027275
-0.064708
-0.008522
-0.097675
-0.013068
-0.023642
-0.034104
-0.028294
-0.050779
-0.029239
0.015115
-0.014674
0.036712
0.030284
0.049748
-0.063430
0.001824
-0.030327
-0.042939
0.009930
0.042392
0.067497
0.019740
-0.044359
0.100028
0.170045
0.173095
0.043524
0.145974
0.160463
0.077070
0.187927
0.141590
0.169877
0.117307
0.139353
0.099013
0.069219
0.084920
0.108559
0.090848
0.016065
0.085992
0.092749
-0.043688
0.029142
0.086052
0.040095
0.044641
-0.092549
0.026401
-0.058418
-0.057732
-0.119320
-0.047726
-0.007102
-0.127597
-0.063326
-0.074836
-0.012505
0.006287
-0.008092
-0.107647
-0.057645
0.122799
0.087165
0.400744
0.710035
1.007402
1.307058
1.332469
1.285095
0.893342
0.650091
0.207047
-0.126517
-0.246748
-0.270175
-0.182573
-0.162300
-0.174742
-0.049679
-0.088795
-0.047556
-0.083639
-0.054964
-0.055810
-0.039399
0.072290
-0.002327
0.028231
0.066196
0.013948
0.022764
0.019044
0.126674
0.067864
0.103623
0.192929
0.140982
0.159330
0.201951
0.182452
0.207899
0.182173
0.216910
0.264267
0.314488
0.277348
0.284613
0.351247
0.461121
0.347579
0.495085
0.427142
0.569454
0.480608
0.489933
0.466535
0.356579
0.430424
0.521981
0.445214
0.423929
0.411576
0.468190
0.486294
0.356238
0.327976
0.431843
0.204204
0.340321
0.284683
0.271079
0.169540
0.171613
0.189288
0.177184
0.135332
0.181093
0.028602
0.226819
0.086235
0.048289
0.135334
0.028218
-0.044007
-0.052623
-0.044212
0.053528
-0.064431
0.062789
-0.041617
-0.072793
0.012408
-0.072908
-0.091509
0.075410
-0.100122
0.021470
0.090861
-0.016664
-0.077304
-0.077431
-0.080994
-0.174305
-0.078404
-0.033874
-0.078927
-0.139424
-0.072647
-0.075143
-0.099844
-0.135468
-0.029259
-0.099884
-0.077430
-0.074972
-0.116581
-0.169392
-0.049557
-0.041027
-0.134321
-0.127125
-0.084445
-0.057230
-0.003561
-0.052233
-0.158870
-0.136409
-0.095690
-0.113735
-0.082528
-0.106689
-0.179580
-0.118175
-0.037779
-0.070525
-0.112642
-0.007534
-0.096261
-0.121629
-0.077759
-0.095070
-0.016623
-0.057578
-0.028621
-0.097114
0.064734
-0.016684
0.002005
-0.009195
-0.069905
-0.035756
0.024729
0.007489
0.009228
0.048709
0.089836
0.077534
0.069727
0.112673
0.074840
0.055037
0.118149
0.142849
0.049742
0.137627
0.178635
0.147565
0.048284
0.092447
0.093491
0.072544
0.037392
0.029044
0.054090
0.029868
0.113039
0.007079
0.006399
0.084724
-0.007255
-0.123821
-0.027400
-0.062524
-0.032884
-0.046772
-0.019632
-0.061486
-0.075934
-0.038356
-0.044160
-0.040409
-0.042188
-0.086902
-0.119799
-0.070093
-0.148515
-0.043881
0.171823
0.418159
0.809793
1.066015
1.390171
1.395104
1.210422
0.898307
0.437834
0.084773
-0.095735
-0.318868
-0.319195
-0.243667
-0.196219
-0.162438
-0.054626
0.010453
-0.032752
0.004653
-0.014273
0.063579
0.031183
0.055040
0.037994
0.095258
0.071781
0.072434
0.075512
0.117496
0.174455
0.113051
0.231397
0.166447
0.233799
0.275555
0.178004
0.257101
0.252176
0.270781
0.328602
0.382677
0.320542
0.343964
0.344743
0.434346
0.475149
0.439509
0.484175
0.512501
0.495544
0.472118
0.397327
0.509203
0.439989
0.517305
0.576547
0.452819
0.525898
0.481267
0.455783
0.383282
0.427250
0.411220
0.435492
0.371279
0.344301
0.278420
0.312288
0.339112
0.283283
0.200826
0.224145
0.282138
0.169046
0.198714
0.134784
0.111740
0.126049
0.095791
0.099468
0.011643
0.026207
0.122000
0.032580
0.033527
-0.007004
0.024652
-0.024996
0.041920
0.008469
-0.008764
0.044049
-0.005725
-0.049438
0.016637
0.084165
0.070382
-0.059218
-0.008971
-0.036082
-0.003663
0.002488
0.024272
-0.003041
-0.013483
0.061180
0.005123
-0.007295
0.017707
0.040553
-0.054083
-0.083157
-0.006901
-0.026994
0.028892
0.092382
-0.001138
-0.010902
-0.003737
0.027569
0.034163
-0.043035
0.073420
-0.033067
0.074009
0.008266
-0.030306
-0.069243
-0.034626
0.019222
0.044619
0.090575
0.004321
-0.050851
0.030840
0.027332
0.023712
0.003809
0.048872
0.058964
-0.004976
0.064743
0.098591
0.039497
0.048758
0.078071
0.088804
0.111252
0.142184
0.151874
0.210463
0.204002
0.211844
0.158035
0.250910
0.200976
0.144517
0.128197
0.280801
0.298329
0.250135
0.287211
0.264120
0.187778
0.232899
0.191736
0.201666
0.154023
0.119331
0.114710
0.149025
0.139578
0.079369
0.137377
0.163369
0.087779
0.110414
0.136784
-0.003811
0.076090
0.094723
0.096025
0.029002
0.034118
0.074722
0.026517
0.071239
-0.057665
0.001504
0.019490
0.026942
0.101119
-0.018303
0.121671
0.293555
0.601719
0.922287
1.279939
1.423445
1.401579
1.182464
0.832472
0.558246
0.171733
-0.091107
-0.205040
-0.249995
-0.076930
-0.034491
0.054664
-0.007372
0.061098
-0.012327
0.046465
0.109736
0.064857
0.003354
0.053011
0.094311
0.173478
0.129165
0.064455
0.083459
0.217735
0.171132
0.261303
0.285403
0.257007
0.247404
0.283677
0.286618
0.317501
0.342651
0.310257
0.365421
0.334759
0.403572
0.405673
0.517524
0.569249
0.488027
0.430659
0.547291
0.486502
0.555328
0.614086
0.599690
0.596645
0.640645
0.558285
0.572486
0.488003
0.577017
0.556249
0.537708
0.585526
0.576081
0.496894
0.459611
0.475396
0.405940
0.347947
0.377587
0.311293
0.304879
0.253402
0.405349
0.220988
0.270436
0.221370
0.301140
0.283119
0.172496
0.183921
0.222491
0.054208
0.094019
0.112731
0.080705
0.121186
0.066841
0.064940
0.117747
0.124150
0.086291
0.091901
0.003060
-0.006944
0.010341
0.140358
-0.037299
0.017042
0.001562
0.064710
0.013784
0.038221
0.079621
-0.001026
0.087512
0.003998
0.038174
0.053301
0.025162
0.067415
0.044818
0.071772
-0.000777
-0.021984
0.054477
0.095014
0.029172
0.069458
0.061939
0.017926
-0.003211
0.056848
0.024429
0.032510
-0.011150
-0.014606
0.053181
0.034203
0.025979
-0.015521
0.071879
0.023785
-0.065791
0.059215
-0.047377
0.032038
0.050507
0.064400
0.070155
0.042201
0.062298
0.030705
0.042587
0.085824
0.009207
0.080362
-0.031790
0.148897
0.121884
0.197009
0.163877
0.072361
0.188005
0.187911
0.202679
0.209382
0.231608
0.230907
0.179807
0.276373
0.132394
0.197855
0.145945
0.227804
0.184766
0.156740
0.222192
0.208630
0.252006
0.167236
0.209357
0.095227
0.144772
0.098189
0.125197
0.124437
0.116282
0.114111
0.121881
0.039933
0.066078
-0.017520
0.026386
0.116918
0.109981
0.055137
0.058948
0.095607
0.015314
0.000935
-0.085191
0.008953
0.058351
0.036697
0.109116
0.397587
0.651629
1.022884
1.232020
1.384859
1.357054
1.088952
0.715022
0.378278
0.106102
-0.200989
-0.238939
-0.256536
-0.211534
-0.064813
0.021422
0.000184
0.020938
0.017463
-0.034308
0.108915
0.142836
0.065422
0.132087
0.082224
0.049598
0.058792
0.156931
0.055937
0.155256
0.111019
0.227632
0.180187
0.250941
0.224798
0.266407
0.231764
0.290685
0.323460
0.320109
0.408196
0.326647
0.442853
0.422401
0.437498
0.512556
0.471036
0.491879
0.428402
0.485567
0.488209
0.546906
0.493075
0.553256
0.493834
0.402933
0.493615
0.413276
0.446534
0.394045
0.398522
0.395836
0.364453
0.303360
0.360132
0.368422
0.320898
0.371688
0.254590
0.319393
0.392652
0.197384
0.226076
0.227502
0.131956
0.119034
0.180842
0.114809
0.072523
0.062783
0.055475
0.001741
0.036783
-0.005393
0.087093
-0.034081
-0.067190
-0.020961
0.001218
-0.013389
-0.036148
-0.049293
0.015609
-0.092884
-0.050972
-0.089048
-0.114805
-0.088136
0.025216
-0.066344
-0.168367
-0.023644
0.004416
0.013745
0.004812
-0.096725
-0.014980
-0.043790
-0.011719
0.028562
-0.027962
-0.081644
-0.020813
-0.003507
0.039922
-0.071267
-0.193597
-0.070199
-0.102265
-0.077481
-0.056353
-0.051196
-0.060119
-0.074869
-0.040109
-0.080156
0.027608
-0.049988
-0.128781
0.063353
-0.087120
-0.079163
-0.136813
0.007643
-0.017993
-0.010674
-0.089633
-0.064698
-0.065785
0.013489
-0.087039
-0.001443
0.024823
-0.023253
0.083303
0.010399
-0.020277
-0.001682
0.057030
0.033130
0.053589
0.016742
0.051656
-0.035554
0.053282
0.104146
0.167946
0.032793
0.131653
0.080781
0.072552
0.100556
0.124146
0.092668
0.011722
0.063301
0.062521
0.129688
0.069677
0.008755
0.069291
0.039327
-0.014716
0.028979
0.055012
-0.028694
-0.061164
-0.061867
-0.121901
0.026899
-0.067325
-0.034371
-0.071337
-0.112684
-0.051969
-0.076670
-0.201384
-0.048434
-0.085855
-0.005452
-0.148944
-0.159617
-0.126835
-0.066561
0.068755
0.306724
0.632786
0.976569
1.134274
1.284527
1.258897
1.001827
0.642998
0.156786
-0.145250
-0.220820
-0.304292
-0.191571
-0.307568
-0.125238
-0.150897
-0.156373
-0.123922
-0.039213
-0.038016
-0.065475
-0.000086
-0.069376
-0.058506
-0.029382
-0.036968
-0.053902
0.054460
0.021978
0.045740
0.145369
0.082589
0.101323
0.129047
0.158974
0.229479
0.156772
0.254790
0.323317
0.219763
0.241935
0.271264
0.263804
0.368481
0.467086
0.375280
0.353761
0.303747
0.441255
0.373178
0.496521
0.372971
0.425495
0.434787
0.401497
0.378664
0.443894
0.461386
0.362386
0.445598
0.379257
0.323651
0.332416
0.338851
0.345586
0.217254
0.207456
0.169547
0.205791
0.117048
0.137954
0.124736
0.094855
0.105960
0.038048
0.118436
0.042755
0.108340
0.004237
0.012454
0.097476
0.032482
0.006015
-0.130354
-0.052022
-0.106556
-0.051861
-0.067264
-0.047698
-0.087746
-0.016665
-0.182518
-0.133338
-0.091272
-0.083284
-0.092285
-0.099055
-0.085518
-0.110757
-0.135917
-0.078803
-0.109314
-0.115611
-0.095198
-0.059594
-0.056595
-0.103458
-0.014488
-0.107174
-0.049386
-0.075770
-0.052238
-0.147831
-0.038847
-0.092241
0.007652
-0.098788
-0.080363
-0.068410
-0.106907
-0.089444
-0.114783
-0.130243
-0.024122
-0.084619
-0.077203
-0.093162
-0.092870
-0.079235
-0.119887
-0.071439
-0.049185
-0.121254
-0.098901
-0.075480
-0.065099
0.041277
-0.042509
-0.069116
-0.106671
-0.045816
-0.050276
-0.026305
-0.120495
-0.011415
-0.089515
0.012326
-0.066420
0.044049
-0.046468
0.063229
0.043277
0.043029
0.064027
0.143104
0.116184
0.044583
0.106526
0.059627
0.105575
0.069877
0.043076
0.131588
0.069447
0.164950
0.020127
0.094371
0.128007
0.026792
0.029040
-0.020506
-0.020588
0.079650
0.050199
-0.010964
-0.002503
0.023628
0.023244
-0.038968
-0.013514
-0.049894
-0.118335
-0.009432
-0.130305
-0.032539
-0.084772
-0.045647
-0.024409
-0.147811
-0.150593
-0.050237
-0.108032
-0.104742
-0.008170
0.187416
0.438084
0.617466
1.037704
1.267701
1.328671
1.174737
0.837000
0.594008
0.239018
-0.108198
-0.160673
-0.231631
-0.228938
-0.241143
-0.149046
-0.026636
-0.038221
0.038780
-0.055463
0.100660
-0.016515
0.149200
0.041295
0.149245
0.025079
0.020165
0.078055
0.162293
0.066259
0.118711
0.103010
0.135235
0.131166
0.130975
0.184303
0.300522
0.334820
0.278875
0.265198
0.427302
0.336051
0.415011
0.444471
0.385028
0.362426
0.492000
0.482029
0.399292
0.512423
0.442668
0.493342
0.451163
0.488766
0.502426
0.483681
0.506039
0.496795
0.472484
0.522041
0.474798
0.469118
0.474935
0.400849
0.442897
0.409888
0.361542
0.342824
0.282267
0.282842
0.367770
0.270224
0.242894
0.219096
0.230691
0.108810
0.269325
0.177476
0.180907
0.080625
0.121549
0.091339
0.129465
0.057683
0.071681
0.030485
0.041932
0.040547
0.027736
-0.038141
-0.018842
-0.025949
0.050448
0.043298
0.012957
0.050100
-0.007579
-0.002760
0.052942
0.086413
0.002855
0.016747
0.016504
-0.018032
0.046047
0.008604
0.027000
-0.009889
0.056413
-0.025883
-0.038003
0.071473
0.040086
0.076943
0.083982
-0.015802
-0.023999
-0.020361
0.049915
0.065169
-0.027329
-0.010199
0.032685
0.056527
0.013280
0.058144
-0.061087
0.023146
0.092357
0.016041
-0.004160
0.037228
-0.006643
0.033348
0.094042
0.001447
0.018536
0.070474
0.024610
0.073999
0.116971
0.031461
0.077630
0.060781
0.110459
0.115337
0.097628
0.116979
0.073859
0.087562
0.121075
0.161701
0.170889
0.211943
0.189692
0.235044
0.180758
0.192314
0.216149
0.225569
0.217036
0.156210
0.275645
0.256949
0.172750
0.204665
0.244794
0.173492
0.158080
0.225500
0.142179
0.112143
0.171090
0.167179
0.180524
0.120479
0.162479
0.221667
0.117952
0.081455
0.081692
0.074379
0.040334
0.066018
0.092655
0.048855
0.123322
0.104647
0.078377
0.083320
0.003106
0.073197
-0.014989
0.074056
0.144006
0.313276
0.610463
0.864838
1.224318
1.439877
1.500000
1.319495
1.081278
0.707446
0.275206
-0.011678
-0.137764
-0.203229
-0.135543
0.011748
-0.004734
0.003918
0.099792
0.132651
0.153773
0.161045
0.070282
0.158596
0.129201
0.191855
0.155219
0.108210
0.171581
0.087265
0.292541
0.213399
0.259044
0.267811
0.302073
0.322513
0.298415
0.399817
0.424187
0.381968
0.441190
0.503022
0.430271
0.462769
0.596596
0.628412
0.526714
0.519662
0.532773
0.615202
0.598001
0.587313
0.519392
0.528609
0.604832
0.615502
0.628300
0.626055
0.562017
0.538664
0.530987
0.606279
0.469740
0.499859
0.429964
0.552450
0.431250
0.441246
0.458016
0.387232
0.320017
0.275470
0.433031
0.293976
0.350413
0.231948
0.223158
0.201569
0.200875
0.196244
0.166048
0.184410
0.150502
0.163827
0.110470
0.066297
0.111152
0.153670
0.135721
0.113858
