0.095005
0.030977
0.032143
0.015189
0.056641
-0.042882
0.011277
-0.002619
-0.009579
0.073533
0.043995
0.004148
-0.020678
0.003466
-0.027164
0.068557
-0.065182
0.017691
0.009012
0.048035
0.030663
0.034594
0.000608
0.020461
0.025122
0.119308
0.131926
0.154398
0.138648
0.201550
0.135554
0.196448
0.153317
0.190223
0.204952
0.176363
0.182096
0.185902
0.214707
0.158750
0.178094
0.213119
0.166943
0.117212
0.117068
0.140310
0.172531
0.115641
0.049383
0.109870
0.093164
0.061276
0.038214
0.041938
0.091362
0.105837
0.045272
0.099118
0.078325
-0.014349
0.033756
0.082750
0.119646
0.231935
0.431010
0.511222
0.888078
1.165621
1.160091
1.239312
1.035664
0.612663
0.322125
0.151657
-0.024174
-0.016052
0.003541
-0.007265
0.024161
0.133731
0.022724
0.128621
0.156611
0.136616
0.235340
0.132144
0.192431
0.087828
0.145705
0.173841
0.240116
0.348803
0.243368
0.255921
0.277930
0.341925
0.306117
0.481306
0.448352
0.365988
0.393392
0.403629
0.477418
0.454736
0.488500
0.537643
0.576788
0.607848
0.488495
0.536968
0.497377
0.507197
0.542477
0.489804
0.520311
0.515753
0.478788
0.499734
0.514217
0.446798
0.438024
0.444077
0.446333
0.353694
0.416169
0.394403
0.335438
0.360959
0.284069
0.324983
0.283526
0.283262
0.242782
0.247394
0.231853
0.250325
0.192175
0.245097
0.242253
0.117210
0.108922
0.147250
0.146232
0.039623
0.104806
0.135428
0.130269
0.134957
0.125733
0.054178
0.099477
0.142525
0.113940
0.128681
0.089044
0.098637
0.101335
0.141802
0.133174
0.095171
0.134744
0.199349
0.078785
0.166632
0.139609
0.097684
0.033745
0.087796
0.071350
0.031842
0.157476
0.174619
0.108888
0.096972
0.113596
0.095219
0.072077
0.123284
0.134398
0.114698
0.103198
0.129250
0.092153
0.179827
0.138479
0.149935
0.116928
0.094181
0.146177
0.153975
0.184391
0.145065
0.227480
0.206634
0.143121
0.188493
0.192060
0.244358
0.167120
0.180735
0.253267
0.253365
0.274873
0.269856
0.228502
0.236445
0.282423
0.221995
0.312058
0.321082
0.232220
0.166734
0.249124
0.229285
0.204744
0.202888
0.196061
0.227230
0.153562
0.200599
0.140503
0.123037
0.127281
0.159095
0.171657
0.171427
0.084701
0.091620
0.077721
0.153762
0.052487
0.097933
0.148059
0.173600
0.356323
0.549192
0.799151
1.038466
1.276749
1.335889
1.196170
0.898483
0.521065
0.273000
0.093151
0.047913
0.054900
0.072197
0.034974
0.144850
0.157241
0.202986
0.134880
0.144250
0.184923
0.126587
0.245673
0.301470
0.273117
0.249786
0.254211
0.279155
0.309115
0.343223
0.363801
0.327262
0.339201
0.407041
0.461307
0.460647
0.461502
0.424511
0.503980
0.538077
0.454556
0.544149
0.542024
0.529535
0.587557
0.577414
0.539297
0.597353
0.531809
0.562214
0.642954
0.497467
0.507166
0.494961
0.544219
0.532026
0.568435
0.450726
0.466336
0.375198
0.461922
0.406550
0.345361
0.345137
0.306057
0.416762
0.311724
0.286114
0.314422
0.192555
0.229940
0.168263
0.205014
0.216271
0.186097
0.239773
0.174517
0.169648
0.121133
0.148136
0.099385
0.148662
0.186131
0.110165
0.084522
0.092635
0.084174
0.145664
0.041426
0.153082
0.121794
0.114122
0.092978
0.088779
0.100464
0.158511
0.151472
0.156155
0.078328
0.079076
0.093578
0.124048
0.122789
0.116051
0.125289
0.112624
0.075978
0.060370
0.115775
0.148101
0.100235
0.096140
0.072445
0.019053
0.135197
0.060419
0.145091
0.121475
0.106645
0.084952
0.094899
0.066354
0.191620
0.139907
0.129880
0.175238
0.149624
0.170688
0.123104
0.212930
0.164108
0.154380
0.144967
0.223451
0.247044
0.220806
0.235017
0.205025
0.242518
0.329516
0.214428
0.224719
0.268998
0.207806
0.257055
0.256002
0.217270
0.223522
0.209594
0.220562
0.153196
0.250696
0.182184
0.201181
0.226921
0.127446
0.061427
0.202044
0.126908
0.092342
0.041578
0.101106
0.095980
0.064283
0.076660
0.049347
0.027969
0.139934
0.068411
0.036889
0.226923
0.475787
0.742936
0.912393
1.130774
1.263253
1.265936
1.009784
0.732076
0.391517
0.138477
-0.030193
-0.028799
-0.050519
0.052660
0.090044
0.088975
0.067274
0.242985
0.135016
0.131376
0.171043
0.178258
0.203288
0.223356
0.281223
0.260077
0.252030
0.147964
0.265989
0.295435
0.348539
0.366755
0.355987
0.461579
0.400052
0.426988
0.571650
0.438908
0.447520
0.503784
0.497265
0.511979
0.482576
0.501516
0.481745
0.570467
0.546512
0.574276
0.485394
0.508095
0.473120
0.463976
0.515113
0.509837
0.423021
0.451481
0.406950
0.432977
0.407150
0.389457
0.369009
0.334922
0.233293
0.349100
0.284192
0.286866
0.304136
0.257450
0.251775
0.169028
0.201193
0.152466
0.111294
0.136155
0.142196
0.128205
0.082885
0.195291
0.166129
0.166724
0.076926
0.094218
0.140958
0.119885
0.103792
0.106042
0.147083
0.099761
0.152142
-0.034141
0.026261
0.061658
0.037884
0.168117
0.108157
0.064667
0.089364
0.067244
0.069303
0.100096
0.059436
0.090025
0.116315
0.056353
0.021337
0.108076
0.066187
0.128364
0.076105
0.082326
0.025185
0.045730
0.031354
0.069910
0.055677
0.121183
0.028706
0.053088
0.143707
0.054964
0.065816
0.007649
0.093995
0.118844
0.099603
0.122176
0.090053
0.097229
0.176325
0.081534
0.139943
0.152775
0.215385
0.188294
0.162663
0.202731
0.264209
0.181437
0.210570
0.210369
0.211053
0.252052
0.252821
0.199417
0.181611
0.145467
0.126508
0.195643
0.228790
0.198755
0.101994
0.145627
0.188489
0.164869
0.098978
0.185046
0.058862
0.173971
0.129124
0.077374
0.085290
0.013212
0.169528
0.094317
0.132819
0.056159
0.088455
0.111027
0.118017
0.204125
0.274620
0.560338
0.757681
1.063152
1.194997
1.220536
1.156402
0.820541
0.475611
0.246201
0.014537
-0.067693
-0.082190
-0.011261
0.098745
0.010890
0.047905
0.190946
0.164755
0.167216
0.136505
0.191667
0.226033
0.280612
0.215009
0.200337
0.215812
0.262555
0.224298
0.275473
0.236912
0.305901
0.284253
0.399935
0.398630
0.404459
0.446933
0.435617
0.430492
0.470620
0.454003
0.449183
0.510760
0.511901
0.547732
0.494420
0.525777
0.521172
0.615040
0.572813
0.516134
0.552488
0.544482
0.549229
0.500863
0.512713
0.482524
0.447977
0.465828
0.460624
0.427361
0.399344
0.433648
0.331851
0.413213
0.322658
0.289631
0.271806
0.256311
0.269942
0.244246
0.234945
0.127123
0.162157
0.169362
0.189445
0.122836
0.196535
0.186375
0.160879
0.148477
0.085960
0.152690
0.124600
0.174752
0.149866
0.096150
0.164824
0.116354
0.069102
0.030444
0.109577
0.083050
0.117958
0.180115
0.169669
0.089612
0.085798
0.135192
0.107298
0.115174
0.056815
0.111274
0.078448
0.128864
0.202611
0.176021
0.168526
0.141119
0.084390
0.087138
0.062538
0.149077
0.104440
0.125620
0.090083
0.200828
0.156942
0.118352
0.220206
0.107424
0.171701
0.086207
0.147249
0.109589
0.127723
0.173261
0.217922
0.128156
0.211663
0.169358
0.168681
0.257329
0.248105
0.233780
0.265346
0.246772
0.281665
0.272473
0.265185
0.317490
0.312164
0.313896
0.257991
0.291537
0.247351
0.319139
0.252686
0.326735
0.298383
0.225149
0.220321
0.224465
0.229234
0.217735
0.153568
0.228392
0.144161
0.200587
0.147664
0.163125
0.164115
0.190481
0.169732
0.130682
0.113647
0.186222
0.197672
0.149886
0.264169
0.355987
0.520055
0.664086
1.032987
1.267727
1.335704
1.298231
1.056565
0.794946
0.379250
0.164837
0.023289
0.053936
0.009085
0.065725
0.171794
0.177774
0.203058
0.200277
0.187713
0.314614
0.251159
0.299144
0.322124
0.335296
0.308915
0.347457
0.349523
0.344352
0.398201
0.372212
0.328072
0.450939
0.441565
0.498809
0.489842
0.451482
0.586650
0.575406
0.567644
0.605769
0.580317
0.734432
0.660435
0.712750
0.637423
0.599737
0.660125
0.576018
0.576590
0.651336
0.636937
0.630811
0.601436
0.590622
0.553516
0.615981
0.527750
0.578447
0.509197
0.493893
0.485341
0.500558
0.532655
0.363540
0.389936
0.530553
0.383768
0.330761
0.358574
0.291475
0.351503
0.259157
0.359230
0.428589
0.337435
0.263375
0.320455
0.277607
0.259930
0.311197
0.252209
0.359389
0.208026
0.208182
0.282143
0.217682
0.183344
0.189668
0.221770
0.219268
0.187036
0.176938
0.235934
0.239707
0.179107
0.253703
0.225125
0.258479
0.238596
0.176439
0.249567
0.203470
0.226485
0.269570
0.168514
0.250997
0.252921
0.265810
0.213022
0.257385
0.175407
0.319626
0.271126
0.203742
0.250392
0.195373
0.284196
0.263900
0.204477
0.235159
0.166697
0.262519
0.292012
0.233091
0.360041
0.326720
0.288398
0.243966
0.330006
0.365785
0.337726
0.318616
0.348222
0.347045
0.405376
0.464046
0.408128
0.372469
0.381364
0.359545
0.340419
0.369645
0.420319
0.424397
0.377994
0.420111
0.401073
0.371406
0.346298
0.313387
0.350683
0.333827
0.297818
0.283688
0.384590
0.354299
0.311161
0.338855
0.313424
0.176867
0.260175
0.229897
0.248057
0.188053
0.182445
0.278175
0.262163
0.248509
0.299748
0.378216
0.486391
0.796999
0.990434
1.253430
1.377529
1.422384
1.252071
0.975237
0.600570
0.381581
0.216231
0.139279
0.101059
0.136437
0.174707
0.247457
0.264396
0.282688
0.324246
0.338678
0.346395
0.334364
0.394714
0.339352
0.413603
0.451703
0.446075
0.395485
0.439487
0.443322
0.571495
0.492759
0.518293
0.567841
0.598087
0.549602
0.613067
0.589851
0.689630
0.677194
0.653717
0.722551
0.706949
0.637194
0.711218
0.705899
0.756674
0.722797
0.693655
0.681126
0.692650
0.682602
0.762920
0.675358
0.696368
0.662470
0.560095
0.651811
0.594051
0.574038
0.601326
0.600967
0.511414
0.523188
0.425999
0.453860
0.443986
0.467181
0.461465
0.436393
0.408613
0.375890
0.410581
0.316911
0.363773
0.296577
0.296425
0.313259
0.212825
0.364716
0.285747
0.328216
0.208423
0.297214
0.229241
0.212673
0.262507
0.244838
0.255209
0.224478
0.220078
0.183170
0.242969
0.266516
0.243665
0.218659
0.266532
0.188216
0.253738
0.238904
0.198016
0.268877
0.238051
0.246307
0.211883
0.210697
0.221707
0.242384
0.194271
0.268720
0.303200
0.269364
0.261897
0.237251
0.273869
0.237886
0.288132
0.249015
0.246359
0.286002
0.254366
0.220278
0.279878
0.264821
0.307689
0.217426
0.286082
0.295746
0.355350
0.372721
0.256474
0.429457
0.377042
0.372801
0.390230
0.351055
0.371184
0.437597
0.371209
0.348949
0.470701
0.376044
0.420186
0.310224
0.365840
0.296123
0.387904
0.403294
0.325430
0.237498
0.376112
0.324454
0.348377
0.298095
0.301321
0.236312
0.296254
0.252306
0.206097
0.297150
0.261093
0.256063
0.253786
0.283548
0.202009
0.241840
0.147697
0.263467
0.147746
0.300727
0.402345
0.532469
0.831387
1.083477
1.296933
1.402090
1.297349
1.077067
0.790938
0.406493
0.263121
0.068331
0.090055
0.183778
0.172925
0.203506
0.211229
0.317900
0.370421
0.285637
0.337312
0.358759
0.389603
0.308797
0.376000
0.399745
0.399717
0.383541
0.356934
0.387292
0.503363
0.444091
0.489489
0.520461
0.557553
0.525203
0.608252
0.574399
0.564313
0.660283
0.596166
0.692178
0.603223
0.636614
0.615600
0.699571
0.646850
0.689744
0.643257
0.603252
0.688161
0.578208
0.657645
0.563715
0.595952
0.623342
0.581149
0.589117
0.495797
0.584439
0.556269
0.453083
0.546607
0.495714
0.454372
0.403725
0.407695
0.379418
0.395899
0.323936
0.323492
0.314982
0.285939
0.286115
0.330810
0.298647
0.250029
0.273202
0.228727
0.192136
0.164813
0.334056
0.219631
0.260132
0.216061
0.208262
0.160361
0.180408
0.268444
0.167080
0.156355
0.190928
0.214290
0.212476
0.179957
0.192691
0.189463
0.255511
0.131956
0.159792
0.259239
0.200045
0.102774
0.164866
0.244063
0.236421
0.173898
0.114415
0.201590
0.227767
0.108383
0.201263
0.130209
0.170120
0.174901
0.098998
0.169252
0.210395
0.177794
0.195320
0.190105
0.115222
0.204032
0.207177
0.196758
0.207244
0.279256
0.248571
0.228812
0.268091
0.247884
0.219319
0.265716
0.304107
0.266066
0.257344
0.315942
0.327698
0.299861
0.384379
0.349405
0.346728
0.299311
0.319060
0.300178
0.310491
0.343871
0.286324
0.306724
0.207923
0.248882
0.236248
0.274599
0.152827
0.214336
0.166601
0.239384
0.275107
0.167376
0.093358
0.250880
0.149899
0.178206
0.188304
0.243563
0.183046
0.174549
0.125922
0.230279
0.256377
0.278613
0.378837
0.643609
0.903541
1.128743
1.320073
1.349801
1.177524
0.850492
0.586975
0.239446
0.090368
0.004088
0.070182
0.015920
0.128461
0.217655
0.201381
0.220780
0.260283
0.194892
0.244034
0.282033
0.246174
0.297153
0.243020
0.261250
0.291199
0.299722
0.328087
0.418118
0.430163
0.454512
0.375733
0.445447
0.491164
0.419671
0.516768
0.509563
0.553805
0.574303
0.544132
0.547650
0.608459
0.576259
0.547025
0.581166
0.637113
0.635149
0.620516
0.573996
0.595821
0.535632
0.650833
0.585773
0.539618
0.606817
0.494329
0.553442
0.511093
0.548069
0.493979
0.481196
0.418207
0.420636
0.406325
0.394482
0.346069
0.324167
0.318575
0.269135
0.204636
0.286399
0.238603
0.275122
0.278428
0.191479
0.226163
0.233943
0.149177
0.169116
0.226995
0.156923
0.151536
0.154480
0.130913
0.108845
0.149089
0.088024
0.122391
0.180415
0.082817
0.136143
0.113650
0.169168
0.184616
0.135693
0.104189
0.144865
0.156192
0.155365
0.106287
0.086429
0.159255
0.186691
0.222727
0.165857
0.128256
0.202941
0.134306
0.142581
0.113347
0.113471
0.156921
0.116641
0.132359
0.189811
0.142353
0.144009
0.190863
0.145613
0.218777
0.153552
0.224590
0.214121
0.190563
0.219151
0.199124
0.256806
0.241758
0.234626
0.211917
0.261995
0.233879
0.221999
0.299787
0.260212
0.295594
0.350268
0.273763
0.353409
0.347552
0.339772
0.278460
0.303835
0.320563
0.273888
0.273967
0.321278
0.403166
0.274327
0.267765
0.259452
0.279369
0.199639
0.288842
0.222808
0.228533
0.217314
0.171756
0.188211
0.122656
0.237663
0.196415
0.183364
0.211035
0.168111
0.204482
0.196419
0.201390
0.250561
0.359860
0.537104
0.769739
1.162220
1.252746
1.392897
1.223662
0.980410
0.625994
0.323626
0.193739
0.137645
0.056489
0.077669
0.139740
0.120728
0.164708
0.227032
0.277363
0.261262
0.267512
0.297306
0.248790
0.306695
0.380539
0.325380
0.324537
0.449954
0.340850
0.388192
0.366080
0.461811
0.457041
0.482809
0.481798
0.469349
0.487480
0.564866
0.523532
0.555419
0.582202
0.635123
0.617458
0.654802
0.638922
0.623019
0.630773
0.651319
0.686152
0.683678
0.622074
0.650071
0.666842
0.611050
0.635086
0.590691
0.654284
0.549243
0.547428
0.521865
0.469340
0.478638
0.499362
0.494647
0.397966
0.455432
0.408081
0.371462
0.397792
0.337076
0.337694
0.323308
0.335606
0.334193
0.282747
0.336370
0.279206
0.287736
0.258036
0.275328
0.288129
0.292496
0.222772
0.254426
0.206940
0.246666
0.341334
0.226551
0.224389
0.247350
0.163920
0.195873
0.169753
0.280670
0.269478
0.226862
0.287007
0.215214
0.225377
0.289508
0.153109
0.229973
0.246378
0.286724
0.235260
0.178651
0.287073
0.239154
0.230956
0.250945
0.255230
0.285936
0.195855
0.242491
0.215836
0.186314
0.213366
0.206460
0.214108
0.288450
0.261884
0.261836
0.260119
0.215512
0.227662
0.277274
0.147367
0.311470
0.345971
0.332565
0.266604
0.329271
0.350512
0.329703
0.381259
0.355151
0.398590
0.372256
0.389095
0.396976
0.368426
0.379626
0.428107
0.492954
0.411842
0.407635
0.434748
0.385682
0.383099
0.365666
0.355150
0.417182
0.282405
0.419384
0.359186
0.266436
0.356312
0.272290
0.274184
0.307308
0.277026
0.313988
0.234198
0.217228
0.301113
0.277869
0.275384
0.224712
0.287442
0.327160
0.445238
0.551997
0.803925
1.071490
1.394711
1.449097
1.401632
1.272877
0.966171
0.586760
0.346339
0.155884
0.060085
0.212440
0.245775
0.276788
0.290345
0.361433
0.348782
0.328696
0.304036
0.442023
0.374319
0.444740
0.431469
0.493130
0.492623
0.519862
0.432096
0.511154
0.474005
0.460816
0.569386
0.565829
0.528193
0.694003
0.645988
0.580397
0.619002
0.612384
0.666022
0.686597
0.711825
0.730847
0.752813
0.793057
0.709131
0.696405
0.786480
0.692410
0.743482
0.743038
0.692963
0.723958
0.650531
0.674129
0.738570
0.703384
0.653667
0.668504
0.630324
0.586227
0.571052
0.572629
0.552506
0.582759
0.482861
0.564663
0.441472
0.489914
0.471702
0.481965
0.435982
0.404243
0.421579
0.331818
0.410559
0.360057
0.261490
0.327843
0.325243
0.345029
0.279409
0.389150
0.319169
0.295925
0.326310
0.291225
0.291544
0.278790
0.292976
0.290361
0.287457
0.217405
0.307336
0.286913
0.333364
0.278723
0.242033
0.286523
0.277853
0.199013
0.246494
0.281456
0.365249
0.358823
0.261972
0.255625
0.230434
0.383761
0.243756
0.233492
0.257085
0.320129
0.216768
0.341013
0.309693
0.288014
0.307660
0.309284
0.335704
0.341014
0.304206
0.278758
0.340875
0.364118
0.341005
0.360818
0.320308
0.385447
0.354073
0.424219
0.307154
0.348576
0.414088
0.479895
0.422476
0.416655
0.386024
0.463553
0.417258
0.524979
0.435058
0.472973
0.431773
0.434430
0.418865
0.402597
0.454344
0.435296
0.407149
0.361416
0.459479
0.354549
0.388508
0.364998
0.334089
0.397293
0.375798
0.319921
0.382692
0.232653
0.373323
0.340163
0.349001
0.325927
0.289708
0.293520
0.231348
0.341365
0.394201
0.499149
0.694731
0.916680
1.228608
1.374706
1.418333
1.342816
1.066466
0.770960
0.419343
0.286496
0.166957
0.116984
0.273798
0.342191
0.268347
0.302896
0.348693
0.383344
0.350823
0.362243
0.397654
0.305768
0.466486
0.414419
0.424331
0.434479
0.497301
0.520865
0.483936
0.530760
0.533035
0.555899
0.556379
0.563358
0.596890
0.698031
0.622901
0.679906
0.632935
0.608663
0.718661
0.695683
0.734305
0.700780
0.696926
0.756470
0.765749
0.782056
0.719878
0.698114
0.699113
0.713962
0.687926
0.665491
0.724100
0.686016
0.674655
0.661270
0.631081
0.560580
0.528398
0.577201
0.536391
0.537520
0.445809
0.508617
0.468631
0.435318
0.401230
0.444342
0.397168
0.321430
0.367530
0.361577
0.353277
0.358715
0.317025
0.348334
0.267952
0.342459
0.326151
0.317786
0.290563
0.290541
0.339423
0.242574
0.243441
0.219364
0.237348
0.231401
0.240823
0.242364
0.222291
0.193221
0.210551
0.261959
0.239291
0.255894
0.263184
0.275981
0.129129
0.198910
0.242000
0.229609
0.254124
0.228631
0.260069
0.216654
0.220526
0.289743
0.250468
0.234357
0.235078
0.201412
0.232436
0.290362
0.110124
0.250758
0.306319
0.286408
0.280360
0.268295
0.315007
0.280458
0.327898
0.259285
0.242130
0.304701
0.333037
0.265787
0.288732
0.399350
0.322777
0.359925
0.328167
0.415553
0.279182
0.371602
0.323829
0.352404
0.381308
0.348148
0.433677
0.420092
0.368065
0.312096
0.324654
0.327478
0.342697
0.334219
0.309696
0.334988
0.315355
0.357629
0.318948
0.247459
0.226520
0.240128
0.277886
0.245747
0.267709
0.224630
0.186336
0.202126
0.241393
0.256736
0.201980
0.174151
0.236065
0.311620
0.532148
0.752228
1.084744
1.267210
1.412002
1.329139
1.156716
0.835710
0.520026
0.290048
0.052337
0.111700
0.063962
0.213341
0.218871
0.169507
0.255708
0.269335
0.269478
0.287177
0.275817
0.288105
0.319036
0.324354
0.338328
0.400642
0.347752
0.409661
0.358218
0.505415
0.432205
0.439681
0.421013
0.411438
0.460255
0.548025
0.563214
0.550501
0.587981
0.673045
0.591394
0.661259
0.643690
0.618828
0.653157
0.562642
0.645745
0.619687
0.648526
0.567516
0.642385
0.650658
0.697796
0.643767
0.572065
0.509726
0.538779
0.568256
0.513381
0.461852
0.480677
0.459837
0.430875
0.440908
0.412410
0.400648
0.337793
0.340981
0.375966
0.316547
0.332308
0.253472
0.216743
0.304137
0.270230
0.224558
0.230265
0.233181
0.178630
0.152363
0.228416
0.160492
0.221861
0.213973
0.199418
0.291560
0.204992
0.190002
0.195060
0.134390
0.148286
0.121716
0.186104
0.237542
0.110664
0.239820
0.150368
0.116005
0.195727
0.236814
0.119702
0.177341
0.262629
0.171886
0.176541
0.190421
0.208769
0.163967
0.169057
0.196125
0.148113
0.159493
0.199924
0.220356
0.206943
0.143544
0.175472
0.218517
0.136914
0.274167
0.153977
0.254110
0.215041
0.192513
0.204475
0.236813
0.178372
0.188495
0.345316
0.305260
0.272370
0.362002
0.277060
0.259783
0.258232
0.346170
0.295019
0.363476
0.326981
0.253196
0.284251
0.337773
0.369698
0.311866
0.251910
0.290068
0.326807
0.397942
0.280961
0.328909
0.321870
0.292146
0.195929
0.270434
0.242914
0.235151
0.261698
0.263840
0.146360
0.220651
0.168186
0.177737
0.219485
0.128863
0.206179
0.183141
0.196322
0.195140
0.234444
0.274630
0.364794
0.637472
0.871912
1.140132
1.284034
1.373807
1.245149
0.929830
0.718306
0.318794
0.109360
0.044503
-0.044647
0.071528
0.162100
0.161876
0.165140
0.274249
0.255385
0.216454
0.293367
0.277529
0.344576
0.279889
0.274574
0.353185
0.328005
0.303501
0.429303
0.456191
0.348072
0.496245
0.413747
0.536269
0.499822
0.569291
0.478648
0.612318
0.532412
0.612270
0.574468
0.652852
0.636798
0.658924
0.629323
0.708088
0.670341
0.584431
0.653493
0.711089
0.592648
0.641604
0.654983
0.569068
0.624791
0.644982
0.574690
0.505157
0.535940
0.485019
0.517230
0.485590
0.495466
0.381863
0.373622
0.481994
0.369545
0.333000
0.410115
0.309504
0.332158
0.345472
0.317713
0.284615
0.314650
0.301697
0.292340
0.265942
0.231555
0.145128
0.275294
0.269334
0.167495
0.243326
0.199197
0.240054
0.260340
0.282271
0.247607
0.201791
0.172413
0.249547
0.197743
0.223371
0.192944
0.240885
0.198114
0.199282
0.229670
0.149829
0.132488
0.252003
0.161149
0.153621
0.263170
0.078217
0.199890
0.154164
0.205703
0.277314
0.242455
0.204799
0.262381
0.175274
0.214296
0.236741
0.194551
0.254524
0.134623
0.188676
0.255210
0.246372
0.264430
0.256380
0.293515
0.265947
0.181736
0.321440
0.260438
0.283728
0.293672
0.287380
0.328728
0.329269
0.336561
0.331804
0.335269
0.303747
0.369087
0.306444
0.381114
0.452033
0.419646
0.378612
0.351779
0.334027
0.348237
0.332117
0.410449
0.299969
0.325067
0.304696
0.375716
0.300255
0.256229
0.316666
0.261979
0.288221
0.266117
0.308130
0.325735
0.293206
0.272685
0.263470
0.230234
0.147620
0.296267
0.246833
0.247155
0.293273
0.381805
0.589391
0.777632
1.061231
1.402748
1.376738
1.381504
1.164675
0.901308
0.512843
0.358205
0.148609
0.193340
0.133310
0.211177
0.240590
0.258185
0.339002
0.305869
0.283938
0.353441
0.336381
0.388161
0.438303
0.389342
0.423294
0.399089
0.422395
0.408869
0.430901
0.527260
0.515048
0.512662
0.543107
0.573388
0.563847
0.612132
0.559627
0.629678
0.622735
0.591905
0.686240
0.748477
0.677507
0.666575
0.719461
0.671652
0.705639
0.712727
0.722680
0.715248
0.712451
0.832995
0.685298
0.725871
0.732918
0.667829
0.644882
0.638000
0.642058
0.579624
0.575770
0.570549
0.591213
0.596828
0.453901
0.546765
0.539489
0.476345
0.468342
0.411193
0.405628
0.462306
0.374289
0.355869
0.376486
0.456918
0.367782
0.312254
0.426952
0.291177
0.320045
0.311948
0.331257
0.307027
0.240582
0.233567
0.305620
0.265582
0.370566
0.190153
0.350991
0.241676
0.318647
0.337824
0.333718
0.312844
0.311425
0.308439
0.368449
0.295239
0.285126
0.282169
0.304029
0.277330
0.342224
0.300113
0.243404
0.216338
0.300376
0.285364
0.286008
0.245092
0.320162
0.338368
0.333675
0.396646
0.406294
0.329295
0.285313
0.317181
0.332255
0.310976
0.368778
0.269216
0.358861
0.407830
0.339953
0.377342
0.366890
0.397920
0.411311
0.452798
0.409703
0.448172
0.483356
0.442856
0.390907
0.403144
0.417162
0.443800
0.555107
0.457503
0.443044
0.509004
0.393452
0.423720
0.532598
0.441956
0.470519
0.427478
0.489453
0.316256
0.379986
0.349331
0.362960
0.361421
0.414055
0.375658
0.323296
0.336464
0.343571
0.309875
0.399724
0.312304
0.351158
0.305332
0.339395
0.293864
0.381942
0.435371
0.504858
0.776984
1.055027
1.269557
1.484652
1.500000
1.329507
1.064646
0.744002
0.395742
0.170130
0.180458
0.206029
0.183426
0.342319
0.356997
0.431157
0.397865
0.339450
0.404536
0.418861
0.384517
0.412225
0.416237
0.418596
0.378773
0.454024
0.537001
0.553302
0.452726
0.492963
0.540154
0.631385
0.534586
0.622032
0.613222
0.669999
0.688126
0.707847
0.693637
0.714804
0.826959
0.713475
0.664148
0.703204
0.738260
0.870429
0.717861
0.750521
0.705352
