-0.010640
0.048170
-0.003388
0.032883
0.068195
-0.006314
0.043779
0.038758
0.076838
0.048034
0.050650
-0.019449
0.049238
0.096780
0.078389
0.101805
0.070309
0.084208
0.069202
0.134428
0.105938
0.123271
0.224599
0.186484
0.072806
0.235487
0.190306
0.185490
0.236583
0.196030
0.222547
0.113495
0.181047
0.131000
0.220240
0.156072
0.111270
0.183016
0.144617
0.143048
0.129828
0.187599
0.166374
0.203151
0.141873
0.181279
-0.018840
0.059653
0.149915
0.122132
0.078848
0.080806
0.140178
0.078137
0.060983
0.086584
0.117601
0.222707
0.296315
0.628933
0.873731
1.260807
1.278886
1.405534
1.182504
0.864665
0.504161
0.178915
-0.044215
-0.042894
-0.042680
0.013609
0.093278
0.194265
0.087580
0.052897
0.210477
0.271429
0.251816
0.237755
0.254511
0.257728
0.275322
0.248930
0.343787
0.328694
0.388802
0.461969
0.409462
0.486740
0.375517
0.483481
0.572383
0.468730
0.462309
0.585605
0.593315
0.590736
0.567547
0.582609
0.568316
0.584648
0.639341
0.638868
0.670870
0.505463
0.521534
0.609745
0.524026
0.566992
0.480290
0.513980
0.561809
0.471622
0.466828
0.371106
0.475284
0.362696
0.362931
0.483052
0.317301
0.343534
0.221777
0.338611
0.321357
0.342688
0.238182
0.244569
0.060735
0.175161
0.251944
0.148662
0.083035
0.196486
0.113286
0.127661
0.171416
0.059527
0.126857
0.207057
0.146555
0.022695
0.174458
0.096960
0.120707
0.036846
0.123735
0.114704
0.073397
0.007756
0.118805
0.033615
0.111568
0.143704
0.068570
0.098648
0.114751
0.027349
0.070358
0.068749
0.123251
0.107438
0.027654
0.083477
0.126337
0.132692
0.039772
0.080141
0.113694
0.081563
0.110840
0.089891
0.064689
0.151525
0.096277
0.074616
0.182092
0.254653
0.262952
0.234958
0.259670
0.258108
0.216430
0.260572
0.230729
0.248732
0.249168
0.251585
0.388031
0.260455
0.289977
0.345348
0.292777
0.271026
0.166333
0.284618
0.241026
0.178687
0.142609
0.092959
0.093535
0.114019
0.161319
0.106287
0.141335
0.145403
0.149515
0.132129
0.121314
0.060738
0.123494
0.058233
0.164477
0.238942
0.358573
0.606294
0.792686
1.142826
1.500000
1.419938
1.344845
0.981862
0.693909
0.312978
0.090446
-0.044793
0.077558
0.000228
0.164642
0.093641
0.146549
0.222510
0.168447
0.144767
0.202836
0.238308
0.278118
0.277612
0.334990
0.383791
0.323382
0.358990
0.409777
0.368434
0.413086
0.462105
0.467783
0.539045
0.560219
0.535642
0.626064
0.616991
0.517647
0.632076
0.616290
0.611619
0.601236
0.620880
0.549785
0.649087
0.657317
0.647815
0.599285
0.669095
0.563530
0.493843
0.462171
0.485086
0.524204
0.413241
0.417165
0.424585
0.414552
0.319581
0.356760
0.345040
0.196351
0.317057
0.285578
0.287411
0.163272
0.241475
0.246125
0.255079
0.241731
0.174760
0.139330
0.123228
0.130192
0.153135
0.138024
0.171909
0.125268
0.160175
0.083950
0.107380
0.040804
0.090425
0.052098
0.067803
0.063601
0.087370
0.079405
0.037562
0.079613
0.029336
0.064767
0.015118
0.113096
0.036556
0.146266
0.134354
0.034048
0.016813
0.007380
0.018845
-0.018740
0.133578
0.089290
0.128593
0.030937
0.175292
0.026857
0.094138
0.054594
0.043124
0.098243
0.187672
0.108809
0.006914
0.149544
0.151979
0.161761
0.139303
0.180493
0.188514
0.107496
0.215258
0.150632
0.143909
0.253221
0.284034
0.216142
0.367735
0.181187
0.267872
0.218443
0.219929
0.230810
0.139997
0.210111
0.218799
0.218832
0.151201
0.206104
0.104371
0.270509
0.143863
0.149810
0.070841
0.030345
0.156550
0.075942
-0.021076
0.043301
0.058616
-0.027681
0.110350
0.065963
0.138521
0.249749
0.440049
0.762141
0.989960
1.296216
1.384388
1.261990
1.007335
0.648255
0.292877
0.029371
-0.008316
-0.115694
-0.002164
-0.024670
0.039092
0.082056
0.193444
0.090659
0.198960
0.221696
0.102961
0.155624
0.210571
0.233639
0.204211
0.301610
0.351950
0.369613
0.402940
0.426391
0.362274
0.407058
0.406556
0.530335
0.479341
0.450864
0.447686
0.568413
0.523363
0.543147
0.473868
0.555553
0.546482
0.474173
0.544151
0.536556
0.452670
0.506809
0.460952
0.553431
0.423958
0.417868
0.432982
0.422508
0.445184
0.418705
0.327239
0.315890
0.335171
0.355904
0.239286
0.148042
0.140841
0.289789
0.232950
0.195251
0.198760
0.207361
0.082421
0.032938
0.157225
0.043997
0.076798
0.041618
0.041544
0.039943
0.000764
-0.006678
0.062601
0.021621
-0.049574
-0.014411
-0.006219
-0.051348
-0.002561
0.025633
-0.038136
-0.031694
0.036829
-0.027498
-0.039826
-0.068266
0.057655
0.041879
0.032980
-0.051578
0.055216
-0.012798
0.022287
-0.076533
0.037078
-0.061293
-0.043892
0.049201
0.056860
0.117752
-0.016928
-0.013496
-0.044257
-0.058021
0.062803
0.028043
-0.039547
0.031745
-0.010315
-0.036269
0.072747
0.019489
0.108703
0.070052
0.128069
-0.015809
0.066211
0.098216
0.120371
0.191707
0.193120
0.153841
0.229601
0.106742
0.186728
0.220649
0.067586
0.134097
0.121454
0.027412
0.117863
0.057888
0.053368
0.037215
-0.009017
0.071698
0.023783
0.079154
-0.070947
0.053265
0.035239
0.041464
-0.012471
0.015039
-0.017862
-0.048669
-0.040866
0.008061
0.042932
0.087696
0.292036
0.500385
0.823355
1.154622
1.383309
1.266647
1.047673
0.756478
0.289153
0.018586
-0.120712
-0.108287
-0.060141
-0.064597
-0.058549
0.131675
0.026265
0.019629
0.157903
0.073863
0.072232
0.139567
0.067932
0.151632
0.209933
0.228793
0.265450
0.271705
0.235683
0.282389
0.291320
0.339842
0.318356
0.402479
0.436596
0.487285
0.417663
0.499239
0.439432
0.485707
0.488538
0.405120
0.479356
0.454711
0.566532
0.479818
0.384777
0.374556
0.341241
0.376894
0.398679
0.394360
0.431308
0.366963
0.290391
0.301414
0.285907
0.325206
0.265455
0.263715
0.286466
0.183543
0.211542
0.156037
0.189425
0.237239
0.172732
0.072227
0.153783
0.077791
0.067465
0.183778
0.040929
0.055226
0.098740
-0.001535
0.026643
0.034139
-0.088514
0.080005
-0.020241
0.055015
0.016516
-0.056019
-0.077554
-0.065625
-0.074979
-0.110482
-0.096554
-0.053528
-0.038823
0.008702
-0.066045
-0.088461
-0.055261
-0.033224
-0.018073
-0.106178
0.019897
0.022288
-0.046395
-0.056053
-0.039035
-0.054124
-0.069057
-0.047771
0.012564
-0.019101
-0.023512
-0.065506
-0.056338
-0.034910
-0.009229
0.073460
0.073925
0.021884
-0.042326
-0.010552
0.014466
0.037598
0.073848
0.139003
0.186247
0.154331
0.075776
0.125231
0.194392
0.186983
0.170780
0.240873
0.140936
0.152143
0.190654
0.164196
0.151793
0.131689
0.135527
0.093863
0.048690
0.121909
0.079594
0.021590
0.033600
0.044488
0.036027
0.059125
0.015603
0.013604
-0.010823
0.034458
0.100591
0.024604
0.023180
-0.005481
0.066392
0.196233
0.299461
0.591840
0.850229
1.050973
1.315389
1.343844
1.140126
0.783813
0.464688
0.109886
-0.037632
-0.054215
-0.094863
0.003098
0.061880
-0.011722
0.039869
0.086061
0.144705
0.184528
0.060918
0.122502
0.145775
0.237212
0.249182
0.187162
0.312537
0.273480
0.232318
0.351597
0.359456
0.277700
0.413044
0.360689
0.447303
0.483436
0.562515
0.536956
0.428846
0.589824
0.538045
0.469925
0.556711
0.535942
0.574117
0.523491
0.460173
0.561140
0.544339
0.534174
0.509821
0.573101
0.471783
0.436801
0.382091
0.416824
0.416090
0.366629
0.342089
0.277574
0.309516
0.322587
0.231548
0.290666
0.179226
0.185424
0.195783
0.158148
0.109299
0.108349
0.096146
0.155924
0.069467
0.102140
0.060147
0.012258
0.036868
0.067272
0.104822
0.042446
0.126361
-0.004134
-0.001066
0.007164
0.090730
-0.034371
0.027398
0.029602
0.015065
-0.043795
-0.014353
0.020757
-0.008705
0.066051
0.113522
0.025386
0.057945
0.007284
-0.003158
0.010897
0.062258
-0.033130
0.089481
0.049837
0.072535
0.002466
0.119249
0.058018
0.118458
0.075085
0.087017
0.097018
0.088332
0.097197
0.167127
0.045623
0.174917
0.143845
0.140376
0.145861
0.082444
0.257580
0.144603
0.177798
0.145795
0.332201
0.295002
0.260663
0.283794
0.257800
0.282562
0.194307
0.218797
0.225642
0.206394
0.198749
0.140693
0.122712
0.234502
0.238729
0.215905
0.008374
0.204323
0.091281
0.138074
0.135609
0.055489
0.140638
0.138057
0.126060
0.050269
0.107168
0.110962
0.242502
0.222485
0.156712
0.388409
0.491360
0.792701
1.200729
1.319935
1.453052
1.353240
0.963703
0.597835
0.306036
0.101061
-0.042668
0.002422
0.006965
0.055093
0.122830
0.126551
0.180497
0.144916
0.232211
0.284659
0.173476
0.235097
0.330871
0.309576
0.323218
0.336589
0.491679
0.355739
0.432935
0.422981
0.501746
0.487591
0.538086
0.482739
0.538470
0.585156
0.570533
0.602334
0.604514
0.603957
0.566174
0.600435
0.654023
0.643298
0.635003
0.591651
0.579411
0.588112
0.673882
0.569120
0.603244
0.592455
0.515320
0.466294
0.546224
0.453820
0.371898
0.440321
0.428409
0.366973
0.382766
0.266187
0.374497
0.298743
0.285091
0.375162
0.224786
0.213163
0.225715
0.236335
0.248370
0.267796
0.186139
0.032337
0.155122
0.108850
0.150209
0.106605
0.123132
0.061287
0.176061
0.024296
0.137141
0.120053
0.069974
0.128988
0.072212
0.075395
0.124629
0.079762
0.085248
0.034430
0.089341
0.058324
0.101734
0.062586
0.104659
0.068324
0.057577
0.153655
0.092047
0.075824
0.169456
0.087614
0.155565
0.099150
0.111489
0.076983
0.123263
0.085593
0.123608
0.157964
0.199912
0.156174
0.223530
0.121867
0.160424
0.142024
0.205636
0.160276
0.234630
0.267663
0.250345
0.357639
0.245967
0.303418
0.307681
0.299215
0.244785
0.291185
0.265732
0.162688
0.277721
0.304499
0.245580
0.222062
0.196968
0.229611
0.147628
0.128683
0.114299
0.181120
0.217226
0.115002
0.111909
0.131171
0.123598
0.256376
0.046567
0.050630
0.069558
0.121053
0.150715
0.016704
0.120779
0.299464
0.504394
0.765831
1.053729
1.361212
1.483445
1.269298
1.074534
0.749468
0.346830
0.106638
0.006016
-0.022190
0.041131
0.143192
0.190901
0.136419
0.132802
0.220807
0.139259
0.183389
0.245981
0.236791
0.268083
0.303698
0.314545
0.275272
0.324769
0.349214
0.321839
0.413422
0.484941
0.498688
0.473211
0.482970
0.518998
0.449841
0.615636
0.647323
0.591447
0.498127
0.656997
0.598425
0.651919
0.570798
0.528767
0.660046
0.634514
0.552775
0.599000
0.537204
0.571472
0.537933
0.522835
0.444862
0.516734
0.483198
0.412771
0.317692
0.384751
0.314415
0.328306
0.376767
0.278284
0.300022
0.233352
0.254021
0.272007
0.179484
0.204166
0.123071
0.168336
0.149095
0.042632
0.114941
0.153329
0.057389
0.115971
0.154239
0.069292
0.127963
0.015068
0.091701
0.036622
0.078095
0.000799
0.124594
0.058560
0.059005
0.012531
-0.002419
0.050774
0.061225
-0.005257
0.048846
0.070499
0.009641
0.080951
0.019987
-0.055911
0.026143
-0.000877
0.001058
0.040857
0.060600
0.118928
0.020969
0.025604
0.132285
0.027121
0.046026
-0.022191
0.123166
0.071545
0.073165
0.019643
0.118409
0.069018
0.139670
0.134422
0.224253
0.183491
0.153520
0.182032
0.240545
0.121935
0.180242
0.173138
0.205795
0.099274
0.214627
0.227578
0.169559
0.182559
0.208884
0.210145
0.104756
0.231018
0.132362
0.131848
0.149826
0.114849
0.113347
0.058086
0.046070
-0.004274
0.037179
0.056784
0.045919
-0.006872
0.068002
-0.003971
0.076743
0.010352
0.073764
0.105987
0.121424
0.321761
0.610595
0.929535
1.184867
1.378301
1.246095
1.008996
0.719519
0.378063
-0.061912
0.005141
-0.043985
-0.035507
-0.052327
0.124734
-0.056044
0.123477
0.168399
0.124972
0.081630
0.094575
0.118344
0.151899
0.171441
0.165026
0.235042
0.230718
0.313940
0.304549
0.274308
0.343001
0.426001
0.389637
0.425532
0.422043
0.463894
0.406583
0.451208
0.494021
0.501254
0.423501
0.470494
0.410082
0.561036
0.496952
0.504905
0.480685
0.484087
0.446996
0.414543
0.438275
0.402978
0.370575
0.402776
0.492029
0.384301
0.154098
0.322253
0.245483
0.235790
0.257089
0.126782
0.230079
0.171096
0.187503
0.081698
0.119208
0.031963
0.041865
0.059266
0.006922
0.099551
-0.002116
0.072448
0.013681
0.045484
0.074664
0.014798
0.017390
-0.006544
-0.015912
0.011386
-0.039196
0.003530
0.009743
0.012322
-0.056641
-0.045342
-0.011901
-0.044958
-0.165379
-0.042393
-0.093651
-0.054722
-0.017052
-0.042951
-0.113490
-0.124788
-0.127092
-0.032593
-0.100534
-0.046254
-0.077395
-0.066466
-0.059549
-0.069410
-0.086991
-0.019897
-0.017127
0.056887
-0.018004
-0.071994
0.024537
-0.028242
-0.010578
-0.047745
0.005528
0.083361
0.069445
0.073131
0.159440
0.017973
0.024039
0.050580
0.024195
0.068360
0.080735
0.090869
0.092991
-0.016332
0.114596
0.050218
0.108624
0.038333
0.133605
0.129424
0.077883
0.034831
0.140798
-0.022534
0.019391
-0.049607
-0.082337
0.006277
-0.046992
-0.010685
0.012914
0.014937
-0.113412
-0.020739
-0.023578
-0.024917
-0.049368
-0.079271
0.000241
0.069759
0.245499
0.581762
0.741699
1.081680
1.305117
1.313961
1.108703
0.728559
0.449462
0.085918
-0.096208
-0.156379
-0.167563
-0.094092
-0.061502
-0.002205
0.048208
0.112055
0.036071
0.010413
0.034209
0.037537
0.053820
0.155816
0.147411
0.245839
0.156827
0.206589
0.212853
0.195455
0.272938
0.387755
0.324564
0.316399
0.326306
0.399502
0.343094
0.397903
0.429980
0.511284
0.417158
0.467865
0.399262
0.462660
0.511178
0.379664
0.490601
0.425535
0.482455
0.478608
0.453658
0.362863
0.374843
0.416955
0.263455
0.407323
0.403426
0.314034
0.343630
0.229470
0.262105
0.122795
0.114334
0.216692
0.178118
0.070856
0.103301
0.087232
-0.001609
0.062855
0.031715
-0.004819
0.046297
0.045479
-0.081448
0.030055
-0.053198
0.076087
-0.123881
-0.029437
-0.031196
-0.055190
-0.041854
-0.072314
-0.036236
0.014365
-0.024894
-0.029827
-0.133625
-0.060203
-0.130703
-0.035000
-0.080860
-0.094365
-0.137509
-0.011412
-0.113584
-0.154406
-0.132041
-0.107768
-0.118843
-0.134925
-0.108528
-0.018332
-0.075665
-0.118098
-0.064290
-0.068320
-0.051470
-0.019816
-0.070496
-0.084780
-0.029822
-0.006225
0.004491
0.075458
-0.005795
-0.017446
0.029143
0.031542
0.079967
0.125195
0.051516
0.059315
-0.026043
0.112589
0.078842
0.132241
0.150326
0.162723
0.073505
0.087095
0.078356
0.092141
0.152996
0.026922
0.148023
0.003211
0.009589
0.071412
0.023226
0.033556
-0.029012
0.062181
-0.037235
0.021165
0.008643
-0.033207
0.001869
-0.051466
-0.085943
-0.053636
-0.035649
0.017438
-0.017280
0.121655
0.250891
0.382797
0.791545
1.087560
1.243964
1.310767
1.193895
0.843670
0.533491
0.163220
0.020939
-0.102991
-0.211790
0.004844
0.064055
-0.018822
-0.013166
-0.020842
0.138566
0.100581
0.084604
0.179733
0.172577
0.219763
0.151248
0.246097
0.193842
0.246490
0.332351
0.233485
0.415820
0.369563
0.290647
0.357758
0.472712
0.398660
0.424804
0.440990
0.375370
0.517730
0.373426
0.461682
0.510688
0.465699
0.529391
0.521194
0.539561
0.529967
0.495998
0.534982
0.489937
0.463008
0.432633
0.374743
0.301412
0.386485
0.393232
0.376057
0.341281
0.291271
0.333087
0.205333
0.223046
0.255857
0.215113
0.125170
0.058346
0.130181
0.151494
0.036767
0.131986
0.099263
0.039348
0.015301
-0.026569
0.056796
0.008686
0.010607
0.029653
0.016071
-0.010879
0.025383
-0.070351
0.071457
0.002399
-0.052506
0.089398
-0.007045
0.021936
0.000035
-0.086575
-0.021885
-0.016398
0.057386
0.025159
0.048754
0.050827
0.006261
-0.063648
-0.028819
-0.004703
0.055753
-0.080255
-0.012421
0.006984
0.107548
-0.043350
0.040562
-0.012152
0.096582
-0.034186
0.023165
0.102312
0.028374
0.141187
0.045790
0.108397
0.117464
0.156350
0.184489
0.139919
0.156061
0.162931
0.223765
0.163935
0.211005
0.168492
0.187998
0.202153
0.236829
0.211206
0.185423
0.149142
0.243478
0.190351
0.196662
0.161186
0.140913
0.269537
0.191298
0.073879
0.083491
0.084768
0.173123
-0.000421
0.143371
0.059289
0.108457
0.084274
0.085812
0.095070
0.059399
0.032632
-0.021855
0.089340
0.180639
0.217354
0.492791
0.761259
0.990686
1.302489
1.442880
1.320594
1.032983
0.668831
0.315782
0.076368
0.041838
-0.082286
0.004870
0.051288
0.032527
0.124761
0.136682
0.197655
0.183121
0.162013
0.228981
0.149180
0.162081
0.236827
0.266954
0.307195
0.360619
0.304545
0.467482
0.364152
0.371490
0.300961
0.412490
0.470308
0.509182
0.500354
0.534925
0.516466
0.516419
0.509666
0.546145
0.525362
0.626791
0.480332
0.665062
0.508949
0.599970
0.522803
0.533765
0.529215
0.547298
0.588191
0.535352
0.386826
0.522128
0.382416
0.421687
0.427247
0.347714
0.292456
0.322922
0.296057
0.335985
0.392440
0.258539
0.140063
0.247080
0.120338
0.146394
0.230763
0.233958
0.224288
0.064802
0.166425
0.180101
0.081938
0.025247
0.047744
0.097452
0.003427
0.101892
0.096975
0.062031
0.114494
0.114665
0.094964
0.011895
0.031551
0.038857
0.017398
0.007328
0.032768
0.074643
0.053239
0.045437
-0.010645
0.062281
0.041294
0.082280
0.119290
0.020000
0.088922
0.083777
0.006815
0.080332
-0.017889
0.055144
0.043552
0.084695
0.135107
0.101439
0.012429
0.095019
0.044069
0.103554
0.149274
0.115033
0.201707
0.106536
0.195659
0.176483
0.179178
0.232958
0.201581
0.194706
0.148796
0.173019
0.237344
0.277937
0.262736
0.307370
0.257113
0.167700
0.219765
0.230508
0.295622
0.125399
0.231514
0.109619
0.141853
0.153849
0.199777
0.100314
0.132644
0.081678
0.015641
0.150163
0.057837
0.034415
0.185213
0.008228
0.015794
0.130607
0.052477
0.064382
0.155440
0.384858
0.625668
1.005730
1.208774
1.360790
1.383597
1.109351
0.844323
0.429854
0.092475
-0.003061
-0.045706
-0.037607
0.021849
0.106690
0.076952
0.117816
0.179633
0.160377
0.214640
0.196448
0.122420
0.284837
0.242934
0.192560
0.194775
0.256272
0.368405
0.370488
0.349360
0.336244
0.437829
0.509939
0.454814
0.447547
0.447299
0.437562
0.473604
0.528962
0.431068
0.550406
0.545933
0.504420
0.492448
0.563964
0.596360
0.561554
0.507309
0.586485
0.525408
0.450916
0.487622
0.492975
0.469318
0.473345
0.440999
0.431823
0.386125
0.290720
0.330840
0.289179
0.286549
0.284003
0.261134
0.172345
0.210490
0.144131
0.149324
0.089484
0.120232
0.063556
0.104919
0.130378
0.077561
0.049271
0.038461
0.100943
0.038917
-0.036081
-0.017112
0.012200
0.050704
0.048198
0.065363
0.004838
-0.071116
-0.022405
-0.003591
-0.055837
0.038049
0.020208
0.024587
0.052876
-0.113848
0.021246
0.090495
-0.072146
0.000312
-0.091302
-0.029950
0.055580
-0.022368
-0.056016
-0.099517
-0.025654
-0.071386
-0.005797
-0.048624
-0.015692
-0.006427
0.022739
0.107701
0.056236
-0.031108
0.028668
0.010269
0.078468
0.111657
0.029630
0.022668
0.215262
0.093826
0.039628
0.144419
0.212757
0.095211
0.034341
0.184427
0.084738
0.155695
0.119752
0.144069
0.084902
0.149561
0.127856
0.173364
0.124852
0.061054
0.021795
0.101857
0.075642
0.036626
0.101531
0.040798
-0.053351
-0.037557
-0.011215
-0.061321
-0.015969
-0.036481
-0.076379
0.017316
-0.093964
-0.034803
-0.017219
0.021996
0.276886
0.505497
0.817155
1.058846
1.350768
1.270317
1.096898
0.691744
0.413159
0.101527
-0.000780
-0.111679
-0.157257
-0.071159
0.000100
-0.015819
-0.016373
0.014841
0.020766
0.111362
0.044481
0.072324
0.075715
0.083284
0.183989
0.189457
0.150329
0.123831
0.321048
0.279894
0.271845
0.283638
0.289318
0.309918
0.400719
0.331837
0.378092
0.340368
0.386896
0.392829
0.379793
0.478287
0.422190
0.477317
0.437924
0.440881
0.578677
0.394557
0.434483
0.368785
0.448403
0.448528
0.245436
0.377026
0.314774
0.232972
0.288760
0.252573
0.261114
0.237104
0.228329
0.116595
0.263618
0.174333
0.070644
0.123261
0.097636
0.059423
0.124535
0.001002
0.045524
-0.010096
-0.099682
-0.020790
-0.035058
0.022376
0.022211
0.017550
-0.024544
0.015372
-0.098672
-0.056576
-0.078749
-0.127528
0.005427
-0.068318
-0.039206
-0.032051
-0.041207
-0.063655
-0.040445
-0.154309
-0.144112
-0.108610
-0.121704
-0.172913
-0.046299
-0.080373
-0.089879
-0.098978
-0.095073
-0.143833
-0.133660
-0.071862
-0.130347
-0.125044
-0.034770
-0.049367
-0.105050
-0.057303
-0.094831
-0.122542
-0.023837
-0.015156
-0.137138
-0.077157
0.004564
-0.075130
-0.009103
-0.037780
-0.039333
0.029037
-0.036673
-0.022887
0.087711
0.082368
0.125623
0.106066
0.182689
0.041352
0.122219
0.146685
0.044066
0.018630
0.046596
0.060879
0.128153
0.082984
0.027394
-0.019222
-0.014430
0.062647
-0.093062
-0.042283
-0.101549
0.050802
0.003904
-0.104654
-0.025370
-0.038006
-0.095599
-0.119264
-0.098137
-0.067458
0.012290
0.006825
0.242757
0.400949
0.636300
0.937600
1.224100
1.260770
1.173393
0.815529
0.530112
0.175615
-0.126560
-0.221958
-0.109110
-0.063994
-0.039194
-0.081137
-0.038268
-0.095532
-0.008257
-0.000761
0.067206
0.025140
0.151937
0.126855
0.070561
0.168623
0.211901
0.326448
0.206917
0.223329
0.245815
0.243804
0.192329
0.396910
0.326966
0.342434
0.379850
0.352092
0.427235
0.511806
0.383410
0.399524
0.406406
0.433555
0.445373
0.461844
0.430972
0.432548
0.366869
0.463097
0.399823
0.366861
0.358578
0.370142
0.316024
0.321017
0.322902
0.214956
0.285582
0.235471
0.253937
0.221973
0.195717
0.143644
0.085123
0.095842
0.134203
0.021658
0.065664
0.008888
-0.017143
-0.048163
0.085069
0.029758
0.009064
-0.071701
0.013706
-0.102535
-0.024864
-0.130864
0.002436
-0.027380
-0.020164
-0.032775
0.009884
-0.046233
-0.092035
-0.105838
-0.064993
0.004578
-0.027241
-0.089892
-0.046992
-0.122861
-0.083968
-0.056471
-0.108387
-0.103837
-0.036548
-0.072633
-0.031671
-0.068678
-0.029059
-0.077256
-0.007361
-0.055411
-0.012370
0.002219
0.004048
-0.034418
-0.103084
-0.018365
-0.066613
-0.093214
-0.045218
-0.012507
-0.042417
-0.011226
0.066468
-0.060064
0.057898
0.055238
0.076038
0.150824
0.087004
0.048625
0.068288
0.122784
0.178442
0.126989
0.141184
0.076946
0.111317
0.126410
0.109476
0.250350
0.133896
0.057347
0.074451
0.051489
0.058511
-0.007999
-0.013255
-0.028550
0.032891
0.042737
-0.034163
0.015489
-0.013348
0.045774
0.027772
0.087526
-0.040272
-0.003233
-0.036848
0.022716
0.195746
0.412647
0.621856
0.967199
1.236699
1.312978
1.178909
0.986612
0.524660
0.245225
0.020586
-0.072212
-0.121375
-0.036781
-0.089284
-0.058154
0.051023
0.012423
0.129411
0.039743
0.159843
0.068503
0.137431
0.185871
0.220644
0.286217
0.270302
0.223885
0.245462
0.282517
0.304989
0.375839
0.368664
0.422934
0.491368
0.455645
0.518981
0.419739
0.453809
0.476359
0.457479
0.437186
0.492156
0.564415
0.574673
0.509474
0.480575
0.491384
0.483639
0.510442
0.499257
0.515317
0.445189
0.391092
0.366381
0.363460
0.473927
0.416647
0.293952
0.325780
0.325863
0.279457
0.233342
0.348939
0.323566
0.165670
0.218700
0.203361
0.173346
0.119643
0.181108
0.114820
0.091681
0.191617
0.020120
0.035679
0.191997
0.103163
0.036260
-0.029903
0.010862
0.133705
0.083668
0.042122
0.143824
0.031050
0.071769
0.006844
0.045548
0.059911
-0.013308
-0.051992
0.020812
0.021711
-0.012059
0.083721
-0.056494
0.051302
-0.018885
0.045203
0.021356
0.029733
-0.001223
0.103881
0.084146
-0.021573
0.118313
0.016150
0.029279
-0.002767
0.063650
0.089114
0.037484
0.141364
0.030709
0.100259
0.074939
0.083131
0.089805
0.213343
0.201173
0.134290
0.111118
0.257280
0.172717
0.166766
0.297398
0.156157
0.222104
0.246063
0.247265
0.253156
0.202897
0.256336
0.138975
0.179701
0.098686
0.185906
0.105900
0.204791
0.195801
0.090837
0.070610
0.182690
0.173451
0.089057
0.062987
0.081469
0.158147
0.070324
0.115868
0.039723
0.103557
0.028745
0.078763
0.203831
0.218563
0.402156
0.711272
0.944059
1.181376
1.355887
1.351641
1.091484
0.866369
0.416737
0.102211
-0.081993
-0.069074
-0.095927
0.085040
0.050585
0.085063
0.138500
0.151930
0.172037
0.249328
0.226368
0.216688
0.260683
0.322529
0.302599
0.387358
0.312272
0.384713
0.326798
0.405664
0.403514
0.443263
0.467772
0.473160
0.443145
0.544906
0.653375
0.457269
0.583343
0.586954
0.576089
0.600601
0.621760
0.580471
0.663831
0.590132
0.634571
0.634079
0.583611
0.558470
0.551317
0.562375
0.498637
0.534400
0.408678
0.457716
0.357706
0.392906
0.345598
0.368998
0.414780
0.297788
0.352777
0.300579
0.256319
0.297491
0.285282
0.142643
0.228971
0.234064
0.161419
0.253120
0.144837
0.151432
0.126072
0.078676
0.116591
0.129758
0.112590
0.082513
0.116105
0.080911
0.089566
0.016936
0.132435
0.068595
0.057409
0.048368
0.125428
0.061752
0.050695
0.128464
0.042957
0.075764
0.068668
0.003704
0.129211
0.061869
