-0.111852
0.085537
0.003191
-0.048978
0.059669
-0.018642
-0.035755
0.038993
-0.036107
-0.017728
0.003608
0.022448
0.068174
-0.034360
-0.074082
0.027225
0.060132
0.052113
-0.004206
0.061919
0.032605
0.067553
0.031349
0.049742
-0.008674
0.051447
0.013058
0.092653
0.128471
0.022815
0.159835
0.082055
0.174096
0.132779
0.063927
0.190166
0.191373
0.051248
0.221593
0.149764
0.204311
0.136467
0.251167
0.243373
0.188616
0.181482
0.235855
0.115761
0.271997
0.260651
0.072609
0.082804
0.160960
0.143858
0.072385
0.171363
0.115091
0.021672
0.083509
-0.011088
0.100985
0.072096
0.038761
0.095128
0.061649
0.052991
0.095223
0.016183
0.063417
0.086808
0.087095
0.031902
0.048578
0.073630
-0.035933
0.026516
-0.010146
-0.020179
0.025280
0.100138
0.296421
0.519573
0.897613
1.202252
1.425545
1.360419
1.268347
0.961686
0.641176
0.301879
-0.001359
-0.198084
-0.217156
-0.114341
-0.047319
0.005294
-0.081986
-0.011842
0.010017
0.080424
0.103268
0.092224
0.084567
0.170573
0.059715
0.106698
0.159768
0.137218
0.133714
0.155292
0.138780
0.188904
0.209599
0.235975
0.204709
0.214720
0.246855
0.350233
0.352224
0.308256
0.334983
0.380459
0.433865
0.416001
0.465694
0.441744
0.454578
0.491944
0.414710
0.544033
0.569919
0.504420
0.512361
0.615782
0.550807
0.576453
0.576240
0.632150
0.638778
0.561436
0.649066
0.490860
0.548658
0.517237
0.569802
0.534423
0.521360
0.513378
0.503954
0.452563
0.474708
0.450852
0.352264
0.290871
0.348028
0.386562
0.279125
0.274547
0.309433
0.263591
0.191447
0.246167
0.151262
0.182264
0.180689
0.207760
0.171552
0.110121
0.214425
0.097472
0.130866
0.257745
0.111014
0.082031
0.137423
0.090203
0.199162
0.093971
0.137180
0.110397
0.041546
0.069570
0.133346
0.123599
0.072034
0.087882
0.088141
0.148455
0.037245
0.072201
0.102959
0.110258
0.128397
0.051674
0.157538
0.090883
0.100055
0.120441
0.055718
0.060339
0.035731
0.021841
0.076458
0.085666
0.163078
0.088342
0.157086
0.144141
0.119716
0.206219
0.049034
0.072020
0.086218
-0.007701
0.078386
0.073770
0.087144
0.038989
0.103724
0.084788
0.127660
0.127274
0.002431
0.116835
0.201912
0.054046
0.092910
0.083782
0.073673
0.117854
0.106770
0.086597
0.101322
0.120063
0.158117
0.120860
0.094103
0.145626
0.091565
0.091849
0.147332
0.184572
0.148731
0.164387
0.201642
0.172969
0.211128
0.125108
0.216722
0.206725
0.203336
0.353074
0.221146
0.196433
0.347149
0.217808
0.270776
0.261264
0.243828
0.280507
0.258771
0.229162
0.197711
0.152366
0.203211
0.126317
0.155143
0.217081
0.080248
0.184719
0.137011
0.196064
0.170749
0.122358
0.127839
0.121737
0.163545
0.116354
0.087936
0.083514
0.028907
0.044444
0.065883
0.047445
0.069098
0.030357
0.128052
0.092158
0.106454
0.018824
0.110944
0.285994
0.464809
0.745148
1.147670
1.422015
1.480995
1.322095
1.076675
0.675291
0.351642
0.051855
-0.061354
-0.285139
-0.193593
-0.103311
-0.105481
0.012621
0.088449
0.064921
0.103325
0.040082
0.130436
0.123081
0.070653
0.170801
0.146945
0.136532
0.110035
0.178656
0.209722
0.236794
0.187621
0.215294
0.158631
0.112255
0.239969
0.237170
0.206212
0.215196
0.256700
0.300257
0.396610
0.312911
0.371141
0.429986
0.492617
0.449864
0.496274
0.488043
0.482640
0.478006
0.485923
0.501356
0.519700
0.434822
0.496905
0.516567
0.502283
0.494244
0.527335
0.575029
0.538755
0.565836
0.459210
0.523900
0.567283
0.434889
0.507348
0.422207
0.463876
0.437808
0.377155
0.372195
0.314364
0.226172
0.281454
0.232469
0.231600
0.156899
0.194523
0.237254
0.274416
0.212102
0.112996
0.094118
0.149261
0.085446
0.128802
0.116155
0.068389
0.125662
0.104413
-0.019033
0.007321
0.104490
0.074991
0.038366
-0.046229
0.077183
0.061149
-0.000655
0.025398
-0.038055
-0.006957
0.076418
-0.016520
0.092165
0.038566
-0.042935
0.022129
0.026541
0.042321
0.063829
0.061158
-0.014156
-0.091572
-0.053049
-0.021065
0.091825
-0.009259
0.002847
0.020125
0.047670
0.040985
0.032951
0.016806
0.007684
-0.067519
-0.018475
-0.016586
-0.007372
-0.054487
0.036112
0.018842
-0.067325
-0.001814
0.014826
-0.068316
0.079883
0.038304
0.041984
-0.000245
-0.115593
0.002303
0.057469
-0.051408
-0.071063
-0.054326
0.001423
-0.070557
0.011940
-0.062489
0.075355
0.055365
0.014076
0.057072
-0.014969
0.017578
0.004850
0.050154
0.063254
0.016099
-0.048533
0.011483
0.098419
0.073940
0.054104
0.105729
0.162139
0.132333
0.201622
0.127140
0.169431
0.088193
0.170947
0.167321
0.130658
0.204694
0.091622
0.156760
0.168348
0.099111
0.095422
0.130210
0.145896
0.032209
0.089301
-0.034051
-0.014247
0.016044
-0.042879
0.040105
-0.018904
-0.017278
-0.020293
-0.043696
0.004767
-0.040269
-0.027693
0.057848
-0.060431
0.028552
0.029060
-0.057939
-0.061666
-0.078705
-0.143393
-0.092926
-0.131169
-0.129286
0.005113
0.154685
0.252682
0.529419
0.982122
1.315961
1.343640
1.218014
1.049307
0.740084
0.410198
-0.018035
-0.183381
-0.275064
-0.302595
-0.198905
-0.132553
-0.086507
-0.081463
-0.140081
-0.010652
-0.017430
-0.052442
-0.006868
-0.076640
-0.008872
0.060506
-0.002669
0.033834
0.006305
0.054551
0.012780
0.042409
0.052528
0.069656
0.026833
0.196350
0.079295
0.294161
0.156224
0.173783
0.247448
0.163884
0.230863
0.305630
0.225243
0.355202
0.360451
0.371150
0.351333
0.406753
0.427288
0.441179
0.473590
0.382409
0.531617
0.437407
0.463270
0.492315
0.453918
0.470411
0.555484
0.478554
0.450668
0.426335
0.383056
0.420044
0.369192
0.426171
0.350864
0.333950
0.324363
0.229502
0.313216
0.272012
0.282979
0.120936
0.166872
0.209682
0.194861
0.137988
0.123642
0.129960
0.082610
0.125648
0.086245
0.137596
0.019502
0.024210
0.061100
-0.012290
0.014560
0.013021
-0.007011
0.061293
0.022391
-0.024737
-0.045317
0.014543
0.098012
-0.125746
-0.062972
-0.064042
-0.041045
0.052365
-0.010083
0.011520
-0.028869
-0.042308
-0.068639
-0.018078
-0.015947
-0.090014
-0.056947
-0.046605
-0.021156
-0.068583
0.016768
-0.044350
-0.012322
-0.006925
-0.046425
0.009065
0.028628
-0.064808
-0.128168
-0.062965
0.013936
0.009150
-0.070180
-0.014971
-0.010698
-0.090482
-0.068931
-0.002159
-0.031915
0.034074
-0.065224
-0.089600
-0.013617
-0.026366
-0.013177
0.007574
-0.034710
-0.050857
-0.025040
-0.001045
0.028036
-0.039196
-0.055893
0.008688
-0.075711
-0.049023
-0.065742
0.072771
0.000530
-0.042616
-0.015936
0.040988
0.096428
0.007560
-0.007879
0.057099
0.085344
0.061743
0.076085
0.093919
0.084484
0.089956
0.048017
0.096752
0.140536
0.173475
0.110173
0.157149
0.162123
0.096826
0.257051
0.151753
0.166253
0.171855
0.154395
0.003931
0.119747
0.092341
0.130103
0.107575
0.003377
0.039246
0.038948
0.080806
0.053705
-0.068405
0.030540
0.019955
-0.055860
0.049750
0.037424
-0.035438
0.096981
-0.006807
0.034286
0.071539
-0.046768
0.025028
-0.008303
0.037098
0.016322
-0.021156
-0.047878
0.047392
-0.004015
0.153933
0.216370
0.556963
0.954190
1.126936
1.372361
1.366322
1.104184
0.933585
0.511782
0.112215
0.000135
-0.291544
-0.307841
-0.221082
-0.120245
0.005567
-0.103871
-0.038701
-0.014756
0.098090
0.041054
-0.023013
0.022191
-0.039937
0.052066
0.064241
0.005081
0.075493
0.070848
0.166519
0.129316
0.105751
0.156077
0.297854
0.201986
0.142855
0.200374
0.270995
0.264227
0.344336
0.298363
0.338525
0.362603
0.365250
0.408914
0.336679
0.316395
0.436548
0.422505
0.472399
0.419731
0.500154
0.510987
0.550990
0.645895
0.480875
0.586307
0.522006
0.557713
0.500788
0.580058
0.500977
0.472729
0.461573
0.427690
0.487514
0.519154
0.452677
0.474562
0.418192
0.409311
0.414613
0.339432
0.305859
0.313113
0.235173
0.285774
0.235121
0.266686
0.226813
0.197818
0.294823
0.174314
0.141416
0.208397
0.152465
0.151906
0.135654
0.168277
0.048690
0.127937
0.134349
0.140535
0.122518
0.008845
0.053454
0.117254
0.047707
0.050003
0.057038
-0.003423
0.063266
0.023499
0.050819
0.032935
0.154516
0.038598
0.134316
0.105159
0.038187
0.015261
0.124937
0.059198
0.035606
-0.009982
0.088323
0.095102
0.045150
0.115567
0.100982
0.126664
0.093815
0.129286
-0.048381
0.112871
0.087275
0.050804
0.117236
0.076886
0.015249
0.099378
0.124935
0.083876
0.045353
0.040906
0.062836
0.020510
0.155429
0.092968
0.003501
0.132834
0.173832
0.083592
0.143918
0.050319
0.081133
0.181872
0.146681
0.010574
0.154753
0.113842
0.118239
0.089154
0.074401
0.040631
0.169102
0.053599
0.127207
0.119752
0.091442
0.153598
0.126241
0.153754
0.183764
0.144126
0.194879
0.209591
0.218476
0.211062
0.322340
0.259129
0.235020
0.300295
0.300601
0.209317
0.210301
0.247506
0.264312
0.187535
0.175661
0.209397
0.230375
0.229184
0.259077
0.200682
0.140283
0.152777
0.174285
0.194852
0.137204
0.083019
0.154693
0.148407
0.067069
0.182455
0.106423
0.166060
0.056986
0.109892
0.050964
0.119637
0.122260
0.088990
0.106996
0.166949
0.062947
0.123082
0.087560
0.139711
0.071318
0.193356
0.303336
0.580938
0.960310
1.236935
1.372649
1.434328
1.375967
1.067543
0.635533
0.322729
0.069531
-0.072057
-0.146975
-0.163507
0.004023
0.002203
-0.008803
0.092635
0.221404
0.133999
0.062403
0.108804
0.116015
0.198916
0.122411
0.142783
0.130478
0.115601
0.221729
0.204094
0.277741
0.215199
0.198671
0.196132
0.151030
0.211407
0.304445
0.292996
0.341952
0.320083
0.363797
0.388033
0.355277
0.441834
0.387166
0.464509
0.446273
0.370893
0.527175
0.589732
0.601912
0.522702
0.572401
0.655694
0.557353
0.613940
0.624957
0.595967
0.598365
0.661679
0.592751
0.532122
0.613252
0.537233
0.602518
0.551720
0.516941
0.521802
0.450803
0.502898
0.413394
0.387632
0.439510
0.409024
0.395966
0.266223
0.364181
0.270955
0.269890
0.291470
0.339234
0.303194
0.204153
0.219915
0.111428
0.159268
0.135407
0.093534
0.042158
0.196108
0.017213
0.194376
0.079980
0.160682
0.110267
0.103221
0.149246
0.010217
0.133849
0.103252
0.097228
0.120554
0.075287
0.021863
-0.007529
0.065651
0.102900
0.041019
0.067261
0.055760
0.114685
0.102315
0.176651
0.088540
0.061455
0.052384
0.094597
0.022345
-0.001549
0.037522
0.106754
0.028684
0.032816
0.062893
0.036638
0.067325
0.119685
0.024160
0.069452
0.063458
0.057804
0.193998
0.114896
0.046813
-0.028800
-0.009008
0.044710
0.012856
0.077283
0.017334
0.019457
0.124732
0.095554
0.014521
0.090641
0.060811
0.071912
0.003754
0.098003
0.034731
-0.012898
0.068577
0.009053
0.119838
0.087873
0.117624
0.095372
0.140631
0.138375
0.110862
0.086758
0.060917
0.213762
0.047381
0.145615
0.147961
0.216913
0.166943
0.174119
0.248410
0.201612
0.280013
0.126405
0.156193
0.172693
0.237193
0.235627
0.221169
0.122742
0.204980
0.090975
0.145853
0.120666
0.140832
0.063355
0.125475
0.184443
0.097148
0.031572
0.114552
0.082154
0.104460
0.061968
-0.000075
0.089516
-0.038347
0.103730
-0.034054
0.036689
0.031476
0.002971
-0.022627
0.018939
0.039934
-0.024967
0.019824
0.053576
-0.017144
-0.072798
-0.102910
0.171068
0.142888
0.444084
0.668353
1.074149
1.385764
1.414535
1.267300
0.979411
0.700059
0.351168
0.006765
-0.217887
-0.231279
-0.181429
-0.189800
-0.183966
-0.006262
0.030848
-0.118450
0.023066
-0.028344
0.034849
0.011009
0.111821
0.025506
0.011294
-0.003185
0.090937
0.071127
0.086723
0.034526
0.168433
0.100116
0.132960
0.183468
0.197059
0.124467
0.128943
0.210192
0.160937
0.264894
0.253139
0.241354
0.353157
0.354068
0.336629
0.326204
0.388356
0.397117
0.377312
0.383978
0.406423
0.475069
0.501577
0.455101
0.410694
0.565812
0.472853
0.485702
0.414282
0.463660
0.411748
0.447361
0.445114
0.452012
0.399802
0.391517
0.350073
0.333366
0.377355
0.342045
0.243888
0.317489
0.274827
0.217121
0.289280
0.232396
0.090492
0.165750
0.202257
0.123259
0.150618
0.038805
0.133786
0.114946
0.042513
0.095885
0.076458
0.058734
0.013503
0.028679
0.014149
-0.000856
-0.044675
-0.120525
0.025670
-0.134858
-0.046022
0.032718
-0.077010
-0.002857
-0.037934
-0.098103
-0.059762
-0.006937
-0.015881
-0.092748
-0.054563
-0.041960
-0.033475
-0.062583
-0.100085
-0.084663
-0.019917
-0.131483
0.021405
-0.009592
-0.077980
-0.069518
-0.030189
-0.159522
-0.015666
-0.081968
-0.062854
-0.118509
-0.065557
-0.051837
-0.116829
-0.103363
-0.059414
-0.101396
-0.022324
-0.097000
-0.073344
-0.126493
-0.039968
-0.103865
-0.010260
-0.024058
-0.071137
-0.082031
-0.121881
-0.088853
-0.130526
-0.046226
-0.098074
-0.004013
-0.119378
-0.014451
-0.049996
-0.063607
-0.037260
-0.061633
-0.146371
-0.057585
-0.074031
-0.030599
-0.141452
-0.085000
-0.021895
-0.082715
0.018522
-0.049108
-0.028773
-0.004976
0.028146
0.058904
0.064850
0.108288
0.043593
0.079557
0.075495
0.020229
0.062747
0.149289
0.112822
0.071054
0.113727
0.083799
0.041621
0.086737
0.058592
0.010946
0.066338
-0.047844
0.008681
0.034610
0.002090
-0.005976
-0.097548
0.003356
-0.047698
-0.027348
-0.075527
-0.029953
-0.051154
-0.098934
-0.080197
-0.156424
-0.032271
-0.046800
-0.115415
-0.064393
-0.059217
-0.124938
-0.119272
-0.125420
-0.192397
-0.117281
-0.025253
-0.093348
0.164278
0.191462
0.595184
0.888841
1.160754
1.319841
1.245325
1.048266
0.690514
0.381831
-0.077630
-0.203392
-0.399689
-0.304017
-0.262402
-0.215781
-0.124602
-0.180457
-0.029853
-0.115965
-0.080318
-0.029927
-0.091208
-0.070463
-0.036415
-0.070630
-0.044675
0.020299
-0.048521
0.016555
0.008988
0.064722
0.125781
0.018267
0.129419
0.036519
0.065444
0.123112
0.192580
0.168329
0.160462
0.132316
0.248462
0.149858
0.238473
0.310905
0.303646
0.261556
0.407451
0.288210
0.405611
0.345605
0.449513
0.385961
0.521374
0.482020
0.492935
0.462440
0.462535
0.450938
0.509501
0.432900
0.489053
0.334159
0.476576
0.445660
0.419967
0.357197
0.349980
0.252157
0.311902
0.290685
0.250914
0.132628
0.213902
0.108302
0.214002
0.187179
0.226492
0.114630
0.062843
0.065048
0.078225
0.047103
0.097381
0.038701
-0.019543
-0.072309
-0.002273
0.050001
0.027398
-0.010348
-0.027929
-0.088464
-0.032395
-0.075614
-0.080518
-0.099152
0.048535
-0.061079
-0.034791
-0.100218
-0.035285
-0.097997
0.004569
-0.040415
-0.065018
-0.060533
-0.077882
0.006370
-0.121051
-0.116598
-0.104607
-0.009722
-0.042589
-0.045015
-0.076246
0.025547
-0.029237
-0.068588
-0.090974
-0.007730
-0.146851
-0.076086
-0.115205
-0.076216
0.006436
-0.071635
-0.098350
-0.114624
-0.015692
-0.009750
-0.096390
-0.064121
0.017298
-0.015239
0.009332
-0.090633
0.031863
-0.087654
-0.108668
-0.112093
-0.045430
-0.046047
-0.111857
0.012611
-0.033311
0.023618
0.059401
-0.033907
0.032638
-0.066458
-0.078455
-0.079346
-0.001442
0.045705
0.038466
-0.001472
0.021387
0.033309
-0.005842
0.009924
0.036326
0.064674
0.126544
0.094817
0.151211
0.107853
0.109527
0.152367
0.159645
0.090547
0.148733
0.142624
0.160658
0.184013
0.181567
0.187281
0.154578
0.152127
0.171082
-0.008735
0.085101
0.129926
0.060478
0.110610
0.041750
0.022989
0.087819
0.118153
0.038002
0.027085
0.005440
0.042288
-0.046996
-0.000077
0.004224
-0.028220
0.044464
-0.020015
-0.054381
-0.113869
0.036797
0.012131
-0.059707
0.034796
-0.005408
-0.035567
0.035400
0.035104
0.037474
0.165736
0.322372
0.514321
0.889709
1.174214
1.420072
1.430619
1.227358
0.823222
0.512096
0.155909
-0.105245
-0.308915
-0.213458
-0.212007
-0.118380
-0.042956
-0.054463
0.045599
-0.034015
0.096095
0.052518
0.022383
0.043263
0.027497
0.104332
0.106083
0.085936
0.054117
0.193933
0.075126
0.143456
0.106449
0.192908
0.146784
0.148263
0.206148
0.222910
0.237468
0.225561
0.347341
0.338093
0.417073
0.318044
0.457041
0.396494
0.443265
0.386453
0.452556
0.426536
0.408349
0.488070
0.506283
0.455344
0.544043
0.508812
0.542284
0.581977
0.474011
0.506218
0.493284
0.556939
0.533612
0.459052
0.500002
0.545969
0.454071
0.490836
0.415111
0.348658
0.464037
0.343178
0.321154
0.357470
0.313475
0.247558
0.188863
0.296519
0.224570
0.195583
0.196582
0.207414
0.270784
0.193620
0.117205
0.181045
0.112376
0.118940
0.075230
0.117457
0.038142
0.068096
0.065307
0.182073
-0.018046
0.072035
0.038629
0.025343
0.064666
0.065887
-0.008813
0.060044
0.091498
0.068479
0.084433
0.030901
0.086811
0.001814
0.112347
0.082409
0.089106
0.146094
0.068000
0.009367
0.011964
0.156899
0.139153
0.007694
0.008487
0.013654
0.035955
0.078371
-0.016559
0.024678
0.098744
0.074110
0.100436
-0.026501
0.073454
0.031325
0.047859
0.028025
0.084441
0.025211
0.054950
0.003352
0.095395
-0.014909
-0.005039
0.082011
0.054616
0.007663
0.055843
0.162983
-0.012709
0.001887
0.130933
0.037318
0.029087
0.097978
-0.003453
0.089807
0.008151
0.078607
0.176703
0.073715
0.086670
0.124429
0.162020
0.159947
0.112247
0.109703
0.098519
0.092332
0.196260
0.075811
0.106227
0.121192
0.107975
0.164139
0.234149
0.145114
0.232117
0.172068
0.274590
0.150447
0.287459
0.282984
0.151421
0.240461
0.209261
0.166547
0.157575
0.088105
0.181282
0.170205
0.084574
0.136218
0.113665
0.000219
0.161969
0.087104
0.067660
0.131358
0.079549
0.060138
0.004723
0.196955
0.044542
0.020043
-0.009502
0.057140
0.013798
-0.016219
-0.030118
-0.011557
-0.041606
0.090804
-0.042179
0.067755
-0.042221
0.106546
0.331179
0.536946
0.852042
1.165293
1.340237
1.500000
1.273331
0.997340
0.621502
0.311578
-0.035909
-0.168983
-0.222940
-0.146526
-0.087453
-0.106362
-0.006120
0.011195
0.021332
0.061220
0.132081
0.088971
0.048134
0.009917
0.022441
0.023764
0.185439
0.110991
0.086982
0.074168
0.081273
0.177524
0.120792
0.067210
0.146609
0.236174
0.134146
0.235243
0.237680
0.293478
0.308146
0.310849
0.243163
0.326960
0.361896
0.434159
0.424103
0.422818
0.435883
0.388176
0.369776
0.434709
0.452135
0.509353
0.542139
0.473289
0.458084
0.476965
0.485664
0.506917
0.464598
0.566614
0.467020
0.484919
0.395467
0.449913
0.440489
0.412859
0.347521
0.438625
0.384524
0.376217
0.264553
0.282426
0.188013
0.261758
0.171280
0.234266
0.171139
0.065199
0.155678
0.132465
0.054132
0.139145
0.152815
0.127499
0.108406
0.071538
0.064746
0.048312
-0.048553
0.058975
-0.054462
0.055974
-0.036550
0.000976
-0.008419
0.069747
-0.000372
0.059690
0.039536
0.000331
-0.104510
0.012778
-0.108620
-0.021536
-0.038894
0.034505
0.031202
-0.069954
-0.034431
-0.052862
-0.029727
-0.078058
-0.051022
-0.019732
-0.007396
-0.070625
0.035813
0.017805
0.009391
-0.024639
-0.066108
0.010915
-0.033146
0.021100
-0.053261
-0.052875
-0.027895
-0.061034
0.067060
0.016291
-0.048901
-0.074762
-0.054586
-0.014839
-0.035252
-0.025707
-0.028690
-0.051558
0.069394
-0.049246
-0.141750
-0.066619
-0.082508
-0.022905
-0.012827
-0.047388
0.020549
-0.010650
-0.026244
-0.010331
-0.094606
0.026054
-0.139362
0.004556
-0.041727
-0.037640
-0.051552
0.023196
-0.052384
0.041819
0.010613
0.032739
0.093422
0.110643
0.062061
-0.009940
0.081150
0.058218
0.127658
0.176401
0.084252
0.077224
0.127590
0.035649
0.055095
0.161738
0.166456
0.076954
0.091995
0.030748
0.144416
0.042351
0.015206
-0.014079
0.014788
-0.020693
-0.072098
0.074726
-0.044273
-0.025904
-0.013434
-0.119396
-0.091319
-0.031327
-0.029280
-0.053469
-0.114825
-0.047926
-0.058245
-0.108537
-0.030166
-0.020300
-0.034661
-0.080191
-0.137494
-0.054743
-0.054376
-0.084179
-0.078936
0.031176
0.328186
0.645291
0.925050
1.243001
1.310925
1.220912
0.950495
0.677456
0.276005
-0.035139
-0.236998
-0.313447
-0.324033
-0.222382
-0.166245
-0.149701
-0.124610
-0.090275
-0.093547
-0.066018
-0.004263
-0.063395
-0.070024
-0.024199
-0.052100
-0.011241
-0.048913
-0.070918
0.043986
-0.006124
0.043329
0.041289
0.079984
0.017903
0.074650
0.055180
0.120655
0.075873
0.129814
0.087397
0.141441
0.186795
0.249567
0.253705
0.266080
0.233134
0.236820
0.323284
0.384822
0.346255
0.372322
0.446945
0.354117
0.415802
0.436270
0.375404
0.388072
0.381123
0.447081
0.449823
0.353915
0.461482
0.440013
0.347587
0.301483
0.350140
0.243738
0.314679
0.320544
0.368586
0.249893
0.256891
0.186964
0.181697
0.210606
0.179917
0.123232
0.134068
0.016102
0.018899
0.029401
0.070076
0.042336
-0.048087
-0.013962
-0.076069
0.008507
-0.006774
0.025805
-0.050078
-0.112555
-0.108075
-0.124633
-0.121360
-0.166662
-0.113460
-0.128154
-0.035489
-0.097374
-0.082726
-0.097898
-0.020178
-0.080558
-0.158556
-0.006652
-0.124856
-0.179232
-0.090733
-0.107550
-0.194980
-0.061288
-0.127106
-0.101035
-0.086994
-0.049297
-0.103534
-0.077037
-0.082359
-0.107961
-0.096251
-0.114707
-0.199105
-0.085187
-0.050780
-0.047556
-0.159342
-0.148268
-0.086400
-0.066424
-0.067729
-0.043847
-0.093122
-0.089404
-0.110379
-0.154820
-0.110681
-0.072275
-0.081273
-0.145988
-0.050310
-0.012804
-0.122422
-0.059820
-0.030230
-0.113018
-0.122639
0.000356
-0.008295
-0.088416
-0.096712
-0.104453
-0.054418
-0.148155
-0.144085
-0.152091
-0.077957
-0.100154
-0.035041
-0.020196
-0.044969
-0.025173
-0.019143
0.041431
0.017378
-0.021281
0.083712
0.079223
0.051392
-0.036437
0.078896
-0.011464
0.058946
0.066284
0.141086
0.092990
0.117077
0.074088
0.024109
0.041042
0.015098
0.069799
0.078892
0.028238
0.056659
0.050565
-0.050604
-0.027595
-0.000241
0.017959
0.002909
0.005779
-0.029179
0.019160
0.043276
-0.022834
-0.048953
-0.014693
-0.065971
-0.068237
0.012223
-0.073859
-0.044080
-0.078937
-0.063609
-0.046583
-0.066580
-0.132534
-0.109242
-0.019549
-0.032604
0.052357
0.296313
0.520539
0.922785
1.121920
1.359462
1.197374
1.009793
0.768617
0.376483
0.011058
-0.116300
-0.316506
-0.316038
-0.208392
-0.231361
-0.173283
-0.059891
-0.007476
-0.030193
0.002167
-0.042055
0.035707
0.006085
-0.047016
-0.006019
-0.029334
0.011329
0.028923
0.125900
0.090701
-0.011670
-0.059101
0.130812
0.152479
0.104307
0.119758
0.085736
0.238275
0.256241
0.200987
0.247462
0.251904
0.253254
0.256523
0.276184
0.292248
0.334339
0.373756
0.377053
0.300974
0.357130
0.389317
0.462844
0.529644
0.440138
0.501177
0.518350
0.460601
0.471921
0.429345
0.463461
0.380882
0.474665
0.474633
0.457549
0.392966
0.391375
0.368108
0.397050
0.334188
0.273283
0.321409
0.323375
0.274169
0.211456
0.343752
0.253864
0.195477
0.272976
0.110576
0.115690
0.012288
0.104017
0.035429
0.065619
0.183890
0.133940
0.011096
0.149014
-0.035016
0.003201
0.059324
0.044735
0.074656
0.044365
-0.005465
-0.017268
0.062413
0.020283
0.020936
0.005097
-0.086140
-0.054810
0.022968
0.028390
0.016310
0.008151
0.033520
-0.013342
0.005490
-0.009817
0.055900
0.020785
-0.000810
0.007642
0.010220
0.028641
0.026900
-0.061847
-0.014746
-0.010425
0.041145
-0.015637
0.007337
0.016634
0.019670
0.092265
0.005723
0.034431
-0.007455
0.053093
0.047371
0.065085
0.072944
0.040876
-0.041139
0.054829
0.032407
0.032017
-0.019154
-0.061363
0.035664
0.071066
0.011797
0.095928
-0.032291
0.103597
-0.011109
0.086052
0.025125
0.031980
-0.003057
0.127111
0.107431
0.096055
0.072153
0.080585
0.064651
0.051778
0.057153
0.071960
0.113580
0.091538
0.129926
0.176997
0.123845
0.147238
0.189938
0.220716
0.212005
0.136677
0.229046
0.174205
0.153118
0.245116
0.275782
0.295792
0.237436
0.150416
0.174813
0.148953
0.174410
0.243896
0.138968
0.069508
0.062594
0.160088
0.118897
0.178322
0.093330
0.091633
0.087668
0.120736
0.074015
0.011448
0.057105
0.046127
-0.014119
0.093627
0.017565
0.077785
0.136777
0.070249
0.078019
0.099985
0.026544
0.069548
0.093730
0.017544
0.098426
0.152874
0.268330
0.518590
0.956584
1.232760
1.422740
1.408659
1.307908
0.953831
0.521230
0.243751
0.043960
-0.190697
-0.161599
-0.113307
-0.131852
-0.071001
0.114378
0.039706
0.105835
0.035187
0.096953
0.074372
0.017125
0.061599
0.095530
0.142580
0.154868
0.118351
0.151144
0.146391
0.250672
0.213440
0.190020
0.226664
0.215892
0.321494
0.242724
0.306866
0.254722
0.223426
0.328914
0.289855
0.306956
0.366613
0.452471
0.411035
0.495843
0.506075
0.566215
0.524195
0.519354
0.534320
0.612777
0.615042
0.586347
0.540152
0.620968
0.601407
0.642942
0.601407
0.526559
0.584672
0.551452
0.557872
0.567473
0.510758
0.482292
0.549780
0.470319
0.450038
0.426453
0.405742
0.288471
0.322197
0.254559
0.276929
0.277942
0.259599
0.308062
0.218403
0.257021
0.245873
0.221183
0.195328
0.279182
0.136922
0.255110
0.163750
0.146671
0.192580
0.167948
0.132392
0.095228
0.179500
0.104558
0.128089
