0.008420
0.004386
0.040957
-0.002092
-0.092018
-0.010808
0.021305
0.031171
-0.076639
0.095403
0.054958
0.057071
0.004015
0.026993
0.093271
-0.057610
0.026397
0.045520
0.058978
0.083521
0.021818
0.079513
0.049474
0.073215
0.131891
0.175040
0.104882
0.144581
0.185287
0.151464
0.133893
0.168805
0.222520
0.118835
0.161312
0.162555
0.270065
0.122822
0.178290
0.222533
0.181636
0.103281
0.211911
0.204275
0.189291
0.064939
0.103407
0.088152
0.156017
0.130534
0.152947
0.075483
0.048497
0.073458
0.085938
0.123729
0.023145
0.021808
-0.013169
0.085438
0.019883
0.149378
-0.078120
-0.004890
0.076887
0.086254
0.081404
0.193531
0.321551
0.614269
1.003822
1.218279
1.344349
1.382174
1.138157
0.861595
0.433557
0.129153
-0.021269
-0.161864
-0.158997
-0.038496
-0.011611
0.005904
0.117518
0.036395
0.103188
0.185777
0.230606
0.192339
0.144249
0.161969
0.175846
0.185873
0.191369
0.206839
0.291350
0.177621
0.341132
0.249209
0.337405
0.438893
0.337677
0.387655
0.406404
0.481044
0.447044
0.424793
0.496228
0.519467
0.495078
0.559657
0.608953
0.529890
0.640671
0.569756
0.565613
0.626052
0.581603
0.608388
0.585571
0.560715
0.502397
0.594847
0.529768
0.546964
0.513793
0.449147
0.449481
0.441986
0.461631
0.364411
0.379320
0.350912
0.368532
0.378294
0.339626
0.346802
0.290921
0.300342
0.245699
0.262549
0.234222
0.157004
0.195157
0.154934
0.149332
0.128891
0.169018
0.128552
0.111714
0.106145
0.139780
0.077446
0.090851
0.107646
0.152835
0.060327
0.040518
0.171087
0.062844
0.082654
0.046656
0.081754
0.091780
0.101317
0.151154
0.104915
0.108465
0.073842
0.058746
0.166606
0.027790
0.038513
0.022479
0.080367
0.105813
0.101010
0.119519
0.069530
0.055728
0.108396
0.153975
0.083553
0.022428
0.111548
0.119366
0.090138
0.033334
0.122604
0.075101
0.075006
0.084590
0.145122
0.093543
0.098732
0.094792
0.079526
0.088148
0.122991
0.077911
0.183660
0.122437
0.214425
0.210343
0.198973
0.156116
0.168247
0.248435
0.210950
0.179828
0.239852
0.253343
0.248007
0.266150
0.287526
0.202687
0.259931
0.341500
0.278552
0.223569
0.254468
0.221545
0.232738
0.209435
0.130887
0.160534
0.184871
0.133886
0.198649
0.146297
0.066799
0.124838
0.105803
0.087193
0.088513
0.174249
0.068244
0.061741
0.093166
0.135651
0.124073
0.135187
0.079809
0.118119
0.140280
0.120721
0.086814
0.166074
0.447318
0.716157
1.051603
1.359015
1.457357
1.339019
1.108895
0.731461
0.426536
0.118104
-0.076057
-0.073389
-0.009048
-0.037066
0.055705
0.046976
0.091049
0.142638
0.163311
0.194963
0.181068
0.193000
0.150888
0.184399
0.149593
0.215725
0.243289
0.305791
0.264020
0.307829
0.276626
0.331900
0.379276
0.385788
0.359283
0.319215
0.503232
0.408563
0.415072
0.514628
0.486278
0.458633
0.552018
0.542626
0.604608
0.519739
0.680226
0.581105
0.507985
0.666672
0.661803
0.637395
0.613320
0.524250
0.575321
0.600206
0.590908
0.499460
0.631781
0.512949
0.395937
0.382259
0.402390
0.491071
0.351117
0.327231
0.374699
0.223430
0.398041
0.203574
0.225361
0.182925
0.205595
0.207366
0.217332
0.184436
0.225637
0.131353
0.163000
0.183224
0.070199
0.083435
0.126167
0.046892
0.045930
0.096429
0.118409
0.065278
0.042978
0.039177
-0.000113
0.043246
0.023337
-0.002780
0.155160
0.047088
0.077741
0.072357
-0.028753
0.060714
0.062902
0.060071
-0.019684
0.058605
0.105361
0.104695
0.083326
-0.034033
0.092991
0.015413
0.077133
0.026323
-0.011173
0.030097
0.010809
-0.003415
0.000703
0.101440
0.066313
0.014740
0.047041
0.000067
0.035922
0.099463
0.015845
-0.009005
0.023598
0.090562
0.074820
-0.003550
0.086214
0.068640
0.100935
0.069710
0.092110
0.068752
0.017016
0.004077
0.028932
0.171177
0.107416
0.242087
0.214771
0.201134
0.150113
0.239082
0.205066
0.170033
0.224896
0.198746
0.115021
0.198609
0.193276
0.132314
0.145150
0.194811
0.216430
0.238325
0.114668
0.131045
0.105146
0.032747
0.132471
0.075988
0.016996
0.014849
0.047444
0.083766
0.137179
0.044989
0.034528
-0.034016
-0.074724
-0.075714
0.007938
0.015421
-0.017705
-0.036568
-0.064541
0.074741
0.198326
0.465496
0.849989
1.133440
1.398217
1.387199
1.288872
0.945781
0.572258
0.220470
-0.061830
-0.098429
-0.170007
-0.119804
-0.026050
0.033266
0.011237
-0.026689
0.029230
0.094140
0.080077
0.115253
0.129595
0.064831
0.084027
0.133667
0.109735
0.146795
0.151013
0.192720
0.269107
0.207104
0.270796
0.193677
0.260029
0.286075
0.263459
0.316678
0.301945
0.370293
0.419511
0.401715
0.379983
0.470691
0.475115
0.406727
0.559537
0.439236
0.418361
0.485989
0.568456
0.483465
0.506384
0.521939
0.490270
0.448299
0.447324
0.365861
0.361935
0.436107
0.294944
0.291115
0.337463
0.355903
0.305766
0.212594
0.243456
0.230236
0.234800
0.175515
0.223006
0.116106
0.137153
0.139276
0.040652
0.209497
0.063914
0.027896
0.101934
0.066634
0.035980
0.008076
-0.019923
0.089194
0.085656
-0.062296
-0.035412
0.013011
0.006719
-0.021628
-0.023443
-0.040156
0.017547
-0.032076
0.007374
-0.013884
0.047648
-0.017647
-0.094071
-0.017901
-0.082733
-0.109161
-0.042364
-0.195455
-0.097881
-0.032771
-0.050280
0.067141
0.012119
-0.035642
-0.010658
-0.014047
-0.077760
-0.052623
-0.003109
0.009542
-0.050951
-0.049840
-0.034132
-0.026639
-0.088420
-0.041455
-0.005386
0.026806
0.004349
-0.000790
-0.003318
-0.102000
-0.006173
0.003659
0.009758
-0.006465
0.018977
-0.052328
0.024061
0.072279
-0.032432
0.047801
0.133860
0.120141
0.113087
0.111331
0.105177
0.034125
0.064117
0.164252
0.116929
0.108993
0.182082
0.111856
0.125880
0.091547
0.098203
0.076553
0.097842
0.111902
0.060705
0.047869
0.114012
0.087068
0.052460
0.095032
-0.012045
0.024855
-0.005663
0.022523
0.040749
-0.033647
-0.080751
0.002498
-0.025178
-0.052742
0.031899
-0.061590
-0.029568
-0.055678
-0.055264
-0.002325
-0.050446
-0.009783
0.029810
0.277179
0.532442
0.861003
1.105751
1.322794
1.376707
1.124433
0.750854
0.395871
0.090187
-0.026644
-0.248981
-0.220129
-0.179562
-0.104672
-0.044242
0.076966
0.079622
-0.014878
0.048431
0.022249
0.032303
0.153652
0.049840
0.093786
0.173018
0.079548
0.158445
0.120267
0.178489
0.248969
0.221019
0.235656
0.226469
0.307103
0.339780
0.278115
0.346598
0.265903
0.399730
0.364189
0.343232
0.407273
0.369413
0.376379
0.505724
0.561843
0.466536
0.472346
0.421620
0.526704
0.394020
0.446767
0.471999
0.502932
0.514183
0.433054
0.334974
0.386979
0.348207
0.445291
0.364833
0.398759
0.340563
0.281440
0.229060
0.288222
0.214110
0.251762
0.230193
0.236824
0.129813
0.183727
0.148343
0.146763
0.137336
0.101204
-0.004473
0.053627
0.101029
0.129691
0.008115
0.072864
0.067218
0.092808
0.043044
0.055068
-0.116758
0.007004
-0.011346
-0.072355
0.016280
-0.041220
0.087482
0.016808
0.040439
-0.035030
-0.030192
0.080934
0.037103
-0.040866
0.096553
0.012620
-0.034917
-0.026421
0.009938
-0.009786
0.003761
0.096103
0.027746
0.049883
-0.024602
-0.045985
0.029069
-0.034882
-0.000779
0.054759
-0.018946
0.009447
0.057824
-0.009961
0.043037
0.038357
0.059994
0.044291
0.033063
0.047989
0.003445
0.030281
0.059682
0.051493
0.063066
0.112210
0.052745
0.166356
0.073288
0.141696
0.132944
0.161467
0.202226
0.178679
0.128034
0.078516
0.173187
0.175681
0.269794
0.152489
0.167548
0.254293
0.265370
0.217799
0.190248
0.171160
0.168907
0.178558
0.199162
0.158694
0.138288
0.092642
0.159957
0.150847
0.119270
0.117682
0.084603
0.042848
0.082392
0.066199
0.089419
0.076562
0.051796
0.033140
0.036922
-0.017037
-0.012476
0.027035
0.053597
0.066705
-0.012038
0.057042
0.083652
0.255644
0.403664
0.699155
1.030647
1.303105
1.434596
1.339345
1.124313
0.786059
0.426337
0.125657
-0.113583
-0.166436
-0.188654
-0.021070
-0.019651
0.069688
-0.025593
-0.034295
0.189015
0.115738
0.172646
0.174335
0.120067
0.139742
0.138568
0.232285
0.221753
0.284135
0.249070
0.255492
0.305258
0.299729
0.328535
0.408364
0.364359
0.312308
0.423185
0.573092
0.486241
0.477540
0.505849
0.517752
0.619844
0.525114
0.524561
0.501291
0.530670
0.585305
0.534627
0.642327
0.581380
0.686822
0.617003
0.579933
0.511040
0.615408
0.585895
0.476178
0.414585
0.510656
0.453992
0.486404
0.402152
0.461789
0.420226
0.395458
0.387516
0.380568
0.375416
0.301820
0.247565
0.345885
0.255092
0.172117
0.220588
0.210308
0.215673
0.268597
0.202901
0.194849
0.117048
0.114064
0.116415
0.128942
0.168170
0.176592
0.180341
0.149678
0.150988
0.137777
0.094038
0.027100
0.069995
0.110079
0.136505
0.073946
0.107943
0.149740
0.097929
0.087260
0.137658
0.072043
0.030214
0.147977
0.091079
0.097732
0.082083
0.091338
0.126886
0.120228
0.006973
0.085394
0.137325
0.098689
0.133861
0.088311
0.180905
0.064622
0.040696
0.125529
0.033883
0.076156
0.056100
0.122750
0.083761
0.135305
0.192904
0.074799
0.197161
0.131180
0.122965
0.123634
0.166187
0.091812
0.172419
0.179101
0.157990
0.244682
0.147570
0.107409
0.279613
0.264183
0.247518
0.226617
0.309169
0.150759
0.298239
0.288531
0.321749
0.307455
0.290740
0.242875
0.177848
0.278646
0.233008
0.304984
0.226048
0.257424
0.109165
0.215280
0.149390
0.173707
0.160555
0.177168
0.174819
0.154801
0.179941
0.096973
0.090852
0.043624
0.143166
0.142776
0.122623
0.023017
0.087629
0.142590
0.025793
0.061491
0.080551
0.091608
0.308024
0.511108
0.805125
1.127631
1.319425
1.463901
1.381054
1.044161
0.765443
0.324727
0.042310
-0.091985
-0.137379
0.003433
-0.001331
0.056225
0.098338
0.047944
0.100059
0.092751
0.184054
0.126794
0.219701
0.116539
0.207158
0.213204
0.213882
0.313138
0.237757
0.305647
0.265082
0.323256
0.425434
0.366982
0.512478
0.407237
0.357465
0.403905
0.498588
0.408251
0.465374
0.473151
0.563163
0.499882
0.514677
0.616415
0.537626
0.596011
0.547929
0.644038
0.608702
0.579900
0.638128
0.565773
0.613140
0.595472
0.540272
0.434042
0.587840
0.517796
0.466963
0.407659
0.486204
0.496104
0.363405
0.298371
0.360954
0.366420
0.398750
0.279756
0.250646
0.161780
0.242196
0.189083
0.254683
0.200916
0.166736
0.147341
0.143399
0.189578
0.142371
0.089443
0.132521
0.065764
0.102971
0.166454
0.120494
0.111986
0.044316
0.066912
0.059690
0.130514
0.117161
0.164685
0.080463
0.051568
0.061563
0.121750
0.018155
-0.040906
0.101706
0.022209
0.056238
0.090369
0.096261
0.125622
0.109253
0.076623
0.032353
0.137580
0.024814
0.086514
0.090636
0.019257
-0.034850
-0.042749
0.011263
0.054708
0.030658
0.013877
-0.028450
0.060746
0.021219
0.017217
0.003113
0.088964
0.104278
0.087236
0.051802
0.011030
-0.013326
0.043578
0.075867
0.101398
0.065151
0.074800
0.181976
0.127891
0.170220
0.125569
0.178579
0.195679
0.182413
0.238084
0.197727
0.189151
0.139071
0.183103
0.220400
0.244114
0.210748
0.128938
0.181783
0.171242
0.218879
0.119424
0.132787
0.116452
0.117056
0.111117
0.131194
0.090047
0.130912
0.081133
0.017146
0.153998
-0.008402
0.054206
0.062761
0.046852
-0.005810
0.000629
-0.050591
-0.019078
-0.047298
0.032975
0.022857
-0.035278
0.057570
0.016379
0.035286
0.305344
0.446404
0.784659
1.115448
1.283742
1.381643
1.194256
0.940676
0.525920
0.105172
-0.083223
-0.211305
-0.222130
-0.174331
-0.090987
-0.051285
-0.032451
0.093057
-0.012024
0.052097
0.021122
0.049304
0.093706
0.160890
0.079500
0.190558
0.088005
0.188193
0.182694
0.191374
0.203327
0.236502
0.191763
0.223697
0.330570
0.284841
0.412507
0.476832
0.310199
0.430716
0.325653
0.378506
0.459958
0.412381
0.413895
0.456360
0.456316
0.548297
0.471157
0.431253
0.499870
0.509218
0.411439
0.468407
0.422771
0.494107
0.527162
0.425336
0.452175
0.425655
0.312995
0.334607
0.346394
0.282962
0.270327
0.269796
0.209961
0.211343
0.209289
0.199703
0.202171
0.159428
0.057390
0.088676
0.120598
0.048866
0.091222
0.043518
0.138873
-0.040420
0.094484
0.050391
0.036755
-0.049055
0.000443
-0.088238
0.010422
-0.007261
-0.056073
-0.005904
-0.082063
-0.114944
-0.102749
-0.031768
-0.031853
-0.080210
-0.026160
-0.029615
-0.050618
-0.074175
-0.097894
-0.104166
-0.071193
-0.051707
-0.117195
0.014622
-0.041235
-0.142056
-0.065737
-0.018090
-0.101842
-0.092668
-0.057553
-0.132035
-0.075446
-0.047708
-0.029934
0.012659
-0.062090
-0.061775
-0.046895
0.022366
-0.108395
-0.076865
-0.161438
-0.063652
-0.072081
-0.001964
0.045086
-0.013148
0.022064
-0.031675
-0.067809
-0.005102
-0.029709
-0.090577
0.029799
-0.001529
0.069818
0.077120
0.010898
0.089091
0.010820
0.011634
0.145185
0.117793
0.090523
-0.024423
0.083057
0.175661
0.074437
0.083057
0.185781
0.046814
0.116475
0.042491
0.091108
0.129460
0.015351
0.012716
0.001306
0.040293
-0.035328
0.056798
-0.033909
-0.017228
-0.062015
-0.110932
-0.013744
-0.102374
-0.006055
-0.066781
-0.072675
-0.073290
-0.076094
0.047002
0.063717
-0.058434
-0.039609
-0.063688
0.059563
0.222264
0.515890
0.789649
1.142665
1.227717
1.191817
0.965328
0.770680
0.312385
0.047621
-0.245645
-0.266404
-0.307842
-0.200282
-0.098765
-0.025012
-0.036721
-0.002300
-0.036956
0.007293
-0.028004
0.019751
0.047188
0.051340
0.096942
0.063763
0.062890
0.095169
0.176446
0.133306
0.164280
0.069084
0.181100
0.151090
0.162488
0.242944
0.305130
0.180577
0.295602
0.269020
0.299558
0.358936
0.352790
0.311326
0.389474
0.368683
0.451395
0.459603
0.419706
0.519973
0.482474
0.475081
0.445808
0.402987
0.413964
0.479557
0.352985
0.356159
0.403836
0.297385
0.270713
0.378451
0.256382
0.349855
0.276613
0.219543
0.160851
0.237632
0.231529
0.197291
0.098429
0.095651
0.097397
0.034577
0.074852
0.096025
-0.000206
0.058064
0.044718
-0.006637
-0.055071
0.053776
-0.055389
-0.045267
-0.001608
0.007350
-0.127469
-0.017558
-0.057832
-0.087484
-0.113492
-0.109906
-0.000548
-0.029906
-0.117503
-0.065548
-0.091710
-0.109493
-0.046624
0.012362
-0.025512
-0.076846
-0.020934
0.034574
-0.103059
0.005818
-0.042658
-0.055300
-0.131426
0.019094
-0.047954
-0.080286
-0.138536
-0.075352
-0.067675
0.010018
0.007882
-0.038249
-0.109552
-0.069840
-0.078763
-0.009666
0.010574
-0.132434
-0.032207
0.000115
-0.000620
0.019415
-0.057761
0.011281
-0.034172
0.036760
-0.002642
0.020524
0.043376
0.008533
-0.030800
0.002598
0.077911
0.046442
0.056105
0.103739
0.040949
0.164290
0.148553
0.080160
0.105964
0.166351
0.216794
0.214906
0.163370
0.163900
0.139090
0.120729
0.129221
0.116500
0.154665
0.064170
0.092843
0.092589
0.059918
0.064147
0.105154
-0.001058
0.025974
-0.003333
-0.003044
-0.011268
-0.007765
0.005223
0.026752
-0.013929
-0.012450
-0.025225
-0.052729
0.002106
0.015976
-0.000840
0.019038
0.037629
0.199465
0.328442
0.616756
0.865799
1.188213
1.395610
1.270974
0.993469
0.680896
0.285714
-0.002971
-0.163953
-0.147359
-0.123770
-0.207145
-0.067285
0.035577
0.055412
0.066291
-0.074068
0.096148
0.061771
0.075225
0.126780
0.056610
0.101786
0.209716
0.107697
0.186855
0.183916
0.198814
0.187700
0.307142
0.225162
0.243626
0.307165
0.293604
0.377105
0.419131
0.460358
0.431081
0.514547
0.457743
0.444456
0.486694
0.469774
0.462632
0.489012
0.480017
0.512361
0.423618
0.517171
0.600474
0.507496
0.437673
0.491834
0.456341
0.473148
0.440444
0.416196
0.492052
0.395417
0.389313
0.377713
0.353711
0.344183
0.247363
0.368337
0.239134
0.208975
0.225012
0.312056
0.219436
0.134092
0.091391
0.171812
0.150727
0.146050
0.105224
0.091637
0.123549
0.084397
0.138748
0.153565
0.104522
0.065706
0.156583
0.086245
0.045086
0.023498
-0.032367
-0.077870
0.082351
0.101064
0.061334
0.008860
0.002928
-0.029836
0.016275
0.028523
-0.050746
-0.025452
0.071750
0.031591
-0.101900
0.070575
-0.057664
0.091983
0.050198
-0.001833
0.045842
0.050983
-0.052883
-0.014837
0.037864
0.111131
0.029477
0.009856
0.081159
0.016748
0.081973
0.047809
0.086156
0.120966
0.066971
0.019105
0.084333
0.058734
0.045241
0.034811
-0.009355
0.146339
0.147312
0.039974
0.167715
0.135849
0.100104
0.162800
0.201681
0.101394
0.195985
0.117874
0.221893
0.159073
0.147011
0.189679
0.181496
0.303552
0.204637
0.288118
0.200540
0.121875
0.233816
0.164480
0.214051
0.210571
0.175867
0.207030
0.010349
0.157003
0.236028
0.161910
0.010506
0.141031
0.074502
0.062025
0.094650
0.040936
0.109378
0.067479
0.137935
0.058523
0.072728
0.096029
0.043110
0.064350
0.072880
0.031398
0.042622
0.024931
0.039529
0.258227
0.547614
0.773056
1.120234
1.338037
1.376808
1.315708
1.049126
0.764173
0.256315
-0.003091
-0.111281
-0.120887
-0.064599
-0.037508
0.025702
0.095296
0.153805
0.064712
0.083087
0.121912
0.094525
0.204442
0.222070
0.167317
0.169270
0.209484
0.199529
0.246267
0.214502
0.253633
0.234988
0.296661
0.313081
0.285427
0.320999
0.464367
0.445026
0.452079
0.441550
0.472243
0.401224
0.519093
0.553669
0.461397
0.592649
0.590401
0.571146
0.484394
0.544405
0.630898
0.513445
0.602748
0.540802
0.494293
0.512097
0.453331
0.501240
0.430956
0.487426
0.414334
0.484670
0.376659
0.341188
0.449754
0.403225
0.266810
0.306448
0.384780
0.298405
0.237229
0.201327
0.220866
0.144991
0.239700
0.120686
0.100060
0.138054
0.083978
0.048452
0.110162
0.128759
0.105272
0.048542
0.082533
0.089632
0.054170
-0.048462
0.120030
-0.009442
0.047722
0.040079
0.001687
0.020588
0.066670
0.010996
-0.030677
0.017548
0.065720
0.000180
0.084578
0.103488
-0.014559
0.045068
0.028878
0.000809
-0.014836
0.064949
0.029112
-0.001540
0.045460
-0.020442
-0.033592
0.015163
0.061003
-0.011317
0.081085
0.034178
0.057063
0.006993
0.037448
-0.022685
0.068332
0.051714
0.006513
0.000329
0.019127
0.017319
-0.036612
0.061076
0.116483
-0.039104
0.044563
0.085657
0.030646
0.033240
0.055529
0.109874
0.116535
0.161151
0.090999
0.113407
0.177553
0.140628
0.191854
0.235285
0.172433
0.132867
0.139695
0.199646
0.160515
0.086779
0.106621
0.127787
0.154827
0.100442
0.158604
0.183693
0.037537
0.115121
0.082122
0.082345
0.084367
0.048750
0.069223
0.030968
0.025373
0.017225
0.023315
-0.042956
-0.039444
-0.006395
-0.007703
-0.010510
-0.025801
-0.063195
-0.045670
-0.011504
-0.036188
0.055903
0.161286
0.267068
0.487310
0.865306
1.160436
1.246973
1.349128
1.180958
0.813395
0.436439
0.078508
-0.138178
-0.169521
-0.237515
-0.161742
-0.027026
-0.039643
-0.003940
-0.025221
0.006074
0.081565
0.074176
0.049919
0.089250
0.075610
0.079249
0.073393
0.139217
0.139489
0.228723
0.128425
0.108033
0.193593
0.228566
0.306789
0.266955
0.252693
0.287295
0.354896
0.359847
0.291513
0.420475
0.406561
0.457761
0.428649
0.441786
0.500626
0.474428
0.524907
0.441518
0.446432
0.441822
0.497934
0.351081
0.469007
0.436001
0.417312
0.437607
0.412722
0.425774
0.418361
0.363533
0.342434
0.250694
0.308803
0.217031
0.256589
0.325735
0.190844
0.187435
0.143340
0.203961
0.099137
0.094500
0.052802
-0.018065
0.087486
0.052518
0.001209
0.042525
0.063255
-0.062923
0.068655
-0.036806
-0.035546
0.069949
-0.056180
-0.080849
-0.084955
-0.103559
-0.149122
-0.068918
-0.078514
-0.077055
-0.080952
-0.117480
-0.043843
-0.063030
-0.103967
-0.079433
-0.104528
-0.094587
-0.126617
-0.042151
-0.029040
-0.045753
-0.069379
-0.086716
-0.041013
-0.064444
-0.140931
-0.058197
-0.014459
-0.171480
0.007078
-0.183837
-0.079209
-0.074753
-0.003057
-0.096926
-0.091881
-0.092950
-0.111381
-0.086905
-0.117474
-0.120292
-0.035893
-0.103776
-0.136620
0.009143
-0.070303
0.082120
-0.036595
-0.091262
-0.102095
0.009110
-0.028541
0.036001
0.044020
0.001042
-0.050206
-0.015497
0.122974
-0.026522
0.056276
-0.005871
0.076945
0.104354
0.031522
0.113249
0.041056
0.113077
0.101636
0.066061
0.119594
0.121342
0.003676
0.083167
0.083437
0.060095
-0.022952
0.027497
-0.043365
0.012149
0.081997
-0.129213
-0.036171
0.009913
-0.048431
-0.061054
-0.085793
-0.056222
-0.102314
-0.150083
-0.110154
-0.094437
-0.055707
-0.114400
-0.071285
-0.112510
-0.068518
0.031680
0.273106
0.549858
0.920485
1.142149
1.219618
1.206929
0.992376
0.673102
0.292073
-0.050383
-0.193459
-0.208335
-0.287779
-0.204510
-0.097635
-0.143978
-0.105177
-0.079261
-0.063110
-0.103418
-0.027982
-0.042748
0.018134
-0.014948
0.089078
0.103935
0.052947
-0.000607
0.028160
-0.015463
0.176739
0.215775
0.135760
0.219471
0.188636
0.222793
0.261303
0.275508
0.313567
0.406014
0.273239
0.403306
0.353376
0.418928
0.403112
0.424031
0.390733
0.462814
0.448449
0.477911
0.440910
0.378523
0.447556
0.336661
0.336229
0.378064
0.418436
0.350421
0.408367
0.351055
0.180019
0.297998
0.251610
0.203755
0.234489
0.282133
0.224384
0.185459
0.110101
0.176290
0.131916
0.115246
0.052464
-0.015821
-0.034142
0.058360
-0.045284
-0.037408
-0.078119
-0.006294
-0.039971
-0.040064
0.002534
-0.007556
-0.038065
-0.029359
-0.097712
-0.048417
-0.073657
-0.092297
-0.135671
-0.147623
-0.061289
-0.131843
-0.143164
-0.024402
-0.008588
-0.083174
-0.049855
-0.144347
-0.083372
-0.048486
-0.129858
-0.136565
-0.037304
-0.051962
-0.055039
-0.169629
-0.103624
-0.087485
-0.018416
-0.143506
-0.034983
-0.081635
-0.013327
-0.002253
-0.056220
-0.030052
-0.077571
-0.101267
-0.054879
-0.089095
-0.061507
-0.051053
-0.130017
-0.109390
-0.058336
-0.049243
-0.012802
-0.107256
-0.036955
-0.044729
-0.074248
0.055183
-0.000512
0.074474
-0.005988
0.079605
-0.006774
0.014366
0.061464
0.076212
0.123471
0.136581
0.116804
0.039109
0.083841
0.080846
0.106105
0.071288
0.099651
0.149801
0.108376
0.192132
0.086124
0.115537
0.122202
0.136651
0.121543
0.028662
-0.001373
0.060769
0.056454
-0.085034
-0.046829
-0.063873
0.071171
-0.037725
-0.008678
-0.080130
-0.011811
-0.035872
-0.018064
0.045532
-0.025062
-0.039251
-0.023883
-0.074751
-0.068244
0.050879
0.170545
0.377555
0.669000
1.013405
1.193798
1.392556
1.307773
0.986408
0.506553
0.221379
-0.031894
-0.202403
-0.263560
-0.102038
-0.100680
-0.130233
-0.091339
0.026886
0.079244
-0.000145
0.037807
0.073950
0.077314
0.086625
0.075713
0.117907
0.078713
0.175753
0.224918
0.177369
0.232535
0.201439
0.159248
0.183350
0.236984
0.235172
0.363178
0.320859
0.383537
0.406679
0.410051
0.478549
0.515482
0.392086
0.482587
0.557648
0.561169
0.548001
0.497935
0.563775
0.487834
0.431453
0.522731
0.551823
0.446005
0.482885
0.539074
0.509970
0.376126
0.399550
0.459424
0.382213
0.335634
0.312670
0.355639
0.315756
0.282244
0.257077
0.187490
0.220585
0.192998
0.221703
0.096352
0.151590
0.112790
0.160925
0.115294
0.030373
0.140293
0.132931
0.068093
0.019867
0.062259
0.046583
0.115205
0.141237
0.100823
0.090475
0.066833
0.023443
-0.011525
0.140063
0.020433
0.006031
0.017029
0.078338
0.042291
-0.066349
0.095634
0.024730
0.002789
-0.015498
-0.058101
0.012550
0.070025
0.039747
0.011488
-0.008952
0.081734
0.035689
0.082029
-0.024203
-0.003136
-0.024076
0.071297
0.120350
0.040764
0.060771
0.059864
-0.029968
0.022623
-0.015343
0.009436
0.002292
-0.033178
0.004729
0.041511
0.133753
0.096877
0.045662
0.136271
0.036234
0.135131
0.063216
0.041522
0.075424
0.100212
0.101419
0.128947
0.174115
0.173478
0.164380
0.190115
0.188696
0.230772
0.165306
0.237095
0.287616
0.259601
0.204337
0.246452
0.228055
0.258332
0.074785
0.227220
0.167762
0.170278
0.205750
0.118547
0.232829
0.146822
0.144525
0.139959
0.154476
0.124258
0.102380
0.116962
0.095919
0.098120
0.097873
0.102324
0.100853
0.026696
0.101961
0.014817
-0.061392
0.085738
0.057525
0.131405
0.108465
0.153837
0.237234
0.608568
0.870316
1.152536
1.353754
1.500000
1.242645
0.964042
0.680966
0.292146
0.045077
-0.094233
-0.122315
-0.015885
-0.022601
0.043794
0.101177
0.065558
0.028205
0.120704
0.085346
0.103342
0.176708
0.231823
0.232016
0.245587
0.191860
0.280851
0.219450
0.265250
0.314596
0.212856
0.313639
0.374395
0.385222
0.345612
0.366172
0.480134
0.449764
0.452643
0.546254
0.468078
0.597788
0.508995
0.589796
0.554708
0.542621
0.558990
0.612178
0.566189
0.621546
0.494813
0.549905
0.508770
0.546865
0.600234
0.518820
0.575782
0.501130
0.574596
0.425007
0.456502
0.485039
0.492958
0.367817
0.425291
0.309243
0.385153
0.310429
0.271774
0.200296
0.326151
0.189649
0.219589
0.157073
0.159948
0.152567
0.206888
0.183079
0.094174
0.082615
0.146116
0.176719
