-0.039464
-0.048230
0.026870
-0.021474
-0.024495
-0.007723
0.000007
-0.035861
-0.016012
0.065019
0.048555
-0.009822
-0.037047
0.125839
-0.007670
-0.038155
-0.013976
0.020127
0.052230
-0.013799
0.021462
-0.024493
0.012226
0.037000
-0.040802
0.003352
0.022996
0.034943
0.082411
0.052372
0.052498
0.081393
0.059193
-0.037026
0.067919
0.097989
0.096650
0.114207
0.077782
-0.008173
0.014811
0.124812
0.157246
0.169476
0.108569
0.164116
0.118912
0.221897
0.195029
0.165123
0.144176
0.218254
0.182256
0.234272
0.230888
0.290126
0.156182
0.147201
0.218393
0.201939
0.140858
0.130822
0.159809
0.172040
0.137364
0.126832
0.128375
0.138668
0.042578
0.108362
0.093655
0.030126
0.077275
0.146626
0.085217
0.099810
0.031566
-0.006835
0.067253
0.078500
0.036821
0.137097
0.039897
0.104365
0.057337
0.051900
0.056829
0.082902
0.016787
0.066439
0.016038
0.043264
0.075582
0.087918
0.116797
0.026257
0.061028
0.053169
0.019341
0.001482
0.035254
-0.010843
-0.058733
0.004091
0.203394
0.420901
0.777995
1.063021
1.377279
1.451533
1.389141
1.268937
0.888890
0.453384
0.363399
0.024878
-0.112028
-0.297082
-0.256294
-0.173491
-0.091286
-0.097727
0.041222
0.121020
0.027123
0.111439
0.059906
0.038257
0.052175
0.018493
0.121771
0.121503
0.090480
0.152468
0.074782
0.093423
0.013958
0.064019
0.083667
0.199394
0.149961
0.130972
0.163867
0.118036
0.114308
0.192079
0.139235
0.140368
0.181353
0.136589
0.163802
0.166534
0.151311
0.223461
0.203882
0.212968
0.191491
0.239017
0.295785
0.228456
0.407584
0.409826
0.351380
0.397268
0.394817
0.454660
0.411810
0.500309
0.440507
0.544308
0.568587
0.483121
0.602622
0.562851
0.589902
0.510445
0.604350
0.594641
0.573481
0.573472
0.494467
0.555933
0.526441
0.564038
0.580465
0.513360
0.566340
0.482557
0.431420
0.358595
0.411517
0.388788
0.397273
0.304242
0.339330
0.320404
0.361238
0.304033
0.227415
0.251442
0.252499
0.269121
0.268862
0.151556
0.229077
0.208021
0.177466
0.176818
0.164704
0.151752
0.092286
0.147104
0.135971
0.101622
0.124319
0.137970
0.142893
0.094803
0.167424
0.061354
0.112417
0.108277
-0.020089
0.065081
0.114132
0.091601
0.053916
0.089089
0.102956
0.106498
0.055684
0.079966
0.058364
0.079530
0.090652
0.158142
0.065636
0.097954
0.054746
0.007294
0.084305
0.067959
0.017173
0.081804
0.116032
0.031391
0.103753
0.062257
0.119926
0.072371
0.147760
0.078137
0.068926
0.151538
0.148229
0.133190
0.051326
0.059180
0.166993
0.058278
0.088095
0.119437
0.097338
0.072399
0.108788
0.076204
0.056710
0.085303
0.071539
0.110874
0.058117
0.118403
0.171806
0.113228
0.077155
0.075011
0.144527
0.059357
0.061152
0.042811
0.076507
0.096010
0.052115
0.045105
0.046778
0.103586
0.002793
0.051776
0.098451
0.034883
0.134391
0.073843
0.039971
0.077934
0.058436
0.045080
0.129769
0.086793
0.103968
0.004631
0.097657
0.025173
0.097013
0.077459
0.068461
0.065236
0.076812
0.043443
0.155956
0.091295
0.092410
0.101599
0.079334
0.107743
0.115937
0.093149
0.123248
0.170782
0.102588
0.191533
0.218971
0.231622
0.218830
0.197605
0.184929
0.213891
0.213536
0.169471
0.272587
0.169719
0.177649
0.198571
0.193974
0.158304
0.180059
0.131420
0.099240
0.107201
0.150835
0.158461
0.126062
0.121106
0.126791
0.108407
0.140132
0.113530
0.095870
0.022918
0.000184
0.070533
0.099793
0.035677
0.007561
0.078886
-0.013007
0.035181
0.028264
-0.049273
0.096910
0.003779
-0.036486
0.049746
-0.009868
0.004906
0.082478
0.021590
0.047093
0.035038
-0.007302
0.059806
-0.002414
0.020126
-0.065997
-0.063451
-0.047706
-0.125492
0.003450
0.215010
0.571583
0.788415
1.138101
1.301874
1.386184
1.327565
1.020626
0.830796
0.499905
0.278378
-0.011337
-0.157151
-0.287120
-0.326454
-0.236924
-0.141563
-0.114612
-0.044383
-0.005673
-0.002627
-0.025104
-0.001391
0.019607
0.033282
0.025185
-0.017495
-0.038069
-0.015016
0.082480
0.015232
0.069642
0.052089
0.035017
0.040119
0.013952
-0.018650
-0.003112
0.025430
0.042369
0.049699
0.071072
0.068769
0.137131
0.111047
0.134580
0.105302
0.114572
0.065321
0.181005
0.147164
0.153467
0.184348
0.101369
0.196818
0.206176
0.205175
0.225238
0.182044
0.282278
0.372152
0.319165
0.369752
0.414601
0.343253
0.444530
0.456025
0.426924
0.456036
0.507258
0.337345
0.477288
0.501569
0.410998
0.494783
0.469666
0.441896
0.502213
0.442533
0.400022
0.372201
0.409396
0.353274
0.366100
0.304420
0.338341
0.321722
0.254290
0.313051
0.376006
0.205077
0.259740
0.126538
0.176535
0.153575
0.121542
0.180847
0.127193
0.022775
0.053246
0.064989
0.042809
0.131721
0.042316
0.112553
0.036739
0.034810
0.044886
-0.014316
-0.008167
-0.076367
0.053943
0.009709
-0.030736
-0.015759
-0.039764
-0.049878
-0.070136
-0.047253
-0.108370
-0.051758
-0.021466
-0.041981
-0.014470
0.005302
-0.030632
-0.009902
-0.094066
-0.037510
-0.056519
0.002718
-0.061886
-0.028306
-0.053895
-0.053036
-0.022463
-0.002536
-0.011657
-0.036939
-0.039214
-0.043321
-0.015923
-0.028791
0.028708
-0.052020
-0.066767
-0.085036
0.049576
-0.057752
-0.079855
-0.126546
0.018430
-0.005061
-0.094965
0.006712
-0.015565
0.010169
-0.114285
-0.043140
-0.031546
0.018615
-0.039607
-0.035824
-0.058438
-0.041802
-0.088850
-0.019956
-0.008700
-0.104792
-0.098341
-0.013185
-0.111393
0.058879
-0.101169
-0.059447
0.021753
0.005409
-0.046575
-0.053196
-0.095975
-0.074539
-0.032976
-0.101925
-0.049901
0.004524
-0.066293
-0.020087
-0.053157
0.044628
-0.105960
-0.071748
-0.001692
-0.032371
-0.025231
-0.024491
-0.009961
0.000077
0.006336
0.000778
-0.098106
-0.076303
-0.055555
-0.032264
-0.018188
0.062517
0.093186
-0.037656
0.067637
0.020105
-0.002477
0.034245
0.039293
0.033503
0.157562
0.084064
0.115766
0.094838
0.088508
0.129077
0.088822
0.160319
0.124478
0.082738
0.200387
0.134239
0.106489
0.107921
0.143723
0.067386
0.088576
0.076269
0.153992
0.063523
0.051162
0.075872
0.059900
0.000768
-0.002676
0.011846
0.008982
0.055996
0.034955
-0.047273
-0.084239
-0.028168
-0.124857
-0.011950
-0.041148
0.011976
-0.009278
-0.027750
-0.036801
-0.009842
0.065828
0.003690
0.033496
0.031340
-0.031580
-0.029860
0.017366
-0.025408
-0.031866
-0.037111
-0.044961
-0.014165
0.008859
-0.085312
-0.124630
-0.098980
-0.124329
-0.118920
-0.094184
0.057496
0.166828
0.576892
0.868160
1.139036
1.335279
1.342140
1.179274
0.947813
0.598696
0.320799
0.041811
-0.200768
-0.277674
-0.360954
-0.281901
-0.204789
-0.155443
-0.098805
0.020208
-0.068686
0.018573
0.025030
0.047953
-0.036363
0.008628
-0.046795
0.017030
0.000253
0.093255
0.007342
0.045167
0.017173
-0.015298
-0.009059
-0.056486
0.019627
-0.014305
-0.023911
-0.007257
-0.014351
0.079216
0.088338
0.076041
0.078114
0.049916
0.105936
0.089460
0.095662
0.135439
0.174553
0.258040
0.148443
0.178265
0.182288
0.320192
0.282320
0.269190
0.200141
0.247874
0.315004
0.347427
0.404666
0.411685
0.345857
0.370445
0.500776
0.391705
0.468175
0.557010
0.388958
0.547007
0.511937
0.457298
0.500090
0.487228
0.490837
0.515604
0.479773
0.487896
0.477780
0.406819
0.478179
0.453503
0.319876
0.374052
0.402500
0.373660
0.325317
0.319993
0.317310
0.228440
0.245913
0.201400
0.214519
0.222528
0.153604
0.203685
0.123814
0.116672
0.201203
0.185658
0.118900
0.094917
0.089697
0.021780
0.019705
0.128080
-0.005956
0.076415
0.038247
0.011897
0.023852
0.111399
0.041981
0.032557
0.031071
0.043737
0.020329
0.090561
-0.014622
-0.008062
0.001487
-0.036574
0.095808
-0.001702
0.057057
0.076815
-0.002224
0.014119
0.105584
0.098124
0.061159
0.066559
0.079067
0.016520
0.034564
-0.015162
-0.025815
0.079843
0.075594
0.086062
0.016658
0.070565
0.022335
0.039028
0.095752
0.034237
-0.028719
0.099045
0.037254
0.116038
0.022253
0.134824
0.089871
0.110176
0.033359
0.033737
0.062355
0.045718
-0.018242
0.008363
0.035932
0.052680
0.117668
0.000772
0.067837
0.122136
0.086081
0.130452
0.030261
0.094753
0.132029
0.090976
0.038829
-0.015845
0.109940
0.024523
0.083949
0.028856
0.127831
0.115778
0.114238
0.129651
0.115671
0.060565
0.060071
0.044826
0.054375
0.085803
0.005561
0.057815
0.118560
0.011257
0.066255
0.037955
0.115286
0.077020
0.094346
0.068348
0.104850
0.104412
0.072618
0.129569
0.084940
0.001228
0.049220
0.099627
0.137390
0.067736
0.177414
0.171410
0.128001
0.162122
0.112225
0.151305
0.205932
0.193977
0.167116
0.234389
0.197831
0.185015
0.265675
0.258918
0.225513
0.150092
0.313775
0.132392
0.208853
0.255776
0.237673
0.135941
0.218971
0.170789
0.166890
0.214153
0.149443
0.084026
0.167502
0.111433
0.127605
0.078771
0.137920
0.057645
0.111170
0.079450
0.027393
0.045855
0.066337
0.123095
0.101314
0.062422
0.093683
0.042236
0.106205
0.125704
0.030219
0.101852
0.070860
0.087740
0.017922
0.070908
0.149201
0.069013
0.081144
0.109071
0.152255
0.051466
0.095981
0.062307
-0.017969
0.018078
-0.006703
0.124587
0.491734
0.756109
1.034852
1.231942
1.500000
1.465300
1.278431
1.038559
0.673141
0.380517
0.060201
-0.108321
-0.207378
-0.199606
-0.244662
-0.149251
-0.043497
0.142151
0.073587
0.036047
0.069603
0.107039
0.016104
0.168886
0.137270
0.123053
0.065332
0.192084
0.086734
0.088979
0.112145
0.101477
0.114267
0.122836
0.082765
0.041109
0.136500
0.088005
0.118677
0.126626
0.105732
0.041732
0.153200
0.151843
0.243972
0.113663
0.164018
0.148115
0.132091
0.167406
0.267511
0.253454
0.263842
0.296871
0.422954
0.371459
0.419462
0.360051
0.421624
0.419771
0.361918
0.495313
0.433556
0.511450
0.497219
0.487167
0.525955
0.455022
0.510390
0.548640
0.607732
0.547796
0.556025
0.566602
0.605814
0.560961
0.564976
0.566883
0.505855
0.532700
0.557815
0.473303
0.464215
0.362035
0.375829
0.387972
0.434307
0.363808
0.402851
0.315373
0.323607
0.245875
0.300850
0.294977
0.333874
0.209052
0.204172
0.198907
0.155166
0.126388
0.070166
0.212445
0.177400
0.128470
0.117904
0.151692
0.136665
0.099929
0.116492
0.047584
0.117218
0.078076
0.100944
0.086569
0.029344
0.022789
-0.005052
0.067185
0.114683
0.149554
0.094386
0.035881
0.057474
0.103016
0.039846
0.012900
0.056458
0.097164
0.004948
0.110532
0.000074
0.065432
0.014975
0.093795
0.056119
-0.003101
0.065936
0.035595
0.069025
0.005012
0.030206
0.055089
0.064467
0.075032
0.009985
0.026161
-0.005633
0.059958
0.125054
0.011923
0.000480
0.112363
0.073254
0.025692
0.027700
0.055393
-0.011262
0.022940
-0.000809
0.093182
0.104603
0.018312
0.024705
-0.033204
0.039355
0.059152
0.047920
-0.023831
0.128814
0.057090
0.079484
0.006795
0.082376
-0.013899
-0.017566
-0.002641
0.069565
0.128181
-0.024849
0.005256
0.027368
0.056724
0.012979
0.027663
-0.009748
0.040024
0.006196
0.067997
0.039153
0.064095
-0.006427
0.040234
0.056177
0.037817
-0.018101
-0.030631
0.035225
-0.012351
-0.008948
0.047231
0.116192
0.015593
0.006094
-0.022128
0.019659
0.057678
0.125877
0.084634
0.048461
0.018021
0.012503
0.100964
0.108768
0.122122
0.137185
0.144325
0.170587
0.146013
0.180271
0.091024
0.127364
0.196591
0.229793
0.174072
0.153471
0.181200
0.128311
0.146711
0.149751
0.211873
0.080016
0.052726
0.162345
0.055781
0.063700
0.093799
0.036901
0.031729
-0.035175
0.036067
-0.027026
0.099645
0.032643
0.011225
0.033269
-0.086336
0.058259
-0.005685
0.004467
-0.018552
0.043195
-0.043588
0.061939
-0.047225
0.005747
0.048629
-0.054682
-0.011420
0.069452
-0.024471
0.019220
-0.064131
-0.050653
-0.037526
-0.059026
-0.010713
-0.066628
-0.045081
-0.085447
-0.075845
-0.096162
0.001719
0.099322
0.325073
0.695441
1.037853
1.202972
1.348372
1.290751
1.075215
0.803673
0.347308
0.147947
-0.023041
-0.212931
-0.359767
-0.398596
-0.301448
-0.249800
-0.131939
-0.078836
-0.008102
-0.029993
0.013212
0.018499
-0.017378
0.005917
-0.020628
-0.032312
-0.076300
-0.116010
-0.083799
-0.079931
-0.069328
-0.029447
-0.087916
0.045817
-0.076365
-0.000180
-0.012410
-0.015320
-0.061553
0.011458
-0.044113
-0.003442
-0.006727
0.054744
-0.029400
0.070540
0.115240
0.051911
0.070935
0.029059
0.107325
0.081362
0.219361
0.163152
0.126717
0.134173
0.242315
0.275382
0.282561
0.303049
0.397843
0.336589
0.343964
0.360294
0.317737
0.375256
0.345161
0.373274
0.407030
0.365417
0.405879
0.389147
0.486246
0.408274
0.444310
0.441157
0.362548
0.392427
0.394981
0.420266
0.308632
0.294050
0.352894
0.349877
0.365247
0.324669
0.260231
0.217641
0.292778
0.201505
0.158750
0.205225
0.231871
0.128566
0.125685
0.103636
0.087147
0.092252
0.088223
0.020210
0.023515
-0.019133
-0.055197
-0.051303
0.010855
0.029718
-0.053570
0.014274
-0.059242
-0.071815
-0.071238
-0.066432
-0.031686
-0.071354
-0.072356
-0.128153
-0.087297
-0.106240
-0.034799
-0.175379
-0.077808
-0.035269
-0.115077
-0.029721
-0.094723
-0.013785
-0.078065
-0.120034
-0.038407
-0.103497
-0.150836
-0.124913
-0.022550
-0.066191
-0.095542
-0.098179
-0.126594
0.012951
-0.107126
-0.095061
-0.096482
-0.110773
-0.117398
-0.074145
-0.052936
-0.038236
-0.131164
-0.114887
-0.007928
-0.066464
-0.099795
-0.052800
-0.106566
-0.015382
-0.024818
-0.048524
-0.068490
-0.097777
-0.093956
-0.071154
-0.090378
-0.052684
-0.110459
-0.082957
-0.072873
-0.032690
-0.103571
-0.039207
-0.066196
-0.035888
-0.108553
-0.107498
0.024930
-0.130586
-0.096067
-0.075367
-0.021034
-0.094856
-0.003732
-0.058669
-0.140799
-0.025767
-0.098929
-0.112497
-0.117809
-0.130215
-0.083389
-0.064669
-0.087897
-0.077362
-0.074029
-0.092517
-0.049156
-0.013737
-0.005082
-0.089943
-0.060278
-0.052990
-0.037030
-0.044069
-0.046101
-0.144849
-0.042341
-0.037645
-0.043195
-0.060465
0.009324
0.017478
0.006477
-0.016855
-0.075063
0.002397
0.016768
0.077394
0.132502
0.067860
0.074483
0.065762
0.091127
0.089140
0.076576
0.023990
0.086859
0.102738
0.122496
0.134455
0.090293
0.083755
0.042792
0.097695
0.071171
0.072373
0.143537
0.050924
0.008830
0.071544
-0.014763
0.041901
-0.014243
-0.058971
-0.048448
-0.014087
-0.019697
-0.049368
-0.036955
0.027046
-0.049993
-0.050426
-0.022188
-0.047226
-0.068126
-0.031491
-0.011591
-0.018701
-0.086205
-0.087585
-0.069874
-0.026230
-0.008135
-0.062468
-0.060242
-0.017222
-0.044094
-0.050271
0.019065
-0.020709
-0.038353
-0.063772
-0.061036
-0.172667
-0.102960
0.004050
0.177051
0.411467
0.745515
1.071227
1.332108
1.336576
1.229134
0.998907
0.649463
0.408533
0.062845
-0.097758
-0.270744
-0.362973
-0.241187
-0.254689
-0.181578
-0.145362
-0.097863
-0.056128
-0.114158
-0.086546
-0.105382
-0.053297
-0.031877
-0.001581
-0.064247
-0.044541
0.011784
-0.047096
-0.032993
-0.017084
-0.053511
0.011835
-0.015168
-0.084754
0.046153
0.077934
0.012318
0.019841
0.039238
-0.023056
-0.043005
0.133453
0.120546
0.122367
0.057791
0.047925
0.046964
0.004747
0.116634
0.132256
0.135013
0.267936
0.173606
0.161803
0.171803
0.230628
0.265689
0.309389
0.330603
0.372408
0.345913
0.372840
0.389529
0.450453
0.372288
0.437655
0.554945
0.504644
0.500692
0.504834
0.524890
0.516555
0.436394
0.488125
0.462611
0.452917
0.415468
0.475896
0.467530
0.436821
0.416878
0.402182
0.402820
0.431957
0.266122
0.267789
0.271874
0.330935
0.292552
0.208512
0.267643
0.220221
0.208715
0.143079
0.122568
0.051479
0.104595
0.121143
0.057525
0.080471
0.112263
0.059472
0.067572
0.067628
0.029352
0.052275
0.078323
0.020105
0.048702
-0.016696
0.058419
0.050257
0.007366
-0.058705
-0.071752
0.071414
0.096464
0.050075
0.039629
0.018617
0.026049
-0.027390
0.054728
0.102822
-0.009677
0.043790
0.061935
0.071013
0.013010
0.016879
0.002203
0.029968
-0.020193
-0.008042
-0.010468
-0.022524
0.021253
0.023170
0.020612
0.034404
0.029983
0.014849
0.022467
0.000311
-0.037034
0.061182
-0.040765
0.046013
0.038783
0.046510
0.096901
0.032762
-0.066947
0.015427
-0.002440
0.013658
0.087175
0.067753
0.030230
-0.021192
-0.075043
-0.005756
0.087948
-0.005100
0.019386
0.025757
0.110062
-0.040260
-0.006308
0.071275
0.077365
0.018043
0.070337
0.000603
0.077992
0.018463
0.026382
0.060306
0.047942
0.024475
0.039198
-0.016469
0.053150
-0.041580
0.003753
0.097645
0.100742
0.062097
0.064226
0.058095
0.024307
-0.034557
0.043333
0.073030
0.105026
0.002250
0.080014
0.082054
0.051830
0.042416
0.077370
0.060148
0.066545
0.067847
0.071861
0.026853
0.102441
0.078386
0.101472
0.190583
0.174477
0.192104
0.094787
0.183855
0.151738
0.259034
0.239280
0.223472
0.224331
0.192194
0.184412
0.201580
0.150014
0.224405
0.150872
0.249697
0.176103
0.157097
0.152109
0.135271
0.116706
0.165107
0.162200
0.099850
0.065527
0.150784
0.037139
0.076326
0.056490
0.091485
0.051834
0.047375
0.167013
0.032382
0.075390
0.014668
0.100710
0.076515
0.097382
0.035414
0.037361
0.022185
0.006825
0.073999
0.035904
0.022709
0.075981
0.020752
0.022269
-0.005469
0.050549
0.078903
0.001454
0.075252
0.111556
-0.001121
-0.057399
0.018447
-0.126711
0.014012
0.133498
0.314061
0.636729
0.952183
1.162819
1.393832
1.319260
1.191381
0.958389
0.709784
0.331433
0.105900
-0.149394
-0.267911
-0.307916
-0.263573
-0.182452
-0.188526
-0.051196
0.019923
0.071158
0.027114
0.036887
0.039075
0.055158
0.087244
0.110458
0.030560
-0.032424
-0.013314
0.056233
-0.078322
-0.027795
0.076552
0.035710
0.130433
0.011322
0.077745
0.077156
0.031318
0.093127
0.055111
0.074632
0.042106
0.063390
0.127692
0.174200
0.113522
0.205673
0.184946
0.199699
0.126283
0.229129
0.275288
0.232207
0.234202
0.291438
0.287196
0.291890
0.349623
0.303183
0.290326
0.391591
0.356882
0.461028
0.401989
0.469983
0.501830
0.441779
0.464789
0.490736
0.524037
0.473884
0.485192
0.524394
0.464183
0.477810
0.376532
0.475284
0.441815
0.458108
0.412874
0.461310
0.384962
0.398151
0.364581
0.370105
0.339822
0.306115
0.301588
0.222276
0.239711
0.249926
0.198677
0.136810
0.101900
0.163430
0.128269
0.117596
0.094493
0.082626
0.101753
0.134584
0.129883
0.071744
0.016535
0.093858
0.027944
0.100077
0.027317
0.050468
0.000687
0.034424
0.064570
0.014462
0.032282
0.011971
0.005703
0.035236
-0.084672
0.014168
-0.075398
-0.075601
-0.068425
-0.046545
-0.035589
-0.000620
-0.012263
0.075827
-0.024821
0.018124
-0.156187
-0.001425
-0.023086
-0.036343
0.007565
-0.006328
-0.035697
-0.038589
-0.010818
-0.035772
-0.008470
-0.006027
-0.013283
-0.022583
-0.039862
0.029666
-0.059268
-0.095105
0.017619
-0.028175
-0.015899
-0.027132
-0.099216
-0.081851
-0.029413
0.034750
0.108915
-0.032658
-0.021549
-0.062295
-0.072735
-0.066136
-0.062301
-0.003150
-0.015690
-0.072781
-0.072335
-0.064327
-0.044894
-0.059156
-0.020292
-0.080599
0.023893
0.031080
-0.059000
-0.173192
-0.069773
-0.030417
-0.036511
-0.072087
-0.005772
-0.054235
-0.013119
-0.026144
-0.060438
-0.055943
-0.061019
-0.035564
-0.069672
-0.067373
-0.000190
-0.113980
-0.062745
-0.028442
-0.133897
-0.100626
-0.024767
-0.111746
-0.027902
-0.046178
0.017778
0.004925
-0.112621
-0.034406
0.019472
-0.066363
-0.023993
0.007552
-0.018749
-0.017887
0.048018
0.068856
-0.002885
0.037461
0.099139
0.099217
0.142622
0.119656
0.016874
0.088776
0.173534
0.082143
0.046241
0.122318
0.118344
0.122902
0.088130
0.045389
0.144972
0.050101
0.127991
0.045250
0.057528
0.022824
0.025116
0.071112
0.004625
0.016951
0.070045
-0.031751
-0.071086
-0.051970
-0.044060
-0.084447
-0.029804
-0.172441
-0.097501
-0.077670
-0.074662
-0.061872
-0.027667
-0.116136
-0.071338
-0.034804
-0.096038
-0.123831
-0.019824
-0.059791
-0.127758
-0.077426
-0.080551
-0.099359
-0.043329
-0.044033
-0.008012
-0.113171
-0.113217
-0.122987
-0.131186
-0.180734
-0.187239
-0.096547
0.035292
0.307525
0.576690
0.877085
1.154277
1.267181
1.240957
1.061554
0.746125
0.483816
0.106213
-0.096004
-0.303857
-0.352680
-0.416097
-0.297712
-0.308751
-0.237088
-0.116310
-0.168413
-0.095953
-0.142717
-0.144732
-0.133217
-0.045959
-0.152026
-0.046169
-0.033510
-0.090736
-0.104392
-0.044738
-0.133634
-0.057304
-0.025627
-0.037773
-0.078890
-0.060606
-0.095945
-0.075289
-0.103903
-0.060900
-0.037821
0.017915
-0.007886
-0.027478
0.000492
-0.047014
0.021474
0.013707
0.067811
0.113103
0.088498
0.099618
0.118866
0.139028
0.083357
0.125374
0.109826
0.194812
0.250622
0.230937
0.232982
0.289933
0.352283
0.302196
0.362976
0.382234
0.339970
0.324756
0.387793
0.486806
0.347248
0.393813
0.463729
0.442210
0.362953
0.464574
0.379515
0.352251
0.311312
0.357677
0.261123
0.262411
0.314508
0.321532
0.352811
0.268709
0.193172
0.185720
0.291153
0.151112
0.149930
0.156617
0.113883
0.071294
-0.016618
0.101822
0.078529
0.024615
0.053222
-0.016092
0.006453
0.008960
-0.043909
0.040122
-0.047557
-0.075515
-0.077423
-0.015872
-0.031875
-0.063106
-0.098153
-0.117655
-0.042026
-0.028861
-0.123274
-0.102469
-0.112135
-0.077920
-0.072496
-0.114571
-0.153262
-0.071211
-0.055138
-0.110621
-0.062683
-0.106848
-0.122405
-0.129074
-0.084326
-0.081397
-0.092109
-0.086289
-0.073532
-0.000878
-0.080563
-0.098828
-0.039651
-0.104669
0.011354
-0.114527
-0.046609
-0.110401
0.014458
-0.079767
-0.084941
-0.147016
-0.149562
-0.057732
0.018349
-0.033520
-0.100307
-0.131719
-0.103348
-0.043411
-0.039785
-0.093073
-0.140529
-0.089279
-0.165849
-0.042257
-0.064720
-0.091650
-0.142262
-0.142709
-0.175212
-0.175896
-0.083012
-0.080734
-0.062217
-0.079864
-0.057949
-0.114399
-0.074497
-0.096030
-0.092418
-0.084042
-0.013847
-0.127628
-0.011697
-0.079338
-0.088023
-0.081559
-0.070437
-0.058760
0.003278
-0.198771
-0.075685
-0.024598
-0.095245
-0.082231
-0.067539
-0.008260
-0.072580
-0.038005
-0.103988
-0.086643
-0.019702
-0.014877
-0.047344
-0.014403
0.017107
-0.025739
-0.091302
0.024252
-0.007698
0.052010
0.037277
-0.052374
-0.033582
-0.023510
0.164010
0.053221
0.016415
0.117425
0.051994
0.123569
0.071465
0.098328
0.106617
0.047146
0.111175
0.050553
0.121090
0.062959
0.177305
0.277202
0.128361
0.059370
0.118609
0.135376
0.196240
0.104394
0.073796
0.086657
0.081838
0.094950
0.072233
0.003414
-0.020186
0.010532
0.028545
-0.011705
-0.035718
-0.014251
0.004299
0.020214
-0.027758
-0.083119
0.001677
0.007987
0.047327
-0.043457
-0.000413
-0.035178
-0.051934
-0.013949
0.029627
0.043743
0.019532
-0.010630
-0.060833
-0.070668
0.044283
-0.008408
-0.031133
-0.081251
0.013640
-0.071092
-0.000063
-0.064403
-0.055833
0.009868
0.140016
0.341851
0.727520
1.028556
1.319778
1.329848
1.302426
1.084686
0.769755
0.378209
0.064179
-0.075099
-0.211343
-0.344598
-0.328283
-0.180974
-0.218520
-0.019351
-0.026981
-0.053086
0.017861
0.004212
-0.068365
0.064192
0.076287
0.032664
0.018154
-0.001527
0.048270
0.068629
0.083466
0.064155
0.066881
-0.014673
-0.013899
0.053757
0.155320
0.034487
0.030691
0.038144
0.051969
0.067912
0.050143
0.106130
0.009817
0.111381
0.073644
0.140780
0.141792
0.171988
0.158818
0.141638
0.234078
0.225877
0.232198
0.290364
0.316314
0.291202
0.341600
0.324190
0.345784
0.358792
0.404978
0.454502
0.445458
0.449321
0.455195
0.432006
0.582136
0.505250
0.484993
0.442720
0.510157
0.477122
0.565878
0.548674
0.494187
0.484118
0.530572
0.422383
0.484189
0.505291
0.388273
0.406872
0.353712
0.365004
0.314087
0.357944
0.284746
0.334021
0.320328
0.264794
0.206292
0.273864
0.335445
0.189872
0.122459
0.143353
0.168965
0.180686
0.100569
0.153828
0.104904
0.128895
0.089513
0.074842
0.102535
0.121297
0.066011
0.012812
0.137793
0.062723
0.136592
0.074068
-0.022191
-0.034667
0.031965
0.049512
-0.028657
0.079167
0.037427
0.084670
0.034368
0.060224
0.026151
0.143395
0.024771
0.034042
0.044850
0.013176
0.076328
0.095678
0.077542
0.072295
0.051487
0.135815
0.132986
0.015231
0.046925
0.051110
0.033156
0.085505
0.053429
0.124346
0.036583
0.082226
0.089849
0.045767
-0.007333
0.051655
0.071113
0.147186
0.028971
0.106965
0.057952
0.010230
0.075727
0.025328
0.019639
-0.054861
0.103234
0.060355
0.041047
0.092367
0.026817
0.052902
0.041616
0.055441
0.023786
0.090668
0.128441
0.032490
0.088124
0.123738
0.075963
0.071744
0.055378
0.032986
0.187910
0.070373
0.068584
0.053460
0.029590
0.062936
0.011914
0.048129
0.096944
0.035309
0.141266
0.027163
0.014379
0.020203
0.054938
0.044199
0.068760
0.208489
0.167304
0.089412
0.096243
0.008897
0.137645
0.060727
0.104804
0.098498
0.067763
0.028568
0.116864
0.150233
0.094981
0.137702
0.152559
0.132999
0.173885
0.167297
