0.035819
-0.029770
0.016869
-0.022451
0.050157
0.111707
-0.015909
-0.007046
-0.003656
-0.067952
-0.022199
0.016152
-0.025441
0.042435
0.027252
-0.037629
0.014498
0.006256
-0.007193
-0.023800
-0.038699
-0.050434
-0.017897
0.131688
0.032593
0.043527
0.021401
-0.002786
0.038391
0.084930
0.096379
0.076005
0.055919
0.086033
0.077177
0.155621
0.151069
0.174933
0.153463
0.164918
0.114883
0.197453
0.301367
0.090985
0.089067
0.191546
0.200067
0.204675
0.233187
0.186386
0.162695
0.168661
0.199971
0.169310
0.083621
0.107026
0.068910
0.189978
0.157973
0.095385
0.130890
0.138979
0.129112
0.120098
0.025660
0.115463
0.077047
-0.009693
0.005533
-0.013726
0.114257
0.047366
0.114248
0.049655
0.028107
0.045595
0.038363
0.003639
-0.007926
0.059356
0.099583
0.045231
0.031087
-0.022081
0.126266
0.353431
0.582371
0.913036
1.212734
1.427912
1.500000
1.243067
0.921383
0.593068
0.304028
0.012732
-0.195735
-0.198668
-0.216418
-0.076794
-0.103460
0.032733
0.049928
-0.021390
0.135320
0.054752
0.061296
0.111051
0.175291
0.100068
0.118742
0.091628
0.174624
0.077298
0.105773
0.150566
0.147171
0.149698
0.192824
0.189855
0.284286
0.197967
0.254224
0.198529
0.231302
0.256572
0.208429
0.331710
0.366078
0.256104
0.389528
0.391907
0.365960
0.452334
0.447902
0.511125
0.543521
0.569538
0.534822
0.537594
0.565074
0.591006
0.510434
0.538851
0.615516
0.569915
0.545375
0.701583
0.609053
0.583415
0.535119
0.575453
0.526845
0.567978
0.462156
0.502971
0.529098
0.476870
0.394054
0.402026
0.382688
0.395877
0.433464
0.362042
0.343389
0.354107
0.364863
0.242135
0.284619
0.253290
0.171636
0.121840
0.236643
0.133385
0.185372
0.211052
0.110962
0.163253
0.175979
0.207783
0.116830
0.067483
0.095375
0.212458
0.130877
0.119788
0.042082
0.064144
0.105245
0.049667
0.127895
0.121060
0.064739
0.176008
0.079208
0.163574
0.027560
0.067403
0.143593
0.168402
0.104143
0.022539
0.032640
0.122458
0.082293
0.119362
0.085793
0.082411
0.141220
0.072021
0.064671
0.104539
0.124809
0.093094
0.063146
0.110503
0.068028
-0.013274
0.063791
0.159709
0.077824
0.015635
0.048396
0.094611
0.005243
0.102174
0.085892
0.053997
0.042697
0.060469
0.013959
0.104740
0.108755
0.048610
0.118313
0.026204
0.087667
0.044527
0.058348
0.036445
0.083550
0.054598
0.151364
0.066789
0.090937
0.128210
0.133216
0.083049
0.064866
0.124487
0.052000
0.072376
0.088676
0.137846
0.099824
0.191320
0.135222
0.242868
0.062082
0.212791
0.247786
0.131452
0.198203
0.234808
0.202070
0.285654
0.183159
0.334109
0.238708
0.317306
0.243527
0.232031
0.196098
0.206226
0.193343
0.205800
0.206933
0.189886
0.174963
0.163411
0.140925
0.153576
0.160917
0.079730
0.121183
0.075487
0.161926
0.082665
0.095944
0.075277
0.056881
0.043454
0.102142
0.062690
0.050915
0.089720
0.071156
0.033048
0.101324
0.108447
0.052778
0.105503
0.078288
0.030319
0.128405
0.070773
0.003120
0.113502
0.181700
0.400006
0.632269
0.953670
1.254116
1.365088
1.409713
1.200266
0.985295
0.675954
0.262556
-0.040576
-0.200009
-0.210121
-0.160347
-0.128671
-0.021148
0.030151
0.003617
0.003372
0.019007
0.074036
0.025045
0.088021
0.120625
0.082636
0.052321
0.039530
0.138543
0.076174
0.092633
0.128054
0.108105
0.091520
0.145499
0.132211
0.133972
0.172550
0.246727
0.201413
0.170056
0.247111
0.217755
0.302247
0.286956
0.292899
0.318662
0.423369
0.386002
0.326113
0.357609
0.462918
0.419850
0.439464
0.516021
0.465963
0.500361
0.435791
0.503661
0.524869
0.587159
0.510195
0.557035
0.453332
0.511827
0.519421
0.539473
0.530623
0.560382
0.511110
0.448331
0.401418
0.382680
0.404730
0.346913
0.340079
0.446932
0.287609
0.283966
0.277527
0.290681
0.242300
0.221598
0.247754
0.181985
0.214288
0.094667
0.135897
0.126587
0.127706
0.116430
0.127359
0.155238
0.043976
0.161405
-0.006837
0.135500
0.076985
0.003848
0.040264
-0.028275
-0.036253
-0.017437
0.021720
-0.023585
0.034352
-0.044519
-0.027158
-0.025336
-0.000015
0.006373
-0.024117
0.006911
-0.077259
0.045434
0.045913
-0.010617
0.061421
-0.011854
-0.027218
0.001557
-0.049479
0.022704
0.025044
-0.072299
-0.111125
-0.087062
-0.078734
-0.010391
-0.008458
0.005282
-0.025261
-0.002486
-0.032998
-0.035132
0.007049
-0.007364
0.008861
-0.040476
-0.029498
0.040792
-0.022717
-0.041814
-0.023334
-0.042716
-0.092283
0.024657
0.001693
-0.032265
-0.053077
0.006533
-0.082185
0.023375
0.058283
-0.033330
-0.028281
-0.003612
0.025161
0.060528
-0.016455
0.026675
-0.041869
-0.032841
-0.007004
0.010061
0.077251
0.051085
-0.041974
0.081321
0.021920
0.047535
-0.009575
0.007194
0.101137
0.040583
0.146468
0.098765
0.134903
0.127304
0.080076
0.081278
0.172778
0.126154
0.195133
0.203956
0.073971
0.112920
0.119175
0.162620
0.115631
0.150808
0.127223
0.112325
0.071018
0.038438
0.072376
0.061187
0.029257
0.015210
0.033108
-0.044160
-0.038783
0.062972
0.021459
0.017179
0.020516
-0.068829
-0.072804
-0.023673
-0.015771
-0.071263
-0.056188
-0.036896
-0.009982
-0.020044
-0.025184
0.052034
-0.022664
-0.057728
-0.063436
-0.068398
-0.134841
-0.130572
-0.097403
0.033830
0.314945
0.510744
0.956052
1.096844
1.355414
1.288240
1.180009
0.838814
0.584728
0.131191
-0.178731
-0.230809
-0.264273
-0.263587
-0.311896
-0.103738
-0.071177
-0.094433
0.013132
0.004858
-0.064688
-0.065260
-0.027521
0.002125
-0.043823
0.011794
0.023321
-0.006770
0.092723
-0.011587
0.013985
0.067766
0.106735
0.073768
0.170549
0.069885
0.060886
0.072294
0.098494
0.155327
0.206194
0.156054
0.252576
0.253696
0.270234
0.239815
0.365520
0.347590
0.321259
0.341212
0.364872
0.410237
0.432423
0.341806
0.421361
0.480193
0.458657
0.430709
0.467562
0.421374
0.498970
0.448490
0.497886
0.435397
0.457751
0.358305
0.390004
0.381725
0.417703
0.344255
0.413714
0.352322
0.463877
0.333948
0.237127
0.253687
0.212552
0.240936
0.257163
0.211069
0.260176
0.169177
0.182527
0.169646
0.113447
0.083825
0.053524
0.109959
0.049477
0.060648
0.030062
0.001831
0.019859
0.042350
-0.022251
-0.016462
0.009894
-0.023608
-0.020493
0.035903
-0.015041
-0.048179
-0.053126
-0.072594
-0.035536
-0.053167
-0.045138
-0.035052
-0.064493
-0.006952
-0.046448
-0.025412
-0.019470
-0.104378
0.002298
0.011181
-0.014750
0.070527
-0.100165
0.032760
0.008362
-0.019518
0.026862
-0.105031
-0.028627
0.018143
0.046863
0.063569
-0.044938
-0.032756
-0.029819
-0.083753
-0.061062
0.052075
-0.047856
-0.041790
-0.032332
-0.000247
0.053512
-0.028376
-0.063730
-0.025812
-0.016816
-0.016927
-0.013522
-0.105814
-0.029748
0.016906
-0.050290
-0.057060
-0.093096
0.010291
-0.036085
-0.041146
0.043920
0.016025
-0.006077
0.006020
0.011470
-0.038643
-0.046487
0.013540
0.010897
-0.022987
-0.007081
-0.009278
0.121511
0.025311
0.093905
0.092439
0.022197
0.104445
0.084487
0.086305
0.060200
0.176793
0.112247
0.103998
0.196088
0.164363
0.196789
0.044352
0.120840
0.248202
0.115057
0.202279
0.246794
0.159961
0.140159
0.138894
0.136095
0.139526
0.112401
0.081648
0.118072
0.046368
0.013537
0.136227
0.019421
0.091647
0.059299
0.116114
-0.008233
0.049449
0.101372
0.027722
-0.052847
0.043936
0.023534
-0.024181
-0.041539
0.091499
0.044266
-0.087414
0.007997
-0.052574
0.007179
0.004768
0.036316
0.014511
-0.033574
0.027603
-0.017557
0.196086
0.404997
0.659680
1.001097
1.244846
1.386633
1.434025
1.190070
0.812493
0.487736
0.171554
-0.075445
-0.209180
-0.313108
-0.217579
-0.138569
-0.097330
0.003155
0.017463
0.104295
-0.023939
0.045396
0.133630
0.124974
0.121127
0.124256
0.017013
0.077123
0.064147
0.097105
0.144748
0.084316
0.105382
0.205849
0.128389
0.073143
0.202969
0.156675
0.169739
0.213003
0.191327
0.179030
0.274959
0.260687
0.313807
0.309654
0.372565
0.390818
0.399961
0.468943
0.443214
0.431040
0.475908
0.464709
0.516195
0.463990
0.519135
0.523283
0.553493
0.540263
0.536941
0.571454
0.512332
0.515615
0.528134
0.571174
0.517429
0.562460
0.514748
0.475911
0.515548
0.450760
0.496409
0.448349
0.474104
0.449476
0.373661
0.339559
0.377776
0.330328
0.229264
0.279394
0.222345
0.225757
0.312059
0.153014
0.193594
0.204798
0.184826
0.242917
0.171065
0.136702
0.121276
0.094924
0.088101
0.113612
0.093844
0.186695
0.052688
0.148722
0.072749
0.057488
0.090756
0.078100
-0.017612
0.065883
0.173844
0.094635
0.055338
0.098730
0.056062
0.121495
0.130338
0.127439
0.107707
0.098318
0.157297
0.135208
0.109417
0.011882
0.024372
0.148263
0.119036
0.046840
0.109888
0.075109
0.133975
0.122728
0.121960
0.075249
0.044984
0.088659
0.115351
0.136291
0.121578
0.064638
0.167849
0.064712
0.066312
0.090404
0.028746
0.133329
0.129692
0.057683
0.094020
0.045635
0.075966
0.098346
0.142012
0.072013
0.133513
0.125974
0.014149
0.118463
0.103732
0.063985
0.184717
0.111097
0.157725
0.067819
0.101052
0.078892
0.081397
0.105883
0.095582
0.167109
0.089232
0.173986
0.097609
0.055654
0.158573
0.123859
0.188678
0.200852
0.224035
0.207624
0.269911
0.296850
0.227532
0.284007
0.176266
0.245293
0.244653
0.323392
0.361078
0.177435
0.144721
0.254551
0.241713
0.295213
0.179335
0.188185
0.207424
0.235383
0.182596
0.182274
0.159728
0.150111
0.143087
0.131233
0.125034
0.081789
0.110733
0.045750
0.060241
0.141727
0.070699
0.096829
0.051050
0.158187
0.121243
0.136608
0.100501
0.079602
0.059198
0.133218
0.133317
0.145885
0.051351
0.077507
0.078212
-0.000959
0.102379
0.058621
0.170029
0.440135
0.754644
1.066338
1.383919
1.431497
1.405468
1.214694
0.904631
0.591573
0.238120
-0.043689
-0.166877
-0.255336
-0.029393
0.025934
0.040860
0.039920
0.080045
0.173906
0.114837
0.085259
0.100070
0.171327
0.096401
0.104484
0.109898
0.208124
0.105863
0.176066
0.187866
0.119180
0.221777
0.206018
0.221201
0.172440
0.275705
0.214838
0.223606
0.152218
0.271119
0.232879
0.344703
0.317012
0.440613
0.353886
0.413902
0.368163
0.406935
0.361205
0.443368
0.442621
0.489602
0.482027
0.585264
0.524476
0.537423
0.556125
0.505916
0.597027
0.590408
0.614032
0.639326
0.529072
0.474682
0.542740
0.581616
0.593072
0.580498
0.478854
0.566912
0.484089
0.501688
0.475127
0.410678
0.461563
0.308136
0.367365
0.289812
0.346955
0.270290
0.235985
0.245215
0.292040
0.320845
0.153258
0.129700
0.126029
0.096973
0.126073
0.078580
0.154837
0.097573
0.100095
0.117796
0.064789
0.072428
0.033861
0.021903
0.106206
0.072188
0.079516
-0.085423
0.054351
-0.015831
0.010977
0.115425
0.012474
0.004888
0.047152
0.060589
-0.045145
0.063640
0.071701
0.022365
-0.020991
0.092724
0.073204
0.037413
-0.027613
0.056689
0.021273
0.092701
0.075697
0.012387
0.014199
-0.026779
0.024670
0.006208
0.047187
-0.002191
0.025350
0.055944
0.005633
0.086515
-0.015979
-0.035974
0.049093
-0.015712
-0.003271
0.018672
0.035472
-0.000762
0.052186
-0.069902
-0.041528
0.002648
0.005684
-0.034400
0.035223
-0.000385
-0.028900
0.070373
0.086275
0.040402
-0.032577
0.007518
0.089262
-0.007209
0.044772
-0.005323
0.034699
0.057245
0.002080
-0.002249
0.014259
0.051843
0.031459
-0.075941
0.043118
-0.007091
0.030530
0.066610
0.104891
0.133795
0.114805
0.142168
0.130463
0.214263
0.101000
0.183670
0.211755
0.215046
0.155143
0.211723
0.166468
0.070056
0.165387
0.133500
0.116714
0.186932
0.136044
0.132043
0.077595
0.134541
0.140594
0.057942
0.079699
0.043820
0.045916
0.058811
0.028584
0.077515
0.018172
0.015993
0.060638
0.058410
0.004323
-0.004297
-0.090355
-0.003490
-0.005042
-0.026815
-0.000489
0.053721
0.050662
-0.022912
-0.044296
-0.034650
-0.044455
-0.053713
-0.034977
-0.083381
0.019867
0.081227
0.307789
0.663350
1.024357
1.307824
1.367992
1.245722
0.959481
0.713492
0.251524
0.036269
-0.223358
-0.325414
-0.292227
-0.244996
-0.175226
-0.129896
-0.035800
-0.010650
-0.039192
-0.070919
-0.021145
0.026372
-0.058099
0.049894
-0.025830
-0.047323
-0.016121
-0.043761
-0.032133
0.080476
0.046699
0.031685
0.063263
0.061843
0.060617
0.073536
0.047806
0.094307
0.154527
0.117432
0.101771
0.171122
0.225020
0.230484
0.217862
0.320950
0.226935
0.248449
0.324791
0.222799
0.301280
0.378684
0.322869
0.373132
0.543444
0.395201
0.488120
0.388979
0.347507
0.451674
0.533662
0.461665
0.379836
0.418680
0.417698
0.361387
0.476473
0.409067
0.334621
0.277230
0.443704
0.297282
0.305833
0.247889
0.283067
0.222684
0.303970
0.236997
0.169824
0.152847
0.116636
0.018782
0.043755
0.086734
-0.056263
0.097273
0.028046
0.059745
-0.014525
0.023154
0.033949
-0.025542
-0.062229
-0.043267
-0.017082
-0.052575
-0.095060
-0.034992
-0.056364
-0.183899
-0.019015
-0.002619
0.005432
-0.112159
-0.012212
-0.013672
-0.053451
-0.115318
-0.145395
-0.062377
-0.073990
-0.146142
-0.163250
-0.088925
-0.134350
-0.068204
-0.120198
-0.011886
-0.104639
-0.049239
-0.054872
-0.115694
-0.000502
-0.137581
-0.092295
-0.121903
-0.033503
-0.044719
-0.030415
-0.048856
-0.111455
-0.090154
-0.033256
-0.127640
-0.009801
-0.039950
-0.091902
-0.105333
-0.142163
-0.093506
-0.118420
-0.098405
-0.052109
-0.195936
-0.105015
-0.064293
-0.088311
-0.119321
-0.004347
-0.103405
-0.066604
-0.019137
-0.027414
-0.114433
-0.087285
-0.062875
-0.103238
-0.062341
-0.080839
-0.063256
-0.124048
-0.121057
-0.031521
-0.101217
-0.079045
-0.078984
0.054755
-0.001003
-0.109948
0.002297
0.000107
0.026130
0.050867
-0.015289
0.107707
-0.034541
-0.006509
0.075246
0.134136
0.101018
0.062723
0.128356
0.107556
0.180684
0.052522
0.094739
0.046667
0.123725
0.136283
0.097489
0.079806
0.015584
0.060722
0.062067
-0.010868
0.048183
-0.031913
-0.028282
0.011236
-0.015374
-0.024311
-0.021772
0.007135
-0.066041
-0.049805
-0.035077
-0.130167
-0.079025
-0.134830
-0.064403
-0.110159
-0.046123
-0.123827
0.002052
-0.063484
-0.044112
0.044008
-0.075395
-0.118259
-0.074219
-0.052500
-0.045714
-0.060678
0.190115
0.420244
0.712211
0.959449
1.256328
1.342649
1.223691
0.980724
0.595191
0.221929
-0.008818
-0.207774
-0.340745
-0.344878
-0.277768
-0.136077
-0.122331
-0.060350
0.016887
-0.060031
-0.003252
-0.005914
-0.015104
-0.027697
-0.055875
-0.099172
0.002203
0.025257
-0.034704
0.088848
0.035970
0.044911
0.039470
0.107646
0.137360
-0.014593
0.040201
0.045498
0.101813
0.191996
0.168092
0.138616
0.134037
0.116779
0.239424
0.294100
0.289444
0.225661
0.297712
0.325363
0.381646
0.458624
0.319469
0.369752
0.443140
0.380817
0.451420
0.558869
0.467622
0.505353
0.499452
0.490113
0.548273
0.390065
0.433481
0.396426
0.382964
0.450402
0.465549
0.343856
0.429644
0.301099
0.320041
0.382098
0.266693
0.305627
0.267416
0.232283
0.254600
0.207531
0.250086
0.221385
0.133472
0.215047
0.105471
0.169845
0.143960
0.112113
0.031429
0.158963
0.027789
0.039740
0.151081
0.008637
-0.056957
0.126535
0.027197
0.004827
0.015672
-0.001778
-0.036392
-0.027693
0.052063
0.010962
0.003239
0.015066
-0.056987
-0.117267
-0.061390
0.024825
-0.016842
-0.014132
0.049684
0.047040
0.025116
-0.013284
0.056034
-0.000675
-0.063193
-0.010286
-0.028952
0.019817
0.038664
-0.030579
-0.021235
-0.093438
0.053888
0.049355
-0.089870
0.099415
0.000440
0.047043
0.041825
0.042780
0.019519
0.005749
-0.003306
0.032949
-0.050196
0.079869
0.029491
0.028445
0.014177
-0.051388
0.059309
0.000670
0.118272
-0.017917
0.003088
0.009953
-0.021341
0.017420
0.025559
-0.028057
0.018471
-0.001902
0.065449
0.082197
0.048778
0.049425
0.013518
0.033974
-0.036754
0.108208
0.014733
0.043070
0.072616
0.117455
0.085754
0.041202
0.132288
0.118360
0.040942
0.126519
0.127097
0.063115
0.133740
0.147015
0.069260
0.190393
0.231255
0.265743
0.163717
0.180809
0.203360
0.261683
0.154519
0.145232
0.243755
0.218228
0.169954
0.209610
0.164160
0.078944
0.162523
0.152899
0.095384
0.157613
0.095320
0.097928
0.125755
0.075460
0.087504
0.025656
0.043367
0.113570
0.069766
0.126260
0.037067
-0.042142
0.087403
-0.031118
0.038082
0.044295
0.056370
0.154244
0.042321
0.005227
0.063308
-0.039930
0.051150
0.021402
-0.008953
0.095083
0.244105
0.462711
0.800448
1.134024
1.321451
1.455776
1.302903
0.959882
0.637671
0.278287
0.116854
-0.110572
-0.233117
-0.303212
-0.175083
-0.109151
-0.003354
0.105308
0.085417
-0.026006
-0.002435
0.050990
0.055258
0.036161
0.059188
0.094709
0.080391
0.057679
0.016624
0.151618
0.033104
0.146101
0.082286
0.127551
0.116952
0.180479
0.282281
0.137551
0.207241
0.231454
0.196857
0.322877
0.320173
0.320901
0.298919
0.350599
0.321836
0.419811
0.345741
0.451167
0.392811
0.473109
0.438421
0.539785
0.478737
0.570157
0.486904
0.540081
0.525403
0.559232
0.481671
0.585890
0.522865
0.580379
0.597330
0.526890
0.516327
0.504415
0.383504
0.452805
0.448317
0.424604
0.346942
0.441958
0.445698
0.344497
0.312102
0.369047
0.261409
0.309859
0.287311
0.314525
0.236522
0.259130
0.171752
0.114327
0.142910
0.195422
0.139625
0.068681
0.168120
0.124748
0.045129
0.159857
0.053096
0.120873
0.046255
0.168006
0.029751
0.104125
0.008531
0.040257
0.161164
0.037884
0.040292
0.083823
0.025121
0.061591
-0.008422
0.055709
0.041762
0.031165
-0.041221
0.012041
0.070676
0.027140
0.065374
-0.000654
0.102372
0.024593
0.007292
0.047993
0.033254
-0.011760
0.036972
0.065297
0.008449
0.019078
0.045421
0.013666
0.055196
0.032612
-0.021216
0.010184
0.084037
0.235779
0.093657
0.031028
0.068047
-0.006357
0.001589
0.039793
0.058074
0.024696
-0.038401
-0.001864
0.014718
0.026528
0.027547
0.062049
0.027791
0.020532
0.009000
-0.000613
0.044744
0.019545
0.001658
0.033685
-0.000442
0.032801
0.116779
0.032497
-0.002995
0.071037
0.048225
0.067874
0.043467
0.058855
0.058325
0.089758
0.051572
0.073738
0.052738
0.151614
0.047522
0.090036
0.083781
0.159215
0.170863
0.138159
0.197099
0.122892
0.173730
0.175226
0.167812
0.113956
0.169365
0.245146
0.214481
0.172718
0.162549
0.092025
0.082244
0.137949
0.007574
0.059932
0.168384
0.041896
0.108937
0.049483
-0.007910
-0.043754
0.049567
0.046112
0.044463
0.040151
0.046797
0.006053
0.005401
0.013313
0.036071
-0.048924
-0.059581
0.015816
-0.001681
0.036559
0.063610
0.024792
0.038670
0.044944
-0.087623
-0.091892
-0.075488
0.045742
0.233643
0.495887
0.751874
1.127540
1.329652
1.384138
1.229823
0.891109
0.519415
0.233433
-0.025919
-0.188374
-0.311224
-0.296017
-0.195192
-0.095105
-0.133544
-0.029002
-0.020832
0.040720
0.031005
0.008346
-0.075073
-0.114420
-0.015740
0.024876
-0.040587
0.059724
-0.058318
-0.018981
0.034967
0.027399
0.038311
0.101819
0.091091
0.091153
0.105398
0.133031
0.146040
0.163831
0.199707
0.253289
0.175023
0.154972
0.214218
0.252879
0.317108
0.297182
0.301426
0.370783
0.318160
0.349453
0.384743
0.385401
0.434040
0.443338
0.496228
0.512632
0.457931
0.469021
0.380818
0.501875
0.562786
0.453681
0.464552
0.478276
0.397501
0.401754
0.423738
0.375929
0.363909
0.331832
0.316620
0.214023
0.281876
0.339138
0.188342
0.179095
0.179199
0.144956
0.154500
0.203567
0.112875
0.101358
0.139075
0.086582
0.112673
0.052994
0.014298
-0.023927
-0.029337
-0.010210
-0.046198
-0.038307
-0.057292
-0.057703
-0.076028
-0.087598
-0.028181
-0.080624
-0.036400
-0.052551
-0.086988
-0.086370
-0.061103
-0.086909
-0.143512
-0.083306
0.005245
-0.171533
-0.124305
-0.022999
-0.087352
-0.074396
-0.086494
-0.062396
-0.155272
-0.049866
-0.080012
-0.139035
-0.124743
-0.055188
-0.051646
-0.047792
-0.034558
-0.050704
-0.007848
-0.053867
-0.124392
-0.147988
-0.141490
-0.138904
-0.119816
-0.160473
-0.120370
-0.101774
-0.124579
-0.138593
-0.048262
-0.020406
-0.105442
-0.164773
-0.105751
-0.060071
-0.090803
-0.079165
-0.116329
-0.103758
-0.088547
-0.179830
-0.095019
-0.113387
-0.173514
0.013324
-0.108398
-0.092292
-0.070546
-0.113869
-0.054763
-0.085063
-0.102207
-0.147125
-0.128540
-0.040956
-0.082077
-0.040230
-0.007186
-0.045457
-0.017524
0.015662
-0.039329
-0.007292
0.016752
-0.011916
-0.057396
0.051130
0.016760
0.036985
0.161411
0.140275
0.077332
0.039529
0.090054
0.037106
0.098207
0.087075
0.086489
0.075349
0.110329
0.046326
0.008999
0.030322
0.031346
0.061447
0.075012
0.052098
0.032114
-0.074098
0.015431
-0.030464
-0.014800
-0.077312
-0.035723
-0.037765
-0.105546
-0.177466
-0.127522
-0.037218
-0.165809
-0.115106
-0.097737
-0.113799
-0.064327
-0.108743
-0.001957
-0.066927
-0.026961
-0.051127
-0.068465
-0.133934
-0.120815
-0.159943
-0.145222
-0.018331
0.083965
0.498475
0.822740
1.041904
1.302043
1.343050
1.069486
0.791224
0.420368
0.148649
-0.128647
-0.269691
-0.365035
-0.357539
-0.293692
-0.185710
-0.175763
-0.117378
-0.089151
-0.021635
-0.049375
-0.060045
-0.125432
-0.044173
-0.117205
-0.139061
-0.128509
-0.017814
-0.051809
-0.061482
-0.074686
-0.031920
-0.061484
0.061212
-0.021410
0.112965
0.001857
-0.019114
0.097873
0.118681
0.044315
0.135912
0.174285
0.171845
0.141508
0.236992
0.212538
0.280616
0.218744
0.266236
0.404412
0.410939
0.351253
0.369861
0.395306
0.412653
0.377285
0.442680
0.525311
0.432330
0.410111
0.543478
0.418608
0.399386
0.398923
0.406384
0.360715
0.354049
0.318424
0.426214
0.319234
0.361390
0.278885
0.301648
0.268097
0.245368
0.225875
0.199639
0.231590
0.228684
0.103414
0.169714
0.072247
0.089416
0.037822
0.090078
-0.012561
0.077294
-0.036589
0.076203
0.069977
-0.058332
-0.052829
-0.015505
-0.066423
-0.036309
0.002909
-0.112298
-0.012419
-0.028732
-0.110450
-0.083420
-0.075043
-0.090744
-0.054146
-0.004529
-0.001780
-0.046122
-0.140289
0.019794
-0.050123
-0.056763
-0.095719
-0.047935
-0.062538
-0.091699
-0.082550
-0.031947
-0.036375
-0.095199
-0.016845
0.044431
0.009427
-0.118817
-0.096498
-0.023764
-0.093438
-0.106693
-0.064697
-0.079439
-0.046648
-0.058210
-0.028286
-0.128938
-0.005683
-0.023521
-0.010676
-0.063962
0.030124
-0.037653
-0.093648
0.004617
-0.169849
0.004429
0.022647
-0.055102
-0.089948
0.069975
-0.099325
0.015734
0.010317
-0.065522
0.011804
-0.025544
-0.021488
-0.068444
0.054510
-0.046218
-0.097178
0.038022
-0.101191
0.011333
-0.039497
-0.010781
0.036662
0.039383
0.008366
0.047147
-0.008764
0.107400
0.009088
0.003474
-0.014756
0.091843
0.056772
0.044613
0.121341
0.111149
0.143001
0.125075
0.130338
0.155574
0.248424
0.131352
0.189257
0.114283
0.204162
0.121470
0.141829
0.150694
0.186502
0.098917
0.117845
0.103100
0.122323
0.074426
0.118825
0.052542
0.093387
0.077737
0.065113
-0.000212
-0.015021
0.012525
-0.034316
0.010406
0.046978
0.012470
0.054424
-0.037538
-0.000633
0.022622
0.062814
-0.059109
0.055154
-0.033499
0.041334
-0.020830
-0.016566
0.039163
-0.035598
-0.080218
0.090542
0.099190
0.263915
0.593390
0.937563
1.251561
1.446768
1.469662
1.158514
0.897107
0.473545
0.193874
-0.087640
-0.242926
-0.243321
-0.247721
-0.075945
-0.090265
0.010206
0.022524
0.089594
0.066025
0.072878
0.138878
0.141717
0.079488
0.047583
0.027607
0.026880
0.032948
0.047832
0.104984
0.138892
0.187621
0.109241
0.118349
0.154310
0.213333
0.199541
0.188270
0.283955
0.189333
0.230657
0.254306
0.295155
0.271173
0.401750
0.367360
0.372627
0.373288
0.439461
0.400772
0.446920
0.436744
0.527056
0.581898
0.559170
0.485941
0.573655
0.556769
0.533838
0.564970
0.515611
0.563401
0.517106
0.569226
0.541696
0.576868
0.508454
0.531961
0.519286
0.477199
0.488100
0.444963
0.486016
0.431846
0.393360
0.430066
0.312373
0.299810
0.351169
0.319695
0.243347
0.225377
0.321859
0.176221
0.201931
0.170565
0.208916
0.132337
0.180799
0.097373
0.140609
0.129871
0.067796
0.121489
0.062120
0.092026
0.111367
0.109629
0.141947
0.053223
0.067667
0.071966
0.037610
0.113199
0.058943
-0.007570
0.076347
0.033307
0.079328
0.064153
0.017935
0.106544
0.039767
0.087123
0.022416
0.027318
0.086408
0.168231
0.111541
0.070873
0.049395
0.031577
0.090423
0.146855
0.094359
0.094661
0.128393
0.037558
0.047078
0.135492
-0.033544
0.036990
0.068620
0.007305
0.066230
0.081530
0.037002
0.061788
0.066601
-0.000299
0.105213
0.015432
0.125250
0.077929
0.094122
0.100011
0.106376
0.037238
0.198176
0.014628
0.075774
0.089910
0.219480
0.106773
0.112164
0.050680
0.164081
0.049484
0.045519
0.050843
0.141108
0.049469
0.026570
0.137878
0.112120
0.158598
0.082981
0.044350
0.128738
0.155648
0.108105
0.124745
0.133282
0.167789
0.160761
0.224736
