0.000125
0.080919
0.049572
-0.029728
0.023981
-0.030591
0.045433
0.020514
0.117425
0.015695
-0.007700
-0.029434
-0.002698
0.035326
0.002771
-0.025588
0.051445
-0.022487
0.077849
0.078074
0.007200
-0.006917
0.024116
-0.014131
0.077678
0.008972
0.018802
0.103531
0.047968
0.083334
0.111498
0.077804
0.113065
0.079737
0.126418
0.048027
0.115309
0.119865
0.091263
0.147003
0.173726
0.161056
0.131014
0.196462
0.197792
0.152397
0.238510
0.192577
0.190434
0.197955
0.159231
0.234933
0.163771
0.204725
0.203673
0.214857
0.113079
0.145720
0.186070
0.119169
0.190448
0.098239
0.117120
0.083648
0.110254
0.030289
0.083671
-0.021475
0.097498
0.021544
0.079269
0.022673
0.032664
-0.052822
0.040197
0.004526
0.031557
0.056545
0.011548
0.069144
0.090410
0.069415
0.012352
-0.024624
0.035643
0.049441
-0.032687
0.191183
0.320617
0.688807
0.988811
1.274558
1.368347
1.500000
1.279463
0.880772
0.575478
0.303396
-0.027878
-0.145459
-0.192466
-0.123127
-0.153467
-0.019109
0.038724
0.074274
0.040205
0.078696
0.057035
0.046124
-0.003964
0.164743
0.025676
0.095463
0.156818
0.022854
0.105278
0.152934
0.200176
0.063592
0.108979
0.124835
0.146379
0.128023
0.167398
0.178934
0.182054
0.238024
0.205843
0.278866
0.241413
0.246661
0.351765
0.390079
0.385791
0.249848
0.331634
0.457970
0.514620
0.499462
0.437795
0.412861
0.528602
0.543135
0.470890
0.509593
0.482641
0.507839
0.608117
0.643892
0.559398
0.454605
0.561314
0.565117
0.603971
0.614277
0.556238
0.580530
0.526601
0.453776
0.469106
0.455110
0.383818
0.412931
0.440267
0.364612
0.351154
0.374953
0.319124
0.326373
0.186053
0.265518
0.244267
0.331238
0.188080
0.134609
0.148451
0.211117
0.167427
0.143132
0.192027
0.155735
0.168113
0.123029
0.126044
0.124371
0.107733
0.060112
0.084451
0.070065
0.080155
0.121401
0.123045
0.016891
0.024232
0.125855
0.129054
-0.014145
0.117812
0.164136
0.090501
0.073526
0.123744
0.197504
0.056958
0.043284
0.128376
0.107854
0.003623
0.019989
0.088618
0.115356
0.124163
0.018084
0.087659
0.097466
0.125597
0.058663
0.104813
0.118626
0.084983
0.102461
0.098889
0.089011
0.088638
0.086891
0.082859
0.068416
0.063057
0.061147
0.102545
0.117367
0.071765
0.058634
0.067844
0.064592
0.103890
0.086554
0.041824
0.045871
0.062870
0.101486
0.095434
0.108902
0.096651
0.099925
0.122856
0.110780
0.056728
0.129783
0.095242
0.048985
0.148559
0.133713
0.111151
0.068930
0.060425
0.139806
0.024055
0.041556
0.198564
0.132918
0.141144
0.058616
0.201558
0.183986
0.142341
0.191675
0.171901
0.145495
0.216081
0.223757
0.248793
0.259987
0.203328
0.250520
0.247191
0.230061
0.230038
0.223996
0.217738
0.330949
0.193635
0.211058
0.188317
0.181592
0.119100
0.158977
0.224349
0.153694
0.142101
0.099794
0.173765
0.166303
0.151296
0.104385
0.186452
0.061496
0.048574
0.116963
0.053868
0.085259
0.101038
0.069759
0.004997
0.120571
0.106283
-0.026241
-0.025872
0.047257
-0.007472
-0.002031
0.072707
0.025032
0.022452
0.042102
-0.012654
0.036780
0.305445
0.491180
0.686117
1.038304
1.366388
1.421756
1.350669
1.253499
0.757133
0.612452
0.185447
-0.110241
-0.205038
-0.211072
-0.181369
-0.078659
-0.102997
-0.072369
0.001783
0.099566
0.014687
0.061937
-0.050753
0.012167
0.131901
0.029233
0.093522
0.125411
0.138360
0.064531
0.059899
0.048738
0.039852
0.227208
0.111672
0.109997
0.104682
0.129978
0.150751
0.188536
0.209887
0.170158
0.218406
0.231494
0.256722
0.313872
0.241823
0.285053
0.363954
0.376569
0.319446
0.424877
0.483901
0.415146
0.389502
0.502121
0.459907
0.464119
0.523232
0.484885
0.495539
0.527761
0.444121
0.530344
0.490161
0.541985
0.522151
0.422355
0.473977
0.502276
0.514295
0.480399
0.392035
0.448478
0.383263
0.387542
0.332479
0.345105
0.293273
0.336011
0.409435
0.172078
0.201341
0.189372
0.150625
0.087138
0.156683
0.129852
0.085124
0.083537
0.159113
0.117169
-0.017689
0.041553
-0.068460
0.104595
0.046219
0.019715
0.035102
0.053191
0.061313
0.049150
0.009367
0.033606
-0.053192
0.030809
-0.040796
0.099104
0.037185
0.014630
0.004533
-0.001580
-0.061509
-0.008057
0.030661
-0.009948
0.061912
-0.070490
-0.000018
0.020823
-0.023715
-0.021918
0.026440
-0.044134
0.019256
0.047774
-0.072434
0.037542
-0.003791
0.036356
-0.103723
-0.009943
0.045331
-0.077347
-0.005995
-0.015293
-0.008076
-0.004478
0.033747
-0.037517
0.006110
-0.015784
0.005062
0.042445
-0.000691
-0.039825
-0.024432
-0.044433
0.012980
-0.044298
-0.003609
0.055199
-0.019779
0.059342
-0.092826
0.020645
-0.123355
0.003922
-0.065999
0.004673
0.000529
-0.015624
0.023788
-0.008173
0.006980
-0.056955
0.048435
-0.099865
-0.025833
-0.009313
0.003357
0.073381
0.012872
0.057799
0.031251
0.090335
0.013881
0.043268
0.016593
0.069889
0.102809
0.108416
0.161129
0.144617
0.181535
0.056759
0.081994
0.115850
0.079629
0.207691
0.193970
0.149481
0.131162
0.183816
0.184467
0.134498
0.154537
0.058738
0.079477
0.049032
0.012104
0.074326
0.050319
0.059253
0.005346
0.058297
-0.058323
-0.006409
-0.026725
0.003466
-0.005675
-0.081383
0.019027
0.020327
-0.006892
-0.039696
-0.009396
0.067778
-0.055580
-0.030157
-0.011633
-0.099250
-0.118967
0.000733
-0.007198
-0.078596
-0.118993
-0.000584
-0.103454
-0.119292
0.028409
0.128401
0.408502
0.707594
1.022505
1.182225
1.325427
1.293818
1.005075
0.653740
0.314220
0.019980
-0.207424
-0.317854
-0.341108
-0.245730
-0.217173
-0.204432
-0.002653
-0.164064
0.015812
0.009626
-0.069563
-0.072009
-0.080242
-0.021623
-0.059653
-0.032021
-0.042759
-0.038839
-0.012718
0.029203
0.094886
-0.042391
0.086246
-0.014865
0.104804
0.108090
0.014805
0.120396
0.131744
0.072317
0.180721
0.133619
0.137059
0.150750
0.181705
0.286527
0.221966
0.215392
0.239707
0.281563
0.388457
0.345084
0.397278
0.399214
0.449046
0.431599
0.357851
0.508845
0.455353
0.440785
0.451936
0.424108
0.415159
0.516034
0.446940
0.373811
0.449375
0.405741
0.441730
0.462214
0.389176
0.313519
0.351558
0.303810
0.341781
0.335622
0.300283
0.340626
0.264861
0.188994
0.129460
0.173263
0.214607
0.085223
0.120377
0.115549
0.102041
0.108313
0.127089
0.093757
-0.018787
-0.027723
0.164064
0.126661
0.009243
-0.017248
-0.039699
-0.019535
-0.004038
0.009875
-0.018539
0.022256
0.035150
-0.079420
-0.026715
-0.044049
0.010580
-0.009435
-0.077259
-0.057148
-0.036394
-0.067569
0.008113
0.002585
-0.016688
-0.035158
-0.023063
-0.045073
-0.122728
-0.040178
-0.083799
-0.022623
0.022073
-0.068378
0.025155
-0.010248
0.044064
-0.042951
0.005920
0.034732
-0.013518
-0.000260
-0.030985
0.020412
-0.048979
0.055883
-0.053318
-0.037104
0.043763
0.077702
-0.042203
-0.013948
0.002014
-0.027455
-0.035208
-0.038381
0.077730
-0.038388
0.012012
-0.064462
-0.077768
0.041431
-0.010601
0.012578
-0.050196
-0.023479
0.030789
0.002578
-0.063291
-0.125240
-0.006055
0.029958
0.023946
-0.050425
0.052465
0.017610
0.043401
0.001087
-0.036477
0.055432
0.022181
0.062187
0.046652
0.066783
0.086674
0.137729
0.084116
0.177235
0.137986
0.061378
0.103729
0.098328
0.119757
0.131203
0.165802
0.239204
0.144484
0.179028
0.119647
0.188629
0.139306
0.188073
0.143867
0.128640
0.150487
0.156038
0.210969
0.168842
0.116365
0.075104
0.115878
0.044448
0.162233
0.047535
0.035235
0.027162
0.076900
0.080467
0.143718
0.057802
0.051311
-0.015296
0.059813
0.031094
0.038680
-0.004637
-0.079004
-0.015899
0.040010
0.033896
-0.018977
-0.056430
-0.049721
-0.002362
-0.020214
0.042578
-0.005875
-0.057317
-0.082215
0.059015
0.209021
0.549050
0.849874
1.194248
1.387986
1.320008
1.289099
0.981604
0.638661
0.295446
0.013711
-0.139339
-0.199362
-0.248533
-0.073947
-0.028044
-0.038680
-0.012779
0.081015
-0.009015
0.112367
0.048153
0.044424
0.089368
0.043300
0.079560
0.127359
0.089743
0.141104
0.121236
0.080216
0.029418
0.217131
0.147868
0.071771
0.181005
0.146190
0.253777
0.143478
0.178001
0.202934
0.204016
0.217469
0.315173
0.293200
0.304396
0.304997
0.389210
0.390463
0.440391
0.452971
0.398868
0.415144
0.502330
0.449104
0.507957
0.496877
0.527169
0.571480
0.535871
0.546088
0.591044
0.482164
0.572253
0.485468
0.563531
0.507551
0.541168
0.599878
0.534524
0.482621
0.502261
0.499161
0.465871
0.466437
0.392244
0.348935
0.380185
0.355872
0.359707
0.264482
0.320348
0.316388
0.339519
0.306701
0.262233
0.243868
0.157730
0.147104
0.203758
0.240500
0.170908
0.084795
0.150077
0.064108
0.157742
0.105545
0.020056
0.083157
0.063051
0.097001
0.096727
0.115428
0.090552
0.021136
0.069808
0.111171
0.187872
0.105113
0.063209
0.129631
0.143834
0.071489
0.070766
0.153823
0.054649
0.069382
0.024059
-0.022434
0.006067
0.100337
0.123923
0.072791
0.036481
0.059560
0.137044
0.061902
0.079608
0.097520
0.145566
0.160458
0.110807
0.076231
0.078376
0.125172
0.044338
0.080659
0.099713
0.138475
0.120870
0.056586
0.106148
0.126474
0.127429
0.090623
0.053846
0.106796
0.092685
0.039337
0.047622
0.041817
0.058930
0.105683
0.123414
0.153740
0.091233
0.070439
0.090056
0.165069
0.095967
0.091301
0.079389
0.123521
0.045425
0.075766
0.055167
0.149501
0.074170
0.093055
0.077382
0.133204
0.090449
0.066733
0.105962
0.194544
0.211839
0.136454
0.134471
0.229786
0.164817
0.191687
0.192855
0.212918
0.224592
0.230913
0.256595
0.270570
0.349098
0.286875
0.192220
0.264342
0.242758
0.203544
0.274389
0.274225
0.238220
0.196569
0.238925
0.235730
0.188821
0.217313
0.283089
0.200104
0.171909
0.157576
0.152380
0.175162
0.109614
0.114556
0.091592
0.045236
0.057416
0.149230
0.083427
0.063133
0.044958
0.062665
0.089673
0.145587
0.065725
0.114591
0.040438
0.095329
0.151394
0.071662
0.048767
0.117536
0.058261
0.100297
0.101123
0.104002
0.333712
0.697457
0.956163
1.287342
1.416569
1.434370
1.283682
0.942355
0.601824
0.222572
-0.006013
-0.125614
-0.215815
-0.175312
-0.089422
-0.024751
-0.016980
0.093748
0.032865
0.068622
0.068417
0.047898
0.041473
0.170299
0.192547
0.107279
0.087886
0.084099
0.114927
0.058148
0.152141
0.110788
0.215397
0.112484
0.124130
0.099578
0.170468
0.167909
0.156087
0.167404
0.242670
0.215247
0.258382
0.340453
0.232243
0.335018
0.350381
0.403464
0.336375
0.397649
0.390146
0.454005
0.497258
0.474956
0.499255
0.482372
0.550851
0.528980
0.583631
0.637050
0.444759
0.632983
0.467369
0.567813
0.545162
0.530040
0.562044
0.534568
0.558211
0.497803
0.507686
0.439847
0.473182
0.445868
0.376941
0.376421
0.421032
0.398179
0.347036
0.268812
0.243398
0.285507
0.193688
0.211549
0.246796
0.156283
0.059791
0.217950
0.193141
0.187664
0.129829
0.176569
0.109315
0.068597
0.160601
0.067909
0.077432
0.123807
0.100314
-0.014887
0.076305
0.061431
0.009426
0.045044
0.064295
-0.077769
-0.001580
-0.011131
0.029330
0.087268
0.038221
0.006805
-0.043724
0.050385
0.019563
-0.077841
-0.013209
0.016843
-0.027054
0.000689
0.008070
-0.034581
-0.037179
-0.053238
0.050181
0.013504
-0.017554
0.012656
0.076066
0.009126
-0.031794
0.006144
-0.025372
0.034088
-0.045801
0.059402
-0.040846
-0.024007
-0.040046
-0.008497
0.039025
0.031794
0.046068
0.000846
0.052396
-0.080246
-0.031924
0.020893
0.025253
-0.028620
0.033635
-0.058744
0.004885
0.005659
-0.024969
-0.074424
-0.005263
-0.070313
0.001617
0.038655
-0.007048
0.040398
-0.047037
-0.050089
-0.053206
-0.019606
0.034411
0.013217
0.012703
0.063862
-0.033137
0.100053
-0.065366
-0.060112
0.003428
0.062552
0.048734
0.062614
0.075838
0.086513
0.128068
0.010946
0.039569
0.087453
0.125716
0.065573
0.228873
0.093491
0.148516
0.126423
0.146879
0.143162
0.138790
0.145101
0.167360
0.110971
0.177320
0.079703
0.132766
0.040128
-0.004351
0.121952
0.154681
-0.042435
0.061045
-0.025104
-0.013896
-0.041514
-0.026803
-0.026760
0.107257
-0.030416
-0.029709
-0.032664
-0.012991
-0.008818
0.003989
-0.013744
-0.056437
-0.077082
-0.096433
0.014523
0.013310
-0.044552
-0.088656
-0.080318
-0.110390
-0.064118
-0.165468
-0.024087
0.031148
0.309150
0.580562
0.916758
1.137367
1.327882
1.352808
0.971768
0.795117
0.265955
0.062921
-0.281164
-0.245537
-0.341487
-0.338534
-0.188595
-0.229995
-0.077023
-0.036982
-0.066385
-0.046789
-0.078500
-0.047230
-0.081204
-0.064907
-0.071202
-0.023434
-0.015326
-0.014022
0.026781
-0.068125
-0.006453
-0.021139
0.055808
-0.023727
0.028678
0.064105
0.042456
0.087328
0.115366
0.045545
0.118726
0.090604
0.128996
0.145094
0.119510
0.211335
0.198951
0.218656
0.203084
0.342003
0.273166
0.280497
0.310272
0.396316
0.330639
0.364339
0.442590
0.436233
0.370898
0.449199
0.415234
0.452655
0.458408
0.450815
0.413381
0.364812
0.422682
0.406880
0.351379
0.310260
0.334310
0.355584
0.300264
0.307993
0.351862
0.232056
0.222952
0.236803
0.204312
0.178050
0.174496
0.144626
0.107337
0.143811
0.015990
0.069108
0.122236
-0.049554
0.055426
0.012162
-0.054768
-0.013334
-0.031604
-0.082537
-0.015888
-0.019531
-0.044824
-0.069156
-0.090574
-0.049673
-0.122349
-0.068774
-0.100528
-0.082268
-0.098752
-0.054077
-0.077763
-0.086109
-0.055221
-0.106338
-0.095555
-0.071718
-0.080113
-0.009751
-0.083241
-0.061128
-0.048365
-0.137320
-0.041439
-0.043180
-0.110986
-0.062247
0.057221
-0.027463
0.011244
-0.008491
-0.008291
-0.025944
-0.022093
-0.143438
-0.067917
-0.054329
-0.115017
-0.069640
-0.075559
-0.100307
-0.050277
-0.059927
0.028161
-0.078793
-0.143105
-0.035972
-0.036440
-0.057547
-0.099671
-0.106865
-0.070843
-0.074040
-0.083532
-0.071695
-0.040849
-0.080919
-0.033323
-0.118105
-0.179132
0.017740
-0.030505
-0.019695
-0.093572
0.033244
-0.084772
-0.047158
-0.046106
-0.084962
0.002076
0.046461
-0.063356
-0.066795
-0.039869
-0.023167
-0.073140
-0.082645
0.001291
0.024945
0.031527
-0.017670
-0.022883
-0.060203
0.076674
-0.019671
0.055557
0.037610
0.096966
0.098018
0.102770
0.147081
0.076869
0.115837
0.161466
0.098676
0.138183
0.128943
0.179932
0.092582
0.159275
0.104982
0.114174
0.040603
0.009312
0.056003
0.016382
-0.025937
0.048045
0.044328
0.036697
0.014198
-0.011056
-0.038914
0.042153
0.074655
-0.020338
-0.029397
-0.081982
-0.055726
0.006646
-0.066680
-0.053828
0.028633
-0.114645
-0.071135
-0.033462
-0.107600
-0.061933
-0.098308
-0.060152
-0.058335
0.018612
-0.063531
-0.119628
-0.030849
0.168095
0.369178
0.647137
0.948273
1.326782
1.384473
1.260692
0.989516
0.757759
0.293629
0.028413
-0.202414
-0.324367
-0.365431
-0.220621
-0.115906
-0.161247
-0.047676
-0.111050
-0.019374
0.002627
-0.036918
-0.018311
-0.014786
0.023083
-0.086119
-0.002618
-0.022371
0.027173
0.078204
-0.002419
0.031503
0.057547
0.028294
0.064953
0.046706
0.105383
0.115874
0.120868
0.113760
0.235681
0.080097
0.173572
0.168447
0.232562
0.326306
0.255112
0.266693
0.333020
0.279042
0.343868
0.331778
0.371341
0.375194
0.464113
0.366557
0.375142
0.473013
0.518779
0.513513
0.422732
0.497059
0.489164
0.457853
0.506496
0.499315
0.486512
0.484679
0.438738
0.489161
0.540181
0.335956
0.367815
0.396749
0.375003
0.379898
0.368320
0.357877
0.314781
0.291949
0.222609
0.142655
0.131710
0.164804
0.276802
0.169105
0.186714
0.130576
0.143965
0.043250
0.130810
0.056520
0.088879
0.113690
-0.024884
0.086015
0.034767
0.003190
-0.007100
-0.047048
0.019745
0.022267
0.026765
0.041692
0.063780
0.031964
-0.019757
0.066210
0.005785
-0.004114
0.064653
-0.068161
0.038343
0.033668
0.019705
0.079126
0.034810
0.037819
-0.041581
0.004083
0.078205
-0.000284
0.025344
0.077771
-0.043297
0.067959
0.008139
-0.043494
0.061707
-0.007788
0.097468
0.072177
-0.024955
-0.031854
0.004291
0.071046
-0.013237
0.020863
0.023663
0.036964
0.033656
0.020630
-0.063681
0.030452
0.022429
0.038470
0.050303
0.062890
-0.011688
-0.027184
0.033170
0.010502
-0.024653
0.023965
0.107307
-0.056196
0.052738
0.023983
0.096865
0.024813
0.002660
0.079970
0.102328
0.042653
0.029105
0.029990
0.014197
0.049458
0.104070
0.127559
0.036639
0.099000
0.114878
0.087341
0.135451
0.149222
0.165957
0.083345
0.065408
0.191511
0.207172
0.231583
0.224173
0.123785
0.164009
0.254503
0.177329
0.267562
0.180072
0.136061
0.229751
0.208427
0.194044
0.153469
0.183680
0.266072
0.212909
0.130568
0.142552
0.170845
0.051949
0.137252
0.117621
0.140678
0.090666
0.003319
0.077932
0.089374
0.051341
0.121729
0.146659
0.033143
0.049977
0.070813
0.105280
0.117086
0.032093
0.023078
0.026130
-0.027029
0.051291
0.051086
0.004174
0.047025
0.080603
-0.026485
0.029092
-0.020425
0.022574
0.070404
0.055177
0.250815
0.464088
0.898880
1.157523
1.369456
1.446994
1.348172
0.959321
0.567077
0.351926
0.059151
-0.201673
-0.295756
-0.205611
-0.240259
-0.031410
0.078880
-0.000331
0.005241
-0.003442
0.048519
-0.018668
0.041008
0.093723
0.004497
0.040911
0.064706
0.041505
0.151909
0.080482
0.074254
0.079872
0.071728
0.057865
0.133617
0.099563
0.182992
0.211372
0.166874
0.183410
0.236837
0.146969
0.153805
0.256404
0.277629
0.303219
0.393584
0.326501
0.356147
0.390363
0.324267
0.443948
0.397903
0.470203
0.450922
0.498334
0.546010
0.483916
0.440666
0.471486
0.515129
0.534975
0.587882
0.464789
0.495205
0.469977
0.576975
0.522279
0.520014
0.513807
0.473296
0.450618
0.462732
0.440212
0.450871
0.395031
0.433388
0.266393
0.315322
0.293794
0.299853
0.229260
0.264612
0.234645
0.161907
0.185073
0.155472
0.196896
0.082426
0.097789
0.182985
0.040326
0.043425
0.098378
0.078192
0.041630
-0.022744
0.044015
0.022827
0.044093
0.061087
0.035143
0.049402
0.029267
0.018075
0.038930
0.000608
0.056649
0.034731
-0.039993
-0.024050
-0.034448
0.065036
0.066116
0.030099
0.043296
0.058157
-0.017126
0.014708
0.043663
-0.022358
-0.074892
0.029407
0.012427
-0.032282
0.019411
-0.069025
0.036902
0.045551
0.024024
0.012278
-0.055684
-0.020592
0.025083
-0.030545
0.058118
0.036554
0.020506
0.005937
0.014368
0.017141
-0.002893
0.040803
0.073770
-0.061295
0.087922
0.034939
-0.020558
-0.015312
0.063462
-0.023171
0.042336
0.027610
-0.004391
-0.001936
-0.011963
-0.013828
0.015215
-0.072694
-0.001099
-0.049931
-0.027298
-0.067420
0.009952
-0.061005
0.038573
0.057142
0.039738
0.056742
0.010062
-0.072964
0.020359
0.049341
0.045453
0.082847
0.046742
-0.000894
0.046578
0.029255
0.102392
0.084938
-0.002564
0.157760
0.085011
0.193880
0.080469
0.113862
0.189212
0.177599
0.150882
0.137264
0.108033
0.153020
0.099649
0.069194
0.143590
0.169956
0.045189
0.080296
0.067671
0.044585
0.058495
0.049077
0.046700
-0.032222
0.045149
-0.042219
0.021622
-0.036256
-0.052041
-0.018093
0.009500
-0.016169
-0.056688
-0.004488
-0.021085
-0.055044
-0.028301
-0.039713
-0.085563
-0.029316
-0.075686
0.042760
-0.109136
-0.044460
-0.091363
-0.063611
-0.142288
-0.118157
-0.047249
0.049219
0.231017
0.518148
0.843900
1.139937
1.352569
1.313588
1.095085
0.830303
0.435058
0.205883
-0.122897
-0.222139
-0.420284
-0.262196
-0.262723
-0.199087
-0.184535
-0.046308
-0.020348
-0.030655
-0.104044
-0.059692
-0.029035
-0.070418
-0.040512
-0.071296
-0.032011
-0.004350
0.000191
0.062300
-0.025608
0.062655
0.031245
-0.034273
0.064073
0.063455
0.047733
0.074288
0.009259
0.100524
0.105365
0.207300
0.144719
0.159655
0.168633
0.157368
0.202933
0.182316
0.185995
0.230165
0.306284
0.312156
0.442379
0.354493
0.414055
0.389715
0.421643
0.364812
0.430417
0.404154
0.410017
0.428383
0.485600
0.508786
0.372718
0.447270
0.364509
0.418453
0.330339
0.340028
0.263079
0.395343
0.299431
0.270775
0.255949
0.261812
0.137139
0.195165
0.153424
0.147592
0.119667
0.184186
0.199331
0.111922
0.110763
0.069719
0.084349
-0.000746
0.078539
0.042243
-0.045773
-0.050723
-0.029094
-0.086958
-0.054268
-0.136882
-0.070910
-0.113198
-0.001450
-0.068091
-0.055665
-0.064600
-0.026727
-0.111409
-0.067549
-0.101044
-0.117298
-0.104371
-0.088901
-0.089035
-0.082144
-0.070435
-0.091938
-0.145463
-0.053324
-0.163392
-0.127876
-0.101268
-0.058411
-0.142709
-0.063909
-0.106481
-0.155169
-0.154739
-0.087873
-0.048263
-0.074028
-0.037795
-0.083377
-0.031920
-0.050129
-0.137059
-0.111378
-0.139771
-0.159968
-0.091014
0.055643
-0.043545
-0.043965
-0.029942
-0.097415
-0.080646
-0.132572
-0.164975
-0.092685
-0.055867
-0.070452
-0.036737
-0.058919
-0.069448
-0.084527
-0.033470
-0.110185
-0.137350
-0.166919
-0.116025
-0.100329
-0.151387
-0.102062
-0.084383
-0.098512
-0.125646
-0.123587
-0.071610
-0.060005
-0.086217
-0.053865
-0.040931
-0.068943
-0.025533
-0.142004
-0.036866
-0.069333
-0.027145
-0.012609
-0.011086
-0.000246
-0.041465
-0.038069
0.008062
0.035525
0.069381
0.004268
0.018952
0.102195
0.005310
0.116112
0.075594
0.080936
0.057359
0.044791
0.076149
0.083439
0.009325
0.104037
0.033532
0.002081
0.054920
-0.029238
0.096749
0.045994
-0.094804
-0.035546
-0.037332
-0.054011
-0.007541
-0.056509
-0.059028
0.002805
-0.135920
-0.100365
-0.077013
-0.064356
-0.038653
-0.039881
-0.133941
-0.128335
-0.051706
-0.057903
-0.029102
-0.117666
-0.057925
-0.017110
-0.101917
-0.110187
-0.074521
-0.140225
-0.141759
-0.091320
-0.097492
0.023873
0.219557
0.590735
0.880850
1.166314
1.270443
1.249886
1.089194
0.805405
0.439109
0.108639
-0.147730
-0.304117
-0.331801
-0.261428
-0.304710
-0.159848
-0.172561
-0.006454
-0.009409
-0.065800
0.008802
-0.020041
-0.075689
-0.063397
-0.071304
-0.078974
-0.110162
-0.055356
-0.018572
-0.069159
-0.035422
0.009060
0.020914
0.033522
0.098124
-0.003450
-0.053771
0.013299
0.116496
0.164856
0.083040
0.177656
0.157303
0.168789
0.190274
0.192129
0.271503
0.279005
0.323925
0.289129
0.288119
0.376253
0.354445
0.347192
0.425526
0.390185
0.416710
0.431572
0.456666
0.427276
0.368733
0.476172
0.419445
0.345831
0.488207
0.395436
0.490715
0.445175
0.471017
0.461215
0.439483
0.348263
0.405222
0.418602
0.301419
0.269822
0.295198
0.291692
0.210561
0.245332
0.210583
0.254421
0.247314
0.186671
0.189509
0.126095
0.115378
0.158210
0.139980
0.091475
0.050610
0.028523
0.021362
-0.034335
0.079105
0.056681
-0.016607
-0.005405
-0.008538
-0.034343
0.046021
0.075519
0.066140
-0.045750
-0.045780
-0.019234
-0.011451
0.061167
-0.082874
0.034019
0.040588
0.072430
-0.093519
-0.001396
-0.021534
-0.039239
0.057840
0.009031
-0.045892
-0.065899
0.016951
-0.004028
0.074417
-0.003949
-0.025653
-0.003212
0.059150
-0.053126
0.053387
0.035287
0.111345
0.052103
-0.006559
-0.001391
-0.038395
0.000526
-0.073281
-0.057441
-0.033615
0.077849
-0.023022
-0.069120
0.009781
0.006890
0.001471
-0.098700
0.000082
0.065492
0.036643
0.022407
0.008412
-0.038628
0.045287
-0.008907
0.025558
0.009394
0.033584
0.044266
0.010960
0.025892
0.058483
0.050827
0.030982
0.108695
0.033453
0.002652
0.016169
0.062228
-0.015956
-0.002506
-0.027110
0.031670
0.174284
0.132254
0.041436
0.072708
0.025915
0.094621
0.098280
0.112389
0.142749
0.218338
0.158276
0.211692
0.165315
0.217284
0.209930
0.224511
0.160420
0.213284
0.161931
0.212241
0.222941
0.162886
0.254896
0.153941
0.163140
0.197165
0.281942
0.109828
0.147880
0.074418
0.156008
0.083971
0.144933
0.077566
-0.025822
0.110049
0.120926
0.054405
-0.017088
0.044174
0.010651
0.129749
0.054409
0.099399
0.088977
0.059874
0.019455
-0.049331
0.093093
-0.006627
0.072610
0.139232
-0.013874
-0.077452
-0.012749
0.076435
0.023926
0.105514
0.230568
0.463455
0.724082
1.064592
1.374464
1.436305
1.388043
1.203993
0.855854
0.382244
0.074486
-0.098809
-0.245929
-0.179074
-0.180198
-0.088787
-0.044714
0.078344
0.048089
0.030321
0.098164
0.080032
0.080159
0.067344
0.093082
0.061527
0.153092
0.102051
0.029788
0.165698
0.036620
0.088937
0.201479
0.138598
0.119348
0.112161
0.185579
0.174426
0.145919
0.118293
0.253102
0.278409
0.307185
0.223965
0.329605
0.304926
0.404216
0.361285
0.331149
0.368262
0.431829
0.480955
0.555408
0.374076
0.568834
0.569029
0.530416
0.570027
0.582036
0.575711
0.549814
0.542730
0.526256
0.602645
0.543255
0.482114
0.549109
0.607414
0.506320
0.497533
0.499053
0.443765
0.542790
0.472296
0.377484
0.462038
0.408251
0.343143
0.433214
0.432450
0.314609
0.325280
0.287030
0.232748
0.235967
0.345654
0.251497
0.216889
0.271617
0.214123
0.222355
0.221261
0.076610
0.141473
0.104785
0.173327
0.127950
0.107126
0.106797
0.064318
0.105151
0.049813
0.058152
0.046728
0.044151
