-0.013633
-0.078484
-0.084528
-0.029992
0.034081
-0.072125
-0.041131
0.056856
-0.004524
0.124454
0.077087
0.073779
0.031364
0.073495
0.009550
-0.003976
0.025464
0.051870
0.081604
-0.024585
0.000206
0.083600
-0.007368
0.074252
0.093772
0.077349
0.174616
0.142924
0.150587
0.037612
0.234537
0.091351
0.147079
0.203992
0.129749
0.162454
0.231377
0.139750
0.182978
0.284567
0.108335
0.166316
0.294952
0.262801
0.169035
0.177431
0.114920
0.139534
0.199648
0.138669
0.080450
0.150074
0.141806
0.103584
0.087874
0.071029
0.150529
0.183155
0.040121
0.068424
0.050451
0.086772
0.053103
0.072360
0.067578
0.055178
0.058811
0.051050
0.096942
-0.012136
0.098825
0.003780
0.030697
-0.003124
0.015271
0.062321
0.061984
0.133488
0.466770
0.771763
1.074434
1.290281
1.497906
1.396921
1.291063
0.830199
0.549101
0.089269
-0.120625
-0.191430
-0.141889
-0.110542
-0.062288
0.004515
-0.027889
0.079967
0.088565
0.008545
0.064046
0.106887
0.061646
0.148135
0.079541
0.112337
0.163383
0.173523
0.140853
0.152173
0.183749
0.243521
0.215982
0.185803
0.272445
0.258359
0.323300
0.278873
0.357068
0.403966
0.445090
0.384885
0.370310
0.471373
0.515735
0.491317
0.501439
0.551306
0.527706
0.627116
0.582663
0.615978
0.604302
0.602944
0.657957
0.642606
0.626405
0.621553
0.599520
0.601326
0.616034
0.540527
0.558256
0.553180
0.509324
0.515842
0.496099
0.444635
0.481671
0.470743
0.517605
0.333893
0.316221
0.278458
0.304337
0.294123
0.294592
0.290100
0.246160
0.189051
0.235354
0.234638
0.172004
0.244488
0.196409
0.135949
0.067921
0.230150
0.191223
0.177028
0.161065
0.120178
0.182742
0.018977
0.081984
0.044955
0.175680
0.127709
0.152560
0.043832
0.180049
0.069941
0.167536
0.162313
0.102928
0.047817
0.128187
0.035010
0.109264
0.067352
0.108478
0.011743
0.154789
0.085821
0.018996
0.150747
0.062726
0.062715
0.150704
0.138126
0.149009
0.112268
0.117509
0.170517
0.111941
0.096428
0.133262
0.081825
0.087982
0.068213
0.077915
0.110898
0.163329
0.086424
0.100224
0.094169
0.014293
0.063366
0.166369
0.107437
0.052077
0.064812
0.074359
0.171147
0.100893
0.084393
0.135149
0.148820
0.156616
0.111927
0.127060
0.161103
0.101367
0.130502
0.140363
0.183851
0.176574
0.131851
0.181380
0.182493
0.320028
0.152871
0.212239
0.308242
0.190879
0.341464
0.277640
0.232728
0.163880
0.323427
0.229500
0.251616
0.274453
0.217504
0.245129
0.259235
0.229126
0.189135
0.231895
0.208291
0.200608
0.152911
0.117062
0.119713
0.154035
0.032160
0.242220
0.104666
0.165716
0.054577
0.095093
0.110904
0.081279
0.070201
0.149070
0.128513
0.132247
0.052098
0.017812
0.137114
0.065429
0.055279
0.009789
0.060755
0.132904
0.232629
0.535463
0.822859
1.194820
1.433382
1.469857
1.405099
1.053323
0.667600
0.258084
0.038787
-0.161087
-0.184442
-0.198646
-0.006650
-0.043160
0.131331
0.142786
0.056401
0.094405
0.129870
0.054654
0.149568
0.101064
0.119630
0.120134
0.224800
0.142188
0.206741
0.127778
0.128669
0.116321
0.273721
0.212494
0.230050
0.213543
0.255129
0.353806
0.375262
0.370045
0.339107
0.401105
0.387460
0.416407
0.438091
0.506187
0.431743
0.557154
0.484451
0.561830
0.556867
0.565204
0.612084
0.603762
0.585464
0.594176
0.545712
0.560409
0.541125
0.633057
0.510353
0.601043
0.479524
0.503809
0.533483
0.498857
0.480610
0.422429
0.400461
0.487214
0.317020
0.355797
0.328469
0.374578
0.305291
0.305203
0.297542
0.160675
0.230902
0.221755
0.216049
0.130254
0.224521
0.173002
0.113397
0.109432
0.066618
0.094479
0.120301
0.061237
0.042456
0.024009
0.097973
0.055385
-0.004897
-0.021408
0.061587
0.071756
-0.004279
0.022220
0.093503
0.030370
0.018779
0.061465
0.074479
0.173140
0.014921
0.052763
0.017339
0.102617
0.010581
-0.058974
0.038875
-0.018131
0.092436
-0.014110
0.040345
0.006763
0.027195
0.042465
-0.022155
-0.059887
-0.005730
-0.020521
0.060358
0.017728
-0.016723
0.021105
0.049525
0.041239
-0.065385
-0.026296
0.091027
0.063579
-0.036536
0.026055
0.052252
-0.005356
-0.002972
0.001156
-0.075539
0.040417
-0.004558
0.021051
-0.001730
0.034716
0.048241
0.087547
0.032008
-0.042013
0.074570
-0.029082
-0.003670
-0.036880
-0.000666
0.070252
0.061327
0.043716
0.002221
0.093202
0.061197
0.055972
0.132870
0.125276
0.154528
0.128136
0.154472
0.129798
0.296219
0.185436
0.124932
0.207074
0.246223
0.170278
0.224280
0.128488
0.133140
0.121695
0.059233
0.100130
0.135345
0.000771
0.075091
0.070990
0.005636
0.023950
0.089524
-0.016482
0.044763
0.009158
-0.009214
-0.065927
-0.079457
-0.117028
0.003130
-0.002568
-0.056757
-0.064060
-0.042348
-0.029822
0.032196
-0.097946
-0.138313
-0.017929
-0.000133
0.106429
0.314241
0.580809
0.900952
1.259072
1.343830
1.361828
1.100972
0.775659
0.322638
0.040500
-0.172924
-0.252988
-0.280001
-0.203971
-0.178466
-0.164733
-0.011225
0.028142
-0.021991
0.055649
0.041658
0.093137
-0.009053
0.010197
0.042245
0.078975
-0.048190
0.085716
0.047199
0.110642
0.066737
0.147828
0.088948
0.107631
0.209687
0.252440
0.166040
0.150101
0.204485
0.272885
0.232987
0.220820
0.329993
0.276933
0.326191
0.421897
0.418129
0.498946
0.402523
0.493253
0.450284
0.481878
0.406543
0.437599
0.427000
0.436501
0.484656
0.435458
0.535308
0.465161
0.454684
0.450256
0.405455
0.443778
0.512656
0.295260
0.371135
0.444264
0.305221
0.281807
0.235029
0.292213
0.288836
0.193109
0.220706
0.098202
0.091146
0.134479
0.139817
0.200768
0.031748
0.007722
0.062756
0.114839
-0.024012
0.064820
0.003287
0.072279
-0.039094
0.024336
-0.003895
-0.090630
0.008683
-0.007356
-0.081260
0.029060
-0.098238
-0.063868
-0.013389
-0.017465
0.001508
-0.024009
-0.002605
-0.084430
-0.069368
-0.018075
-0.027200
0.033755
-0.069623
-0.079766
-0.000399
0.010372
-0.075667
-0.123176
-0.042811
-0.053098
-0.000351
-0.058430
-0.066741
-0.022177
0.069349
-0.028831
0.000526
-0.012117
-0.015848
-0.083522
-0.045794
-0.059374
-0.024830
-0.038884
-0.103843
-0.026178
-0.128633
-0.021847
-0.090181
-0.016288
-0.006272
-0.047218
-0.085769
-0.023303
-0.097828
-0.073889
-0.098077
-0.059641
0.062183
-0.046113
0.023787
-0.041667
-0.065227
-0.014638
-0.004529
-0.005388
-0.030584
0.051445
0.010527
0.117623
0.046354
0.003242
0.080451
0.037929
0.027073
0.095105
0.078211
0.193404
0.147534
0.050158
0.108428
0.182545
0.238409
0.170980
0.204332
0.168418
0.267284
0.098646
0.156325
0.102464
0.119172
0.066368
0.025151
0.054311
0.054192
0.077335
0.115229
0.074279
0.045696
0.039031
-0.002306
0.053992
-0.066825
-0.032253
0.007560
-0.055339
-0.052421
-0.079503
-0.049972
-0.012109
0.066179
-0.013450
0.010639
-0.033607
0.031239
-0.055267
-0.043713
-0.013992
0.030445
0.230095
0.545671
0.825831
1.128567
1.412645
1.444257
1.232685
1.030902
0.588939
0.207936
-0.024546
-0.216608
-0.226230
-0.215055
-0.125286
-0.090135
-0.055862
-0.016513
0.040924
-0.026333
0.011005
0.095770
0.030890
0.081841
0.070488
0.118207
0.063183
0.112967
0.109493
0.174103
0.146367
0.116147
0.184509
0.089445
0.192598
0.186998
0.293862
0.323305
0.295579
0.292570
0.347159
0.286781
0.395083
0.342976
0.360710
0.399937
0.449913
0.387800
0.510004
0.450871
0.634883
0.458885
0.526808
0.553078
0.421338
0.564254
0.530128
0.539457
0.590754
0.581557
0.668146
0.447342
0.423956
0.526432
0.513217
0.466492
0.455023
0.435023
0.469598
0.376984
0.418529
0.411481
0.399477
0.249718
0.292010
0.254007
0.251071
0.276242
0.291941
0.201202
0.134441
0.163310
0.163716
0.199696
0.117717
0.159305
0.020891
0.138175
-0.003593
0.107066
0.075220
0.090643
0.012032
0.061999
0.084034
0.106611
0.081405
0.052122
0.038501
0.004339
0.057898
0.074964
0.074171
0.034302
0.101289
0.086561
0.021821
0.052020
0.000706
0.089403
0.122400
0.106392
0.027694
0.128353
0.064016
0.137096
0.082946
0.067077
0.031499
0.053664
0.080350
0.067122
0.033429
0.031830
0.024877
0.033679
0.008410
0.106344
0.099354
0.048550
-0.014361
0.072374
0.091758
0.143736
0.046061
0.054031
0.116640
0.036572
0.074880
0.062077
0.024375
0.134073
0.070546
0.136501
0.131136
0.071027
0.107155
0.132649
0.085920
0.192527
0.172833
0.124330
0.072935
0.065772
0.028574
0.168818
0.192029
0.218471
0.171120
0.184089
0.198304
0.069686
0.211816
0.245924
0.208117
0.278009
0.245729
0.238817
0.285580
0.268456
0.343550
0.298846
0.240194
0.260103
0.210599
0.217524
0.173522
0.171954
0.194151
0.190417
0.226584
0.138243
0.188659
0.231117
0.132450
0.059176
0.100467
0.112068
0.156958
0.082225
0.109433
0.101877
0.259648
0.088616
0.017040
0.158406
0.087743
-0.018405
0.161751
0.125671
0.147094
0.001477
0.172693
0.062614
0.118394
0.186576
0.458470
0.786399
1.127436
1.435776
1.493652
1.444968
1.202508
0.880473
0.585948
0.152644
0.064866
-0.116648
-0.160559
-0.052733
0.006745
0.087203
0.116718
0.094468
0.145981
0.094196
0.032939
0.149143
0.189046
0.115735
0.159882
0.187066
0.098033
0.175156
0.195527
0.220759
0.273268
0.230057
0.237007
0.276905
0.355638
0.356785
0.340667
0.336969
0.226941
0.462738
0.373158
0.341181
0.479163
0.496597
0.529361
0.515194
0.461794
0.476440
0.609017
0.585863
0.631329
0.621957
0.569670
0.504142
0.699456
0.720137
0.614876
0.654924
0.646304
0.661583
0.550394
0.593368
0.527420
0.527184
0.511031
0.562739
0.547668
0.519685
0.476747
0.427300
0.434185
0.451325
0.409134
0.282200
0.414879
0.348814
0.239292
0.324288
0.223595
0.227188
0.214343
0.267192
0.219229
0.263307
0.237000
0.258967
0.152560
0.217675
0.084611
0.193907
0.118900
0.164183
0.079612
-0.033177
0.049614
0.093622
0.133511
0.109175
0.088930
0.080134
0.107802
0.090221
0.057594
0.085830
0.134966
0.145440
0.077573
0.096661
0.075367
0.073197
0.130233
0.102833
0.036589
0.100801
0.024266
0.093233
0.050912
0.084375
0.049167
0.096114
0.108888
0.070342
0.090903
0.121854
0.081952
0.048901
0.106706
0.124093
0.093460
0.077644
0.137410
0.090064
0.034462
0.038555
0.138865
0.058174
0.047456
0.099657
0.031819
0.091755
0.146419
0.118838
0.108204
0.110462
0.109773
0.137956
0.094008
0.106776
0.114839
0.027262
0.182362
0.052645
0.004791
0.074333
0.135683
0.107498
0.184102
0.055492
0.133917
0.191193
0.287811
0.242608
0.191938
0.223833
0.252647
0.200882
0.223703
0.250084
0.167598
0.219786
0.187181
0.181397
0.271925
0.163270
0.186299
0.303136
0.232043
0.162958
0.213317
0.168580
0.018189
0.210065
0.118837
0.117307
0.091114
0.133211
0.027371
0.069472
0.138726
0.069698
0.001409
-0.024269
0.023521
0.075876
0.047516
-0.021454
0.025347
0.043853
0.008668
0.121984
-0.089679
-0.020490
-0.027677
0.005339
0.114358
0.231290
0.520710
0.866168
1.192312
1.411553
1.476625
1.343329
1.019463
0.631923
0.260583
-0.069442
-0.223087
-0.262823
-0.285007
-0.221307
-0.107962
0.022120
0.035956
-0.070328
0.013114
0.132197
0.049707
0.157380
0.079650
0.082819
0.117256
0.126327
0.049266
0.198454
0.063925
0.055460
0.164409
0.118618
0.144791
0.131528
0.228898
0.232204
0.236875
0.188587
0.324850
0.286375
0.344802
0.328880
0.378169
0.354804
0.365384
0.512422
0.407251
0.441608
0.528451
0.511344
0.446168
0.466897
0.426038
0.505042
0.485222
0.445140
0.473124
0.527258
0.437248
0.422115
0.487162
0.539657
0.453232
0.415972
0.505642
0.386048
0.349010
0.369251
0.337628
0.397298
0.318244
0.222047
0.297582
0.335908
0.193222
0.234761
0.133670
0.177457
0.183808
0.124444
0.195911
0.156675
0.038730
0.083467
0.085762
0.049379
0.016435
-0.032995
0.026140
0.058954
-0.021010
0.041920
-0.122571
0.008117
0.001590
-0.108226
-0.015311
-0.025687
-0.034894
-0.034029
-0.031968
0.012252
-0.014939
-0.036962
-0.090316
-0.054266
-0.069601
-0.006161
-0.079478
-0.060402
0.048336
0.032803
-0.097840
-0.033956
-0.063806
0.032434
-0.053840
-0.088069
-0.053512
-0.071581
0.064078
-0.120418
-0.128987
0.016122
-0.013921
-0.020751
-0.013480
-0.156283
-0.137136
-0.044888
-0.129311
-0.108485
-0.104347
-0.031723
-0.039444
-0.024021
-0.080070
-0.062186
-0.084854
-0.052886
-0.030736
-0.012607
-0.098996
0.017515
-0.082292
-0.006988
-0.010071
0.070204
-0.070429
-0.044050
-0.128146
0.043590
-0.021891
-0.003067
0.059996
0.015156
-0.047674
0.082983
0.044680
-0.026018
0.123085
0.077436
0.083489
0.166904
0.144906
0.084636
0.107743
0.141792
0.129189
0.155861
0.135688
0.071299
0.133622
0.084809
0.125531
0.107670
0.040812
0.010334
-0.049967
0.063704
0.040807
-0.007812
-0.009710
-0.034322
-0.064478
-0.064101
0.009323
-0.027962
-0.028577
0.017947
-0.054241
-0.061273
-0.088514
-0.080190
-0.044158
-0.082048
-0.014170
-0.078004
-0.074414
-0.056761
-0.035610
-0.113911
-0.076037
-0.038660
0.086118
0.240551
0.595262
0.921144
1.210144
1.368591
1.375688
1.122248
0.625828
0.347454
-0.007144
-0.364844
-0.284525
-0.322587
-0.243348
-0.205484
-0.042762
-0.029152
-0.056488
-0.005787
-0.042247
-0.063919
-0.038996
-0.069173
-0.096144
-0.008815
0.020504
-0.047520
0.001806
0.014285
-0.036275
0.043684
0.055598
0.045845
0.091198
0.186927
0.107097
0.190370
0.091463
0.199386
0.215733
0.248664
0.259846
0.303745
0.272832
0.331427
0.396456
0.273134
0.329120
0.420024
0.404901
0.419047
0.382361
0.510621
0.454435
0.511610
0.517299
0.457968
0.403607
0.467303
0.403486
0.464167
0.416446
0.362739
0.409379
0.385683
0.329669
0.382813
0.233324
0.243983
0.213913
0.269212
0.246463
0.140958
0.198304
0.105388
0.199070
0.103897
0.133018
0.026121
0.106579
0.030648
0.022863
-0.009238
0.040642
-0.013225
-0.000618
0.013871
0.032360
0.047710
-0.057802
-0.130086
-0.158743
-0.136883
0.012005
-0.017023
-0.075117
-0.078244
-0.078327
-0.123973
0.039474
-0.010555
-0.087388
-0.060605
0.030202
-0.024437
-0.085218
-0.100264
-0.055593
-0.045795
-0.073786
-0.000651
-0.065180
-0.118488
-0.082895
-0.079453
-0.061484
-0.059129
-0.064818
-0.002195
-0.031816
-0.069459
-0.051097
-0.037605
0.011304
-0.054224
-0.015844
-0.066178
-0.068079
-0.023036
-0.079163
-0.056146
-0.044124
-0.002657
-0.077418
-0.067795
-0.022035
-0.045661
-0.039789
-0.048266
-0.101728
-0.058536
-0.084327
0.003246
-0.012696
-0.060607
-0.097323
0.000391
-0.032283
0.011394
-0.017198
-0.015972
-0.007363
-0.024433
0.019000
0.021444
0.053456
-0.015427
0.005721
0.162877
0.011585
0.197035
0.064083
0.089128
0.094760
0.163161
0.183762
0.166011
0.132538
0.084336
0.138871
0.201060
0.084097
0.168692
0.042121
0.127945
0.158925
0.103613
0.095450
0.117035
0.102000
0.139819
-0.016172
-0.007342
0.055260
0.013197
-0.054754
-0.074166
-0.046706
0.020727
0.068474
0.060647
0.001141
0.032560
-0.014654
0.006720
-0.025451
0.036685
-0.044958
-0.113328
-0.072843
0.039778
-0.042062
-0.013722
0.043614
0.129851
0.306462
0.571055
0.861156
1.186911
1.453251
1.448668
1.247043
0.943055
0.461557
0.222461
-0.046535
-0.214884
-0.246186
-0.256651
-0.113437
-0.115301
0.013925
-0.011256
-0.047329
-0.022774
0.033873
0.027023
0.039312
0.007704
0.112337
0.071160
0.063921
0.054366
0.084098
0.090007
0.087370
0.135772
0.165433
0.111552
0.238720
0.180159
0.245760
0.185562
0.306636
0.274939
0.385954
0.316163
0.306981
0.363567
0.340970
0.416970
0.491457
0.424175
0.485677
0.477634
0.419241
0.485385
0.548707
0.571609
0.557554
0.545413
0.540769
0.457757
0.534787
0.502209
0.511535
0.570975
0.482350
0.467923
0.472684
0.466649
0.412088
0.469816
0.362819
0.477228
0.380957
0.392896
0.315687
0.334041
0.292516
0.219722
0.153344
0.235385
0.148382
0.097542
0.166622
0.205013
0.199469
0.085123
0.156947
0.126900
-0.039307
0.028566
0.119022
0.085809
0.052696
-0.007779
0.060445
-0.019528
0.076634
0.037692
0.099792
0.125101
0.005976
-0.053038
-0.039377
0.086157
-0.038461
0.099259
0.083079
0.016463
0.050422
0.009878
0.091144
0.062515
-0.052569
-0.009549
0.057200
0.042053
0.017449
0.007097
-0.010883
0.043713
-0.025657
-0.005279
0.018198
-0.022862
0.070805
0.055247
0.034183
0.079542
0.027265
0.040436
0.050941
0.046130
0.116262
0.073947
-0.025581
0.045583
0.043921
0.072106
0.067781
0.036143
0.019541
-0.000635
0.085677
0.031899
-0.008005
0.102446
0.021589
0.085742
0.016975
0.082844
-0.007807
0.114189
0.076098
0.029459
0.093970
0.107808
0.128390
0.146630
0.174824
0.120256
0.184647
0.164149
0.221702
0.160190
0.200335
0.305419
0.185563
0.254375
0.317541
0.334695
0.217841
0.200907
0.258828
0.190406
0.196278
0.284282
0.251207
0.217710
0.135439
0.178115
0.190062
0.135468
0.139371
0.196628
0.111389
0.148048
0.138626
0.030418
0.065663
0.127753
0.061359
0.083766
0.007664
0.101299
0.077886
0.055862
0.067210
-0.010465
0.041646
0.096918
0.063761
0.025674
0.130907
0.034271
0.002752
-0.029755
0.134239
0.135911
0.476646
0.757175
1.097268
1.318407
1.500000
1.286343
1.193592
0.806477
0.477404
0.137042
-0.007327
-0.181133
-0.250008
-0.175920
-0.096066
0.001048
0.029326
0.089324
0.057330
0.091704
0.041851
0.081864
0.072261
0.076020
0.162842
0.090325
0.115980
0.182341
0.149222
0.069828
0.190840
0.243958
0.278450
0.232118
0.187415
0.292973
0.192526
0.270229
0.358298
0.347371
0.377212
0.370465
0.439399
0.382251
0.444600
0.440235
0.495801
0.586664
0.452988
0.627008
0.510994
0.590144
0.531523
0.574827
0.549734
0.454134
0.518093
0.606962
0.544180
0.572832
0.608159
0.526923
0.635448
0.550596
0.429021
0.406127
0.428394
0.449416
0.369407
0.460512
0.285409
0.350992
0.305994
0.253592
0.329438
0.281958
0.212280
0.235348
0.184978
0.217361
0.211482
0.146367
0.143531
0.090948
0.135969
0.025049
-0.011017
0.006814
0.050245
0.033202
0.076300
0.040424
0.040765
0.107868
0.021492
0.008950
0.026217
0.004732
0.001017
0.037782
0.077725
0.052478
-0.029890
-0.061052
0.064763
0.016942
0.025285
0.034050
-0.018320
-0.029052
0.074028
0.085323
-0.056439
-0.034618
-0.038386
0.038555
0.022678
-0.022341
0.088165
0.044868
-0.034330
-0.028180
-0.119509
-0.082043
-0.079043
-0.076975
0.051483
-0.078365
0.034187
-0.063275
-0.023728
0.005667
-0.094816
0.018223
-0.070513
-0.008620
-0.021654
-0.103940
0.080620
-0.068316
-0.001060
-0.049273
0.068529
0.007346
0.033969
-0.017986
-0.012588
0.053565
0.016953
0.007552
0.045505
-0.057334
0.036174
0.098435
0.027132
0.070443
0.039129
0.100584
0.040445
0.170618
0.163994
0.114389
0.166724
0.118225
0.122612
0.220125
0.124328
0.172243
0.126179
0.174333
0.105774
0.142517
0.164343
0.187755
0.134569
0.163502
0.101708
0.085680
0.143314
-0.006343
0.043911
0.003419
0.055280
0.025244
0.041942
0.052250
-0.067177
0.049116
0.011792
0.007581
-0.030434
-0.061488
-0.084679
-0.013153
-0.055395
-0.038521
-0.016821
-0.029427
-0.039157
-0.177456
-0.083657
-0.061390
-0.073385
-0.099512
-0.026108
0.175757
0.421057
0.823346
1.152990
1.413021
1.447487
1.071282
0.839153
0.494310
0.175337
-0.178101
-0.220024
-0.337331
-0.300506
-0.160089
-0.104383
-0.095206
-0.112408
-0.078447
-0.028514
-0.042987
-0.164123
-0.023448
-0.042890
0.006277
-0.061562
0.024914
0.090452
-0.015322
-0.027787
0.090586
0.061998
0.110717
0.100836
0.117368
0.066093
0.172183
0.217054
0.194338
0.155136
0.186079
0.196977
0.253163
0.322411
0.256286
0.323818
0.251124
0.353153
0.370714
0.373459
0.466308
0.461354
0.525887
0.397092
0.523081
0.480332
0.416555
0.453683
0.460730
0.406952
0.472020
0.378859
0.416986
0.385517
0.392143
0.372480
0.320278
0.336584
0.277747
0.283121
0.325858
0.210253
0.270834
0.121747
0.185944
0.173581
0.172755
0.054635
0.091514
0.037810
0.121265
0.026106
-0.002156
0.043457
-0.009555
-0.000276
-0.024988
-0.003452
0.017367
-0.006945
-0.048851
-0.067136
-0.153634
-0.068710
-0.074488
-0.041788
-0.058706
-0.160228
-0.105143
-0.057141
-0.104747
-0.126817
-0.132952
-0.101110
-0.053231
-0.108830
-0.107928
-0.102333
-0.106478
-0.007159
-0.124577
-0.065765
-0.118980
-0.102267
-0.043255
-0.107341
-0.098947
-0.113922
-0.160271
-0.184301
-0.058499
-0.041859
-0.083792
-0.117497
-0.216443
-0.086195
-0.093219
-0.048083
-0.110141
-0.163717
-0.045716
-0.153236
-0.107353
-0.036685
-0.056973
-0.072813
-0.063135
-0.102191
-0.031994
-0.096983
-0.125884
-0.133621
-0.044434
-0.063468
-0.105873
-0.146174
-0.122305
-0.175280
-0.114500
-0.109882
-0.117489
-0.050915
-0.081328
-0.065469
0.021321
0.017079
-0.059310
-0.056619
0.011931
0.031394
-0.015062
-0.028125
0.095281
0.084908
0.113434
0.003555
0.020944
0.090380
0.078183
-0.007009
0.135688
0.099612
0.023269
0.052689
0.036950
0.109346
0.027149
-0.022082
-0.034749
0.058098
-0.040108
-0.027012
-0.040364
-0.026723
-0.064632
-0.083515
-0.039618
-0.136379
-0.026984
-0.125267
-0.020689
-0.176816
-0.107157
-0.100056
-0.088862
-0.132173
-0.035028
-0.095526
-0.128277
-0.141291
-0.098080
-0.072871
-0.090842
-0.096574
-0.013687
0.065868
0.295046
0.562737
0.937053
1.269077
1.317091
1.245685
0.979138
0.596914
0.287977
-0.113509
-0.255521
-0.293386
-0.337352
-0.221481
-0.109307
-0.209733
-0.128345
-0.121232
-0.058963
-0.090950
-0.048941
-0.047339
-0.092204
-0.010182
-0.037669
0.015125
-0.014842
0.110573
0.052606
0.006328
-0.074031
0.135099
0.091690
0.064977
0.106850
0.156963
0.086056
0.111292
0.168964
0.237770
0.230152
0.257419
0.194876
0.294611
0.267622
0.331563
0.379135
0.399730
0.473634
0.432991
0.521457
0.414726
0.538416
0.505023
0.408708
0.394015
0.390498
0.484596
0.414452
0.462442
0.419608
0.354906
0.345639
0.382780
0.432067
0.266979
0.406322
0.375228
0.294231
0.320454
0.313253
0.205929
0.254070
0.149172
0.169747
0.244245
0.209402
0.069526
0.105925
0.084816
0.114006
0.051654
-0.025501
0.028673
0.023949
0.083532
0.017064
0.085578
0.073583
-0.067421
0.022714
-0.039670
-0.012241
-0.059940
-0.110147
-0.048883
-0.083888
-0.008551
-0.035111
-0.037789
-0.011714
0.001999
-0.079041
-0.006689
-0.061873
-0.023599
-0.063025
-0.053778
-0.101457
-0.111379
-0.054054
-0.096983
-0.092920
-0.033546
-0.001492
-0.031042
0.016527
-0.014412
0.030577
0.001114
-0.014351
-0.056823
-0.001795
-0.039616
-0.076967
-0.038628
0.023985
-0.014463
-0.101107
-0.018270
0.035019
0.098300
-0.031921
0.025487
-0.058305
-0.007895
-0.024721
0.029164
-0.049430
0.033922
0.041599
-0.041188
-0.005456
-0.000491
0.020702
-0.061179
0.004704
-0.010393
-0.066239
0.009725
0.084955
-0.022118
0.060375
0.065251
0.004584
0.022842
0.011326
0.051557
0.133805
0.099542
0.074086
0.090720
0.238601
0.185663
0.146437
0.141274
0.134183
0.134089
0.141948
0.137299
0.152135
0.094819
0.238078
0.195496
0.110438
0.128242
0.141406
0.083334
0.088270
0.188000
0.104569
0.120280
0.116149
0.131258
0.131293
0.010931
0.067973
0.082679
0.029014
0.054953
0.024465
0.026373
0.068016
0.105150
0.044607
-0.007712
-0.026384
0.015684
-0.094650
0.011707
0.083913
0.021000
0.058280
0.051099
0.126882
0.307464
0.554564
0.913366
1.306018
1.454892
1.455918
1.324236
0.988012
0.488166
0.286361
-0.079753
-0.177740
-0.294640
-0.142379
-0.106032
-0.020777
-0.023363
0.009235
0.039263
0.104378
0.140390
0.051453
0.021731
0.095748
0.121112
0.130584
0.174313
0.193636
0.129178
0.161719
0.194020
0.181068
0.211251
0.281585
0.202157
0.312813
0.222295
0.306923
0.319024
0.369809
0.321155
0.292550
0.316673
0.420259
0.453887
0.548695
0.515959
0.506005
0.558975
0.590519
0.596464
0.576984
0.624216
0.571896
0.580665
0.630366
0.561006
0.578971
0.602066
0.502166
0.488677
0.573549
0.500964
0.428512
0.535238
0.545855
0.575629
0.475484
0.400282
0.449797
0.507638
0.408746
0.271117
0.346002
0.229934
0.295488
0.263035
0.266233
0.211085
0.197413
0.261676
0.132897
0.166188
0.117047
0.179630
0.103272
0.170564
0.136243
0.139080
0.150684
0.058058
0.120721
0.010963
0.074383
0.017131
0.139168
0.074688
0.129303
0.091728
0.061032
0.123264
-0.038462
0.099472
0.056834
-0.009104
0.092549
0.098493
0.058827
0.110669
0.062267
0.091956
0.093243
0.048293
0.090559
0.069337
0.049808
0.010165
-0.010433
0.077119
0.141307
0.059239
0.140113
0.121653
0.165485
0.110678
0.103073
0.103624
0.134821
-0.037901
0.164866
0.071025
0.057703
0.108328
0.072662
0.103609
0.057261
0.110110
0.054438
0.092360
0.078052
0.053898
0.022089
0.084870
0.173868
0.105631
0.217908
0.092357
0.021906
0.129039
0.075220
0.042789
0.145407
0.103480
0.117434
0.186146
0.151164
0.141793
0.183571
0.133399
0.163015
0.080665
0.171059
