-0.027953
-0.025363
-0.040077
-0.026806
-0.011665
0.006989
-0.032809
-0.006946
-0.023427
0.073042
0.038804
0.023468
0.054297
-0.000370
-0.031196
0.072798
-0.053540
-0.036028
-0.014371
0.047387
0.040277
0.018625
0.066148
0.101716
0.064957
0.015305
0.088006
0.016447
-0.003221
0.137503
0.085270
0.063007
0.070018
0.203067
0.109970
0.196550
0.244815
0.210908
0.193590
0.247118
0.266745
0.141419
0.167442
0.131409
0.164027
0.128207
0.111957
0.107637
0.137674
0.121991
0.071300
0.146565
0.156569
0.128876
0.026045
0.076754
0.029174
0.060841
0.108949
0.054391
0.096378
0.086841
0.087543
0.074023
0.033166
0.045750
0.067871
-0.010482
0.092442
-0.011359
-0.079106
0.041180
0.107331
0.119055
0.041673
0.038412
0.076699
0.105840
0.366421
0.731514
0.965551
1.237199
1.431083
1.441662
1.132056
0.917937
0.543375
0.175352
-0.087550
-0.140726
-0.231057
-0.141631
-0.016816
0.036974
0.043961
0.198445
0.145949
0.070310
0.090050
0.088017
0.147941
0.062867
0.108585
0.126806
0.180357
0.132922
0.234226
0.142693
0.203037
0.216603
0.168539
0.260120
0.197501
0.266084
0.285375
0.332855
0.369006
0.341310
0.375944
0.437812
0.456871
0.421035
0.389409
0.488476
0.507748
0.604634
0.555661
0.532070
0.526903
0.585128
0.561313
0.552052
0.540505
0.599419
0.568216
0.587291
0.622353
0.620534
0.519417
0.523516
0.499877
0.505694
0.522639
0.566384
0.464028
0.414268
0.473850
0.433518
0.402003
0.302813
0.397662
0.338502
0.335001
0.298831
0.343902
0.305833
0.214472
0.224964
0.164793
0.266203
0.159468
0.091694
0.098005
0.165067
0.097378
0.150392
0.179346
0.187506
0.072541
0.096478
0.115801
0.129916
0.190164
0.087887
0.035353
0.106688
0.086988
0.020776
0.147901
0.062655
0.056752
0.087331
0.103740
0.178210
0.055784
0.141989
0.016742
0.125313
0.127820
0.041039
0.122623
0.030521
0.096619
0.035461
0.075786
0.041488
0.123212
0.088644
0.135268
0.091991
0.157566
0.049618
0.064304
0.098997
0.123336
0.108286
0.140441
0.197911
0.010925
0.166732
0.118405
0.027040
0.098142
0.031608
0.046431
0.133520
0.091696
0.137491
0.054728
0.079011
0.133733
0.067086
0.165149
0.064599
0.108556
0.089273
0.072485
0.066864
0.148300
0.140635
0.159642
0.148040
0.203723
0.150392
0.265073
0.148420
0.201284
0.350886
0.195950
0.174190
0.333358
0.164885
0.214129
0.245337
0.242733
0.215663
0.267663
0.293283
0.288341
0.278075
0.232707
0.195764
0.185932
0.255986
0.219562
0.244223
0.188751
0.168152
0.241834
0.151014
0.092756
0.099482
0.154462
0.216392
0.117166
0.133623
0.169837
0.170383
0.130518
0.070078
0.061841
0.063213
0.058033
0.023809
0.080568
0.060288
0.159764
0.096214
0.076111
0.074101
0.027372
0.114489
0.135447
0.309451
0.580190
0.823905
1.199287
1.393065
1.470757
1.341054
1.002149
0.698107
0.319739
-0.027576
-0.154238
-0.167921
-0.121472
-0.070107
0.037409
0.072008
-0.007414
0.055057
0.154855
0.085669
0.111483
0.062871
0.177571
0.076385
0.043700
0.099940
0.048211
0.228596
0.208924
0.205060
0.225262
0.170973
0.272637
0.104726
0.232993
0.244432
0.284618
0.277842
0.283486
0.350694
0.417003
0.421734
0.423820
0.404465
0.419819
0.418294
0.449998
0.538073
0.510929
0.466737
0.520034
0.527679
0.597915
0.528701
0.545436
0.601538
0.573994
0.585369
0.477756
0.491863
0.518352
0.565573
0.497176
0.510660
0.497422
0.440972
0.467592
0.437568
0.461657
0.395430
0.322143
0.338094
0.295461
0.277851
0.281925
0.299484
0.258324
0.210285
0.166270
0.138783
0.147348
0.099481
0.114261
0.083662
0.122638
0.076167
0.042033
0.090510
0.058308
0.016203
0.015150
0.064614
0.041992
0.057254
0.053468
0.091322
-0.012018
0.007545
0.039977
-0.012372
0.079463
0.009576
-0.038521
0.024205
-0.080527
0.002008
0.007176
-0.020675
0.010011
-0.029398
-0.006287
-0.018280
0.023384
0.029298
-0.014403
-0.028848
0.041028
0.009471
0.022907
-0.005186
-0.008346
0.101581
0.021559
0.010712
-0.020668
0.016702
0.021090
0.009794
-0.026009
0.036875
0.018311
0.007253
0.072724
0.014673
-0.054961
0.010019
-0.005751
-0.044987
-0.037380
0.036522
0.085816
-0.009258
-0.035408
-0.042872
-0.035816
-0.063131
-0.004390
-0.021436
0.017447
0.007393
0.041389
0.050452
0.012846
0.080233
0.053787
-0.095350
0.104386
0.073708
0.132897
0.142633
0.085285
0.126762
0.156070
0.193076
0.240330
0.217442
0.219849
0.083759
0.138914
0.185086
0.155205
0.119456
0.166234
0.206497
0.193595
0.046234
0.091876
0.023562
0.023397
0.037057
0.019635
-0.009480
-0.009635
0.059436
-0.041310
0.069320
0.044261
0.070170
-0.059918
-0.054511
-0.011849
-0.079415
0.018087
-0.019584
-0.056138
0.037404
-0.099817
-0.008158
-0.010974
-0.043631
-0.030345
-0.145277
-0.081757
-0.089446
0.149364
0.268159
0.655835
0.910106
1.178647
1.326705
1.311684
1.097189
0.750852
0.318367
0.148810
-0.187171
-0.331673
-0.257960
-0.293169
-0.197728
-0.113961
-0.032147
0.002020
-0.047422
0.012678
-0.032718
-0.029288
-0.002173
0.070894
0.059039
0.074783
0.057580
0.049412
0.074989
0.175194
0.066733
0.160182
0.099711
0.111370
0.164521
0.179448
0.222099
0.176231
0.175230
0.256524
0.247433
0.253870
0.358256
0.304697
0.394581
0.361231
0.368445
0.319201
0.396543
0.446040
0.513503
0.440845
0.448145
0.493400
0.500329
0.494392
0.387813
0.426424
0.509853
0.475287
0.468719
0.383395
0.447938
0.337661
0.439735
0.407274
0.345023
0.419286
0.304287
0.311528
0.302423
0.285525
0.291248
0.204373
0.190349
0.202684
0.186678
0.068910
0.118212
0.171848
0.110486
0.070823
0.064469
0.106051
-0.057564
0.024270
0.097049
-0.061095
-0.022999
0.006402
0.052607
-0.064704
-0.014284
0.022162
0.045935
-0.006706
-0.030061
-0.144159
-0.086374
-0.120212
-0.036952
0.010812
-0.085373
0.031500
-0.062373
-0.066135
0.001185
-0.059392
-0.108131
-0.080637
-0.023329
-0.061084
-0.088755
-0.110658
-0.034863
-0.027749
0.061604
0.000361
-0.002847
-0.034383
-0.038028
-0.005833
-0.087711
0.010799
0.053829
-0.070116
-0.156405
-0.053144
-0.069841
-0.070728
-0.053319
-0.071440
-0.101813
-0.027769
-0.012587
0.006109
0.051428
-0.042048
-0.081769
-0.021495
-0.011569
-0.067421
0.044606
0.024516
-0.041734
0.052358
-0.057870
0.050303
-0.082972
-0.015953
0.030567
0.060965
0.080901
0.005165
0.100254
0.090230
0.063222
0.080439
0.080532
0.051737
0.091058
0.172379
0.128669
0.101146
0.189410
0.195888
0.180711
0.099470
0.136955
0.223306
0.223448
0.144976
0.232029
0.136697
0.154858
0.027108
0.097293
0.039484
0.148808
0.008808
0.013698
0.033620
0.053357
0.083212
0.113406
0.022050
0.053650
0.005924
0.036229
-0.018170
0.004464
0.019179
0.017816
-0.110842
-0.012524
-0.033209
-0.024764
-0.048504
0.012578
-0.008464
-0.041959
-0.030664
-0.026102
-0.009240
0.046385
0.274072
0.441874
0.818133
1.169094
1.328596
1.366140
1.239375
1.022778
0.607229
0.274302
-0.095823
-0.172186
-0.276488
-0.278846
-0.135059
-0.040386
-0.019324
0.021706
0.101872
-0.031778
0.052335
0.193811
0.114698
0.042116
0.051923
0.136306
0.042698
0.143201
0.103321
0.073231
0.179777
0.121501
0.180561
0.112376
0.160774
0.177946
0.187176
0.256041
0.340516
0.286959
0.249813
0.354340
0.328231
0.361900
0.372924
0.393932
0.417489
0.430161
0.456190
0.443502
0.439926
0.518885
0.453725
0.522926
0.503860
0.560456
0.511974
0.501960
0.571970
0.513458
0.519466
0.484642
0.571881
0.474792
0.356497
0.513387
0.421061
0.477882
0.427302
0.394055
0.287545
0.398483
0.333598
0.278226
0.253402
0.219383
0.225908
0.206826
0.228564
0.286586
0.181528
0.190580
0.115814
0.105490
0.163722
0.155802
0.128509
0.111519
0.167647
0.044282
0.036451
0.049588
0.000948
0.080435
0.130125
0.034468
0.053068
0.102957
0.153805
0.018359
0.111547
-0.002893
0.108592
0.021481
-0.033906
0.001913
-0.016445
0.006154
0.050981
0.058146
0.088659
0.043330
-0.005213
0.045420
0.122367
0.026894
0.050991
0.039925
0.071242
0.023253
0.100148
0.102943
0.085846
0.043203
0.124031
0.014544
0.072099
0.028927
0.060486
0.090660
0.057429
0.089567
0.054819
0.076417
0.017144
-0.036239
0.039175
0.098605
0.106744
0.063556
0.164703
0.070946
0.058293
0.117973
0.112331
0.049997
0.083247
0.126005
0.129880
0.064882
0.168028
0.155924
0.166296
0.109154
0.106812
0.185056
0.106977
0.129838
0.073378
0.177944
0.159173
0.186456
0.163851
0.228585
0.241095
0.222969
0.242233
0.294172
0.356374
0.273486
0.299730
0.295443
0.256493
0.209960
0.258154
0.156705
0.241749
0.285293
0.165562
0.287197
0.205427
0.130865
0.159001
0.161067
0.124229
0.059114
0.154842
0.120481
0.072346
0.132470
0.170168
0.089224
0.129468
0.071352
0.117391
0.095618
0.064543
0.115250
0.060020
0.068975
0.061232
0.105740
-0.024651
0.092867
0.110558
0.254957
0.472048
0.812281
1.078835
1.419725
1.500000
1.380292
1.179755
0.830282
0.468910
0.147037
-0.052069
-0.105251
-0.224805
-0.059958
0.038518
0.140019
0.053234
0.054059
0.052463
0.078032
0.146685
0.121660
0.162917
0.157316
0.198663
0.093104
0.208160
0.204984
0.154117
0.234745
0.179074
0.227824
0.327340
0.318338
0.324033
0.357591
0.312010
0.448430
0.286753
0.382006
0.398404
0.433850
0.408904
0.434322
0.484624
0.471379
0.552656
0.567683
0.476803
0.623652
0.601437
0.678140
0.592722
0.598845
0.625890
0.547541
0.598302
0.691429
0.555002
0.601505
0.613615
0.624006
0.545565
0.609177
0.499868
0.433513
0.517677
0.592127
0.473120
0.400292
0.407533
0.346918
0.339141
0.399876
0.320891
0.225766
0.213911
0.281663
0.308751
0.278352
0.241366
0.207827
0.232510
0.248951
0.202599
0.106902
0.187596
0.116107
0.080162
0.127723
0.145633
0.111946
0.105054
0.155391
0.091697
0.091536
0.107654
0.107710
0.122007
0.078812
0.061422
0.099309
0.095305
0.114465
0.108583
0.023463
0.138982
0.132914
0.087336
0.031539
0.067558
0.068800
0.115599
0.026174
0.033340
0.083541
0.115156
0.058181
0.033361
0.053627
0.111009
0.056005
0.093609
0.077837
0.119175
0.044753
0.071707
0.108560
-0.014853
0.019227
0.096562
0.053084
0.013996
0.046494
0.118363
0.070573
0.038147
0.094397
0.070427
0.087581
0.118730
0.084195
0.054524
-0.019390
0.107019
0.029907
0.059848
0.098624
0.003944
0.132049
0.033633
0.093340
0.139244
0.084966
0.099440
0.084413
0.126053
0.213353
0.111335
0.137986
0.189997
0.156251
0.357178
0.239588
0.192663
0.255560
0.252602
0.235681
0.255821
0.239657
0.225712
0.217726
0.274558
0.235081
0.273932
0.167114
0.287062
0.145347
0.158092
0.151917
0.102028
0.107401
0.060270
0.014382
0.120544
0.062707
0.024808
0.120439
0.035367
0.082572
0.065795
0.051993
0.045324
0.050548
0.041403
0.052160
0.024143
0.079772
0.025247
0.084426
0.046896
-0.023292
0.074195
-0.074921
0.012276
0.331003
0.618774
0.908731
1.215201
1.405596
1.479457
1.291722
0.962256
0.616245
0.253443
-0.072607
-0.214971
-0.296659
-0.171459
-0.153297
-0.087892
-0.012297
0.046441
0.071024
0.145593
0.171778
0.011003
0.065370
0.067135
0.076488
0.109161
0.062168
0.097710
0.030624
0.102680
0.181341
0.141787
0.104296
0.062474
0.281455
0.183015
0.185977
0.179548
0.242416
0.222196
0.291532
0.311395
0.296474
0.392164
0.355294
0.358617
0.353194
0.346062
0.477813
0.377637
0.414005
0.440056
0.484512
0.494035
0.501400
0.531470
0.522693
0.448200
0.428617
0.492260
0.491021
0.458166
0.483251
0.534628
0.407377
0.443652
0.469871
0.268836
0.338214
0.330694
0.281598
0.372534
0.338507
0.184140
0.292015
0.219811
0.240989
0.150271
0.127973
0.065151
0.123953
0.175744
0.156952
0.201900
0.054164
0.022431
0.043207
0.064665
0.134638
0.004080
-0.053238
-0.013633
-0.006461
0.022602
-0.049691
-0.021201
-0.051022
-0.068475
-0.018713
-0.053203
-0.003907
0.055552
0.056608
-0.042660
-0.021346
0.028945
-0.000123
-0.053693
-0.117036
0.004449
-0.018509
-0.065444
-0.014589
0.024120
0.030940
-0.034888
-0.043306
-0.056755
-0.022743
-0.073374
-0.062810
0.059687
-0.038675
0.002382
0.020734
-0.095969
-0.051452
-0.105667
-0.110894
-0.146302
-0.037676
-0.138002
-0.009364
-0.034890
-0.013601
-0.120859
-0.067043
-0.032557
-0.016205
-0.114150
-0.055595
-0.030759
-0.004087
-0.073025
0.009512
-0.014890
-0.028437
-0.058839
-0.119892
-0.022307
-0.055078
-0.045766
-0.027505
0.010769
0.000525
0.076021
0.035328
0.071950
0.030599
0.028758
0.042813
-0.004789
0.001310
0.107732
0.191945
0.105749
0.091482
0.035450
0.127306
0.072808
0.096897
0.120489
0.039582
0.161470
0.116886
0.113205
0.127946
0.053454
0.155882
0.033721
0.000050
0.027835
0.004444
-0.062547
0.014981
-0.061066
-0.064708
-0.062146
0.000185
-0.089398
-0.025055
0.006584
-0.027823
-0.021296
-0.041411
-0.128706
-0.048529
-0.053654
-0.082401
-0.017044
-0.124000
-0.121734
-0.083684
0.003666
-0.038310
0.084658
0.310570
0.701228
0.989442
1.174517
1.309611
1.333896
1.064327
0.655221
0.310178
-0.125772
-0.129588
-0.307295
-0.310067
-0.251685
-0.125072
-0.088582
-0.101119
-0.065975
0.040195
-0.081602
-0.090130
0.034993
-0.048923
-0.043896
-0.072320
0.004012
0.072505
-0.007855
-0.100970
0.118468
0.166961
0.093622
0.099899
0.103889
0.072298
0.151763
0.099009
0.154588
0.186115
0.253015
0.251459
0.272807
0.248704
0.299772
0.276126
0.307839
0.371833
0.302677
0.373570
0.411623
0.377809
0.369116
0.466070
0.486355
0.392173
0.400981
0.442053
0.390668
0.340739
0.354388
0.369450
0.399604
0.360959
0.391473
0.353218
0.363684
0.352160
0.289745
0.276297
0.305672
0.262334
0.210568
0.145406
0.200342
0.152839
0.137465
0.161287
0.111723
0.094939
0.031316
0.127127
-0.083554
-0.005848
-0.031665
-0.100476
-0.045302
-0.069328
-0.073224
0.009194
-0.036681
-0.022400
0.064744
-0.039840
-0.030386
-0.000050
-0.079194
-0.063835
-0.062467
-0.005495
-0.079944
-0.013649
-0.035010
-0.058751
-0.138574
-0.061933
-0.170563
-0.053451
-0.096556
-0.104939
-0.052681
-0.078592
-0.125625
-0.092718
-0.043247
-0.104073
-0.108580
-0.008758
0.001574
-0.016804
-0.077055
0.005055
0.015515
-0.084965
-0.049033
-0.072825
-0.026570
0.002799
-0.054240
-0.057427
-0.057445
-0.120059
0.035570
-0.034130
-0.039811
-0.028132
-0.050040
-0.012376
-0.110500
-0.087960
0.001380
-0.052572
-0.076918
-0.101119
-0.125155
-0.017011
-0.014144
-0.053242
-0.032525
0.004943
-0.078773
-0.007813
0.031884
0.016171
-0.029188
-0.034308
0.048473
0.010781
0.123737
0.066523
0.087413
0.089085
0.076093
0.135648
0.121069
0.093668
0.127554
0.130220
0.117113
0.147962
0.126666
0.160918
0.136168
0.101371
0.126602
0.101827
0.148028
0.197456
0.080006
0.071185
0.002277
0.018755
-0.024709
0.065548
0.023054
-0.011304
0.114381
0.032387
0.078043
-0.006211
0.029435
-0.026476
-0.052169
-0.007053
-0.033044
0.028637
0.001996
0.090573
0.062180
0.005517
0.025186
-0.065560
-0.064973
-0.015843
0.046224
0.089419
0.229234
0.524474
0.815678
1.075812
1.295737
1.393890
1.140559
1.017996
0.511974
0.168881
-0.097291
-0.259113
-0.309372
-0.213637
-0.093578
-0.180057
-0.055614
-0.088877
0.050898
0.048351
-0.035427
0.062146
0.040254
0.063409
0.047554
0.098812
0.123273
0.067262
0.003804
0.062703
0.166085
0.138092
0.122357
0.139175
0.162811
0.184850
0.175835
0.171502
0.203713
0.323027
0.314619
0.246427
0.252631
0.333178
0.340122
0.388896
0.379960
0.446100
0.372868
0.487664
0.504056
0.561148
0.563491
0.503854
0.544403
0.531202
0.528188
0.627378
0.436446
0.471424
0.564644
0.468427
0.541334
0.479336
0.504619
0.448216
0.458527
0.351698
0.406168
0.291743
0.343190
0.364069
0.307358
0.352123
0.285307
0.269810
0.270263
0.205163
0.237664
0.221940
0.207825
0.180593
0.165419
0.183630
0.028475
0.094631
0.166977
0.078628
0.079569
0.030617
0.035213
0.060573
0.103751
0.059383
0.034701
0.057337
0.067152
0.057524
0.056305
0.054753
0.034277
-0.010434
0.048785
0.020153
0.075374
0.024440
0.083466
0.050697
0.061929
0.081828
0.072676
0.037214
0.026883
0.136336
0.104234
-0.014124
0.097778
0.097455
0.072861
0.027477
0.017204
0.100748
0.024205
0.097580
0.099917
0.075553
0.050465
0.101818
-0.045336
0.010501
0.028395
0.071362
0.051141
0.071734
0.097493
0.047731
0.014304
-0.003588
0.120196
0.062406
0.028351
0.038161
-0.017485
0.010767
-0.025731
0.100245
0.119367
0.069365
0.024204
0.004033
0.093118
0.086925
0.115067
0.102073
0.073134
0.156986
0.117949
0.152058
0.174084
0.135851
0.087840
0.208084
0.179032
0.247644
0.212736
0.237706
0.156384
0.252963
0.271873
0.182936
0.167764
0.185277
0.254011
0.244397
0.241345
0.187589
0.235718
0.155259
0.155732
0.119562
0.171094
0.126751
0.095690
0.155840
0.069534
0.060000
0.089474
0.132773
-0.032922
0.093791
0.070926
0.087568
0.061405
0.135433
0.030322
0.018413
0.108576
0.019213
0.026560
0.060721
0.049582
0.132027
-0.055391
0.042433
0.101468
0.240224
0.427927
0.780299
1.108985
1.346991
1.491350
1.312077
1.125522
0.737892
0.384714
0.167270
-0.070356
-0.236222
-0.155596
-0.153593
-0.051987
-0.048533
0.033664
0.111239
0.033982
0.059203
0.047922
0.071858
0.072324
0.056069
0.059560
0.116603
0.112803
0.082004
0.102888
0.216360
0.195864
0.233683
0.205729
0.148084
0.201209
0.257226
0.233939
0.272329
0.251738
0.337703
0.299533
0.354991
0.385757
0.380526
0.461231
0.504468
0.427778
0.495908
0.488934
0.525432
0.517941
0.518086
0.597280
0.496120
0.540698
0.654147
0.598122
0.584522
0.568351
0.497327
0.536317
0.555701
0.492882
0.492019
0.481364
0.371178
0.383288
0.415383
0.335680
0.352569
0.332624
0.365248
0.304383
0.202439
0.223036
0.270026
0.196021
0.260964
0.152799
0.236730
0.170883
0.113922
0.103383
0.145526
0.148583
0.096480
0.119797
0.106255
0.026374
0.097414
0.133901
0.134208
0.056699
0.089079
-0.034043
-0.000261
-0.006262
-0.005079
-0.072775
0.062823
0.002510
0.020848
0.028138
-0.015571
-0.067078
-0.027744
0.031552
-0.006357
0.065009
-0.055817
-0.066016
0.060633
-0.020110
-0.010107
0.112717
-0.035433
0.048861
-0.014833
0.057930
-0.016606
-0.005070
-0.026917
-0.063332
-0.009194
0.032892
0.028779
0.042231
-0.078598
-0.004393
0.112859
0.045016
0.049613
-0.068913
0.039028
0.028957
-0.043751
-0.021400
0.012908
0.003701
0.008487
-0.012177
-0.001569
0.044264
-0.024120
0.015975
-0.029017
-0.008031
-0.121901
-0.009863
-0.033920
-0.022149
0.033071
-0.003593
0.000525
0.066381
0.057288
0.068183
0.047702
0.018024
0.057872
0.074858
0.168898
0.124095
0.119066
0.193963
0.171307
0.118588
0.157207
0.158897
0.193826
0.126355
0.153945
0.075268
0.155955
0.008986
0.127729
0.184723
0.135345
0.110635
0.059405
0.059550
-0.007541
0.060150
-0.001847
0.059519
0.091665
0.033162
-0.055238
0.031497
-0.045517
-0.029878
0.030877
-0.057598
-0.043489
0.010612
-0.002050
-0.078668
-0.127663
-0.042087
-0.054990
-0.060082
-0.068978
-0.143305
-0.030386
0.037095
0.189243
0.496397
0.855791
1.202724
1.325628
1.328585
1.133297
0.801099
0.422097
0.198078
-0.050283
-0.237033
-0.314982
-0.216533
-0.205612
-0.110084
-0.030256
-0.050032
-0.033668
-0.117766
0.018460
-0.013292
-0.052606
-0.029957
-0.030271
0.012304
-0.000458
0.102643
0.050469
0.027937
0.079473
0.083028
0.033337
0.041848
0.104668
0.171951
0.123766
0.117485
0.224817
0.140671
0.183562
0.243345
0.285759
0.236208
0.330711
0.336844
0.353012
0.399832
0.420006
0.349581
0.403301
0.351441
0.437583
0.416025
0.374243
0.401754
0.456910
0.411041
0.497948
0.448601
0.390933
0.408111
0.323510
0.460119
0.396039
0.384218
0.339221
0.272326
0.229421
0.235807
0.178825
0.287541
0.271705
0.138871
0.158051
0.066255
0.216000
0.067783
0.144025
0.062102
0.075797
0.090704
0.094529
0.039046
0.043777
0.015125
0.004753
-0.027500
-0.103651
-0.045380
-0.077378
-0.055304
-0.129085
-0.062540
-0.076996
-0.148063
-0.102980
-0.093526
-0.113513
-0.159549
-0.167294
-0.052068
-0.108812
-0.117670
-0.096150
-0.069230
-0.128707
-0.066164
-0.184604
-0.108289
-0.038207
-0.155704
-0.113540
-0.074296
-0.128467
-0.086490
-0.137764
-0.039494
0.040767
-0.118708
-0.178846
-0.061433
-0.068195
-0.064614
-0.086748
-0.086631
-0.147689
-0.105776
-0.176224
-0.023527
-0.078082
-0.073802
-0.148824
-0.198050
-0.072326
-0.092683
-0.113449
-0.057301
-0.031280
-0.146043
-0.094427
-0.036003
-0.099720
-0.093938
-0.136055
-0.071219
-0.117549
-0.092757
-0.125936
-0.076867
-0.074881
-0.055535
-0.072928
-0.089852
0.021592
-0.065705
-0.130938
0.024084
0.081296
0.019124
-0.059589
-0.005317
0.032180
0.038542
0.058387
0.064650
0.070596
0.098108
0.096935
0.072810
0.031950
-0.029224
0.092567
0.036978
0.048531
-0.003373
0.000835
0.089061
0.038349
0.051138
0.030911
-0.075973
-0.009167
-0.072776
-0.076860
-0.046927
-0.052272
-0.040229
-0.042570
-0.099760
-0.065047
-0.113117
-0.145835
-0.107053
-0.035695
-0.005466
-0.071194
-0.126273
-0.114294
-0.170556
-0.164432
-0.171257
-0.143073
-0.168161
-0.162077
0.018574
0.283804
0.613827
0.905607
1.178056
1.318387
1.189284
1.035937
0.704334
0.302913
0.013279
-0.302932
-0.280028
-0.350087
-0.255569
-0.139585
-0.013032
-0.095917
-0.071985
-0.065239
-0.028718
-0.058000
-0.075212
0.073152
-0.024489
-0.110822
-0.068213
-0.106261
-0.091776
-0.025569
0.036093
0.032517
0.026146
-0.039478
0.071446
0.074329
0.204481
0.105804
0.098359
0.192933
0.120451
0.233210
0.201342
0.324652
0.357384
0.324264
0.375568
0.369514
0.435821
0.332810
0.404177
0.454070
0.405878
0.407575
0.415443
0.422964
0.423418
0.460206
0.536693
0.455087
0.429040
0.394559
0.422105
0.397179
0.315702
0.431419
0.247984
0.443021
0.324448
0.240482
0.267953
0.340819
0.288797
0.180094
0.243304
0.237082
0.164606
0.074300
0.226102
0.074803
0.145176
0.090864
0.102281
0.123051
0.027443
0.054240
0.098714
0.051249
-0.007337
-0.039656
0.042664
-0.000526
0.018505
-0.093150
-0.000672
-0.085410
-0.109043
0.016543
0.000079
0.016132
0.020603
-0.018692
0.016198
-0.135163
-0.083782
0.010368
-0.063132
0.017306
-0.050483
0.014882
-0.030407
-0.168958
-0.041627
-0.001577
-0.017264
-0.033065
-0.110977
-0.041292
-0.040416
-0.146155
-0.075975
0.013038
-0.099065
-0.038702
-0.008496
-0.081993
-0.075265
0.028149
-0.051349
-0.033426
0.020550
-0.030971
-0.020837
-0.058627
-0.077141
0.000511
0.032026
-0.039963
-0.023563
-0.050653
-0.006585
-0.022303
-0.008178
0.021355
-0.042619
0.025719
0.019989
-0.027333
-0.013509
0.027527
0.003157
0.036313
0.029520
0.055829
0.010480
0.008886
0.096377
0.020103
0.076462
0.071536
0.099441
0.050462
0.175298
0.046128
0.209495
0.198852
0.194008
0.165932
0.214493
0.157771
0.231776
0.200952
0.233978
0.199116
0.165327
0.217684
0.117361
0.189328
0.139058
0.120101
0.126213
0.166216
0.136744
0.152204
0.039193
0.080391
0.095462
0.047274
0.043407
0.061914
0.003532
0.041208
0.001659
0.026947
0.007253
-0.017869
0.009432
0.002280
-0.029079
-0.011527
0.009598
0.091382
0.041855
0.013261
-0.032390
0.104526
0.386341
0.563652
0.843742
1.261302
1.399975
1.415689
1.229475
0.834595
0.562593
0.209593
0.001831
-0.159018
-0.239136
-0.151373
-0.064544
-0.000690
0.056823
0.051304
-0.004672
0.032439
0.118902
0.138924
0.062118
0.103515
0.090473
0.170574
0.102318
0.073154
0.116411
0.135964
0.163917
0.107587
0.188553
0.193892
0.259077
0.247694
0.329458
0.192831
0.177668
0.255058
0.345787
0.353313
0.488467
0.375425
0.412511
0.433064
0.439207
0.529541
0.495550
0.402737
0.492284
0.578801
0.527912
0.506745
0.616130
0.590907
0.522370
0.607775
0.535624
0.524162
0.586845
0.511217
0.472607
0.590908
0.544640
0.489766
0.471644
0.461812
0.417952
0.427450
0.412422
0.309888
0.341883
0.287616
0.287194
0.227652
0.261450
0.237070
0.230172
0.229628
0.181866
0.229007
0.116575
0.094800
0.198386
0.196954
0.123900
0.112717
0.151263
0.107665
0.155601
0.103189
0.144024
0.086037
0.089736
0.094018
0.128335
0.107934
0.146123
0.080403
0.039792
0.136034
0.115002
0.112719
0.041853
-0.006042
-0.006869
0.118839
0.060892
0.009431
0.115662
0.057292
0.066782
0.074685
0.143368
0.085545
0.076448
0.088493
0.127759
0.061987
0.085192
0.090016
0.064950
0.020262
0.070444
0.040682
0.092989
0.041786
0.091668
0.018624
0.092426
0.128253
0.065943
0.055431
0.079962
0.186074
0.035846
0.129779
0.003083
0.090886
0.083858
0.060648
0.036514
-0.011468
0.150772
0.120901
0.071448
-0.005640
0.113799
0.073272
0.132480
0.095733
0.108100
0.118109
0.097452
0.173771
0.177318
0.267312
0.157286
0.213678
0.187047
0.194567
