0.013163
0.022150
0.010140
0.031663
-0.025660
-0.061483
0.035703
0.028050
-0.067127
0.067918
0.041992
0.040115
0.044122
0.051842
-0.018722
0.087077
0.052796
0.036207
0.045251
0.035668
0.114010
0.034601
0.004672
0.048645
0.069691
0.141518
0.130362
0.163565
0.157027
0.170355
0.141305
0.137050
0.229348
0.204868
0.175522
0.158112
0.187414
0.197091
0.154280
0.266800
0.131381
0.154621
0.192804
0.151846
0.104653
0.171987
0.062490
0.194636
0.156047
0.082406
0.128972
0.121968
0.104305
0.028770
0.063116
0.114847
0.103455
-0.002345
0.034894
0.050470
0.057847
-0.009946
0.060568
0.112771
0.181937
0.251077
0.551686
0.791648
1.121450
1.382946
1.395516
1.326164
1.054335
0.663431
0.323975
0.009645
-0.112121
-0.145168
-0.075229
0.031885
-0.027008
0.051862
0.090532
0.180609
0.075819
0.212551
0.192602
0.217000
0.223410
0.170817
0.203473
0.254732
0.258113
0.333177
0.352181
0.280826
0.370592
0.382411
0.415205
0.409700
0.463070
0.400539
0.473755
0.443903
0.490902
0.409796
0.539246
0.565626
0.558403
0.516906
0.554979
0.687497
0.540865
0.624337
0.617559
0.616209
0.707551
0.573289
0.553357
0.588594
0.517232
0.429916
0.524356
0.485471
0.462623
0.421354
0.453495
0.384930
0.415608
0.349029
0.279480
0.298139
0.268479
0.348052
0.219838
0.305233
0.237117
0.212755
0.259353
0.177269
0.239434
0.141412
0.117030
0.180622
0.119828
0.051470
0.139961
0.196165
0.098587
0.129592
0.034834
0.085672
0.135590
0.101369
0.075239
0.085110
0.082093
0.110399
0.102016
0.100146
0.063261
0.152796
0.062674
0.123080
0.024335
0.103688
0.137707
0.044965
0.139122
0.150192
0.052029
0.000462
0.100510
0.062186
0.111915
0.098433
0.043241
0.143327
0.062697
0.158303
0.089155
0.126392
0.045135
0.105767
0.058153
0.155624
0.050321
0.077765
0.067967
0.071705
0.204664
0.174985
0.092776
0.130819
0.184047
0.164105
0.225003
0.191057
0.142081
0.193410
0.173710
0.232362
0.235511
0.275446
0.321756
0.250120
0.226749
0.311533
0.255124
0.310690
0.221316
0.246745
0.261547
0.220764
0.256766
0.188456
0.226065
0.214933
0.231533
0.154082
0.125778
0.216962
0.146229
0.142801
0.177733
0.076952
0.137378
0.130654
0.109129
0.194605
0.080484
0.136567
0.032159
0.095006
0.136010
0.068530
0.105777
0.032580
0.073704
0.269701
0.476235
0.715117
1.019983
1.216812
1.500000
1.380600
1.197317
0.887348
0.529179
0.177165
-0.003622
-0.076158
-0.108357
-0.025206
0.049251
0.140203
0.156722
0.077471
0.200053
0.129025
0.184245
0.214371
0.210097
0.247116
0.210969
0.252412
0.263888
0.299506
0.275479
0.316251
0.364280
0.291952
0.399310
0.363823
0.428328
0.487606
0.478450
0.542966
0.489346
0.489533
0.522485
0.556800
0.598427
0.648539
0.614923
0.636340
0.616459
0.499403
0.572916
0.605065
0.477847
0.668147
0.403932
0.541372
0.507425
0.551941
0.528983
0.549426
0.391073
0.368156
0.489240
0.486594
0.397597
0.384793
0.460980
0.340737
0.320057
0.318690
0.244183
0.324124
0.235932
0.213533
0.225187
0.213646
0.181528
0.151944
0.163879
0.180341
0.093786
0.150567
0.045103
0.113250
0.128884
0.121577
0.058311
0.137460
0.079436
0.089441
0.099749
0.095992
0.009133
0.024736
0.080958
0.061442
-0.008285
0.099698
0.089282
0.034712
-0.013973
-0.031283
0.098966
0.083297
0.087360
0.026551
0.034519
0.062007
0.060439
0.080593
-0.008593
0.004514
0.030380
-0.021467
0.046350
-0.017212
0.011731
0.033162
-0.005577
0.054776
0.044157
0.096324
0.045002
0.030863
0.087843
0.008056
0.151658
0.128856
0.055184
0.048197
0.021324
0.084970
0.148925
0.105278
0.146646
0.179922
0.238421
0.090308
0.135614
0.235528
0.128428
0.140219
0.206049
0.191085
0.211066
0.273441
0.199748
0.249710
0.168232
0.225856
0.219094
0.236628
0.122283
0.166320
0.081035
0.175328
0.105863
0.112696
0.082637
0.098033
0.095773
0.071126
0.059637
0.099082
0.054685
0.091342
0.077086
0.077240
0.060081
-0.004223
-0.042571
0.010223
0.077239
0.051840
0.050141
0.137205
0.253193
0.478199
0.760233
1.138176
1.182082
1.390418
1.165066
0.939786
0.532495
0.103500
-0.034832
-0.119680
-0.132109
-0.146331
-0.008043
-0.021480
0.019906
0.152504
0.105154
0.121195
0.029322
0.106805
0.200180
0.201237
0.135354
0.145707
0.140683
0.134523
0.271516
0.183867
0.255319
0.350035
0.263267
0.191533
0.313199
0.293217
0.374429
0.374985
0.399730
0.419849
0.443060
0.454849
0.418542
0.429868
0.519039
0.552130
0.519325
0.536971
0.497254
0.555302
0.504535
0.536936
0.486159
0.410704
0.400899
0.453003
0.455542
0.431978
0.451265
0.406793
0.393484
0.397232
0.363122
0.355969
0.282699
0.320326
0.219186
0.261229
0.135990
0.145355
0.214450
0.068034
0.155074
0.140474
0.059504
0.083374
0.033858
0.134531
0.061374
0.029723
0.003570
0.032391
0.045278
-0.082222
0.051450
0.016110
0.035656
-0.008547
0.028217
-0.059201
0.000759
-0.025373
-0.009665
-0.054304
-0.101995
-0.082938
-0.084373
-0.117049
-0.030791
-0.099933
-0.028461
-0.037617
-0.058437
-0.055318
-0.002030
-0.045827
-0.063198
-0.027609
-0.069728
0.010730
-0.059857
-0.043267
-0.065618
0.008550
-0.060718
-0.073896
0.001570
-0.087140
-0.002470
-0.009581
-0.080628
-0.056067
0.044938
-0.063155
-0.000775
-0.025658
-0.000104
-0.025685
-0.005983
0.010440
-0.000682
0.030196
0.082332
0.108582
-0.062893
0.098392
0.153777
0.190723
0.176462
0.005369
0.182097
0.116864
0.032403
0.021689
0.042177
0.167442
0.064241
0.141713
0.139207
0.067936
0.126804
0.124749
0.072273
0.076447
0.071279
0.118731
0.034400
0.053806
0.046384
0.038972
-0.049195
0.059566
-0.022457
-0.018538
0.085398
0.048098
-0.049452
-0.038029
-0.043755
-0.044185
-0.041838
-0.090441
-0.041836
0.051402
0.258915
0.340309
0.650193
0.972585
1.226293
1.281420
1.273494
0.929439
0.614829
0.234676
0.019506
-0.186216
-0.200744
-0.166629
-0.084798
-0.075685
-0.113010
-0.146644
-0.008977
-0.017836
-0.011980
0.079431
0.092141
0.197023
0.111311
0.094380
0.121468
0.077884
0.187334
0.206539
0.184985
0.200758
0.210482
0.270432
0.308069
0.408796
0.319102
0.367440
0.294690
0.390681
0.402938
0.425297
0.475112
0.378782
0.453451
0.533167
0.510214
0.449257
0.449578
0.515421
0.484499
0.469319
0.519137
0.441305
0.457214
0.376100
0.500469
0.472738
0.390002
0.354203
0.422555
0.390501
0.336782
0.297959
0.319220
0.238207
0.198720
0.157888
0.174689
0.174795
0.156615
0.114624
0.177075
0.045629
0.089649
0.072770
0.008130
0.076940
0.055307
0.075574
0.080582
-0.003375
0.007822
0.048156
0.005684
-0.038473
0.031693
-0.005908
-0.047271
-0.073058
-0.021899
-0.065890
0.004838
0.064279
-0.098594
0.026719
0.018784
-0.033695
-0.062120
-0.092687
0.075263
-0.033388
-0.018316
0.083649
0.041499
-0.040450
0.031308
0.022322
0.000588
-0.017115
0.025092
0.048000
-0.018092
-0.031376
0.002759
-0.089216
0.024224
0.003505
-0.045392
0.028581
0.030082
0.003017
0.044599
-0.040963
0.021345
0.076779
0.082460
0.115824
0.060048
0.051654
0.135381
0.129383
0.108115
0.134786
0.078059
0.140928
0.092231
0.140130
0.144538
0.150255
0.203245
0.145943
0.133247
0.204214
0.179967
0.137804
0.201917
0.209766
0.124412
0.128523
0.170784
0.188426
0.119374
0.170561
0.066240
0.166159
0.111036
0.158154
0.066631
0.079357
0.012020
0.017172
0.014702
0.042824
0.087207
0.036189
-0.035609
0.039053
0.062042
0.072303
0.059291
0.086947
0.128325
0.122406
0.196961
0.330534
0.650891
0.887816
1.217422
1.424361
1.409767
1.186267
0.856484
0.507986
0.186809
-0.064089
-0.119309
-0.113575
-0.128617
-0.024333
0.044472
-0.011896
0.104277
0.075708
0.146935
0.148160
0.188221
0.165005
0.173302
0.259911
0.247585
0.224834
0.263854
0.302780
0.249341
0.360823
0.302362
0.379965
0.405538
0.403943
0.381204
0.456938
0.452385
0.432484
0.415990
0.451553
0.548539
0.485416
0.532609
0.518102
0.597406
0.536951
0.488164
0.621301
0.542561
0.566726
0.553925
0.560139
0.494501
0.565508
0.593780
0.481089
0.492368
0.412374
0.489496
0.427605
0.434222
0.314479
0.401236
0.391062
0.381989
0.288027
0.294282
0.250364
0.307969
0.197020
0.311489
0.209445
0.143004
0.225993
0.180641
0.136970
0.132664
0.162689
0.154615
0.214889
0.125985
0.048653
0.098634
0.074171
0.044438
-0.020263
0.102742
0.067986
0.094948
0.016884
0.083695
0.125645
0.063417
0.087009
0.035524
0.157613
0.045442
0.107191
0.042847
0.073032
0.096919
0.099595
0.039135
0.111941
0.086514
0.064074
0.119172
0.121067
0.150032
0.064077
0.107312
0.084426
0.043667
0.062748
0.064996
0.079090
0.075321
0.088961
0.055842
0.043835
0.077302
0.135194
0.167507
0.075162
0.179854
0.191621
0.112667
0.072669
0.191988
0.233576
0.137590
0.221137
0.217755
0.132652
0.163774
0.127560
0.262891
0.269246
0.282298
0.278897
0.256654
0.355727
0.326868
0.205057
0.242903
0.233945
0.258602
0.281608
0.238620
0.215523
0.240613
0.216072
0.154971
0.223101
0.262950
0.220369
0.149143
0.233546
0.100070
0.154101
0.109659
0.128167
0.225256
0.034955
0.169018
0.053431
0.122050
0.117734
0.079435
0.102466
0.111591
0.093659
0.216153
0.323593
0.429088
0.842230
1.177268
1.351270
1.463445
1.367552
1.058407
0.739324
0.411911
0.121704
-0.111019
0.012976
-0.040649
0.030379
0.150173
0.078709
0.096271
0.156431
0.166097
0.140735
0.220145
0.193652
0.168296
0.234719
0.247402
0.257352
0.294101
0.320729
0.280448
0.284326
0.374145
0.324775
0.322138
0.491638
0.488426
0.491365
0.473143
0.498989
0.515851
0.450236
0.590083
0.538901
0.587266
0.596324
0.608601
0.566226
0.624508
0.602681
0.569952
0.579024
0.639710
0.574622
0.686419
0.503272
0.551311
0.546043
0.542935
0.600138
0.498535
0.449030
0.521153
0.486692
0.357945
0.330466
0.329497
0.382222
0.393029
0.284390
0.309857
0.290474
0.221580
0.270618
0.283860
0.210144
0.206999
0.153657
0.182075
0.124102
0.178583
0.253531
0.125462
0.105696
0.160739
0.029997
0.117011
0.159617
0.145877
0.093109
0.075615
-0.056148
0.096644
0.108022
0.048452
-0.016175
0.079471
0.064672
0.087377
0.082455
0.132091
0.091259
0.074893
0.013485
0.058065
0.129357
-0.010494
0.113311
0.098815
0.049665
0.054967
0.056634
0.124486
0.093805
0.102139
0.081193
0.092717
0.138683
0.096690
-0.003844
-0.010480
0.046521
0.050291
0.044760
0.034366
0.046971
0.084407
0.075994
0.085999
0.217735
0.108230
0.116007
0.081182
0.166622
0.156460
0.115193
0.211342
0.112719
0.203598
0.240308
0.229218
0.285349
0.198544
0.276855
0.255521
0.245195
0.253353
0.176089
0.195364
0.221151
0.240661
0.217073
0.183041
0.201276
0.115553
0.099676
0.230388
0.209559
0.111484
0.126018
0.146329
0.041840
-0.006006
0.097222
0.051275
0.068024
0.035773
0.113018
0.083326
0.034072
-0.011477
0.089711
-0.020233
-0.040764
0.114572
0.086435
0.373401
0.604166
0.895819
1.298303
1.377119
1.319829
1.159080
0.695832
0.395439
0.077671
-0.087365
-0.085981
-0.125407
-0.039799
-0.045403
-0.004184
0.027827
0.010086
0.096490
0.094167
0.141043
0.158255
0.102586
0.141938
0.150919
0.178021
0.239511
0.199350
0.147548
0.209440
0.241931
0.263639
0.295086
0.315594
0.302664
0.294019
0.361153
0.468675
0.380301
0.490283
0.382929
0.412649
0.546910
0.498929
0.530310
0.529515
0.462280
0.537784
0.500579
0.535489
0.471263
0.533113
0.471724
0.549728
0.434029
0.420202
0.446944
0.448189
0.417598
0.403980
0.313399
0.326152
0.328742
0.336092
0.273901
0.297117
0.201821
0.265733
0.159895
0.197445
0.161560
0.200310
0.148744
0.075913
0.119874
0.072603
0.058281
0.035266
0.133076
0.069301
0.100629
-0.005602
0.082550
0.029886
-0.076022
-0.124690
-0.036121
0.068696
0.011298
0.014215
0.006683
-0.021514
-0.051630
-0.073059
-0.084219
-0.041901
-0.064728
-0.000892
-0.093560
-0.038655
-0.041856
-0.065852
-0.023399
-0.080246
-0.109031
-0.003287
-0.050561
-0.051561
-0.019398
-0.105934
-0.058517
-0.043831
-0.030952
0.014383
0.008662
-0.108126
-0.063416
-0.092173
-0.049047
0.005271
-0.038826
-0.098304
-0.007426
-0.017368
-0.102884
0.020343
-0.012014
-0.035158
0.030795
0.013270
0.018199
-0.073659
0.028441
0.088942
0.022910
0.013663
0.041700
0.057947
0.116673
0.095280
0.159486
0.104877
0.095621
0.113133
0.110204
0.022839
0.060073
0.087198
0.130256
0.096957
-0.000567
0.064797
0.150110
0.043495
-0.041927
0.020254
-0.091835
0.032252
0.006188
0.030924
-0.059930
-0.027116
-0.005184
-0.010288
-0.035680
-0.137042
-0.011594
0.004220
-0.001474
-0.050213
-0.130971
-0.042788
-0.092861
0.018414
0.118065
0.392539
0.730984
1.034420
1.248919
1.328481
1.178198
0.800902
0.433148
0.107581
-0.097645
-0.208916
-0.239424
-0.121342
-0.101032
-0.111767
0.052069
-0.029920
0.050062
-0.008993
0.037662
0.022680
-0.007212
0.000034
0.063432
0.128682
0.128646
0.178965
0.098320
0.121634
0.130881
0.219699
0.209572
0.176955
0.255056
0.299374
0.341179
0.321937
0.197226
0.316634
0.383156
0.408201
0.330914
0.423776
0.451048
0.413326
0.492010
0.488439
0.441457
0.506506
0.438703
0.454511
0.443727
0.429160
0.501553
0.385983
0.310780
0.315532
0.365307
0.288526
0.312707
0.306990
0.253495
0.265368
0.204319
0.160904
0.134879
0.145612
0.112341
0.115972
0.108477
0.072896
0.055773
0.091004
-0.032309
0.070485
-0.051641
-0.017230
-0.020016
-0.007303
0.026832
-0.041976
-0.076386
0.004765
0.014229
-0.043330
-0.016633
-0.093202
-0.054668
-0.057579
-0.121639
-0.093749
-0.112119
0.012899
-0.083651
-0.033380
-0.115863
-0.099536
-0.050247
-0.069496
-0.113525
-0.085668
-0.058519
-0.072764
-0.008608
-0.117220
-0.054069
-0.002716
-0.083302
0.050475
-0.054700
-0.066005
-0.082799
-0.057693
0.002222
-0.095432
-0.121177
-0.022385
0.002469
-0.056789
-0.000122
-0.101306
-0.077307
-0.102481
0.027810
-0.156131
0.013513
-0.012452
-0.080992
0.073502
-0.011034
0.052971
0.085636
-0.036766
0.082818
0.037906
0.051030
0.028810
0.143488
0.026580
0.074748
0.169813
0.145562
0.115034
0.140226
0.127793
0.171984
0.112210
0.111689
0.129838
0.232809
0.106779
0.051823
0.045778
0.012857
-0.006345
0.035453
0.075292
-0.019788
0.138459
-0.037131
-0.027748
-0.038087
-0.021347
-0.034114
-0.091761
-0.020461
-0.054530
0.034623
-0.130785
0.037019
-0.070336
-0.046099
0.045806
0.182577
0.380307
0.605585
0.904150
1.169945
1.394244
1.241253
0.994985
0.730510
0.313722
-0.069768
-0.185016
-0.116308
-0.092421
-0.182804
-0.065976
0.089661
0.020395
-0.017495
0.042086
0.075257
0.118798
0.094374
0.037061
0.149518
0.103101
0.144390
0.069007
0.108849
0.141833
0.202282
0.243746
0.247021
0.222488
0.269665
0.288145
0.321299
0.400216
0.405911
0.362579
0.424833
0.341117
0.397733
0.446080
0.475392
0.440692
0.485129
0.542483
0.440720
0.532654
0.429939
0.479037
0.572734
0.548198
0.530154
0.429600
0.440543
0.344155
0.403134
0.365192
0.447054
0.390802
0.313161
0.378659
0.306374
0.311357
0.295158
0.166585
0.281824
0.180036
0.215530
0.200997
0.196161
0.162530
0.114612
0.152040
0.097742
0.099068
0.056077
0.113702
0.081212
0.051842
0.062820
0.000526
0.015480
0.071901
0.010891
0.047061
-0.021642
0.026007
-0.019910
0.010340
-0.058380
-0.051401
-0.085787
0.052323
-0.099265
0.007784
0.011372
0.012940
-0.010732
0.084717
0.055969
0.002169
0.077027
0.003495
0.063623
0.075233
0.070881
-0.016380
0.034007
0.007004
-0.051252
-0.013600
0.038451
0.096569
-0.025140
0.093609
-0.087219
0.036888
0.007729
0.023015
0.046262
0.060536
-0.029304
0.074288
0.120066
0.115269
0.065690
0.091076
0.042139
0.144311
0.132211
0.012202
0.098177
0.088226
0.160645
0.136836
0.199489
0.130314
0.159733
0.176077
0.189056
0.206500
0.218686
0.159281
0.190496
0.178382
0.182189
0.184779
0.171389
0.210574
0.119516
0.225067
0.164630
0.130752
0.180602
0.138365
0.071803
0.103597
0.138083
-0.014365
0.074018
0.058313
0.065003
0.024333
0.093061
0.050676
0.009198
0.038313
-0.025540
0.067129
-0.028637
0.097352
0.147615
0.276387
0.495324
0.856899
1.207493
1.282084
1.408134
1.248738
0.817149
0.469434
0.265034
-0.028164
-0.065223
-0.074489
-0.049782
-0.007925
0.049623
0.131559
0.177056
0.167984
0.131494
0.191286
0.206157
0.225129
0.203633
0.167800
0.217780
0.262269
0.313931
0.257169
0.277329
0.287384
0.287846
0.315070
0.355355
0.330667
0.434465
0.444543
0.461464
0.512167
0.483109
0.509166
0.521591
0.491439
0.581576
0.565906
0.527471
0.572629
0.525397
0.640141
0.519182
0.547123
0.567864
0.542657
0.463506
0.566794
0.504765
0.506613
0.491404
0.590858
0.477159
0.448094
0.443103
0.349271
0.369368
0.356558
0.364427
0.308302
0.222861
0.276856
0.147365
0.256177
0.247979
0.270982
0.214912
0.137746
0.176156
0.167699
0.144366
0.111764
0.123633
0.055480
0.094623
0.054457
0.051585
0.053965
0.123975
0.100939
0.124848
0.019019
0.068316
0.047652
0.028064
0.059196
0.067322
0.074356
0.014722
0.048523
0.010922
0.006847
0.106874
0.030790
-0.012024
-0.029726
-0.020590
0.022755
0.095332
0.010987
0.072616
0.082819
0.050320
-0.002279
0.018462
0.037742
-0.021204
0.074176
0.073320
0.017066
0.030575
-0.021632
0.041130
0.033025
0.117691
0.021800
0.065504
0.059915
0.042434
0.075571
0.094588
0.103658
0.096903
0.079980
0.138372
0.069868
0.116091
0.165165
0.145659
0.134466
0.143592
0.185530
0.203905
0.258750
0.217471
0.237778
0.220548
0.197770
0.236727
0.232261
0.205692
0.176632
0.219799
0.183505
0.187683
0.201047
0.139892
0.224030
0.152664
0.189716
0.150020
0.095644
0.035005
0.033725
-0.012521
-0.064281
0.118282
-0.005828
0.029441
-0.008526
0.009601
-0.007278
0.001836
0.039881
0.019372
0.017041
0.143746
0.192494
0.428437
0.728899
0.978330
1.351895
1.320147
1.254831
1.153038
0.639540
0.294368
0.056973
-0.142196
-0.135983
-0.171248
-0.084172
0.064249
0.030535
0.058344
0.049687
0.068992
0.120001
0.050533
0.172645
0.075838
0.154620
0.180579
0.110359
0.169123
0.136849
0.251269
0.327285
0.290623
0.304809
0.306615
0.283679
0.369476
0.305173
0.364057
0.405623
0.488499
0.482291
0.446491
0.470160
0.475423
0.514898
0.560029
0.482524
0.506281
0.473952
0.494255
0.539717
0.509000
0.575924
0.507455
0.482135
0.434189
0.423461
0.471068
0.439962
0.335252
0.421515
0.369906
0.356882
0.320857
0.284487
0.297250
0.229925
0.223423
0.218107
0.309684
0.129702
0.154826
0.130218
0.080959
0.054002
0.148882
0.120157
0.013888
0.066271
0.109776
0.037166
0.031824
0.033396
0.039971
-0.003739
-0.068836
0.021338
0.010190
0.015677
-0.031800
-0.011355
0.046985
-0.016019
0.010000
0.019078
-0.108654
-0.007916
-0.062074
-0.007207
-0.095205
-0.031920
-0.090479
0.045865
0.000280
-0.078268
-0.039040
-0.011140
-0.067654
-0.061757
-0.057870
-0.036233
-0.017459
-0.058394
0.046418
-0.011516
-0.072827
-0.060955
-0.103598
-0.086485
-0.011715
0.011688
-0.012560
-0.031049
-0.027655
-0.033432
0.022274
-0.042462
-0.045705
-0.093680
0.034401
-0.052151
0.012300
0.024171
0.022763
0.098127
0.042409
0.093171
0.067995
0.017444
0.106829
0.158573
0.139096
0.107200
0.097844
0.120168
0.148733
0.038319
0.097159
0.146596
0.027535
0.130792
0.101979
0.040629
-0.042745
-0.005545
0.041564
0.004545
0.018999
0.015890
-0.006512
-0.058444
-0.054801
-0.003294
-0.004010
-0.028893
-0.010811
-0.093307
-0.097766
-0.064479
-0.108501
-0.039825
-0.125949
-0.059954
0.000424
0.023595
0.215680
0.556709
0.785669
1.132544
1.287162
1.245145
1.042631
0.810563
0.305888
0.036825
-0.182050
-0.248246
-0.190810
-0.209296
-0.158063
-0.034256
0.038089
-0.058978
-0.036075
-0.009980
0.030607
0.026145
0.006616
0.066567
0.034590
0.095117
0.065841
0.043782
0.175830
0.197901
0.195054
0.159416
0.249739
0.215328
0.239427
0.292863
0.187357
0.276793
0.264331
0.275527
0.280934
0.370899
0.347990
0.404987
0.345835
0.401565
0.453764
0.428872
0.445001
0.423490
0.411391
0.358960
0.432350
0.363253
0.363492
0.370953
0.312183
0.398903
0.366542
0.213374
0.313269
0.161368
0.241669
0.254731
0.153849
0.276869
0.175012
0.146957
0.126442
0.130869
0.067753
0.093072
0.102804
-0.028237
0.060161
-0.023194
0.000479
-0.009007
-0.093635
0.021511
-0.127647
-0.052606
-0.048857
-0.021566
-0.028017
-0.163322
-0.068132
-0.078871
-0.090384
-0.049062
-0.074255
-0.104084
-0.072670
-0.143747
-0.059031
-0.125190
-0.032212
-0.083329
-0.120172
-0.188962
-0.123809
-0.130572
-0.112441
-0.106388
-0.153361
-0.018027
-0.143438
-0.166894
-0.125541
-0.146473
-0.051992
-0.108146
-0.156147
-0.093711
-0.068167
-0.132965
-0.100648
-0.079594
-0.089292
-0.092538
-0.114923
-0.146985
-0.073583
-0.097387
-0.018569
-0.156400
-0.026991
-0.016680
0.006623
-0.029675
0.017419
-0.005983
0.025197
-0.008776
0.033682
0.073672
0.159127
0.059029
0.093090
0.029431
0.153519
0.129518
0.110469
0.088672
0.142443
0.109097
0.100030
0.098353
0.097985
0.028875
0.023220
0.056825
0.027056
0.042978
0.125072
0.000901
-0.012589
-0.035405
0.006507
-0.000149
-0.029594
0.005660
-0.077602
-0.103335
-0.110190
-0.009797
0.013322
-0.109163
-0.098576
-0.130905
-0.094595
-0.067610
0.001782
-0.020285
0.131815
0.393140
0.565390
0.978489
1.299649
1.289549
1.199718
0.935848
0.484728
0.132998
-0.161540
-0.200897
-0.252890
-0.160279
-0.050745
-0.067616
-0.094264
-0.012598
0.032070
0.014240
0.051004
0.046199
0.120819
0.076653
0.015836
0.016782
0.105183
0.151095
0.109916
0.150232
0.114648
0.159615
0.176837
0.235985
0.258302
0.332473
0.361548
0.275320
0.310900
0.329885
0.358096
0.375674
0.415099
0.444716
0.358798
0.460967
0.414251
0.484746
0.497859
0.517588
0.538694
0.544968
0.474823
0.430147
0.464091
0.424098
0.413019
0.388668
0.363911
0.255741
0.327263
0.302515
0.322211
0.298059
0.294853
0.274830
0.213500
0.197117
0.093575
0.114080
0.143708
0.141757
0.038253
0.113616
0.111593
-0.002183
0.082232
0.024431
0.014740
0.033458
0.004504
-0.055848
0.018907
0.031781
-0.008338
0.012855
-0.017772
-0.054440
0.013890
-0.091392
0.011549
0.032241
-0.017457
-0.068879
-0.006579
-0.025954
-0.084998
-0.012261
-0.065059
0.049220
-0.058983
0.021337
0.025688
-0.025336
0.007993
-0.155313
0.032371
-0.042815
0.035367
-0.103501
-0.067983
0.008075
0.010246
-0.103217
-0.004133
-0.034311
-0.009473
0.017196
-0.021050
-0.019357
0.008356
-0.043783
-0.081392
-0.038736
0.004099
0.040003
-0.018452
0.082608
0.122091
0.074940
0.092427
0.045990
0.083469
0.074275
0.133076
0.133642
0.104751
0.168542
0.204779
0.161380
0.232411
0.128821
0.176946
0.172925
0.214142
0.195681
0.231923
0.128368
0.212464
0.200200
0.133025
0.144908
0.156154
0.141675
0.227199
0.129783
0.073979
0.105598
0.098008
0.116874
0.103973
0.043111
0.051670
0.077493
-0.001608
-0.000855
0.020802
-0.014570
0.027379
0.075246
0.119188
0.002174
-0.008235
0.026285
0.257632
0.400543
0.655453
1.029776
1.242603
1.377562
1.292939
1.150736
0.795415
0.468061
0.114431
-0.019756
-0.159816
-0.151757
-0.020312
-0.016197
0.102260
0.053432
0.140088
0.071371
0.088635
0.128888
0.176581
0.139208
0.126213
0.270192
0.220291
0.234569
0.187291
0.328490
0.212494
0.279972
0.381869
0.330587
0.370049
0.382703
0.369084
0.467447
0.507749
0.464952
0.542620
0.511955
0.432242
0.583196
0.605000
0.624813
0.606168
0.620879
0.565724
0.523138
0.475702
0.513110
0.486681
0.569353
0.515575
0.470916
0.446117
0.529278
0.506701
0.460446
0.499686
0.434510
0.488898
0.395359
0.399479
0.358004
0.355306
0.341655
0.233791
0.258595
0.246440
0.254702
0.218037
0.209897
0.235598
0.264669
0.119127
0.136250
0.091620
0.057147
0.049281
0.016352
0.120086
0.135962
0.072536
0.099608
0.061978
0.060516
0.064948
0.100114
0.150335
0.140223
-0.010492
0.105724
0.054326
-0.007144
0.026760
-0.036947
0.113239
0.112617
-0.003999
0.112067
0.108186
0.108272
0.036552
0.023507
0.036593
0.038190
0.041625
-0.004644
0.046763
0.058129
0.032508
0.007425
0.069518
0.100006
0.124444
0.088810
0.061758
0.072053
0.169554
0.063470
0.064725
0.133530
0.010610
0.109013
0.143452
0.082666
0.177515
0.168402
0.164441
0.139922
0.128020
0.101704
0.158670
0.209011
0.321628
0.212535
0.251240
0.177410
0.235095
0.159024
0.165644
0.312695
0.188486
0.318855
0.234080
0.322433
0.244670
0.180150
0.225996
0.218485
0.195261
0.157483
0.177849
0.197069
0.148684
0.228070
0.176816
0.172820
0.099220
0.126867
0.188429
0.007582
0.153368
0.081616
0.067987
0.002468
