-0.043502
0.021018
0.002216
0.002521
0.011241
-0.072018
-0.047871
-0.004129
0.067165
0.021596
-0.038200
-0.004976
-0.004230
0.014313
0.060622
0.039556
-0.016103
-0.010738
0.031015
0.025724
0.011297
0.063985
0.043049
0.020706
0.069808
0.054901
0.128069
0.066961
0.120125
0.113351
0.183930
0.145501
0.141461
0.158855
0.166634
0.257391
0.193220
0.162920
0.167524
0.241973
0.205805
0.178737
0.192353
0.181613
0.229989
0.165264
0.160468
0.130339
0.175883
0.158820
0.100771
0.170058
0.115035
0.167196
0.157626
0.052762
0.110998
0.110056
0.091391
0.036796
0.068437
-0.038845
0.082520
0.056883
-0.009818
0.057710
0.042455
0.043201
0.035264
0.000040
0.107086
0.063938
0.109325
0.205731
0.503028
0.739687
1.134353
1.385318
1.431788
1.342070
1.063132
0.689589
0.425541
0.045775
-0.232221
-0.286640
-0.156455
-0.037555
-0.025238
0.076576
0.081755
0.092213
0.151939
0.109576
0.073630
0.052530
0.135664
0.118304
0.152784
0.133679
0.149610
0.227646
0.200931
0.262398
0.236104
0.217622
0.261856
0.253694
0.280544
0.289284
0.289221
0.382190
0.405529
0.297678
0.457644
0.433337
0.470326
0.523147
0.545947
0.481573
0.545056
0.451676
0.583000
0.544937
0.560204
0.575958
0.616997
0.670100
0.551730
0.637921
0.539740
0.573918
0.528820
0.562461
0.521138
0.489436
0.476488
0.569218
0.495880
0.331448
0.430326
0.367987
0.397121
0.305841
0.359651
0.381305
0.255188
0.236168
0.245774
0.315451
0.210382
0.256264
0.288150
0.236317
0.206032
0.166790
0.099631
0.153302
0.195809
0.111219
0.120146
0.153022
0.067059
0.182961
0.131167
0.144982
0.117120
0.083586
0.075301
0.101342
0.111088
0.121720
0.083481
0.155227
0.053762
0.133498
0.113519
0.039520
0.115633
0.160790
0.202087
0.068762
0.060384
0.029948
0.045235
-0.019886
0.030081
0.060998
0.141312
0.133167
0.080453
0.058320
0.119026
0.079761
0.014442
0.130425
0.108530
0.178251
0.059752
0.143854
0.078996
0.128303
0.096995
0.024708
0.078383
0.018216
0.076507
0.074660
0.055252
0.109492
0.093961
0.102955
0.040372
0.087129
0.134338
0.095741
0.198708
0.178629
0.122409
0.108502
0.197706
0.237383
0.174304
0.136863
0.141169
0.144278
0.265737
0.212545
0.176184
0.215544
0.154090
0.223019
0.289353
0.253345
0.227757
0.262000
0.233884
0.242845
0.232237
0.224989
0.317209
0.237356
0.142508
0.215680
0.191793
0.185032
0.249094
0.094589
0.202488
0.131707
0.138801
0.121390
0.106894
0.076455
0.085806
0.071342
0.030698
0.094156
0.061590
0.076957
0.131054
0.076314
0.063865
0.068195
0.052523
0.073119
0.085025
0.187092
0.299469
0.540594
0.855312
1.092697
1.288704
1.426647
1.335652
0.971777
0.620025
0.315965
0.052168
-0.086271
-0.199701
-0.169453
-0.057850
-0.050082
0.043171
0.076555
0.147260
0.150387
0.077824
0.169725
0.195281
0.164813
0.105586
0.165716
0.140702
0.162213
0.179137
0.225950
0.191481
0.271362
0.268607
0.216865
0.302829
0.306270
0.334527
0.260658
0.395956
0.338819
0.367190
0.459184
0.437828
0.396519
0.501058
0.543584
0.466480
0.441821
0.533955
0.571229
0.586745
0.550674
0.531253
0.503468
0.513937
0.613652
0.539249
0.548473
0.583538
0.537557
0.477324
0.428348
0.527512
0.519957
0.388536
0.426828
0.454016
0.348828
0.378741
0.262903
0.245145
0.350595
0.263947
0.285948
0.226698
0.225356
0.188634
0.218165
0.178676
0.157482
0.131928
0.125394
0.115203
0.122805
0.125555
0.039283
0.170540
0.049169
0.098978
-0.037217
0.042999
0.026397
0.082481
-0.009288
0.076934
-0.014704
0.056634
0.003554
0.013182
0.071768
0.077630
0.017698
0.039297
-0.015174
-0.001989
-0.017293
0.052329
0.012560
0.032121
0.017360
0.001752
0.005008
0.052735
0.032982
0.078535
-0.057707
-0.028080
0.022321
0.030700
0.044953
0.062393
0.022062
0.070993
0.050514
-0.018029
0.044166
0.050602
0.026117
0.036815
-0.006993
0.037501
-0.017602
0.002699
-0.047700
0.015338
0.036433
-0.090070
0.011007
0.035145
-0.048237
0.076018
-0.106056
0.025962
0.000566
0.048545
0.082527
0.036666
0.096955
0.155242
0.049565
0.190341
0.125198
0.088000
0.176187
0.135206
0.188235
0.197765
0.224707
0.166176
0.073755
0.152648
0.164856
0.133079
0.136744
0.206634
0.236406
0.194783
0.052897
0.133734
0.115707
0.080344
0.122238
0.075418
0.153080
0.068083
0.049043
-0.020857
0.115235
0.026769
0.066520
-0.019180
0.051980
-0.015907
0.015243
-0.008372
0.076355
0.030026
-0.054351
-0.022712
-0.015771
0.002070
-0.060185
-0.071077
0.017950
0.030376
0.271903
0.478453
0.801802
1.107317
1.310849
1.313900
1.172738
0.818525
0.449875
0.191070
0.048738
-0.209395
-0.212454
-0.204201
-0.152943
-0.083347
-0.043795
0.025592
0.081159
-0.015827
0.037201
0.043114
0.119804
0.057995
0.032669
0.063593
0.042271
0.162032
0.110122
0.078952
0.184768
0.141804
0.185960
0.160774
0.172405
0.259713
0.237581
0.236227
0.259987
0.285362
0.342780
0.308037
0.374642
0.355876
0.382084
0.392300
0.434464
0.409427
0.524418
0.414975
0.438111
0.500882
0.473990
0.513790
0.505382
0.379991
0.468947
0.446965
0.418032
0.373076
0.426654
0.468323
0.413737
0.333046
0.323821
0.324805
0.352830
0.349334
0.225696
0.254656
0.141682
0.195827
0.206586
0.213147
0.201755
0.144308
0.157233
0.067141
0.175536
0.022460
0.034665
0.000720
0.050941
0.048166
-0.000713
-0.061427
-0.073595
-0.007394
-0.053196
-0.035036
-0.087815
-0.051355
0.013980
0.023402
0.036959
-0.036482
-0.044497
-0.139659
-0.043420
-0.074925
-0.051831
-0.059169
-0.017139
-0.010491
-0.080262
-0.020529
-0.061356
-0.024889
-0.155006
-0.052841
-0.067695
0.005244
-0.011318
-0.090663
-0.007239
-0.039450
-0.018744
0.051903
-0.015478
-0.102062
-0.054310
-0.171453
-0.045908
0.003129
0.014647
-0.074488
-0.054117
-0.010511
0.025063
-0.010479
-0.063915
0.025076
-0.014873
-0.019069
-0.024610
0.057027
0.024414
-0.004168
-0.090027
-0.020903
-0.052225
0.051440
0.016814
-0.005999
0.021554
-0.100445
0.062089
-0.002323
0.055399
0.064973
0.087209
0.066666
0.050282
0.047742
0.075798
0.072124
0.108651
0.097773
0.152360
0.136348
0.180945
0.102325
0.118948
0.073906
0.119414
0.205173
0.077537
0.150555
0.047097
0.057401
0.049367
0.082580
0.010067
0.101165
0.004763
-0.032436
0.007037
0.056276
0.081502
-0.004366
-0.034698
0.001554
-0.023621
-0.093493
-0.110474
-0.000845
0.037628
0.037703
-0.017910
0.013424
-0.039609
-0.014049
-0.024450
0.085076
0.099935
0.239415
0.590456
0.843547
1.081012
1.287470
1.286309
1.101978
0.862191
0.425561
0.035827
-0.042526
-0.231975
-0.290682
-0.216063
-0.120996
0.024884
-0.011741
0.064102
0.036774
-0.035952
-0.015713
0.090478
0.039968
0.057083
0.075933
0.077215
0.107438
0.070391
0.082669
0.160844
0.167282
0.122345
0.203875
0.193915
0.233416
0.309103
0.291205
0.320497
0.313014
0.361016
0.290484
0.358207
0.329446
0.369570
0.529514
0.465625
0.430323
0.448107
0.407569
0.566441
0.550060
0.469433
0.546015
0.405891
0.501576
0.484009
0.497540
0.598545
0.394158
0.468175
0.363141
0.429072
0.429628
0.390484
0.367641
0.330521
0.321504
0.288270
0.319276
0.217153
0.280579
0.253416
0.204886
0.176059
0.246355
0.154861
0.259957
0.141280
0.164194
0.182310
0.178944
0.137457
0.134189
0.077089
0.102010
0.035841
0.071563
0.118737
0.039001
0.050818
0.009524
0.044816
0.030553
0.011296
-0.038038
0.033286
0.061605
0.043310
0.018124
0.017323
-0.009267
0.012986
-0.017062
0.039092
0.041514
-0.084737
0.067495
0.087608
0.101179
0.048556
-0.010417
0.037247
0.026403
0.028200
-0.070460
0.051703
-0.021731
0.030857
0.066561
0.064647
0.029299
0.125008
0.143961
-0.017142
0.094756
0.060477
0.110304
0.069022
-0.003056
0.062599
0.049182
0.047179
0.017960
0.057930
0.104003
0.034573
0.059808
0.009711
0.080782
0.051983
0.037318
0.047883
0.041713
0.114138
0.164599
0.078453
0.121501
0.118464
0.169116
0.124836
0.145291
0.163309
0.116980
0.183296
0.205498
0.212717
0.213701
0.234444
0.245068
0.222840
0.207544
0.281822
0.329080
0.237980
0.227693
0.199603
0.184453
0.215248
0.223221
0.231750
0.128640
0.097737
0.151432
0.165591
0.135863
0.126014
0.129234
0.154951
0.106620
0.116724
0.052769
0.157377
0.022579
0.041029
0.039070
0.053593
0.074482
0.048309
0.094812
0.040198
0.093937
0.013397
0.075492
0.140425
0.224323
0.446677
0.715658
1.103923
1.381475
1.424050
1.445075
1.182315
0.831270
0.500771
0.106613
-0.018403
-0.148801
-0.078436
-0.083554
-0.012169
0.115071
0.109666
0.059655
0.080928
0.141343
0.116203
0.128222
0.113301
0.150726
0.121276
0.202363
0.135370
0.249572
0.192689
0.250366
0.131040
0.253031
0.246846
0.263536
0.319531
0.327033
0.377291
0.422859
0.353400
0.450881
0.465513
0.514363
0.458265
0.535772
0.511437
0.516563
0.588534
0.587514
0.572116
0.549759
0.565229
0.556346
0.627230
0.609962
0.646993
0.548223
0.545374
0.558565
0.610811
0.499617
0.628359
0.512186
0.429815
0.510053
0.554002
0.453788
0.502644
0.426406
0.393270
0.345181
0.375213
0.277121
0.328472
0.315388
0.272385
0.285743
0.126729
0.233212
0.172757
0.158837
0.163671
0.154917
0.248463
0.118675
0.101429
0.081056
0.104427
0.122502
0.141650
0.139359
0.177613
0.099728
0.081171
0.087552
0.153892
0.105734
0.138257
0.044882
0.097012
0.119599
0.102927
0.130131
0.120168
0.174004
0.153916
0.094297
0.165867
0.108900
0.088183
0.120675
0.092997
0.123013
0.039583
0.080321
0.093625
0.098685
0.165769
0.069472
0.031943
0.100510
0.066914
0.080419
0.142885
0.077938
0.088550
0.116580
0.104817
0.097399
0.083127
0.154310
0.236694
0.143161
0.047081
0.130160
0.069404
0.090396
0.067846
0.081462
0.106327
0.078870
0.120322
0.132733
0.051760
0.097595
0.098228
0.080562
0.130387
0.246559
0.126603
0.134941
0.271603
0.123866
0.236271
0.199494
0.184423
0.247347
0.167750
0.228424
0.273805
0.255751
0.227659
0.271658
0.289870
0.259938
0.231148
0.211797
0.229634
0.289356
0.226070
0.200004
0.184533
0.196911
0.094473
0.150561
0.231129
0.071628
0.137111
0.149340
0.170587
0.064752
0.050038
0.110207
0.069923
0.076376
0.126002
0.069258
0.058152
0.080146
0.049954
0.066559
0.045633
0.184244
0.014765
0.096160
0.193409
0.496228
0.821104
1.050299
1.243557
1.359240
1.361331
1.090806
0.763184
0.323155
0.092854
-0.142572
-0.153877
-0.115811
-0.088167
-0.083965
0.066655
0.009534
0.098258
0.181962
0.126505
0.058536
0.149351
0.070863
0.074359
0.088681
0.077729
0.167981
0.153656
0.142221
0.192777
0.219827
0.220913
0.290394
0.268174
0.321511
0.351444
0.333964
0.315827
0.370792
0.405976
0.394675
0.369646
0.419497
0.485653
0.418295
0.509541
0.529106
0.564069
0.493593
0.582732
0.474835
0.575408
0.646536
0.528648
0.552824
0.530140
0.567694
0.583516
0.505259
0.405782
0.501039
0.447032
0.414333
0.388998
0.372942
0.393323
0.304250
0.358161
0.383661
0.270529
0.353295
0.256213
0.257574
0.177825
0.230305
0.137851
0.099023
0.180799
0.148981
0.120102
0.164589
0.139311
0.078232
0.106552
0.125716
0.087073
0.033813
0.089964
-0.052006
0.061142
0.062919
0.055439
-0.037624
-0.050155
-0.063026
0.023212
0.041855
0.001725
0.059912
0.100242
-0.005211
0.057808
0.054930
-0.009133
0.012009
-0.003507
0.012321
-0.004689
0.003701
-0.005977
-0.002928
-0.060448
-0.010416
-0.075929
0.016076
0.032258
-0.045324
0.028955
0.009603
-0.032035
-0.060756
0.099577
-0.015687
0.019495
-0.040235
-0.029224
-0.030368
-0.053918
-0.026787
-0.029582
-0.045344
-0.043751
0.125117
-0.035577
-0.108793
-0.114947
0.036921
-0.040599
0.050695
0.051956
-0.049448
0.039191
0.055867
0.001582
0.007607
0.090884
0.068991
0.041741
-0.015183
0.070009
0.073447
0.096607
0.094771
0.068577
0.110072
0.094477
0.024154
0.123672
0.101297
0.181293
0.123468
0.163033
0.090096
0.053553
0.104272
0.046277
0.066089
0.072089
0.052094
0.019236
0.059037
0.023122
0.074819
-0.002754
0.033705
0.028948
-0.063703
0.020483
-0.058098
-0.001935
0.030722
-0.045452
-0.107954
-0.036915
-0.026049
-0.103031
-0.040258
-0.101179
-0.010805
-0.051217
0.001987
-0.108450
-0.097560
-0.110784
0.097399
0.475215
0.739262
1.063591
1.275433
1.276261
1.215639
0.878808
0.540377
0.180987
-0.032310
-0.202282
-0.243758
-0.162277
-0.171654
-0.160534
-0.151535
-0.029701
-0.002082
-0.023101
-0.049042
-0.059411
0.054212
0.003929
-0.030407
0.030411
0.035865
-0.001237
0.048948
0.063421
0.130693
0.092592
0.098163
0.026650
0.126634
0.219952
0.148418
0.155512
0.299665
0.242752
0.198462
0.349855
0.291460
0.233004
0.366554
0.326416
0.475393
0.341420
0.494909
0.417131
0.444129
0.313350
0.518192
0.445315
0.446337
0.426139
0.423041
0.379141
0.439289
0.349323
0.490769
0.320212
0.312768
0.356636
0.323753
0.311918
0.230533
0.304693
0.268051
0.240185
0.143415
0.192052
0.136429
0.258660
0.107796
0.082547
0.201679
0.089536
0.012127
0.057597
0.033270
0.007111
0.044469
-0.017057
-0.006119
0.017051
-0.081950
-0.135390
0.027895
-0.027339
-0.127113
-0.018337
-0.057525
-0.076868
-0.071419
-0.073778
-0.041655
-0.051998
-0.091259
-0.035205
-0.072835
-0.035214
-0.081631
-0.108144
-0.057304
-0.098474
-0.059189
-0.076277
-0.072384
-0.063402
-0.082905
-0.032028
-0.129423
0.001676
-0.047560
-0.143701
-0.037745
-0.020872
-0.082928
-0.081432
-0.052455
-0.071294
-0.098235
-0.107015
-0.109742
-0.175774
-0.131618
-0.074163
-0.101411
-0.022569
-0.018539
-0.104864
-0.101131
-0.137791
-0.088269
-0.096317
-0.059718
-0.103239
-0.143132
-0.023816
-0.047513
-0.021803
-0.063112
0.007509
-0.007859
0.004883
-0.021867
0.022020
0.050441
0.141716
0.000759
0.109381
0.108797
0.034246
0.104580
0.029151
0.075224
0.089911
0.120464
0.086456
-0.002125
0.138928
0.004708
0.096281
0.071460
0.077302
0.024225
0.024081
0.073759
0.014005
0.018153
0.005645
0.084790
0.012214
0.019300
0.034347
-0.020307
-0.042789
-0.032322
0.027089
-0.041608
-0.029721
0.041941
-0.089085
-0.003897
-0.105170
-0.084515
0.044222
-0.076349
-0.039983
0.024061
-0.028866
-0.066669
0.041799
0.127513
0.174641
0.460308
0.767563
1.090099
1.267315
1.282647
1.086979
0.867351
0.495620
0.193622
-0.115964
-0.254879
-0.278286
-0.262030
-0.141701
-0.111364
-0.100825
0.043513
-0.059027
-0.077078
0.034985
0.001786
-0.008386
0.056692
0.014582
-0.022139
0.118131
0.084858
0.094287
0.083428
0.049457
0.156638
0.082963
0.127335
0.160527
0.290574
0.245445
0.169529
0.313226
0.222627
0.250593
0.388055
0.339785
0.422841
0.304238
0.396831
0.383044
0.474308
0.462462
0.502760
0.522671
0.419855
0.483565
0.477941
0.560454
0.480885
0.550488
0.512918
0.475436
0.430481
0.435669
0.456791
0.356847
0.399586
0.380270
0.270076
0.331675
0.327882
0.275621
0.235624
0.225792
0.211815
0.253655
0.148638
0.284482
0.185554
0.111681
0.142217
0.151218
0.122766
0.055957
0.101295
0.050600
0.018567
0.050933
0.100214
0.027819
0.051764
0.029552
-0.017850
-0.019895
0.014132
0.015057
0.030922
0.016712
0.042214
-0.118016
-0.017887
0.001238
-0.089634
0.024671
-0.015239
0.011144
0.026292
-0.039086
-0.031572
0.048956
0.063666
0.025232
-0.022934
-0.027448
-0.075281
-0.015015
-0.022071
0.030479
0.048489
-0.017535
0.023181
-0.106756
-0.033215
-0.083030
0.018592
0.067705
0.055612
0.101542
0.049730
0.010955
0.023534
-0.013602
0.045606
-0.084168
-0.026146
0.124360
-0.006224
0.006794
0.013082
-0.019816
-0.003499
-0.019148
-0.007659
0.057327
0.031840
0.059583
0.123376
0.066889
0.007849
0.071020
0.063304
0.200842
0.147520
0.106727
0.203845
0.148018
0.132055
0.191506
0.203181
0.191047
0.214725
0.168200
0.200928
0.165880
0.243964
0.211432
0.196649
0.147958
0.209581
0.166804
0.241723
0.071502
0.218523
0.071934
0.147416
0.124528
0.104984
0.131862
0.181510
0.111382
0.156623
0.116449
0.019905
0.061285
0.042698
-0.029513
0.005473
0.081420
-0.028294
0.077936
0.042709
0.053432
0.049280
0.078667
0.025272
0.036705
0.040299
0.138362
0.386702
0.594449
0.963287
1.279290
1.430884
1.326969
1.210022
0.843192
0.450718
0.171180
-0.064796
-0.172101
-0.204122
-0.102611
-0.058948
-0.006946
0.052630
0.045562
0.038960
0.012938
0.134263
0.073494
0.204227
0.087373
0.199263
0.128061
0.106224
0.183270
0.186314
0.260547
0.238810
0.242451
0.261759
0.310129
0.304852
0.272294
0.313135
0.325466
0.351733
0.353619
0.337004
0.363190
0.419830
0.484562
0.495884
0.570084
0.425225
0.513460
0.481065
0.532673
0.608010
0.517054
0.577988
0.567241
0.528577
0.608574
0.638117
0.518711
0.598377
0.533962
0.461929
0.449782
0.458763
0.392694
0.424452
0.346389
0.385649
0.359497
0.358881
0.389463
0.369492
0.277372
0.297755
0.242270
0.260492
0.192545
0.223851
0.118859
0.146823
0.198728
0.165420
0.151037
0.168619
0.117298
0.095016
0.085858
0.173383
0.058715
0.091168
0.075396
0.137022
0.050949
0.088352
0.044817
0.099954
0.073330
0.065745
0.038423
0.004925
0.071532
0.009937
0.050118
0.076203
-0.054642
0.107013
0.040792
0.084465
0.131115
0.012340
0.110383
0.039839
0.053505
0.014049
0.056239
0.069512
0.030136
-0.030430
0.070534
-0.014977
0.008499
0.059961
0.100955
-0.014018
0.105021
-0.011681
0.043105
0.058428
0.029992
0.064908
0.010609
0.060709
0.065399
0.023047
-0.009375
0.071978
0.026096
-0.009926
0.024375
0.036879
-0.011163
-0.002845
0.003986
0.123039
0.072627
0.027269
0.038476
0.063637
0.067079
0.158448
0.083558
0.144149
0.123067
0.172386
0.140030
0.177579
0.190141
0.254653
0.231528
0.196570
0.175228
0.085858
0.219286
0.184820
0.208316
0.142901
0.251214
0.159507
0.174456
0.170685
0.205029
0.111648
0.104566
0.164606
0.152059
0.067787
0.070222
0.048678
0.081434
0.065452
0.046979
0.067971
-0.021612
-0.003430
0.037376
0.043648
0.080810
0.066008
0.046463
0.013916
0.081015
-0.021957
-0.032418
-0.014634
0.075041
0.244265
0.384169
0.560299
0.965961
1.244747
1.327162
1.361061
1.101196
0.720057
0.327028
0.046715
-0.161409
-0.194185
-0.204250
-0.133467
-0.030428
-0.063341
0.013791
0.043993
0.031902
0.043930
0.028581
0.060011
0.091620
0.111009
0.108772
0.141844
0.113335
0.140293
0.160650
0.146475
0.092739
0.205547
0.215505
0.189487
0.238029
0.254797
0.263090
0.337487
0.331207
0.258555
0.271201
0.340233
0.410559
0.370243
0.389301
0.412226
0.451913
0.436321
0.482454
0.391642
0.529383
0.433760
0.479159
0.383285
0.490850
0.394918
0.447577
0.493718
0.395482
0.382149
0.382076
0.508512
0.476153
0.347712
0.353007
0.234007
0.263385
0.199771
0.255700
0.209378
0.272684
0.257415
0.195362
0.144830
0.189339
0.170366
0.080546
0.117091
0.131645
0.073821
0.061834
0.052051
-0.014468
0.056217
0.051432
0.072910
-0.023740
0.009496
-0.009061
-0.038144
-0.055127
0.016273
-0.064438
-0.019770
-0.048135
-0.075314
-0.109381
-0.045878
-0.104165
-0.111614
-0.088183
-0.035672
-0.015732
-0.101698
-0.059253
-0.088022
-0.130681
-0.017039
-0.054842
-0.092390
-0.124479
0.000500
-0.039258
-0.110496
-0.005061
-0.006012
-0.124292
-0.018789
-0.066202
-0.031094
-0.103101
-0.075635
-0.088168
-0.022681
0.035722
-0.073438
-0.052629
-0.083534
-0.018505
-0.046901
-0.079625
-0.106705
-0.011190
-0.052847
-0.031331
-0.058291
-0.067823
-0.087146
-0.093310
-0.033206
0.048325
-0.073228
-0.096032
-0.083446
0.032042
-0.060102
-0.055138
-0.015473
-0.004213
0.059288
0.048722
-0.025252
0.095138
0.048011
0.002549
0.049170
0.047368
0.054797
0.126795
0.091045
0.096392
0.102345
0.107245
0.089521
0.052153
0.096640
-0.002453
0.127182
-0.011610
0.047208
-0.029162
0.034025
0.012247
0.019235
-0.088079
-0.032955
-0.058414
-0.008945
-0.032278
-0.071216
-0.124454
-0.040755
-0.068893
-0.136892
-0.049786
-0.068314
-0.051027
-0.115797
0.004156
-0.091215
-0.119384
-0.058411
-0.207669
-0.064475
0.141416
0.340329
0.669344
0.873424
1.175304
1.219837
1.204524
0.990387
0.577129
0.259757
-0.069636
-0.254456
-0.255028
-0.234958
-0.202806
-0.204412
-0.137699
-0.079519
-0.040491
0.086123
-0.074547
-0.088127
-0.044004
-0.095554
-0.029632
-0.068118
0.078550
-0.041533
0.000226
0.087258
0.091184
0.112264
0.127032
0.189339
0.120509
0.122998
0.141993
0.214587
0.200549
0.262088
0.160218
0.302301
0.289014
0.278011
0.316552
0.298787
0.265033
0.429040
0.371076
0.449020
0.359920
0.428051
0.287504
0.435331
0.410080
0.370526
0.431758
0.481668
0.366448
0.425011
0.344687
0.361393
0.261510
0.370029
0.273664
0.306568
0.284732
0.210752
0.186682
0.179910
0.214302
0.182585
0.128143
0.108311
0.109552
0.057115
0.043166
-0.071981
-0.007621
0.001513
-0.069388
0.035009
0.012721
-0.061284
0.041948
-0.080235
0.002038
-0.074142
0.000594
-0.080539
-0.085642
-0.076357
-0.092400
-0.050629
-0.103315
-0.112043
-0.134732
-0.100340
-0.074977
-0.033900
-0.069504
-0.101531
-0.151991
-0.119864
-0.059037
-0.157295
-0.063259
-0.039382
-0.109262
-0.084831
-0.066568
-0.073567
-0.056132
-0.108594
-0.070994
-0.115046
-0.052057
-0.027065
-0.097590
-0.137156
-0.043094
-0.122155
-0.093105
-0.080415
-0.087927
-0.048613
-0.071164
-0.072387
-0.092053
-0.026591
-0.112208
-0.083273
-0.098353
-0.079099
-0.056855
-0.143522
-0.037742
-0.171113
-0.113142
-0.067503
-0.023016
-0.034106
-0.020911
-0.000613
-0.028822
0.010924
-0.021874
0.015021
0.019051
0.052166
0.040207
-0.024730
-0.034080
0.052337
0.105694
0.039357
0.046809
0.136487
0.121169
0.050747
0.121163
0.111913
0.061865
0.115262
0.069459
0.171434
0.076576
0.109434
0.177530
0.037135
0.019652
0.012457
-0.007062
0.024916
-0.044505
0.003167
0.002775
-0.133867
-0.006841
-0.043019
-0.061627
-0.073271
-0.078545
-0.064408
-0.000753
-0.002285
-0.121600
-0.051942
-0.060680
-0.065985
-0.139752
-0.043557
-0.066871
-0.044922
0.015596
0.052583
0.356257
0.769132
0.944767
1.241007
1.403078
1.202437
0.893008
0.559661
0.185213
-0.037086
-0.225284
-0.253752
-0.266430
-0.089294
-0.133524
-0.165056
0.030260
0.105151
-0.021381
0.015342
0.046093
0.016604
0.060569
0.064419
0.028268
0.132630
0.027909
0.141843
0.024000
0.093455
0.145464
0.194741
0.149591
0.171745
0.274427
0.293696
0.235033
0.337305
0.191278
0.178153
0.354610
0.428422
0.438244
0.385217
0.414540
0.373131
0.462928
0.478770
0.533643
0.523756
0.454528
0.467274
0.472379
0.470694
0.478947
0.540594
0.445210
0.470115
0.414564
0.504426
0.414065
0.455543
0.459256
0.401661
0.299654
0.333037
0.332804
0.304838
0.274587
0.270595
0.251751
0.178170
0.186738
0.147949
0.157604
0.194300
0.202509
0.138800
0.148453
0.117917
0.130287
0.069722
0.149498
0.027700
0.114433
0.091962
0.038033
0.137736
0.031921
-0.023218
0.063502
0.037205
-0.013198
0.025802
-0.035894
0.035945
0.013470
0.032730
0.034579
0.017902
0.056971
0.006420
-0.035695
0.034020
-0.054368
0.132053
0.077635
0.022403
0.027834
0.059958
-0.043502
-0.023183
0.051331
0.046554
-0.026647
0.018571
0.019274
0.054539
0.002113
-0.013910
0.048836
0.108671
-0.050628
0.015773
0.018379
-0.009558
-0.039785
0.083327
0.112069
0.024198
0.036202
0.091108
0.051488
-0.039506
-0.062611
0.038473
0.091993
0.055964
0.089208
0.059573
-0.022054
0.070594
0.128409
0.024271
0.178198
0.077940
0.131519
0.099144
0.123710
0.162618
0.157792
0.159412
0.254867
0.229608
0.190534
0.165261
0.238335
0.262749
0.189875
0.201166
0.174039
0.239831
0.314738
0.166424
0.272848
0.140689
0.206955
0.161122
0.123424
0.164085
0.119166
0.085134
0.068450
0.123473
0.125153
0.072485
0.082488
0.178719
0.096099
0.009643
0.018840
0.063947
0.019855
0.093922
0.071067
0.115855
0.049010
0.059549
0.104783
0.017274
0.039853
-0.012177
0.048685
0.121109
0.300077
0.555211
0.836899
1.116027
1.401064
1.500000
1.268791
1.031207
0.668537
0.211276
-0.045157
-0.138442
-0.162310
-0.066049
-0.032017
-0.014199
0.042933
0.068425
0.159260
0.032861
0.127782
0.118152
0.153547
0.228914
0.196765
0.221554
0.183611
0.205977
0.185861
0.200522
0.232275
0.209866
0.155544
0.300334
0.360887
0.333921
0.285917
0.273344
0.355310
0.387691
0.437795
0.445569
0.476702
0.409907
0.516590
0.471102
0.498067
0.599666
0.528923
0.590110
0.548829
0.628640
0.476600
0.555455
0.631746
0.647798
0.565835
0.538551
0.561278
0.504070
0.496665
0.440472
0.568995
0.500820
0.540232
0.345793
0.478061
0.410879
0.418916
0.374557
0.361530
0.329265
0.301252
0.354668
0.312068
0.262774
0.239544
0.218236
0.165500
0.140897
0.223695
0.138952
0.150375
0.126749
0.060326
0.080815
0.114541
0.060037
0.145861
