-0.073548
0.034118
-0.055659
-0.059116
-0.029931
-0.040759
-0.045580
-0.056236
0.061642
-0.029885
0.038150
0.087110
0.023795
-0.024676
0.088184
0.031544
-0.044032
0.006745
-0.033712
0.071126
0.037274
0.094852
0.042760
0.017839
0.130743
0.021988
0.135398
0.079829
0.119321
0.044497
0.026342
0.119392
0.134124
0.178067
0.200976
0.187336
0.152733
0.163906
0.188487
0.233054
0.265765
0.132293
0.174254
0.279364
0.201894
0.184739
0.129941
0.160315
0.111487
0.077394
0.188212
0.103948
0.138525
0.177887
0.110878
0.088936
0.041025
0.106287
0.037185
0.031030
0.013074
0.105631
0.041247
-0.014977
0.093834
0.136765
0.047227
-0.016167
0.050156
0.057162
0.018150
0.045737
0.041528
0.063056
0.058361
0.192905
0.340671
0.674017
1.065143
1.275527
1.417265
1.352997
1.057341
0.738020
0.388004
0.109987
-0.146096
-0.198426
-0.132504
-0.092762
-0.015576
-0.001626
0.053035
0.056284
0.034820
0.094147
0.148688
0.125243
0.165832
0.091122
0.066787
0.126487
0.132312
0.117603
0.197307
0.177326
0.210818
0.151865
0.195084
0.319925
0.277545
0.209505
0.311501
0.345783
0.385143
0.379071
0.404286
0.429688
0.395121
0.486032
0.476211
0.525293
0.506393
0.541860
0.545641
0.543659
0.514002
0.600472
0.605308
0.532748
0.630828
0.590507
0.518784
0.678801
0.513343
0.529584
0.573494
0.572388
0.471219
0.441439
0.494765
0.378552
0.447650
0.541625
0.535687
0.379572
0.291297
0.331483
0.388578
0.308351
0.291312
0.295379
0.213109
0.287404
0.225428
0.205774
0.211705
0.158757
0.228317
0.113733
0.136059
0.110247
0.151430
0.221993
0.201255
0.072143
0.088424
0.072300
0.053818
0.180061
-0.022359
0.129790
0.063107
0.023557
0.182639
0.001587
0.113888
0.085800
0.024189
0.076010
0.004690
0.094183
0.068617
0.149033
0.067026
0.066294
0.045732
0.072313
0.151827
0.057331
0.122077
0.106225
0.153032
0.098618
0.139403
0.056053
0.133475
0.138747
0.020844
0.145269
0.094998
0.025329
0.061335
0.100099
0.108760
0.125580
0.077631
0.098705
0.049559
0.080919
0.030385
0.112848
0.159253
0.092841
0.089464
0.095502
0.056580
0.184601
0.094260
0.140159
0.148688
0.162863
0.089569
0.128358
0.100010
0.192604
0.143291
0.236758
0.175026
0.165113
0.217143
0.177504
0.246645
0.220536
0.230568
0.289162
0.238019
0.226861
0.254361
0.204190
0.202327
0.252442
0.221126
0.285048
0.189067
0.230178
0.189441
0.158748
0.227596
0.212361
0.188544
0.164052
0.111505
0.079791
0.194443
0.099038
0.099111
0.093287
0.154457
0.045193
0.122725
0.086163
0.144228
0.102137
0.032446
0.114237
0.139469
0.050192
0.027573
0.046727
0.051233
0.023447
0.086775
0.059870
0.084598
0.208350
0.458542
0.742431
1.046996
1.250378
1.333258
1.392954
1.092908
0.772442
0.409570
0.126776
-0.212736
-0.215668
-0.102623
-0.078134
0.033917
0.014713
0.062367
0.153417
0.059579
0.055522
0.059887
0.098259
0.151222
0.104148
0.095614
0.124973
0.208637
0.136969
0.220106
0.149447
0.165864
0.142493
0.231278
0.259579
0.259467
0.314896
0.259345
0.283736
0.424183
0.377331
0.347334
0.422050
0.428162
0.379295
0.465730
0.406754
0.394316
0.530837
0.541283
0.521036
0.575088
0.542779
0.536570
0.609741
0.590557
0.583501
0.568372
0.556000
0.452054
0.561342
0.601874
0.468366
0.490594
0.508682
0.478667
0.378797
0.466967
0.427529
0.450716
0.415186
0.288683
0.278050
0.378750
0.232009
0.225462
0.266588
0.228881
0.224539
0.191044
0.053824
0.102478
0.171172
0.180415
0.091676
0.181877
0.122117
0.100595
0.123453
0.122471
-0.015925
0.002199
0.095187
-0.027094
0.010919
0.050723
0.023681
-0.004090
0.063557
0.053256
0.071569
-0.047240
0.042975
0.035258
0.064816
0.050253
-0.088557
0.040315
0.064485
-0.056343
0.014119
0.043051
0.015656
-0.028021
0.105624
-0.013779
0.038960
0.036600
-0.009073
-0.051452
0.034568
-0.043352
-0.097464
0.029417
-0.003178
-0.048790
-0.006041
-0.010323
0.008347
-0.015437
0.048302
-0.088781
-0.008965
0.061694
0.033010
0.015005
-0.002619
0.078073
-0.016912
0.068673
0.054742
0.037025
0.023058
-0.033834
-0.001923
-0.011711
-0.075425
0.040772
0.024123
0.035390
0.037517
0.081232
0.122792
0.110073
0.151501
0.155649
0.118707
0.111738
0.092556
0.148214
0.132915
0.177574
0.080468
0.140158
0.192936
0.113625
0.124407
0.193129
0.151097
0.165189
0.172349
0.072262
0.128532
0.173873
0.129403
0.108767
0.065060
0.040641
0.021922
0.057192
0.042976
0.046375
0.045914
-0.021498
-0.043222
0.030203
0.013860
0.064644
0.059874
-0.040982
-0.043408
0.019021
0.012066
-0.054526
-0.058831
-0.049022
-0.000851
-0.035673
-0.019758
-0.014010
0.121857
0.301776
0.703987
1.001726
1.243702
1.311504
1.269983
1.077841
0.636544
0.358647
0.017733
-0.089246
-0.206775
-0.329537
-0.203281
-0.157817
-0.082748
-0.017705
0.042119
0.008155
-0.038017
0.011064
0.038715
0.099520
-0.037672
0.004586
0.081491
0.078867
0.107302
0.063079
0.045310
0.090782
0.133552
0.188960
0.127900
0.149464
0.185927
0.213503
0.267250
0.233150
0.263008
0.311694
0.336047
0.261586
0.390968
0.352147
0.405720
0.364389
0.365545
0.369372
0.391824
0.477585
0.461671
0.500387
0.450985
0.382586
0.527578
0.433937
0.516006
0.437903
0.423955
0.351747
0.408191
0.357739
0.445199
0.364779
0.346230
0.380539
0.401177
0.262002
0.333013
0.273939
0.218189
0.129542
0.238574
0.109314
0.113571
0.198664
0.104841
0.037723
0.073714
0.015230
0.114191
0.036587
-0.008681
0.143134
0.025767
-0.030659
-0.032902
-0.020741
0.022341
-0.020162
0.064993
-0.012126
-0.008860
-0.077893
-0.138129
-0.031171
-0.017398
-0.049987
-0.069226
-0.090154
0.019640
0.038554
-0.049253
-0.001613
-0.000581
0.025515
-0.028962
-0.021760
-0.050715
-0.109838
-0.064116
-0.056369
-0.036306
-0.062551
-0.129945
-0.106636
-0.057165
-0.054879
-0.053253
0.011682
-0.026072
-0.031472
-0.026366
0.052219
0.086625
-0.123671
0.033415
-0.086788
-0.097160
-0.057876
-0.010462
-0.094687
-0.058968
0.006911
-0.047094
0.017387
-0.041295
-0.074169
-0.040591
-0.044164
-0.000569
-0.038465
-0.034287
-0.027787
0.021584
-0.005182
0.049076
0.011465
0.053027
0.055954
0.029308
0.090346
0.135542
0.050608
0.167870
0.050376
0.098085
0.064274
0.081272
0.220344
0.176218
0.132169
0.082725
0.057673
0.109680
0.095129
0.176792
0.159401
0.121987
0.098023
0.030238
0.125712
0.035506
0.095594
0.104354
0.055417
0.055461
-0.007243
0.031202
0.008710
-0.008283
-0.035999
-0.024607
0.018400
-0.004802
0.057651
-0.001180
-0.056854
-0.061241
0.035541
-0.131365
-0.078586
-0.012127
0.008764
-0.092511
-0.063661
0.010409
0.043130
0.023247
0.340431
0.661018
1.069862
1.261429
1.352762
1.213788
1.024442
0.708228
0.315417
0.034363
-0.180482
-0.169739
-0.185906
-0.172934
-0.112598
-0.047581
-0.025670
-0.035441
-0.026429
0.078275
-0.002763
0.108169
0.022617
0.054470
0.156403
0.024813
0.074637
0.101049
0.114534
0.107325
0.165136
0.116149
0.149920
0.239287
0.240547
0.272320
0.197676
0.201472
0.285470
0.279295
0.343993
0.296724
0.444499
0.387113
0.503562
0.415856
0.453947
0.424204
0.491712
0.527269
0.472800
0.473617
0.550086
0.548914
0.477514
0.550469
0.552600
0.423337
0.540782
0.537398
0.475466
0.455916
0.457880
0.469029
0.451297
0.480068
0.343769
0.338175
0.383867
0.325958
0.362381
0.240028
0.270009
0.149545
0.230165
0.127955
0.230188
0.132360
0.183187
0.148932
0.117237
0.190106
0.145914
0.101205
0.031401
0.097907
0.133782
0.093702
0.037108
0.137800
0.023208
0.029629
0.099758
0.076541
0.079421
0.050980
0.065028
0.055645
-0.009015
0.002648
0.001747
0.056806
0.064404
0.064573
0.024152
-0.064796
0.054783
0.062843
0.060736
0.047292
-0.017209
-0.006063
0.060700
0.058581
-0.015513
0.059944
-0.014988
0.038920
0.086599
0.075072
0.069784
0.005579
0.110031
0.174624
0.081046
0.070806
0.105678
0.114145
0.060474
0.077453
0.024345
0.110103
0.045759
0.109488
0.080134
0.022329
0.051328
0.059632
0.117899
0.017455
0.056317
-0.040858
0.072229
0.077720
0.066434
0.080811
0.095813
0.057314
0.082459
0.055777
0.085672
0.154850
0.115126
0.228464
0.091570
0.177095
0.227778
0.187152
0.232960
0.220943
0.171022
0.162238
0.181914
0.250557
0.263473
0.196520
0.308109
0.251799
0.186019
0.239308
0.199502
0.224185
0.217575
0.206459
0.200559
0.214102
0.209642
0.115716
0.100147
0.121922
0.194750
0.146224
0.159105
0.109180
0.086748
0.120661
0.143511
0.123392
0.072327
0.129342
0.052154
0.038673
0.136277
0.027839
-0.021963
0.025810
0.102474
0.166200
0.137616
0.192574
0.402278
0.799236
1.064716
1.292829
1.410257
1.349051
1.129299
0.800275
0.388034
0.064529
-0.118407
-0.100088
-0.235177
-0.097158
0.014651
0.031486
0.157840
0.089259
0.091046
0.137440
0.154388
0.200852
0.129853
0.113096
0.153062
0.079230
0.104812
0.206960
0.208031
0.234062
0.195242
0.175564
0.231033
0.361963
0.372116
0.220761
0.213330
0.433122
0.300930
0.414842
0.456435
0.392272
0.470055
0.439136
0.484985
0.469102
0.509300
0.495961
0.571304
0.530532
0.558544
0.595360
0.505947
0.603088
0.548307
0.575380
0.626829
0.639285
0.571109
0.464767
0.510109
0.605397
0.457087
0.492257
0.457558
0.518225
0.460873
0.499983
0.384343
0.425015
0.343089
0.332553
0.343451
0.265410
0.339403
0.280239
0.273770
0.279270
0.246298
0.245682
0.160965
0.168648
0.258184
0.158479
0.129917
0.164791
0.095604
0.197756
0.159432
0.150476
0.123982
0.101668
0.084998
0.076727
0.137797
0.105599
0.084726
0.185392
0.178901
0.130279
0.092420
0.111646
0.075073
0.129505
0.061227
0.106037
0.052718
0.022701
0.068784
0.108582
0.070330
0.063330
0.033827
0.103075
0.040741
0.144798
0.059769
0.001037
0.012460
0.083593
0.114302
0.010270
0.127258
0.048348
0.016601
0.061008
0.009480
0.054346
0.102601
0.051506
0.078956
0.111532
0.070911
0.087190
0.047023
0.071998
0.036367
0.087684
0.093016
0.091328
0.106538
0.162629
0.126338
0.107134
0.108644
0.030105
0.110722
0.076196
0.125514
0.157522
0.126693
0.082090
0.227196
0.098292
0.183506
0.290715
0.170149
0.096052
0.204731
0.167367
0.235127
0.273182
0.218708
0.201884
0.269018
0.246030
0.256365
0.277676
0.243089
0.228002
0.198361
0.261848
0.188294
0.132516
0.201147
0.169017
0.218696
0.182877
0.145448
0.093918
0.100139
0.089863
0.056959
0.115586
0.081956
0.008887
0.082113
0.154293
0.010136
0.104181
0.126691
0.041581
0.097457
0.046317
0.064428
0.128292
0.115978
-0.022417
0.095380
0.171601
0.426500
0.683346
1.096341
1.304332
1.377852
1.367538
1.128722
0.694934
0.379069
0.005853
-0.207850
-0.108217
-0.176107
-0.141975
-0.011326
0.020266
-0.004721
0.049818
0.095650
0.010369
0.113417
0.088045
0.127719
0.021736
0.038006
0.109932
0.147691
0.176497
0.134009
0.165235
0.121488
0.201071
0.148460
0.124032
0.206861
0.264095
0.270673
0.259781
0.335166
0.338305
0.299552
0.384252
0.375340
0.362143
0.440119
0.525479
0.403889
0.460071
0.443578
0.529894
0.521634
0.546986
0.457275
0.473230
0.525453
0.536440
0.521300
0.512863
0.465786
0.484960
0.476160
0.498001
0.442826
0.472618
0.379112
0.386274
0.308745
0.323554
0.386133
0.263036
0.286027
0.208373
0.221104
0.222552
0.242710
0.190761
0.173183
0.209384
0.182373
0.126858
0.121220
0.145724
0.098203
0.100043
0.078761
0.073360
0.089352
0.096499
-0.021509
0.094774
0.019415
0.060248
-0.024801
0.036156
-0.082595
-0.017275
-0.017321
-0.008339
-0.062468
-0.000963
-0.001953
-0.014131
-0.059101
0.027973
-0.032277
-0.004401
-0.031950
-0.050996
0.013308
-0.033215
-0.056302
-0.066002
-0.099842
-0.043470
-0.000914
-0.045320
-0.028601
0.008681
-0.015448
-0.046269
0.007839
-0.062004
-0.100187
-0.033294
0.015872
-0.001021
0.024040
0.031674
0.019413
-0.008671
-0.103896
-0.054818
0.011456
-0.050412
-0.049232
-0.063733
-0.059126
-0.114694
-0.075815
-0.056097
-0.039769
-0.043715
-0.086082
0.056772
-0.005969
-0.101434
0.003816
-0.000867
-0.017108
-0.021193
0.048659
0.054090
-0.000174
0.098927
0.044922
0.028805
0.106834
0.024234
0.122175
0.075740
0.066402
0.073228
0.175976
0.070915
0.046538
0.101211
0.156676
0.128293
0.131190
0.123638
0.113573
0.126515
0.077242
0.010539
0.111610
0.058725
-0.055794
-0.011721
-0.043488
-0.024952
-0.004588
0.004795
-0.051276
-0.093279
-0.062462
-0.031092
-0.077279
-0.058140
-0.160362
-0.061113
-0.076809
-0.034258
-0.035168
-0.125305
-0.034377
-0.106212
-0.057162
-0.042970
-0.006618
0.078169
0.339731
0.568439
0.947854
1.258409
1.323271
1.198330
1.019965
0.594301
0.324642
-0.085914
-0.229424
-0.318459
-0.258254
-0.268899
-0.136673
-0.117954
-0.084617
-0.044109
0.009650
0.015995
0.022433
-0.011313
-0.012132
-0.037081
0.013692
-0.003818
-0.027152
0.050478
0.072334
-0.022410
0.115840
0.047821
0.086022
0.013940
0.133329
0.089381
0.159622
0.206804
0.225202
0.196521
0.267306
0.231542
0.287732
0.354647
0.396486
0.419588
0.376336
0.330599
0.351528
0.418968
0.367527
0.401972
0.453397
0.459356
0.517487
0.433178
0.461167
0.332776
0.412537
0.363469
0.491344
0.358550
0.420120
0.322066
0.323638
0.381680
0.282298
0.268248
0.202032
0.220713
0.207176
0.135437
0.179410
0.179698
0.138681
0.104375
0.127780
0.116801
0.036055
0.012167
0.033670
0.098322
0.026178
0.006736
0.069169
0.012852
-0.052853
0.003089
-0.040844
0.052576
-0.044935
0.058624
-0.043882
-0.049890
-0.093403
-0.094897
-0.024234
-0.026445
-0.073216
-0.089702
-0.028719
-0.022591
-0.057893
-0.066400
-0.055665
0.024611
-0.079111
-0.038801
-0.218499
0.001218
-0.039767
-0.063610
-0.116755
-0.050254
-0.073572
-0.088076
-0.127221
-0.085693
-0.083906
-0.059380
-0.021970
-0.052737
-0.137578
-0.058637
-0.090988
-0.145266
-0.085752
-0.072651
-0.163392
-0.138946
-0.095514
-0.078181
-0.113223
-0.070674
-0.067520
-0.008001
-0.089687
0.048969
-0.035365
-0.145523
-0.049673
-0.068521
-0.087517
-0.013029
-0.006260
0.026773
0.010047
-0.109023
-0.062415
-0.024041
-0.028730
0.047099
0.076407
-0.011959
0.063015
0.053594
0.076587
0.089729
0.017901
0.137374
0.103267
0.131044
0.096523
0.160310
0.130659
0.092035
0.035769
0.059694
0.099579
0.099483
0.168109
0.019415
0.004076
0.108299
0.084987
0.030198
0.013197
0.015517
0.002700
0.085409
-0.017388
0.012912
-0.050297
-0.010035
-0.008043
-0.066676
0.011110
-0.024652
-0.063235
-0.044001
0.024811
-0.059395
-0.016843
-0.020048
-0.084547
-0.045243
-0.044898
-0.018012
-0.018653
0.170666
0.322492
0.678656
0.996479
1.223815
1.357100
1.198231
0.962309
0.647667
0.323296
-0.027979
-0.225678
-0.277635
-0.324878
-0.154442
-0.101826
-0.097466
0.021442
-0.003735
0.034221
-0.035720
0.009792
0.012074
0.065531
0.101535
0.083607
0.067099
0.078708
0.106421
0.028465
0.006161
0.137889
0.089258
0.135053
0.186898
0.144740
0.236668
0.240271
0.180954
0.286512
0.223219
0.246009
0.302444
0.286253
0.416162
0.430399
0.355238
0.462367
0.466404
0.450557
0.539953
0.491445
0.490973
0.431715
0.499678
0.550459
0.549105
0.508201
0.470983
0.474931
0.505137
0.491468
0.424279
0.416966
0.471159
0.391379
0.448074
0.389517
0.282167
0.248352
0.388501
0.303569
0.267512
0.239758
0.281390
0.194520
0.191190
0.155840
0.265141
0.151154
0.053969
0.061785
0.123060
0.081018
0.036802
0.027810
0.075754
0.131096
0.052219
-0.047083
0.041103
0.107008
0.030339
0.043131
0.033064
0.041128
0.060717
0.045008
-0.025923
0.053915
0.031226
0.038660
0.017262
-0.045064
-0.086415
0.001100
0.055736
0.008577
0.006887
0.075382
0.036770
-0.015847
-0.095883
0.010793
0.096004
0.035527
0.059608
-0.020547
0.035877
0.013277
0.022390
0.030231
-0.045692
0.094391
0.050397
0.035130
-0.031159
0.013650
0.022703
-0.010411
-0.083868
0.042835
0.039647
-0.000025
0.033040
-0.040562
-0.010371
0.112758
-0.020837
0.071768
-0.013160
0.054543
0.036037
-0.049833
0.071182
0.075983
0.105984
0.029823
0.121528
0.091295
0.093466
0.126901
0.102564
0.134867
0.110385
0.113361
0.149894
0.157212
0.133309
0.205772
0.204401
0.166781
0.267234
0.201447
0.230991
0.204738
0.073998
0.171562
0.249447
0.227340
0.194119
0.201724
0.162756
0.110297
0.132878
0.143280
0.109469
0.168812
0.135469
0.048466
0.035709
0.128088
0.065616
0.037751
0.049106
0.052814
0.036493
0.042051
0.078594
0.084444
0.056333
0.052182
0.092916
0.051624
0.106807
-0.013669
0.055993
0.032668
-0.034136
0.066447
0.254639
0.412471
0.734951
1.108611
1.356440
1.500000
1.303456
1.114528
0.751322
0.336156
0.008621
-0.090913
-0.273527
-0.166992
-0.150786
-0.021979
-0.024202
-0.017191
0.031045
0.050829
0.044761
0.103721
0.038700
0.184636
0.133696
0.038884
0.173747
0.138268
0.126443
0.136404
0.196592
0.193849
0.150860
0.305672
0.262855
0.263246
0.259167
0.260601
0.323889
0.344160
0.364578
0.383393
0.402926
0.480552
0.424917
0.374943
0.427075
0.434301
0.483679
0.576031
0.524912
0.586755
0.471989
0.502195
0.553818
0.443548
0.546626
0.496629
0.607148
0.499678
0.540668
0.479417
0.480953
0.481397
0.506866
0.489818
0.409845
0.457104
0.431889
0.377817
0.331279
0.400291
0.299255
0.261314
0.220005
0.218633
0.212969
0.132673
0.218724
0.192517
0.231085
0.138795
0.141818
0.111651
0.050646
0.072090
0.065204
0.024738
0.042085
0.060259
0.119923
0.038400
0.124811
0.073592
0.019218
0.091446
0.011104
0.080298
0.052934
0.033751
-0.013985
0.110404
-0.008570
0.059225
0.095559
-0.060871
0.042328
-0.019196
0.058801
0.068431
0.045332
0.057416
0.029137
0.055139
0.024696
-0.006329
0.070154
-0.003145
0.031998
0.020509
0.095008
-0.007040
-0.055766
-0.027990
-0.017624
0.024620
-0.003784
-0.034694
-0.007557
-0.030981
0.077771
0.133070
0.059850
0.016077
0.071379
0.013572
0.017810
0.039401
0.042493
-0.017812
0.045852
-0.095698
0.064452
-0.037843
0.086249
0.047624
-0.011990
-0.019745
0.070988
0.124394
0.131459
0.027711
0.060389
0.092313
0.020015
0.060632
0.123356
0.076267
0.160799
0.043077
0.134142
0.241073
0.172632
0.168555
0.173370
0.103140
0.234703
0.190393
0.087094
0.192909
0.181328
0.178324
0.213115
0.140152
0.102422
0.180828
0.108175
0.121536
0.068396
0.045368
0.103153
0.056203
0.056594
0.063297
0.008595
-0.050567
-0.040932
-0.018755
0.123071
0.016671
-0.059588
0.012200
-0.018841
-0.054794
0.064021
0.018681
-0.020284
-0.042510
-0.040319
0.039326
0.148872
0.359311
0.604692
1.026484
1.224990
1.324717
1.288614
1.098784
0.630682
0.255190
-0.038879
-0.231489
-0.268669
-0.314022
-0.141453
-0.123461
-0.012418
-0.082529
-0.011916
-0.026440
0.000187
0.039795
0.012054
-0.015745
0.031760
0.026122
0.061336
0.073405
0.041308
0.001259
0.116698
0.090522
0.050425
0.099721
0.038233
0.160689
0.177128
0.173517
0.215044
0.204952
0.224835
0.251054
0.386963
0.270837
0.350127
0.314518
0.363617
0.348238
0.329683
0.435226
0.436561
0.388800
0.491857
0.450147
0.484547
0.447226
0.529716
0.440443
0.401562
0.400528
0.363009
0.402516
0.394900
0.384533
0.361643
0.320413
0.373278
0.344276
0.270399
0.237350
0.231017
0.172225
0.229760
0.163392
0.121515
0.195999
0.189394
0.139647
0.130584
-0.031412
0.103315
0.031420
0.045689
0.063759
0.009416
0.054876
-0.028553
0.045287
-0.036135
-0.049310
0.073955
-0.049841
0.011562
-0.009660
-0.041803
-0.076793
-0.075490
0.036321
-0.034056
-0.043605
-0.012354
-0.134361
-0.073180
-0.071645
-0.099254
-0.002347
-0.006648
-0.013462
-0.104986
-0.053440
-0.146010
-0.039594
-0.145776
-0.091593
-0.058057
-0.065806
-0.095631
-0.054879
-0.158339
-0.106088
-0.053004
-0.013990
-0.124439
-0.118374
-0.044607
-0.118840
-0.110299
-0.068430
-0.077628
-0.101370
-0.136320
-0.064621
-0.047998
-0.020336
-0.052313
-0.108292
-0.114021
-0.133905
-0.065019
-0.076573
-0.074796
-0.108474
-0.069984
0.031207
-0.117811
0.040745
0.003271
0.001280
-0.010571
-0.059328
-0.033766
-0.084964
-0.028664
-0.088887
0.012138
0.019804
0.079623
0.077985
0.080985
0.054929
0.085419
0.016129
0.064163
0.074945
0.001861
0.081840
0.094615
0.091706
0.098865
0.089698
0.046630
0.034828
0.016020
0.041693
0.052671
0.025147
0.019672
0.023503
-0.002976
-0.038711
-0.001852
-0.009626
-0.013242
-0.050261
-0.004134
-0.049979
-0.095825
-0.136504
-0.117328
-0.043284
-0.087849
-0.109677
-0.105866
-0.150017
-0.100638
-0.097353
-0.084739
-0.172887
-0.011824
-0.039500
0.036346
0.252274
0.633119
0.926593
1.185386
1.235206
1.194582
0.893481
0.643700
0.249369
-0.125028
-0.309242
-0.373239
-0.321654
-0.237985
-0.251330
-0.128782
-0.146186
-0.174066
-0.051130
-0.131431
-0.055059
-0.007568
-0.070418
-0.029479
-0.030407
-0.078367
0.054908
0.004101
0.019945
0.003301
0.045979
0.109170
0.150278
0.060874
0.113717
0.148427
0.279311
0.149148
0.243076
0.274482
0.194864
0.233193
0.271816
0.256870
0.394630
0.283527
0.403126
0.333912
0.355770
0.317298
0.428213
0.423777
0.467169
0.390601
0.425379
0.411207
0.463838
0.434974
0.451522
0.455488
0.405696
0.354099
0.381706
0.284514
0.292986
0.304628
0.277387
0.268140
0.220752
0.165341
0.187293
0.244562
0.188912
0.118951
0.125064
0.131855
0.035560
0.054192
0.053265
0.036766
-0.002660
-0.060509
0.008639
0.039343
-0.037955
-0.079772
-0.037708
-0.041467
-0.001187
-0.119759
-0.145052
-0.029534
-0.075639
-0.055131
-0.029121
-0.086617
-0.053406
-0.042767
-0.119591
-0.110543
-0.089513
0.046584
0.029421
-0.054920
-0.070172
-0.074346
-0.133410
-0.018908
-0.090079
-0.046191
-0.052696
-0.049616
-0.088674
-0.118415
-0.079511
-0.086617
-0.021961
-0.121246
-0.095412
-0.027069
-0.010878
-0.139581
0.031862
-0.076462
-0.064641
-0.052589
-0.160181
-0.041496
-0.040653
-0.044950
-0.062289
0.001234
-0.066194
-0.042094
-0.005768
-0.010921
-0.020171
-0.043043
-0.023954
-0.085745
-0.068276
-0.050253
0.009100
-0.053389
-0.022440
0.008134
-0.064915
0.009715
0.022514
0.060370
0.015954
0.035255
0.037895
0.049836
0.063627
0.058273
0.073701
0.071256
0.178909
0.121321
0.134494
0.118959
0.174255
0.187654
0.182388
0.156805
0.126117
0.112461
0.111832
0.065778
0.179227
0.123946
0.045535
0.038625
0.053120
-0.000498
0.004048
0.087561
0.074953
0.064904
0.037074
0.004571
0.030320
-0.010520
0.028434
0.053052
-0.002035
0.061338
-0.072610
0.017197
-0.072478
-0.006357
-0.010282
-0.062883
-0.053280
0.080431
-0.132310
-0.012158
0.018711
0.148676
0.472142
0.647339
0.917963
1.331026
1.357812
1.268067
0.959417
0.747600
0.346211
0.062661
-0.146760
-0.143652
-0.219842
-0.133218
-0.103093
-0.036589
-0.005546
0.010717
0.045805
-0.014356
0.062367
0.058323
0.041187
0.044817
0.083630
0.125704
0.094229
0.184468
0.104922
0.189697
0.134997
0.178995
0.294599
0.203386
0.185363
0.151068
0.294160
0.305083
0.337500
0.293238
0.378307
0.349854
0.361142
0.358670
0.367765
0.417305
0.401965
0.475123
0.512852
0.521367
0.422942
0.390677
0.525132
0.488592
0.556058
0.506758
0.508264
0.465198
0.393592
0.488536
0.510414
0.450622
0.510596
0.473917
0.448721
0.438145
0.333434
0.407495
0.403731
0.328984
0.315268
0.348557
0.247140
0.281201
0.271482
0.278379
0.191357
0.169629
0.271083
0.200333
0.093978
0.157159
0.218309
0.174126
0.038401
0.079272
0.084395
0.143123
0.084236
0.045387
0.019548
0.175190
0.138197
0.049975
0.031430
0.144554
0.081893
0.102685
0.049156
0.145302
0.073967
-0.052317
0.080681
0.064999
0.032921
0.050514
0.015679
0.058938
0.082555
0.090960
0.117691
0.078730
0.074753
0.003034
0.093767
-0.049865
0.011697
0.016566
0.110149
0.023998
0.020999
0.044777
0.105317
-0.026946
0.079260
0.088560
0.034533
0.046275
0.040445
0.063821
0.104248
0.012434
0.045112
0.065022
0.056046
-0.012914
0.027196
0.166413
0.197234
0.053769
0.053725
0.070427
0.087822
0.129933
0.120179
0.157957
0.128682
0.097108
0.099708
0.168161
0.191713
0.126036
0.134715
0.217447
0.197700
0.147861
0.149485
0.193399
0.180965
0.162606
0.186673
0.240246
0.251772
0.219203
0.199069
0.235696
0.287699
0.279305
0.273828
0.241075
0.199938
0.212051
0.215231
0.185212
0.166624
0.161043
0.165649
0.127488
0.170725
0.189049
0.102035
-0.001864
0.095715
0.111349
0.043968
0.096656
0.069342
0.143641
0.084660
0.108668
0.029617
0.028906
0.006210
0.018793
-0.012973
0.022297
0.062199
0.070015
0.120989
0.257382
0.397527
0.781914
1.082358
1.229450
1.415352
1.399273
1.056463
0.691679
0.450077
0.154304
0.013586
-0.162150
-0.168295
-0.055131
-0.052447
0.053717
0.163223
0.150705
0.108479
0.001496
0.100498
0.135920
0.157318
0.134594
