-0.037936
-0.023488
0.073751
-0.034693
-0.010947
0.022569
0.014628
0.012241
0.023321
-0.062826
-0.107163
-0.010119
-0.029511
0.002055
0.018035
-0.001489
-0.071427
0.002819
0.084863
0.109109
0.067135
0.009239
0.079514
0.083728
0.085694
0.134166
0.114268
0.173189
0.120507
0.067042
0.189341
0.238672
0.126792
0.221013
0.224275
0.212755
0.237518
0.152450
0.177771
0.202675
0.203816
0.165656
0.163104
0.169271
0.285306
0.126887
0.140603
0.096904
0.201591
0.059874
0.164145
0.155029
0.074634
-0.025136
0.133456
0.009320
0.016469
0.163282
0.054628
0.074485
0.071769
0.050235
0.028541
0.066637
0.025779
0.057839
0.031467
0.057346
0.028289
0.021452
0.271503
0.387317
0.797117
1.078927
1.376880
1.424516
1.261646
1.014690
0.734978
0.410606
0.115210
-0.135129
-0.145813
-0.127849
0.037069
-0.002334
0.010761
0.087767
0.065244
0.104240
0.145519
0.157635
0.211487
0.096198
0.184711
0.242272
0.017894
0.141614
0.151157
0.178522
0.173298
0.188352
0.323560
0.338993
0.290590
0.283211
0.273962
0.377472
0.395212
0.417714
0.399340
0.578168
0.445564
0.423493
0.479275
0.506592
0.519722
0.565198
0.625789
0.584151
0.627452
0.576801
0.550338
0.527933
0.606792
0.508553
0.607090
0.611641
0.563863
0.537006
0.498278
0.493143
0.445141
0.462149
0.510020
0.395629
0.391917
0.331103
0.284706
0.312163
0.352413
0.360162
0.307696
0.276982
0.271682
0.192458
0.273140
0.244365
0.167479
0.235101
0.243412
0.155814
0.073627
0.090555
0.164455
0.116782
0.095201
0.123520
0.116138
0.058340
0.150031
0.221070
0.111027
0.107178
0.052650
0.097992
0.066225
0.131279
0.179342
0.049000
0.044292
0.084450
0.051532
0.097339
0.107820
0.136500
0.108962
0.093364
0.075958
0.044704
0.037755
0.126097
0.096439
0.005455
0.052483
0.023194
0.056121
0.121801
0.023789
0.035375
0.067106
0.126923
0.067050
0.132308
0.156150
0.019847
0.067424
0.074431
0.064634
0.184555
0.054142
0.035290
0.075717
0.082844
0.087294
0.098858
0.184595
0.024933
0.085771
0.136826
0.215962
0.057798
0.194636
0.179143
0.152968
0.295095
0.249409
0.237930
0.193447
0.187714
0.198199
0.280547
0.245619
0.259411
0.340033
0.287834
0.228050
0.327829
0.346572
0.284445
0.247810
0.117562
0.275999
0.240504
0.189921
0.144442
0.169384
0.170715
0.160494
0.134344
0.147024
0.131635
0.123851
0.165974
0.100790
0.137845
0.052585
0.118669
0.105739
0.126561
0.073922
0.142092
-0.024186
0.188650
0.069469
0.021398
0.178834
0.213864
0.329476
0.653950
0.946684
1.231897
1.438240
1.310591
1.212423
0.920784
0.578028
0.214985
0.037532
-0.036235
-0.113474
-0.030343
0.039638
-0.080075
0.101279
0.125302
0.169845
0.175459
0.131450
0.175845
0.168107
0.154177
0.177804
0.233547
0.127514
0.255157
0.228189
0.202478
0.192438
0.255990
0.259923
0.316866
0.342504
0.265940
0.379004
0.418857
0.402553
0.399196
0.471047
0.548294
0.487269
0.402319
0.508227
0.510109
0.580031
0.650383
0.578585
0.496163
0.582701
0.549646
0.572137
0.541829
0.570802
0.632343
0.552204
0.452074
0.580071
0.435776
0.430958
0.476224
0.408010
0.409547
0.466053
0.425161
0.394213
0.366179
0.302502
0.299348
0.271852
0.319552
0.277366
0.319153
0.248880
0.150064
0.232694
0.212205
0.077818
0.107630
0.059474
0.072767
0.068481
0.118507
0.086485
0.136063
0.069557
0.067049
0.063757
0.165426
0.079301
0.111585
0.059906
0.086487
0.000000
0.000000
0.000000
0.000000
0.000000
0.000000
0.000000
0.000000
0.000000
0.000000
0.000000
0.000000
0.000000
0.000000
0.000000
0.000000
0.000000
0.000000
0.000000
0.000000
0.000000
0.000000
0.000000
0.000000
0.000000
0.000000
0.000000
0.000000
0.000000
0.000000
0.000000
0.000000
0.000000
0.000000
0.000000
0.000000
0.000000
0.000000
0.000000
0.000000
0.000000
0.000000
0.000000
0.000000
0.000000
0.000000
0.000000
0.000000
0.114743
0.132185
0.027349
0.171023
0.086804
0.128511
0.173419
0.119683
0.219571
0.181901
0.092557
0.214925
0.192330
0.221397
0.133582
0.092204
0.220517
0.155742
0.168215
0.128673
0.134049
0.111692
0.092668
0.089554
0.143950
0.083624
0.028068
0.153061
0.037537
-0.000145
0.003338
0.055395
0.072986
0.019037
0.035740
-0.049896
-0.009855
0.011780
0.018970
0.022178
-0.001182
-0.027709
0.002985
0.033291
0.045797
0.211018
0.368218
0.629833
0.984856
1.258488
1.365066
1.145020
0.991349
0.605361
0.238526
-0.027344
-0.146956
-0.135462
-0.246544
-0.145716
-0.043755
-0.080085
0.013353
0.036250
-0.033882
0.053481
0.117591
0.027638
0.082885
0.079187
0.036373
0.166280
0.055431
0.147917
0.073888
0.168903
0.175547
0.202278
0.242143
0.317937
0.251790
0.256944
0.264584
0.310134
0.323610
0.381243
0.371000
0.435573
0.402471
0.342873
0.437920
0.434385
0.588523
0.421861
0.521386
0.510719
0.500227
0.441837
0.525766
0.398212
0.415194
0.542411
0.428382
0.524225
0.407436
0.377308
0.360883
0.301261
0.372194
0.275375
0.352908
0.305144
0.246383
0.257235
0.302944
0.224258
0.229416
0.223798
0.179436
0.117055
0.083162
0.136552
0.075271
0.058665
-0.000277
0.063777
0.071530
0.089456
0.021409
-0.008860
-0.049456
-0.036495
-0.036425
-0.037334
0.027333
-0.038823
0.084593
-0.021468
-0.052720
-0.061656
-0.009687
-0.077474
0.053720
-0.077973
-0.107833
-0.042169
-0.068228
-0.027095
-0.036897
-0.038266
-0.060768
-0.042968
0.005798
-0.000501
-0.057518
-0.047321
0.001590
-0.027969
-0.055525
-0.152963
-0.057304
-0.082696
-0.012088
0.026208
-0.039064
0.002005
-0.114734
-0.046355
-0.043750
0.010680
0.019486
-0.012153
-0.047456
-0.110049
0.025842
-0.103379
-0.139802
-0.041089
-0.047460
-0.018626
-0.006204
-0.040443
-0.073096
-0.031589
-0.117054
-0.064538
-0.040128
0.007183
0.041524
0.084409
0.055054
0.112720
0.113412
0.095273
0.119630
0.138535
0.111201
0.085312
0.133994
0.112574
0.182791
0.062763
0.161766
0.082589
0.125467
0.061463
0.092424
0.117535
0.032068
0.088912
0.073373
-0.011072
0.124865
0.119814
-0.058843
-0.012077
-0.017352
0.066650
-0.070057
-0.032073
0.006503
-0.029035
0.101675
-0.100288
-0.010378
-0.101491
-0.041786
-0.067335
-0.047460
-0.109023
-0.003787
0.007033
0.077226
0.216371
0.580142
0.852427
1.073705
1.370998
1.313479
1.187011
0.775484
0.460804
0.163706
-0.040721
-0.207013
-0.223054
-0.163896
-0.031207
-0.048430
-0.025498
-0.013331
-0.013021
0.040575
0.056322
0.044068
-0.002021
0.086946
0.064513
0.089648
0.062427
0.084656
0.130677
0.179005
0.171540
0.222733
0.188116
0.140814
0.239100
0.223351
0.277904
0.310642
0.261780
0.363636
0.327822
0.388726
0.364119
0.383833
0.540586
0.474330
0.355466
0.410300
0.456747
0.534590
0.425995
0.552724
0.437525
0.480016
0.508210
0.517543
0.427843
0.468371
0.427245
0.413717
0.468263
0.359245
0.356751
0.342028
0.399346
0.343939
0.318361
0.342387
0.287567
0.269183
0.208579
0.173018
0.219369
0.098378
0.166280
0.184143
0.126624
0.057519
0.092943
0.034453
0.138498
0.073152
0.032080
0.086988
0.115803
0.012249
0.054637
0.004633
0.063327
-0.039864
0.003713
-0.017938
-0.041860
0.009342
0.046905
0.006194
0.055267
-0.017177
0.058497
-0.044374
-0.030082
0.062527
0.009971
0.017487
0.089480
0.017514
0.138059
-0.021282
0.017662
0.036497
0.041243
-0.000826
0.036339
0.039789
-0.049508
-0.013416
0.016225
0.039512
-0.039006
-0.020396
0.002036
-0.056984
-0.005835
0.009765
0.086470
0.001023
0.025163
0.064110
-0.073454
0.080925
0.011187
0.065540
-0.011988
0.003395
0.070303
-0.071026
0.112160
0.109966
0.072620
0.065543
0.166084
0.058964
0.139218
0.062458
0.101016
0.068487
0.133622
0.077731
0.156733
0.131890
0.208475
0.154538
0.229560
0.202640
0.273475
0.227508
0.250521
0.197843
0.201748
0.264077
0.156258
0.196065
0.201201
0.202606
0.185024
0.161527
0.137983
0.039102
0.062089
0.096322
0.077396
0.118829
0.107590
0.162143
0.115247
0.084418
0.069092
0.108961
0.000753
0.050462
0.123139
0.007953
-0.006647
0.055989
0.057028
0.017266
0.162062
0.209466
0.422161
0.720857
1.032708
1.308847
1.479892
1.306563
1.052221
0.776984
0.355726
0.011169
-0.013049
-0.178203
-0.145620
0.042407
0.083249
0.063153
0.059088
0.089150
0.151279
0.088449
0.135900
0.130871
0.176157
0.116826
0.185226
0.216503
0.063628
0.231784
0.170810
0.238924
0.264294
0.302247
0.272206
0.364018
0.335842
0.423547
0.377123
0.408271
0.444211
0.446528
0.507621
0.504193
0.513529
0.552339
0.577333
0.560965
0.515097
0.510015
0.582461
0.558085
0.570170
0.551823
0.561529
0.528885
0.596712
0.583261
0.594469
0.573914
0.544163
0.489723
0.491589
0.489852
0.501287
0.496159
0.441478
0.398127
0.430584
0.453601
0.413325
0.395297
0.287102
0.304301
0.260142
0.254097
0.209084
0.176470
0.181601
0.308336
0.228463
0.131665
0.209552
0.234164
0.195710
0.151741
0.126886
0.115931
0.148256
0.186392
0.122066
0.107588
0.141713
0.074511
0.022350
0.128831
0.134841
0.114669
0.124051
0.124021
0.084864
0.150075
0.107203
0.097365
0.041314
0.079350
0.069173
0.051458
0.091583
0.096739
0.139490
0.066632
0.124705
0.099009
0.103682
0.131638
0.104312
0.065276
0.086691
0.041727
0.148494
0.122477
0.055505
0.101906
0.030752
0.086240
0.041701
0.070329
0.068631
0.025532
0.020499
0.063570
0.072478
0.045764
0.190128
0.102896
0.128062
0.147696
0.133069
0.134494
0.113390
0.092878
0.175038
0.213748
0.139454
0.184692
0.159791
0.171953
0.226386
0.209701
0.281560
0.271978
0.255672
0.282804
0.244848
0.294344
0.232485
0.217231
0.194944
0.254359
0.207655
0.230107
0.230663
0.284508
0.265143
0.281698
0.162100
0.233425
0.194034
0.158174
0.185161
0.153533
0.067014
0.168609
0.118280
0.115808
0.168772
0.150041
0.208376
0.043688
0.189366
0.008688
0.069580
0.126926
0.080172
-0.080039
0.080800
0.151305
0.198291
0.355712
0.619818
0.907323
1.227767
1.354128
1.500000
1.138359
0.956313
0.456263
0.206542
-0.003108
-0.109588
-0.185425
-0.084302
-0.001640
0.044665
0.115423
0.079152
0.159143
0.109918
0.210321
0.252180
0.187755
0.151910
0.168568
0.217261
0.184422
0.144219
0.183602
0.302056
0.264745
0.279581
0.247231
0.327992
0.418030
0.316077
0.382674
0.384150
0.362507
0.417054
0.438281
0.419709
0.574722
0.550962
0.565604
0.539092
0.565540
0.542429
0.548790
0.535457
0.590561
0.521675
0.558539
0.586669
0.517436
0.625089
0.578034
0.596681
0.484890
0.442802
0.440792
0.458667
0.486475
0.477717
0.342060
0.393788
0.359251
0.332535
0.350157
0.339309
0.297857
0.284564
0.234764
0.204763
0.192734
0.214288
0.147073
0.125019
0.143357
0.073301
0.135696
0.124539
0.087923
0.102094
0.128385
0.078141
0.052433
0.120611
0.006897
0.082841
0.049847
0.004276
-0.017313
0.041712
-0.013637
0.054591
0.012340
0.045798
0.097477
-0.008773
0.072034
0.073288
0.004230
0.115449
0.081436
0.073841
0.099262
-0.026724
-0.003178
0.061482
0.053458
0.031629
0.019913
-0.050344
0.068220
0.034773
0.031992
0.083536
0.039676
0.022137
0.007489
-0.026774
0.022336
-0.015235
0.046349
0.067773
-0.003264
0.084056
0.069864
-0.026967
0.003426
0.051431
0.017024
0.041069
-0.014141
0.034161
0.072552
0.053668
0.023342
0.054735
0.162657
0.058665
0.154940
0.072690
0.069255
0.104005
0.172461
0.125670
0.127941
0.178496
0.165802
0.188792
0.109040
0.249239
0.177015
0.171029
0.140271
0.158875
0.167674
0.048586
0.146467
0.189939
0.153941
0.108957
0.104509
0.094833
0.076996
-0.004454
0.010429
0.162966
0.039257
0.106658
0.017275
-0.128795
0.014031
0.034034
-0.101633
0.030552
-0.005740
-0.014768
-0.068687
-0.068612
-0.094122
-0.009342
0.002433
-0.029637
0.031045
0.152855
0.323361
0.616268
0.989856
1.249229
1.269800
1.223818
1.007323
0.639533
0.237539
0.045580
-0.138350
-0.228626
-0.243855
-0.180931
-0.113333
0.039011
0.016622
0.016237
-0.006900
0.022004
0.039206
0.024215
0.094119
0.052541
0.151611
0.202080
0.152042
0.045258
-0.031209
0.095971
0.117688
0.117594
0.136326
0.180727
0.207855
0.275147
0.232802
0.278491
0.297123
0.303309
0.355596
0.277819
0.326820
0.369418
0.362842
0.378219
0.416485
0.463525
0.479676
0.419175
0.391908
0.489386
0.485529
0.435082
0.437438
0.371889
0.405994
0.481669
0.408179
0.338163
0.388040
0.297974
0.281603
0.329381
0.265936
0.296585
0.263936
0.155543
0.163117
0.168847
0.245165
0.131983
0.045682
0.158492
0.059669
0.110385
0.012942
-0.009519
-0.014225
0.073240
-0.010658
0.039670
-0.016602
-0.075214
-0.019537
0.001632
-0.020030
-0.031177
-0.007900
0.006425
-0.006584
-0.059854
-0.115385
-0.009346
-0.028412
-0.046607
0.004505
-0.146702
-0.074067
-0.133259
-0.058594
-0.063880
-0.018906
-0.076819
0.036247
-0.047622
-0.176703
-0.067924
0.001859
0.009106
-0.077731
-0.114455
-0.053075
-0.018496
-0.158393
0.032651
-0.005417
0.006577
-0.092770
-0.170822
-0.010704
-0.160388
-0.101482
-0.066713
-0.052462
-0.046503
-0.058692
-0.017908
-0.033582
-0.020634
0.011982
-0.037480
-0.150674
-0.089427
-0.098907
-0.056660
0.025841
-0.098457
-0.028207
-0.047981
-0.065671
0.016218
-0.046492
0.026460
0.035866
-0.007172
0.015096
0.013838
0.061844
0.038443
0.066428
0.066954
0.051852
0.184626
0.093192
0.105577
0.081162
0.059259
0.077339
0.034242
0.119231
0.076833
0.085839
0.077417
0.030460
0.037301
-0.006007
-0.008468
-0.030604
-0.023882
0.078164
-0.082597
-0.092362
-0.021104
0.026202
-0.086888
-0.032467
-0.056731
-0.076439
-0.084104
-0.093366
-0.058474
-0.057360
-0.073604
-0.041822
-0.022542
-0.049676
0.210655
0.474541
0.688720
1.011205
1.246858
1.313694
1.129364
0.716250
0.426326
0.093346
-0.161862
-0.250598
-0.242297
-0.249687
-0.193746
-0.069887
-0.107959
-0.100266
-0.061564
-0.057750
-0.026143
-0.034856
0.026971
0.106331
0.018995
-0.004273
0.025564
0.057466
0.087711
0.176284
-0.017073
0.108494
0.181470
0.140004
0.164708
0.228384
0.214277
0.243048
0.297608
0.347166
0.298539
0.309957
0.353689
0.341176
0.390485
0.424730
0.377060
0.394100
0.386071
0.424691
0.459266
0.457129
0.365737
0.431065
0.391489
0.461239
0.449144
0.420895
0.426806
0.304314
0.377657
0.344324
0.349334
0.229824
0.273911
0.359279
0.298226
0.225178
0.248407
0.216571
0.222098
0.151998
0.123091
0.107210
0.067914
0.090791
0.092742
0.089022
0.073117
0.067947
0.045106
-0.013023
-0.026363
0.031293
-0.028165
0.035420
-0.025932
-0.002600
0.019656
0.028427
-0.043571
-0.056420
0.066233
0.057914
-0.030776
-0.041085
0.003392
-0.044769
-0.114228
0.002147
-0.069035
-0.041635
-0.052857
-0.021503
-0.113337
-0.008208
-0.041566
-0.034304
-0.015264
0.018479
-0.078308
-0.067982
-0.024241
-0.006008
0.024320
0.024131
-0.021617
-0.086503
0.000010
-0.014988
-0.140080
-0.017414
-0.073132
-0.010116
-0.018500
0.040971
-0.036138
-0.092929
0.041462
-0.028170
-0.027677
-0.034853
0.021211
0.033479
0.011243
-0.071548
0.005695
0.055647
0.043679
0.017798
0.055997
-0.000446
0.078988
0.041425
0.059473
0.144547
0.012228
0.105378
0.118936
0.192683
0.120597
0.169483
0.152667
0.118560
0.149463
0.193822
0.182236
0.102069
0.106097
0.120513
0.099124
0.090572
0.177523
0.031388
0.139688
0.053102
0.137375
0.116632
0.059685
0.060390
0.011041
0.057237
0.070712
-0.000997
0.081871
-0.011971
-0.024897
0.023254
0.095229
0.002435
0.029374
-0.029986
0.025809
0.069510
-0.132145
0.085674
0.130320
0.161598
0.342855
0.694692
1.094527
1.249397
1.368112
1.306721
1.020254
0.741242
0.341014
-0.010737
-0.150368
-0.203167
-0.192612
-0.046457
-0.067632
0.002904
0.058410
0.003104
0.114444
0.142628
0.013132
0.144981
0.127726
0.112840
0.120952
0.107309
0.169279
0.149067
0.200239
0.196152
0.238536
0.203674
0.255895
0.298803
0.332917
0.371090
0.353208
0.362748
0.407256
0.392410
0.470198
0.462831
0.511708
0.467308
0.439875
0.483744
0.572143
0.451750
0.564562
0.499838
0.557013
0.554098
0.495504
0.574950
0.547187
0.557556
0.580797
0.530301
0.476972
0.459838
0.443518
0.386009
0.434406
0.414253
0.000000
0.000000
0.000000
0.000000
0.000000
0.000000
0.000000
0.000000
0.000000
0.000000
0.000000
0.000000
0.000000
0.000000
0.000000
0.000000
0.000000
0.000000
0.000000
0.000000
0.000000
0.000000
0.000000
0.000000
0.000000
0.000000
0.000000
0.000000
0.000000
0.000000
0.000000
0.000000
0.000000
0.000000
0.000000
0.000000
0.000000
0.000000
0.000000
0.000000
0.000000
0.000000
0.000000
0.000000
0.000000
0.000000
0.000000
0.000000
0.000000
0.000000
0.000000
0.000000
0.000000
0.000000
0.000000
0.000000
0.000000
0.000000
0.000000
0.000000
0.000000
0.000000
0.000000
0.000000
0.000000
0.000000
0.000000
0.000000
0.000000
0.000000
0.000000
0.000000
0.077372
0.148070
0.050621
0.121915
0.062612
0.090111
0.133222
0.159616
0.176029
0.134261
0.187933
0.167015
0.231597
0.149855
0.208464
0.217267
0.243261
0.189344
0.211343
0.214216
0.276410
0.224800
0.201392
0.224714
0.275320
0.217664
0.174260
0.100498
0.125305
0.175762
0.144991
0.117273
0.052655
0.084451
0.140916
0.050259
0.036756
0.052839
0.036010
-0.012879
0.030327
0.030052
0.043970
0.025611
0.082554
0.062960
0.038599
0.104791
0.112084
0.122539
0.118576
0.284413
0.534683
0.889364
1.124089
1.297975
1.384890
1.216056
0.923389
0.551633
0.177968
-0.048196
-0.229922
-0.154869
-0.117257
-0.041087
-0.001091
0.086672
-0.001394
0.051035
0.060857
0.100440
0.131806
0.085070
0.077502
0.081123
0.221144
0.136581
0.097622
0.202481
0.225148
0.214249
0.219675
0.289512
0.305740
0.332281
0.305676
0.242985
0.400541
0.351749
0.356182
0.341960
0.444330
0.431427
0.535611
0.491918
0.513457
0.509611
0.518013
0.516416
0.577970
0.500093
0.506190
0.586368
0.480191
0.495078
0.478890
0.513581
0.447951
0.476651
0.474993
0.395914
0.441110
0.274923
0.397551
0.365027
0.430945
0.322106
0.298851
0.246769
0.324432
0.233206
0.195437
0.262137
0.184304
0.151748
0.113740
0.163253
0.091249
0.131127
0.138537
0.113182
0.107719
0.130943
0.103022
0.080186
0.112895
0.035257
0.115936
-0.056983
-0.001556
0.065353
0.036390
0.002075
0.011424
0.061587
-0.071372
-0.027592
0.049926
0.017619
0.056122
-0.063998
0.014462
-0.013804
-0.065635
0.014749
-0.030764
0.012632
-0.008246
-0.035205
-0.029011
-0.048489
-0.059296
-0.049923
-0.005536
-0.018851
-0.007028
-0.011135
-0.004891
-0.035971
-0.000038
-0.027757
0.088515
0.004035
-0.008292
-0.009652
0.033568
-0.045036
-0.062374
-0.079499
-0.013096
-0.044200
0.000479
-0.046756
-0.010069
0.004669
-0.035112
0.076254
0.050258
-0.001949
-0.052225
0.017837
0.072585
0.132896
0.068154
0.141802
-0.023188
0.091424
0.069035
0.123144
-0.000168
0.097209
0.090772
0.201662
0.082020
0.078344
0.075190
0.103096
0.082188
0.077913
0.120600
0.114067
0.130354
0.026232
0.084608
0.036544
0.006521
-0.071600
0.106160
0.003820
-0.045572
0.001558
0.001292
-0.000958
-0.022562
-0.020390
-0.042043
0.015067
-0.008276
-0.040380
-0.009178
-0.054496
-0.072763
-0.063657
-0.047156
-0.111220
-0.045884
-0.012120
0.104799
0.288544
0.556318
0.949585
1.161434
1.360474
1.223922
0.990096
0.612212
0.262547
-0.098027
-0.275249
-0.291457
-0.251640
-0.143473
-0.162372
-0.081033
-0.007668
0.012131
-0.016886
0.036583
-0.046157
0.045698
-0.039787
0.004098
0.070502
0.103335
0.009793
0.122744
0.055354
0.084060
0.132470
0.239264
0.231791
0.184141
0.226926
0.189032
0.249579
0.261995
0.219497
0.211334
0.272531
0.287051
0.251913
0.380175
0.416727
0.390280
0.406976
0.400300
0.428251
0.387881
0.398261
0.426543
0.419969
0.377478
0.461432
0.339336
0.378720
0.432111
0.348635
0.418283
0.404326
0.249738
0.397542
0.253572
0.160493
0.203766
0.192181
0.202424
0.135578
0.252581
0.131474
0.102757
0.053313
0.059506
0.078218
0.006896
0.070616
0.004734
0.055212
0.056674
0.027692
-0.019505
-0.067317
0.038123
-0.035663
-0.087297
-0.125232
-0.063567
-0.088474
-0.101684
-0.057999
-0.092246
-0.056779
-0.115328
-0.168975
-0.057129
-0.094796
-0.099940
-0.091619
-0.109162
-0.005431
-0.040674
-0.037975
-0.087894
-0.098960
-0.143705
-0.097058
-0.141131
-0.153195
-0.134063
-0.088211
0.018050
-0.057130
-0.141478
-0.065403
-0.029976
-0.091948
-0.152787
-0.098926
-0.169747
-0.110876
-0.054080
-0.076831
-0.153915
-0.079630
-0.040219
-0.127319
-0.058982
-0.068085
-0.081989
-0.036801
-0.070598
-0.066728
-0.112321
-0.075116
-0.042510
-0.073137
-0.061641
-0.053088
0.010665
-0.045762
0.015420
0.043072
0.046850
0.069055
0.055118
0.035225
0.025171
0.040769
0.041736
0.165578
0.000000
0.000000
0.000000
0.000000
0.000000
0.000000
0.000000
0.000000
0.000000
0.000000
0.000000
0.000000
0.000000
0.000000
0.000000
0.000000
0.000000
0.000000
0.000000
0.000000
0.000000
0.000000
0.000000
0.000000
0.000000
0.000000
0.000000
0.000000
0.000000
0.000000
0.000000
0.000000
0.000000
0.000000
0.000000
0.000000
0.000000
0.000000
0.000000
0.000000
0.000000
0.000000
0.000000
0.000000
0.000000
0.000000
0.000000
0.000000
0.000000
0.000000
0.000000
0.000000
0.000000
0.000000
0.000000
0.000000
0.000000
0.000000
0.000000
0.000000
0.000000
0.000000
0.000000
0.000000
0.000000
-0.008821
0.161324
0.114290
0.047766
0.181250
0.212746
0.187125
0.239901
0.178009
0.292275
0.253127
0.322314
0.353455
0.386536
0.223507
0.382412
0.373484
0.309065
0.403928
0.440943
0.381738
0.490089
0.398341
0.436098
0.451659
0.410934
0.381296
0.473887
0.394743
0.418932
0.356189
0.361114
0.424237
0.310100
0.319665
0.256567
0.307403
0.301315
0.255647
0.215970
0.201917
0.199034
0.175582
0.119514
0.159506
0.144496
0.055492
0.095886
0.055744
0.023650
0.023474
0.072825
0.068497
0.035803
0.021807
-0.183749
0.045193
-0.055054
-0.059158
0.003115
0.030973
-0.040910
-0.072865
-0.041155
-0.072551
0.050646
-0.032776
-0.051069
0.006017
-0.030932
-0.056419
-0.000672
-0.104951
-0.057347
-0.076315
-0.069908
-0.014974
-0.092185
-0.042385
-0.057975
-0.072458
-0.031116
-0.055501
-0.010468
-0.145763
-0.034942
0.031604
-0.013064
-0.053528
-0.121635
-0.046438
-0.023561
-0.083122
0.037156
-0.039665
-0.061594
-0.033718
-0.002041
0.054358
0.049900
-0.027192
0.044057
-0.118523
-0.003140
0.030737
-0.080338
-0.032380
0.090748
-0.007516
0.006690
0.079745
0.053123
0.062932
0.012443
0.069609
0.126725
0.098488
0.155645
0.091721
0.122262
0.165998
0.128129
0.123745
0.191526
0.183326
0.183539
0.121863
0.134109
0.154344
0.091423
0.116041
0.196335
0.162345
0.076187
0.175489
0.057697
0.110689
0.100122
0.026576
0.083036
0.000772
0.142501
0.027728
0.092972
0.062374
-0.067740
-0.012832
0.028636
0.028610
0.031428
-0.015065
0.030780
0.041441
0.058339
-0.038983
-0.076810
-0.001285
0.082504
0.194437
0.327646
0.731907
1.110777
1.345860
1.379162
1.264326
0.971530
0.707598
0.250918
-0.029684
-0.009190
-0.151004
-0.150460
-0.030812
0.009947
-0.024997
-0.000678
0.113160
-0.012943
0.098381
0.005918
0.090802
0.098268
0.163255
0.131050
0.115018
0.146251
0.102807
0.175525
0.189406
0.188098
0.220360
0.251474
0.263535
0.256127
0.310557
0.343488
0.405656
0.376492
0.375432
0.439042
0.365740
0.406847
0.502257
0.508009
0.458378
0.558560
0.509220
0.518323
0.527466
0.536640
0.560986
0.592379
0.542036
0.620629
0.500299
0.480275
0.501354
0.492147
0.455438
0.486667
0.440354
0.488211
0.428918
0.366685
0.377813
0.332774
0.335972
0.295709
0.289059
0.274593
0.312762
0.231993
0.262227
0.268117
0.198462
0.122989
0.126678
0.140203
0.110952
0.058384
0.202393
0.168414
0.153228
0.050833
0.101433
0.090723
0.121296
0.070493
0.110353
0.109821
0.085890
0.037420
0.110521
0.030120
0.089569
0.054064
0.118784
0.034536
0.141587
0.013837
0.029407
-0.012467
0.053933
0.046497
0.086768
0.061406
0.018837
0.032304
0.008811
0.069331
0.045549
0.063527
0.055649
0.040063
0.022628
0.076041
0.060927
0.034534
0.084716
0.056838
0.083227
0.068337
0.058212
0.123333
-0.017548
-0.009087
0.109424
0.035593
0.160906
-0.018310
0.114078
0.023713
0.064344
0.093084
0.139205
0.013098
0.171151
0.116631
0.045013
0.102956
0.143262
0.170391
0.138889
0.152155
0.116712
0.171449
0.191284
0.145602
0.254641
0.218180
0.246474
0.225423
0.262884
0.227458
0.361019
0.254469
0.233037
0.303689
0.240979
0.230291
0.262831
0.182784
0.248195
0.108017
0.208188
0.241603
0.071459
0.093839
0.162932
0.180725
0.120937
0.081879
0.158254
0.071604
0.078224
0.012735
0.055788
0.033783
