-0.063433
-0.007997
0.069550
-0.005212
-0.044958
-0.009084
-0.090818
-0.037558
0.053155
-0.063425
0.034689
0.031553
0.004885
0.084599
0.045990
-0.009754
0.015101
0.097515
0.034883
0.057689
0.083548
0.072277
0.050235
0.080680
0.085980
0.064535
0.125396
0.100430
0.167854
0.178961
0.186709
0.155705
0.141967
0.162539
0.194739
0.314807
0.224449
0.262419
0.214441
0.096658
0.283546
0.177011
0.117965
0.192133
0.114076
0.152540
0.111190
0.073430
0.083802
0.115789
0.089302
0.111526
0.051834
0.043714
0.037371
0.031597
-0.023562
0.067206
0.038776
0.134221
0.078357
-0.006970
0.069532
0.111916
0.222877
0.507558
0.771318
1.038261
1.321792
1.403091
1.262149
1.005961
0.669717
0.343095
0.082247
-0.078603
-0.167671
-0.061038
-0.028681
0.025944
0.080416
0.168739
0.116669
0.187127
0.202267
0.139686
0.248564
0.185764
0.188166
0.283836
0.263330
0.288679
0.322642
0.355938
0.332429
0.412509
0.277908
0.328230
0.461840
0.341733
0.413078
0.477062
0.463830
0.524749
0.525676
0.626096
0.521207
0.535653
0.693398
0.618941
0.583082
0.593605
0.654362
0.626281
0.619790
0.544738
0.614609
0.507772
0.541700
0.582241
0.512723
0.533671
0.489633
0.519750
0.435531
0.440677
0.312027
0.421793
0.338022
0.440139
0.326499
0.267947
0.322487
0.288318
0.230430
0.182112
0.195733
0.199398
0.186715
0.189829
0.044401
0.068614
0.148786
0.069389
0.081857
0.112467
0.138161
0.190504
0.095274
0.150378
0.165333
0.073173
0.049779
0.074199
0.138573
0.091085
0.138037
0.064447
0.114384
0.173226
0.192801
-0.003148
0.075223
0.129171
0.115144
0.128918
0.010459
0.091003
0.034443
0.104030
0.034713
0.113103
0.076161
0.098026
0.126548
0.133917
0.095917
0.041210
0.089548
0.057598
-0.022745
0.090703
0.102461
0.111875
0.042551
0.157821
0.163822
0.238101
0.147156
0.084063
0.184651
0.182270
0.186595
0.126368
0.206727
0.126112
0.200176
0.189015
0.190068
0.197116
0.321264
0.233379
0.205542
0.321261
0.308927
0.199608
0.279918
0.283400
0.272605
0.240506
0.263268
0.326301
0.230754
0.175923
0.240625
0.216416
0.238290
0.233706
0.132488
0.146639
0.187561
0.181385
0.204677
0.153966
0.220909
0.036376
0.191360
0.146204
0.127583
0.057841
0.088600
0.042120
0.077338
0.120974
0.190477
0.145138
0.211108
0.426092
0.678110
0.927109
1.228146
1.483005
1.428578
1.295761
0.943836
0.488929
0.180150
-0.061183
-0.049773
-0.046448
0.044817
0.035499
0.109740
0.105808
0.089374
0.191212
0.182079
0.249119
0.139371
0.097017
0.249568
0.202796
0.295327
0.242030
0.274700
0.349217
0.277314
0.290630
0.335785
0.414486
0.319207
0.432812
0.506057
0.496251
0.494907
0.493360
0.477209
0.529829
0.543418
0.536880
0.528569
0.611011
0.563786
0.571240
0.611101
0.592863
0.564825
0.514186
0.652203
0.594597
0.558268
0.538445
0.473662
0.461932
0.494215
0.402624
0.484001
0.465489
0.426363
0.436826
0.278116
0.371981
0.262322
0.307240
0.332375
0.262863
0.255942
0.169651
0.185573
0.255338
0.161313
0.158978
0.154626
0.154603
0.156392
0.141678
0.133141
0.118266
0.097963
0.113236
0.109512
0.038938
0.095503
0.097665
-0.001118
0.089660
0.080429
0.098337
0.030141
0.151919
0.011964
0.098998
0.096270
0.086309
0.040292
0.089501
0.119401
0.125771
0.009364
0.005844
0.088018
-0.028870
0.091096
-0.002026
0.096647
-0.012968
0.166523
0.023222
0.001535
0.015579
0.001873
0.041635
0.026692
0.043846
0.081843
0.078716
-0.022971
0.012505
0.048475
-0.055381
0.101181
0.095658
0.060790
0.081690
0.051361
0.062739
0.125827
0.068949
0.127157
0.086705
0.078098
0.158403
0.176001
0.162886
0.207306
0.082179
0.151874
0.140807
0.241863
0.213248
0.187801
0.193238
0.193782
0.103917
0.199493
0.177462
0.202600
0.151088
0.158200
0.134371
0.024461
0.151233
0.110573
0.093087
0.054651
-0.018192
0.011074
0.032010
0.051612
0.058617
0.055948
-0.005945
0.033039
0.024420
-0.034317
0.032216
0.038791
-0.037921
0.088035
0.211182
0.486593
0.738550
1.135515
1.263958
1.362076
1.265794
1.033561
0.477710
0.159114
0.004875
-0.104740
-0.168391
-0.111745
-0.040079
-0.041269
-0.025394
0.120601
0.011040
0.005113
0.141092
0.026533
0.117021
0.176665
0.176434
0.158776
0.205506
0.225230
0.219895
0.281442
0.269422
0.279700
0.334633
0.285896
0.298262
0.324935
0.325169
0.423861
0.430635
0.282106
0.446950
0.380008
0.485724
0.491779
0.565607
0.593387
0.496662
0.578230
0.422063
0.470510
0.491499
0.507456
0.518268
0.521128
0.416834
0.436459
0.448494
0.414242
0.364038
0.436829
0.390999
0.312624
0.297796
0.285118
0.224631
0.211024
0.293215
0.177984
0.143808
0.193808
0.107963
0.154159
0.157124
0.153776
0.105809
0.090252
0.074386
0.042517
-0.001669
-0.051264
-0.008716
0.027430
0.035266
-0.043240
0.011542
-0.064400
-0.017133
-0.050813
0.035331
-0.132200
-0.038132
-0.017579
0.070332
-0.003513
-0.039228
-0.086463
-0.028639
-0.042814
-0.013882
-0.021440
0.018565
-0.089281
-0.055614
-0.062011
0.045439
-0.041594
0.050896
-0.079403
-0.094297
-0.117343
0.048995
0.054470
-0.058946
-0.073751
-0.019684
-0.035181
-0.011659
-0.086722
0.007300
-0.082807
-0.090259
0.000060
-0.020799
-0.035404
-0.063823
-0.010397
0.017542
0.010507
0.050874
0.066937
0.044414
-0.085930
0.067481
0.090002
0.054218
0.076811
0.053779
0.141012
0.132623
0.103532
0.156014
0.153026
0.187171
0.215737
0.017707
0.102696
0.123389
0.131195
0.135789
0.090296
0.114883
0.131274
0.080000
-0.006464
0.047254
0.034421
0.057836
-0.064164
0.042081
0.083308
-0.003372
0.080009
-0.086837
-0.002570
-0.067580
0.009663
-0.033045
0.071637
0.034366
-0.015031
-0.100306
0.005594
0.155227
0.270375
0.642761
0.865141
1.158415
1.354243
1.303615
1.037151
0.672328
0.338804
0.047555
-0.164905
-0.159941
-0.213232
-0.085285
-0.021005
-0.084589
0.005237
0.074072
-0.013871
-0.088489
0.057395
0.100043
0.093374
0.064928
0.180870
0.091186
0.138248
0.178601
0.109865
0.154025
0.125493
0.271019
0.281919
0.379843
0.283753
0.287507
0.362604
0.360968
0.329990
0.380800
0.359214
0.414711
0.432279
0.433023
0.518197
0.543892
0.476549
0.499573
0.562342
0.546824
0.498174
0.455646
0.449721
0.478587
0.401537
0.493412
0.440388
0.380460
0.358704
0.373820
0.244906
0.357617
0.258985
0.266733
0.256643
0.270530
0.185729
0.206498
0.210498
0.141621
0.156588
0.157714
0.100129
0.127674
0.078628
-0.001493
0.017895
0.024924
-0.004867
0.043122
0.025484
0.082649
0.044482
-0.019750
0.032171
0.065389
-0.049221
0.010142
-0.011471
0.062170
-0.025722
0.040626
-0.028015
-0.093871
-0.025532
-0.033323
-0.085813
-0.069239
-0.026811
-0.058006
-0.059527
-0.088372
-0.000760
0.030659
-0.065132
-0.084207
0.018368
0.006322
-0.048029
-0.067200
0.042942
-0.036419
0.037675
0.013858
0.019002
0.006414
-0.028692
0.075042
0.053751
0.031647
-0.062755
0.082692
-0.014655
-0.047642
0.053646
0.067534
0.064652
0.100064
0.110535
0.105882
0.060701
0.121466
0.142521
0.067937
0.214433
0.128063
0.068566
0.092933
0.153391
0.153354
0.172147
0.220673
0.210442
0.195415
0.158269
0.168739
0.219553
0.122471
0.187171
0.213416
0.144904
0.083438
0.061639
-0.001858
0.084714
0.122413
0.028510
0.046735
0.039879
0.015710
0.073487
-0.004534
0.081880
0.047922
0.043670
0.049995
0.016640
0.052040
0.022845
0.034805
0.090133
0.128983
0.297394
0.516087
0.856865
1.170917
1.352353
1.397292
1.132805
0.933635
0.527607
0.259653
-0.051747
-0.153596
-0.117806
-0.051662
-0.008049
0.068724
0.031132
0.120934
0.120102
0.095099
0.082441
0.197417
0.161370
0.173888
0.182554
0.163059
0.231906
0.204777
0.208292
0.251310
0.223628
0.323434
0.317971
0.394195
0.438036
0.469786
0.389358
0.393293
0.426815
0.535056
0.499501
0.559375
0.490520
0.536742
0.620954
0.572465
0.623143
0.541382
0.501746
0.598707
0.644246
0.502666
0.529359
0.472031
0.473105
0.515620
0.500064
0.528419
0.418984
0.524053
0.463784
0.459296
0.472738
0.357391
0.412098
0.260165
0.282329
0.307410
0.298182
0.325014
0.154685
0.185412
0.210556
0.161816
0.243568
0.231483
0.164015
0.220074
0.108854
0.230260
0.114461
0.108922
0.048457
0.120552
0.116135
0.160699
0.089250
0.072985
0.064577
0.063802
0.077300
0.067131
0.112623
0.109681
0.081869
0.085231
0.065976
0.026833
0.143441
0.047409
0.172287
0.043457
0.163257
0.007082
0.130466
0.100678
0.112742
0.047521
0.148165
0.061178
-0.020978
-0.009401
0.182943
0.186371
0.037451
0.170153
0.077332
0.174754
0.056449
0.138018
0.085037
0.162652
0.126544
0.161699
0.136711
0.153151
0.119519
0.064185
0.159459
0.250992
0.196097
0.166351
0.094727
0.252079
0.267275
0.288437
0.220383
0.198321
0.205552
0.241803
0.262507
0.256530
0.253862
0.223676
0.238040
0.254532
0.303710
0.302759
0.373290
0.236901
0.237911
0.264611
0.198938
0.168429
0.257678
0.196858
0.105663
0.111629
0.195973
0.082787
0.168659
0.147146
0.141893
0.180293
0.060677
0.113792
0.173068
0.112235
0.142656
0.067801
0.169038
0.206877
0.399681
0.569477
0.799290
1.002977
1.399091
1.409606
1.458208
1.139144
0.757848
0.398713
0.053443
0.062525
-0.077464
-0.041167
0.050989
0.105707
0.097827
0.193371
0.115169
0.216990
0.205840
0.218443
0.234355
0.216200
0.189363
0.263940
0.297863
0.257937
0.360816
0.364520
0.329867
0.330309
0.365157
0.439617
0.384631
0.490020
0.463509
0.477867
0.445304
0.464412
0.548258
0.512784
0.668082
0.590574
0.633988
0.597475
0.651393
0.634714
0.697264
0.553594
0.665643
0.578199
0.624146
0.583523
0.546189
0.552760
0.547046
0.471029
0.475743
0.534034
0.540551
0.425842
0.441294
0.484435
0.360622
0.419952
0.340896
0.354047
0.288950
0.351591
0.281136
0.245018
0.253750
0.231096
0.239768
0.216437
0.122785
0.163402
0.227089
0.208058
0.134909
0.180438
0.149920
0.206452
0.112182
0.064516
0.125380
0.089091
0.149679
0.042643
0.086777
0.072431
0.046402
0.041354
0.093816
0.073483
0.115350
0.068765
0.059244
0.101470
0.063758
-0.014472
0.044003
0.078227
0.060841
-0.001454
0.006688
0.119406
0.069897
0.025036
0.002551
0.072173
0.012511
0.142075
-0.003211
0.110604
0.012103
0.031359
0.088545
0.124842
0.061433
0.060943
0.112661
0.055296
0.080050
0.099985
0.044426
0.081497
0.134816
0.121700
0.142859
0.043784
0.193556
0.126788
0.148182
0.184192
0.187635
0.197689
0.189280
0.174554
0.207883
0.241891
0.233960
0.203157
0.199997
0.242539
0.238780
0.212490
0.222909
0.271172
0.218764
0.213741
0.116244
0.178546
0.080894
0.147567
0.178257
0.051343
0.110625
0.067993
0.098187
0.058694
0.069644
0.107306
0.122638
0.052190
0.041228
0.066209
-0.003888
0.014857
0.128440
0.073398
0.237084
0.262354
0.615018
0.867507
1.174887
1.400159
1.352568
1.202854
0.801728
0.410864
0.177681
-0.048605
-0.196192
-0.155626
-0.110398
0.015038
-0.077284
0.043005
0.090057
0.101594
0.178324
0.131956
0.254846
0.210669
0.136310
0.064669
0.126346
0.249764
0.266567
0.257879
0.291875
0.278483
0.225940
0.332135
0.378014
0.395801
0.399211
0.393332
0.461344
0.408947
0.509702
0.444238
0.536530
0.511910
0.419071
0.470775
0.506052
0.407924
0.470782
0.532714
0.496905
0.477056
0.521817
0.523744
0.460744
0.467891
0.448872
0.477711
0.376295
0.476912
0.342780
0.273872
0.380968
0.288481
0.402440
0.230566
0.244303
0.226983
0.258739
0.229043
0.185795
0.157623
0.166774
0.165483
0.072021
0.118142
0.042975
0.050806
0.051051
0.089426
-0.042357
0.011916
0.004981
0.006306
0.045741
-0.079100
-0.111020
-0.078959
-0.064788
0.015920
0.020826
-0.070366
0.026130
0.016621
-0.052181
0.027378
-0.105465
-0.104049
-0.018899
-0.054542
-0.004348
-0.048766
-0.042874
0.022650
0.011997
-0.021654
0.018377
-0.059366
-0.033333
-0.044043
-0.094484
0.015807
-0.016643
0.005360
-0.053809
-0.086795
-0.099451
-0.043522
0.012530
-0.004192
0.059310
0.005972
0.005962
0.019555
-0.005463
-0.033829
0.024504
-0.036555
-0.034180
-0.021584
0.000806
0.040177
0.055613
0.000435
0.031511
0.048568
0.073122
0.099181
0.042352
0.103937
0.143347
0.116125
0.073055
0.185193
0.047549
0.104214
0.098714
0.147119
0.113415
0.065131
0.102712
0.047251
-0.014371
0.035618
0.060703
0.052926
0.094416
0.013458
-0.021177
0.009267
0.082044
-0.002774
0.060600
0.031777
-0.019897
-0.142865
-0.047858
-0.163002
-0.026958
-0.072636
-0.036070
-0.094589
0.065338
0.120405
0.368833
0.603170
1.008276
1.232564
1.326103
1.123559
0.852754
0.601224
0.185074
-0.070753
-0.217956
-0.211553
-0.138344
-0.068954
-0.139946
-0.062707
0.021681
0.066912
0.051386
0.067961
0.050559
0.085703
0.113023
0.087913
0.098897
0.096824
0.060997
0.097159
0.155142
0.163261
0.145808
0.268074
0.240482
0.237676
0.258564
0.304109
0.289303
0.375872
0.321025
0.354215
0.385171
0.448258
0.474085
0.465182
0.443184
0.489850
0.464160
0.464534
0.468195
0.347610
0.390941
0.399058
0.340120
0.408650
0.355964
0.378154
0.342348
0.247171
0.349679
0.244777
0.297325
0.219538
0.247849
0.139487
0.177219
0.112163
0.204899
0.099924
0.112184
0.035098
0.059014
0.067460
0.026638
0.043345
0.035494
-0.002584
-0.041861
-0.094834
-0.070692
-0.007891
-0.064672
-0.001685
0.012989
0.025433
-0.011938
-0.041466
-0.038898
-0.009473
-0.042472
-0.111436
-0.064561
-0.005224
-0.138936
-0.059845
-0.088003
-0.041289
-0.051478
-0.073654
-0.080616
-0.131310
-0.103772
-0.023016
-0.051443
-0.083235
-0.074517
-0.045308
-0.095539
-0.149032
-0.064870
-0.105400
-0.155616
-0.082582
-0.028177
-0.100180
-0.071156
-0.095911
-0.055031
-0.086565
-0.101349
-0.123265
-0.075749
0.033807
-0.029058
-0.051806
-0.006006
-0.108770
-0.045109
-0.058851
0.002922
-0.001049
0.044302
0.030113
0.050202
0.044491
0.052329
0.036307
0.077375
0.051095
0.114470
0.140814
0.155695
0.133300
0.154917
0.104731
0.094853
0.110709
0.093849
0.113417
0.068810
-0.016729
0.021763
0.082211
0.063436
0.011467
0.099649
-0.004290
0.013764
0.015797
0.021065
0.003903
-0.111377
0.012175
-0.062398
-0.020689
-0.008444
-0.066981
-0.072512
-0.006062
-0.064470
-0.007328
0.002870
0.141506
0.220351
0.519790
0.803779
1.149260
1.219003
1.272015
1.076960
0.684952
0.330968
0.013517
-0.107389
-0.255099
-0.132161
-0.129977
-0.058657
-0.014909
0.043045
0.035300
0.009498
0.097509
0.011836
0.054955
0.042690
0.088686
0.132702
0.158834
0.159070
0.106459
0.122036
0.168389
0.274629
0.219479
0.243851
0.357940
0.293549
0.286955
0.331185
0.416388
0.411626
0.385395
0.470645
0.401276
0.489972
0.441090
0.526561
0.414667
0.416399
0.407063
0.508032
0.505155
0.574067
0.453698
0.510337
0.493231
0.403503
0.371003
0.426733
0.355232
0.344684
0.297052
0.297141
0.250026
0.380646
0.218672
0.166977
0.276240
0.205843
0.248513
0.142704
0.110568
0.125080
0.136762
0.219931
0.130781
0.028254
0.026943
0.048641
0.071740
0.059829
0.047990
0.088183
-0.016617
0.055081
-0.002173
0.037538
-0.067235
0.068320
-0.022127
-0.023067
-0.008664
-0.011028
-0.056724
-0.016600
-0.004493
0.014259
0.024273
0.037850
-0.017822
-0.023885
-0.025570
0.006484
0.032453
-0.013836
-0.019239
-0.046071
0.046704
0.030237
-0.060555
0.027438
0.063831
0.039345
-0.004424
-0.021753
-0.027461
0.045503
0.012289
0.018202
0.022588
0.029932
0.031533
0.028245
0.087627
0.069958
0.008320
-0.043998
0.046371
0.049433
0.186747
0.093560
0.057049
0.121123
0.061880
0.255169
0.141983
0.189543
0.119488
0.186399
0.130941
0.151880
0.157502
0.243346
0.259933
0.334334
0.264582
0.164933
0.186540
0.220246
0.136030
0.160996
0.221154
0.166555
0.150487
0.163779
0.044318
0.150319
0.140885
0.079919
0.092292
0.098988
0.116574
0.028185
0.026407
0.085639
0.016234
0.061447
0.002338
-0.011083
0.041662
0.032899
0.046160
0.051880
0.132275
0.291267
0.519944
0.849436
1.106632
1.387847
1.388048
1.234737
0.941435
0.579600
0.268289
-0.043918
-0.063831
-0.150719
-0.147793
0.003222
0.020770
-0.030885
0.127996
0.097088
0.097873
0.108273
0.188285
0.171929
0.184286
0.152928
0.199428
0.168126
0.306977
0.241495
0.313072
0.263467
0.292720
0.388622
0.393534
0.438091
0.366277
0.454356
0.491675
0.457622
0.577139
0.519609
0.430895
0.453614
0.595335
0.578700
0.580284
0.535029
0.686169
0.609890
0.560010
0.482137
0.644707
0.606846
0.468040
0.509737
0.534984
0.460074
0.469960
0.419314
0.516693
0.441190
0.373118
0.299874
0.400610
0.351937
0.356351
0.260940
0.279878
0.290600
0.243837
0.294078
0.207403
0.254168
0.206551
0.127277
0.138398
0.177596
0.092121
0.157771
0.123527
0.046937
0.017152
0.145530
0.102344
0.117683
0.049956
0.069581
0.102655
0.018022
0.075081
0.016077
0.099982
0.072142
0.101294
-0.002691
0.050304
0.037188
0.041701
0.091288
0.034909
0.139084
0.083889
0.016331
-0.027240
0.054619
0.087778
0.039788
-0.072787
0.050809
0.043891
0.034601
0.092816
0.071482
-0.008385
0.086247
0.132035
0.088841
0.082421
-0.007076
0.116754
0.020582
0.015884
0.024444
0.090927
0.081607
0.046354
0.079418
0.107842
0.124862
0.139972
0.157922
0.112857
0.152507
0.138407
0.138080
0.163832
0.197999
0.267591
0.152004
0.109099
0.188223
0.280395
0.209884
0.207503
0.216898
0.280553
0.196519
0.276575
0.263347
0.209280
0.123038
0.168392
0.159294
0.202377
0.125889
0.104773
0.029706
0.157755
0.076095
0.063844
0.086617
0.041006
0.040556
0.089072
-0.003188
0.106291
0.074331
0.033453
0.139179
-0.039179
0.065928
0.171562
0.164677
0.399189
0.635631
1.033002
1.189975
1.311576
1.312557
0.995645
0.724456
0.321394
0.034478
-0.044012
-0.079497
-0.103935
-0.019385
0.074611
0.002212
0.072771
0.066438
0.035578
0.163891
0.102946
0.122490
0.127398
0.200173
0.167212
0.222917
0.214725
0.168691
0.271047
0.331186
0.192054
0.327842
0.318174
0.315935
0.390555
0.407935
0.473036
0.380895
0.477317
0.413185
0.421808
0.475891
0.537338
0.481973
0.535356
0.495889
0.549716
0.555900
0.597694
0.550707
0.451600
0.512308
0.439860
0.475161
0.452530
0.446583
0.417053
0.441403
0.310199
0.463146
0.338809
0.291233
0.336887
0.380066
0.291309
0.284385
0.246109
0.265088
0.155031
0.242873
0.164567
0.168396
0.134631
0.053832
0.091269
0.009573
0.020381
0.111863
0.144092
0.040699
-0.025377
-0.016786
0.009549
0.005001
-0.012897
-0.012347
0.008930
-0.016457
0.024586
0.008112
-0.034022
0.050851
-0.083843
0.012574
-0.022905
-0.041991
-0.060089
-0.010644
0.122465
-0.080977
0.070485
-0.067951
-0.048128
-0.039329
0.044427
-0.075703
-0.038592
-0.051064
0.001725
0.032722
-0.089630
-0.003350
-0.075388
-0.122997
-0.008771
-0.005176
-0.072719
-0.057737
-0.039765
-0.081829
-0.064945
-0.009619
-0.057363
-0.113754
-0.008188
0.045230
0.022919
0.024572
-0.045045
0.048126
0.052853
0.090345
0.102832
0.042211
0.051052
0.063215
0.047192
0.064633
0.002750
0.022906
0.116617
0.124739
0.115166
0.135151
0.044729
0.148078
0.089860
0.053463
0.147265
0.155705
0.098557
0.101178
0.067915
-0.008322
0.095663
0.035577
0.049493
0.002102
-0.031679
-0.032643
-0.026493
-0.016158
-0.079794
-0.045980
-0.065592
-0.033525
-0.094773
-0.043237
0.023417
-0.072884
-0.018561
-0.015582
0.210185
0.411381
0.759243
1.102273
1.229265
1.280030
1.110253
0.705777
0.448818
0.090230
-0.149314
-0.245129
-0.212609
-0.174939
-0.111926
-0.031217
-0.101652
-0.096456
0.032322
0.056743
-0.040591
0.000073
-0.026915
0.027823
0.026922
0.098644
0.071710
0.161085
0.148294
0.225989
0.151287
0.138421
0.238342
0.235281
0.318485
0.328341
0.305509
0.328360
0.362566
0.388264
0.395017
0.375508
0.424466
0.462114
0.406907
0.472409
0.418537
0.481201
0.374579
0.355185
0.359112
0.403872
0.514635
0.433952
0.417151
0.413035
0.331166
0.306341
0.420776
0.370558
0.279590
0.232398
0.231266
0.301496
0.222714
0.130890
0.152963
0.163543
0.110990
0.099933
0.157832
0.040337
0.051595
-0.074066
-0.023123
-0.043132
-0.015242
-0.043929
-0.077459
0.025831
-0.060472
-0.065356
-0.041355
-0.094750
-0.067980
-0.109711
-0.086212
-0.147679
-0.065379
-0.122706
-0.193801
-0.182557
-0.103731
-0.069195
-0.115901
-0.122851
-0.048735
-0.128303
-0.116736
-0.071997
-0.100736
-0.086829
-0.078566
-0.027806
-0.102327
-0.135481
-0.145473
-0.089425
-0.054297
-0.013979
-0.021901
-0.145232
-0.028419
-0.129745
-0.074313
-0.069326
-0.015613
-0.105232
-0.104299
-0.027596
-0.100032
-0.069333
-0.054902
0.002133
-0.048645
-0.050330
-0.108328
-0.010288
-0.034431
-0.065150
-0.044486
-0.001347
0.008903
0.028356
0.103441
0.058795
0.073414
0.064685
0.117605
0.102962
0.061180
0.109424
0.069476
0.084877
0.021443
0.067976
0.095521
0.077449
0.001056
0.033671
0.066854
0.103707
-0.075303
-0.088636
-0.004010
0.008442
0.024473
-0.044181
-0.065864
-0.021381
-0.097640
0.053865
-0.050077
-0.063587
-0.098818
-0.071627
-0.059920
0.028429
-0.052647
-0.047569
-0.125021
-0.051747
0.178639
0.291726
0.562488
0.846811
1.181361
1.256721
1.150079
0.888704
0.541355
0.123641
-0.117772
-0.226998
-0.206852
-0.199567
-0.202152
-0.147379
-0.044167
-0.011316
-0.088607
-0.084565
-0.079002
-0.060656
0.075154
0.004543
0.029150
0.043158
0.050892
0.104930
0.131051
0.095878
0.193845
0.219455
0.229649
0.142020
0.225685
0.198137
0.297454
0.301335
0.294806
0.317812
0.395831
0.413769
0.396706
0.464826
0.419553
0.482006
0.448556
0.473723
0.424939
0.446757
0.455485
0.480616
0.409334
0.396843
0.433974
0.524037
0.360151
0.345868
0.286692
0.355176
0.358885
0.343549
0.255770
0.259244
0.281012
0.102882
0.193895
0.192374
0.100103
0.118933
0.164424
0.050338
0.039499
0.124365
-0.044516
0.066640
0.062703
0.034512
-0.022468
-0.038254
0.039982
-0.004964
-0.041982
0.112138
0.019629
-0.116432
-0.073738
-0.025173
-0.015666
-0.033529
0.083356
-0.042207
0.014841
-0.062838
-0.019057
-0.033665
-0.046872
0.031957
-0.035657
0.038983
-0.024474
-0.035998
0.019061
0.038037
-0.070466
0.040252
-0.055186
-0.072193
-0.036533
-0.045777
-0.060425
0.008323
-0.056524
-0.058240
-0.069384
0.007256
-0.113039
0.028918
-0.052234
0.093823
0.005668
-0.012487
-0.006699
-0.028170
0.062257
0.004284
0.084405
-0.030584
-0.033036
0.061761
0.062537
0.173491
0.031037
0.109941
0.041707
0.136399
0.159121
0.181577
0.148468
0.162388
0.230965
0.167244
0.131813
0.155497
0.118413
0.257918
0.134809
0.158726
0.098932
0.117167
0.079575
0.149294
0.106259
0.053004
0.156919
0.159437
0.098601
0.108566
0.084875
0.027808
-0.026841
0.034374
-0.000027
0.036341
-0.042139
-0.059903
0.148716
0.076033
0.011824
0.055844
-0.025532
0.016280
0.182240
0.366171
0.593961
0.916983
1.176990
1.365766
1.374515
1.141987
0.807927
0.331194
0.129613
0.019614
-0.145399
-0.156170
-0.046075
-0.011262
0.096489
0.116220
0.039913
0.075079
0.094901
0.092633
0.132287
0.189514
0.102570
0.188791
0.147618
0.267055
0.224483
0.197520
0.265618
0.279953
0.320579
0.275472
0.389122
0.443621
0.327644
0.492070
0.443484
0.461680
0.521397
0.480687
0.501971
0.602043
0.568138
0.510063
0.560666
0.540783
0.585901
0.540122
0.573654
0.544491
0.524549
0.517157
0.496840
0.467293
0.465378
0.424555
0.424185
0.438111
0.457437
0.366714
0.375408
0.356669
0.328615
0.286428
0.332871
0.205485
0.383951
0.201115
0.218501
0.115180
0.175847
0.253223
0.225055
0.180741
0.169213
0.126804
0.077975
0.138038
0.117773
0.051467
0.103067
0.074433
0.157306
0.045650
0.074677
0.022400
-0.002196
0.054099
0.095645
0.145308
0.088110
0.052371
0.079981
0.085435
0.121149
0.030406
0.050119
0.042547
0.069937
0.059603
0.024412
0.004162
0.010982
0.082879
0.046405
0.116337
0.111896
0.068937
0.070034
0.126943
0.096586
0.085348
0.050331
0.103489
0.135967
0.039223
0.062351
0.087472
0.087030
0.072576
0.104051
0.012987
0.066915
0.083034
0.134058
0.085496
0.205284
0.122081
0.113220
0.186513
0.149753
0.166469
0.176444
0.213076
0.107815
0.312986
0.163240
0.217437
0.209609
0.307389
0.241774
0.220176
0.299835
0.186599
0.184196
0.196379
0.171880
0.202880
0.299344
0.251106
0.176565
0.149410
0.125895
0.191439
0.245717
0.173237
0.121758
0.089834
0.129810
0.167517
0.050429
0.042249
0.101641
0.093724
0.095178
0.031594
0.049936
0.055095
0.117748
0.051719
0.225579
0.249783
0.585624
0.780637
1.111174
1.500000
1.471937
1.251361
1.021790
0.682440
0.268524
0.062809
-0.058744
-0.124089
-0.102500
0.107182
0.067852
0.084499
0.126727
0.187710
0.100272
0.142881
0.252375
