-0.040846
0.003937
0.044879
0.005067
0.031085
0.050351
0.000580
0.045719
0.050737
-0.014101
0.019062
-0.010666
-0.024749
-0.038454
-0.008064
0.017524
0.018173
0.001458
0.055487
0.017953
0.031955
0.047033
0.125748
0.073316
0.105522
-0.017688
0.034117
0.065656
0.081269
0.061719
0.111113
0.114338
0.100126
0.102278
0.090176
0.171096
0.139492
0.153010
0.127545
0.145240
0.147096
0.236790
0.187260
0.160380
0.127201
0.174963
0.174614
0.076657
0.145220
0.154506
0.154491
0.204364
0.178304
0.113429
0.157726
0.129411
0.128755
0.102307
0.164242
0.077644
0.037739
0.085553
0.063028
-0.011434
0.080794
0.065198
-0.001039
0.062167
0.081564
0.080618
0.054068
0.040470
0.099873
0.117482
0.085507
0.029152
0.063056
0.012008
-0.008911
0.028761
0.056090
0.130799
0.182712
0.426720
0.663011
0.987657
1.140707
1.240187
1.170945
1.010643
0.721406
0.363341
0.092648
-0.072208
-0.145531
-0.199793
-0.132297
-0.047857
0.023665
0.065982
0.048486
0.146831
0.087573
0.105836
0.035965
0.125561
0.113267
0.106908
0.116517
0.094193
0.075158
0.138763
0.108653
0.186594
0.199945
0.154174
0.222849
0.220440
0.196564
0.219230
0.249262
0.237771
0.335690
0.251742
0.351258
0.331387
0.348362
0.317096
0.422061
0.386009
0.463801
0.404968
0.439120
0.499701
0.496225
0.461505
0.483390
0.548485
0.528084
0.539964
0.478680
0.530969
0.495285
0.585425
0.496118
0.514948
0.497821
0.487369
0.463666
0.452723
0.469202
0.514202
0.395040
0.399047
0.383408
0.460169
0.352321
0.353819
0.382737
0.317286
0.291746
0.300770
0.282468
0.271518
0.261883
0.288575
0.243705
0.214971
0.177072
0.121540
0.186279
0.121336
0.108309
0.141021
0.111897
0.133319
0.120230
0.172581
0.094994
0.100041
0.172648
0.131871
0.137951
0.127515
0.137314
0.093557
0.154063
0.104231
0.078287
0.114193
0.085169
0.040282
0.174511
0.106832
0.073036
0.131579
0.135514
0.165699
0.037112
0.087519
0.132021
0.118326
0.118898
0.109477
0.090475
0.112321
0.230630
0.099846
0.162187
0.146053
0.038777
0.075526
0.087024
0.163673
0.137693
0.142865
0.139896
0.124858
0.093581
0.072335
0.133607
0.112225
0.130387
0.046608
0.151760
0.135203
0.111811
0.077470
0.089386
0.107657
0.092699
0.098975
0.124987
0.100582
0.114657
0.089648
0.157933
0.110551
0.141331
0.046692
0.123972
0.152977
0.165326
0.178731
0.125687
0.131239
0.170834
0.160790
0.203498
0.202052
0.207266
0.164873
0.213465
0.209767
0.277342
0.162546
0.265233
0.236111
0.227862
0.237544
0.225835
0.270784
0.265973
0.214452
0.216775
0.280655
0.272686
0.248303
0.197037
0.238025
0.150522
0.240428
0.274616
0.251124
0.236862
0.100968
0.153241
0.095001
0.166159
0.197145
0.107165
0.154068
0.141210
0.101804
0.127757
0.113027
0.060776
0.162554
0.110572
0.103822
0.131118
0.099038
0.109622
0.095929
0.132901
0.130580
0.063811
0.052523
0.114069
0.171153
0.504557
0.556821
0.852337
1.199937
1.227906
1.305484
1.167579
0.825469
0.508320
0.258883
-0.008396
-0.053741
-0.086593
-0.106540
-0.055539
-0.037227
0.051992
0.070283
0.088337
0.087584
0.078407
0.102350
0.111838
0.141738
0.146817
0.109246
0.139820
0.202077
0.042127
0.119062
0.166965
0.163859
0.213655
0.213934
0.186110
0.236415
0.184293
0.238886
0.290440
0.213785
0.209785
0.286484
0.329292
0.367298
0.367669
0.366252
0.446303
0.407764
0.383985
0.487208
0.512123
0.549560
0.502135
0.435182
0.451479
0.520668
0.513027
0.512637
0.531704
0.491896
0.524274
0.536915
0.555494
0.475080
0.493307
0.479638
0.482263
0.444767
0.392860
0.420132
0.420941
0.407428
0.386929
0.379528
0.310569
0.346156
0.296436
0.286011
0.320706
0.262072
0.243649
0.160636
0.208808
0.213279
0.226240
0.173759
0.142415
0.131711
0.154640
0.097089
0.095602
0.161975
0.132260
0.167663
0.138931
0.146839
0.121739
0.100686
0.095054
0.024134
0.075181
0.134314
0.071472
0.059697
0.127550
0.126704
0.073403
0.136142
0.067889
0.097918
0.102463
0.062090
0.071443
0.080339
0.066451
0.129645
0.110523
0.015628
0.103501
0.111165
0.070036
0.076259
0.076313
0.085942
0.095116
0.059192
0.078676
0.080649
0.150602
0.112079
0.043804
0.036284
0.084976
0.054246
0.074289
0.116665
0.046962
0.118240
0.056153
0.061600
0.047934
0.073609
0.069586
0.071151
0.100575
0.050225
0.113611
0.043942
0.124782
0.163210
0.082442
0.097691
0.023132
0.060071
0.058210
0.120358
0.081556
0.118206
0.087204
0.085050
0.121126
0.078925
0.105646
0.103561
0.051587
0.144814
0.109665
0.224884
0.139783
0.125481
0.150540
0.202178
0.153729
0.163757
0.161530
0.168384
0.203905
0.234509
0.217113
0.210863
0.222667
0.222464
0.172426
0.154901
0.157123
0.113431
0.194036
0.145435
0.197477
0.084052
0.165942
0.120124
0.110572
0.112324
0.068089
0.043764
0.119381
0.110487
0.056594
0.060381
0.024079
0.056145
0.089091
0.070709
0.045540
0.089679
0.080495
0.057537
0.002043
0.054640
0.106482
0.081682
0.058546
0.100235
0.047885
0.060641
0.134038
0.186653
0.472781
0.702137
1.004125
1.158611
1.242532
1.147978
0.940251
0.578739
0.245918
0.107948
-0.076007
-0.204746
-0.178594
-0.069267
-0.017852
0.037300
0.053703
0.020182
0.082893
0.091927
0.014839
0.076491
0.112236
0.134804
0.121258
0.145813
0.121890
0.192537
0.117677
0.168984
0.161750
0.167721
0.127191
0.167125
0.199947
0.191686
0.219331
0.142485
0.244290
0.333805
0.177376
0.274337
0.352129
0.289178
0.321039
0.409152
0.427998
0.412807
0.445442
0.350302
0.445386
0.408111
0.414283
0.436533
0.468353
0.486483
0.524625
0.448619
0.591425
0.486887
0.543107
0.532135
0.405961
0.426890
0.431889
0.452457
0.428755
0.437470
0.425646
0.405823
0.373643
0.374271
0.387331
0.338470
0.311853
0.276892
0.246560
0.271689
0.274254
0.237044
0.177134
0.187105
0.234048
0.163258
0.125455
0.125717
0.206942
0.118471
0.130631
0.126749
0.122843
0.101388
0.106970
0.093163
0.090208
0.127017
0.074118
0.087878
0.082816
0.094286
0.082631
0.058277
0.107472
0.076953
0.051946
0.059561
0.040752
-0.002903
0.078087
0.144584
0.151033
0.058434
0.063515
0.030505
0.045938
0.059640
0.079897
0.070971
0.018767
0.134855
0.110137
0.063209
0.064409
0.113376
0.088240
0.139486
0.096433
0.061202
0.097441
0.063626
0.106638
0.150184
0.127266
0.085504
0.044434
0.105511
0.063065
0.132742
0.113042
0.046619
0.029165
0.135699
0.147251
0.118444
0.179649
0.115331
0.112142
0.095280
0.101012
0.123549
0.031532
0.063850
0.083151
0.087195
0.115738
0.152517
0.133245
0.081269
0.082094
0.084806
0.132408
0.194735
0.143886
0.161570
0.147178
0.135054
0.135889
0.195289
0.180345
0.256219
0.289196
0.246789
0.196469
0.274999
0.276469
0.278744
0.228225
0.288935
0.209946
0.304804
0.295098
0.244835
0.267538
0.272501
0.303658
0.239146
0.173616
0.195536
0.275694
0.213877
0.231816
0.249761
0.219171
0.144244
0.243852
0.179561
0.076854
0.138768
0.119239
0.096457
0.166562
0.175639
0.125123
0.112075
0.183670
0.160183
0.165023
0.167303
0.150152
0.144014
0.182978
0.167927
0.122079
0.110528
0.120293
0.133189
0.251544
0.372171
0.733946
0.990820
1.257534
1.347852
1.310102
1.063994
0.827478
0.505624
0.211523
0.017077
-0.060777
-0.072804
-0.063987
0.051521
0.086272
0.175628
0.143490
0.158935
0.194775
0.145733
0.170642
0.183957
0.190473
0.243092
0.200976
0.179692
0.211072
0.162943
0.217711
0.203087
0.212866
0.185634
0.230442
0.284554
0.274724
0.255408
0.321451
0.359104
0.342585
0.377382
0.399618
0.452468
0.429697
0.399784
0.518352
0.481390
0.516157
0.514206
0.555309
0.558917
0.645694
0.515355
0.540821
0.526456
0.637804
0.656244
0.637711
0.616440
0.600729
0.559990
0.613165
0.609186
0.613558
0.523808
0.533351
0.515936
0.596101
0.474955
0.474004
0.514596
0.461931
0.525904
0.401121
0.487717
0.400819
0.343751
0.380778
0.440251
0.333306
0.291208
0.343185
0.305505
0.305646
0.278679
0.311166
0.305452
0.264265
0.305207
0.213279
0.272951
0.228483
0.269570
0.208750
0.217557
0.187190
0.179839
0.172938
0.190123
0.251006
0.230884
0.247306
0.182596
0.207124
0.256210
0.221555
0.196567
0.218394
0.185990
0.192621
0.166708
0.252566
0.164766
0.258729
0.227898
0.217805
0.212739
0.241026
0.241773
0.217082
0.168424
0.180640
0.202691
0.224604
0.197382
0.215871
0.229700
0.229362
0.231397
0.309376
0.264642
0.263520
0.182640
0.263436
0.180321
0.183553
0.194262
0.174982
0.205182
0.272028
0.132453
0.221787
0.179600
0.248767
0.181708
0.292301
0.252756
0.221648
0.290864
0.262429
0.264434
0.215058
0.251964
0.320827
0.215244
0.204625
0.204355
0.229553
0.192385
0.282194
0.312227
0.261719
0.256169
0.328891
0.273163
0.307520
0.252416
0.398891
0.370690
0.325371
0.345023
0.332275
0.448700
0.357252
0.353734
0.365080
0.352239
0.417000
0.358444
0.387385
0.405773
0.350855
0.342382
0.326019
0.392844
0.270171
0.324727
0.344706
0.284108
0.329081
0.348939
0.277623
0.288853
0.333091
0.244005
0.265405
0.304444
0.255975
0.276399
0.211042
0.160074
0.271814
0.213510
0.231349
0.178665
0.255012
0.254286
0.236244
0.211618
0.246547
0.254076
0.247423
0.151515
0.212562
0.271333
0.253761
0.263857
0.435061
0.667800
1.018333
1.234069
1.419808
1.353699
1.364913
1.027458
0.724864
0.437794
0.235031
0.125114
0.063647
0.123976
0.115365
0.202775
0.207624
0.198945
0.234065
0.246966
0.212706
0.237458
0.210987
0.208872
0.359458
0.311297
0.297416
0.291577
0.336028
0.293677
0.315647
0.315202
0.311180
0.280853
0.392087
0.416148
0.386033
0.441188
0.347830
0.444288
0.414739
0.423330
0.538131
0.514381
0.515329
0.511073
0.604010
0.577883
0.545586
0.636117
0.620895
0.688838
0.624354
0.640315
0.684678
0.676039
0.656587
0.680576
0.624564
0.640613
0.670901
0.697451
0.635689
0.688894
0.604865
0.695402
0.631823
0.564742
0.643635
0.606878
0.573999
0.489520
0.585106
0.521738
0.475148
0.523781
0.435629
0.407568
0.462420
0.410323
0.456865
0.414305
0.386526
0.326733
0.356055
0.316605
0.320382
0.274725
0.259251
0.226617
0.296299
0.296538
0.326689
0.232722
0.273472
0.223767
0.166990
0.235185
0.264925
0.196530
0.192245
0.264696
0.267230
0.170902
0.183284
0.253077
0.228137
0.224655
0.260430
0.096135
0.224906
0.288132
0.194318
0.240020
0.256148
0.249086
0.189210
0.203122
0.297654
0.241017
0.297665
0.253676
0.183926
0.225180
0.217924
0.225035
0.210371
0.156189
0.256167
0.257559
0.302772
0.249477
0.239688
0.301252
0.280723
0.199963
0.202286
0.219127
0.224277
0.230596
0.257278
0.208350
0.218823
0.202522
0.221392
0.300741
0.262797
0.202860
0.226422
0.266988
0.212736
0.275322
0.159978
0.217590
0.279933
0.273931
0.303391
0.325240
0.202289
0.229204
0.237016
0.252294
0.218235
0.217282
0.237940
0.259502
0.287043
0.291416
0.323758
0.281876
0.340951
0.291683
0.368646
0.358939
0.302387
0.323629
0.292326
0.309092
0.329930
0.403837
0.346080
0.339250
0.317643
0.288501
0.299727
0.324379
0.330819
0.314243
0.271145
0.235465
0.270848
0.196484
0.242634
0.297287
0.259828
0.205468
0.257163
0.307907
0.212153
0.210998
0.203270
0.195932
0.205104
0.222034
0.198442
0.186215
0.174542
0.172196
0.196212
0.219412
0.193051
0.253918
0.161757
0.169658
0.131236
0.208737
0.163345
0.272414
0.542601
0.824156
1.035599
1.354219
1.338929
1.333570
1.102269
0.881762
0.462994
0.186446
-0.029992
-0.112444
-0.058139
-0.035349
0.085922
0.093189
0.178161
0.214030
0.153592
0.166921
0.160352
0.177003
0.159231
0.134795
0.185792
0.210762
0.255384
0.236362
0.282626
0.119377
0.152963
0.275041
0.253165
0.289442
0.335714
0.295274
0.349220
0.333506
0.281358
0.352213
0.375508
0.356591
0.400305
0.364438
0.433351
0.403860
0.466021
0.503058
0.504522
0.501716
0.531197
0.564823
0.598884
0.607663
0.576692
0.591197
0.603068
0.585872
0.565323
0.587224
0.542211
0.523551
0.628400
0.561340
0.600514
0.558050
0.464063
0.541271
0.495229
0.460276
0.521199
0.431335
0.421305
0.430336
0.416217
0.376342
0.432482
0.361233
0.357095
0.328506
0.339922
0.308760
0.234164
0.236842
0.235000
0.244086
0.275223
0.212287
0.224632
0.206061
0.199461
0.165959
0.152778
0.174535
0.124221
0.125133
0.080550
0.109090
0.197019
0.131800
0.168145
0.157589
0.099173
0.156225
0.186553
0.196968
0.145847
0.178638
0.150209
0.132027
0.128720
0.128996
0.145816
0.196718
0.150682
0.172633
0.104159
0.019231
0.145535
0.217544
0.147529
0.087004
0.113423
0.252420
0.131663
0.166938
0.136359
0.130470
0.170153
0.142304
0.119718
0.115142
0.145903
0.181438
0.186151
0.144775
0.062170
0.150613
0.167157
0.166503
0.154280
0.162062
0.124020
0.181059
0.070001
0.108475
0.168766
0.121804
0.118939
0.180100
0.152285
0.159602
0.190321
0.148901
0.149854
0.127907
0.167045
0.165276
0.131320
0.185357
0.127264
0.147322
0.203264
0.137423
0.208230
0.221870
0.207351
0.246587
0.270837
0.229079
0.196134
0.274937
0.276910
0.261730
0.312728
0.356347
0.288499
0.182086
0.295730
0.328398
0.247061
0.304801
0.313415
0.245397
0.201084
0.254224
0.234378
0.232568
0.247412
0.251795
0.196874
0.213715
0.159906
0.146546
0.301093
0.171260
0.155814
0.198648
0.166138
0.187953
0.172725
0.181141
0.107758
0.200492
0.172517
0.159144
0.178719
0.098062
0.236367
0.227271
0.121611
0.145012
0.129679
0.091478
0.165217
0.097740
0.207589
0.400673
0.657159
0.945583
1.175659
1.351810
1.298524
1.121243
0.857936
0.561241
0.277079
0.065807
-0.080607
-0.036993
-0.015264
0.004925
0.056848
0.191216
0.184597
0.177190
0.211547
0.164065
0.235983
0.202869
0.227876
0.200489
0.251617
0.186123
0.146051
0.219123
0.219237
0.240201
0.211114
0.256959
0.250268
0.318918
0.297707
0.266528
0.316704
0.322458
0.330073
0.297162
0.361252
0.352420
0.432175
0.466638
0.467934
0.488174
0.499305
0.519445
0.610549
0.572377
0.540702
0.530661
0.641480
0.519154
0.617376
0.567640
0.557667
0.570767
0.630975
0.621282
0.634657
0.586713
0.603155
0.598325
0.619900
0.598819
0.551967
0.601348
0.526273
0.497317
0.545585
0.439792
0.473348
0.383046
0.433751
0.395013
0.391040
0.442217
0.352676
0.444247
0.341101
0.329259
0.288716
0.232053
0.292575
0.319797
0.277810
0.223100
0.192784
0.230013
0.317650
0.226845
0.197815
0.200850
0.220732
0.132375
0.215155
0.212989
0.191745
0.191821
0.192715
0.235726
0.151847
0.188763
0.143002
0.237319
0.251097
0.205778
0.226434
0.211091
0.237998
0.111110
0.190393
0.198923
0.257030
0.195525
0.185068
0.234550
0.191682
0.278616
0.166653
0.193208
0.177449
0.256530
0.266963
0.232472
0.286974
0.206543
0.235563
0.227948
0.196615
0.219054
0.199776
0.216155
0.269470
0.226922
0.152840
0.233219
0.237023
0.261005
0.220215
0.176949
0.195803
0.264789
0.189592
0.206426
0.251393
0.219194
0.158461
0.250295
0.201151
0.205016
0.269419
0.215379
0.214543
0.296776
0.215547
0.361658
0.273569
0.305623
0.228810
0.328058
0.239767
0.257733
0.287062
0.321897
0.307068
0.342709
0.363915
0.326255
0.356193
0.393563
0.382377
0.368831
0.344969
0.345729
0.362170
0.368617
0.376209
0.316217
0.384228
0.425074
0.441257
0.384491
0.379508
0.426981
0.346688
0.343429
0.295431
0.379268
0.254899
0.337710
0.349210
0.304642
0.294763
0.326011
0.266446
0.291618
0.281664
0.219441
0.276728
0.179922
0.259437
0.297516
0.258506
0.277960
0.268493
0.202177
0.313572
0.239140
0.236284
0.175261
0.198151
0.202034
0.269368
0.246168
0.459622
0.657201
0.936682
1.252491
1.401279
1.402046
1.408398
1.119250
0.740149
0.462890
0.202971
0.053438
0.029354
0.087688
0.138389
0.177141
0.193644
0.240021
0.229387
0.253795
0.288700
0.263319
0.229262
0.275627
0.254713
0.324258
0.337019
0.313681
0.385650
0.338873
0.322682
0.371557
0.355871
0.372558
0.407034
0.473127
0.445238
0.399495
0.376684
0.501651
0.492391
0.491452
0.519699
0.518593
0.565338
0.511748
0.598783
0.568617
0.574831
0.637107
0.669029
0.636532
0.669483
0.641523
0.642970
0.694320
0.653478
0.746830
0.664155
0.664868
0.722662
0.700637
0.619658
0.741172
0.649630
0.653234
0.665956
0.650081
0.582694
0.612888
0.622491
0.556157
0.505836
0.628914
0.532882
0.501118
0.504654
0.500090
0.490275
0.438638
0.418680
0.405295
0.410790
0.438955
0.440607
0.332756
0.285531
0.319549
0.271754
0.356664
0.314393
0.256848
0.328612
0.328489
0.354779
0.327925
0.265721
0.293482
0.252271
0.332472
0.281013
0.322418
0.294419
0.214066
0.285710
0.267601
0.265534
0.189595
0.259163
0.330919
0.270783
0.241292
0.242585
0.223965
0.254041
0.214621
0.289465
0.318616
0.309909
0.235789
0.225316
0.236003
0.299372
0.281853
0.314839
0.277375
0.311572
0.278346
0.261468
0.246005
0.229195
0.304978
0.258770
0.304478
0.241037
0.241001
0.214468
0.287860
0.295914
0.282638
0.242076
0.285931
0.231009
0.217123
0.349691
0.267820
0.275998
0.295141
0.320602
0.231284
0.214791
0.307350
0.249725
0.296337
0.316174
0.322347
0.261645
0.306519
0.299972
0.314179
0.260015
0.282936
0.338524
0.358257
0.333180
0.337923
0.269826
0.402930
0.231284
0.343103
0.450259
0.343872
0.328852
0.423862
0.391664
0.388156
0.399559
0.376207
0.403567
0.439043
0.410349
0.458917
0.438226
0.405678
0.475502
0.434247
0.449185
0.312589
0.347868
0.326153
0.310959
0.300070
0.248476
0.285204
0.262074
0.277388
0.294592
0.235300
0.258814
0.289539
0.324188
0.263975
0.273213
0.303792
0.232548
0.249224
0.259271
0.285199
0.210972
0.288034
0.194160
0.168214
0.252254
0.230103
0.261443
0.208854
0.235739
0.383786
0.542669
0.873400
1.114364
1.411431
1.468751
1.354635
1.202067
0.908157
0.617122
0.318013
0.206896
0.043688
-0.024072
0.054543
0.077528
0.152163
0.269299
0.264497
0.311641
0.259994
0.348156
0.254256
0.265858
0.230799
0.223906
0.269985
0.264372
0.252846
0.290382
0.316049
0.319299
0.327518
0.389995
0.363327
0.397542
0.334122
0.414050
0.408272
0.396228
0.479370
0.488716
0.454273
0.545936
0.475845
0.443033
0.460455
0.603887
0.586185
0.612288
0.670695
0.598919
0.634277
0.663433
0.712855
0.648854
0.627973
0.651784
0.620761
0.698302
0.656454
0.725306
0.672142
0.595023
0.602238
0.664247
0.595578
0.581963
0.584255
0.552960
0.546771
0.524672
0.502864
0.465522
0.500348
0.492092
0.452135
0.412821
0.447318
0.397978
0.443328
0.371859
0.404960
0.338928
0.234661
0.287624
0.357104
0.262508
0.264016
0.309059
0.288115
0.284066
0.284586
0.268612
0.273707
0.231932
0.201177
0.254727
0.188859
0.200828
0.223202
0.181479
0.181980
0.229717
0.177567
0.182998
0.199564
0.183246
0.231851
0.219070
0.175423
0.184643
0.226678
0.210291
0.219055
0.258255
0.200785
0.158053
0.195129
0.224077
0.213550
0.165948
0.176141
0.213340
0.128607
0.211662
0.141366
0.161211
0.212463
0.212174
0.182939
0.172254
0.234837
0.179933
0.173903
0.231030
0.180426
0.161743
0.184431
0.105809
0.206820
0.206702
0.236884
0.180333
0.213804
0.142043
0.141628
0.113216
0.152975
0.158433
0.220216
0.166477
0.162566
0.146837
0.166832
0.189638
0.164515
0.097257
0.162805
0.265447
0.235275
0.165064
0.150756
0.216625
0.254515
0.212624
0.274849
0.252569
0.279204
0.276619
0.311807
0.307116
0.335879
0.316734
0.207670
0.287968
0.320482
0.374027
0.333490
0.336342
0.330219
0.290377
0.339303
0.304289
0.315876
0.332698
0.304285
0.347344
0.183167
0.265320
0.289890
0.284624
0.190006
0.200337
0.183655
0.265792
0.259186
0.222012
0.183213
0.193528
0.256975
0.162577
0.163988
0.204248
0.131710
0.165111
0.199649
0.160456
0.191798
0.161733
0.145475
0.127977
0.142156
0.123849
0.164648
0.099281
0.204179
0.297290
0.383159
0.638170
0.927373
1.141648
1.289163
1.372182
1.132931
0.934397
0.584878
0.269483
0.063816
-0.031924
-0.135122
-0.128948
0.055042
0.113913
0.211852
0.148233
0.193202
0.155585
0.169130
0.209610
0.202604
0.169106
0.196706
0.236279
0.167626
0.168211
0.218675
0.241834
0.193022
0.202174
0.227324
0.239940
0.226492
0.279421
0.339686
0.308947
0.364415
0.376166
0.399329
0.372413
0.421086
0.424551
0.385021
0.422726
0.475145
0.543746
0.488574
0.500013
0.510772
0.518625
0.554301
0.598906
0.610586
0.593606
0.577229
0.573047
0.599445
0.575382
0.592091
0.641689
0.559905
0.565658
0.571284
0.559563
0.574426
0.509048
0.483887
0.507835
0.465384
0.503057
0.478312
0.416408
0.451077
0.420448
0.420393
0.380859
0.321035
0.344937
0.315832
0.351454
0.336623
0.223676
0.233675
0.257382
0.226740
0.213484
0.280137
0.236335
0.260570
0.258294
0.172326
0.188069
0.239388
0.236603
0.220538
0.184662
0.221994
0.072472
0.123959
0.189006
0.202421
0.207305
0.196106
0.212329
0.167683
0.110653
0.171730
0.203685
0.166857
0.181118
0.192987
0.176337
0.252186
0.195299
0.123283
0.182918
0.160630
0.178476
0.186433
0.178832
0.235183
0.197769
0.248589
0.186350
0.178703
0.188534
0.163971
0.205376
0.212541
0.182384
0.114061
0.136603
0.181593
0.215953
0.182706
0.213304
0.237041
0.216752
0.181328
0.199394
0.179431
0.254616
0.144883
0.198769
0.151731
0.164847
0.207238
0.226295
0.249313
0.220546
0.129340
0.213520
0.227754
0.185908
0.220096
0.159090
0.246165
0.157564
0.246177
0.204062
0.225143
0.268270
0.231681
0.211046
0.312988
0.309028
0.323612
0.264724
0.275399
0.391145
0.244293
0.322178
0.353306
0.354790
0.339116
0.328055
0.315883
0.341249
0.344166
0.358482
0.336617
0.401184
0.401998
0.279687
0.328295
0.356975
0.312643
0.367409
0.312788
0.320022
0.250155
0.248617
0.203477
0.178385
0.257536
0.200674
0.321209
0.214628
0.213740
0.252366
0.204462
0.261174
0.166015
0.181391
0.205901
0.192264
0.203223
0.172638
0.185442
0.270605
0.203057
0.171519
0.223992
0.210324
0.284195
0.376357
0.628273
0.893074
1.129322
1.353860
1.403191
1.331068
1.054256
0.852008
0.557027
0.196375
0.078050
0.018503
0.013300
0.045339
0.084064
0.159859
0.217893
0.180208
0.264636
0.292974
0.192086
0.232438
0.281845
0.271739
0.236451
0.300752
0.278457
0.276599
0.303604
0.338685
0.328143
0.345017
0.355507
0.351950
0.411353
0.355408
0.387999
0.332673
0.492349
0.452010
0.473585
0.558053
0.465444
0.476155
0.451103
0.498997
0.528504
0.480122
0.592615
0.643051
0.556141
0.646352
0.699825
0.707235
0.741779
0.641593
0.627790
0.714101
0.674410
0.721198
0.623616
0.739962
0.687344
0.695395
0.637546
0.637341
0.667488
0.667908
0.649218
0.537768
0.553614
0.564238
0.563434
0.522392
0.407804
0.516044
0.488164
0.463854
0.403792
0.411206
0.463022
0.372800
0.308762
0.391974
0.378448
0.368338
0.368901
0.261843
0.369768
0.334688
0.343425
0.300730
0.305170
0.274735
0.309218
0.258219
0.338485
0.291857
0.243419
0.334738
0.350269
0.280458
0.271809
0.302730
0.302255
0.229529
0.246587
0.260963
0.279382
0.279958
0.223921
0.258120
0.238109
0.339977
0.276277
0.268879
0.237581
0.280959
0.253613
0.329280
0.308479
0.292578
0.282411
0.225858
0.281060
0.314746
0.294209
0.325840
0.271930
0.225523
0.305920
0.346923
0.307410
0.319549
0.306524
0.309011
0.204873
0.305347
0.336433
0.302041
0.292015
0.320675
0.241812
0.332630
0.286714
0.291325
0.308862
0.267656
0.326047
0.346774
0.315680
0.235966
0.355330
0.286982
0.330602
0.294156
0.318627
0.339036
0.305533
0.248612
0.301398
0.342865
0.318545
0.327025
0.386177
0.337687
0.345524
0.420304
0.404570
0.384346
0.426070
0.429195
0.366514
0.426546
0.454986
0.453925
0.364904
0.472018
0.400896
0.427154
0.403324
0.504861
0.455620
0.486970
0.350041
0.365688
0.439157
0.365652
0.419633
0.364559
0.383586
0.355431
0.357320
0.336415
0.328921
0.276194
0.299851
0.329616
0.360865
0.351003
0.320107
0.293620
0.294275
0.343168
0.269490
0.285896
0.344657
0.334808
0.338679
0.288760
0.341034
0.358640
0.280837
0.237836
0.259773
0.283360
0.349157
0.592178
0.809263
1.110933
1.354234
1.500000
1.437823
1.303456
0.980372
0.739833
0.338305
0.244862
0.089884
0.061323
0.117711
0.175680
0.228444
0.268680
0.259114
0.317270
0.329658
0.300891
0.334924
0.359773
0.294994
0.366436
0.339031
