-0.038337
-0.054351
0.058992
-0.054853
-0.008231
-0.013197
-0.042828
-0.023836
0.035189
-0.053808
-0.039934
-0.024758
0.003324
-0.063873
-0.022383
0.055704
0.146174
0.021379
-0.038381
0.074000
0.027517
0.115974
-0.005036
0.022769
0.147613
0.075174
-0.009188
0.135769
0.093436
0.083426
0.111759
0.141650
0.119299
0.180023
0.243139
0.183926
0.182122
0.184722
0.179922
0.169922
0.117741
0.226765
0.244488
0.227115
0.110706
0.212387
0.180220
0.197200
0.140067
0.152353
0.104962
0.156088
0.159708
0.153557
0.052896
0.081082
0.125379
0.109200
0.023493
0.069956
-0.000802
0.064620
0.028935
0.055089
0.092667
0.035849
0.002600
0.106628
-0.005519
-0.006490
0.009042
0.054504
0.069865
0.262594
0.444149
0.769624
1.105570
1.432208
1.500000
1.366506
1.135877
0.708999
0.292363
0.060693
-0.107309
-0.243038
-0.163557
-0.023033
-0.142431
-0.041029
0.014363
0.062170
0.118312
0.129762
0.139398
0.192338
0.082439
0.131115
0.207116
0.220171
0.256114
0.263491
0.230670
0.142498
0.239896
0.264727
0.177584
0.285962
0.357521
0.436250
0.510965
0.362103
0.311677
0.483477
0.374893
0.486147
0.490283
0.456580
0.496022
0.564635
0.554888
0.606930
0.458591
0.587266
0.553369
0.498767
0.628382
0.579387
0.652606
0.717085
0.548243
0.620410
0.592457
0.515617
0.440564
0.548642
0.546233
0.402774
0.387540
0.429440
0.355257
0.444492
0.381477
0.370194
0.354370
0.325420
0.291364
0.309724
0.285691
0.254321
0.246253
0.237445
0.240700
0.205299
0.128445
0.226383
0.225960
0.153199
0.127602
0.133154
0.080420
0.126985
0.110013
0.184675
0.198029
0.036576
0.105085
0.058158
0.021278
0.091284
0.111468
0.122774
0.161803
0.042866
0.084619
0.060748
0.079576
0.164461
-0.015724
0.182431
0.008714
0.102574
0.102682
0.029951
0.038355
0.073514
0.177197
0.032650
0.010390
0.129749
0.014651
0.083263
0.092896
0.051510
0.113115
0.118044
0.123812
0.000354
0.092958
0.142659
0.135934
0.043577
0.092411
0.119844
0.151250
0.176866
0.022370
0.073816
0.083142
0.108636
0.008211
0.120008
0.080004
0.127065
0.088354
0.103866
0.154273
0.132543
0.164013
0.095799
0.190265
0.170041
0.194522
0.166363
0.221969
0.188518
0.208531
0.331462
0.230534
0.328319
0.177845
0.199733
0.344821
0.255347
0.302911
0.234989
0.273283
0.246102
0.338677
0.208655
0.175143
0.204196
0.222748
0.162027
0.201568
0.105790
0.136141
0.122965
0.190712
0.179598
0.141247
0.150515
0.109550
0.127770
0.113720
0.050760
0.022250
0.116423
0.120346
0.057075
0.126586
0.058455
0.179172
0.059741
0.055596
0.124930
0.026041
0.224073
0.300663
0.562357
0.889725
1.233520
1.393230
1.369044
1.339004
1.009949
0.677591
0.364245
-0.015349
-0.049603
-0.242345
-0.077049
-0.023782
-0.026692
0.033744
0.066017
0.128826
0.129289
0.163755
0.153977
0.178364
0.101120
0.079345
0.131618
0.158986
0.182254
0.217205
0.186186
0.211617
0.194092
0.170179
0.320611
0.280320
0.387141
0.335641
0.322389
0.441181
0.426033
0.429359
0.454044
0.409696
0.590605
0.524775
0.420076
0.523433
0.578640
0.547646
0.530725
0.588636
0.605532
0.590009
0.613760
0.678268
0.551655
0.495615
0.561504
0.580447
0.566382
0.465894
0.516726
0.499911
0.449265
0.457786
0.389674
0.350319
0.354506
0.365040
0.359544
0.316663
0.345485
0.306039
0.337745
0.191102
0.297328
0.258986
0.222178
0.149323
0.168922
0.162044
0.201168
0.126418
0.142225
0.164179
-0.011288
0.042298
0.042950
0.039788
0.060053
0.098901
0.035593
0.108040
-0.022799
0.046896
0.026296
0.127077
0.041620
0.082389
0.012758
0.095457
-0.013478
-0.030327
-0.035863
0.029672
0.033500
-0.046978
0.015397
0.010451
0.052178
0.021995
0.035500
0.020433
-0.010843
0.027334
0.074679
0.012802
0.032305
-0.005285
0.017408
-0.042826
0.000996
0.010933
-0.076091
-0.039968
-0.000721
0.098208
-0.004558
0.010969
0.085669
0.065357
-0.030965
0.039609
0.015423
-0.022221
-0.109197
-0.015432
0.039108
0.033131
0.090734
0.048089
0.124486
0.035739
0.059857
0.087579
0.040449
0.089516
0.098959
0.041425
0.101678
0.105469
0.113627
0.112106
0.114080
0.097664
0.196142
0.147263
0.175739
0.164748
0.165541
0.093181
0.205453
0.202684
0.167128
0.095926
0.105913
0.085343
0.158050
0.187089
0.172081
0.184623
0.119191
0.071291
0.028714
-0.006650
0.139114
0.118346
0.070148
0.012051
0.022596
-0.044883
0.022327
-0.054180
-0.061734
-0.015976
-0.056631
-0.017232
0.070199
0.030111
-0.000719
0.028980
-0.044518
-0.080032
-0.099825
0.121243
0.269265
0.471898
0.797945
1.062060
1.333043
1.326134
1.190306
0.828484
0.529529
0.161392
-0.086350
-0.209789
-0.283826
-0.193006
-0.142522
-0.092109
0.030288
-0.055267
0.030931
0.049761
0.022370
0.070285
0.030749
0.065724
0.027482
0.139652
0.063816
0.099398
0.106194
0.047267
0.089115
0.180260
0.141645
0.236349
0.147049
0.204265
0.225335
0.190832
0.311238
0.393361
0.333431
0.315160
0.285184
0.398400
0.392572
0.444491
0.468671
0.391549
0.421677
0.506969
0.535378
0.457555
0.399475
0.531502
0.499071
0.416290
0.442404
0.403446
0.476990
0.478881
0.493355
0.359976
0.425761
0.348474
0.373262
0.319876
0.301290
0.310257
0.247917
0.196042
0.258186
0.299740
0.220832
0.162604
0.103180
0.162515
0.146203
0.096609
0.074921
0.092734
0.072094
0.110108
0.019946
0.007824
-0.037309
0.013706
0.004031
-0.072321
0.085406
-0.095380
-0.031127
-0.004929
-0.047724
-0.001541
-0.109177
0.030398
-0.036312
-0.031529
-0.047140
0.019470
-0.031817
0.022804
-0.071485
-0.066351
-0.069864
-0.048318
0.029359
-0.104371
-0.069654
-0.116788
-0.094107
-0.084081
-0.057861
-0.074376
-0.136991
-0.018323
-0.053872
-0.051757
0.039549
-0.087492
0.029159
-0.041805
0.021070
-0.055522
-0.051324
-0.108183
-0.072008
-0.080079
-0.086880
-0.042466
0.024908
-0.048421
-0.059768
-0.094963
-0.053740
-0.050613
0.031783
0.021384
-0.040123
-0.060830
0.046072
-0.076866
-0.023932
0.035935
-0.002978
0.035187
0.088917
0.069519
0.018126
0.048174
0.028767
0.054479
0.161889
0.061949
0.074834
0.073185
0.137865
0.104224
0.169645
0.104061
0.026162
0.217289
0.127025
0.149517
0.115602
0.139580
0.062801
0.078675
0.027568
0.051167
0.105842
0.047926
0.034331
0.043626
0.048087
0.002994
-0.014655
0.027886
-0.014230
0.052335
0.000523
0.008811
-0.019194
-0.051875
-0.042299
0.060312
0.016779
-0.029194
-0.079778
-0.043124
-0.034966
0.004305
-0.024480
-0.042890
0.097825
0.228026
0.571931
0.916643
1.115708
1.404042
1.315834
1.197306
0.845381
0.397410
0.066758
-0.149718
-0.290655
-0.278325
-0.169834
-0.156390
-0.047132
-0.016826
0.000857
-0.074079
0.010276
0.020963
0.028080
0.009187
0.094428
0.079670
0.009472
0.060380
0.155269
0.010310
0.112424
0.133375
0.171458
0.153339
0.166258
0.265432
0.233096
0.226634
0.385123
0.357712
0.367017
0.372494
0.344598
0.427873
0.381519
0.469679
0.475506
0.532372
0.500204
0.485325
0.478761
0.566984
0.488510
0.479859
0.547976
0.477129
0.450989
0.564432
0.495602
0.487329
0.442022
0.467751
0.453538
0.417211
0.415119
0.449247
0.392276
0.318397
0.337357
0.207444
0.317339
0.228962
0.311281
0.227870
0.241053
0.296935
0.245729
0.164070
0.121850
0.136432
0.145259
0.122461
0.086365
0.044143
0.084229
0.053667
0.124335
0.019931
0.008224
0.018390
0.076814
0.051511
-0.016003
-0.003761
0.073884
0.104279
-0.019536
-0.021138
0.017147
-0.068293
0.085130
-0.065347
0.103275
0.024440
0.010013
0.029569
-0.027473
-0.043861
-0.005704
0.074283
0.068381
0.088725
0.013437
0.039936
0.013295
0.025434
-0.024630
0.035682
0.058831
0.087777
-0.025479
-0.053136
0.046548
0.033799
0.077573
-0.039663
-0.010332
0.004928
0.043439
0.058074
0.031814
0.101847
0.020133
0.039409
0.102364
0.077347
-0.001060
0.084156
-0.039972
0.108037
0.056569
0.049627
0.157030
0.083267
0.007440
0.020772
0.110163
0.124351
0.113650
0.122277
0.241895
0.172510
0.251203
0.217505
0.212728
0.226668
0.159390
0.220865
0.219366
0.192273
0.231231
0.270808
0.193603
0.262838
0.187022
0.284856
0.160078
0.282734
0.178388
0.162049
0.142144
0.197726
0.225775
0.144292
0.159464
0.197321
0.158087
0.242189
0.139250
0.105451
0.062098
0.122974
0.166693
0.034148
0.139676
0.039808
0.114682
0.141959
0.118206
0.027217
0.048488
0.063887
0.050489
0.021627
0.053966
0.294571
0.519685
0.675664
0.980713
1.405824
1.437094
1.430068
1.122986
0.923027
0.501528
0.092114
-0.022276
-0.125428
-0.143372
0.002127
0.003159
0.088059
0.069930
0.120329
0.014694
0.092149
0.121367
0.128535
0.166341
0.078181
0.168577
0.109964
0.211454
0.294828
0.231098
0.264512
0.276833
0.288814
0.237170
0.338888
0.326976
0.313346
0.380369
0.369176
0.428492
0.338034
0.511140
0.445664
0.487151
0.542953
0.566089
0.614742
0.596541
0.592236
0.573891
0.651491
0.525118
0.591226
0.582361
0.603648
0.632462
0.658509
0.607917
0.590497
0.595088
0.560873
0.608797
0.538314
0.442994
0.476514
0.527294
0.437707
0.431012
0.420465
0.438155
0.389226
0.410135
0.293715
0.313927
0.260984
0.197372
0.339049
0.333420
0.206139
0.176977
0.197891
0.264032
0.166986
0.140046
0.096165
0.143013
0.173157
0.144337
0.110467
0.049859
0.097051
0.082911
0.098842
0.089288
0.141612
0.098080
0.082785
0.087065
0.131303
0.101239
0.113798
0.077231
0.058522
0.116088
0.036700
0.044317
-0.003682
0.064200
0.107593
0.116064
0.100020
0.074510
0.031852
0.081990
0.052612
0.017243
0.112724
0.091882
0.129318
0.067386
0.139911
0.087642
0.110456
0.111001
0.073599
0.091085
0.081743
0.134111
0.119529
0.205810
0.125185
0.141673
0.113387
0.071627
0.137624
0.102284
0.139543
0.105579
0.159211
0.143938
0.148905
0.097019
0.065284
0.125368
0.111833
0.077651
0.167976
0.257956
0.156663
0.129993
0.141425
0.102188
0.234866
0.166992
0.211168
0.247403
0.276355
0.337029
0.180906
0.264904
0.353614
0.313388
0.307616
0.282041
0.268042
0.184506
0.343037
0.244841
0.193969
0.183403
0.197261
0.119852
0.069781
0.179058
0.133369
0.123965
0.216649
0.160429
0.172663
0.096910
0.083515
0.138120
0.029597
0.103040
0.027842
0.101838
0.108603
0.077056
0.068801
0.030244
0.129063
0.129693
0.060711
0.002583
0.111827
0.204224
0.514607
0.758627
1.025801
1.338979
1.490213
1.373055
1.107995
0.715571
0.324530
0.110987
-0.191653
-0.168639
-0.209157
-0.064876
0.005244
0.148087
0.038757
0.088866
0.041860
0.050221
0.165300
0.144228
0.129297
0.089392
0.098951
0.139483
0.156603
0.144041
0.163839
0.261741
0.220197
0.273356
0.194527
0.231933
0.359808
0.408932
0.325434
0.292259
0.350492
0.333132
0.446039
0.462139
0.359848
0.398870
0.453832
0.503499
0.498821
0.509596
0.518703
0.506104
0.534697
0.572591
0.495787
0.476104
0.618543
0.475768
0.576043
0.583279
0.462079
0.501153
0.489613
0.480449
0.451228
0.462628
0.400378
0.367166
0.416386
0.340485
0.292389
0.343154
0.323659
0.278154
0.207763
0.217729
0.207015
0.222310
0.195298
0.119018
0.103663
0.073797
0.110054
0.187784
0.146094
0.104640
0.027373
0.095753
0.102181
0.109644
0.044074
0.001938
-0.075700
0.050492
0.071052
0.015697
-0.009028
0.009588
-0.033729
-0.033791
0.046226
0.025816
0.049900
-0.001643
0.019442
-0.023724
-0.001072
-0.028071
-0.019843
-0.017173
-0.054678
0.026289
0.048512
0.046840
0.023095
-0.022118
-0.070961
-0.055028
0.011762
0.001992
-0.004884
0.012396
0.011915
-0.028262
-0.011164
-0.074751
0.031356
0.020226
-0.053003
-0.004803
0.006985
-0.031877
-0.035085
0.029528
0.024554
0.022669
-0.038989
0.002996
0.049999
-0.012091
0.034937
0.027804
-0.012381
0.004899
0.038400
-0.005534
0.104411
0.046793
-0.051001
0.015726
0.067791
0.022923
0.036682
0.080560
0.134504
0.154412
0.133768
0.166331
0.140670
0.116480
0.093397
0.117354
0.127713
0.172683
0.103553
0.111346
0.188611
0.078895
0.098051
0.096007
0.112690
0.093901
0.076724
0.074994
-0.025141
0.038709
0.008927
0.047243
0.014427
-0.028108
0.053050
-0.032388
-0.038957
-0.079348
-0.075500
-0.021748
0.010186
-0.094270
-0.005860
-0.082453
-0.150930
-0.080935
-0.093651
-0.072650
0.000195
0.007484
0.186253
0.363974
0.711371
1.007024
1.233189
1.392588
1.209307
0.864919
0.524786
0.169425
-0.119783
-0.269623
-0.234207
-0.291743
-0.152084
-0.252851
-0.058430
-0.055423
-0.127092
-0.021240
-0.060965
-0.046484
-0.002553
-0.101390
0.024952
-0.019427
0.002395
0.060386
0.043102
0.067075
0.138072
0.150902
0.176013
0.170288
0.116935
0.177969
0.153328
0.188822
0.188797
0.263735
0.324970
0.278973
0.330027
0.252799
0.383616
0.341738
0.380102
0.340492
0.414774
0.414273
0.397607
0.489315
0.458593
0.461373
0.537267
0.364279
0.394176
0.412269
0.395840
0.463440
0.440782
0.351926
0.393713
0.303869
0.365870
0.272492
0.319749
0.262830
0.266860
0.241360
0.285494
0.183880
0.157387
0.178521
0.183144
0.128144
0.045076
0.140131
-0.031164
0.043828
-0.000787
0.040673
-0.026072
0.089113
0.024925
0.056173
-0.096208
-0.038574
-0.070538
-0.059090
-0.076636
0.032840
0.026712
-0.054633
-0.027420
-0.108432
-0.052323
0.000665
-0.021450
-0.096637
-0.063836
-0.064018
0.024722
-0.035450
-0.114640
-0.121644
-0.074662
-0.092566
-0.118051
-0.025042
-0.087159
-0.017439
-0.018572
-0.115398
-0.147366
-0.045974
-0.053725
-0.065957
-0.176935
-0.132054
-0.125406
-0.110153
-0.098322
-0.046761
-0.033766
-0.157293
-0.132226
-0.125895
-0.097883
-0.079300
-0.034420
-0.161802
-0.000043
-0.066408
-0.051359
-0.037751
-0.004739
-0.156702
0.068610
-0.068265
-0.010288
-0.071727
-0.039322
-0.144569
-0.024676
-0.000668
-0.008575
-0.011631
0.058184
0.046763
-0.035843
0.013348
0.027586
0.047592
0.114177
0.150830
0.123957
0.036742
0.065052
0.076859
0.163360
0.146432
0.119461
0.112435
0.103167
0.111147
0.093682
0.095767
0.084000
0.089237
0.047362
0.000959
-0.029389
-0.006360
-0.018550
0.037492
-0.074264
-0.056890
0.055932
-0.086988
-0.074197
-0.077886
-0.016722
0.009885
-0.079787
-0.149096
0.000994
-0.022801
-0.092681
-0.040295
-0.068818
0.023645
-0.115291
-0.125819
0.042938
0.204098
0.478321
0.732710
1.045572
1.294455
1.326596
1.107229
0.892834
0.431151
0.066247
-0.171068
-0.283137
-0.251821
-0.257133
-0.219372
-0.091332
-0.071227
-0.093688
-0.003461
-0.061529
-0.023421
-0.029848
-0.058519
-0.009269
0.080911
0.085327
0.034663
0.056938
0.113347
0.038765
0.109217
0.152180
0.150972
0.084161
0.169458
0.232254
0.200315
0.135785
0.286010
0.326915
0.357342
0.403418
0.381788
0.407395
0.365033
0.378402
0.451683
0.419151
0.438108
0.582412
0.398385
0.494049
0.517304
0.568000
0.489415
0.488555
0.430984
0.560104
0.465479
0.462014
0.407186
0.440284
0.395160
0.337308
0.411067
0.338412
0.307971
0.349735
0.339612
0.306901
0.219949
0.266925
0.233208
0.184567
0.149815
0.198989
0.155601
0.136846
0.083806
0.089368
0.154487
0.086109
0.063862
0.151077
0.087256
0.038006
-0.037808
-0.018176
0.042554
0.036872
-0.031461
0.076663
0.022133
0.031310
-0.007451
0.016876
-0.055721
0.041281
0.099780
0.093335
-0.004547
-0.026799
0.040833
0.031907
0.039535
-0.091695
-0.048745
-0.019438
0.039936
-0.098908
0.090776
-0.070190
-0.027614
0.066517
-0.034276
-0.075965
0.130960
0.030652
-0.026658
0.075144
-0.032451
-0.000982
-0.002356
-0.067847
0.024871
-0.020616
-0.025177
0.020338
0.017778
-0.033844
-0.021395
0.051711
-0.053368
0.039040
-0.034110
0.059063
0.014982
-0.087504
0.010319
0.013489
-0.001596
0.046460
0.043168
0.057854
0.004113
0.077433
0.098349
0.083833
0.090264
0.133520
0.051446
0.182782
0.167870
0.210445
0.211164
0.124441
0.227801
0.189858
0.168573
0.180672
0.192933
0.255542
0.250839
0.185283
0.221317
0.201430
0.179366
0.263883
0.222594
0.159176
0.102688
0.150993
0.118334
0.185964
0.096264
0.034258
0.090067
0.021583
0.042574
0.049669
0.044100
-0.067776
0.009888
0.069340
0.094183
0.002154
0.076495
0.061584
0.100775
0.026867
0.005261
0.018406
-0.014924
0.080312
0.138785
0.290589
0.599428
1.028507
1.262294
1.370530
1.351285
1.293124
0.893573
0.520570
0.233366
-0.175410
-0.176866
-0.186682
-0.088988
-0.046021
0.005520
0.052384
0.033167
0.048712
0.147310
0.065155
0.099771
0.059669
0.103176
0.048904
0.134019
0.140268
0.135159
0.172857
0.196578
0.077238
0.202598
0.237256
0.215361
0.279817
0.229368
0.333359
0.337391
0.393143
0.311880
0.430575
0.453378
0.433728
0.397361
0.512370
0.434325
0.576190
0.473053
0.549407
0.560958
0.562719
0.614208
0.460326
0.565558
0.503860
0.631944
0.470351
0.471500
0.603851
0.546065
0.519425
0.441540
0.503500
0.456992
0.424478
0.426324
0.350867
0.407536
0.431542
0.221450
0.265533
0.318931
0.295281
0.207143
0.250725
0.231479
0.208810
0.180965
0.116979
0.164333
0.228640
0.161815
0.198413
0.146028
0.056362
0.091267
0.153463
0.077124
0.037268
0.087197
0.079534
0.164215
0.069756
0.029565
0.056530
0.110508
-0.026108
0.080610
0.029284
0.084995
0.080681
0.040640
0.115653
0.048394
0.015266
0.055673
0.019491
0.062202
0.078004
0.023407
0.058633
0.087959
0.016817
0.061229
-0.051754
0.036617
0.042844
0.014815
0.025089
-0.004854
0.093782
0.071701
0.064243
0.062279
0.067874
0.067673
-0.031928
0.086761
0.011253
0.018526
0.047376
0.063063
0.055494
0.102852
0.000776
0.049083
0.038421
0.066181
0.065214
0.084254
0.065631
0.073568
0.011236
0.008115
0.018018
0.106017
0.212451
0.088130
0.055832
0.074975
0.054712
0.159843
0.066428
0.152077
0.170255
0.236283
0.320869
0.168633
0.145534
0.232442
0.098001
0.141333
0.240621
0.144825
0.204460
0.234108
0.138310
0.102738
0.118201
0.133293
0.090486
0.094196
0.099078
0.033350
0.041858
0.019111
0.061822
0.022698
0.007200
-0.089990
0.027114
0.074456
0.091073
-0.004231
-0.059971
-0.049627
0.015232
-0.008578
0.015268
0.074100
-0.038702
0.001916
0.030003
0.051250
0.107115
0.374857
0.586126
0.992317
1.163321
1.402277
1.314708
1.139423
0.742479
0.419861
0.069337
-0.155980
-0.166954
-0.212044
-0.176924
-0.067577
-0.063571
-0.020735
0.042483
0.120677
0.124079
0.083313
0.051953
-0.026659
0.078991
0.112309
0.112655
0.113950
0.158317
0.129463
0.113048
0.167105
0.077779
0.097600
0.204341
0.204518
0.193530
0.289581
0.230781
0.302502
0.354911
0.398408
0.343241
0.377662
0.440419
0.407754
0.462579
0.379608
0.468581
0.532151
0.446610
0.474618
0.471304
0.487640
0.515757
0.565494
0.516859
0.473444
0.524993
0.457595
0.394525
0.430937
0.454091
0.361852
0.462952
0.368036
0.220603
0.317676
0.270559
0.355350
0.335943
0.273839
0.358233
0.194323
0.188828
0.132996
0.112223
0.183008
0.092203
0.022749
0.041404
0.119071
0.039206
-0.012192
0.072235
0.069727
-0.014635
0.006807
-0.000061
0.031950
-0.012630
-0.097751
0.021434
-0.020882
-0.040341
-0.115677
-0.089090
-0.012534
0.034973
-0.079964
-0.066030
-0.095410
0.035907
-0.042598
-0.074215
0.055224
-0.025381
-0.069604
-0.018926
-0.088617
-0.015348
-0.000948
-0.107976
-0.046324
-0.124687
-0.059603
-0.005289
0.002108
-0.069438
-0.070380
-0.019717
0.008000
-0.094597
-0.090373
-0.044947
-0.095647
-0.142091
-0.044048
-0.084250
-0.100015
-0.110053
-0.024018
-0.004497
-0.062313
-0.046949
-0.069834
-0.021058
-0.062427
-0.000873
0.072953
-0.068830
-0.022849
-0.059124
-0.108687
-0.020737
-0.045417
0.008025
-0.033267
0.003851
-0.067620
0.060267
-0.074928
-0.032990
0.049169
0.000471
0.064026
0.137081
0.076679
0.086297
0.119934
0.062940
0.065204
0.111137
0.094275
0.082713
0.043672
0.018317
0.066236
0.089888
0.017996
-0.020314
0.028862
-0.000554
-0.035888
-0.010234
0.007173
-0.039914
-0.046535
-0.048941
-0.068246
-0.073644
-0.124769
-0.111533
-0.098675
-0.109088
-0.146570
-0.065057
-0.000546
-0.026181
-0.122403
-0.064566
-0.111900
-0.081363
-0.113361
-0.072933
0.093481
0.293856
0.629940
0.903333
1.234260
1.348690
1.203347
0.931749
0.593045
0.172456
-0.081744
-0.315312
-0.287023
-0.257067
-0.249490
-0.117488
-0.042457
-0.104935
-0.119765
-0.067721
-0.102931
-0.122459
-0.091786
-0.017622
0.013276
-0.027379
-0.038624
-0.003559
0.013799
0.098760
0.015226
0.084054
0.089148
0.052423
0.146201
0.143220
0.166669
0.180979
0.128335
0.232761
0.251619
0.264262
0.342531
0.321644
0.394592
0.319091
0.410116
0.442461
0.329676
0.395750
0.381649
0.529720
0.358408
0.392806
0.351096
0.453772
0.425245
0.440916
0.330892
0.383592
0.424856
0.375491
0.378687
0.311685
0.355412
0.354172
0.313611
0.269592
0.174286
0.151969
0.180516
0.236418
0.142742
0.145000
0.166212
0.118944
0.103078
0.023297
0.057179
0.003019
-0.001417
0.016083
0.025300
0.042891
-0.026142
-0.119931
-0.015378
-0.066741
-0.075269
-0.069221
-0.132185
-0.125839
-0.038206
-0.105195
-0.026506
-0.141140
-0.137539
-0.112206
0.018203
-0.077921
-0.114960
-0.041649
-0.131743
-0.094426
-0.063764
-0.083954
-0.074908
-0.135703
-0.187922
-0.034495
-0.085692
-0.127156
-0.059828
-0.085985
-0.109778
-0.080182
-0.108729
-0.086461
-0.019879
-0.077447
-0.107156
-0.052280
-0.130104
-0.153352
-0.119414
-0.050939
-0.066944
-0.105213
-0.066295
-0.139859
-0.082891
-0.105122
-0.060416
-0.064257
-0.095468
0.018192
-0.071020
-0.096231
-0.142944
0.024312
-0.042468
-0.065785
-0.083816
-0.045212
0.039054
-0.001200
-0.029898
-0.031038
-0.065516
0.028836
0.080254
0.091594
0.089352
0.017959
0.029108
0.046637
0.062781
0.080275
0.044938
0.069358
0.118185
0.039571
0.125319
0.148424
-0.001034
0.099064
0.088567
0.060806
0.058502
0.031384
0.047231
0.071850
0.060244
0.023761
0.006474
0.042957
0.034835
0.016579
-0.073568
-0.013403
-0.104622
-0.007940
0.000966
-0.058759
-0.059983
-0.075009
-0.103271
-0.077766
-0.018598
-0.082856
-0.023451
-0.130330
-0.078158
-0.158906
0.035674
0.173151
0.385297
0.764242
1.040934
1.218075
1.341476
1.269914
0.923151
0.550710
0.158498
-0.084973
-0.314559
-0.287450
-0.232914
-0.193608
-0.087507
-0.021983
-0.043743
0.099407
-0.034470
0.040525
0.000083
-0.001913
-0.021362
0.047146
-0.022550
0.049032
0.105619
0.136162
0.122365
0.101583
0.084472
0.155170
0.145714
0.206337
0.109818
0.130662
0.247094
0.323151
0.269521
0.324252
0.410902
0.281089
0.355367
0.399255
0.404283
0.456666
0.479235
0.433956
0.480725
0.479936
0.493258
0.528322
0.534668
0.531932
0.544948
0.477692
0.437989
0.441406
0.476522
0.546194
0.485312
0.391570
0.411056
0.444740
0.348711
0.321342
0.325934
0.309118
0.262457
0.285529
0.241864
0.358815
0.311488
0.152006
0.171419
0.148712
0.119543
0.161276
0.189210
0.106933
0.100884
0.115211
0.130946
0.190538
0.109397
0.105574
0.159361
0.134194
0.049670
0.028824
0.023649
0.004109
0.017110
-0.055748
0.057412
0.046750
0.019721
-0.021901
0.045370
0.041097
-0.000968
0.082527
0.043451
-0.014691
0.010765
-0.057565
0.030998
0.079744
-0.009996
0.101013
-0.039730
0.000814
0.039716
-0.012556
0.051851
-0.018744
0.102893
0.036685
0.039394
-0.061105
0.075354
0.042771
-0.001728
0.039794
-0.032786
0.083199
-0.021086
0.028851
0.038749
0.054767
-0.007497
0.077725
0.117199
0.045977
0.051432
0.098415
0.047789
0.010157
-0.013909
0.014400
-0.024094
0.020872
0.044125
0.073659
0.110381
0.080314
0.130045
0.019448
0.211064
0.136449
0.135200
0.163875
0.156407
0.201775
0.221686
0.241586
0.215790
0.220022
0.316835
0.262422
0.256243
0.230662
0.182958
0.232826
0.174209
0.226843
0.236130
0.243134
0.200871
0.156547
0.202017
0.114955
0.171621
0.026839
0.219379
0.045339
0.070464
0.037501
0.154402
-0.031327
0.123594
0.040787
0.066895
0.159209
-0.009780
0.081919
-0.000828
0.058930
0.002054
0.045041
0.103055
0.031052
0.087757
0.137341
0.296411
0.546760
0.924910
1.216176
1.435222
1.485684
1.314326
0.989532
0.590484
0.274107
-0.016725
-0.111435
-0.135144
-0.108578
0.035208
0.049050
0.002342
0.116728
0.046902
0.040730
0.091892
0.130403
0.175962
0.115990
0.107894
0.106690
0.143156
0.123331
0.216353
0.231466
0.208452
0.285416
0.341247
0.164792
0.286106
0.326914
0.397549
0.356965
0.352959
0.360353
0.410097
0.350747
0.374886
0.483111
0.507404
0.555346
0.476799
0.593644
0.562134
0.579218
0.607399
0.589775
0.611300
0.555351
0.671581
0.555917
0.555994
0.529611
0.569944
0.539355
0.554744
0.553273
0.539934
0.444299
0.391047
0.421633
0.430159
0.415350
0.384198
0.367474
0.288991
0.350598
0.323139
0.288786
0.255955
0.302558
0.134769
0.287132
0.203203
0.194406
0.217063
0.196191
0.047586
0.140994
0.082779
0.074133
0.084311
0.077891
0.034368
