0.027364
-0.062753
-0.040300
0.058696
0.033731
0.049454
0.070201
-0.025174
-0.046821
-0.005821
-0.013867
0.005731
0.043924
-0.019078
-0.065862
0.011508
-0.047136
0.043654
0.049863
0.009200
0.033819
0.048774
0.014775
-0.026915
0.093524
0.085345
0.104950
0.083801
0.022700
0.066953
0.059049
0.080148
0.267969
0.077472
0.076498
0.228165
0.222266
0.143987
0.178197
0.123364
0.168669
0.261701
0.161047
0.206963
0.247329
0.202166
0.202036
0.087419
0.136977
0.153860
0.123727
0.214340
0.101320
0.115110
0.116845
0.086645
0.064878
0.054557
0.024734
0.093864
0.086698
0.059274
0.007731
0.069449
-0.001428
0.048441
0.083344
0.034798
0.047102
0.073102
0.033693
0.034456
0.028351
0.088982
0.034513
0.046630
0.092888
0.180422
0.360509
0.640809
0.931682
1.225052
1.420361
1.334523
1.118154
0.855492
0.399073
0.078879
-0.095498
-0.195097
-0.122397
-0.095051
-0.037379
-0.050425
0.025403
0.055821
0.110210
0.093732
0.086916
0.075872
0.090646
0.088588
0.140550
0.166445
0.105608
0.111126
0.112654
0.075454
0.212307
0.223722
0.237126
0.245802
0.257193
0.283326
0.281409
0.269064
0.352026
0.389317
0.385189
0.313714
0.437245
0.388264
0.419826
0.468905
0.424613
0.455893
0.510326
0.444591
0.537385
0.532024
0.542324
0.456019
0.620725
0.488976
0.515677
0.562119
0.665715
0.551360
0.502542
0.472658
0.540833
0.489184
0.500097
0.431033
0.385413
0.487380
0.389376
0.328726
0.407346
0.399353
0.314593
0.255296
0.382778
0.323645
0.224448
0.216887
0.254507
0.211288
0.245283
0.151462
0.173224
0.086526
0.138888
0.172309
0.112878
0.159859
0.091613
0.139411
0.135610
0.136856
0.080059
0.084100
0.108587
0.147767
0.103112
0.159106
0.087818
0.103752
0.139413
0.008682
0.114712
0.101252
0.098339
0.042804
0.043016
0.066180
0.067116
0.048243
0.071108
0.129089
0.145653
0.049437
0.080018
0.063297
0.000026
0.064409
0.021771
0.071988
0.113067
0.071470
0.005236
0.116167
0.091202
0.071133
0.043158
0.161511
0.140016
0.185816
0.082902
0.041119
0.047515
0.100349
0.149908
0.083303
0.149439
0.050689
0.046401
0.037857
0.073363
0.056906
0.121838
0.079133
0.041790
0.028741
0.156185
0.075745
0.088948
0.143869
0.126924
0.062390
0.027554
0.083444
0.110035
0.186730
0.190603
0.212587
0.195608
0.176248
0.128461
0.242932
0.277669
0.190705
0.190853
0.225664
0.310753
0.238784
0.289309
0.182317
0.207900
0.221074
0.287288
0.222604
0.233559
0.122132
0.254452
0.250869
0.235098
0.177316
0.204465
0.092207
0.106944
0.178107
0.036549
0.182230
0.087383
0.069309
0.120382
0.143813
0.155723
0.089606
0.042745
0.093483
0.059660
0.030378
0.129353
0.056502
0.056381
0.078282
0.074463
0.005948
0.071860
0.067435
0.149391
0.330957
0.537191
0.841161
1.137973
1.407166
1.351934
1.217158
1.065823
0.727828
0.275624
0.080434
-0.157505
-0.112257
-0.181114
-0.036762
-0.004255
0.042020
-0.009947
0.027577
0.106441
0.152546
0.112259
0.148115
0.043294
0.133142
0.059137
0.135277
0.176850
0.193345
0.150031
0.152802
0.176523
0.064025
0.176402
0.284178
0.269593
0.292774
0.222173
0.292729
0.296026
0.292088
0.379327
0.339431
0.363440
0.401095
0.452913
0.503510
0.546671
0.420161
0.456842
0.422236
0.500783
0.571968
0.506035
0.508763
0.538591
0.503560
0.468587
0.523427
0.557942
0.529255
0.560033
0.538499
0.480351
0.487831
0.501282
0.489399
0.406175
0.445428
0.388723
0.345500
0.402996
0.279536
0.273714
0.322683
0.196990
0.200881
0.243662
0.245419
0.165906
0.135273
0.165754
0.115137
0.121411
0.079794
0.159684
0.052334
0.098107
0.027709
0.085099
0.015783
0.103209
0.145642
0.060106
0.065038
0.018701
0.039915
0.092880
-0.008128
0.060385
0.023739
0.077556
0.032262
0.047180
0.033407
0.061199
-0.052260
-0.065177
-0.065544
0.061376
0.059386
0.004402
0.158596
-0.000775
0.090850
0.073940
-0.031328
0.009613
0.004767
-0.056441
0.052761
0.005642
0.012681
0.015313
-0.034295
-0.008070
0.068041
-0.015043
0.041112
-0.000322
0.050144
-0.053482
-0.031951
-0.039851
0.058345
0.037308
0.003475
-0.008189
0.090950
-0.072755
0.050005
0.032664
-0.016053
-0.014060
-0.042579
0.028171
0.034836
0.005831
-0.067432
-0.007786
-0.038711
-0.017605
-0.015483
-0.002030
0.043836
0.040162
0.135324
0.147491
0.047695
0.035328
0.160778
0.033665
0.032238
0.089594
0.191762
0.101211
0.208228
0.101379
0.140331
0.157305
0.199386
0.196108
0.154933
0.158287
0.068533
0.109208
0.131127
0.113770
0.057509
0.142332
0.084487
0.135502
0.013615
0.051902
0.030699
-0.034716
0.037851
0.046378
0.039079
0.023762
0.021253
0.003729
-0.047307
0.046311
0.001176
0.011163
0.019836
-0.035199
-0.038146
-0.003945
-0.034807
-0.073158
-0.094205
-0.034724
-0.017500
0.171832
0.318467
0.645565
0.829470
1.148541
1.296369
1.227028
1.001749
0.739813
0.314386
0.039699
-0.212532
-0.165359
-0.188668
-0.113044
-0.181867
-0.038972
-0.075583
-0.055535
-0.071551
-0.074357
-0.060211
-0.021348
0.035228
0.068416
-0.001327
-0.042210
0.002630
0.052326
0.046515
0.014777
0.121015
0.127374
0.077296
0.210435
0.146181
0.153871
0.160439
0.216642
0.222503
0.229197
0.275612
0.270259
0.264091
0.390115
0.289231
0.318645
0.357444
0.418233
0.385045
0.462613
0.468473
0.532532
0.413149
0.465679
0.472259
0.456824
0.488690
0.456009
0.501999
0.400086
0.441333
0.382925
0.385956
0.444064
0.371860
0.345715
0.387392
0.306616
0.257780
0.286261
0.288475
0.176697
0.376457
0.197358
0.162041
0.104273
0.081600
0.213967
0.152216
0.060618
0.107490
0.085177
0.086770
0.029124
0.013645
0.027515
0.033246
0.009583
0.018897
-0.009437
-0.024126
-0.067445
-0.027202
0.026283
-0.033086
-0.039293
0.027146
-0.004914
0.023668
-0.030920
-0.007393
-0.001312
0.008693
0.061686
-0.058408
-0.101367
-0.075803
-0.040635
-0.011683
-0.023001
-0.025310
-0.077451
-0.012313
0.001499
-0.120394
-0.052319
-0.147615
-0.025218
-0.048936
-0.037516
-0.134809
-0.020083
-0.043192
-0.066949
-0.050658
-0.130295
-0.055514
-0.027296
-0.109719
-0.015491
-0.045827
-0.035068
-0.081988
-0.068823
0.026634
0.002728
-0.050707
-0.083627
-0.104518
-0.009012
0.037932
-0.036464
-0.022663
-0.084344
0.015264
-0.037909
0.031590
0.019979
-0.015937
-0.067567
0.070573
-0.022755
0.035950
-0.032465
0.064837
0.036490
-0.024899
0.091112
0.036829
0.132450
0.112898
0.039478
0.092730
0.151407
0.137820
0.158931
0.126346
0.222056
0.176094
0.134230
0.138643
0.169620
0.217119
0.183430
0.195735
0.113150
0.068003
0.112311
0.096993
0.073856
0.043422
-0.018000
0.066703
0.111842
-0.002625
0.067574
-0.048242
0.046272
0.002122
-0.007540
-0.014144
-0.003168
-0.092891
-0.041045
-0.033839
0.019145
0.045716
0.011882
-0.128716
-0.028459
0.005327
-0.013706
-0.029832
0.019172
0.106047
0.196773
0.467489
0.731341
1.039512
1.377883
1.424236
1.111746
0.919409
0.571657
0.155149
-0.033496
-0.208378
-0.282897
-0.133002
-0.093368
-0.081349
-0.048949
-0.050012
0.027060
0.064419
-0.064837
0.008983
0.038416
0.011227
0.118746
0.021916
0.122609
0.087013
0.096457
0.104603
0.082384
0.073489
0.064592
0.127700
0.142274
0.159886
0.200926
0.231851
0.293756
0.333676
0.380700
0.270529
0.375507
0.304449
0.280497
0.329179
0.377937
0.411574
0.536951
0.524803
0.487474
0.454067
0.484382
0.521782
0.540921
0.517314
0.511261
0.554421
0.492448
0.494802
0.539839
0.517385
0.474780
0.545607
0.526209
0.449599
0.535620
0.339544
0.359133
0.382977
0.402001
0.386943
0.312006
0.332652
0.333815
0.273456
0.278525
0.207294
0.235016
0.106786
0.159904
0.126079
0.101267
0.105067
0.215045
0.106167
0.111414
0.133594
0.034796
0.082772
0.036584
0.080163
0.031779
0.033800
0.087628
0.097930
0.078109
0.041051
0.029637
0.095200
0.062498
0.089808
-0.028351
0.058716
0.022241
0.084887
0.045020
0.032045
-0.017516
0.054813
0.050870
0.013249
0.114184
0.028260
0.071414
0.063610
0.129767
0.009981
0.073043
0.053190
0.030864
0.025565
0.033805
0.054261
0.058443
0.038576
0.024942
0.102940
0.050870
-0.031246
0.138226
0.062884
0.077348
0.031540
0.072144
0.094023
0.142787
0.114903
0.049831
0.056280
0.079770
0.075107
0.074569
0.066747
0.027360
0.082569
0.100640
0.163410
0.096723
0.035045
0.088862
0.116373
0.163362
0.209550
0.169302
0.104521
0.180220
0.141695
0.156263
0.185060
0.259989
0.170830
0.224193
0.184247
0.231010
0.166585
0.207789
0.273011
0.215383
0.216169
0.272762
0.242205
0.252332
0.273184
0.208507
0.237655
0.211697
0.217740
0.168958
0.254179
0.194317
0.149404
0.227071
0.082559
0.148270
0.165751
0.167747
0.148188
0.084129
0.133591
0.083759
0.066703
0.064968
0.035919
0.060497
0.035559
0.098536
0.099921
0.019273
0.065723
0.057258
0.089850
0.074779
0.109555
0.118692
0.200324
0.436589
0.714861
0.976206
1.318957
1.497864
1.457431
1.187047
0.842757
0.482124
0.199845
-0.031030
-0.147139
-0.102630
-0.118449
0.022007
0.102600
0.047628
0.116080
0.085899
0.132555
0.082446
0.036839
0.162666
0.119209
0.132658
0.200602
0.113262
0.157447
0.231270
0.164954
0.163910
0.191124
0.233073
0.263451
0.345488
0.330681
0.330511
0.280892
0.356968
0.369360
0.369943
0.374204
0.399450
0.420315
0.536699
0.539246
0.537169
0.615060
0.500519
0.545081
0.599012
0.555140
0.590395
0.595160
0.591020
0.549444
0.597420
0.623776
0.601265
0.557998
0.554427
0.499593
0.473376
0.466866
0.558885
0.519188
0.436589
0.466152
0.430960
0.497783
0.373160
0.390547
0.299650
0.266197
0.358924
0.334140
0.255320
0.215611
0.254780
0.309197
0.167173
0.116874
0.271682
0.192083
0.121230
0.125006
0.145553
0.133190
0.181545
0.093289
0.101727
0.080839
0.112735
0.143214
0.129477
0.091728
0.101489
0.025248
0.087660
0.007446
0.074517
0.105548
0.074641
0.059053
0.100377
0.040067
0.111245
0.155544
0.150869
0.125261
0.118986
0.105000
0.077905
0.095967
0.060972
0.044027
0.084634
0.043600
0.017449
0.049057
0.045534
0.069669
0.063360
0.035658
0.049775
0.025652
0.078253
0.058840
0.067926
0.075245
0.012426
0.028584
0.073178
0.095002
0.108244
0.153087
0.013481
0.128579
0.005474
0.073429
-0.053279
0.095784
0.066913
0.018063
0.115867
0.050280
0.045488
0.133186
0.066975
0.103590
0.098571
0.122808
0.133216
0.129556
0.154909
0.112188
0.127334
0.140751
0.159773
0.111459
0.116586
0.207077
0.215700
0.196162
0.187868
0.208016
0.247785
0.259448
0.223930
0.166695
0.227714
0.190253
0.272879
0.134148
0.197289
0.177549
0.140445
0.210823
0.124040
0.148423
0.206581
0.145658
0.112274
0.129816
0.073914
0.033615
0.095454
0.087624
0.080686
0.091116
0.099891
0.106299
0.072513
0.018528
-0.020622
0.058062
0.034971
0.060363
0.096214
0.017519
0.067684
-0.040480
0.036258
0.004318
0.017621
0.371700
0.511365
0.797669
1.148543
1.279052
1.423627
1.162888
0.933829
0.563571
0.242993
0.052834
-0.168088
-0.257531
-0.138668
-0.085972
-0.090894
0.108262
-0.061404
-0.019186
-0.032888
0.019219
0.079904
-0.030839
0.051148
0.068078
0.038723
0.023238
0.127785
0.090986
0.105664
0.122435
0.104689
0.149886
0.116544
0.138933
0.279984
0.295775
0.214320
0.261185
0.314316
0.337622
0.279138
0.344005
0.328279
0.314933
0.361726
0.330853
0.364995
0.327085
0.390947
0.457189
0.427703
0.467307
0.468939
0.516304
0.454559
0.557457
0.485255
0.430346
0.416031
0.400740
0.446261
0.459857
0.452340
0.430461
0.373115
0.347529
0.349858
0.420751
0.311912
0.258057
0.311095
0.215857
0.199462
0.218046
0.250934
0.157956
0.139820
0.183469
0.181730
0.103437
0.165530
0.106820
0.018669
0.010847
0.090594
0.029922
0.003926
-0.026909
0.005006
0.007506
-0.019003
0.015213
-0.037471
-0.038947
-0.033448
-0.023128
0.024581
-0.093405
-0.015369
-0.046276
-0.026103
-0.014288
-0.063441
-0.009105
0.034836
0.002051
-0.067776
-0.092463
-0.091043
-0.026422
-0.047044
-0.106769
0.000156
-0.088431
-0.022404
0.010051
-0.045569
-0.091310
-0.059573
0.031246
-0.069208
-0.093734
-0.046032
-0.062559
-0.021794
-0.048415
-0.148864
-0.063074
0.004597
-0.033898
-0.083788
-0.031428
-0.038408
-0.009629
-0.100060
-0.006253
-0.068747
-0.051343
-0.040103
-0.087739
-0.125569
-0.054229
0.000972
-0.086287
0.020984
-0.020363
-0.022866
-0.026989
-0.005790
-0.012383
-0.050404
0.034668
0.031516
0.054397
0.013405
-0.035046
0.023088
0.107653
0.008309
0.049239
0.121392
0.055224
0.106041
0.105145
0.129946
0.086968
0.062796
0.071138
0.103290
0.072573
0.182339
0.107208
0.067822
0.052808
0.030598
-0.000233
0.055992
0.034087
0.093985
0.030436
-0.061390
-0.036375
-0.032915
0.021560
-0.063651
-0.080677
-0.026119
-0.020552
-0.067907
-0.069110
0.049213
-0.057553
-0.066926
-0.044882
-0.114997
-0.047989
-0.040443
-0.122167
-0.066983
-0.053796
-0.134540
-0.107407
-0.107098
-0.003259
0.084008
0.300106
0.529484
0.902270
1.181971
1.266228
1.217841
0.960333
0.652472
0.198994
-0.028302
-0.227016
-0.383880
-0.314496
-0.263096
-0.180124
-0.051837
-0.055413
-0.016925
-0.059598
-0.003970
0.051839
-0.056173
0.017694
-0.032478
-0.038342
-0.013995
0.061640
0.007732
-0.038314
0.099772
0.039252
0.065583
0.069849
0.122425
0.090353
0.070010
0.095071
0.097288
0.223320
0.203669
0.164085
0.214039
0.236716
0.314637
0.302609
0.200064
0.294554
0.357176
0.313445
0.444696
0.390149
0.420172
0.369298
0.453421
0.473315
0.408329
0.451809
0.381891
0.447360
0.426695
0.438451
0.312768
0.386357
0.326067
0.339548
0.316149
0.328582
0.348874
0.380417
0.231214
0.245073
0.229156
0.192749
0.230202
0.196966
0.139503
0.160870
0.114973
0.094709
0.161217
0.046616
0.042483
0.073072
0.112242
-0.021734
0.095455
0.055724
0.023635
-0.054160
-0.050697
-0.039845
-0.065026
0.019337
-0.029650
-0.014236
0.021129
-0.053417
-0.091476
-0.095850
-0.040210
-0.032442
-0.092323
0.011150
-0.001580
-0.047114
-0.086287
-0.090178
-0.116284
-0.072443
0.019477
-0.027768
-0.074297
-0.101737
-0.064617
-0.010820
-0.055007
-0.031379
-0.064269
-0.085806
-0.113872
-0.120706
-0.148782
-0.125359
-0.059177
-0.080739
-0.104747
-0.030508
-0.066008
-0.006955
-0.048614
-0.119775
-0.076539
-0.038051
-0.054086
-0.000817
-0.044414
-0.008682
-0.050585
-0.036362
-0.089141
-0.053204
-0.107147
-0.073500
-0.038548
-0.049642
0.000684
-0.058856
-0.014149
-0.032900
-0.003905
0.046372
0.092875
-0.058516
0.003055
0.036093
0.030761
0.094202
0.009796
0.071859
0.086159
0.027034
0.179876
0.037869
0.092021
0.071782
0.119553
0.155721
0.108215
0.106953
0.109510
0.212328
0.089860
0.185639
0.059715
0.093162
0.040706
0.072543
0.108539
0.112838
0.056779
0.047072
0.063420
0.011324
0.030482
0.008991
-0.031054
-0.007254
0.011913
0.008289
0.041917
-0.024032
0.014365
-0.025778
-0.029877
0.003024
0.004654
-0.020308
0.043653
-0.031484
-0.018898
-0.118945
-0.049962
-0.069086
-0.005379
0.035654
0.178395
0.489370
0.782949
1.053261
1.285305
1.313513
1.200364
0.920742
0.571418
0.183193
-0.024058
-0.244191
-0.248414
-0.256368
-0.131106
-0.073776
-0.070970
0.112398
0.045641
-0.012085
0.087370
0.079582
0.038251
0.003623
0.079321
0.058344
0.053700
0.040042
0.050059
0.029891
0.106157
0.176750
0.217751
0.173965
0.153394
0.131302
0.231313
0.206994
0.209759
0.247023
0.305673
0.235926
0.324360
0.365990
0.380656
0.447656
0.403491
0.345622
0.364034
0.414613
0.436829
0.449452
0.508549
0.505196
0.544238
0.549504
0.559920
0.511256
0.463323
0.464907
0.376439
0.467291
0.433856
0.450041
0.461728
0.319662
0.447704
0.321958
0.416973
0.328732
0.340867
0.287629
0.248778
0.303082
0.266849
0.253189
0.284398
0.163636
0.112260
0.169846
0.187864
0.167797
0.169079
0.088062
0.151546
0.124617
0.018341
0.102298
-0.016850
0.019976
-0.013403
0.090786
0.102906
0.038056
-0.008868
0.119509
0.059338
0.093410
0.037731
0.009266
-0.026220
0.044939
0.009004
0.055987
0.088265
-0.002995
-0.000534
-0.034644
-0.020707
0.002354
0.043992
0.006285
0.048157
-0.012071
0.026831
0.058652
0.084811
0.098514
0.060548
0.019595
0.064688
-0.046679
-0.071710
0.075306
0.070100
0.050705
0.016757
0.019079
0.047610
0.017751
-0.030367
0.080757
0.036890
0.041693
-0.023098
0.071558
0.033481
0.085861
0.128658
0.041804
-0.004307
0.070505
-0.010088
0.032153
0.001915
0.134886
0.049758
0.065945
0.076190
0.031825
0.119112
0.080659
0.120986
0.082632
0.031751
0.179190
0.132467
0.096779
0.199386
0.104642
0.216593
0.173266
0.183957
0.200311
0.192282
0.233005
0.209995
0.180836
0.255764
0.251578
0.311269
0.176832
0.277580
0.171398
0.181853
0.099579
0.203635
0.121129
0.180134
0.186856
0.125925
0.134170
0.132994
0.112973
0.096146
0.044818
0.063668
0.106996
0.062353
0.098078
0.018634
0.090209
0.006634
0.075350
0.040963
0.098903
0.058907
0.114902
0.050536
0.026982
0.105853
0.025413
0.022645
0.016134
0.020993
0.227814
0.435000
0.651509
0.937732
1.277195
1.500000
1.305090
1.112905
0.733640
0.333414
0.014591
-0.037726
-0.228494
-0.210730
-0.100875
-0.120509
-0.013118
0.037236
0.086113
0.011917
0.056159
0.036332
0.082216
0.114560
0.072883
0.151135
0.122587
0.107194
0.156766
0.052931
0.124195
0.186831
0.126069
0.141925
0.269105
0.202324
0.238983
0.256961
0.225346
0.274961
0.327134
0.257487
0.326020
0.344077
0.385206
0.322951
0.440690
0.394084
0.422095
0.504248
0.495472
0.423904
0.568036
0.492129
0.538897
0.473399
0.452107
0.568626
0.567919
0.502672
0.478208
0.585525
0.554691
0.480880
0.398321
0.445570
0.417997
0.407384
0.371415
0.402661
0.281175
0.374698
0.313281
0.213126
0.334463
0.252491
0.260906
0.110071
0.215508
0.242255
0.161738
0.173518
0.161053
0.176813
0.169031
0.119812
0.186670
0.089319
0.018214
0.032525
0.057306
0.061201
0.038769
0.040194
0.026470
0.012479
0.010925
-0.003743
0.027000
-0.003673
0.021626
0.005351
0.061857
0.029651
0.005112
-0.052761
0.059622
0.009885
0.011755
0.024801
-0.008181
-0.032118
0.088747
0.001584
0.020399
-0.108732
-0.043358
-0.062449
0.049691
-0.002860
0.023931
0.042988
0.100934
-0.000806
-0.059096
0.023213
-0.055545
0.000165
0.029119
-0.044288
-0.076084
0.046649
-0.048756
0.000878
0.061424
-0.014386
0.031042
-0.018136
0.054102
-0.036890
-0.040528
0.000272
-0.113859
-0.003907
-0.047277
-0.074087
0.022640
-0.009702
-0.083509
-0.015172
0.042922
0.013232
0.023441
-0.042065
-0.038527
0.002034
0.120140
0.058960
0.163293
0.104651
0.147891
0.046443
0.020032
0.190823
0.135590
0.067105
0.101345
0.186338
0.182658
0.155336
0.054464
0.081956
0.094004
0.071373
0.076393
0.099183
0.132404
0.117756
0.090804
0.100033
0.070302
0.023549
0.019226
0.038446
0.031425
-0.020331
-0.003944
0.001307
-0.085623
0.024049
0.022899
-0.028853
-0.040266
-0.093409
-0.021830
-0.013652
-0.068366
-0.087529
0.039383
0.076622
-0.004617
-0.069715
-0.056763
-0.073362
-0.084496
0.031541
0.208722
0.463844
0.719602
1.038838
1.264602
1.303750
1.190645
0.802031
0.416013
0.078656
-0.128553
-0.350544
-0.268294
-0.166898
-0.203976
-0.091223
-0.015741
-0.005634
-0.064845
-0.044823
0.015107
-0.026534
-0.062114
-0.046358
0.065511
0.000521
-0.055378
0.011938
0.035636
-0.001480
0.030204
0.007148
0.030189
0.017873
0.064813
0.168018
0.158991
0.158067
0.117694
0.162367
0.220953
0.253897
0.244258
0.269718
0.308133
0.321970
0.296018
0.298939
0.313039
0.413644
0.429882
0.397312
0.402737
0.383927
0.436876
0.393335
0.418587
0.388091
0.359635
0.414351
0.478038
0.430437
0.414729
0.326529
0.360814
0.374868
0.390990
0.195296
0.345924
0.230943
0.264076
0.228407
0.199747
0.128571
0.135859
0.157394
0.085215
0.093681
0.071930
0.076067
0.097503
0.032159
0.038916
0.044626
0.009347
-0.021759
0.072588
-0.007182
-0.026908
-0.011681
-0.006842
-0.077529
-0.064738
-0.100879
0.014931
-0.122570
-0.099401
-0.032084
-0.043677
-0.068925
-0.122061
-0.121469
-0.096487
-0.063548
-0.109910
-0.122504
-0.171440
-0.093906
-0.069052
-0.053789
-0.063139
-0.101764
-0.115642
-0.032443
-0.047773
-0.001138
-0.072380
-0.141403
-0.097825
-0.076597
-0.139526
-0.089032
-0.090077
-0.095177
-0.048451
-0.060819
-0.122171
-0.042867
-0.124227
-0.060917
-0.046528
-0.096520
-0.074903
-0.108908
-0.136701
-0.073717
-0.087118
-0.046394
-0.101591
-0.108561
-0.054886
-0.017451
-0.127696
-0.060957
-0.116787
-0.087429
-0.045972
-0.046292
-0.130589
-0.061932
-0.053328
-0.075412
-0.011624
-0.053592
-0.021795
-0.020133
-0.014600
-0.035700
-0.070381
-0.054580
-0.005123
0.085320
-0.023447
0.082080
0.020742
0.049830
0.045285
0.083832
0.083299
0.017648
0.112876
0.112182
0.101805
0.044505
0.070064
0.026968
0.070731
0.055380
0.019818
-0.033631
-0.003637
-0.005985
0.014739
-0.049968
-0.032596
-0.052787
-0.064036
-0.112261
-0.054258
-0.054788
-0.040147
-0.113297
-0.066643
-0.068920
-0.011809
-0.105036
-0.043583
-0.066103
0.017933
-0.164318
-0.144986
-0.067670
-0.168003
-0.091046
-0.025984
0.071785
0.263775
0.588265
0.901161
1.178235
1.277781
1.154480
0.972645
0.600551
0.277440
-0.091865
-0.272187
-0.316152
-0.226063
-0.297468
-0.149763
-0.096491
-0.177143
-0.103769
-0.146698
-0.014319
-0.053570
-0.089113
-0.027312
-0.062267
-0.124119
-0.005536
0.010345
-0.012008
-0.029307
0.063853
0.076503
0.053624
0.076223
0.139395
0.134182
-0.009269
0.184102
0.149489
0.219606
0.231937
0.228276
0.242618
0.292942
0.285395
0.295318
0.354096
0.305557
0.366040
0.401427
0.331961
0.363593
0.387076
0.399468
0.379946
0.449374
0.501615
0.446249
0.418529
0.428328
0.335802
0.401482
0.385804
0.400375
0.269970
0.328076
0.366452
0.322905
0.264654
0.231930
0.157193
0.226856
0.285052
0.131622
0.206447
0.067150
0.197599
0.105948
0.145709
0.092322
0.090793
-0.014258
0.038573
0.073450
0.081554
0.036549
0.076901
0.028143
-0.000351
-0.029869
0.008116
0.065921
0.008638
0.077321
-0.022069
-0.026194
0.025443
-0.052951
-0.114632
-0.035249
-0.119891
0.031216
-0.029442
-0.029403
-0.082121
-0.051934
0.027886
-0.041552
-0.028504
-0.010634
-0.111595
-0.069531
-0.042508
-0.016854
-0.032728
-0.019471
-0.023414
-0.010471
-0.057467
-0.086804
0.026780
0.022789
-0.002674
-0.112549
0.050701
0.039016
-0.025767
0.015506
-0.059926
-0.013260
-0.123422
0.036574
-0.025804
-0.064373
-0.082552
-0.016923
0.029124
0.031606
-0.035919
-0.036560
-0.018854
0.081898
-0.120530
0.009630
0.065821
0.005678
0.113072
-0.039227
0.076110
0.036932
0.020262
0.048732
0.071993
0.066190
0.059591
-0.024183
-0.023088
0.094155
0.072134
0.095309
0.060618
0.059234
0.065880
0.153895
0.156800
0.163459
0.143329
0.149251
0.181597
0.289814
0.148032
0.129063
0.155212
0.138181
0.112688
0.064804
0.133208
0.080649
0.140854
0.100445
0.100447
0.062130
0.069315
0.136139
0.180700
0.115708
0.090938
0.154127
0.046468
0.085437
0.081406
0.047917
-0.030666
-0.040403
0.001869
0.028684
-0.079292
0.030656
0.034461
-0.015574
-0.043141
0.019220
0.012431
-0.028088
0.055964
0.169458
0.283511
0.575523
0.885049
1.158108
1.268413
1.391502
1.236635
1.008404
0.523463
0.176273
-0.161977
-0.213986
-0.253630
-0.168107
-0.113123
-0.031854
-0.009085
0.064067
0.033161
0.063835
0.130932
0.104868
0.032919
0.054421
0.028127
0.106636
0.202176
0.163744
0.068794
0.114305
0.224282
0.093397
0.175012
0.234608
0.267136
0.222394
0.270339
0.282179
0.349981
0.281727
0.284110
0.328656
0.300345
0.405476
0.419114
0.348304
0.422754
0.429878
0.465023
0.503626
0.439092
0.518066
0.489168
0.520985
0.527957
0.494906
0.501106
0.575244
0.531122
0.526478
0.462893
0.547051
0.574637
0.468032
0.543486
0.485419
0.433645
0.473014
0.388711
0.420906
0.327789
0.350985
0.318142
0.278751
0.334315
0.277526
0.204081
0.208587
0.276701
0.175402
0.249462
0.202984
0.185348
0.190593
0.123925
0.151806
0.123728
0.157621
0.131004
0.158873
0.123111
0.089582
0.098881
0.089757
0.093166
0.099608
0.061380
0.120153
0.144628
0.049501
-0.036653
0.003797
-0.013469
0.120956
0.064728
0.079631
0.095939
0.056989
0.027074
0.041823
0.020200
0.081576
0.055128
0.084906
0.118620
0.118645
0.095910
0.029904
0.082278
0.048288
0.071734
0.088664
0.100728
0.089958
0.132263
0.117044
0.081030
0.065651
0.041481
0.057662
0.049252
0.119763
0.098025
0.092670
0.110306
0.019636
0.094579
0.134496
0.052459
0.097988
0.062280
0.020396
0.052967
0.099325
0.078463
0.069404
0.024805
0.086290
0.080132
0.089220
0.097791
0.135951
0.180439
0.255503
0.114616
0.067727
0.113318
0.119712
0.204951
0.190150
0.179946
0.160634
