0.098006
-0.029499
0.000253
-0.041672
0.016810
0.037462
0.021171
-0.089337
0.029999
-0.018739
0.023073
0.002275
0.021589
0.008530
0.035218
-0.053650
0.020235
-0.067612
-0.005601
-0.008664
-0.011007
0.014256
0.103047
-0.022073
0.047471
0.107668
0.034722
0.126738
0.026126
0.172769
0.169852
0.177156
0.186570
0.263888
0.098891
0.151112
0.277919
0.148655
0.154860
0.269229
0.166207
0.163122
0.178650
0.168371
0.204071
0.208444
0.200925
0.162046
0.148747
0.044275
0.153199
0.137942
0.161776
0.052512
0.079276
0.063874
0.104472
0.060346
0.085052
0.069377
0.053867
-0.011163
0.060002
0.074237
0.019507
0.006668
0.053492
0.010441
0.103743
-0.016277
0.060178
0.079796
0.255125
0.451189
0.739257
1.140544
1.402307
1.452051
1.369760
1.159063
0.693597
0.448988
0.028059
-0.032149
-0.162330
-0.175792
-0.045950
0.010758
0.035538
0.131865
0.110271
0.099383
0.071115
0.174156
0.205210
0.164333
0.160477
0.161710
0.100808
0.216210
0.240948
0.235886
0.292035
0.230005
0.290040
0.302924
0.269306
0.360941
0.354017
0.351218
0.393561
0.401860
0.401608
0.492195
0.459707
0.409148
0.488617
0.452157
0.529470
0.483321
0.607701
0.555543
0.643548
0.561101
0.661734
0.596903
0.472055
0.603355
0.540875
0.614683
0.469687
0.572559
0.556843
0.567472
0.494138
0.543997
0.495023
0.474628
0.385612
0.386170
0.426060
0.402485
0.335874
0.270547
0.307359
0.375381
0.339764
0.312580
0.327486
0.275246
0.206205
0.139443
0.129440
0.107740
0.110964
0.101558
0.144718
0.176297
0.101815
0.082573
0.087766
0.080046
0.070024
0.046934
0.098185
0.096322
0.083658
0.071802
0.094193
0.138915
0.141092
0.189068
0.110769
0.031950
0.119126
0.123157
0.116440
0.242368
0.048643
0.135461
0.175457
0.047582
0.161479
0.045200
0.130394
0.103780
0.124397
0.150268
0.076374
0.084841
0.053793
0.099579
0.095396
0.047844
0.072683
0.020485
0.010753
0.146857
0.117635
0.091495
0.095597
0.072034
0.203266
0.082999
0.142510
0.073320
0.124332
0.136391
0.082877
0.146755
0.116927
0.142946
0.151648
0.174391
0.092935
0.114499
0.107408
0.094093
0.164012
0.136413
0.240243
0.284249
0.203151
0.211124
0.106917
0.210871
0.239144
0.215847
0.311726
0.228215
0.211901
0.253625
0.242092
0.308488
0.220693
0.289218
0.190307
0.200254
0.239553
0.336310
0.230544
0.261416
0.175970
0.232357
0.121107
0.162829
0.174712
0.158981
0.154561
0.106085
0.049303
0.165316
0.040324
0.131397
0.033270
0.090153
0.067231
0.012124
0.072225
0.084866
0.117735
0.105802
0.083849
0.097133
0.217743
0.451972
0.676219
1.045593
1.316960
1.500000
1.447674
1.297766
0.917133
0.431223
0.174263
-0.054782
-0.220224
-0.100868
0.017100
-0.012062
-0.000235
0.102025
0.146325
0.102247
0.097532
0.062788
0.138122
0.102155
0.142095
0.215122
0.191587
0.178826
0.173141
0.158047
0.203123
0.216081
0.265489
0.211545
0.344479
0.273388
0.290365
0.297394
0.411964
0.386672
0.488174
0.412117
0.467775
0.476409
0.517193
0.519427
0.495514
0.501871
0.551276
0.546975
0.532756
0.628862
0.518430
0.568226
0.594045
0.581355
0.542745
0.518274
0.562064
0.467059
0.527494
0.438485
0.498956
0.496791
0.518047
0.511458
0.464695
0.389712
0.373682
0.370378
0.287746
0.246780
0.290679
0.215252
0.192024
0.272581
0.156592
0.146129
0.236697
0.148103
0.143230
0.117279
0.180498
0.065407
0.054152
0.097119
0.073407
0.113763
0.079982
-0.007744
-0.019005
0.050249
0.029457
0.029808
0.053594
0.119084
0.035354
0.104363
-0.012723
0.029573
0.044560
0.085921
-0.075650
0.001454
-0.045588
-0.014239
-0.011452
-0.010055
0.038265
0.023842
-0.032103
-0.077856
-0.046455
0.009998
0.002574
0.010329
0.036550
-0.041077
-0.025861
-0.066333
0.018242
-0.047497
-0.017303
0.008763
0.092370
-0.005979
0.023887
0.099934
0.023861
-0.052987
0.077784
-0.033285
0.017662
0.011430
-0.000615
0.004997
-0.015211
0.042916
0.004039
0.050931
0.082361
0.036746
0.134392
0.111350
0.024842
0.112566
0.089784
0.042454
0.169691
0.079177
0.162398
0.145175
0.176443
0.102228
0.281945
0.218969
0.215042
0.239359
0.177091
0.223461
0.242508
0.164926
0.225191
0.166112
0.127834
0.173403
0.118130
0.242681
0.088570
0.113701
0.084477
0.094416
0.070390
-0.048267
0.090328
0.055394
0.053874
0.034500
0.034638
0.054713
0.037887
0.042908
-0.043784
-0.010682
0.026240
-0.011562
0.000768
0.059117
-0.044895
-0.059452
0.006568
0.022894
0.091896
0.268613
0.483336
0.834534
1.079193
1.272702
1.384514
1.207052
0.831619
0.523282
0.170018
-0.072502
-0.253912
-0.207603
-0.245419
-0.061074
0.003466
0.019605
0.041670
0.023167
0.126620
0.010101
0.030479
0.028054
0.041549
0.060697
-0.042365
0.039849
0.121556
0.099333
0.114854
0.178168
0.043602
0.150811
0.220348
0.208492
0.235404
0.225747
0.314034
0.349346
0.315504
0.311937
0.281963
0.336210
0.445710
0.436676
0.414890
0.485487
0.418887
0.501175
0.482680
0.437071
0.445904
0.472393
0.447432
0.484685
0.456405
0.461306
0.454148
0.413741
0.468571
0.427100
0.385431
0.364403
0.342721
0.245131
0.328441
0.317262
0.312056
0.229389
0.223728
0.221214
0.155197
0.197088
0.076484
0.146702
0.128890
0.145456
0.123607
0.105194
0.149429
0.120540
-0.003059
-0.067113
0.028633
0.020044
-0.071007
0.011487
0.105739
-0.018154
-0.067793
-0.079650
-0.011269
-0.037218
-0.070695
-0.108416
-0.056946
-0.029993
-0.106741
-0.090930
0.021199
-0.069869
-0.034056
-0.020517
-0.008299
-0.110949
-0.049164
-0.056004
0.026724
-0.088868
-0.058683
-0.063313
-0.017047
-0.008824
-0.117207
0.013268
-0.024792
-0.066022
-0.046840
-0.018566
-0.003159
0.008374
0.015806
-0.063529
-0.064218
-0.071365
-0.042191
-0.038085
-0.090260
-0.028993
0.040306
0.037537
-0.008098
-0.038218
-0.026251
0.008543
-0.017190
0.043181
-0.020321
-0.066141
-0.053000
0.031623
0.042722
0.025724
-0.015143
0.117925
0.057247
0.030605
0.028341
0.076413
0.024870
0.114771
0.134621
0.141802
0.103860
0.133151
0.054378
0.072242
0.130860
0.121145
0.130157
0.189377
0.099676
0.190045
0.153512
0.117444
0.154556
0.135362
0.063131
0.112735
0.103652
0.160798
0.043134
0.068339
0.100953
0.021747
-0.031765
0.006584
-0.043308
-0.117547
0.049179
-0.005671
-0.082932
-0.008770
0.007727
0.042120
-0.061334
-0.021666
0.007814
-0.039517
-0.002315
-0.024358
0.102334
0.156595
0.320365
0.682324
1.123219
1.369999
1.317241
1.340493
0.995426
0.598153
0.191515
-0.051627
-0.172481
-0.219490
-0.231613
-0.089827
-0.007713
-0.012333
-0.062447
0.003600
-0.032473
0.018832
0.098270
0.077692
-0.017847
0.061033
0.135544
0.147283
0.121843
0.113598
0.090547
0.150800
0.111912
0.120149
0.268446
0.305384
0.237637
0.259428
0.270831
0.347821
0.290695
0.352560
0.359581
0.365771
0.370297
0.417472
0.466644
0.561906
0.451833
0.515706
0.541930
0.489751
0.482511
0.535423
0.532816
0.633022
0.558004
0.543454
0.548799
0.436863
0.330873
0.521624
0.482461
0.460880
0.474903
0.447929
0.436578
0.327762
0.337866
0.287945
0.306741
0.271581
0.196584
0.176607
0.195171
0.274876
0.100627
0.180374
0.120350
0.163333
0.128979
0.148541
0.057669
0.107845
-0.000114
0.014935
0.119223
-0.012116
0.026647
0.082104
0.024252
0.051269
0.035350
-0.004199
0.053636
0.015995
0.000338
0.010472
0.084028
0.071507
0.033915
0.037642
-0.012566
-0.000416
-0.004739
-0.034849
0.005764
0.057226
0.022860
0.011906
0.076053
0.016676
0.033385
0.032575
0.041156
0.099208
-0.046676
0.045012
0.122766
-0.036896
0.087940
0.020307
-0.007980
-0.031381
0.035042
0.041042
-0.041878
-0.000946
0.046209
0.088235
-0.008373
0.029241
0.089466
0.024476
0.026115
0.035892
0.046284
0.052824
0.024312
0.060515
0.058381
0.106128
0.074816
0.023748
0.098965
0.155543
0.149512
0.173739
0.142332
0.092577
0.190194
0.135689
0.171306
0.202695
0.210456
0.316172
0.169191
0.222632
0.260053
0.213404
0.254211
0.210508
0.242723
0.238765
0.262795
0.305008
0.169500
0.217415
0.112292
0.090816
0.154896
0.165900
0.211399
0.192335
0.056680
0.153741
0.091019
0.130947
0.087201
0.054372
0.089388
0.069208
0.115302
0.181945
0.137905
0.061068
0.048888
0.071523
0.058531
-0.017188
0.022359
-0.001454
0.145604
0.316019
0.490806
0.750776
1.058183
1.379346
1.413652
1.412943
1.250478
0.836122
0.460570
0.100355
-0.115212
-0.145971
-0.117207
-0.129482
0.056322
0.001733
0.104604
0.120281
0.091383
0.165854
0.148102
0.153527
0.162791
0.235158
0.124052
0.157301
0.127561
0.193214
0.267574
0.282677
0.277243
0.269252
0.379562
0.287814
0.266655
0.434357
0.268704
0.423242
0.518847
0.510978
0.479496
0.516552
0.566413
0.461116
0.558808
0.547364
0.614046
0.531844
0.600074
0.587911
0.679006
0.662145
0.568336
0.583094
0.555051
0.638242
0.612250
0.623898
0.554137
0.542379
0.590437
0.550705
0.520796
0.520837
0.502131
0.481493
0.507843
0.455048
0.404889
0.391800
0.362347
0.276181
0.327146
0.279976
0.326278
0.234292
0.223044
0.288489
0.120333
0.229651
0.194100
0.134208
0.121987
0.180888
0.163282
0.111366
0.184041
0.087648
0.095965
0.145416
0.148529
0.079549
0.187191
0.103344
0.063477
0.021076
0.125987
0.060724
0.023361
0.111939
0.014251
0.048500
0.050449
0.076790
0.104691
0.193976
0.110764
0.026883
0.160921
0.112796
0.074485
0.156525
0.038038
0.054425
0.078483
0.117029
0.096641
0.047599
0.087355
0.066368
-0.002779
0.069125
0.092963
0.058467
0.127683
0.156268
0.102102
0.134339
0.026338
0.090792
0.098523
0.039751
0.116145
0.054661
0.119244
0.056453
0.092103
0.128899
0.108147
0.118667
0.170794
0.124571
0.108264
0.213431
0.163670
0.149410
0.144943
0.268438
0.187315
0.224512
0.231362
0.263634
0.212091
0.198026
0.273498
0.316277
0.342099
0.321197
0.323468
0.219049
0.362593
0.262120
0.295898
0.259503
0.282786
0.150687
0.243205
0.263107
0.141154
0.221619
0.137883
0.204897
0.167340
0.146506
0.174821
0.189892
0.143194
0.083868
0.143062
0.084434
0.116417
0.082461
0.063054
0.100489
0.157434
0.087151
0.012410
0.063253
0.094891
0.065481
0.066629
0.101501
0.416540
0.725242
0.966974
1.305567
1.436985
1.480401
1.312736
0.873015
0.557280
0.171988
0.078401
-0.086993
-0.169100
-0.124319
-0.049991
-0.054055
0.130953
-0.024576
0.008446
0.066610
0.199584
0.164444
0.152499
0.044693
0.080465
0.221173
0.206189
0.182601
0.195758
0.177259
0.153920
0.254409
0.285790
0.293954
0.308779
0.342622
0.370453
0.283409
0.379173
0.434577
0.402629
0.489416
0.444787
0.499527
0.477948
0.525074
0.501473
0.504551
0.469278
0.508596
0.557499
0.535975
0.544309
0.565054
0.587748
0.558460
0.510409
0.483382
0.521021
0.515170
0.467075
0.430411
0.477890
0.411872
0.362499
0.362122
0.380063
0.421271
0.340792
0.352126
0.315378
0.258135
0.289868
0.212707
0.247443
0.199043
0.198909
0.149858
0.139436
0.070609
0.076737
0.167153
0.123086
0.062401
0.065999
0.021723
0.021793
0.092763
0.051450
0.079431
-0.038463
0.054750
0.056297
-0.027956
-0.017097
0.124872
0.081906
-0.000723
0.080443
-0.029885
-0.088400
-0.002901
0.058972
-0.026498
0.038570
0.055001
0.006362
-0.017564
0.014494
-0.068869
0.053279
-0.047104
0.024487
0.058051
-0.010981
0.052425
0.024661
-0.020841
0.002228
-0.020277
-0.070819
0.009196
0.009703
-0.002563
0.009850
-0.026793
0.003478
-0.081469
-0.028539
0.024233
-0.015609
-0.017274
-0.047322
-0.066180
-0.007064
-0.022605
0.033452
0.026746
-0.031520
-0.029569
-0.005834
0.044664
-0.016394
0.049426
0.102229
0.112957
0.040166
0.016396
0.075383
0.221780
0.143819
0.152179
0.045422
0.132024
0.041992
0.179867
0.052962
0.213947
0.207487
0.220383
0.122925
0.154659
0.116711
0.144886
0.159858
0.100640
0.090924
0.190953
0.006601
-0.004918
0.072929
0.085413
-0.028056
-0.001112
0.083515
-0.049746
0.036512
-0.008320
0.023072
-0.054022
0.003766
0.022603
-0.060314
-0.073632
-0.049389
-0.095499
-0.080109
-0.036361
-0.029833
-0.089124
-0.028612
-0.010381
0.109497
0.467494
0.733952
1.048739
1.294526
1.351332
1.187920
0.869094
0.545538
0.206368
-0.091657
-0.277356
-0.258626
-0.136666
-0.223467
-0.103830
-0.020766
-0.075798
-0.034037
-0.054262
-0.042280
0.005621
-0.013586
0.020266
0.014190
0.052307
0.059676
0.042038
0.046956
0.038861
0.133572
0.140289
0.127255
0.072140
0.232457
0.222446
0.219842
0.197548
0.228833
0.293525
0.384837
0.298830
0.388668
0.321210
0.418855
0.469558
0.287579
0.361105
0.417177
0.487488
0.389025
0.369778
0.437170
0.453408
0.493159
0.359244
0.431112
0.434308
0.428224
0.306052
0.417244
0.443975
0.397100
0.342676
0.306209
0.384851
0.379981
0.271897
0.245636
0.192342
0.204475
0.259942
0.137576
0.067124
0.112295
0.148676
0.165884
0.111519
0.072874
0.048466
-0.048317
-0.019026
0.001947
-0.028415
-0.098573
-0.012231
-0.017406
-0.004841
-0.082031
-0.068536
0.020588
0.001891
-0.022292
-0.070825
-0.049606
-0.115352
-0.023173
-0.086745
-0.101118
-0.119343
0.014898
-0.121204
-0.070336
-0.064115
-0.126182
-0.071287
-0.130708
-0.085639
-0.075608
-0.131982
-0.112859
-0.098843
-0.106740
-0.020249
-0.040893
-0.161785
-0.041443
-0.186972
-0.034819
-0.106234
-0.090136
-0.091722
-0.087327
-0.058183
-0.087421
-0.129194
-0.044519
-0.032838
-0.109427
-0.165679
-0.129733
-0.127503
-0.096770
-0.057861
-0.082378
-0.057934
-0.057941
-0.002414
-0.040706
-0.095002
-0.022092
-0.134408
-0.037851
0.007615
0.006009
0.006848
-0.025333
-0.035274
-0.024437
0.058275
-0.018078
0.068706
0.036234
0.101768
0.066188
0.169555
0.099940
0.112760
0.053183
0.096489
0.129719
0.058647
0.050273
0.022866
0.187491
0.046705
-0.000448
0.085852
-0.038576
0.085699
0.104815
-0.032502
-0.049865
0.031424
-0.021659
-0.037581
-0.030262
0.090975
-0.115539
-0.009298
-0.118335
-0.009014
0.009955
-0.103490
-0.082964
-0.035196
-0.065345
-0.111428
-0.054051
-0.148268
-0.089191
-0.008880
0.050616
0.210482
0.561188
0.988870
1.211079
1.303230
1.188688
0.974653
0.673957
0.307729
-0.005993
-0.225004
-0.301689
-0.190993
-0.268159
-0.099637
-0.036742
-0.038313
-0.049127
-0.073997
0.060105
-0.060365
0.041585
0.034279
0.105958
0.007112
0.048877
0.036110
0.112630
0.078856
0.227294
0.137324
0.095017
0.116142
0.151171
0.292185
0.242014
0.237811
0.342510
0.319237
0.326526
0.317514
0.410452
0.399561
0.323591
0.428968
0.435569
0.446561
0.449061
0.418027
0.388997
0.503728
0.555415
0.484582
0.422748
0.448637
0.508081
0.511764
0.452521
0.483628
0.442590
0.417990
0.404933
0.361923
0.381845
0.370456
0.336573
0.232670
0.349934
0.253081
0.232243
0.250542
0.145863
0.143628
0.149365
0.093981
0.082582
0.143971
0.013073
0.134380
0.071949
0.134578
0.106906
0.070419
0.037963
-0.004124
-0.055645
-0.086526
-0.018366
0.074953
-0.049541
0.033746
0.010140
-0.051524
-0.038011
-0.008439
0.080496
-0.020187
0.021539
-0.044515
0.016089
0.005627
0.022813
0.073173
-0.058996
-0.008140
0.024849
-0.047835
0.023378
0.087054
-0.022375
0.049439
-0.052763
0.095563
0.025439
-0.058736
0.026727
-0.023741
-0.047232
0.013353
-0.006866
-0.016028
0.006948
0.046144
-0.026476
-0.026009
-0.020679
-0.066361
0.031208
0.041640
-0.010907
0.030460
-0.044499
-0.064564
-0.045057
-0.026080
0.075368
0.091487
0.045957
-0.054529
0.031136
0.062871
-0.013587
0.020053
0.021287
0.027247
0.073190
0.044669
0.103801
0.068128
0.167057
0.154419
0.197560
0.083886
0.151181
0.226312
0.250509
0.187794
0.132310
0.209537
0.226447
0.140219
0.138445
0.151201
0.214560
0.137559
0.125639
0.190304
0.253949
0.083333
0.132523
0.042819
0.139753
0.145970
0.099643
0.076215
0.057290
0.087844
0.070477
0.080019
0.031670
0.017012
0.019906
0.055134
0.019876
0.055059
0.011118
-0.011110
0.005353
-0.053707
0.045349
0.063257
0.085455
0.264229
0.638234
0.941028
1.231284
1.394134
1.371817
1.187445
0.886594
0.430104
0.157851
-0.120657
-0.057033
-0.216667
-0.076418
-0.034371
0.066876
0.044378
0.059614
0.088357
0.056699
0.115503
0.072986
0.221898
0.109257
0.082076
0.100322
0.078686
0.171419
0.088421
0.248507
0.202029
0.310751
0.269367
0.331526
0.300807
0.163160
0.339714
0.416871
0.407354
0.405497
0.440469
0.430182
0.514132
0.458329
0.528153
0.484179
0.566142
0.574566
0.632875
0.617852
0.513027
0.480832
0.557598
0.543707
0.617735
0.616772
0.507550
0.458240
0.605779
0.525637
0.497712
0.419099
0.561861
0.460259
0.412193
0.430283
0.414729
0.432232
0.340340
0.360988
0.292481
0.230439
0.331338
0.194786
0.272677
0.286626
0.216913
0.207837
0.151066
0.149103
0.198544
0.165431
0.091121
0.166123
0.064040
0.093454
0.072129
0.126120
0.084640
0.120413
0.103667
0.075588
0.127215
0.047388
0.086294
-0.037183
-0.056836
0.024558
-0.020714
0.052045
-0.073712
0.041242
0.025062
-0.077590
0.134716
0.016345
0.133063
0.093769
0.018474
0.013826
0.074205
0.080655
0.037449
0.053953
0.037390
0.127116
-0.022790
0.099240
0.014800
0.054672
-0.000728
0.132086
0.043704
-0.027520
0.006835
0.082082
0.151651
-0.040840
0.006878
0.036924
0.010598
0.007947
0.067212
0.106906
0.089930
0.096832
0.093056
0.017931
0.030727
0.026519
0.079201
0.094292
0.129861
0.092152
0.118690
0.163354
0.154988
0.244932
0.089613
0.182899
0.144319
0.184923
0.209042
0.248986
0.235226
0.154865
0.268115
0.159593
0.246110
0.275208
0.234382
0.217312
0.146369
0.211342
0.160960
0.142678
0.119712
0.191726
0.204458
0.061838
0.158109
0.106846
0.157943
0.074971
0.170305
0.026012
0.014998
0.104783
-0.031932
0.017692
0.049735
-0.009453
0.058883
0.003316
0.043459
0.092070
0.045027
-0.031189
-0.060395
0.035516
-0.058283
0.098845
0.267557
0.544946
0.869732
1.045168
1.438448
1.363957
1.179237
1.025408
0.641607
0.208140
-0.109065
-0.135402
-0.249669
-0.144632
-0.000713
-0.150232
-0.053311
0.054730
-0.024226
0.039545
0.057628
0.055764
0.052046
0.037690
0.152065
0.097583
0.171398
0.199948
0.151242
0.127303
0.166392
0.160017
0.100032
0.214138
0.194682
0.243004
0.275377
0.339804
0.433386
0.468267
0.294253
0.368366
0.456550
0.470248
0.431936
0.460802
0.498180
0.504201
0.584090
0.502917
0.553015
0.506056
0.504738
0.473381
0.509477
0.509269
0.526112
0.490016
0.522170
0.450811
0.431887
0.386750
0.426807
0.436169
0.335343
0.299586
0.405429
0.353074
0.305608
0.329272
0.305507
0.243615
0.192139
0.197344
0.165807
0.224726
0.178918
0.075711
0.066795
0.030069
0.168035
0.043388
0.055845
0.109740
0.058919
-0.051721
0.038773
0.030875
-0.044267
0.078209
0.054508
-0.029506
0.036400
-0.036012
0.037255
-0.034894
-0.040804
0.066065
-0.020433
-0.028649
-0.023030
-0.054918
-0.063443
-0.011929
-0.023560
-0.053601
0.035658
-0.025646
-0.067660
-0.030215
0.028689
-0.038720
-0.105850
-0.105833
0.028493
0.020481
0.019378
-0.068822
-0.087010
-0.031632
0.016740
0.059639
-0.040837
-0.022310
0.008982
-0.068975
-0.031234
-0.001853
-0.118783
-0.054075
0.005199
0.055889
-0.066305
-0.081864
-0.064153
-0.094017
-0.007589
-0.021119
-0.087334
0.043273
-0.078292
-0.082562
0.037250
-0.055542
-0.032966
0.044927
0.065003
0.103666
0.107017
0.056168
0.004454
0.039619
0.044184
0.067336
0.054928
0.188267
0.136629
0.050259
0.124943
0.075715
0.099667
0.056423
0.176873
0.107081
0.081444
0.088950
0.105501
0.028802
0.065974
0.018633
0.042174
0.105908
-0.050328
-0.071011
-0.043410
-0.123666
-0.035223
-0.017486
0.014267
-0.084411
-0.074098
-0.096000
-0.118188
-0.090281
-0.072500
-0.048848
-0.052072
-0.067650
-0.096692
-0.035312
-0.165504
-0.056676
0.070143
0.325147
0.569590
0.930983
1.225148
1.356408
1.264127
0.994887
0.533763
0.177710
-0.093039
-0.205334
-0.308010
-0.310819
-0.272087
-0.192652
-0.093245
-0.025574
0.021219
-0.089570
-0.061399
-0.086743
-0.039247
0.049973
0.003539
-0.034181
0.078167
-0.007716
0.016893
0.029304
0.131605
0.175513
0.069642
0.169602
0.075191
0.123825
0.171860
0.212145
0.195085
0.323582
0.258860
0.237849
0.317531
0.368406
0.359439
0.388846
0.313789
0.493978
0.403047
0.343176
0.472777
0.436507
0.456674
0.356679
0.418642
0.336361
0.475810
0.409196
0.338538
0.376318
0.334205
0.321503
0.366401
0.310639
0.228460
0.274777
0.215968
0.178184
0.216430
0.200218
0.168010
0.146589
0.097472
0.100063
0.155424
0.125955
0.058289
0.051111
-0.027302
-0.050885
-0.036785
-0.037863
-0.045398
0.013006
-0.096857
-0.082479
-0.070206
-0.076064
-0.075196
-0.033528
-0.088744
-0.063762
-0.044230
-0.058617
-0.093549
-0.086806
-0.052594
-0.075270
-0.103270
-0.095890
-0.091063
-0.107901
-0.127183
-0.041068
-0.101597
-0.166642
-0.051305
-0.122202
-0.158205
-0.190249
-0.125371
-0.136504
-0.043457
-0.092947
-0.037546
-0.169812
-0.131872
-0.130401
-0.172206
-0.119484
-0.131488
-0.026999
-0.112770
-0.093191
-0.198906
-0.002804
-0.027113
-0.116055
-0.102843
-0.162372
-0.062560
-0.072997
-0.098913
-0.064229
-0.075926
-0.048796
-0.072832
-0.067964
-0.053829
-0.105272
-0.011581
-0.108681
-0.025649
0.025188
-0.088509
0.004066
-0.072101
-0.005395
-0.022106
0.061906
0.083708
0.015608
0.041267
0.121539
0.096810
0.050139
0.124034
0.115404
0.112142
0.107220
0.116538
0.067763
0.047965
0.089381
0.104575
-0.007390
0.008222
0.056339
0.014917
-0.016881
0.034136
-0.031907
-0.004690
-0.037652
-0.011510
-0.061543
-0.063382
-0.051539
-0.064634
0.013950
-0.127882
-0.038531
-0.027367
-0.037747
-0.111243
-0.106298
-0.086124
-0.108905
-0.047785
-0.133874
0.006586
0.006254
0.136290
0.281467
0.560302
0.908441
1.094928
1.322540
1.267591
1.112020
0.729073
0.440135
0.048609
-0.208920
-0.184137
-0.294211
-0.216816
-0.100302
-0.126069
-0.036673
-0.068130
-0.056405
-0.016991
-0.021958
0.060076
0.059936
0.055984
0.134517
0.097810
0.034946
0.021581
0.131760
0.047338
0.192509
0.077490
0.220516
0.213490
0.172997
0.202147
0.217280
0.315869
0.331223
0.328474
0.373075
0.411851
0.348822
0.386618
0.436913
0.343340
0.438119
0.370282
0.452130
0.483201
0.557900
0.437120
0.492359
0.438516
0.515731
0.519790
0.467462
0.464021
0.454551
0.426463
0.396168
0.313690
0.394472
0.439836
0.337464
0.346912
0.283842
0.325582
0.329215
0.270415
0.098350
0.274895
0.186208
0.189495
0.197428
0.206648
0.048069
0.070298
0.076009
0.051397
0.115324
0.056325
0.022847
0.078188
0.049402
0.032334
0.063559
0.019090
-0.055939
0.055465
-0.067734
0.022710
-0.049452
-0.012956
-0.078193
-0.011204
-0.050407
-0.057304
0.026480
-0.000724
0.009496
-0.018981
0.062643
-0.016703
0.014277
-0.014081
-0.020119
-0.029464
-0.000852
-0.001758
0.046294
-0.019949
-0.068514
0.009213
0.051765
0.026416
0.007911
0.019698
0.014299
0.036057
-0.043550
-0.034215
0.062546
-0.034934
0.031574
0.037669
-0.005205
-0.037091
-0.078481
-0.023798
-0.098141
0.050159
0.037786
-0.018702
-0.030052
-0.012328
-0.040283
0.105019
0.003039
0.028568
0.042803
0.094428
0.073535
0.112576
0.154061
0.108957
0.170798
0.099424
0.143754
0.190668
0.090569
0.204862
0.191451
0.185880
0.183373
0.112917
0.244278
0.165190
0.234669
0.196647
0.151330
0.264351
0.175604
0.252500
0.175067
0.207992
0.107670
0.133019
0.150903
0.132583
0.152642
0.120864
0.093151
0.129924
0.130213
0.137984
0.014572
0.189098
0.038702
0.095122
0.118351
-0.004206
0.117378
0.055296
0.058681
0.024989
0.033151
0.054205
0.114573
0.006500
0.044147
0.109165
0.365605
0.485228
0.879369
1.256553
1.455351
1.495805
1.217100
0.958555
0.625135
0.278777
-0.020589
-0.163434
-0.217640
-0.135107
-0.052927
0.005499
-0.012678
0.123867
0.140041
0.095673
0.140126
0.085786
0.143871
0.091199
0.202875
0.170832
0.203464
0.165227
0.149740
0.274891
0.209129
0.205301
0.250190
0.266553
0.237208
0.377115
0.329369
0.299545
0.433413
0.427683
0.383206
0.463662
0.445389
0.423306
0.571737
0.573956
0.580959
0.646435
0.570439
0.522806
0.548956
0.559268
0.586124
0.611214
0.476380
0.588688
0.521341
0.610395
0.510855
0.506691
0.463606
0.498702
0.525271
0.521681
0.468275
0.439303
0.461172
0.428299
0.365471
0.348146
0.285150
0.348639
0.345035
0.271884
0.327857
0.212657
0.181484
0.256586
0.189950
0.183561
0.192428
0.132772
0.143664
0.207725
0.059033
0.133750
0.150840
0.133984
0.054045
0.066232
0.177446
0.142380
0.156308
0.125818
-0.001710
0.078057
0.001961
0.063760
0.052254
0.047454
-0.019551
0.071619
0.157245
0.046315
0.037827
0.014201
0.023322
0.102124
0.055487
0.116584
0.068064
0.057410
0.085612
0.071271
0.053492
0.051375
0.053708
0.011482
0.184205
0.078821
