-0.038975
0.033531
0.033467
-0.032040
0.089370
-0.035620
-0.029365
-0.032205
-0.000555
-0.038556
0.000722
-0.049358
0.014996
-0.018812
-0.058009
0.003290
0.052910
0.100150
0.066094
0.025334
0.015939
0.051979
0.003598
0.018016
0.169869
0.087587
0.047581
0.106679
0.034831
0.123775
0.025183
0.185269
0.136826
0.234742
0.147977
0.083994
0.260621
0.202195
0.166182
0.124995
0.172040
0.186660
0.228738
0.257309
0.181076
0.231893
0.133912
0.244424
0.105488
0.149474
0.132917
0.055262
0.103620
0.108777
0.117272
0.200378
0.132823
0.037917
0.047988
0.025199
0.085761
0.119976
0.014530
0.065132
0.110660
0.140482
0.055295
0.078160
0.159553
0.029411
0.030802
0.063804
0.046242
0.031007
0.048672
0.239041
0.365401
0.675931
1.025944
1.307309
1.424455
1.339122
1.207523
0.725449
0.362995
0.076628
-0.085895
-0.208021
-0.162748
0.002700
-0.080437
-0.040286
0.024519
0.045133
0.050261
0.091876
0.136424
0.131637
0.098461
0.085242
0.163950
0.084747
0.174222
0.165662
0.210283
0.229425
0.259275
0.293087
0.251372
0.227115
0.267091
0.341139
0.353968
0.384337
0.348392
0.437751
0.425980
0.391733
0.491131
0.455293
0.506494
0.435999
0.539531
0.457871
0.617599
0.587651
0.512006
0.638602
0.596394
0.604831
0.596768
0.603435
0.516507
0.588740
0.585297
0.569649
0.490265
0.638376
0.492415
0.540864
0.512384
0.442007
0.462666
0.433708
0.437654
0.426012
0.338621
0.331798
0.290702
0.285961
0.302510
0.299760
0.198811
0.179916
0.235717
0.163696
0.201378
0.261285
0.183007
0.135950
0.113456
0.064682
0.112948
0.135006
0.081923
0.088037
0.172689
0.123874
0.102435
0.242378
0.121661
0.138356
0.164275
0.038665
0.095992
0.034772
0.157931
0.084583
0.086065
0.128334
0.141714
0.145918
0.016931
0.120874
0.099341
0.081895
0.034485
0.090170
0.077066
0.216475
0.097977
0.127090
0.055647
0.095813
0.137941
-0.015011
0.030586
0.103511
0.033789
0.133330
0.157061
0.076698
0.105472
0.091794
0.015957
0.078912
0.038945
0.106020
0.130377
0.154693
0.067445
0.010419
0.104905
0.123457
0.109551
0.155762
0.088056
0.076760
0.022964
0.155118
0.085478
0.107056
0.175013
0.091511
0.154969
0.162984
0.128054
0.158406
0.263891
0.298209
0.094956
0.168604
0.173143
0.242884
0.255399
0.195238
0.248690
0.274441
0.264446
0.245411
0.251870
0.272834
0.249277
0.239319
0.254853
0.222313
0.335215
0.242969
0.281409
0.188344
0.133803
0.226027
0.191294
0.205651
0.105190
0.108772
0.187624
0.113264
0.166626
0.117683
0.003757
0.102420
0.084165
0.098929
0.155132
0.114891
0.088798
0.083131
0.076066
0.060526
0.089291
0.101661
0.033748
0.115657
0.050831
0.198987
0.531662
0.811040
1.075216
1.305291
1.443081
1.393662
1.176079
0.791420
0.441390
0.095381
-0.026976
-0.166983
-0.193027
-0.055206
-0.003707
0.093847
0.044183
0.035962
0.078361
0.182232
0.095672
0.116389
0.095563
0.102013
0.154267
0.046886
0.101291
0.116534
0.187600
0.269671
0.175577
0.249783
0.188167
0.306108
0.317472
0.290511
0.317755
0.399443
0.259435
0.339467
0.427149
0.431616
0.417819
0.455404
0.514160
0.428704
0.582794
0.534093
0.609668
0.461476
0.533914
0.546910
0.548409
0.614008
0.589268
0.421289
0.516387
0.536542
0.548297
0.519768
0.550145
0.512454
0.518473
0.554453
0.426550
0.417624
0.366232
0.419523
0.371412
0.377757
0.410324
0.365706
0.312017
0.305564
0.196462
0.271925
0.255646
0.177398
0.116748
0.164452
0.148037
0.084030
0.109928
0.103032
0.062635
0.126332
0.060315
0.091933
0.107924
0.095159
0.030860
0.018355
0.108155
0.119291
0.024604
0.058281
-0.006654
0.038748
0.020599
0.004029
0.104047
0.086266
0.115108
0.013284
-0.028281
0.035482
0.028257
0.025597
0.032803
0.003313
0.002108
0.066274
0.012795
0.013837
0.023969
-0.025266
-0.019845
0.093604
-0.052996
-0.012810
-0.029680
0.055978
-0.007677
0.053840
0.053154
-0.028498
-0.072204
-0.044905
-0.119091
-0.021200
0.082828
0.039363
-0.027629
-0.007116
0.132017
0.010278
0.010387
-0.009788
-0.051237
-0.031157
-0.001679
0.074853
0.009928
0.036522
0.070351
0.073676
0.063147
-0.008344
0.022264
0.045364
0.058529
0.147003
0.154858
0.176113
0.041160
0.067121
0.120874
0.021920
0.135353
0.180802
0.139905
0.181351
0.200057
0.152345
0.171761
0.180442
0.090167
0.216764
0.135966
0.157905
0.151925
0.185076
0.092166
0.111304
0.133331
0.041114
0.033489
0.037027
0.033557
0.006802
-0.016840
-0.058510
0.036676
-0.061142
-0.058159
0.089518
-0.022692
0.030263
0.097501
-0.037342
-0.045580
0.060468
0.033445
-0.034742
-0.061945
-0.013913
-0.008211
-0.046940
0.017869
0.204818
0.362365
0.708156
0.953797
1.185656
1.371405
1.388003
1.027301
0.675892
0.277644
-0.007745
-0.157357
-0.184159
-0.271260
-0.230742
-0.112117
-0.086876
0.013639
-0.044542
-0.094516
0.049821
0.056569
0.051181
-0.044548
0.036480
0.035647
0.046546
0.034676
0.087808
0.121412
0.135332
0.124663
0.091221
0.172393
0.145431
0.186089
0.104829
0.232574
0.298545
0.295771
0.265760
0.309151
0.300648
0.381342
0.301391
0.385538
0.329558
0.312682
0.402607
0.352742
0.418664
0.480657
0.497283
0.480068
0.529942
0.441506
0.431843
0.475410
0.454900
0.520705
0.408999
0.463925
0.368104
0.429834
0.445770
0.410871
0.425911
0.394487
0.289355
0.332436
0.196746
0.168001
0.216437
0.145901
0.247044
0.207135
0.127352
0.176098
0.128155
0.097216
0.104674
0.071300
-0.053865
-0.000093
0.067047
0.011252
0.062688
0.015024
0.032286
-0.019952
-0.023804
0.020158
-0.016321
-0.001111
0.022713
-0.064273
-0.114645
-0.072440
-0.071952
0.070415
-0.055170
-0.005203
-0.046427
-0.039763
-0.036147
-0.023267
-0.028251
-0.065415
-0.017146
-0.038781
-0.063854
-0.053278
-0.024490
-0.022636
-0.044108
-0.094711
-0.069074
-0.007938
-0.024557
-0.072657
-0.053987
-0.021587
0.013945
-0.038333
0.048874
-0.051609
-0.097308
-0.121172
-0.064686
-0.069136
-0.074862
-0.042607
-0.054667
0.002566
-0.015181
-0.057437
0.032113
-0.007796
-0.038878
0.029103
-0.053157
0.055166
0.064169
-0.052238
0.060304
-0.054541
-0.043744
0.080481
-0.011137
-0.032012
0.002482
0.120394
0.083473
-0.002868
-0.010579
-0.009779
0.028989
0.080556
0.132706
0.088894
0.013949
0.049550
0.150485
0.177535
0.174966
0.130616
0.113384
0.082248
0.099044
0.016327
0.195772
0.143033
0.085146
0.059244
0.089335
0.085924
0.050760
0.133964
0.068148
0.048990
-0.032947
0.058947
-0.023486
-0.036620
0.013160
0.020093
-0.015256
-0.054764
0.020262
-0.034249
-0.038469
-0.056463
-0.084293
-0.021474
-0.032119
-0.044810
-0.011901
0.000420
-0.112395
-0.007999
0.154075
0.404874
0.580109
1.006527
1.296291
1.359300
1.334313
1.010879
0.774084
0.343574
0.058547
-0.196591
-0.216018
-0.197978
-0.059464
-0.093110
-0.016895
0.013651
0.053747
0.030829
-0.019693
-0.006148
-0.033579
0.075115
0.063880
0.064181
0.091421
0.094518
0.109539
0.037056
0.190663
0.157529
0.128273
0.152748
0.196287
0.165176
0.221037
0.283125
0.273107
0.275717
0.335316
0.376645
0.368211
0.370493
0.378985
0.441079
0.409335
0.427373
0.443235
0.476280
0.496831
0.518722
0.441133
0.491379
0.554143
0.599671
0.523414
0.555774
0.521835
0.553820
0.566350
0.547236
0.470474
0.465396
0.460191
0.472147
0.442152
0.387608
0.330011
0.345539
0.368792
0.384925
0.293052
0.348260
0.267493
0.258519
0.174313
0.216407
0.195913
0.209254
0.130533
0.077122
0.124179
0.111377
0.124170
0.114678
0.161026
0.167053
0.055306
0.082746
0.009054
0.052675
0.079721
0.038787
0.033153
0.032576
0.044613
0.000194
0.035614
0.041778
0.078566
-0.067839
0.099883
0.158449
0.058257
0.061863
0.045728
-0.050493
0.051121
0.109480
0.009393
0.003028
0.016940
-0.006862
0.059996
0.057198
0.078526
0.028081
0.032723
0.106203
0.038077
0.022435
0.063259
0.027929
0.058753
0.048080
0.098558
0.033064
0.180593
0.035382
0.050729
0.084793
0.048904
0.071017
0.013443
0.032178
0.074521
0.113305
0.051636
0.069293
0.112607
0.030678
0.038812
0.023471
0.084642
0.084967
0.016204
0.040310
0.125261
0.080657
0.169019
0.161040
0.176763
0.219144
0.153060
0.189556
0.170146
0.118568
0.234501
0.253708
0.162239
0.302543
0.244214
0.283004
0.172491
0.200656
0.214182
0.258904
0.212292
0.276256
0.210656
0.186359
0.191517
0.214494
0.195972
0.162083
0.156231
0.111132
0.194732
0.128195
0.177499
0.077580
0.111348
0.141025
0.038237
0.076995
0.114583
0.094033
0.110699
0.084822
0.127170
0.044894
0.083438
0.116098
0.091798
0.121705
0.135752
0.083306
0.041624
0.117608
0.197873
0.490058
0.822062
1.154009
1.385916
1.447153
1.416403
1.147769
0.800223
0.415159
0.019626
-0.049877
-0.274782
-0.063929
-0.012194
0.022195
0.091366
0.141359
0.136754
0.206735
0.099393
0.137894
0.187436
0.232507
0.090666
0.137463
0.106170
0.165597
0.230413
0.244038
0.183943
0.158830
0.248495
0.221656
0.368755
0.360112
0.287512
0.307748
0.350799
0.330123
0.437477
0.451903
0.382553
0.389435
0.406708
0.552603
0.522426
0.628984
0.537183
0.656444
0.690785
0.655902
0.652994
0.627212
0.628219
0.623811
0.618770
0.659932
0.625777
0.579997
0.557786
0.613898
0.522126
0.552507
0.537406
0.473162
0.472675
0.473845
0.394563
0.394118
0.425027
0.434086
0.428456
0.360263
0.286257
0.327026
0.319400
0.302857
0.223999
0.258946
0.261466
0.290850
0.256343
0.127443
0.148983
0.163198
0.099050
0.170537
0.123755
0.165654
0.076503
0.136387
0.089482
0.093049
0.126816
0.076277
0.134794
0.113073
0.085788
0.116122
0.061496
0.182477
0.096707
0.104004
0.094291
0.066524
0.212703
0.092044
0.145538
0.044666
0.024523
0.074424
0.143138
0.079557
0.041324
0.069541
0.085621
0.058873
0.035183
0.010753
0.072485
0.089980
0.108668
0.048669
0.151810
0.094964
0.044838
0.130087
0.030904
0.080033
0.016657
0.069364
0.175131
0.071939
0.160785
0.057883
0.101739
0.065610
0.099740
0.121722
0.132319
0.104744
0.135291
0.024742
0.145146
0.143065
0.082019
0.102831
0.048589
0.061812
0.162523
0.188638
0.156755
0.193372
0.187969
0.134835
0.184081
0.226223
0.224612
0.173991
0.260648
0.313235
0.292890
0.241849
0.232980
0.245894
0.294302
0.213460
0.255905
0.157339
0.215519
0.225918
0.154768
0.218000
0.199900
0.165508
0.089637
0.149821
0.100540
0.022320
0.119688
0.016932
0.132286
0.139421
0.040186
0.053168
0.037351
0.087013
0.019264
0.017958
-0.020797
0.060991
0.096512
0.054860
0.028252
0.010653
0.059391
-0.024359
0.111517
0.143020
0.241786
0.427657
0.693221
1.073661
1.285699
1.412402
1.393505
1.181454
0.834644
0.333912
0.012982
-0.203580
-0.181360
-0.219116
-0.145039
-0.044771
-0.038918
0.085064
0.054198
0.086583
0.036250
0.073318
0.024477
0.074262
0.109114
0.117779
0.059808
0.102642
0.189326
0.161436
0.166526
0.190588
0.260037
0.263588
0.175459
0.226844
0.252691
0.317734
0.289983
0.329604
0.361694
0.379375
0.378857
0.449401
0.366823
0.435603
0.549759
0.499812
0.483894
0.431389
0.503241
0.504645
0.570635
0.538106
0.505906
0.491774
0.531717
0.468157
0.581765
0.437346
0.540257
0.453139
0.464611
0.503069
0.468766
0.413033
0.448753
0.378444
0.413174
0.346500
0.231713
0.264260
0.327831
0.293488
0.224595
0.199714
0.136848
0.159626
0.196119
0.151832
0.119543
0.081812
0.108860
0.096262
0.099022
0.017285
0.091273
0.072610
-0.041102
0.054051
0.039982
0.030289
0.025664
-0.021950
-0.003072
-0.033925
0.074801
-0.047936
-0.034644
0.037776
-0.105071
-0.017179
0.013910
-0.042279
-0.078683
0.014359
-0.035255
0.020723
0.009235
-0.017468
0.044148
-0.025602
-0.025620
0.024749
-0.028998
-0.000619
-0.068586
0.016945
0.016936
0.006158
-0.071807
0.001887
-0.038884
-0.113372
-0.071849
-0.077778
-0.038408
-0.033342
-0.119703
-0.016309
-0.033870
0.026078
0.022546
-0.090584
-0.002832
-0.105272
-0.085542
-0.029488
-0.028891
0.011363
0.059324
-0.055158
0.015513
-0.053551
-0.079285
-0.060575
-0.040940
0.029435
0.070684
0.029774
-0.010769
0.013510
-0.027765
0.091080
0.022504
0.101359
0.095924
0.037969
0.115974
0.186624
0.131663
0.157327
0.086613
0.159954
0.202820
0.138640
0.156485
0.120250
0.044539
0.061431
0.129403
0.081490
0.086083
0.109219
0.055716
0.069945
0.068811
0.028585
0.063381
0.097047
0.107759
-0.027850
0.001707
0.114134
-0.026923
0.016896
-0.057411
-0.039601
-0.026181
-0.029509
-0.151136
-0.130771
-0.010038
-0.029367
-0.067070
-0.103620
-0.006664
-0.146638
-0.021723
-0.112555
0.023646
0.369179
0.587307
0.948239
1.250630
1.333053
1.287386
1.081105
0.629675
0.241441
-0.020282
-0.259530
-0.289238
-0.200966
-0.265225
-0.067883
-0.128550
-0.062441
-0.120159
-0.076544
0.000435
0.004918
-0.095694
-0.048706
0.051644
-0.011824
0.008453
0.022458
-0.036759
0.004162
0.018574
0.065939
0.084609
0.131142
0.102483
0.094345
0.095174
0.184423
0.224295
0.201549
0.261632
0.270245
0.243940
0.266082
0.369552
0.357756
0.313735
0.412474
0.457323
0.372811
0.473294
0.442203
0.322643
0.501347
0.420206
0.410914
0.488705
0.432975
0.428095
0.456572
0.413279
0.461404
0.352671
0.377307
0.307033
0.375926
0.313010
0.273345
0.194721
0.280912
0.346062
0.278083
0.220818
0.136598
0.077198
0.165406
0.185801
0.062550
-0.012908
-0.015709
0.117145
0.070625
0.107929
-0.036476
0.045403
0.001983
-0.061205
0.000578
-0.033835
-0.066840
-0.004410
-0.040264
-0.118676
-0.080179
-0.065581
-0.043399
-0.022496
-0.117347
-0.044744
0.017102
-0.143272
-0.031535
-0.067300
0.041385
-0.045032
-0.037214
-0.022593
-0.081104
-0.152276
-0.041646
-0.062328
-0.040193
-0.033732
-0.094320
-0.126506
-0.008780
-0.096715
-0.105795
-0.022563
-0.044486
-0.106319
-0.047027
-0.115023
0.001858
-0.110093
0.028178
-0.039848
-0.109476
-0.078200
-0.200490
-0.069930
-0.077202
-0.054033
-0.114906
-0.033552
-0.059801
-0.072916
-0.092496
-0.024745
-0.023952
-0.023408
-0.007703
-0.151314
-0.132679
0.041712
-0.008512
-0.095392
-0.074850
-0.044918
-0.004974
0.003795
-0.105172
0.000446
0.092623
0.107543
0.069105
0.056899
0.077531
0.031820
0.111539
-0.013660
0.225120
0.096715
0.164490
0.086848
0.134093
0.103471
0.146036
0.032648
0.107817
0.108089
0.033803
0.157309
0.081128
0.048355
0.047205
0.008452
0.014258
0.048754
-0.017094
0.026371
-0.091304
0.085514
-0.023232
0.020180
0.012174
-0.071925
-0.034333
-0.050937
-0.049787
-0.110497
-0.063595
-0.002096
-0.099550
-0.035519
0.018569
-0.053211
-0.065897
-0.048698
0.077431
0.103254
0.340791
0.636524
0.968982
1.220340
1.372881
1.329369
1.000562
0.667464
0.279430
-0.028702
-0.208877
-0.263615
-0.276099
-0.169038
-0.111252
-0.084174
0.014437
-0.013892
-0.015141
-0.038403
0.026767
-0.038716
0.040330
-0.009348
0.057207
0.047782
0.118708
0.092681
0.030241
0.098680
0.105516
0.239846
0.238705
0.195668
0.189238
0.194077
0.198118
0.291927
0.301758
0.302459
0.321482
0.307351
0.318414
0.354345
0.417693
0.434687
0.417778
0.513935
0.478430
0.550715
0.461359
0.487660
0.459909
0.480953
0.497859
0.487909
0.419078
0.511720
0.512756
0.367850
0.487715
0.450247
0.480076
0.359287
0.428693
0.399981
0.258453
0.320400
0.369852
0.289910
0.291062
0.267027
0.224536
0.217445
0.241045
0.160365
0.068298
0.183860
0.047492
0.053900
0.127425
0.133551
0.049845
0.056804
0.098551
0.077489
0.060142
0.052963
0.044290
0.010251
-0.000471
-0.000324
0.098786
0.076545
0.048583
0.027977
0.054083
-0.046317
0.024560
-0.044555
0.003805
0.083093
0.088361
-0.123484
0.017443
-0.003516
-0.043825
0.007106
0.021291
-0.010549
0.056494
0.033309
0.007120
0.008320
-0.001553
0.067722
0.034645
0.036660
0.008712
0.003140
-0.006726
0.062607
0.050271
0.022075
0.005245
0.010851
-0.050124
0.034040
-0.012822
0.045998
0.005895
-0.000133
0.041098
0.103086
0.070920
0.068888
0.020372
0.090611
0.034457
0.050500
0.090478
0.057351
0.059729
0.036473
0.012096
0.067407
0.192553
0.048907
0.064604
0.067644
0.150238
0.173724
0.081044
0.166445
0.248929
0.140464
0.226236
0.145792
0.199216
0.128806
0.273733
0.256804
0.226392
0.149154
0.177619
0.235053
0.208466
0.245605
0.224184
0.144541
0.196408
0.122097
0.197891
0.168545
0.146435
0.034246
0.198108
0.091237
0.100755
0.094585
0.058564
0.041846
0.085583
0.171046
0.046857
0.121291
0.016465
0.101937
0.023909
-0.008047
0.037000
-0.008932
-0.003705
0.067059
-0.007996
-0.004414
-0.035378
-0.055217
0.077251
0.190399
0.371591
0.780021
0.997418
1.323195
1.498326
1.354404
1.152170
0.718732
0.413540
0.091810
-0.124055
-0.188361
-0.192960
-0.113960
-0.015282
0.002077
0.033172
0.142026
0.126444
0.091290
0.116445
0.099657
0.039304
0.137517
0.194304
0.093089
0.096473
0.116173
0.180070
0.084129
0.192898
0.177183
0.304145
0.225861
0.294608
0.226174
0.296929
0.293743
0.365391
0.317596
0.369051
0.376868
0.397885
0.422976
0.435693
0.448235
0.525147
0.477400
0.505717
0.540527
0.500691
0.552981
0.529010
0.541958
0.558835
0.532017
0.631632
0.576789
0.509313
0.496728
0.537553
0.544129
0.491609
0.530159
0.396343
0.374376
0.385316
0.371252
0.285701
0.342904
0.290033
0.274397
0.397804
0.217079
0.282789
0.262574
0.199602
0.229163
0.221766
0.146483
0.121874
0.101415
0.163521
0.097646
0.129199
0.117189
0.039522
0.043928
0.054023
0.079656
0.030446
0.124266
0.011113
0.064021
0.014715
-0.000453
0.063697
0.049532
0.025784
-0.023486
0.099766
0.005323
0.003135
0.068882
-0.007595
-0.030814
0.025781
0.023449
-0.030983
0.055782
0.042351
-0.052728
-0.016350
0.001028
0.024071
0.075137
0.056117
-0.040248
0.012941
-0.043752
-0.019274
0.021226
0.068735
0.008430
-0.000998
-0.027527
0.057509
0.039613
0.016923
-0.033044
0.030670
0.027952
0.074727
0.018470
-0.050489
0.049624
-0.019674
0.036526
0.056324
0.040214
0.105346
-0.001773
-0.072214
0.021396
0.065778
0.080778
0.055114
0.036301
0.057125
0.012711
0.047040
0.088291
0.146214
0.137661
0.095692
0.082506
0.169591
0.093014
0.099913
0.194689
0.136002
0.149484
0.224219
0.176272
0.183547
0.185160
0.225566
0.223831
0.179190
0.189546
0.171658
0.100379
0.183890
0.159222
0.087134
0.146654
-0.020379
0.069391
0.060295
0.050682
0.045763
0.069341
0.045200
0.019129
0.018349
-0.036522
-0.020289
-0.080514
-0.088411
-0.011494
-0.016478
0.084358
-0.008882
-0.044087
0.042113
-0.035013
-0.022513
0.040572
0.057039
0.076488
0.356865
0.669184
0.974162
1.331770
1.325178
1.299233
1.007905
0.690802
0.279269
0.006460
-0.248566
-0.213690
-0.254045
-0.156249
-0.181223
0.022221
-0.096186
-0.063536
-0.077818
-0.011185
0.030485
0.060713
0.000001
0.040622
0.073930
0.058341
0.060042
0.132007
0.068467
0.165877
0.058349
0.159431
0.152563
0.172559
0.204176
0.144463
0.175651
0.207523
0.303927
0.327651
0.309652
0.246362
0.307700
0.321391
0.324723
0.283952
0.472100
0.325963
0.451736
0.373089
0.449376
0.474997
0.507412
0.462018
0.494086
0.492832
0.511488
0.469709
0.509617
0.520589
0.459126
0.404770
0.467202
0.357110
0.397611
0.418005
0.347820
0.312264
0.276872
0.273837
0.222837
0.272542
0.287995
0.192767
0.200704
0.180426
0.035900
0.098910
0.086679
0.015233
-0.066968
0.095157
0.045109
-0.055079
0.031327
0.034363
0.002198
-0.081265
-0.085363
-0.017679
0.031154
-0.014389
-0.018080
-0.058088
-0.152130
-0.039316
-0.082651
-0.037409
-0.050139
-0.047777
-0.041379
-0.144542
-0.048055
-0.046809
-0.066728
-0.099385
-0.035183
-0.040077
0.034624
-0.061767
-0.081219
-0.107113
-0.083329
-0.005713
-0.063987
-0.058359
-0.071188
-0.092063
-0.076059
-0.029992
-0.046931
0.000921
-0.079879
-0.059656
-0.101162
-0.085110
-0.050012
-0.059040
0.032514
-0.165163
-0.061452
-0.069970
-0.136095
-0.007866
-0.152727
-0.088768
-0.060165
-0.071102
-0.129193
-0.058718
-0.050959
-0.075753
0.002208
-0.103823
-0.069097
-0.115828
-0.050349
-0.052318
-0.033748
-0.151711
-0.016551
-0.004100
0.026965
-0.011352
0.027235
0.032817
0.039796
-0.030228
0.035905
0.097033
0.100725
0.107125
0.105890
0.036396
0.041074
0.069064
0.085151
0.016982
0.019436
0.133534
0.054729
0.042947
0.027579
-0.077977
0.007177
-0.075786
0.006666
-0.111821
0.005962
-0.066107
-0.064304
0.005248
-0.085102
-0.014130
-0.002346
-0.075483
-0.043532
-0.075128
-0.101033
-0.082453
-0.167357
-0.104613
-0.151601
-0.093165
-0.136459
-0.138244
-0.117135
-0.080065
-0.143519
0.101786
0.236506
0.588830
0.909375
1.154759
1.287875
1.188216
0.961691
0.706596
0.291204
-0.107860
-0.255880
-0.424835
-0.342482
-0.268564
-0.189660
-0.164702
-0.058230
-0.021277
-0.086592
-0.068997
-0.084156
-0.045585
-0.037875
0.013953
-0.026005
0.052507
-0.015132
-0.037028
0.039687
0.143289
0.059637
0.107048
0.084553
0.153282
0.181768
0.106402
0.032737
0.155465
0.149147
0.198808
0.280775
0.276835
0.225906
0.339929
0.353137
0.348161
0.305975
0.320287
0.418767
0.403629
0.388337
0.416439
0.422348
0.437557
0.406726
0.371593
0.412984
0.421593
0.526462
0.405708
0.418518
0.417363
0.308238
0.396359
0.301936
0.377385
0.267075
0.225446
0.220860
0.258355
0.188755
0.139675
0.090628
0.135296
0.128554
0.119006
0.073868
0.088893
0.110087
0.062663
0.056306
-0.035026
-0.036267
0.027785
-0.009067
-0.010121
-0.001842
-0.028436
-0.010279
-0.031148
-0.012410
-0.087106
-0.007740
0.004220
-0.025246
-0.022000
-0.069409
0.010507
-0.088568
-0.037260
-0.085105
-0.111888
-0.124083
-0.065024
-0.069151
-0.047100
-0.043547
-0.081363
-0.085387
-0.077331
-0.063072
-0.098328
-0.073214
0.012115
-0.138289
-0.101635
-0.053540
-0.115701
-0.093272
0.000177
-0.125836
0.016622
-0.013292
-0.064795
-0.026942
-0.082152
-0.061490
-0.037405
-0.029383
-0.066335
-0.045579
-0.091516
-0.094870
-0.088877
-0.042643
-0.016799
-0.071954
-0.035910
-0.024639
-0.028095
-0.054955
-0.054658
-0.048646
-0.054106
-0.133560
-0.013937
-0.031378
-0.015494
-0.008106
0.035681
0.073083
0.038170
-0.057177
0.070200
0.095808
0.125147
0.150212
0.047651
0.177095
0.135195
0.057419
0.243858
0.185074
0.115706
0.157035
0.130323
0.085258
0.069695
0.092358
0.059217
0.174584
0.175075
0.009285
0.118473
0.204286
0.058369
0.084672
0.041221
0.073478
0.030050
-0.040554
-0.041430
0.004140
0.100668
0.067774
0.048964
-0.042990
0.006697
-0.091262
-0.030575
-0.007999
-0.065752
-0.022625
-0.079839
-0.039837
-0.014152
-0.064758
-0.020394
0.058045
0.108375
0.324412
0.666027
1.083366
1.296824
1.367779
1.321102
1.039429
0.659818
0.352375
-0.017050
-0.236136
-0.321433
-0.206615
-0.101570
-0.109906
-0.024859
-0.030920
0.086667
-0.000930
0.102872
0.003603
0.086472
0.094463
0.024239
0.053984
0.109370
0.096242
0.064819
0.163758
0.183112
0.151535
0.148404
0.277645
0.192009
0.274268
0.259043
0.244599
0.201566
0.254874
0.328335
0.340400
0.428881
0.371843
0.438152
0.438649
0.443353
0.474862
0.471328
0.480435
0.410036
0.496779
0.537107
0.460074
0.530330
0.488552
0.488198
0.547968
0.560842
0.555499
0.536977
0.558776
0.422169
0.410149
0.419968
0.422975
0.446528
0.364373
0.382658
0.346335
0.354310
0.309029
0.289598
0.197945
0.308574
0.266983
0.230996
0.249405
0.256722
0.170330
0.145291
0.095767
0.225795
0.207782
0.073637
0.194145
0.083725
-0.017010
0.036949
0.067592
0.039084
0.013322
-0.000185
0.014856
0.041129
0.032624
0.049781
0.067786
0.048668
0.076006
0.026337
0.032424
0.088439
0.054326
0.050117
0.015076
0.054009
0.008742
0.024427
0.131750
0.080558
0.036160
0.030036
0.052088
0.029031
0.052708
0.047446
-0.025975
0.005884
0.041428
0.064174
0.108682
0.131876
0.125574
0.087442
0.123644
0.096413
0.085638
0.003860
0.086182
0.018916
0.036277
0.038512
0.076248
0.019701
0.015658
0.054993
0.055295
0.016452
0.038471
0.073213
0.065041
0.089034
0.101731
0.161978
0.023295
0.045842
0.088776
0.107762
0.165114
0.040952
0.124640
0.079066
0.164463
0.254677
0.158142
0.148510
0.231235
0.143092
0.085442
0.145466
0.267043
0.136862
0.278321
0.217940
0.305135
0.233863
0.260132
0.120395
0.231028
0.191624
0.240674
0.185176
0.168915
0.212159
0.265594
0.173753
0.251098
0.105694
0.206153
0.143314
0.069668
0.136679
0.136682
0.106644
0.167951
0.094574
0.070676
0.046347
0.060900
0.102206
0.113754
0.087471
0.105773
0.063450
0.042484
0.009819
-0.005970
0.112954
0.138226
0.247607
0.380995
0.658183
1.038241
1.310122
1.500000
1.423801
1.129649
0.856486
0.424471
0.061344
-0.104148
-0.111778
-0.165783
-0.170441
-0.069820
0.049627
0.042179
0.041353
0.107109
0.151585
0.044747
0.108761
0.106112
0.068114
