0.032189
0.033274
-0.045543
-0.002209
0.019422
-0.028617
0.018537
-0.000108
0.094439
-0.018756
0.064868
0.021291
-0.035571
0.043870
0.016069
0.000548
0.113877
0.032932
-0.009062
0.033557
0.016578
0.131415
0.154134
0.063040
0.109488
0.067817
0.091603
0.151755
0.138480
0.140706
0.119218
0.190656
0.157271
0.193433
0.167059
0.120484
0.215265
0.228873
0.181840
0.156212
0.195697
0.123076
0.213563
0.151626
0.095107
0.176760
0.185173
0.175401
0.202546
0.094336
0.052022
0.119062
0.067556
0.100755
0.079228
0.047817
0.019486
0.100550
0.123461
0.010647
-0.000276
0.099263
0.117369
-0.002733
0.076260
0.074732
-0.000395
0.022896
0.064448
0.120585
0.242681
0.462210
0.694874
1.083373
1.280159
1.436201
1.356338
1.046739
0.688990
0.414587
-0.021185
-0.205690
-0.122900
-0.148270
-0.083825
0.042608
0.020253
0.105300
0.087871
0.052199
0.080993
0.199983
0.118616
0.149812
0.173961
0.102684
0.115698
0.212205
0.144260
0.160873
0.271794
0.299941
0.359244
0.348962
0.288683
0.358236
0.312917
0.478428
0.371528
0.481262
0.553370
0.399012
0.471035
0.499113
0.457244
0.559932
0.613432
0.605343
0.567395
0.604616
0.514158
0.572766
0.605002
0.505090
0.642973
0.564067
0.493692
0.523209
0.482566
0.538056
0.557566
0.514252
0.390885
0.517236
0.444534
0.425774
0.419430
0.377541
0.285055
0.306828
0.375977
0.314049
0.243633
0.248064
0.238931
0.229228
0.141051
0.164737
0.238489
0.195654
0.162440
0.149346
0.136772
0.168283
0.188036
0.105058
0.126759
0.123719
0.117481
0.147704
0.205025
0.084641
0.141896
0.097700
0.115535
0.062296
0.075177
0.062860
0.080988
0.111248
0.125235
0.075103
0.119796
0.151686
0.074789
0.022521
0.060146
0.056259
0.102151
0.066662
0.100667
0.147945
0.105906
0.090920
0.037241
0.008023
0.212885
0.141752
0.119591
0.095796
0.058615
0.078066
0.112904
0.127784
0.153097
0.081808
0.156116
0.077611
0.050516
0.106928
0.023552
0.166483
-0.003769
0.125897
0.103676
0.155334
0.210098
0.061080
0.147237
0.189714
0.111903
0.156208
0.167879
0.152070
0.128765
0.176816
0.170884
0.132610
0.231553
0.253187
0.189000
0.220990
0.250306
0.251589
0.247794
0.210876
0.281948
0.249867
0.283173
0.257698
0.216004
0.278544
0.161540
0.245754
0.280451
0.202548
0.285086
0.137790
0.175298
0.208523
0.121473
0.156438
0.123044
0.067947
0.088036
0.069997
0.130751
0.113850
0.037141
0.067069
0.020672
0.161017
0.110388
0.154626
0.079265
-0.057213
0.106864
0.265576
0.407523
0.588695
0.937568
1.184707
1.411138
1.500000
1.247909
0.963407
0.557035
0.226356
0.067748
-0.070617
-0.080941
-0.092226
-0.040032
-0.006757
0.025490
0.166567
0.074775
0.151733
0.113616
0.101930
0.148095
0.156714
0.069323
0.187945
0.256835
0.084018
0.229434
0.214275
0.280393
0.204072
0.173320
0.306092
0.320945
0.327392
0.338884
0.371418
0.405992
0.475004
0.483575
0.462726
0.520816
0.486471
0.585278
0.513412
0.500585
0.461150
0.552811
0.623266
0.567379
0.543088
0.576349
0.573030
0.592149
0.563813
0.528278
0.519174
0.515982
0.461506
0.523346
0.551986
0.448081
0.443256
0.392112
0.449576
0.370984
0.334271
0.328300
0.280672
0.310378
0.324174
0.170365
0.231388
0.227472
0.170328
0.053349
0.094628
0.139967
0.117577
0.103870
0.025466
0.116394
0.145337
0.139328
0.124825
0.103507
-0.053323
0.032410
0.060835
0.106277
0.081974
0.023402
0.052638
0.041589
0.068520
0.066208
0.097610
-0.002971
0.046426
0.041824
-0.029218
0.102104
-0.046665
0.069358
0.124246
-0.010349
-0.032663
0.055696
0.123511
0.020450
0.060761
0.006611
0.024589
0.033645
-0.038662
0.024257
-0.001798
-0.005417
-0.052617
0.009989
0.015113
-0.012935
0.016907
0.050528
0.055315
-0.008373
0.051240
0.078029
0.083414
0.010494
0.026074
0.014200
0.094959
-0.011573
0.021204
0.040419
0.073817
0.075706
0.132081
0.047244
0.159600
0.062815
0.126288
0.154087
0.168064
0.083668
0.193870
0.138204
0.114324
0.147478
0.155162
0.223708
0.058725
0.148593
0.201190
0.138142
0.219247
0.191272
0.180588
0.199063
0.121429
0.109794
0.085032
0.130687
0.105523
0.110111
0.087017
0.073816
0.041385
0.004236
0.052362
0.054811
0.004759
0.049037
0.100178
0.051131
-0.007189
0.002226
-0.016543
-0.025219
0.056864
-0.001908
-0.021939
-0.075799
-0.066425
0.046236
0.111305
0.351488
0.619950
0.952851
1.251434
1.342132
1.197388
0.996597
0.629191
0.231769
0.061025
-0.123463
-0.202877
-0.232313
-0.137632
-0.073925
-0.066317
-0.086494
0.021224
0.069887
0.006963
0.004647
0.035295
0.109524
0.014093
0.054353
0.066417
0.086334
0.106232
0.224912
0.140323
0.113799
0.216559
0.219436
0.219363
0.195911
0.332549
0.268525
0.290051
0.370254
0.336041
0.284508
0.319374
0.439940
0.356530
0.461366
0.445697
0.479330
0.390255
0.477525
0.420183
0.446792
0.458566
0.525657
0.542113
0.465096
0.455948
0.441053
0.500747
0.411820
0.349887
0.385067
0.378878
0.340017
0.326924
0.327729
0.243100
0.275206
0.271383
0.163862
0.200093
0.152898
0.235539
0.144656
0.095656
0.090540
0.139448
0.092880
0.084766
0.064619
0.060273
0.015166
-0.088880
-0.030683
-0.011023
-0.017036
-0.034734
-0.040296
-0.047353
-0.097553
-0.017231
-0.012292
-0.025590
-0.034544
0.032863
-0.055931
-0.032461
-0.006787
-0.076180
-0.041449
-0.089353
0.030158
-0.013445
-0.085970
0.014532
-0.012627
0.062225
-0.048617
-0.018983
-0.051104
-0.006377
0.005434
-0.104114
-0.002723
-0.042607
-0.079482
-0.018966
0.007367
0.008668
-0.112228
-0.051944
-0.022538
0.012451
-0.017196
-0.053459
-0.030237
0.041859
-0.051434
0.009766
0.041874
-0.139863
-0.044098
-0.018036
-0.008829
-0.001888
-0.030232
-0.018885
-0.069925
0.028455
0.060079
0.026682
0.006277
-0.013857
0.054690
0.051980
0.053020
0.103753
0.081974
0.063647
0.053214
0.110714
0.007914
0.026443
0.104336
0.091748
0.187336
0.125826
0.174859
0.133643
0.144564
0.090233
0.038467
0.010215
0.064221
0.041304
0.065900
0.021315
-0.039342
0.078948
0.047756
0.048377
0.005647
-0.048597
-0.032280
-0.017480
-0.086477
-0.103817
-0.063618
-0.075922
0.002886
-0.024722
-0.005467
-0.022800
-0.078912
0.019209
-0.067552
-0.032994
0.059837
0.222723
0.453188
0.784432
1.053608
1.307948
1.264396
1.087582
0.803795
0.430583
0.169220
-0.148560
-0.220303
-0.191215
-0.212861
-0.096569
0.013356
-0.030808
-0.065241
0.045023
0.062892
0.058899
0.083515
-0.009518
0.025226
-0.005764
0.057448
0.149333
0.166230
0.211127
0.177256
0.250278
0.160143
0.252632
0.262154
0.189630
0.253617
0.344846
0.382608
0.336360
0.297088
0.362536
0.306675
0.461200
0.362935
0.391016
0.515584
0.497951
0.454382
0.438593
0.453897
0.441816
0.490535
0.524830
0.542943
0.425013
0.475274
0.399948
0.433663
0.497079
0.408072
0.429878
0.458147
0.355941
0.404587
0.319065
0.338993
0.283609
0.306596
0.304023
0.269942
0.216428
0.197206
0.267662
0.161889
0.089877
0.119464
0.179608
0.172392
0.061419
0.076648
0.111155
0.099671
0.065195
0.022904
0.085213
0.095641
0.124371
0.093793
0.015822
0.027249
0.015509
0.037532
0.009118
-0.034731
0.060003
0.020162
-0.031598
0.055305
0.052761
0.124770
0.002950
0.052127
0.097976
0.011274
-0.016743
0.031703
-0.006521
0.001249
0.021334
-0.081457
0.039071
0.020364
0.021631
0.014251
-0.048993
-0.018146
0.088405
0.056586
0.042558
0.062470
0.106594
-0.020997
-0.002323
0.082060
0.016007
-0.063538
0.092739
0.004576
0.072440
0.074153
0.082724
-0.026069
0.094884
0.020865
0.113942
0.145275
0.016668
0.084411
0.082944
0.051405
0.032083
0.090302
0.090376
0.043167
0.142007
0.218298
0.116244
0.261150
0.066337
0.226892
0.224215
0.189465
0.270033
0.206134
0.210234
0.221858
0.218886
0.258761
0.220354
0.237497
0.218595
0.194416
0.167774
0.101277
0.162882
0.152133
0.109768
0.156615
0.068203
0.136965
0.061179
0.055666
0.127772
0.047252
0.151749
0.076334
0.051881
0.097994
0.093333
0.172033
0.024654
0.091268
0.099839
0.079819
0.095956
0.076178
0.137572
0.239330
0.417805
0.692609
0.990806
1.272670
1.370895
1.292782
0.988434
0.792763
0.402049
0.098809
-0.056108
-0.157476
-0.066334
-0.068515
0.058512
0.060041
0.115060
0.153563
0.097275
0.183721
0.078584
0.081865
0.187615
0.212401
0.213889
0.147618
0.148763
0.214592
0.208042
0.232723
0.336801
0.284534
0.331392
0.363807
0.363039
0.362232
0.280752
0.372743
0.449630
0.439962
0.492201
0.545941
0.531222
0.622174
0.556920
0.549834
0.555599
0.583531
0.600372
0.561084
0.567438
0.584020
0.558305
0.593182
0.580966
0.583453
0.561382
0.555142
0.547838
0.551871
0.498090
0.482172
0.478527
0.454990
0.434285
0.363541
0.436673
0.385874
0.294916
0.381161
0.226942
0.225013
0.271035
0.266591
0.194156
0.257650
0.175633
0.258671
0.198573
0.136386
0.186870
0.183268
0.133139
0.195229
0.135582
0.148496
0.085201
0.065453
0.147959
0.093713
0.091210
0.080656
0.180202
0.148874
0.111228
0.066850
0.101251
0.010502
0.116758
0.154681
0.097971
0.103296
0.174432
0.063653
0.045198
0.121237
0.086882
0.164115
0.101888
0.118465
0.123381
0.141828
0.133500
0.093579
0.117480
0.059303
0.060014
0.098156
0.077652
0.107910
0.086870
0.119647
0.106780
0.051277
0.018504
0.085202
0.116017
0.151544
0.121465
0.119988
0.138797
0.095300
0.135086
0.104832
0.111231
0.153296
0.112401
0.111393
0.092007
0.184963
0.165630
0.186371
0.110820
0.230483
0.271100
0.195881
0.155356
0.175336
0.284724
0.177735
0.300392
0.224221
0.347765
0.173836
0.271837
0.234681
0.234568
0.326781
0.241900
0.175359
0.236976
0.228705
0.159816
0.136280
0.192889
0.223810
0.233671
0.144720
0.196641
0.164945
0.093122
0.192550
0.114176
0.124537
0.084960
0.085428
0.102432
0.084276
0.114235
0.103015
0.114045
0.080669
0.067035
0.063455
0.073633
0.062554
0.241303
0.429067
0.537925
1.009774
1.158279
1.386897
1.397076
1.249607
0.965170
0.526999
0.220363
0.012148
-0.154733
-0.138631
-0.084737
0.054334
0.079083
0.060277
0.126725
0.152999
0.146001
0.186380
0.145289
0.122793
0.172930
0.188182
0.141031
0.203126
0.238487
0.234639
0.282468
0.320657
0.214019
0.280228
0.270143
0.286082
0.353880
0.373876
0.364034
0.320547
0.379815
0.477518
0.451637
0.507016
0.538414
0.479344
0.479930
0.491954
0.607689
0.526597
0.565846
0.525711
0.561866
0.530809
0.559526
0.582433
0.551301
0.544047
0.409136
0.510622
0.390843
0.448023
0.492474
0.472666
0.483779
0.351434
0.380013
0.426164
0.351738
0.343961
0.274335
0.223614
0.212306
0.248322
0.359661
0.266753
0.260816
0.125393
0.148128
0.231463
0.122289
0.124327
0.134909
0.033286
0.002857
0.089810
0.176300
0.112926
0.127905
0.058506
0.098819
0.037701
0.009943
0.018622
0.011138
0.016709
0.161452
-0.011695
0.065745
0.109569
-0.001616
-0.015566
0.008705
-0.022153
0.010900
0.025093
-0.048764
0.022562
-0.010122
0.002066
0.165812
0.041508
-0.043877
0.057007
-0.015680
0.074047
0.054753
-0.007690
0.039763
0.061108
-0.055843
0.056088
0.000363
-0.042659
0.027540
0.017428
-0.059356
-0.033226
0.109690
0.025074
0.075003
0.056324
-0.001795
0.042970
0.041156
0.071616
0.021952
-0.051783
0.020580
0.066034
0.081480
0.066112
0.088851
0.137035
0.108733
0.156364
0.028066
0.123230
0.211024
0.115068
0.149419
0.102735
0.170401
0.190021
0.143703
0.128712
0.174160
0.105278
0.104295
0.116364
0.149822
0.164455
0.185053
0.196831
0.146891
0.117657
0.042041
0.095142
0.074619
0.084156
0.122268
0.099051
0.049927
-0.036508
-0.021442
0.040671
0.008890
0.012626
0.039157
-0.032741
0.029879
0.001032
0.033696
-0.149909
-0.096525
-0.056857
-0.038136
0.050520
0.173963
0.345976
0.660286
0.972283
1.197986
1.321687
1.296827
0.984605
0.571039
0.289600
-0.010876
-0.149126
-0.276989
-0.240172
-0.131062
-0.132895
0.033988
-0.038724
0.037424
-0.017431
0.025604
0.038173
0.030792
0.006131
0.083005
0.004166
0.025981
0.039191
0.114129
0.093312
0.163482
0.128273
0.202362
0.170263
0.149260
0.283059
0.162305
0.194351
0.265439
0.424444
0.285373
0.376624
0.322893
0.372221
0.336605
0.451076
0.449565
0.444706
0.369685
0.475836
0.389910
0.403722
0.479112
0.502883
0.430814
0.437806
0.454414
0.410514
0.420632
0.386758
0.305249
0.356873
0.333139
0.284831
0.348829
0.240802
0.250656
0.230509
0.163507
0.244329
0.112911
0.174710
0.061026
0.142016
0.077893
0.070343
-0.002243
0.045563
0.075120
0.111759
0.025979
0.012803
0.054079
-0.076315
-0.011428
-0.032916
-0.015809
-0.075870
0.039392
-0.121412
-0.024314
-0.015226
-0.085168
-0.083763
-0.043750
-0.045885
-0.136862
-0.095009
-0.064564
-0.083887
-0.088269
-0.125518
-0.088375
-0.087083
-0.048973
0.022224
-0.093283
-0.051113
0.030396
-0.049980
-0.111043
-0.120810
-0.125369
-0.118858
-0.093376
-0.068673
-0.076791
-0.069015
-0.003375
-0.062492
-0.044247
-0.050121
-0.063133
-0.015075
-0.067836
-0.042893
-0.131557
-0.042394
-0.105891
-0.010526
-0.074000
-0.038533
-0.091609
-0.089204
-0.045132
0.026372
-0.052072
0.002713
-0.052004
-0.013107
-0.064553
-0.018278
-0.000037
0.039927
0.027708
0.000063
0.054909
0.009560
0.011851
0.102624
0.056920
0.069393
0.148383
0.089681
0.080093
0.098938
0.128398
0.140061
0.148689
0.098386
0.076935
0.078897
0.035640
0.115481
-0.007856
-0.061575
-0.003247
0.003236
0.025228
-0.035423
0.007978
-0.014357
-0.101402
-0.057247
-0.025972
-0.049531
-0.037440
-0.079753
-0.048925
-0.082950
-0.055817
-0.071615
-0.020231
0.009344
-0.080697
-0.100819
-0.160843
0.060598
0.155586
0.460935
0.772938
1.044654
1.189446
1.199438
1.101551
0.812619
0.315923
0.182357
-0.153317
-0.271694
-0.300902
-0.180271
-0.170031
-0.102656
-0.058169
-0.073177
0.062234
0.005551
-0.012798
0.010497
-0.020809
0.071439
0.037221
0.014320
-0.001434
0.166430
0.058897
0.120119
0.104932
0.100716
0.235713
0.145585
0.194435
0.108897
0.177553
0.232540
0.232825
0.301902
0.272164
0.318469
0.426030
0.343462
0.333559
0.381012
0.451992
0.376182
0.331270
0.353660
0.456275
0.454909
0.452141
0.447618
0.356755
0.404186
0.426406
0.496437
0.384262
0.423276
0.423129
0.363909
0.315537
0.349112
0.341584
0.218802
0.337962
0.219343
0.218975
0.140256
0.242149
0.202243
0.193857
0.090349
0.170556
0.119732
0.167739
-0.025004
0.096417
-0.049948
0.050953
0.031355
-0.005545
-0.047320
0.101003
-0.000180
0.012798
0.011536
-0.026189
-0.001141
0.067044
-0.022691
-0.023880
-0.049088
-0.075266
0.026245
-0.019730
-0.084523
-0.062067
0.075916
-0.064727
-0.071121
-0.028877
-0.000007
-0.063942
-0.017730
0.044439
-0.025295
-0.006137
-0.003760
0.035315
-0.039673
0.002752
0.020780
0.057862
-0.060172
-0.083014
0.063872
-0.035712
-0.019860
-0.000294
-0.009555
-0.005728
-0.014822
-0.019646
-0.041155
-0.032689
-0.017231
-0.014073
-0.017435
0.026208
0.009230
-0.019838
-0.034455
0.025334
-0.074713
-0.035581
0.011419
0.036879
0.033072
-0.017557
0.007312
0.054682
0.087888
0.138600
0.103180
0.125850
0.110859
0.083489
0.084157
0.169298
0.131494
0.214635
0.181623
0.203791
0.160487
0.104142
0.173825
0.158522
0.154082
0.170384
0.110942
0.104288
0.099309
0.101041
0.109604
0.023831
0.061950
0.104974
0.068714
0.034519
0.142033
0.094026
0.045166
-0.001200
0.046185
-0.079282
0.004591
0.039291
-0.002753
0.071855
0.019572
0.006729
-0.017806
-0.031072
-0.054568
0.039388
0.167694
0.486073
0.737498
0.969379
1.240234
1.346284
1.214731
1.028563
0.704285
0.318697
0.027749
-0.142270
-0.248991
-0.109969
-0.119769
0.068193
0.016096
0.070302
-0.013902
0.078557
0.102855
0.069313
0.053641
0.098252
0.153821
0.117080
0.113340
0.170730
0.127680
0.160648
0.155952
0.194391
0.247121
0.230410
0.283373
0.218083
0.288628
0.278511
0.394096
0.402094
0.394906
0.378491
0.526446
0.381446
0.359384
0.538643
0.543907
0.506927
0.503408
0.542076
0.568342
0.573019
0.613841
0.592132
0.507107
0.552037
0.523575
0.462081
0.538164
0.453715
0.474418
0.418055
0.424471
0.425070
0.407250
0.359879
0.266234
0.330383
0.284302
0.282229
0.257890
0.222071
0.298493
0.173300
0.157534
0.252161
0.123786
0.175065
0.151846
0.128590
0.093007
0.082855
0.023973
0.097793
0.046523
0.118976
0.103394
0.028994
0.089324
0.039647
0.068265
0.130795
0.083315
0.058723
0.011435
0.123081
-0.029819
0.064259
-0.010801
0.095113
-0.035485
-0.028280
0.056370
0.018941
0.044030
0.094840
-0.042219
0.090928
0.032891
0.030463
0.027617
0.086357
0.022409
0.102531
0.043187
0.055123
0.060284
0.047485
0.009317
0.066050
-0.021212
0.061612
0.062352
0.152937
0.082076
0.029251
0.003013
0.029848
0.034134
0.009690
0.011885
0.106524
-0.009741
-0.005102
-0.029642
0.031704
0.027570
-0.054441
0.126441
0.113776
0.124189
0.058560
0.105421
0.135657
0.117576
0.190528
0.155650
0.132285
0.173791
0.182437
0.235619
0.221962
0.196108
0.186584
0.256509
0.191833
0.210092
0.225723
0.188912
0.229891
0.179495
0.186555
0.192967
0.082412
0.147329
0.049071
0.170968
0.199365
0.089640
0.060824
0.136807
0.186703
0.060360
0.037108
0.061928
0.053313
0.001704
0.013285
-0.046313
0.087887
0.098893
0.041350
0.085281
0.023767
0.056747
-0.065744
0.058241
0.130258
0.306752
0.591967
0.833894
1.131178
1.300700
1.396310
1.166152
0.879337
0.462360
0.176745
-0.053089
-0.237312
-0.193059
-0.110217
-0.019658
0.083793
0.026138
0.044947
0.059943
0.097389
0.136313
0.137319
0.093005
0.128905
0.133495
0.159896
0.183330
0.158296
0.164074
0.176604
0.126850
0.213234
0.215548
0.264458
0.244662
0.355164
0.286161
0.352707
0.336373
0.383778
0.426810
0.541761
0.437767
0.398407
0.428876
0.545228
0.539991
0.497534
0.466179
0.534502
0.564839
0.489057
0.485365
0.498987
0.520516
0.573478
0.586359
0.473712
0.473528
0.455638
0.431204
0.408450
0.464703
0.433887
0.376672
0.235338
0.376541
0.352739
0.227236
0.233267
0.199603
0.210873
0.157764
0.155986
0.090548
0.213388
0.241558
0.044092
0.118327
0.138521
0.073120
0.220174
0.035872
0.066911
0.080379
0.167059
0.004443
0.055375
0.113635
-0.027211
0.061949
0.027048
-0.025041
-0.039780
-0.141625
-0.000172
-0.002465
-0.008132
-0.068582
-0.064730
0.021430
0.010872
0.003458
-0.039260
0.020803
0.057889
-0.039843
-0.025992
-0.033032
0.014034
-0.047591
0.047465
0.036459
-0.050363
0.019611
0.029102
-0.046350
-0.033324
-0.033469
-0.032700
-0.056434
0.014168
-0.008031
0.104383
-0.046079
0.030486
-0.024019
0.007539
-0.073355
0.024093
0.000185
-0.063654
-0.089039
0.021817
0.034873
-0.001502
0.113694
-0.015702
-0.035735
-0.023273
0.125802
0.094123
-0.025619
0.041215
0.082519
0.103552
0.048069
0.089560
0.035547
0.104491
0.097019
0.086207
0.053294
0.144623
0.170892
0.016184
0.220597
0.157117
0.115019
0.138175
0.147385
0.052750
0.155924
0.064135
0.061625
0.104470
0.018743
-0.026253
0.061024
0.071621
0.026504
-0.049144
-0.035502
-0.021334
-0.075633
-0.032359
-0.035245
-0.057770
-0.038097
-0.077569
-0.006264
-0.104968
-0.132686
-0.040835
-0.013198
-0.032697
0.015751
0.094295
0.369702
0.615748
0.958069
1.173626
1.343575
1.262827
1.010797
0.652183
0.267241
-0.075877
-0.260392
-0.324527
-0.201971
-0.153525
-0.143710
-0.052226
-0.143493
-0.148730
0.040578
-0.057087
0.080419
-0.050872
0.079729
0.037696
0.058035
0.043616
0.030816
0.063613
0.097436
0.122031
0.104311
0.080967
0.183339
0.262892
0.221853
0.172943
0.236992
0.360333
0.291141
0.347209
0.318660
0.365120
0.361152
0.370276
0.345979
0.348974
0.446403
0.390654
0.442597
0.447002
0.420253
0.405874
0.429397
0.427728
0.324348
0.406195
0.415846
0.359369
0.317101
0.355083
0.250142
0.305822
0.257863
0.313376
0.341434
0.213629
0.363604
0.206048
0.138776
0.169397
0.156965
0.148525
0.179160
0.110370
0.032286
0.043092
0.046937
0.020311
-0.004773
-0.024338
-0.041037
-0.035242
0.044974
-0.015708
-0.027338
-0.025031
-0.066879
-0.050883
-0.077414
-0.167496
-0.125812
-0.033524
-0.087345
0.000442
-0.087617
-0.049254
-0.099713
-0.026872
-0.084456
-0.078564
-0.084840
-0.085303
-0.133222
-0.070339
-0.185441
-0.175442
-0.057089
-0.068883
-0.027011
-0.119272
-0.078307
-0.113615
-0.158440
-0.078667
-0.172561
-0.084582
-0.117347
-0.036283
-0.056853
-0.108424
-0.083214
-0.146427
-0.049518
-0.073217
-0.206683
-0.090104
-0.153060
-0.129037
-0.140876
-0.085085
-0.083563
-0.107252
0.004684
-0.039837
-0.084603
-0.152711
-0.031087
-0.034723
-0.039308
-0.119179
-0.079840
0.005795
0.043961
-0.000046
0.034053
-0.023100
0.085820
0.119053
0.049985
0.043263
0.029073
0.076485
0.056524
0.055396
-0.051624
0.063240
0.083145
0.085040
0.070617
0.088997
0.017653
-0.040889
0.054445
0.051989
0.072333
-0.005645
-0.015680
0.037085
-0.049398
-0.126839
-0.044577
-0.135752
0.009881
-0.138037
-0.067373
-0.032371
-0.122381
-0.103360
-0.094076
-0.135516
-0.095276
-0.036852
-0.079136
-0.066370
-0.141467
-0.051386
-0.007770
0.212851
0.364426
0.692445
1.067930
1.296567
1.181814
1.085538
0.789364
0.415333
0.065794
-0.224283
-0.293911
-0.242481
-0.288203
-0.150951
-0.110055
-0.050879
-0.048179
-0.114363
0.014473
-0.073113
0.034990
-0.008171
0.002615
0.039885
0.037809
0.076418
0.063623
0.031347
0.092694
0.065271
0.193480
0.076859
0.171982
0.228659
0.199942
0.229640
0.246814
0.216649
0.314230
0.229638
0.429964
0.418490
0.371849
0.358159
0.481123
0.350952
0.336637
0.363756
0.438585
0.450579
0.470140
0.417152
0.432642
0.378476
0.456031
0.413573
0.252338
0.377959
0.377389
0.359928
0.366158
0.329719
0.336583
0.277413
0.215901
0.210207
0.262381
0.284145
0.182721
0.144914
0.063053
0.153951
0.095477
0.165876
0.108012
0.074643
-0.049475
0.128866
0.061675
0.028141
-0.018302
0.056491
-0.055339
-0.041536
0.071345
-0.023509
0.008935
-0.084833
0.037345
0.031847
-0.026801
-0.058782
-0.045197
-0.037458
-0.048318
-0.028923
-0.058729
-0.018937
0.092983
-0.017282
-0.034801
0.015049
-0.079689
-0.042383
-0.019480
0.099519
-0.114664
-0.016565
-0.164894
-0.036628
-0.006221
-0.071405
0.004419
0.011349
-0.100950
-0.040745
0.027694
0.035603
-0.074247
-0.087851
-0.032638
-0.030467
-0.011038
-0.006976
0.012627
-0.092138
-0.095611
-0.056891
-0.031839
-0.027390
0.008064
-0.014378
-0.031639
0.020798
0.013212
0.061307
0.011826
0.050971
0.102575
0.026118
0.031290
0.093681
0.134959
0.080817
0.095459
0.037512
0.107727
0.125078
0.156918
0.220929
0.138929
0.113552
0.274537
0.182737
0.183836
0.133545
0.118841
0.218592
0.143897
0.078889
0.164346
0.158528
0.212030
0.138365
0.102971
0.125678
0.118540
0.100184
0.087053
0.055004
0.083920
0.048993
0.015338
0.051649
0.028047
0.025945
0.027327
-0.070462
-0.040220
-0.025853
0.054557
0.019959
0.056604
-0.007114
0.013653
0.018507
0.202456
0.368907
0.699973
1.027226
1.223686
1.480631
1.213326
1.041911
0.761697
0.374090
0.062222
-0.112646
-0.090025
-0.102780
-0.056823
0.003624
0.054483
0.030562
0.089697
0.054454
0.035267
0.088072
0.189544
0.156430
0.102610
0.118951
0.095543
0.151945
0.125710
0.118707
0.221383
0.242204
0.186306
0.276045
0.177648
0.260425
0.334890
0.348230
0.344562
0.416232
0.346396
0.360172
0.362148
0.471398
0.463296
0.448576
0.497783
0.587173
0.511221
0.509257
0.479104
0.484353
0.483151
0.593184
0.518363
0.510880
0.593717
0.565076
0.526096
0.487388
0.537306
0.589424
0.485601
0.369551
0.306087
0.343015
0.428393
0.416034
0.257691
0.389807
0.337543
0.228040
0.240002
0.229822
0.230392
0.188780
0.231275
0.208952
0.141919
0.184717
0.127958
0.111882
0.122805
0.123790
0.172282
0.190083
0.005769
0.141121
0.091112
-0.014895
0.005259
0.030855
0.013651
0.071217
0.066008
0.050397
0.033919
0.041618
0.030189
0.062343
0.149970
0.065004
0.050794
0.052307
-0.000936
0.060124
0.012476
0.135907
0.148804
0.101962
0.070236
0.052028
-0.060699
0.048863
0.037530
0.064889
0.082037
0.108398
0.041824
0.063160
0.065374
0.124707
-0.014530
0.042117
0.111519
-0.034484
-0.031517
0.067963
0.095510
0.114165
0.052641
0.067664
0.024585
0.078109
0.042778
0.117898
-0.015740
0.048277
0.145209
0.126924
0.144074
0.171746
0.137753
0.132896
0.164928
0.144591
0.144753
0.221413
0.200014
0.230985
0.254203
0.266992
0.333398
0.267632
0.290978
0.288421
0.205598
0.246450
0.278326
0.244801
0.189050
0.269484
0.184700
0.147413
0.167843
0.169742
0.128735
0.139171
0.150944
0.140615
0.177945
0.090315
0.147067
0.143690
0.101079
0.112569
0.077716
0.095693
0.098859
0.048276
