-0.000350
-0.023070
0.024868
0.046311
0.050099
0.065522
-0.073012
0.028288
0.059973
-0.000478
-0.075394
0.058694
0.038523
0.116827
-0.029051
0.019519
0.014512
0.000521
0.021098
0.027761
-0.030521
0.044076
0.000804
0.040053
0.065118
0.032730
0.042453
-0.024656
0.085156
0.063574
0.034060
-0.001409
0.037030
-0.029740
-0.031915
0.063040
0.068506
0.089519
0.118527
0.104292
0.036756
0.094429
0.087454
0.121891
0.070315
0.127060
0.167507
0.079230
0.167089
0.162570
0.222761
0.151254
0.250834
0.172241
0.230313
0.246872
0.144158
0.154937
0.189220
0.162366
0.132403
0.269725
0.173522
0.107579
0.126761
0.105799
0.130585
0.163143
0.096675
0.087726
0.120034
0.107085
0.115537
-0.009614
0.053333
0.022293
0.048354
0.078764
0.151883
0.112891
-0.001352
0.094975
0.037267
0.058005
0.058888
0.023139
0.071759
0.037098
0.043288
0.066198
0.064902
-0.023216
0.056692
0.118653
0.005893
0.093221
0.038337
0.056736
0.120528
-0.033034
0.059676
-0.023424
-0.069470
-0.078946
-0.047668
0.112287
0.190295
0.538099
0.718599
1.089047
1.388497
1.456675
1.401856
1.238018
0.900882
0.677870
0.364436
0.047047
-0.117655
-0.308244
-0.227951
-0.199306
-0.225083
-0.063190
-0.027130
0.105795
0.116025
0.045606
0.102714
0.090836
0.010710
0.020707
0.088021
0.081646
0.074370
0.103939
-0.004989
-0.034741
0.129417
0.034833
0.105348
0.058147
0.052597
0.076229
0.183156
0.084101
0.192936
0.247901
0.075158
0.028585
0.114919
0.151361
0.137117
0.176941
0.243606
0.190719
0.252953
0.287223
0.316304
0.279172
0.263549
0.357333
0.320364
0.373972
0.347235
0.356807
0.476221
0.299337
0.449059
0.377378
0.468328
0.531820
0.557413
0.530547
0.571076
0.531769
0.477163
0.622961
0.560994
0.564472
0.592205
0.514371
0.546747
0.529788
0.561026
0.668819
0.594443
0.566998
0.477697
0.485557
0.480666
0.476961
0.433940
0.442865
0.334673
0.389254
0.438747
0.396520
0.398218
0.303750
0.329257
0.245527
0.196155
0.230282
0.227234
0.158792
0.170404
0.275598
0.156516
0.088143
0.158827
0.101084
0.124995
0.146266
0.150839
0.029774
0.108446
0.023089
0.128041
0.071816
0.069824
0.096702
0.152343
0.071458
0.106380
0.038357
0.114926
0.027806
0.032684
0.019851
0.044940
0.105839
0.092159
0.085819
0.043063
0.081328
0.038878
0.096946
0.106442
0.063142
0.018100
0.104671
0.087927
0.084910
0.114491
0.124379
0.027404
0.094050
0.096715
0.133945
0.081019
0.101339
0.135356
0.106439
0.090210
0.011238
0.077455
0.110888
0.092963
0.148898
0.087635
0.082911
0.073034
-0.001506
0.076199
0.103016
0.089126
0.122338
0.049898
0.047294
0.058449
0.017588
0.087327
0.066006
0.054940
0.108961
0.008869
0.094034
0.060783
0.003614
-0.008008
0.030051
0.055256
0.012085
0.062966
0.112072
0.070694
0.060243
0.141771
0.030143
0.066098
0.004692
0.042201
0.061675
0.098000
0.009960
0.081841
-0.023740
0.039014
0.113542
0.056906
0.062446
0.068469
0.001014
-0.007560
0.101400
0.047585
0.057350
0.111098
0.128000
0.077857
-0.040373
0.071453
0.106715
0.131289
0.143494
0.141159
0.079592
0.023305
0.139358
0.123841
0.128476
0.139350
0.124034
0.143297
0.181073
0.156913
0.209170
0.188501
0.165665
0.194868
0.211667
0.324220
0.303084
0.234891
0.204670
0.242218
0.203390
0.241133
0.267735
0.207567
0.162941
0.123070
0.172094
0.071090
0.070354
0.140776
0.048013
0.198168
0.018666
0.157423
0.116481
0.033631
0.020718
0.046214
0.089618
-0.033009
0.076515
-0.002814
0.096635
0.052380
0.015708
0.083174
0.057396
0.010123
0.066148
0.009001
0.063491
0.033871
0.007944
0.091008
-0.045632
-0.021606
-0.070043
-0.011459
0.072411
-0.013126
-0.041982
-0.045450
0.042631
-0.046270
0.023484
-0.011312
-0.037208
0.154927
0.414503
0.758297
1.110208
1.304787
1.467239
1.331040
1.117185
0.786400
0.463796
0.231792
-0.040514
-0.231880
-0.428476
-0.296825
-0.212490
-0.118434
-0.144744
0.014363
-0.035362
0.060266
-0.043613
0.058126
-0.025675
-0.038977
0.160594
0.004576
0.004787
-0.026786
0.026370
0.032140
0.088584
-0.001898
0.031937
-0.006062
0.022317
0.009385
0.058226
0.023240
0.048929
0.081255
0.066176
0.093742
0.093069
-0.016677
0.166435
0.075676
0.075865
0.070677
0.080793
0.126609
0.024490
0.167528
0.052921
0.170859
0.180659
0.202793
0.251556
0.234031
0.271525
0.384093
0.385813
0.336656
0.361840
0.397820
0.357386
0.419151
0.350600
0.457090
0.457019
0.501857
0.465890
0.408649
0.494816
0.544276
0.496833
0.470763
0.530755
0.550473
0.437112
0.534476
0.377656
0.409451
0.438254
0.342826
0.311553
0.315332
0.289684
0.291352
0.269727
0.262764
0.208062
0.267597
0.196468
0.212571
0.082080
0.139652
0.198827
0.068086
0.045435
0.143444
0.070816
0.051376
0.089572
0.130088
0.025478
-0.008818
0.039581
-0.007616
-0.033854
-0.006256
-0.067057
0.038488
-0.039132
0.058742
-0.001520
0.017771
0.008058
-0.050423
0.031565
-0.066752
-0.100082
-0.039076
-0.027746
-0.004866
-0.013384
-0.012100
0.000951
-0.024041
-0.067327
-0.098124
-0.013272
-0.122486
-0.099442
-0.047992
-0.048617
-0.014026
-0.064131
-0.075170
-0.034256
-0.096080
-0.006951
0.063328
-0.014939
0.006322
-0.046711
0.030093
-0.008779
-0.021590
0.003667
-0.062529
-0.056048
-0.039995
-0.125205
-0.052837
-0.030517
-0.087768
-0.015536
-0.075572
-0.003598
-0.031327
0.015299
-0.038652
-0.099187
-0.061041
-0.063991
0.022915
0.023441
-0.097623
-0.055812
-0.078902
-0.031339
-0.021472
-0.073773
-0.099653
-0.118229
-0.101200
-0.025724
-0.129672
-0.104109
-0.039844
-0.063786
-0.041262
-0.082661
-0.063748
-0.044331
-0.021100
-0.028847
-0.057752
-0.009649
0.007816
-0.107253
-0.123105
-0.086795
-0.054869
-0.091199
-0.032755
0.019360
-0.084835
-0.050076
0.001711
-0.002839
0.063697
0.004649
0.009962
-0.035476
-0.042989
-0.102138
0.010778
-0.050690
0.023708
0.037081
-0.057632
0.003980
0.049552
0.041819
0.029482
0.095451
0.056256
0.115185
0.054330
0.063104
0.081493
0.203830
0.109282
0.084627
0.111323
0.223104
0.072594
0.173029
0.084843
0.183787
0.062663
0.126646
0.129782
0.095004
0.127791
0.101999
0.095115
0.135754
0.072676
-0.016900
0.085049
0.002021
-0.009223
0.083102
0.021447
-0.021598
0.010291
-0.008367
-0.001950
-0.052278
-0.047901
-0.091096
-0.004958
-0.064090
0.004890
-0.018003
0.005958
0.052503
-0.000708
-0.047581
-0.018908
-0.069192
-0.003804
-0.009307
-0.012937
-0.021550
-0.070658
-0.011210
0.030270
-0.092193
0.021695
-0.037666
-0.073162
-0.170871
-0.090649
0.021575
0.171292
0.542765
0.878615
1.203053
1.330694
1.345926
1.273408
0.978083
0.719030
0.377162
0.060238
-0.107438
-0.298042
-0.325075
-0.304526
-0.248581
-0.209863
-0.132213
-0.140005
-0.038732
-0.023553
0.018438
-0.093949
0.023554
0.003224
-0.024375
-0.083272
0.015260
0.037680
-0.067312
-0.046375
0.049168
-0.009396
-0.013232
-0.062151
0.088219
0.016732
0.048191
0.086333
0.049112
-0.020268
0.043878
-0.028050
-0.002799
0.068873
0.051784
0.132933
0.160229
0.136364
0.181411
0.138360
0.187760
0.191890
0.137854
0.219480
0.201432
0.287238
0.172859
0.366153
0.358217
0.310322
0.318659
0.350961
0.328185
0.443165
0.393302
0.436329
0.462480
0.560880
0.513671
0.462542
0.571032
0.522590
0.487012
0.524339
0.483692
0.466940
0.458434
0.476836
0.474645
0.466148
0.481178
0.444916
0.346986
0.420862
0.371237
0.381588
0.439014
0.350047
0.355196
0.263871
0.250510
0.229928
0.222946
0.165519
0.208465
0.221482
0.151458
0.086777
0.185379
0.162490
0.079126
0.109226
0.108754
0.090154
0.108583
0.125605
0.120232
0.041893
0.043248
0.007122
0.141908
0.105846
0.007736
0.035899
0.007117
0.064668
0.079022
0.041127
0.000465
0.049275
0.070816
0.050541
0.023425
0.045869
0.027946
-0.020110
0.069738
0.021220
0.073268
0.134485
0.055053
0.097959
0.063117
0.094120
0.024507
-0.035883
0.036856
0.075063
0.072409
0.046133
0.070990
0.090752
0.075642
0.030852
0.095724
0.034754
0.031176
0.009095
0.044066
-0.051150
0.046822
0.056170
0.006818
0.045741
0.054277
0.084563
0.168601
0.095751
0.029877
0.060131
0.147751
0.053861
0.052246
0.017067
0.136498
0.113391
0.091308
0.091056
0.080786
0.080313
0.110395
0.078530
0.071665
0.094619
0.068031
0.095590
0.085886
0.110036
0.063583
0.094665
0.077848
0.069186
0.029100
-0.022391
0.084319
0.123743
0.147278
0.134805
0.102432
0.086004
0.066511
0.039139
0.110033
0.065699
0.087879
0.027313
0.026622
0.110815
0.073893
0.091613
0.120489
0.095138
0.093975
0.148648
0.127865
0.189092
0.123277
0.062963
0.073538
0.127261
0.066515
0.146533
0.184540
0.132582
0.166107
0.168715
0.184133
0.221946
0.185716
0.153070
0.285026
0.271375
0.192454
0.200195
0.271111
0.203462
0.200743
0.275556
0.273544
0.195762
0.285733
0.227784
0.249324
0.281540
0.216281
0.175409
0.186013
0.179531
0.201275
0.135716
0.169670
0.110285
0.209354
0.208123
0.174759
0.083351
0.073224
-0.016206
0.150203
0.086155
0.046652
0.087899
0.086366
0.122319
0.095829
0.118115
0.107118
0.060135
0.038799
0.073705
0.086531
0.065906
0.088371
0.099528
0.055160
0.053928
0.030942
0.082702
0.090259
0.206685
0.098697
0.104007
0.029161
0.009345
-0.019415
0.065196
0.133027
0.350519
0.678862
1.002092
1.264507
1.500000
1.496431
1.392240
1.145806
0.783435
0.432111
0.156848
-0.040027
-0.175359
-0.262327
-0.224066
-0.042395
-0.020892
-0.017094
0.073296
0.042489
0.153535
0.124511
0.069379
0.079140
0.172686
0.104337
0.119597
0.100499
0.109053
0.101728
0.118826
0.172790
0.023973
0.141853
0.039521
0.134688
0.121141
0.044846
0.095788
0.149614
0.170510
0.131828
0.072964
0.095605
0.126921
0.197013
0.182937
0.159105
0.203864
0.168563
0.262671
0.273400
0.269328
0.218846
0.256038
0.301005
0.375943
0.377705
0.412281
0.377760
0.422126
0.442580
0.432488
0.531127
0.472466
0.507086
0.577932
0.540356
0.594311
0.544906
0.571834
0.603207
0.544276
0.566969
0.534262
0.474296
0.612702
0.646459
0.639405
0.536973
0.476099
0.510030
0.459622
0.477955
0.444753
0.436438
0.496995
0.482769
0.399818
0.356652
0.323633
0.327590
0.240486
0.268933
0.246239
0.286266
0.253351
0.243099
0.100727
0.169937
0.128219
0.191306
0.151160
0.126860
0.090338
0.178588
0.188127
0.112460
0.105494
0.055400
0.179357
0.070740
0.112028
0.091674
0.105970
0.016811
0.035286
0.021341
0.075203
0.047207
0.088624
0.086338
0.074701
0.104143
0.014580
0.057242
0.038512
0.015787
0.023878
0.026516
0.046303
-0.022668
0.060389
0.089235
0.008545
-0.005381
0.020286
0.056134
0.089463
0.025756
0.008259
0.084930
0.033792
-0.023077
0.051223
0.053881
0.101983
0.086592
0.061511
0.057323
0.071278
0.013592
-0.015326
-0.025822
0.077813
-0.019070
0.084842
0.067382
0.051462
0.062960
0.067354
-0.026169
0.113070
-0.004080
0.022909
0.041379
-0.007625
0.062639
0.052681
0.090542
0.000160
0.077458
0.157728
-0.015630
-0.004856
-0.014008
0.072170
-0.028499
0.078718
-0.038947
0.014447
0.047626
0.047127
-0.008780
0.000803
-0.026053
-0.033618
0.082727
0.089662
0.043674
0.040962
0.020395
-0.050030
0.015411
-0.017705
0.042141
-0.014419
0.012447
0.005417
0.026464
-0.034409
0.014604
0.033417
-0.059677
0.055116
0.037539
0.004828
-0.032889
-0.011598
0.027584
0.036109
0.208582
-0.000032
0.097105
0.051181
0.128301
0.072867
0.191216
0.069311
0.118124
0.097205
0.038381
0.122732
0.136950
0.081766
0.119147
0.170280
0.160453
0.169091
0.110302
0.100026
0.120454
0.124970
0.171135
0.010773
0.104786
0.076895
0.068406
0.070467
-0.039488
0.005448
0.046428
0.022319
0.059664
0.006232
-0.023891
-0.001469
0.033327
-0.084774
0.006768
0.000309
0.036840
-0.024927
-0.038046
-0.073682
-0.017395
0.003855
-0.030164
0.039553
-0.099491
-0.056400
0.001981
-0.042354
0.037205
-0.081585
-0.068914
-0.047684
-0.067560
-0.017120
-0.002460
-0.009611
-0.104573
-0.066521
-0.126123
-0.098833
-0.086995
-0.127014
0.015725
0.271696
0.581939
0.999786
1.240448
1.364278
1.245616
1.174586
0.875298
0.511584
0.234320
-0.041181
-0.254212
-0.373451
-0.357399
-0.278840
-0.260653
-0.165811
-0.081225
-0.029211
-0.037733
-0.035913
0.032286
-0.051958
-0.046614
-0.072235
-0.059838
0.024326
-0.034729
-0.106494
-0.031089
-0.084973
-0.047693
-0.036838
-0.011540
-0.103182
-0.025375
-0.013566
-0.059850
-0.083353
0.002798
-0.011455
0.007393
-0.023516
0.060951
0.039296
0.070233
0.098712
0.061162
0.083113
-0.025240
0.023918
0.073632
0.097204
0.111995
0.181526
0.108633
0.136668
0.184458
0.206236
0.404890
0.227304
0.306383
0.250325
0.291449
0.307251
0.404539
0.410975
0.378987
0.335626
0.398882
0.378916
0.403736
0.449360
0.439775
0.471608
0.367544
0.411323
0.386749
0.442103
0.370203
0.375306
0.358014
0.314829
0.324213
0.286293
0.227306
0.212084
0.294042
0.309576
0.189423
0.216995
0.162052
0.129690
-0.008388
0.154610
0.043418
0.108733
0.095856
0.074609
0.066037
0.015365
0.018320
-0.040586
0.004411
-0.054325
0.033760
-0.096908
-0.035451
-0.060684
-0.084037
-0.004161
-0.016500
-0.019245
0.015215
-0.078017
-0.137882
0.004234
-0.153946
-0.085531
-0.124245
-0.025510
-0.002247
-0.068484
-0.028514
-0.126245
-0.097230
-0.100552
-0.116322
-0.067978
-0.094985
-0.084428
-0.102484
-0.113665
-0.055633
-0.021809
-0.080213
-0.082716
-0.111185
-0.049200
-0.004407
-0.091644
-0.060531
-0.137519
-0.059194
-0.083744
-0.120657
-0.065224
-0.075709
-0.077212
-0.038051
-0.046883
-0.066018
-0.083567
0.016224
-0.093067
-0.100584
-0.053759
0.005773
-0.034306
-0.089181
-0.007210
-0.164162
-0.070519
-0.130749
-0.058407
-0.058459
-0.088707
0.028891
-0.043376
-0.067551
-0.058279
-0.039896
-0.056452
-0.057262
-0.075724
0.019529
-0.050651
-0.057830
-0.006340
-0.014157
-0.036735
-0.123714
-0.027462
-0.019227
-0.096148
-0.095836
-0.008814
-0.036826
-0.071743
-0.027877
-0.083241
-0.062630
-0.110036
-0.048816
-0.091136
-0.095577
-0.049249
-0.024753
-0.067177
-0.069504
-0.062399
-0.014086
-0.068699
-0.079714
0.020403
0.022083
-0.067235
-0.080782
-0.013580
0.011479
0.023617
0.063831
0.002046
0.022537
0.162828
0.033364
0.046601
0.052859
0.075164
0.057194
0.126660
0.076333
0.163779
0.185828
0.119418
0.092113
0.050055
0.087213
0.182628
0.133969
0.043547
0.093853
0.062234
0.098330
0.084931
0.038349
0.006967
0.010968
0.077999
0.049472
0.086069
-0.007209
0.067095
0.005784
-0.035632
-0.053447
0.029345
-0.003774
0.027146
-0.059384
-0.083962
-0.046185
-0.025832
-0.058445
-0.039900
-0.032630
0.034346
-0.074745
-0.038985
-0.087282
-0.036205
-0.016764
-0.054761
-0.065554
0.020293
-0.001276
-0.159100
-0.027934
-0.079545
-0.006628
-0.057938
-0.060297
-0.059350
-0.119503
-0.127530
-0.139929
-0.100373
0.117411
0.323969
0.737182
1.053844
1.282482
1.399312
1.292503
1.181971
0.786342
0.484976
0.155503
-0.030845
-0.206169
-0.264399
-0.397693
-0.360581
-0.141577
-0.116712
-0.124039
-0.082087
-0.007208
0.036713
0.040343
-0.035818
-0.034388
-0.026820
-0.056274
-0.055950
-0.009302
-0.015026
-0.038635
0.022507
-0.005936
0.050034
-0.034642
0.008139
-0.018511
0.036944
0.106148
0.035059
0.064028
0.010257
0.042328
0.077401
0.009307
0.093852
0.086212
0.096529
0.094882
0.090699
0.138258
0.168749
0.160966
0.140801
0.131098
0.201974
0.256231
0.278243
0.234352
0.283768
0.350813
0.389768
0.290176
0.414280
0.414033
0.451901
0.363935
0.478691
0.501295
0.442120
0.462416
0.453830
0.486560
0.481282
0.547908
0.508319
0.565908
0.459942
0.532252
0.464582
0.490354
0.369689
0.470550
0.470702
0.452352
0.402109
0.362132
0.415279
0.374134
0.332451
0.290414
0.287619
0.203124
0.222493
0.219087
0.154253
0.209610
0.149177
0.070415
0.184653
0.171635
0.114353
0.123070
0.188606
0.155584
0.055730
0.039951
0.068548
0.025969
0.170610
-0.002710
0.081581
0.028939
0.026730
0.077952
0.059795
0.127240
0.002717
0.009594
-0.018358
0.052419
0.008682
0.043049
0.065532
0.026590
-0.072338
0.023059
0.042899
0.065737
0.054765
0.086300
-0.029203
0.097504
0.074912
0.034478
0.004964
0.026475
0.054751
0.059364
0.072959
0.075496
0.070651
0.006752
0.019455
0.082338
0.113794
0.044791
0.084237
0.060763
-0.005553
-0.021261
0.105875
0.126533
0.036715
0.062579
0.110444
0.040998
0.083189
0.051844
0.000260
0.080764
0.062092
0.012560
0.074090
0.044900
0.010420
0.041500
0.112184
0.140646
0.073271
0.082980
0.075857
0.056396
0.046369
-0.005626
0.047475
0.006673
0.105274
-0.010876
0.062117
0.061131
0.065359
0.008138
0.051540
0.061399
0.078910
0.027912
0.045043
0.064960
0.053708
0.069834
0.065215
0.088914
0.035009
0.064919
0.073160
0.102049
0.102457
0.060475
0.034908
0.041173
0.088814
-0.055255
0.014968
0.006092
0.012159
0.019433
0.110279
0.064420
0.028713
0.106704
0.052149
0.097363
0.105989
0.114291
0.123123
0.134562
0.180521
0.062665
0.135116
0.054577
0.175608
0.158591
0.177342
0.171365
0.228864
0.205171
0.261921
0.213616
0.215989
0.155949
0.173625
0.212354
0.088428
0.175889
0.108408
0.245524
0.129433
0.152166
0.168928
0.143640
0.215575
-0.005880
0.152556
0.017348
0.051011
0.084446
0.082239
0.067287
0.043534
0.074752
0.051047
0.035756
0.087653
0.029105
0.012042
-0.023493
0.092208
0.073049
0.015346
0.004682
0.009589
0.026224
-0.012350
0.021091
-0.045950
-0.041986
0.055214
0.008316
0.117374
0.041871
0.071008
0.056845
-0.014381
-0.114181
-0.085767
-0.009900
0.164984
0.254851
0.495115
0.830753
1.125771
1.392744
1.363808
1.346245
1.080491
0.805073
0.491506
0.162200
-0.063434
-0.215530
-0.262199
-0.329285
-0.245867
-0.137761
-0.114724
0.017880
-0.041517
0.066161
0.014774
0.001725
-0.024901
0.085228
0.023991
0.065362
0.039596
0.033802
0.014400
-0.006657
0.041188
0.026911
0.017240
0.066058
-0.043112
0.054834
0.088080
0.129222
0.001287
0.072917
0.068285
0.050276
0.088695
0.082455
0.073108
0.107992
0.110064
0.091807
0.140749
0.157637
0.154839
0.190210
0.175211
0.192981
0.200489
0.232986
0.213917
0.301826
0.278377
0.330458
0.333651
0.390347
0.399142
0.378613
0.407751
0.388587
0.479077
0.409178
0.498060
0.363018
0.504709
0.461105
0.486278
0.501970
0.424248
0.479453
0.564694
0.416835
0.452746
0.483978
0.430024
0.371388
0.454982
0.371574
0.397792
0.327218
0.385473
0.367758
0.273110
0.355289
0.212868
0.272875
0.174656
0.214336
0.141238
0.134800
0.123755
0.170277
0.157546
0.097462
0.099317
0.039421
0.093370
0.043368
0.064475
-0.009301
0.023349
-0.023885
0.024234
-0.053616
0.033106
0.035046
-0.059335
-0.027997
0.021903
-0.029685
0.005871
-0.000373
0.037952
0.045271
-0.014297
-0.040535
-0.002831
-0.012169
0.045001
-0.089110
-0.051827
0.047395
-0.058467
-0.065045
-0.067572
0.008505
-0.001673
-0.043146
-0.107585
-0.034203
-0.021861
-0.047860
-0.113389
-0.027953
-0.084244
0.001207
-0.114112
-0.089794
-0.035806
-0.086004
-0.087906
-0.030707
-0.048326
-0.066645
-0.103215
0.049466
0.038006
-0.022665
-0.070832
-0.055780
-0.038470
-0.008543
-0.023538
-0.069432
-0.090967
-0.091131
-0.078451
-0.046222
0.048875
-0.099617
-0.063262
-0.113968
-0.070927
-0.036054
-0.052158
-0.068997
-0.119025
-0.115275
-0.105303
0.027203
-0.035771
-0.007703
-0.126651
-0.087983
-0.074253
-0.045619
-0.068586
-0.040507
-0.019738
-0.029005
-0.106448
-0.097077
-0.056321
-0.113860
-0.058046
-0.023978
-0.140606
-0.144951
-0.109140
-0.075113
-0.081069
-0.028612
-0.057783
-0.053646
-0.039359
-0.025590
-0.078752
-0.075588
-0.117773
-0.081614
-0.034722
0.056899
-0.148631
-0.043509
-0.008137
0.056158
-0.000070
-0.054295
0.032555
-0.003854
0.033770
0.020209
0.035968
0.084237
0.072756
0.056433
0.099160
0.132684
0.072030
0.120423
0.092442
0.064199
0.152277
0.054762
0.002017
0.069579
0.030120
-0.023915
0.058066
0.041432
-0.014480
-0.036034
-0.059554
-0.058322
-0.074907
-0.070278
-0.043963
0.009978
-0.023746
-0.063615
-0.099306
-0.083701
-0.056019
-0.101450
-0.083706
-0.184986
-0.049471
-0.137031
-0.083430
-0.121318
-0.077755
-0.109727
-0.107182
-0.036348
-0.146260
-0.027755
-0.088729
-0.137324
-0.113694
-0.101737
-0.114248
-0.104556
-0.152540
-0.060745
-0.125048
-0.050574
-0.145107
-0.122354
-0.197097
-0.158779
-0.035151
0.194961
0.430399
0.820419
1.146470
1.235253
1.332096
1.143146
0.881625
0.590836
0.282753
-0.040902
-0.258658
-0.391969
-0.387461
-0.333454
-0.347658
-0.251506
-0.089492
-0.145444
-0.133612
-0.010339
-0.137758
-0.145248
-0.024340
-0.098912
-0.155841
-0.030735
-0.097214
-0.095112
-0.012571
-0.027693
-0.111594
-0.001992
-0.078710
-0.112499
-0.076943
-0.104277
-0.081675
-0.080756
-0.026141
-0.023890
-0.118455
-0.019262
-0.037801
0.041156
-0.019541
-0.032834
-0.054192
-0.028566
0.021648
0.079001
-0.014828
0.072413
0.092158
0.075245
0.155792
0.154698
0.153108
0.136434
0.279658
0.305397
0.272756
0.338020
0.312867
0.308239
0.414639
0.362095
0.311546
0.397627
0.258837
0.303511
0.431628
0.355452
0.324515
0.391386
0.552124
0.430308
0.390259
0.384801
0.472680
0.363319
0.396162
0.308384
0.319408
0.266947
0.255981
0.295833
0.271094
0.254225
0.207101
0.173655
0.152410
0.150944
0.199318
0.115506
0.063607
0.102935
0.095416
0.124358
0.037245
0.028555
0.004249
0.086316
-0.077367
-0.036365
-0.041793
-0.051729
-0.043630
-0.000112
-0.015297
-0.052369
-0.084189
-0.048423
-0.087711
-0.015066
-0.085507
-0.044425
-0.036960
-0.029839
-0.080338
-0.048540
-0.061498
-0.063645
-0.041310
-0.090743
-0.067519
-0.056701
-0.064660
-0.018559
-0.001857
-0.090506
-0.093066
-0.109093
-0.050175
-0.125429
-0.153251
-0.093491
-0.101093
-0.036759
-0.124322
-0.046954
-0.031648
-0.023858
-0.044012
-0.125386
0.002301
-0.065453
-0.036927
-0.071499
-0.055050
-0.118110
-0.003290
-0.016794
-0.031614
-0.009553
-0.100587
-0.037874
-0.093832
-0.013568
-0.138620
0.041228
-0.030082
-0.084752
-0.070018
-0.022326
-0.009868
-0.013931
-0.046065
-0.027953
0.034980
-0.116008
-0.055851
-0.123340
-0.048114
-0.005894
0.029089
-0.034976
-0.024729
-0.086895
-0.063835
0.001139
-0.103495
-0.003326
-0.071961
-0.066888
0.004620
-0.036907
-0.032224
0.058941
-0.055662
0.012977
-0.005415
0.004776
-0.036317
0.013795
-0.069999
-0.010257
-0.041789
0.027256
-0.068294
-0.073125
-0.001022
-0.051067
0.038832
0.010645
-0.085827
-0.015426
-0.003360
0.062375
0.031302
-0.006089
0.029075
0.030458
0.068508
0.004942
0.009548
0.137732
0.148884
0.098356
0.174386
0.180052
0.151072
0.108188
0.104616
0.183307
0.137971
0.143880
0.255170
0.150092
0.082044
0.081120
0.220361
0.110366
0.133943
0.160423
0.163270
0.159817
0.089855
0.185540
0.050860
0.002653
0.072948
0.041264
0.038611
0.081181
0.032770
-0.049223
-0.022538
0.003251
0.083371
0.037508
0.029684
0.099278
-0.020825
-0.019640
0.051231
0.041331
0.053578
-0.027606
0.009992
0.027688
0.019761
0.041193
-0.027212
0.003104
0.100370
-0.062885
0.076535
0.056844
0.025450
0.098092
0.090456
-0.036835
0.010154
-0.068220
-0.148888
0.009908
0.116323
0.312244
0.601483
0.927808
1.244150
1.430643
1.331687
1.315785
0.977711
0.663143
0.366202
0.117590
-0.091358
-0.286580
-0.275112
-0.288298
-0.104492
-0.130901
-0.100732
-0.064016
0.041303
0.072308
-0.031661
0.050234
0.047691
-0.001956
-0.091022
-0.011260
0.034596
-0.057128
-0.010590
0.097864
0.030970
0.020938
0.040195
0.031800
0.054548
0.041522
0.009951
0.063424
0.048362
0.056632
0.113741
0.138388
0.099220
0.106176
0.129258
0.149041
0.209353
0.200466
0.131786
0.180041
0.239245
0.155207
0.211186
0.212390
0.294135
0.323611
0.347719
0.239391
0.401833
0.319737
0.444376
0.381083
0.417768
0.460989
0.476393
0.543992
0.536437
0.617097
0.586284
0.589189
0.511030
0.585078
0.540258
0.527964
0.598959
0.594020
0.568459
0.562597
0.625939
0.510485
0.456838
0.460748
0.391746
0.424138
0.466055
0.447515
0.347553
0.333440
0.288573
0.332247
0.314791
0.302139
0.262319
0.301685
0.211582
0.246269
0.261184
0.190283
0.152892
0.254926
0.128503
0.162975
0.217271
0.175526
0.111994
0.121180
0.125379
0.150899
0.037587
0.117785
-0.005484
0.178724
0.062899
0.136812
0.066134
0.073898
0.061658
0.102413
0.028492
0.141828
0.018126
0.019859
0.207239
0.026898
-0.016032
0.056180
0.105001
0.002173
0.097307
0.097866
0.135296
0.019105
0.055333
0.125827
0.083837
0.056884
0.064543
0.044062
0.117819
0.143457
0.069675
0.030291
0.053672
0.103285
0.118558
0.073621
0.113510
0.022740
0.007889
0.062961
-0.001409
0.037118
0.017826
0.109699
0.100119
0.064065
0.073546
-0.017512
0.128467
0.030273
0.134356
0.070163
0.067780
0.108253
0.094715
0.095749
0.065796
0.076325
0.049914
0.063001
