-0.012927
-0.026067
0.013289
0.022659
0.020066
-0.029104
0.006872
0.050326
-0.083068
-0.046971
0.029778
0.052940
-0.071421
-0.013550
0.005357
-0.063250
-0.041405
-0.016834
-0.059729
-0.005696
0.192749
0.108355
0.051229
-0.008457
-0.007556
0.036905
0.060162
0.038472
0.059826
0.060868
0.112451
0.170817
0.209968
0.048665
0.203516
0.205388
0.226571
0.205619
0.191364
0.280671
0.143688
0.145872
0.235865
0.188482
0.156089
0.165273
0.133932
0.114805
0.186234
0.217905
0.103641
0.083629
0.120071
0.178537
0.098434
0.076815
0.112162
0.116664
0.043852
0.102423
0.063295
0.010429
0.080241
0.015743
0.095617
0.034513
0.057191
0.045035
0.017248
-0.075046
-0.004999
-0.014288
-0.023931
0.014378
0.244888
0.430419
0.646191
1.093630
1.227158
1.427647
1.324663
1.103989
0.768174
0.423371
0.101765
-0.127249
-0.240751
-0.153763
-0.067727
-0.006179
-0.028800
0.071367
0.063016
0.171226
0.114458
0.108074
0.161943
0.205164
0.171934
0.118816
0.157193
0.184245
0.140201
0.246825
0.116683
0.191084
0.181264
0.238556
0.249536
0.284141
0.334198
0.293622
0.362696
0.282638
0.401521
0.440233
0.445071
0.472921
0.483126
0.444583
0.439153
0.487116
0.537671
0.478474
0.510972
0.515276
0.576039
0.615774
0.531220
0.516321
0.577512
0.466249
0.578460
0.495840
0.504377
0.484574
0.490525
0.574951
0.491937
0.469025
0.467420
0.376687
0.456666
0.415029
0.292720
0.278899
0.300902
0.310900
0.350904
0.336868
0.255118
0.216408
0.268647
0.253237
0.264817
0.189137
0.129321
0.097224
0.170285
0.120055
0.112140
0.088181
0.079728
0.120807
0.103305
0.116409
0.080750
0.115176
0.179462
0.073603
0.094133
0.149129
0.075410
0.103438
0.078029
0.021925
0.122970
0.126917
0.069823
0.100649
0.107145
0.097718
0.150224
0.148953
0.129398
-0.019481
0.104637
0.158063
0.018443
0.064275
0.067880
0.068372
0.075298
0.080759
0.058058
0.143317
0.066143
0.097472
0.100455
0.021276
0.062510
0.126760
0.039732
0.131482
0.062524
0.114057
0.081221
0.116697
0.030437
0.062031
0.055067
0.189814
0.139397
0.131401
0.111506
0.078500
0.122637
0.158337
0.148439
0.141459
0.150702
0.076431
0.072333
0.165108
0.169238
0.074615
0.143630
0.143370
0.278108
0.310726
0.197446
0.165895
0.243723
0.190839
0.261507
0.171624
0.266102
0.253681
0.288442
0.276895
0.208498
0.336077
0.204660
0.210088
0.236228
0.204260
0.221906
0.216223
0.135665
0.121817
0.071813
0.078993
0.152292
0.108350
0.090487
0.100687
0.138138
0.090136
0.113980
0.091183
0.099974
0.134412
0.027526
0.144737
0.009307
0.003309
0.125604
0.004965
0.117933
0.072991
0.083415
0.158975
0.457215
0.594340
1.073252
1.243863
1.488879
1.469619
1.183473
0.950094
0.542093
0.201777
-0.033083
-0.272395
-0.162288
-0.181411
-0.052885
0.009104
-0.031962
0.092488
0.080879
0.098270
0.031349
0.040445
0.194506
0.195213
0.203045
0.194581
0.223162
0.247602
0.093753
0.130066
0.240511
0.259214
0.246113
0.268645
0.316126
0.229845
0.292145
0.294393
0.404207
0.360103
0.411937
0.404257
0.460494
0.551080
0.485080
0.416039
0.436441
0.457499
0.568257
0.526222
0.522872
0.535934
0.581382
0.556030
0.592110
0.576922
0.560832
0.573495
0.530593
0.542112
0.505828
0.467802
0.430078
0.456468
0.482902
0.367581
0.444837
0.404236
0.448282
0.339581
0.350070
0.253252
0.312001
0.292527
0.345747
0.225321
0.183233
0.199940
0.177231
0.159770
0.116188
0.121674
0.166162
0.095489
0.100537
0.127355
0.078155
0.016344
0.134633
0.009627
0.016882
0.075935
0.008158
-0.004485
0.007743
0.061193
0.042105
0.020248
0.126362
0.059441
0.022248
-0.011375
0.036957
0.047025
-0.042500
0.076314
0.030849
0.032457
0.055908
0.022249
-0.031511
0.073626
0.074421
-0.016452
0.015556
-0.044159
0.097561
0.005679
0.043680
-0.000482
0.037511
0.031119
0.080463
-0.037494
-0.043774
0.029995
0.000706
-0.004198
-0.018569
0.020502
-0.022028
-0.035079
0.005786
-0.104120
-0.036705
0.020108
0.044369
0.001438
-0.009085
-0.025446
0.027790
0.002688
-0.036898
0.078343
0.100400
0.109451
0.085279
0.052975
0.074350
0.030099
-0.014241
0.047590
-0.021014
0.104747
0.121703
0.207830
0.133284
0.071700
0.132308
0.158141
0.196511
0.183529
0.203289
0.173142
0.181467
0.112580
0.158105
0.170597
0.167259
0.087621
0.164738
0.144357
0.094944
0.063003
0.078309
0.042850
0.071106
0.011902
-0.004705
-0.041451
0.074415
0.001189
0.044746
-0.106195
0.013772
-0.020957
-0.025445
0.124680
-0.146629
0.079738
0.018108
-0.103362
0.015577
0.000636
-0.028065
-0.049203
-0.011497
0.157226
0.424147
0.826559
1.057705
1.313987
1.418232
1.210249
0.929559
0.570034
0.228805
-0.083637
-0.171367
-0.237645
-0.230680
-0.196337
-0.031496
-0.043174
-0.012552
-0.010315
-0.009139
-0.052329
-0.005021
0.066362
-0.003060
0.029553
-0.006284
0.068605
0.074065
0.088701
0.084408
0.061337
0.154738
0.144972
0.158280
0.247166
0.083648
0.205270
0.308394
0.284626
0.268608
0.284824
0.267057
0.313539
0.447085
0.353497
0.387029
0.378723
0.380104
0.497129
0.414055
0.553464
0.394544
0.427853
0.481076
0.504254
0.450129
0.467722
0.475908
0.463261
0.416933
0.471715
0.422610
0.339944
0.378851
0.399407
0.324101
0.298045
0.363955
0.357065
0.315277
0.242664
0.232418
0.244945
0.170648
0.082360
0.239561
0.104941
0.118132
0.091730
0.097111
0.054099
0.125222
0.010466
0.009544
0.048406
-0.013542
0.047042
-0.103763
0.059612
0.013723
-0.071187
0.019864
-0.017204
-0.035940
0.046838
-0.082712
-0.069576
-0.086378
-0.093013
0.011073
-0.114215
-0.038882
-0.139987
-0.006567
-0.084778
-0.085991
0.008427
-0.014602
-0.050129
-0.101927
-0.027898
-0.001148
-0.114304
-0.010721
-0.013919
0.032577
-0.083668
-0.038886
-0.038644
-0.094870
-0.068861
-0.036341
-0.050204
-0.047439
-0.005346
-0.027506
-0.101560
-0.056559
0.040461
-0.008635
-0.067744
-0.064871
-0.078194
-0.011660
-0.003222
-0.033202
-0.049390
-0.004809
-0.079270
-0.006188
-0.026492
0.007416
-0.093271
0.023722
0.005284
-0.013643
0.010093
-0.048599
0.025055
0.100609
0.086283
0.048481
0.037053
0.024736
0.135909
0.038103
0.093033
0.121252
0.056005
0.176260
0.150038
0.132367
0.077828
0.140243
0.139608
0.178542
0.219916
0.083471
0.101757
0.108098
0.074165
0.095654
0.041312
0.098281
0.108572
0.058876
0.016951
0.024100
-0.019484
0.010360
0.024402
0.036550
-0.029442
-0.046715
0.041825
-0.000941
0.103740
-0.011577
0.049584
0.050626
-0.028149
-0.068507
-0.007757
-0.001652
-0.008078
-0.078850
-0.011650
0.086622
0.391688
0.589413
0.990332
1.178030
1.340424
1.233914
1.014778
0.690325
0.314830
0.105665
-0.226313
-0.203355
-0.186035
-0.096226
-0.100360
-0.024108
0.063251
0.009837
0.012174
0.029139
0.051682
0.066331
0.090438
0.034732
0.058627
0.155109
-0.003266
0.039872
0.122701
0.172955
0.158423
0.222922
0.160003
0.161883
0.202762
0.253236
0.273517
0.224796
0.209696
0.333958
0.410725
0.363144
0.428321
0.393677
0.378567
0.500912
0.450254
0.419627
0.442831
0.557972
0.448398
0.454281
0.472842
0.504945
0.484623
0.582503
0.530304
0.428337
0.405757
0.546024
0.403118
0.365513
0.433920
0.443694
0.342615
0.405310
0.336212
0.353532
0.362919
0.338645
0.269753
0.274034
0.272841
0.295085
0.218432
0.274637
0.145277
0.207770
0.171190
0.233258
0.113568
0.045408
0.118161
0.064128
0.113897
0.014447
0.059261
0.058046
0.082443
0.090888
0.031566
0.027756
0.023971
0.063930
0.059215
0.012444
0.023258
0.070227
0.004878
-0.013745
0.049568
-0.003765
0.035012
0.024466
-0.049569
0.035949
0.073777
-0.033214
-0.019127
0.000227
-0.003604
-0.004174
0.015859
0.082190
0.039599
-0.010281
0.045053
0.057464
0.026137
0.041827
0.028208
0.055647
-0.004144
-0.026070
0.030872
0.031989
-0.011667
0.014911
0.043191
0.112162
0.033728
0.079302
0.109707
0.099752
0.043520
0.106317
0.089475
0.103091
0.057882
0.114248
0.082700
0.108691
0.049460
0.041594
0.156265
0.076800
0.122089
0.199172
0.141677
0.173485
0.186253
0.158020
0.221745
0.210120
0.228724
0.234591
0.175611
0.252801
0.155487
0.280201
0.252144
0.181817
0.247536
0.227840
0.281949
0.256512
0.203218
0.239444
0.181288
0.262283
0.173715
0.232073
0.121592
0.058755
0.140860
0.181682
0.113976
0.113180
0.073831
0.093944
0.075114
0.095629
0.170699
0.073081
0.033468
0.002830
0.149358
0.140885
0.100172
0.140730
0.021071
0.038035
0.093601
0.122369
0.164414
0.079029
0.250552
0.368934
0.646364
0.972808
1.234093
1.393582
1.446536
1.303993
0.899642
0.632903
0.276758
0.004378
-0.113663
-0.099840
-0.079404
-0.037031
-0.028532
0.169866
0.032739
0.119497
0.199557
0.117238
0.164573
0.189470
0.206326
0.031988
0.102591
0.193506
0.224548
0.205395
0.169586
0.237918
0.315555
0.293836
0.333982
0.350139
0.329428
0.325597
0.340894
0.379815
0.444197
0.396570
0.496280
0.586392
0.488439
0.482023
0.505005
0.587587
0.576865
0.643760
0.556675
0.624199
0.575871
0.576181
0.543628
0.624952
0.631390
0.614383
0.694587
0.624716
0.588518
0.559229
0.558744
0.574864
0.555775
0.342163
0.380986
0.484835
0.506462
0.400838
0.413118
0.331539
0.329761
0.393840
0.328017
0.325167
0.256107
0.313845
0.245376
0.267162
0.220679
0.188152
0.232928
0.134235
0.231491
0.224807
0.128592
0.118133
0.101253
0.127717
0.148991
0.138994
0.089489
0.021347
0.144932
0.125681
0.165215
0.147452
0.060332
0.096410
0.097930
0.036268
0.103294
0.124305
0.145901
0.109692
0.033439
0.126701
0.132610
0.128527
0.029038
0.087604
0.111130
0.150852
0.053559
0.105794
0.212027
0.134649
0.110268
0.132448
0.113303
0.101235
0.064576
0.029682
0.142919
0.090898
0.066016
0.097892
0.099230
0.115536
0.120927
0.058446
0.053882
0.070155
0.053510
0.125448
0.048172
0.083308
0.035723
-0.020529
0.106968
0.168739
0.090790
0.124589
0.138251
0.122835
0.041621
0.138145
0.151825
0.139506
0.135245
0.152528
0.109761
0.155558
0.250313
0.170430
0.236081
0.195033
0.241753
0.246995
0.229772
0.245377
0.240460
0.249051
0.131810
0.340025
0.188714
0.264289
0.153977
0.152210
0.212975
0.207484
0.196021
0.137310
0.097320
0.158308
0.158120
0.117552
0.087229
0.163392
0.074157
0.110358
0.175068
0.135717
0.122749
0.034218
0.145496
0.027134
0.052537
0.052869
0.002411
-0.008056
0.121428
0.061831
0.074455
0.070204
0.132050
0.169442
0.238327
0.502547
0.832183
1.018138
1.292191
1.500000
1.319915
1.008476
0.650026
0.310984
-0.010662
-0.172153
-0.193056
-0.147215
-0.097380
0.027359
0.035830
-0.005845
0.004174
-0.000769
0.063626
0.059391
0.143847
0.123776
0.106704
0.172144
0.065385
0.153857
0.224593
0.191100
0.128348
0.274892
0.182382
0.213202
0.236764
0.283123
0.285262
0.292720
0.286610
0.271843
0.346221
0.436328
0.405027
0.356912
0.417715
0.504236
0.496558
0.499712
0.484890
0.459823
0.544496
0.526722
0.507563
0.507239
0.528279
0.513351
0.496674
0.455902
0.648193
0.423073
0.537421
0.539828
0.479550
0.491242
0.412366
0.375921
0.326336
0.342579
0.318370
0.337303
0.300600
0.347378
0.282497
0.233622
0.137189
0.207337
0.186830
0.119817
0.074020
0.095031
0.172549
0.093012
0.085567
-0.016028
0.069370
0.106621
0.101929
0.081304
0.048309
0.032265
-0.047817
0.039671
0.091698
0.027208
0.021774
-0.003002
0.049250
0.004742
0.018421
0.019060
-0.060537
0.027106
-0.033536
-0.075733
-0.029831
-0.006857
-0.061619
0.043936
-0.016140
-0.046852
-0.075989
-0.036686
0.023602
-0.033291
-0.002842
-0.038958
-0.093215
-0.053597
-0.043328
0.075672
0.052061
-0.001395
-0.069822
-0.127548
-0.067198
-0.041985
0.062683
-0.078389
-0.060825
-0.045762
-0.050838
0.039480
-0.047185
-0.011001
0.028882
-0.025183
-0.046233
0.030400
-0.042404
-0.054441
-0.050362
-0.008874
0.042679
-0.030859
-0.008731
0.042662
-0.010763
0.071398
0.056922
0.062221
0.038218
0.013366
0.058650
0.034370
0.076714
0.074965
0.156323
0.118759
0.205928
0.097030
0.137555
0.120973
0.136495
0.108149
0.228997
0.099254
0.049798
0.145882
0.123097
0.170175
0.070089
0.147943
0.130366
0.015617
0.030830
0.015123
0.139804
0.066285
-0.011214
0.002917
0.004845
-0.015576
-0.106359
-0.071289
-0.128244
-0.113773
-0.008114
-0.066630
-0.055739
0.006298
-0.054646
0.011269
-0.062843
-0.046918
-0.117520
-0.101576
0.012796
0.087824
0.317092
0.625050
0.947449
1.161612
1.366014
1.310266
1.024732
0.634095
0.293920
0.043751
-0.194842
-0.329714
-0.230249
-0.209937
-0.150615
-0.064534
-0.088085
-0.056114
-0.046711
-0.002452
-0.005330
-0.089594
0.008290
0.030095
-0.026766
0.092338
0.007337
0.020389
0.003844
0.040354
0.112449
0.094416
-0.017560
0.117641
0.098614
0.193370
0.231097
0.203764
0.244286
0.166447
0.280765
0.256622
0.357957
0.358421
0.343079
0.384355
0.391836
0.369917
0.369467
0.480679
0.368331
0.480922
0.423836
0.439300
0.418285
0.399443
0.460178
0.462871
0.414370
0.390424
0.331507
0.298576
0.339448
0.394175
0.446700
0.296346
0.262891
0.156975
0.233806
0.276541
0.159122
0.103629
0.202021
0.090990
0.115750
0.117128
0.050643
0.067885
-0.010236
-0.029714
0.098008
0.064780
0.018848
-0.007386
-0.044171
-0.008919
-0.031361
-0.035743
-0.057932
-0.085190
-0.050828
-0.071841
-0.101843
-0.053423
-0.065657
-0.156089
-0.075036
0.028862
-0.149648
-0.103253
-0.136076
-0.041575
-0.090442
-0.074845
-0.106930
-0.122618
-0.113033
-0.092345
-0.030453
-0.156045
-0.058713
-0.007512
-0.010052
-0.064496
-0.112878
-0.034297
0.006930
-0.030520
-0.133417
-0.104507
-0.103654
-0.021959
-0.133430
0.015534
-0.006314
-0.104010
-0.100955
-0.074302
-0.113247
-0.036393
-0.054319
-0.049483
0.029111
-0.029909
-0.130561
-0.051861
0.015058
-0.089240
-0.080747
-0.077821
-0.078217
-0.012042
-0.049576
-0.090945
-0.063352
-0.045244
-0.067286
0.019694
-0.047675
0.050330
0.068657
-0.004969
-0.000208
0.093845
0.149464
0.125214
0.080964
0.116648
0.186842
0.069071
0.070208
0.170476
0.141978
0.099732
0.135604
0.077789
0.034528
0.062174
0.091394
0.106973
0.076242
0.090882
0.048660
0.061121
0.022162
0.020226
-0.015888
-0.006495
-0.071172
0.052587
0.034418
-0.011139
-0.087769
-0.010091
-0.012708
0.079891
-0.006241
-0.050390
-0.074992
-0.048143
-0.071297
0.013585
-0.013216
-0.103132
-0.096615
-0.023942
0.115017
0.202997
0.472170
0.706184
1.081678
1.252346
1.203378
1.129457
0.764243
0.450284
0.120098
-0.117866
-0.349971
-0.238165
-0.183302
-0.207704
-0.117691
-0.034688
-0.007533
-0.076912
0.031516
-0.018180
0.019086
-0.073381
0.076741
-0.027141
0.032131
0.128779
0.061662
0.066923
0.100924
0.118240
0.163104
0.058268
0.093060
0.223807
0.210950
0.205919
0.200724
0.322748
0.279306
0.393643
0.322769
0.316374
0.325678
0.425263
0.441793
0.380275
0.484093
0.496877
0.430101
0.471436
0.533079
0.517921
0.535046
0.434772
0.461923
0.476239
0.494258
0.468310
0.471417
0.459287
0.472370
0.444300
0.376436
0.428391
0.400941
0.390530
0.304913
0.238997
0.318842
0.246795
0.191278
0.206733
0.252290
0.230852
0.238976
0.192976
0.137401
0.153908
0.111555
0.045505
0.145999
0.064978
0.149882
0.107045
-0.005943
0.074216
0.044807
0.037750
-0.000537
0.034237
0.102229
-0.014038
-0.041459
0.006227
0.048428
0.018155
0.017028
0.035182
0.002823
0.016971
-0.007392
0.052858
0.090195
-0.123939
0.005182
0.054868
-0.027137
0.077447
-0.028916
-0.001871
0.100744
0.027885
-0.020220
0.029989
-0.052645
-0.023759
0.046583
0.026910
-0.010514
0.033644
0.002459
0.021972
0.078618
0.030289
0.061919
0.050811
0.043729
-0.010359
0.037713
-0.000042
0.060736
0.018353
0.072610
0.039027
0.109135
0.057102
0.008648
-0.045157
0.041794
0.055840
0.075051
0.058322
0.066601
0.064073
0.142893
0.050969
0.005111
0.092672
0.126005
0.218213
0.102953
0.171126
0.135748
0.132100
0.210372
0.286034
0.121553
0.142939
0.184339
0.204615
0.200473
0.254743
0.180336
0.188382
0.232969
0.188284
0.205527
0.167532
0.238620
0.185272
0.168294
0.144308
0.116533
0.116370
0.067150
0.086741
0.060500
0.087840
0.060171
-0.009905
0.090885
0.126481
0.137582
0.099523
0.068781
0.012506
0.024077
0.134134
0.069126
0.076971
0.071468
0.015303
0.128747
-0.011889
0.086364
0.063840
0.268260
0.537446
0.852571
0.981988
1.330281
1.390301
1.329149
1.099494
0.747889
0.345242
-0.019964
-0.104343
-0.218192
-0.110579
-0.073332
-0.071409
0.167931
0.082391
0.063074
0.089904
0.030367
0.083875
0.096591
0.121264
0.031959
0.131062
0.189818
0.058628
0.132855
0.211591
0.133902
0.326253
0.212114
0.287516
0.252480
0.208833
0.273376
0.307334
0.327577
0.305885
0.380162
0.368887
0.347931
0.404961
0.462752
0.498018
0.445739
0.524695
0.503615
0.612636
0.514251
0.554932
0.587582
0.577939
0.571629
0.554939
0.513085
0.516068
0.619354
0.482112
0.474413
0.520685
0.408945
0.461232
0.508493
0.411008
0.434771
0.328610
0.406412
0.332653
0.305268
0.312938
0.250984
0.356086
0.267277
0.317584
0.224234
0.226793
0.160433
0.116897
0.130552
0.073184
0.129531
0.209268
0.092176
0.142254
0.167736
0.128912
0.097364
0.106345
0.141248
0.115434
0.065571
0.028054
0.025769
0.054668
0.135653
0.091680
0.034181
0.049339
-0.000348
0.113647
0.032116
0.165581
-0.012377
0.083476
0.003302
0.005586
0.007369
0.018339
-0.024774
0.019467
0.068038
-0.006358
0.091605
-0.044951
-0.031675
0.031543
0.021393
0.002599
0.038204
-0.021543
0.023847
0.035697
-0.032886
0.044733
0.058704
0.083755
-0.049700
0.047777
0.070853
0.039963
0.077996
0.052136
-0.067113
0.085059
0.022159
-0.008051
0.018451
-0.006599
0.077789
0.024629
0.096505
-0.020562
0.078576
0.103879
0.016645
-0.002134
0.103772
-0.055914
0.147760
0.116651
0.119826
0.133273
0.141779
0.153638
0.205413
0.159644
0.193357
0.157392
0.160032
0.181397
0.232373
0.163691
0.221282
0.244139
0.198316
0.232606
0.179998
0.146012
0.181069
0.094817
0.082599
0.046294
0.001734
0.060896
0.056662
0.081304
-0.044680
0.059969
-0.020919
-0.012163
0.038068
0.031473
0.104755
0.020391
-0.042224
0.030729
0.057690
0.055502
0.020430
0.098662
0.022520
0.023130
-0.107588
-0.059836
0.085011
0.205125
0.364465
0.605661
0.907049
1.197355
1.363288
1.362256
1.106338
0.841102
0.449888
0.084104
-0.154533
-0.191400
-0.267348
-0.255664
-0.071821
0.021278
-0.025229
-0.035063
-0.065247
0.053601
-0.041344
0.006758
0.000809
0.066371
0.021670
-0.003447
0.000033
0.005246
0.103555
0.153299
0.095058
0.170607
0.190250
0.178384
0.167425
0.195913
0.209443
0.247919
0.246525
0.317470
0.362592
0.312576
0.378543
0.435247
0.395825
0.440882
0.441157
0.398372
0.465280
0.478834
0.459369
0.434176
0.472762
0.486868
0.450117
0.439323
0.528352
0.507524
0.414760
0.466546
0.370043
0.420768
0.371994
0.376558
0.408644
0.401637
0.310243
0.248802
0.200571
0.319624
0.251693
0.251027
0.199364
0.159428
0.166928
0.133946
0.080765
0.068876
0.167105
0.064680
0.048184
0.097330
-0.029673
0.022799
-0.047953
0.091948
-0.025553
-0.075718
-0.102990
-0.024009
-0.032330
-0.064189
-0.081423
0.039789
-0.031906
0.029503
-0.135856
-0.052125
-0.015885
-0.003370
-0.081015
-0.003065
-0.083820
-0.020708
-0.059408
-0.073660
-0.112290
-0.067310
-0.033091
-0.026943
-0.069704
-0.095811
-0.036604
0.080786
-0.003989
-0.107744
-0.098913
-0.070477
-0.041003
-0.089269
-0.014183
-0.092435
-0.012704
-0.109215
-0.039535
-0.104438
-0.148878
-0.059499
-0.100999
-0.109726
-0.154238
-0.059093
-0.042503
-0.082277
-0.102260
-0.089507
-0.031840
-0.115489
-0.052986
-0.081611
-0.018634
-0.019248
-0.067506
-0.087294
-0.049436
-0.054520
-0.085558
-0.064963
-0.014112
0.002132
0.032912
0.041253
0.006357
-0.004533
0.012359
0.141825
0.077160
0.089137
0.112421
0.040998
0.039419
0.134169
0.108017
0.123108
0.041337
0.081559
-0.021059
0.060888
0.141743
0.077218
0.067350
0.034667
0.016014
-0.049752
-0.008812
-0.008923
-0.004846
0.006691
-0.085482
-0.035742
-0.090066
-0.065332
-0.055092
0.081198
0.016779
-0.091868
-0.062214
-0.033915
-0.065821
-0.101000
-0.082213
-0.114234
-0.100037
-0.107398
-0.137418
-0.149320
-0.036634
0.065497
0.380353
0.727542
1.123643
1.190776
1.300324
1.065520
0.877339
0.428587
0.122186
-0.193797
-0.324395
-0.357691
-0.355722
-0.246631
-0.201974
-0.138706
-0.127619
-0.056806
-0.051937
-0.085224
0.008078
-0.093094
-0.108134
-0.069405
-0.021248
0.046332
0.001799
0.018048
0.010901
0.109184
0.061845
0.121222
0.109394
0.124127
0.234811
0.118881
0.184810
0.145158
0.228893
0.175848
0.297738
0.281021
0.269788
0.309058
0.429767
0.271031
0.386727
0.465354
0.356877
0.308755
0.375963
0.359382
0.460109
0.417371
0.478697
0.430777
0.440121
0.292212
0.363463
0.362896
0.410871
0.346407
0.256353
0.330638
0.241392
0.311330
0.267976
0.213250
0.246019
0.206281
0.129547
0.156521
0.198014
0.196695
0.030550
0.021748
0.078738
0.010680
0.029890
-0.027795
0.049282
0.004099
-0.038100
-0.026358
-0.064678
-0.026660
-0.048853
-0.032820
-0.016870
-0.114539
0.015731
0.000888
-0.031406
-0.040590
-0.018581
-0.028141
-0.139412
-0.040824
-0.062878
-0.087163
-0.107047
-0.110003
-0.071304
-0.110374
-0.044382
-0.127304
-0.072628
-0.062340
-0.085342
-0.029952
-0.120160
-0.095070
-0.050843
-0.062086
-0.026065
-0.132657
-0.055624
-0.157164
-0.040549
-0.024721
-0.003115
-0.025693
-0.104829
-0.128041
-0.061987
-0.066029
-0.043439
-0.095570
-0.087260
-0.173697
-0.123553
-0.045221
-0.094139
-0.075156
-0.130954
-0.139852
-0.135936
-0.075815
-0.003946
-0.087035
-0.013213
-0.076185
-0.010048
-0.060135
-0.040871
-0.014296
-0.051803
0.043756
0.005513
-0.006711
0.051992
0.023275
0.047316
0.038208
0.075466
0.080214
0.034612
0.169205
0.061233
0.099386
0.068735
0.115686
0.132486
0.126971
0.144804
0.102853
0.164839
0.131741
0.057769
0.143390
0.065417
0.079852
0.012308
0.080465
-0.063197
-0.004752
-0.006026
-0.057345
-0.036533
0.058082
0.074413
-0.013953
-0.029117
-0.070236
-0.103704
-0.044584
0.018688
-0.052758
-0.081093
-0.047901
-0.064985
0.058992
-0.005507
-0.058492
0.013128
0.006538
0.141703
0.306870
0.558273
1.012131
1.189950
1.409323
1.270045
1.075393
0.632388
0.313187
0.061349
-0.174492
-0.254111
-0.334159
-0.191282
-0.094155
0.016677
0.020427
-0.053656
-0.008232
0.034130
0.041764
-0.023171
0.039480
0.081357
0.108663
0.059601
-0.008262
0.101775
0.107522
0.139425
0.181001
0.086834
0.195277
0.220985
0.185422
0.235649
0.271055
0.346522
0.321841
0.251738
0.223531
0.407288
0.403698
0.280096
0.349815
0.473765
0.443128
0.511195
0.357242
0.499111
0.454008
0.530255
0.440545
0.508968
0.488096
0.516115
0.570476
0.563243
0.443433
0.431361
0.437530
0.347540
0.514349
0.504561
0.431469
0.398268
0.337895
0.300872
0.307788
0.292216
0.298411
0.253296
0.285020
0.225764
0.153846
0.195222
0.124775
0.147989
0.170427
0.145506
0.112671
0.111961
0.151983
0.060575
0.087926
0.079594
0.078790
0.024809
-0.043260
0.003967
-0.006661
0.004812
0.137282
0.015453
0.054417
0.028071
0.050358
0.102736
0.043610
0.019651
-0.004823
0.020947
0.116136
0.038856
0.036203
-0.040289
-0.010884
0.083638
-0.005327
0.030813
0.092725
0.044443
0.028146
0.054179
0.055476
0.039995
0.054090
0.082861
-0.006757
0.052358
0.059059
0.015731
0.006007
0.015227
0.016245
0.050540
0.060997
0.053777
0.104459
0.060904
0.103241
0.011774
0.042548
0.063737
0.113511
0.074217
-0.047908
0.067760
0.026353
-0.059884
0.045827
0.039671
0.053448
0.107620
0.138691
0.063800
0.088315
0.099397
0.138096
0.136358
0.105124
0.167415
0.206780
0.116916
0.195562
0.138261
0.234169
0.271326
0.269020
0.192102
0.238819
0.174304
0.293596
0.301740
0.189560
0.222111
0.215328
0.254243
0.147994
0.253461
0.195628
0.232665
0.116253
0.136423
0.123227
0.088397
0.129101
0.161215
0.102401
0.035672
0.128859
0.162364
0.098954
0.089693
0.070441
-0.058868
0.081021
0.028226
0.070932
0.011742
0.071710
0.028291
0.114697
0.075885
0.035435
0.017360
0.175783
0.409870
0.668741
0.877228
1.215626
1.417922
1.430779
1.239510
0.968668
0.553611
0.194489
-0.076465
-0.151526
-0.130672
-0.086544
-0.132916
-0.004621
-0.028033
0.083633
0.120128
-0.022214
0.146631
0.213234
0.141194
0.156733
0.145870
0.140542
0.173861
0.176774
0.142750
0.243139
0.166624
0.201512
0.311027
0.287745
0.204310
0.313402
0.361957
0.357678
0.428329
0.391734
0.377832
0.472029
0.458636
0.480840
0.459204
0.566203
0.598707
0.447124
0.517285
0.508117
0.525896
0.563927
0.552839
0.647443
0.575427
0.520888
0.559884
