0.033255
0.028312
-0.040219
-0.018763
0.021369
0.004777
0.055016
0.020746
-0.021692
0.060285
-0.050888
0.011920
-0.038532
0.102327
0.027856
0.005096
0.069676
0.080584
0.070841
0.140613
0.058751
0.171013
0.075336
0.217275
0.056052
0.166536
0.171841
0.216299
0.174801
0.272939
0.199928
0.208788
0.205462
0.251929
0.215543
0.158502
0.250324
0.083613
0.173499
0.141688
0.144994
0.108231
0.125705
0.123532
0.067349
0.178863
0.092804
-0.033205
0.028114
0.067673
0.085204
0.006032
0.011105
0.056201
0.105721
0.047169
0.080956
0.079056
0.350159
0.568011
0.878417
1.215086
1.400450
1.320992
1.169163
0.884602
0.450406
0.191414
0.030894
-0.014105
-0.041709
0.012213
0.013356
0.069996
0.151681
0.172593
0.193232
0.253549
0.143944
0.203539
0.221455
0.319384
0.234374
0.258713
0.200277
0.202223
0.378367
0.351777
0.487146
0.511263
0.478013
0.481684
0.439215
0.612394
0.537741
0.594667
0.477222
0.521915
0.616118
0.592960
0.604538
0.595050
0.647264
0.577998
0.499662
0.573041
0.619468
0.605535
0.557042
0.583614
0.487033
0.485860
0.474836
0.471113
0.439843
0.416482
0.334199
0.383908
0.329424
0.362437
0.343463
0.286685
0.328582
0.247470
0.274740
0.211922
0.201972
0.167778
0.193946
0.260350
0.188574
0.166870
0.128378
0.189273
0.097580
0.158465
0.117861
0.125311
0.121183
0.093919
0.079133
0.020536
0.108409
0.143634
0.143763
0.004843
0.115160
0.078023
0.080181
0.051462
0.058696
0.107229
0.123482
0.072355
-0.010282
0.177184
0.103716
0.104067
0.047478
0.086730
0.035193
0.152827
0.111775
0.142476
0.076023
0.112112
0.110950
0.052808
0.103238
0.073164
0.130632
0.084667
0.039296
0.108076
0.128566
0.205439
0.197457
0.194472
0.161000
0.276900
0.229245
0.269540
0.268502
0.246911
0.251624
0.162470
0.289642
0.337336
0.353117
0.298677
0.261368
0.193810
0.285591
0.252723
0.239346
0.302183
0.190079
0.224181
0.164402
0.300042
0.128695
0.147792
0.102154
0.127316
0.178496
0.115229
0.051705
0.118559
0.168772
0.104921
0.072798
0.132869
0.195456
0.165671
0.299800
0.560394
0.875938
1.068225
1.360874
1.373921
1.242315
1.068149
0.634724
0.229152
-0.011242
0.020311
0.029218
-0.062754
0.174669
0.121328
0.173545
0.183669
0.250258
0.233551
0.208140
0.278375
0.303644
0.202262
0.302213
0.229587
0.377834
0.352724
0.334452
0.391824
0.436829
0.453415
0.484432
0.463690
0.428799
0.526787
0.584906
0.590213
0.544050
0.589974
0.633342
0.564458
0.558471
0.629885
0.658815
0.560043
0.577305
0.599612
0.597796
0.543423
0.532250
0.472108
0.475293
0.466644
0.450089
0.427657
0.457375
0.347810
0.418594
0.452478
0.285428
0.377980
0.394162
0.270463
0.244093
0.246292
0.260194
0.239436
0.281337
0.159544
0.252569
0.227649
0.128228
0.073798
0.143661
0.140415
0.138878
0.151764
0.150095
0.019293
0.076012
0.025273
0.126762
0.006811
0.054079
0.040650
0.074143
0.137456
0.063733
0.046432
0.072372
0.073246
-0.012426
0.009888
0.085464
0.083164
0.021465
0.079428
0.084061
0.051539
0.129751
0.094773
0.019595
0.107966
0.080543
0.076948
-0.003693
0.076798
0.046518
0.137071
0.059229
0.085046
0.118126
0.125539
0.107378
0.185696
0.108735
0.107475
0.138206
0.197107
0.127531
0.186647
0.190970
0.144968
0.207510
0.165121
0.255854
0.221365
0.231878
0.177613
0.179327
0.247357
0.203720
0.151073
0.213580
0.194847
0.182343
0.150719
0.096601
0.119874
0.110119
0.134418
0.189583
0.072487
0.139970
0.106378
0.084954
0.082157
0.157674
0.081182
0.045023
-0.016578
0.038694
0.104520
0.037428
0.160579
0.280517
0.463451
0.743265
1.032234
1.253611
1.397851
1.234330
0.984195
0.638945
0.399021
0.084350
-0.091461
-0.047011
0.046023
-0.008076
0.045323
0.024651
0.096365
0.127007
0.149027
0.191424
0.201239
0.160813
0.167381
0.174503
0.273829
0.401262
0.268783
0.317996
0.342920
0.333709
0.276793
0.362908
0.407245
0.382715
0.485605
0.498605
0.430953
0.501950
0.540831
0.530014
0.534284
0.481105
0.495010
0.626663
0.500030
0.515646
0.543363
0.509413
0.439547
0.447331
0.430903
0.377682
0.532819
0.347981
0.385184
0.319499
0.398665
0.312862
0.277290
0.315162
0.276855
0.226349
0.215388
0.193527
0.119846
0.236524
0.197043
0.157801
0.062176
0.097573
0.103389
0.143223
0.096407
0.076365
0.017722
0.073609
0.035063
-0.017108
0.004474
0.101471
0.112758
0.028905
0.068482
0.006919
-0.015906
-0.022403
-0.130091
-0.009953
-0.025564
0.039716
-0.000345
-0.028867
-0.041415
0.007767
0.023758
0.029800
0.012047
-0.045230
-0.036496
-0.058251
-0.010185
0.074052
-0.024449
-0.014202
-0.059054
-0.022664
-0.035543
-0.022223
0.016544
0.006532
0.009788
-0.025306
0.098349
0.085504
-0.006525
-0.040129
0.081600
0.031285
0.048304
0.053912
0.136676
0.141999
0.099683
0.146084
0.141205
0.108605
0.148117
0.149527
0.157264
0.099267
0.145112
0.117002
0.179680
0.123396
0.101556
0.060694
0.094484
0.052277
0.024635
0.153647
0.133923
0.051130
-0.043701
0.086103
0.105449
0.006756
0.074704
-0.004860
-0.049289
-0.017492
-0.046901
-0.051446
-0.006667
-0.109202
0.089745
0.120009
0.336256
0.608641
0.859366
1.069815
1.216144
1.240066
0.987007
0.669291
0.341946
0.033419
-0.066244
-0.185542
-0.182276
-0.075178
-0.044600
0.077637
0.007367
0.125607
0.155372
0.050016
0.125064
0.117576
0.117369
0.151273
0.178576
0.154639
0.256144
0.249623
0.382284
0.332512
0.294932
0.327275
0.327578
0.378943
0.334382
0.462794
0.392062
0.382674
0.441935
0.434006
0.405790
0.460476
0.571323
0.450974
0.449396
0.458514
0.466650
0.440094
0.520036
0.465308
0.377380
0.375533
0.413225
0.386747
0.384142
0.299004
0.332338
0.299336
0.271548
0.219425
0.280029
0.210102
0.196947
0.156903
0.175737
0.162588
0.210194
0.113856
0.059776
0.131749
0.043255
0.018239
0.097949
0.058194
0.011912
0.072077
0.036186
-0.025802
0.007580
-0.022855
0.029205
-0.080559
-0.064421
-0.062845
-0.060839
-0.061132
-0.013750
-0.054765
-0.033516
-0.055668
-0.000549
-0.012524
0.032697
-0.000599
-0.027731
-0.077786
-0.024611
-0.059413
-0.017210
-0.037878
-0.011579
-0.053413
-0.056999
-0.129937
0.028093
0.048608
0.051999
-0.105643
-0.008933
-0.086879
-0.015242
0.026763
-0.063545
0.002221
0.027189
-0.005893
0.073198
0.105613
0.020174
0.037796
0.060021
0.117035
0.038112
0.021392
0.136569
0.112132
0.091238
0.131000
0.120703
0.198079
0.149842
0.175737
0.200495
0.191713
0.176360
0.211030
0.142710
0.158541
0.170809
0.173510
0.089068
0.105841
0.027222
0.010140
0.046726
0.043659
0.026378
0.058626
0.047725
-0.057886
0.048172
0.032838
0.020631
0.054271
-0.012625
0.089507
0.335178
0.549169
0.827377
1.206727
1.363622
1.382135
1.094936
0.786555
0.377321
0.205852
0.040792
-0.144895
-0.154880
-0.040475
-0.017645
0.043315
0.100079
0.073028
0.102805
0.180455
0.126088
0.073428
0.192335
0.189977
0.164634
0.301201
0.287625
0.271757
0.344554
0.296720
0.364424
0.473896
0.322714
0.390202
0.417936
0.444011
0.463711
0.523868
0.518655
0.535044
0.627417
0.560933
0.549079
0.470976
0.567686
0.483249
0.427461
0.580656
0.559505
0.431647
0.494026
0.459817
0.572449
0.439616
0.432656
0.394721
0.358497
0.449623
0.315862
0.325680
0.249947
0.380358
0.226559
0.200842
0.256758
0.188549
0.272717
0.209661
0.191755
0.186750
0.178900
0.161100
0.163494
0.089893
0.047827
0.046016
0.156829
0.075256
0.100132
0.103728
0.040243
0.045353
0.028734
0.025493
0.064573
0.034830
0.098268
0.065272
0.021951
-0.008638
0.005515
0.071883
0.032440
0.003972
0.024871
0.021004
0.023161
-0.005481
0.009859
0.049333
-0.007128
0.115056
0.038328
0.098354
0.053434
0.047400
0.100658
0.098412
0.062247
0.128683
0.035029
0.036600
0.149906
0.119670
0.087652
-0.011002
0.137647
0.186376
0.175516
0.141195
0.124351
0.196591
0.189695
0.113761
0.171384
0.277468
0.201390
0.270530
0.245687
0.247376
0.262292
0.310090
0.272550
0.215089
0.262888
0.237543
0.180993
0.147464
0.254135
0.211029
0.190825
0.151155
0.101920
0.141124
0.120937
0.175889
0.175890
0.244277
0.070518
0.083284
0.133412
0.164355
0.055767
0.127524
0.125789
0.157455
0.349775
0.532334
0.866177
1.163507
1.344499
1.402172
1.255197
0.986015
0.610635
0.377197
0.094747
-0.028559
-0.028318
0.089382
0.087903
0.186744
0.147709
0.238799
0.144846
0.173157
0.248996
0.191571
0.237601
0.300779
0.175447
0.247139
0.394326
0.326229
0.331994
0.373454
0.351127
0.446364
0.521514
0.529600
0.486384
0.516976
0.551608
0.452370
0.565649
0.597932
0.617674
0.544464
0.569535
0.555902
0.609421
0.627872
0.597383
0.727712
0.644464
0.563835
0.597039
0.600373
0.527314
0.510508
0.527832
0.517758
0.596232
0.449167
0.426158
0.333776
0.458896
0.362319
0.339179
0.256999
0.264925
0.346555
0.227076
0.246400
0.164652
0.301143
0.190350
0.183813
0.157532
0.207971
0.145672
0.140136
0.166822
0.160608
0.143160
0.107570
0.230595
0.078416
0.094040
0.089549
0.113712
0.080007
0.119391
0.108740
0.108385
0.157274
0.165719
0.057698
0.079037
0.128720
0.116620
0.126990
0.055192
0.074109
0.121249
0.087922
0.141065
0.078887
0.073258
0.106804
0.122134
0.076977
0.138646
0.055278
0.069370
0.058893
0.159408
0.131578
0.130301
0.060062
0.086566
0.122693
0.237560
0.213502
0.171803
0.153827
0.233819
0.175207
0.171627
0.205577
0.271218
0.281997
0.231213
0.279674
0.248614
0.313657
0.252156
0.219499
0.199602
0.256619
0.232080
0.243600
0.238325
0.289165
0.292969
0.153494
0.253152
0.182218
0.197180
0.118961
0.170724
0.103770
0.166126
0.111354
0.127842
0.074772
0.112827
0.051058
0.123127
0.143396
0.115982
0.173593
0.308703
0.496750
0.802252
1.069186
1.342323
1.500000
1.312427
1.004882
0.711183
0.348046
0.092806
0.015971
-0.006853
0.051524
0.095386
0.107480
0.243313
0.097197
0.226207
0.295556
0.195533
0.252764
0.254548
0.261569
0.306024
0.372862
0.304897
0.390905
0.425530
0.331837
0.400075
0.360958
0.457733
0.461208
0.492870
0.420493
0.519769
0.492559
0.530819
0.504262
0.478112
0.640728
0.517656
0.687516
0.600437
0.642173
0.602063
0.551318
0.556232
0.526958
0.554080
0.523070
0.507850
0.522405
0.449970
0.390732
0.430550
0.455247
0.409125
0.290914
0.381679
0.391600
0.243456
0.332552
0.243361
0.235031
0.228735
0.195345
0.246972
0.207028
0.127229
0.151913
0.048993
0.181408
0.142207
0.017074
0.112518
0.091071
0.067749
0.002942
0.040086
0.019004
0.116256
0.110953
0.046300
0.015528
0.121131
0.093034
0.020955
-0.040875
0.092503
0.076652
0.030547
0.078406
-0.030906
0.086503
0.020016
0.093745
-0.043317
0.019555
-0.022834
0.057520
0.005269
0.115715
-0.005420
0.049607
0.055012
0.057433
-0.041519
0.006232
-0.003725
0.094841
0.025038
-0.026702
0.130716
0.115534
0.108712
0.046363
0.048670
0.077546
0.150496
0.188972
0.200205
0.147728
0.256004
0.135793
0.168019
0.173387
0.154561
0.221080
0.231938
0.127149
0.212833
0.155099
0.124960
0.115428
0.240687
0.177618
0.120581
0.164239
0.078576
0.134788
0.125905
0.164411
0.053478
0.146439
0.079374
0.028073
-0.046645
0.081991
0.028508
0.050337
0.037726
0.053524
0.115167
0.158104
0.232694
0.351385
0.579340
0.851922
1.157423
1.361745
1.295179
1.079815
0.689993
0.314317
0.010381
-0.058235
-0.117409
-0.119139
0.053179
-0.012714
0.114670
0.092400
0.096653
0.132143
0.105280
0.116265
0.172799
0.173367
0.130221
0.207490
0.212479
0.110274
0.192985
0.315175
0.243725
0.277128
0.354892
0.273535
0.350609
0.480617
0.341912
0.422574
0.475310
0.358244
0.459955
0.488331
0.485309
0.545324
0.535837
0.536391
0.506608
0.541331
0.470605
0.445272
0.351286
0.447795
0.401487
0.377069
0.386555
0.401680
0.295221
0.373266
0.349057
0.291313
0.282785
0.343065
0.275675
0.279086
0.261230
0.098524
0.142938
0.077786
0.028435
0.088271
0.064047
0.101388
-0.016073
0.048953
0.063380
0.108444
-0.005182
0.023987
-0.077130
-0.009143
-0.028585
-0.027535
0.067828
-0.116922
-0.085798
-0.096812
-0.174853
-0.014347
-0.051667
-0.056219
-0.106347
-0.126520
-0.090711
-0.042764
-0.044569
0.000822
-0.005659
-0.091891
-0.052049
0.037118
0.011580
-0.066350
-0.064582
-0.070358
-0.098699
-0.069842
-0.028814
-0.078643
-0.058221
-0.081090
-0.112289
-0.121112
-0.039938
-0.058777
-0.009267
-0.065583
-0.020147
0.011917
0.025242
-0.013648
-0.004949
0.037641
0.056303
0.040049
0.086007
0.084818
0.168140
0.126542
0.192882
0.127711
0.126916
0.035172
0.125250
0.053907
0.103075
0.073349
0.051004
0.085554
0.073653
0.013228
0.075763
-0.048704
0.044858
-0.046469
0.032373
0.025733
-0.048708
0.064861
-0.086282
-0.059050
-0.028404
-0.061531
-0.039973
-0.074989
-0.022366
0.017140
0.111694
0.193301
0.462109
0.780296
1.074618
1.223121
1.282741
1.080441
0.824127
0.342546
0.084819
-0.126684
-0.225883
-0.131074
-0.001705
-0.068876
0.055169
0.039677
0.024011
0.056278
0.011804
0.016191
0.133655
0.150599
0.154178
0.138739
0.094040
0.243196
0.171262
0.231537
0.264519
0.282784
0.300460
0.295506
0.263325
0.376442
0.347880
0.478062
0.367869
0.405112
0.430516
0.375909
0.405081
0.505926
0.499389
0.383566
0.463847
0.452997
0.434729
0.401834
0.397744
0.371020
0.448788
0.388071
0.293464
0.358575
0.324395
0.304783
0.267199
0.204760
0.206206
0.192573
0.203624
0.197929
0.156349
0.128363
0.113531
0.059734
0.098771
0.064824
0.092255
0.024954
-0.050362
-0.060567
-0.053553
-0.012945
-0.036020
-0.007805
-0.030572
0.040248
-0.012605
-0.074089
-0.047540
0.036904
-0.095580
-0.020088
-0.027095
-0.013040
-0.062584
-0.039957
-0.126797
-0.021114
-0.106112
-0.086075
-0.095523
-0.119205
-0.040675
-0.015765
0.043037
-0.122343
-0.107296
-0.052657
-0.072786
-0.111895
-0.045463
-0.123204
-0.114597
-0.085909
-0.065409
-0.050079
-0.032852
-0.082244
-0.100028
-0.123869
-0.017912
-0.083261
-0.022383
-0.023453
0.049258
0.077700
0.043537
0.042146
0.103454
-0.025020
0.128859
0.159721
0.111008
0.089285
0.125808
0.132877
0.158517
0.109257
0.139416
0.135571
0.165840
0.145876
0.145692
0.112616
0.011470
0.030974
0.050160
0.038064
0.015946
0.047669
-0.007559
-0.008022
0.016009
-0.026035
0.008516
0.025679
0.013211
-0.022349
-0.039336
-0.052290
-0.081976
-0.001016
0.140749
0.166749
0.396295
0.689866
1.082211
1.210799
1.281071
1.225363
0.810761
0.478886
0.198757
-0.057952
-0.080029
-0.212101
-0.085743
0.010336
-0.011490
0.033648
0.048794
-0.023794
0.057432
0.061425
0.165838
0.109881
0.174479
0.180043
0.225828
0.303634
0.226631
0.241542
0.354173
0.253122
0.270297
0.358281
0.357661
0.472942
0.399780
0.423127
0.429747
0.470649
0.488678
0.459255
0.444795
0.445321
0.563858
0.513811
0.542954
0.555142
0.412992
0.461645
0.424960
0.505547
0.388127
0.427738
0.451587
0.381232
0.463545
0.336538
0.307564
0.351809
0.287695
0.347628
0.302586
0.180254
0.229133
0.213891
0.185856
0.140866
0.155376
0.190700
0.133866
0.122925
0.102967
0.080078
0.137802
0.047313
0.069657
0.028031
0.047045
0.025025
0.037316
0.060204
0.099706
-0.076383
0.000517
0.028926
0.045336
-0.058780
0.038417
0.000664
0.086491
0.030950
0.029848
0.029799
0.037090
-0.030790
-0.001320
0.031567
0.069782
0.023894
-0.007907
0.019019
0.005156
0.026076
0.057109
-0.003045
0.014623
0.077406
0.032754
0.047020
0.042788
0.021667
0.027483
0.044673
0.020730
-0.018938
0.110520
0.027377
0.026705
0.159835
0.143909
0.186425
0.119576
0.063767
0.185914
0.181421
0.192840
0.246909
0.195878
0.164426
0.250462
0.299143
0.245314
0.228146
0.156839
0.199842
0.152296
0.174526
0.147273
0.058646
0.191576
0.115363
0.062825
0.065490
0.196294
0.105276
0.107123
0.034503
0.059684
-0.016108
0.100494
0.050845
0.095339
0.024715
0.027176
0.065298
0.122326
0.278036
0.487057
0.663564
0.999950
1.280155
1.312779
1.304763
1.025583
0.650460
0.360338
-0.035459
-0.022008
-0.001486
-0.063651
0.145379
0.098891
0.107213
0.090233
0.042732
0.114213
0.129983
0.203733
0.193237
0.240937
0.325004
0.274905
0.324005
0.251863
0.270317
0.352562
0.353103
0.374572
0.489310
0.414690
0.540111
0.473805
0.448533
0.510208
0.520407
0.446953
0.458197
0.499601
0.607369
0.572748
0.552364
0.501492
0.559923
0.535004
0.602427
0.556364
0.496859
0.438925
0.433693
0.525405
0.474204
0.455778
0.415135
0.408698
0.348170
0.319167
0.318787
0.307422
0.339769
0.299378
0.259629
0.298618
0.290667
0.191947
0.212281
0.139490
0.172583
0.106405
0.117999
0.154808
0.199398
0.078414
0.154743
0.132263
0.080540
0.071869
0.074909
0.063465
0.050110
0.044579
-0.047242
0.056858
0.035992
0.042011
0.022144
-0.023787
0.064655
0.120202
0.005895
0.029763
0.033057
0.052140
0.012116
-0.040581
0.004304
-0.007103
0.031859
0.076159
-0.005201
0.038836
-0.001429
0.087142
0.074896
0.005598
0.131766
0.075724
0.054181
0.062676
0.009316
0.054561
0.044498
0.174449
0.164218
0.140377
0.157519
0.245373
0.196421
0.097776
0.070930
0.158455
0.206773
0.174634
0.162851
0.193584
0.215305
0.150378
0.275733
0.197537
0.233937
0.174826
0.198929
0.200616
0.112671
0.132430
0.153868
0.216866
0.004355
0.109128
0.078747
0.129224
0.116375
0.055387
0.130268
0.128417
0.106982
0.083950
0.072090
0.064563
0.008623
0.050331
0.020333
0.128296
0.138854
0.367557
0.614570
0.981946
1.211254
1.391832
1.318533
1.091584
0.738403
0.436305
0.115363
-0.072293
-0.027180
0.001351
-0.026519
0.063362
0.135611
0.143541
0.223155
0.127093
0.138222
0.113237
0.184333
0.142310
0.190547
0.224360
0.249798
0.235232
0.319417
0.293921
0.354019
0.425306
0.447155
0.441924
0.445082
0.374968
0.510817
0.487317
0.498095
0.500668
0.443324
0.422208
0.528346
0.481753
0.522921
0.537384
0.472517
0.582671
0.509444
0.442133
0.494827
0.501453
0.394016
0.330751
0.499838
0.437539
0.360489
0.377189
0.355101
0.303878
0.295907
0.228643
0.274020
0.215122
0.237507
0.212944
0.230605
0.234552
0.127315
0.104194
0.057890
0.118181
0.074728
-0.017668
0.071945
0.047262
0.033820
0.122205
0.006488
-0.030550
0.019124
0.059210
-0.033235
0.001029
0.031290
0.041007
-0.031588
0.003870
-0.014139
-0.072076
0.010324
0.002557
0.050588
0.008005
0.005071
0.056865
-0.015544
-0.028296
-0.017313
-0.105804
-0.102460
-0.066812
-0.020385
-0.016866
-0.038066
-0.017011
0.017544
-0.054773
0.046539
-0.005820
-0.008884
0.085465
0.002795
-0.020675
0.049848
0.075429
0.030735
-0.027320
-0.001731
0.134401
0.122528
0.056060
0.106172
0.133509
0.148130
0.078974
0.212637
0.155149
0.130517
0.142168
0.165303
0.165161
0.145912
0.119220
0.113790
0.141033
0.137477
0.074882
-0.006885
0.042349
0.061656
0.035648
0.053105
0.076807
-0.007741
0.008092
-0.031337
-0.000465
-0.019499
-0.065539
-0.063191
-0.032924
-0.024502
-0.013149
-0.052505
0.013594
0.056676
0.284926
0.472611
0.753440
1.044907
1.167544
1.223964
1.001953
0.727359
0.343986
0.095029
-0.027187
-0.116703
-0.160312
-0.087209
-0.054002
0.054097
0.053376
0.098747
0.067214
0.150486
0.110618
0.219525
0.145061
0.190216
0.171342
0.223872
0.202599
0.226473
0.258585
0.139417
0.288194
0.376013
0.337460
0.316894
0.336646
0.422804
0.371468
0.412733
0.410503
0.497583
0.437751
0.390243
0.453358
0.400701
0.473024
0.410709
0.438019
0.451360
0.445367
0.368101
0.381547
0.384930
0.316069
0.335825
0.337770
0.310249
0.246362
0.241467
0.188879
0.120426
0.244525
0.201486
0.173485
0.049181
0.052865
0.053119
0.029318
0.048583
0.071378
-0.036083
0.050320
-0.006523
-0.019596
0.033836
-0.129407
0.009632
-0.032571
0.033951
-0.005654
-0.081078
-0.075750
-0.115464
-0.095985
-0.040102
-0.075104
-0.108328
-0.013059
-0.137798
-0.095196
-0.088286
-0.170229
-0.093106
-0.094603
-0.154499
-0.087924
-0.038978
-0.126465
-0.078938
-0.058265
-0.054921
0.002114
-0.092014
-0.154448
-0.119281
-0.104417
-0.083925
-0.108935
-0.102546
-0.121374
-0.091296
-0.059984
-0.120735
-0.034039
-0.077103
-0.059848
0.033843
0.028389
0.015644
0.024693
0.001678
0.058483
0.027146
0.059114
0.101438
0.101635
0.053654
0.027321
-0.011931
0.064531
0.064102
0.104763
0.079311
0.046674
0.026736
0.099504
-0.018651
0.025130
0.183661
0.048944
-0.006003
-0.035299
0.038471
-0.049287
-0.003402
0.011258
0.011505
-0.087580
-0.101855
-0.043521
0.022234
-0.097808
-0.040858
-0.144515
-0.004233
-0.146776
-0.022515
0.124527
0.318150
0.698128
0.989219
1.171142
1.171210
1.158523
0.796384
0.442675
0.146644
-0.186870
-0.145409
-0.061879
-0.164680
-0.007649
-0.021909
0.086819
-0.027690
0.072666
0.090807
-0.016687
0.056194
-0.027033
0.058378
0.052303
0.088329
0.199589
0.133749
0.185458
0.231328
0.272498
0.214909
0.292466
0.328688
0.289776
0.365071
0.406700
0.413326
0.398801
0.361221
0.416164
0.404809
0.481532
0.441966
0.441857
0.400663
0.513017
0.468451
0.472879
0.341267
0.424264
0.337772
0.346381
0.427402
0.329119
0.282878
0.337559
0.243555
0.324419
0.236626
0.175136
0.240944
0.113979
0.136165
0.062840
0.065449
0.115763
0.029977
-0.015061
0.090064
0.001379
0.039028
-0.081256
-0.035668
-0.056672
0.019875
-0.120468
-0.067293
-0.096841
0.024709
-0.078993
-0.096561
-0.036682
-0.021860
-0.098971
-0.080427
-0.075802
-0.076286
-0.055039
-0.050498
-0.120453
-0.066860
-0.040410
-0.009262
-0.035848
-0.063666
0.029851
-0.079550
-0.019429
-0.160879
-0.077908
-0.076435
-0.084876
-0.062443
-0.050149
-0.058056
-0.088195
-0.050955
-0.034170
-0.074305
-0.053595
0.025566
-0.045810
-0.050244
-0.030513
0.060289
0.006288
0.036115
0.015469
-0.058706
0.111273
0.095080
0.027039
0.081605
0.112046
0.095597
0.000272
0.110653
0.171217
0.149504
0.061596
0.092970
0.107076
0.178795
0.193255
0.028149
0.102706
0.073358
-0.004652
0.155802
0.107880
0.105864
0.043333
0.076135
0.020591
-0.058513
-0.075579
-0.035787
-0.054798
-0.092715
0.029637
0.021475
-0.060726
0.004427
-0.059252
0.069306
0.158502
0.428409
0.608152
1.033191
1.216793
1.330602
1.192942
0.920518
0.676139
0.226994
-0.028074
-0.149365
-0.077887
-0.095814
0.007537
-0.043047
0.121992
0.027402
0.142218
0.076427
0.171746
0.218648
0.089767
0.168643
0.187653
0.272189
0.276966
0.241970
0.238215
0.299108
0.353878
0.310305
0.396248
0.377132
0.391570
0.398622
0.488427
0.427764
0.504734
0.495393
0.413015
0.465779
0.510256
0.601934
0.600292
0.519407
0.562103
0.471633
0.431481
0.514069
0.505324
0.499164
0.415064
0.429952
0.449263
0.358959
0.321691
0.318456
0.411898
0.304517
0.393646
0.311071
0.361938
0.233724
0.159878
0.208694
0.167454
0.144020
0.157443
0.098313
0.104051
0.055330
0.143586
0.061054
0.101083
0.151738
0.099963
0.103033
0.109399
0.098350
-0.029636
-0.034511
0.025808
0.038784
0.071720
0.101153
0.053863
-0.002398
-0.027163
0.014114
0.043678
0.067727
0.025257
-0.025019
-0.051422
-0.037596
-0.034103
0.040937
0.053805
-0.038522
0.006672
0.000555
-0.019659
0.053352
0.080443
0.030667
-0.043152
-0.055073
0.057721
0.018389
0.057268
0.032727
0.057289
0.001912
0.026149
0.084183
0.140687
0.133810
0.150337
0.197431
0.158172
0.164461
0.169825
0.134969
0.182721
0.196627
0.242734
0.232778
0.213402
0.189272
0.154683
0.231460
0.281010
0.219438
0.285512
0.208172
0.148027
0.200434
0.195802
0.112616
0.171257
0.181586
0.206065
0.119272
0.092175
0.074947
0.056295
0.021559
0.183274
0.078499
0.118924
0.052294
0.079690
0.147878
0.012950
0.114632
0.276112
0.450400
0.688048
1.053523
1.197263
1.419740
1.392340
1.123354
0.777831
0.395647
0.123158
-0.000508
-0.071149
-0.042923
0.040100
0.067391
0.149479
0.206566
0.102475
0.204228
0.211951
0.193750
0.300061
0.348941
0.274389
0.252881
0.243483
0.350307
0.422606
0.345765
0.365791
0.455912
0.438405
0.479401
0.420411
0.415983
0.516977
0.531577
0.529535
0.499143
0.523097
0.569815
0.605559
0.595102
0.586849
0.633282
0.579168
0.572692
0.618373
0.554894
0.567810
0.573974
0.563664
0.494451
0.544376
0.439482
0.468503
0.431683
0.446145
0.357452
0.377856
0.353323
0.280074
0.325517
0.297773
0.347165
0.200858
0.202992
0.168020
0.251877
0.247666
0.212428
0.180483
0.125647
0.079617
0.135268
0.071964
0.179220
0.070039
0.106853
0.159829
0.045293
0.009743
0.121871
0.090105
0.050354
0.130681
0.058209
0.150247
0.157708
0.074952
0.073066
0.041370
0.052832
-0.015932
0.027988
0.077144
0.122404
0.072454
