0.024944
0.010335
0.029606
-0.021030
-0.031850
-0.015876
0.047509
0.005293
0.037091
0.030336
-0.042345
-0.007759
0.043785
0.063324
0.091821
-0.019907
0.034842
0.018286
-0.005533
0.099745
0.061918
0.094005
0.121334
0.110035
0.011095
0.105975
0.089193
0.075163
0.165661
0.030613
0.192721
0.118873
0.101614
0.277245
0.162201
0.163113
0.194494
0.178190
0.181831
0.233385
0.197567
0.279913
0.204019
0.179174
0.254569
0.203509
0.145781
0.240599
0.125986
0.098716
0.164466
0.098785
0.065752
0.090873
0.025768
0.070492
0.134328
0.052770
0.051755
0.033728
0.015345
-0.017776
0.011302
0.063135
0.051319
0.010292
0.061175
0.101155
0.105777
0.154148
0.403126
0.708951
1.056388
1.323590
1.424768
1.338812
1.163633
0.667978
0.416987
0.091956
-0.080489
-0.140505
-0.140810
-0.090171
-0.036191
0.071094
-0.006709
0.100841
0.083137
0.114922
0.103902
0.088063
0.116099
0.130194
0.189042
0.102544
0.190929
0.245930
0.215439
0.293236
0.257475
0.216850
0.306032
0.291663
0.270520
0.432767
0.462093
0.488850
0.460896
0.556895
0.478604
0.503681
0.503854
0.649727
0.535122
0.551475
0.603378
0.567869
0.641327
0.606196
0.553103
0.621847
0.548539
0.596116
0.561979
0.542836
0.585845
0.523276
0.489928
0.436873
0.490380
0.530342
0.396728
0.442855
0.338612
0.350945
0.488759
0.349413
0.348931
0.318952
0.294441
0.265511
0.303248
0.336269
0.220543
0.143452
0.242794
0.209283
0.113957
0.073927
0.086816
0.212446
0.215972
0.171951
0.087994
0.122107
0.122243
0.064138
0.144872
0.125124
0.054977
0.065469
0.114643
-0.005346
0.080328
0.099441
0.074002
0.117880
0.090033
0.071032
0.210992
0.058007
0.017235
0.103847
0.193352
0.039215
0.146195
0.152419
0.071993
0.063302
0.048252
0.054251
0.053613
0.077536
0.006438
0.080769
0.042609
0.079502
0.079408
0.135110
0.076960
0.116077
0.054444
0.064814
0.101637
0.110003
0.086276
0.091999
0.013799
0.001119
0.107057
0.096181
0.162867
0.053291
0.088773
0.127121
0.230541
0.092024
0.164580
0.106371
0.122318
0.170970
0.222274
0.201811
0.177813
0.213686
0.258189
0.240816
0.242487
0.216546
0.317360
0.348764
0.207513
0.292549
0.258602
0.210046
0.176114
0.290104
0.155944
0.238014
0.154272
0.184945
0.165676
0.117456
0.109056
0.134323
0.183675
0.151956
0.033286
0.050162
0.117131
0.144240
0.026937
0.111201
0.156749
0.054044
0.146386
0.059711
0.071291
0.040122
0.141932
0.046922
0.060744
0.199930
0.289463
0.383062
0.706152
1.082908
1.308427
1.403032
1.468363
1.168506
0.828997
0.534107
0.127008
-0.097140
-0.093854
-0.105809
-0.054509
0.050522
0.155527
0.066339
0.044613
0.092505
0.180430
0.189498
0.160117
0.187024
0.119364
0.209680
0.280102
0.171570
0.162548
0.200462
0.293507
0.346388
0.304900
0.272581
0.217025
0.371115
0.411154
0.413160
0.410252
0.503335
0.372124
0.386145
0.547177
0.504886
0.541155
0.597241
0.474174
0.590453
0.446639
0.608032
0.559069
0.618228
0.590898
0.592655
0.573558
0.605815
0.601625
0.530523
0.530127
0.520241
0.418715
0.406110
0.478276
0.536868
0.417502
0.304646
0.393294
0.343039
0.385413
0.328133
0.279799
0.301701
0.293932
0.332006
0.211482
0.136658
0.165331
0.174936
0.121276
0.168656
0.122355
0.197373
0.164241
0.044372
0.077038
0.104834
0.023872
0.124894
0.052601
0.048274
0.066453
-0.020618
0.049315
0.047147
0.049390
0.028095
0.029707
0.036949
0.064131
0.059561
0.026462
-0.031897
0.045655
-0.008472
0.113035
0.036966
0.107935
-0.015172
-0.002177
0.044851
0.097784
-0.070773
0.008422
0.067676
0.079652
0.027209
0.054299
0.086634
0.048134
0.025747
0.060282
0.022148
-0.008771
0.086699
0.069061
0.046840
0.063399
0.052726
-0.032153
0.069803
0.102682
0.027208
0.019742
0.026819
0.033146
0.057161
0.046577
0.041189
0.049870
0.121965
0.095223
0.061891
0.181072
0.041787
0.114251
0.233933
0.101829
0.179504
0.189976
0.212338
0.216918
0.160299
0.180521
0.193057
0.129345
0.145121
0.259993
0.129528
0.146976
0.208964
0.166769
0.020092
0.071022
0.173225
0.133738
0.089110
0.046847
0.008596
-0.053847
-0.038038
-0.010850
0.057973
-0.006994
0.113720
-0.000521
-0.009046
-0.057833
0.048770
-0.003122
-0.060899
-0.005406
-0.008774
-0.062187
-0.026100
-0.014581
0.150490
0.283801
0.613539
0.905124
1.136570
1.336421
1.352429
1.143201
0.839607
0.480819
0.142781
-0.145405
-0.103378
-0.193435
-0.126670
-0.139090
0.018168
0.098580
0.043495
0.006748
-0.002696
0.102734
0.133300
0.118204
0.131828
0.058623
0.088559
0.138653
0.153655
0.079748
0.124812
0.201236
0.183630
0.135793
0.256351
0.215357
0.314096
0.267905
0.332915
0.278695
0.358685
0.366712
0.382729
0.470553
0.477327
0.417375
0.572496
0.468066
0.449887
0.364209
0.445139
0.508448
0.512155
0.414506
0.505632
0.521076
0.463643
0.481945
0.461605
0.388309
0.388119
0.349073
0.376532
0.299165
0.300424
0.256983
0.284331
0.216250
0.243007
0.220391
0.178181
0.151218
0.192094
0.129075
0.148479
0.131700
0.065887
0.058650
0.062719
0.090177
0.043498
-0.005786
0.034944
-0.027687
-0.044694
0.075851
-0.054384
0.047477
-0.091378
-0.063299
-0.093648
0.008412
0.006136
0.019455
0.047568
-0.043026
-0.022931
-0.048634
-0.058048
-0.014745
-0.013315
0.072240
-0.045292
-0.116574
-0.022974
-0.023607
-0.021778
-0.064832
0.023661
-0.054239
-0.090738
-0.073644
-0.088429
-0.054187
-0.111774
-0.040568
-0.072745
-0.039376
-0.086046
0.022603
-0.093094
-0.008566
-0.012105
-0.122321
-0.044769
-0.043658
-0.110899
0.041764
-0.014312
-0.008031
-0.012540
0.035600
0.000726
0.055772
-0.004071
-0.053534
-0.059177
0.013424
0.004428
-0.005955
-0.047652
0.037185
0.040125
0.037665
0.094490
0.067140
0.086699
0.059804
0.137930
0.125954
0.112018
0.126878
0.066585
0.110600
0.061348
0.091295
0.094721
0.145541
0.149544
0.138446
0.044445
0.192888
0.062336
0.156603
0.131164
0.027952
0.025350
0.030484
0.018677
-0.004341
-0.012290
-0.018260
-0.003297
0.018470
-0.040596
0.036327
-0.024213
-0.039861
0.032221
-0.040528
-0.116535
-0.108910
-0.043897
0.008927
-0.049270
-0.000878
0.211327
0.474901
0.843291
1.096056
1.335456
1.376791
1.174447
0.849302
0.548226
0.121475
-0.110722
-0.228867
-0.247753
-0.147082
-0.127699
-0.049464
-0.065183
-0.091865
-0.020944
0.042346
0.059364
0.056964
0.066843
0.092966
0.071754
0.100507
0.101849
0.154493
0.078702
0.182792
0.244704
0.184496
0.239929
0.246928
0.208130
0.324787
0.296026
0.313341
0.376264
0.350961
0.401598
0.404334
0.398286
0.371878
0.497890
0.413376
0.463701
0.502057
0.490829
0.494272
0.518894
0.457363
0.477005
0.472653
0.436582
0.430698
0.522953
0.560554
0.427759
0.447332
0.383886
0.397796
0.320234
0.365312
0.254767
0.406491
0.253267
0.389311
0.272963
0.299141
0.257718
0.225428
0.196709
0.130678
0.123550
0.195708
0.089302
0.124959
0.089600
0.080719
0.049726
0.077753
0.005078
0.001068
0.004218
0.070509
0.056770
0.116020
0.029370
-0.078023
-0.035091
0.055258
0.038778
-0.003988
0.022350
0.080241
0.063895
-0.012751
0.017774
-0.002860
0.004871
0.008428
0.062642
0.032153
0.000459
0.067497
-0.027766
0.086065
0.049338
-0.055603
-0.016271
0.028905
-0.004283
0.017759
-0.016694
-0.000770
0.047164
0.048961
-0.057328
0.043549
0.078203
0.059633
0.006965
-0.033602
0.025472
0.004339
0.021647
0.048566
0.006761
0.042484
0.072320
0.069158
0.083365
-0.027702
0.025427
-0.031009
0.116986
0.121926
0.118915
0.089944
0.133268
0.061505
0.176151
0.097194
0.122716
0.180017
0.161338
0.204385
0.193466
0.176676
0.235135
0.139631
0.217451
0.207865
0.195183
0.186610
0.169320
0.262305
0.196814
0.128519
0.211870
0.168893
0.245889
0.159956
0.092965
0.074169
0.243524
0.175746
0.077798
0.060279
0.066303
0.053875
0.093784
0.052206
0.084121
0.075073
0.075985
0.134042
0.054284
0.057084
0.055577
-0.036774
0.009564
0.040118
0.181070
0.353875
0.530138
0.767010
1.086890
1.320721
1.355226
1.328916
0.992933
0.642643
0.240512
0.038589
-0.064948
-0.052555
-0.119154
0.005361
-0.054373
0.034461
0.041696
0.110874
0.136508
0.144037
0.113876
0.183670
0.181544
0.223926
0.188357
0.192019
0.165574
0.170575
0.206642
0.203747
0.297004
0.335595
0.314412
0.356552
0.347570
0.328833
0.352691
0.409799
0.517476
0.533052
0.525150
0.481444
0.536588
0.508939
0.564086
0.588472
0.538202
0.632573
0.615244
0.539705
0.572123
0.618275
0.586937
0.635184
0.683563
0.549477
0.543427
0.529739
0.568188
0.468068
0.535331
0.498390
0.468446
0.479009
0.352745
0.361397
0.428766
0.359507
0.319498
0.286947
0.225951
0.292318
0.256994
0.329976
0.228892
0.155831
0.173353
0.139721
0.217381
0.187412
0.193265
0.152383
0.079063
0.103528
0.074424
0.123285
0.115638
0.085223
0.133393
0.110631
0.068901
0.053309
0.170669
0.126153
0.129671
0.151163
0.046280
0.051141
0.081118
0.059899
0.096473
0.053732
0.042762
0.092835
0.105120
0.051547
0.137281
0.106515
0.216055
0.155868
0.124647
0.102307
0.152611
0.119737
0.084107
0.104744
0.042993
0.083535
0.142803
0.021123
-0.001435
0.109060
0.114585
0.071303
0.090032
0.100428
0.063217
0.086939
0.055529
0.216612
0.096599
0.162909
0.096318
0.061814
0.101738
0.117803
0.127922
0.165837
0.086546
0.191503
0.172109
0.179595
0.156575
0.263164
0.227067
0.203116
0.249518
0.282782
0.316580
0.248447
0.270350
0.192452
0.183291
0.355359
0.243166
0.212485
0.253093
0.260208
0.294836
0.228562
0.163510
0.225759
0.185866
0.130386
0.138913
0.136266
0.135411
0.154033
0.139822
0.114956
0.130314
0.145741
0.044410
0.058179
0.017049
0.034658
0.101801
0.081490
0.036765
0.044489
0.074929
0.047188
0.098066
0.183003
0.259016
0.450864
0.791747
1.072252
1.371847
1.498830
1.342732
1.128949
0.736444
0.331703
0.062934
-0.067301
-0.066650
-0.019109
0.052354
0.008492
0.076411
0.089904
0.157841
0.071446
0.124493
0.089136
0.155363
0.261703
0.197904
0.120382
0.207789
0.180353
0.202175
0.291521
0.228168
0.220279
0.322437
0.294189
0.399301
0.339049
0.431375
0.403573
0.499137
0.414173
0.440114
0.606903
0.459531
0.539492
0.563114
0.468861
0.527240
0.592023
0.631273
0.532376
0.683131
0.542356
0.530619
0.617241
0.550630
0.557008
0.539894
0.579612
0.496428
0.522806
0.476227
0.461588
0.529217
0.437539
0.456245
0.367024
0.435523
0.364123
0.291857
0.326052
0.319664
0.312304
0.234015
0.220125
0.232561
0.277895
0.108994
0.177941
0.180410
0.102407
0.176333
0.144967
0.087281
0.116197
0.064331
0.132314
0.037919
-0.022610
0.071076
0.097677
0.038894
0.017153
0.068672
0.042373
0.081445
0.021671
0.126598
0.067275
0.063961
0.057101
0.056545
0.040525
0.022116
0.049456
0.060605
0.032584
0.070016
0.012924
-0.006720
0.001802
0.052111
0.009109
0.065276
0.049431
0.059076
0.078362
-0.074498
0.096470
0.018792
-0.005199
-0.016900
-0.005533
0.072745
0.036468
0.027934
0.027122
0.055421
0.001929
0.126132
0.027701
0.036397
0.005665
0.026509
0.097475
0.162847
0.045931
0.094901
0.079416
0.083715
0.121518
0.030176
0.102853
0.107654
0.101639
0.149898
0.124104
0.193749
0.175426
0.058185
0.128503
0.075845
0.199140
0.135937
0.082830
0.044722
0.184111
0.146733
0.214702
0.182205
0.111293
0.086938
0.259576
0.080535
0.164293
0.152670
0.042381
0.045541
0.000297
-0.001505
-0.056627
-0.007273
0.072141
0.072499
0.026073
-0.063253
0.116711
-0.029245
-0.090075
0.111987
-0.034803
0.035813
-0.053103
-0.031444
-0.040546
-0.030629
0.050228
0.330464
0.540995
1.004177
1.172846
1.296726
1.318905
1.061795
0.714849
0.329120
-0.020813
-0.196300
-0.230138
-0.208391
-0.059526
-0.153179
-0.051513
0.039804
-0.027862
0.015604
-0.006395
0.073002
0.061914
0.080700
0.103737
0.102528
0.094005
0.138714
0.073636
0.147961
0.172331
0.142761
0.199429
0.220674
0.168878
0.241380
0.260339
0.000000
0.000000
0.000000
0.000000
0.000000
0.000000
0.000000
0.000000
0.000000
0.000000
0.000000
0.000000
0.000000
0.000000
0.000000
0.000000
0.000000
0.000000
0.000000
0.000000
0.000000
0.000000
0.000000
0.000000
0.000000
0.000000
0.000000
0.000000
0.000000
0.000000
0.000000
0.000000
0.000000
0.000000
0.000000
0.000000
0.000000
0.000000
0.000000
0.000000
0.000000
0.000000
0.000000
0.000000
0.000000
0.000000
0.000000
0.000000
0.000000
0.000000
0.000000
0.000000
0.000000
0.000000
0.000000
-0.067748
-0.062368
0.030659
-0.075150
-0.139822
-0.056073
-0.043028
-0.071241
-0.023514
-0.091782
-0.140215
-0.081974
-0.123655
-0.030870
-0.065185
-0.093679
0.027412
-0.087006
-0.104236
-0.009708
-0.063808
-0.110692
-0.070712
-0.047051
-0.069229
-0.002376
-0.049524
-0.143545
-0.054533
-0.057276
-0.001272
-0.108427
-0.100378
-0.148783
-0.019506
-0.051477
-0.068926
-0.114730
-0.001693
0.057652
-0.066726
0.015633
0.055140
-0.066249
-0.061491
-0.025228
0.035298
-0.018910
-0.031845
-0.004604
0.022695
0.023916
-0.011014
0.111285
0.105050
0.107109
0.054881
0.108017
0.031420
0.077503
0.033269
0.129700
0.191184
0.107823
0.068824
0.089826
0.138570
0.121700
0.012302
0.173728
0.011417
0.048225
0.076978
-0.075449
0.039967
-0.004255
-0.027679
-0.065696
-0.062869
-0.089798
-0.058375
0.017800
-0.025456
-0.095657
-0.066996
-0.085981
0.000088
-0.072626
-0.044756
-0.060554
-0.113683
-0.122690
-0.011470
0.067623
0.253611
0.445887
0.780239
1.127756
1.301365
1.247797
1.069273
0.767597
0.392162
-0.065127
-0.234179
-0.235460
-0.213945
-0.199762
-0.139784
-0.032312
-0.049222
-0.077898
0.038311
-0.037968
-0.063759
0.048849
0.013218
-0.094602
0.020682
-0.027617
0.062884
0.054402
0.053100
0.110858
0.142538
0.113539
0.210987
0.181910
0.199215
0.269923
0.214454
0.230242
0.357658
0.277083
0.290487
0.369309
0.417065
0.394700
0.452489
0.475956
0.324571
0.390109
0.398321
0.421671
0.402919
0.448622
0.390624
0.413036
0.408968
0.414059
0.434612
0.352007
0.368905
0.372866
0.374927
0.340876
0.325866
0.317686
0.366951
0.229250
0.196681
0.235711
0.192744
0.106221
0.089436
0.075196
0.075689
0.098472
0.049892
0.078296
0.092471
0.027235
0.050287
0.023128
0.084307
0.002736
-0.027322
-0.013884
0.055763
-0.071543
0.004959
-0.025391
-0.063046
0.019753
-0.117444
0.016040
-0.007836
-0.069184
-0.120544
-0.079658
-0.115496
-0.025423
-0.104786
0.055002
-0.037424
0.043694
-0.067424
-0.065810
-0.070737
-0.072829
-0.042136
0.086773
-0.078348
-0.048852
0.012216
-0.071701
0.028670
-0.061097
-0.053105
-0.045276
-0.106765
-0.051502
-0.028303
-0.064410
-0.029636
0.017057
-0.052661
0.032284
-0.024407
-0.025038
-0.002078
-0.087725
-0.028289
0.004752
0.029915
-0.030090
0.047626
0.054393
-0.068562
-0.059160
0.062209
-0.013469
0.033465
0.055152
0.135174
0.032939
0.003665
0.094911
0.048455
0.151589
0.110201
0.109285
0.168064
0.209217
0.227638
0.176325
0.178275
0.149944
0.136687
0.152403
0.069933
0.209777
0.081781
0.126691
-0.002746
0.138647
0.065451
0.148486
0.175535
0.110283
0.065737
0.023746
0.049379
0.015045
0.105166
0.019493
0.030609
0.063597
-0.008758
0.022065
0.010369
-0.012639
-0.009265
-0.030642
-0.025390
-0.055232
-0.024647
-0.064747
0.099633
0.234205
0.534324
0.826052
1.112189
1.397273
1.347357
1.106763
0.870127
0.528087
0.100718
-0.098517
-0.159716
-0.123412
-0.024245
-0.043429
-0.041060
0.062680
0.061821
0.057910
0.004851
0.046998
0.063829
-0.000788
0.118586
0.166224
0.137508
0.163461
0.125820
0.213249
0.160224
0.222959
0.238706
0.301182
0.210448
0.279207
0.295400
0.232781
0.263247
0.400731
0.406044
0.391532
0.357864
0.387945
0.485869
0.472293
0.416354
0.476118
0.506060
0.541086
0.534425
0.540025
0.434138
0.530639
0.541472
0.547818
0.514495
0.542110
0.538082
0.458900
0.497610
0.581398
0.462954
0.475590
0.417324
0.364352
0.329621
0.363399
0.337044
0.272612
0.219860
0.186177
0.284214
0.233736
0.268240
0.125002
0.134870
0.222572
0.122559
0.184003
0.051308
0.135182
0.115163
0.164075
0.044672
0.143811
0.029548
0.032652
0.182575
0.019571
0.102160
0.016004
0.087245
0.103344
0.075792
0.136451
0.067409
0.083998
0.091101
0.067472
0.020106
0.100369
0.070658
0.095322
0.076236
0.043887
0.077426
-0.032688
-0.002106
-0.010802
0.030320
0.051990
0.021971
0.059681
0.084790
-0.028652
0.095155
0.053583
0.034535
0.082785
0.059570
-0.005436
0.003626
0.051393
0.040900
0.029098
0.061779
0.105029
0.087396
0.100881
0.077795
0.034663
0.049707
0.113577
0.017184
0.099555
0.149553
0.114706
0.018494
0.053685
0.112067
0.120603
0.163028
0.145415
0.156236
0.229442
0.161694
0.203086
0.157934
0.191726
0.246030
0.281013
0.257298
0.300127
0.244864
0.274971
0.230965
0.228578
0.222897
0.224021
0.202320
0.203574
0.184072
0.180217
0.166134
0.156638
0.084681
0.126637
0.120858
0.047178
0.074523
0.020446
0.099132
0.010575
0.015651
0.183717
0.007972
0.051750
0.126786
0.003562
0.128584
0.014507
-0.038063
0.041316
0.020927
0.143606
0.328837
0.568507
0.849792
1.071009
1.419087
1.500000
1.193438
0.937426
0.541601
0.257025
0.021040
-0.115765
-0.154041
-0.083158
-0.106411
0.022681
0.064379
0.069565
0.146270
-0.024787
0.069681
0.085483
0.131977
0.119826
0.123042
0.209073
0.087850
0.054629
0.247330
0.230067
0.246610
0.224895
0.269755
0.251381
0.330410
0.311700
0.366984
0.320027
0.356709
0.451550
0.428170
0.393657
0.538362
0.411222
0.505633
0.522899
0.447294
0.474216
0.567400
0.663705
0.586903
0.535103
0.542542
0.569872
0.528750
0.491957
0.461945
0.478923
0.459354
0.469774
0.522195
0.408826
0.330630
0.381654
0.358563
0.418454
0.236541
0.300713
0.199170
0.219290
0.348746
0.227008
0.299360
0.181141
0.280169
0.225713
0.053441
0.078598
0.120335
0.139059
0.039208
0.096155
0.103611
0.133185
0.085655
0.041154
-0.021874
0.011118
-0.007870
0.123105
0.006608
0.019046
0.028070
0.034877
0.023183
-0.005462
0.030469
0.015115
0.042564
0.042881
0.083384
-0.022293
0.007686
0.014005
0.053223
0.002942
0.060581
-0.007750
-0.004293
0.091799
-0.043376
-0.101311
0.033590
0.080600
-0.008243
-0.027886
-0.007378
0.024534
0.027633
-0.082395
-0.025025
0.000943
0.047942
0.064554
-0.013767
0.040867
-0.050258
-0.043357
-0.033857
0.065440
-0.090650
0.010075
-0.096402
0.022811
-0.065563
0.063626
0.087654
0.008907
0.019706
0.053247
0.128409
0.088359
0.070650
0.086270
0.155686
0.129982
0.123879
0.174294
0.144074
0.106366
0.090193
0.115552
0.222568
0.151078
0.099053
0.125541
0.092723
0.133013
0.154292
0.163590
0.071756
0.120975
0.121836
0.037167
0.064692
-0.048966
-0.060207
0.016893
0.019875
0.052081
0.069862
0.011159
-0.070087
-0.006910
-0.030610
-0.038346
-0.043151
0.056623
-0.042305
-0.086961
-0.028780
-0.011375
-0.099843
-0.093322
0.022633
0.164344
0.394001
0.673333
0.928595
1.254446
1.195384
1.250771
0.997166
0.595215
0.262821
-0.002948
-0.242214
-0.243711
-0.089088
-0.150990
-0.101398
-0.104313
-0.024521
-0.016786
-0.047232
-0.046778
-0.007760
0.065934
0.138417
0.059686
0.053738
0.028788
-0.002285
0.024821
0.145725
0.090126
0.127946
0.150958
0.179609
0.186101
0.207867
0.258067
0.216156
0.279347
0.271107
0.271300
0.328173
0.296024
0.316173
0.342346
0.411296
0.454244
0.423052
0.404181
0.451145
0.499060
0.392561
0.463164
0.426562
0.432466
0.410802
0.400649
0.386378
0.345398
0.398955
0.372361
0.354114
0.295188
0.362902
0.315670
0.297419
0.158568
0.161098
0.204299
0.154567
0.212121
0.127080
0.118782
0.034244
0.055237
0.046314
0.021930
0.061644
-0.005524
0.081535
0.041139
0.032847
0.050975
-0.009163
0.026582
-0.020036
-0.102664
-0.068486
0.006497
-0.103837
-0.101707
-0.146860
-0.159519
-0.033287
-0.083534
-0.125311
-0.174112
-0.052015
-0.152066
-0.099860
-0.149913
-0.146185
-0.057790
-0.011282
-0.138340
-0.084032
-0.066030
-0.084423
-0.091988
-0.043882
-0.050010
-0.093412
-0.114716
-0.089017
-0.105446
-0.010291
-0.111260
-0.100902
-0.018396
-0.152531
-0.104742
-0.066816
-0.044718
-0.027976
-0.111170
-0.084764
-0.145514
-0.071472
-0.044705
-0.007222
-0.092116
-0.141324
-0.085840
-0.033889
-0.057423
-0.078495
-0.118413
-0.176284
-0.083922
-0.019730
0.045621
-0.018742
0.011270
0.011145
0.065397
0.049253
0.039189
0.099127
0.025346
0.038573
0.177984
0.131527
0.086608
0.000553
0.092667
0.052944
0.093996
0.042100
0.111834
0.062182
0.073987
0.013502
0.035774
0.006276
-0.031798
-0.019344
-0.093713
-0.046988
0.042608
-0.073106
-0.041072
-0.104870
-0.049807
-0.141336
-0.149131
-0.089166
-0.081530
-0.123224
-0.075195
-0.098813
-0.064249
-0.092210
-0.106848
-0.110900
-0.046183
0.072661
0.251996
0.532514
0.828379
1.165682
1.284570
1.185577
0.962629
0.584750
0.214396
-0.046528
-0.178453
-0.302893
-0.237274
-0.154406
-0.165092
-0.107915
-0.137870
-0.128663
-0.046876
-0.066523
-0.037720
-0.103461
-0.023991
-0.006837
0.077979
0.050694
0.038929
0.077278
0.140958
0.054647
0.069730
0.134404
0.142558
0.205244
0.127233
0.220288
0.211659
0.268684
0.321799
0.293329
0.349140
0.348151
0.290320
0.296827
0.401981
0.375318
0.396698
0.326741
0.446193
0.453252
0.406554
0.389670
0.413050
0.371368
0.381534
0.400931
0.360873
0.443727
0.000000
0.000000
0.000000
0.000000
0.000000
0.000000
0.000000
0.000000
0.000000
0.000000
0.000000
0.000000
0.000000
0.000000
0.000000
0.000000
0.000000
0.000000
0.000000
0.000000
0.000000
0.000000
0.000000
0.000000
0.000000
0.000000
0.000000
0.000000
0.000000
0.000000
0.000000
0.000000
0.000000
0.000000
0.000000
0.000000
0.000000
0.000000
0.000000
0.000000
0.000000
0.000000
0.000000
0.000000
0.000000
-0.027377
-0.063418
-0.001538
-0.075250
0.019356
0.019263
-0.081579
-0.030494
-0.092887
-0.125599
-0.019782
-0.049625
-0.064625
-0.036005
-0.055003
-0.018370
-0.101932
-0.064741
-0.092893
-0.052269
-0.091729
-0.099759
-0.066112
-0.082317
-0.050452
-0.085111
-0.005784
0.065709
0.017541
-0.009362
-0.037348
-0.008231
0.037711
-0.051294
0.058847
0.044030
0.006306
0.017924
0.051578
0.075790
0.061235
0.131571
0.109755
0.149974
0.159517
0.125793
0.055583
0.146912
0.186428
0.117230
0.124517
0.000000
0.000000
0.000000
0.000000
0.000000
0.000000
0.000000
0.000000
0.000000
0.000000
0.000000
0.000000
0.000000
0.000000
0.000000
0.000000
0.000000
0.000000
0.000000
0.000000
0.000000
0.000000
0.000000
0.000000
0.000000
0.000000
0.000000
0.000000
-0.068072
0.022007
0.127976
0.283513
0.593083
0.922523
1.176395
1.408202
1.336034
1.092900
0.793879
0.397989
0.082079
-0.079816
-0.150718
-0.107740
-0.123421
-0.033514
-0.068454
0.005825
0.068147
0.037782
0.046847
0.046041
0.122673
0.006177
0.175784
0.171317
0.158150
0.149313
0.151773
0.156581
0.189553
0.235486
0.096951
0.240088
0.309809
0.417998
0.307446
0.299022
0.357351
0.389768
0.401794
0.386034
0.464281
0.358485
0.564094
0.473991
0.488582
0.515354
0.518299
0.513265
0.555414
0.559803
0.529044
0.535707
0.507074
0.486388
0.554629
0.530162
0.490051
0.384901
0.457928
0.416364
0.505253
0.460326
0.379237
0.358247
0.296776
0.324053
0.391370
0.340042
0.264553
0.228488
0.268122
0.258505
0.276619
0.188596
0.147737
0.164129
0.232142
0.145689
0.143085
0.059681
0.096906
-0.007812
0.173288
0.124028
0.018580
0.014252
0.136382
0.033730
0.061801
0.070976
0.055415
0.141161
0.079563
0.087399
0.038864
0.058060
-0.017548
0.072600
0.089645
-0.017651
0.097356
0.057374
0.097805
-0.006744
0.068263
0.094450
0.015646
0.016265
0.056975
0.085357
0.051446
-0.015054
0.057558
0.083549
0.084583
0.100842
0.025773
0.113503
0.101678
0.035807
-0.000366
0.073632
0.033459
0.077040
-0.010266
0.042537
0.020189
0.052745
0.016911
0.149381
0.082161
0.081847
0.109393
0.025280
0.106175
0.128737
0.116626
0.118904
0.204395
0.132094
0.201530
0.139964
0.147837
0.288314
0.214114
0.218700
0.190291
0.254349
0.223430
0.270338
0.290325
0.189232
0.274032
0.185622
0.186363
0.235157
0.206684
0.267848
0.099485
0.161962
0.165767
0.176277
0.135537
0.192630
0.043246
0.169639
0.146961
0.098668
0.080050
0.127156
0.096359
0.070107
0.132170
0.022599
0.103602
0.069249
0.044490
-0.000944
0.030264
0.061045
0.048488
0.123617
0.091667
0.251603
0.341515
0.568138
0.952929
1.179821
1.310672
1.474637
1.246876
0.909050
0.575128
0.189916
-0.038394
-0.134796
-0.062113
-0.049569
-0.017637
0.118942
0.152118
0.116404
0.169129
0.149929
0.138376
0.217048
0.152377
