-0.018571
-0.030636
-0.018998
0.010400
0.029297
0.030936
0.093310
0.110029
0.034634
0.026560
0.017916
0.080983
0.005279
0.029923
0.023555
0.035864
0.067357
0.013860
-0.017188
0.050960
-0.034710
0.053828
0.069636
0.037269
0.016637
0.001095
0.022485
0.039277
0.075395
0.106700
0.083955
0.138066
0.082307
0.125425
0.120795
0.224582
0.130996
0.078835
0.103274
0.253087
0.163835
0.153615
0.226120
0.185618
0.203248
0.115971
0.254615
0.136875
0.198666
0.159757
0.022218
0.146862
0.134952
0.168506
0.150863
0.094377
0.156246
0.141137
0.024626
0.063788
0.020686
0.042488
0.062751
0.038073
0.098140
0.005729
0.078722
0.013652
0.102885
-0.034613
0.101980
0.067894
0.016274
0.046696
0.110682
0.038961
0.015671
-0.025341
-0.016827
0.093006
0.167254
0.303674
0.497127
0.811831
1.068979
1.258226
1.430523
1.276467
1.043589
0.670618
0.368841
0.006713
-0.049608
-0.193058
-0.218411
-0.111140
-0.098915
0.006960
0.014552
0.068792
0.062655
0.144359
0.039313
0.063787
0.050793
0.095737
0.033072
0.115648
0.140915
0.129157
0.146164
0.180133
0.117760
0.181680
0.157719
0.126302
0.204458
0.266540
0.173441
0.276500
0.282394
0.253077
0.302249
0.359734
0.381344
0.359922
0.438011
0.390461
0.401051
0.470475
0.440925
0.557586
0.522279
0.471956
0.575349
0.533546
0.567172
0.536444
0.538508
0.619737
0.539097
0.637537
0.580430
0.476574
0.586591
0.525912
0.528680
0.509237
0.520458
0.435961
0.410474
0.399697
0.337402
0.402710
0.422275
0.318123
0.395009
0.360780
0.394470
0.239940
0.307331
0.203443
0.195940
0.279500
0.188250
0.167417
0.167771
0.101166
0.087629
0.185819
0.128009
0.143690
0.135824
0.088765
0.140457
0.085372
0.037066
0.044156
0.119220
0.117981
-0.005391
0.134847
0.109719
0.134907
0.082632
0.033923
0.092500
0.060844
0.022422
0.125782
0.068735
0.090711
0.036207
0.080811
0.154288
0.113779
0.114420
0.076256
0.118782
0.126243
0.179045
0.091919
0.124573
0.141444
0.053607
0.047562
0.091714
0.060660
0.124643
0.063288
0.058022
0.111229
0.055635
0.065692
0.116069
0.112684
0.025000
0.027708
0.105444
0.059906
0.071516
0.187389
0.154102
0.058754
0.060474
0.102806
0.102158
0.086279
0.093280
0.073056
0.037767
0.023715
0.166474
0.082726
0.072719
0.160113
0.110070
0.073799
0.095778
0.124060
0.085605
0.109272
0.182022
0.165024
0.161401
0.118459
0.210026
0.163946
0.186366
0.168153
0.212241
0.255354
0.209179
0.234330
0.209711
0.204679
0.296370
0.190090
0.285584
0.296058
0.205950
0.178952
0.262743
0.279885
0.163559
0.171523
0.214546
0.205347
0.221632
0.090063
0.177098
0.161105
0.088563
0.124304
0.099549
0.040122
0.115499
0.127566
0.084035
0.110949
0.165518
0.097399
0.094759
0.015296
0.037469
0.060690
0.068196
0.066628
-0.004033
0.094730
0.070193
0.048436
0.100781
0.016383
0.090303
0.226522
0.466130
0.731339
1.022125
1.285298
1.414603
1.361774
1.073747
0.869267
0.403211
0.134049
-0.004630
-0.245821
-0.234896
-0.109861
-0.019849
-0.067931
0.020554
0.069063
0.071164
0.110094
0.101549
0.062554
0.087070
0.055942
0.170608
0.021288
0.087951
0.067061
0.074174
0.150390
0.167351
0.181085
0.136268
0.198071
0.160624
0.205784
0.236663
0.196340
0.184629
0.255796
0.322746
0.321981
0.379445
0.392079
0.324321
0.445622
0.421531
0.430102
0.427362
0.415506
0.451503
0.508256
0.466761
0.465476
0.491046
0.566989
0.492635
0.518278
0.448066
0.474907
0.556442
0.431765
0.509402
0.497995
0.432465
0.423085
0.460569
0.484485
0.437568
0.403241
0.338418
0.317305
0.343152
0.302200
0.309951
0.215163
0.310442
0.234372
0.211687
0.228862
0.173957
0.085014
0.113997
0.199075
0.089730
0.079520
0.107193
0.041800
0.007292
0.153312
0.041994
0.073106
0.052416
0.003445
0.054860
-0.019260
0.024292
0.029706
0.013807
-0.013965
0.061979
-0.024352
0.078649
-0.005763
0.109150
0.007360
-0.027520
0.037809
0.087194
-0.027022
-0.060305
0.059690
-0.023645
0.060442
0.010494
0.051618
-0.049245
-0.044267
-0.031752
0.016389
0.004485
0.034033
-0.017453
-0.003345
0.002775
-0.012862
0.038675
-0.013955
-0.015796
-0.042669
-0.053522
0.027514
0.057510
-0.049265
0.076628
0.027133
-0.068788
-0.023672
0.013635
0.048958
-0.002468
-0.002070
0.015712
-0.034755
-0.008237
-0.039515
0.002170
0.036176
0.015928
0.022258
-0.042720
-0.056251
-0.010179
-0.030556
-0.053805
-0.026113
-0.016083
0.116933
0.070208
-0.006634
-0.002396
0.040854
0.044712
0.091415
0.104731
0.020549
0.065409
0.135328
0.082051
0.084042
0.123953
0.128418
0.194558
0.145816
0.183066
0.128942
0.167979
0.190845
0.157267
0.116744
0.172364
0.137972
0.141355
0.071030
0.064780
0.111597
0.077433
0.066994
0.027190
-0.014854
-0.021132
0.024720
0.010410
-0.001687
-0.039274
-0.030208
0.016259
-0.052997
0.060007
-0.009446
-0.051621
-0.075942
-0.082451
-0.057523
-0.013323
-0.001407
0.024287
-0.069712
-0.089572
-0.054072
-0.044603
-0.034075
-0.028043
0.067685
0.303685
0.563767
0.881124
1.059712
1.274640
1.301321
1.031753
0.779288
0.458975
0.076234
-0.155022
-0.329218
-0.267464
-0.222724
-0.219403
-0.011231
-0.074895
-0.018832
-0.044029
0.037325
0.006110
0.001845
-0.013570
-0.051647
0.012246
-0.012503
-0.012690
0.057404
0.002389
0.074018
0.024243
0.088624
-0.017319
0.004298
0.082735
0.065484
0.115149
0.125002
0.128036
0.198195
0.175673
0.236148
0.190074
0.263463
0.211594
0.272225
0.304463
0.288311
0.326462
0.291000
0.439501
0.410920
0.442022
0.420751
0.373218
0.384904
0.470366
0.438265
0.495950
0.493149
0.470903
0.481351
0.486450
0.385680
0.418807
0.418106
0.384220
0.384233
0.322737
0.254665
0.356157
0.271013
0.273246
0.262463
0.222516
0.183397
0.184247
0.228646
0.122177
0.194479
0.147935
0.126602
0.006071
0.096136
0.132626
0.076195
-0.001298
0.033003
0.018499
0.046123
-0.039138
0.039953
0.011752
-0.038385
-0.050139
0.047158
-0.009118
-0.002263
-0.018692
-0.024606
-0.046173
-0.019659
0.001146
-0.089297
-0.037359
-0.100288
-0.011855
-0.052845
-0.076843
0.000194
0.019194
-0.024762
0.012588
-0.005069
-0.011020
0.004475
0.005511
-0.012535
0.030352
0.011848
0.009599
-0.022350
-0.058818
-0.051504
0.020068
0.024323
-0.056109
-0.009253
-0.002013
0.008394
0.042191
-0.073646
-0.051455
-0.120512
-0.046801
0.003069
0.032310
-0.013500
-0.043357
-0.012076
0.008887
0.040079
-0.022453
-0.030265
-0.022548
0.028428
0.017240
-0.030092
-0.003407
-0.008482
0.003376
-0.081076
0.056324
-0.016225
-0.011248
-0.016148
0.030389
-0.005665
-0.012985
0.050072
0.044799
0.022199
0.051885
0.094008
0.014184
0.115747
0.062579
0.018465
0.089030
0.133576
0.230111
0.178871
0.152760
0.061709
0.239774
0.134477
0.171717
0.132394
0.235632
0.127482
0.159395
0.140628
0.133914
0.154776
0.106231
0.097103
0.101582
0.120416
0.112672
0.071108
0.091995
0.034388
0.009202
0.009412
0.070242
-0.029840
0.070037
-0.017621
-0.006319
0.021786
0.033574
0.042701
-0.035236
0.002057
0.013876
0.077062
-0.016540
-0.018934
0.006295
-0.022910
-0.026418
-0.030354
-0.001748
0.089022
0.233552
0.559784
0.725552
1.072286
1.303683
1.333730
1.140229
0.870760
0.581817
0.224436
0.023250
-0.248568
-0.212817
-0.215917
-0.181143
-0.151053
0.020423
0.041845
0.012034
0.041988
0.040045
0.050139
0.027727
0.054740
0.095297
0.042754
0.069260
0.088496
0.115562
0.205504
0.133238
0.170877
0.170500
0.174700
0.150712
0.151928
0.203593
0.247692
0.293089
0.250154
0.270467
0.219883
0.315404
0.351844
0.386891
0.303974
0.371894
0.478639
0.398528
0.409867
0.420911
0.488683
0.525986
0.534308
0.506121
0.450131
0.469075
0.545489
0.490859
0.408766
0.549283
0.506453
0.520560
0.558921
0.504070
0.495707
0.462184
0.425621
0.452189
0.405653
0.380656
0.402518
0.352617
0.364207
0.263219
0.352952
0.317653
0.268169
0.227809
0.240457
0.158981
0.217743
0.235304
0.206065
0.142709
0.149607
0.097749
0.156505
0.194519
0.053213
0.086341
0.128523
0.036425
0.092279
0.129947
0.072097
0.067786
0.065025
0.104663
0.080455
0.027778
0.060551
0.114851
0.067410
0.066313
0.156659
0.086604
0.050352
0.071015
0.048791
0.087281
0.032960
0.130607
0.124205
0.063936
0.006842
0.087180
0.073605
0.069004
0.051795
0.085245
0.052605
0.019686
0.066929
0.042019
0.040600
0.082520
0.084612
0.118125
-0.002267
0.018078
0.008862
0.060473
0.033788
0.069571
0.170100
0.003259
0.047267
0.073321
0.031432
0.083014
0.063534
0.035957
0.094343
0.028112
0.065627
0.117192
0.079592
0.028437
0.073473
0.131468
0.086354
0.167649
0.052145
0.104371
0.152302
0.129738
0.074197
0.099879
0.142869
0.109354
0.130526
0.208553
0.163046
0.165628
0.241791
0.214018
0.219581
0.202482
0.204188
0.199808
0.266139
0.229919
0.210977
0.209290
0.228605
0.288273
0.236939
0.175017
0.254502
0.270637
0.139186
0.205134
0.260140
0.313296
0.182289
0.161637
0.194193
0.222171
0.187518
0.171919
0.221044
0.213690
0.113862
0.102165
0.090755
0.118988
0.091564
0.076906
0.109793
0.056883
-0.026845
0.045169
0.134666
0.077812
0.031405
0.057433
0.061638
0.074789
0.091576
0.062386
0.134221
0.101995
0.057597
0.252333
0.453939
0.752934
1.093196
1.255113
1.352177
1.287978
0.987266
0.762358
0.451818
0.117752
-0.102140
-0.150821
-0.155030
-0.088324
-0.053571
0.003851
0.025492
0.046596
0.103281
0.141668
0.113484
0.047760
0.118999
0.082284
0.169704
0.158211
0.046570
0.098369
0.105560
0.219078
0.160264
0.204617
0.225903
0.158853
0.188236
0.251569
0.170421
0.245512
0.274850
0.293918
0.371433
0.416416
0.356329
0.371737
0.447555
0.447894
0.452994
0.456665
0.468550
0.526203
0.508708
0.520176
0.590863
0.555041
0.554341
0.488825
0.677995
0.612521
0.616113
0.513926
0.469237
0.536524
0.555833
0.512661
0.487065
0.490662
0.494110
0.422715
0.440813
0.425263
0.438096
0.406716
0.414269
0.382244
0.320878
0.286305
0.240191
0.300200
0.255302
0.214953
0.269290
0.180187
0.221559
0.157697
0.141462
0.199004
0.157381
0.157261
0.190825
0.104585
0.153609
0.150246
0.147146
0.105825
0.077983
0.053073
0.147481
0.094175
0.085787
0.089036
0.062794
0.061165
-0.018392
0.114489
0.050336
0.058203
0.094486
0.055205
0.120555
0.109380
0.139641
0.060068
0.064953
0.091437
0.071006
0.055892
0.097443
-0.015058
-0.020857
-0.017690
0.018265
-0.029018
-0.056762
0.057886
0.011147
0.048823
-0.031455
0.040457
0.108792
-0.022315
-0.027842
-0.012346
0.083085
0.060065
-0.000910
0.044551
0.051860
0.015419
0.015976
0.052806
0.008953
0.053039
0.021708
0.054027
-0.021684
0.039421
0.055325
-0.040328
-0.053954
0.037992
0.035919
0.014430
0.051499
0.041695
0.019622
-0.022812
0.033141
0.082269
0.066063
0.061304
0.086283
0.132705
0.068322
0.122490
0.062722
0.071976
0.125580
0.141548
0.094025
0.117150
0.185146
0.191191
0.173507
0.160371
0.224035
0.214043
0.270433
0.250536
0.196247
0.181283
0.163279
0.149597
0.155527
0.213382
0.118033
0.134934
0.127385
0.129846
0.094048
0.159840
-0.001671
0.067761
0.020613
0.111972
-0.010008
0.085122
0.065564
-0.056303
0.101242
0.012150
0.091077
-0.019408
-0.000165
0.064230
0.036752
-0.032941
-0.012465
0.086485
-0.013131
-0.058224
-0.103446
0.000136
-0.081939
0.129787
0.304359
0.590031
0.896922
1.167181
1.276209
1.285897
1.076022
0.684173
0.422081
0.091449
-0.100820
-0.256375
-0.275849
-0.164508
-0.059651
-0.080706
-0.000158
0.032709
-0.029941
-0.028729
0.105075
0.002890
0.029657
0.054073
-0.023478
0.029722
0.061437
0.097940
0.040986
-0.014780
0.041539
0.091564
0.049345
0.151676
0.081782
0.177744
0.113889
0.204045
0.155359
0.191084
0.182681
0.227460
0.193773
0.298367
0.272918
0.355413
0.362725
0.291981
0.401776
0.336865
0.355787
0.358121
0.418442
0.451208
0.344441
0.396145
0.461903
0.433266
0.451244
0.488816
0.436360
0.413739
0.431677
0.417805
0.429763
0.248766
0.359494
0.371281
0.308130
0.421032
0.355307
0.290920
0.269569
0.205456
0.192501
0.263085
0.233790
0.139517
0.187398
0.148286
0.168610
0.132539
0.022039
0.028335
0.107620
0.079502
0.064985
0.075825
-0.011594
0.024592
0.001466
-0.000468
0.007932
0.027772
-0.045851
-0.007132
-0.015369
-0.048495
-0.026789
-0.013323
-0.071389
-0.060637
-0.050561
-0.108576
-0.075443
-0.053601
-0.120329
-0.049811
-0.050145
-0.117841
-0.088200
-0.006935
-0.033852
-0.112419
-0.024504
-0.085769
-0.049743
-0.058669
0.009381
-0.056403
-0.088750
-0.057563
-0.033805
-0.093237
-0.081325
-0.077545
-0.023150
-0.083409
-0.039608
-0.047169
-0.062838
-0.117274
-0.046940
-0.140811
-0.083570
-0.048684
-0.065532
-0.071395
-0.109306
-0.108812
-0.088753
-0.110255
-0.118166
-0.043077
-0.022048
-0.096297
-0.041846
-0.146919
-0.119178
-0.114953
-0.035259
-0.117280
-0.026945
-0.090803
-0.050203
-0.070457
-0.081590
-0.027809
-0.049120
-0.120452
-0.020013
0.018161
0.013665
-0.000237
0.049065
0.035789
0.027702
0.092723
0.024181
0.110251
0.054273
-0.057456
0.068984
0.084883
0.120837
0.087608
0.105939
0.070690
0.121782
0.070499
0.093892
0.137200
0.128626
-0.002324
0.074307
0.006485
-0.010454
-0.017755
-0.009309
0.040291
0.037379
-0.094967
-0.025582
-0.059863
-0.087173
-0.030223
-0.094935
-0.061895
-0.099904
-0.075323
-0.108000
-0.165714
-0.068381
-0.072244
-0.075710
-0.072458
-0.047223
-0.055120
-0.135232
-0.068998
-0.093647
-0.056466
-0.127633
0.024011
0.231740
0.423850
0.728740
1.068274
1.260466
1.232604
1.088165
0.795649
0.388545
0.153427
-0.147062
-0.361822
-0.397233
-0.299063
-0.274118
-0.135503
0.019575
-0.088416
-0.112163
-0.075834
-0.079849
-0.011333
-0.084336
-0.086499
-0.023425
0.001077
-0.093110
-0.008419
0.019642
-0.014840
0.060758
0.084542
-0.033806
0.145975
0.059178
0.061916
0.175054
0.052076
0.105331
0.126007
0.158482
0.176243
0.230744
0.296461
0.276036
0.211943
0.257812
0.362892
0.325413
0.275327
0.352931
0.421470
0.323190
0.448542
0.462975
0.429550
0.469311
0.487944
0.386272
0.390154
0.428436
0.477218
0.267341
0.363480
0.356387
0.354190
0.377734
0.307469
0.305434
0.282143
0.297107
0.290097
0.285256
0.246882
0.247809
0.219670
0.216034
0.116921
0.219593
0.150089
0.122212
0.139648
0.084153
0.106012
0.061834
-0.066738
-0.004363
0.077674
0.049690
0.007764
-0.020529
-0.021625
0.041103
-0.050182
-0.073721
0.007731
-0.017187
-0.025281
-0.032976
-0.106642
-0.018023
-0.050330
-0.013796
0.006798
0.004445
-0.053139
-0.002099
-0.071856
0.027841
-0.088735
-0.008507
-0.030007
-0.012462
0.039115
-0.015718
-0.070570
-0.014920
-0.043674
0.042614
-0.069996
-0.056732
0.051395
0.029618
0.003474
-0.050527
0.014448
-0.031998
0.033021
-0.079688
-0.006590
-0.049022
-0.007587
-0.045733
-0.018741
-0.016241
-0.033434
-0.059450
-0.008788
-0.050541
-0.047785
-0.089626
-0.035134
-0.003661
-0.018927
-0.162153
0.018403
-0.069137
0.001058
0.028566
-0.011357
-0.026857
-0.024998
-0.009023
-0.045462
-0.025523
0.075508
-0.043047
-0.017875
0.008882
0.003031
0.060482
0.054823
0.040761
0.025074
0.081876
0.110269
0.105389
0.071434
0.127867
0.088079
0.115829
0.164408
0.118852
0.128213
0.144839
0.176816
0.208403
0.151093
0.234777
0.177301
0.102835
0.147241
0.108193
0.211185
0.065541
0.077161
0.043763
0.148405
0.058382
0.090991
0.077993
0.124529
0.059906
0.021511
0.063366
0.008997
-0.005163
0.099145
0.034335
0.000254
0.015233
-0.016379
0.040220
0.030833
0.027206
-0.029948
0.038142
-0.028443
0.010350
-0.005961
-0.060126
-0.029958
-0.022912
0.057963
0.168460
0.445003
0.753241
1.170163
1.239374
1.360238
1.232058
0.939346
0.598774
0.297399
0.010116
-0.101354
-0.198626
-0.234675
-0.146577
-0.023733
-0.012813
-0.049355
0.056235
0.057917
0.059290
0.109063
0.035679
0.095323
0.129120
0.042874
0.033757
0.090039
0.125062
0.173261
0.102976
0.145954
0.110956
0.169077
0.176822
0.287042
0.168773
0.202026
0.167268
0.296125
0.227482
0.252487
0.369415
0.340782
0.304115
0.365028
0.434310
0.392984
0.450997
0.376353
0.458258
0.482628
0.451372
0.546670
0.511876
0.457405
0.503017
0.543295
0.522014
0.475062
0.425520
0.446892
0.476267
0.440520
0.443637
0.489693
0.499120
0.559869
0.522152
0.416850
0.479433
0.414151
0.329972
0.344459
0.312810
0.189182
0.246207
0.298067
0.207133
0.194574
0.187112
0.242815
0.194569
0.159554
0.085066
0.149384
0.174942
0.119335
0.187699
0.132340
0.103217
0.043023
0.092285
0.076082
0.075326
0.026481
0.028608
0.100767
-0.010217
0.056292
0.148926
0.061627
0.100000
0.068687
0.090842
0.109369
0.097477
0.027785
-0.003829
0.030773
0.043157
0.076584
0.011063
0.015457
0.012396
0.104932
0.039463
0.021641
-0.006563
0.023080
-0.025862
0.091204
0.120600
0.070529
0.056611
0.021894
-0.006837
0.060392
0.058563
0.085879
0.056682
0.063241
0.084900
0.019870
0.093790
0.074673
0.077245
0.034306
0.031352
0.093363
0.044107
-0.053026
0.019693
0.020051
0.055432
0.028522
-0.013461
0.117030
0.077745
0.092239
0.005287
0.000413
0.013421
0.010623
0.092293
-0.019484
0.057345
0.032888
0.052036
0.039633
0.134906
0.107682
0.112510
0.174312
0.073832
0.115262
0.040988
0.133848
0.174920
0.218700
0.136424
0.110032
0.127734
0.264280
0.098939
0.222889
0.207122
0.215671
0.126623
0.166739
0.207108
0.126824
0.135806
0.238287
0.197683
0.124859
0.145610
0.106013
0.088685
0.137158
0.109219
0.035453
0.096683
0.074512
0.009646
0.081744
0.064976
0.099365
0.066674
0.055717
-0.002652
0.006066
0.087898
0.086071
0.026178
0.068846
0.018248
0.009906
0.082752
-0.017820
0.022362
-0.019323
-0.026931
0.015743
0.178543
0.430517
0.631224
0.983859
1.248577
1.309488
1.220594
1.110786
0.660600
0.311413
0.065231
-0.150050
-0.165734
-0.285890
-0.163822
-0.095399
-0.012343
0.054789
-0.021858
0.079329
0.011120
0.138047
0.011661
0.058415
0.053074
0.048918
0.118168
0.053896
0.037180
0.195799
0.089192
0.071351
0.135618
0.145154
0.119545
0.137160
0.212769
0.227674
0.192242
0.216155
0.166734
0.261445
0.187230
0.264379
0.254149
0.296294
0.332683
0.345658
0.401209
0.451989
0.421261
0.496456
0.362045
0.412113
0.379975
0.468817
0.462934
0.471961
0.512846
0.452956
0.409637
0.379686
0.479765
0.490731
0.475307
0.453676
0.398299
0.475349
0.416371
0.319821
0.343675
0.389305
0.303248
0.345228
0.295151
0.259176
0.252596
0.268866
0.211040
0.262576
0.185930
0.108692
0.119194
0.068695
0.145414
0.155927
0.033400
-0.015750
0.009383
0.046637
-0.023316
-0.029485
0.063402
-0.030648
-0.010259
-0.001114
0.015147
-0.051547
-0.022543
0.052187
-0.020503
-0.011037
-0.056251
0.033699
-0.014474
-0.063199
-0.004822
-0.021974
-0.055091
-0.004800
0.020766
0.004132
0.015334
0.006073
-0.056038
-0.068816
0.002932
-0.084736
-0.040758
0.013775
-0.010593
0.019273
-0.017635
-0.108957
-0.074667
-0.065712
-0.062071
-0.100006
0.041841
-0.074797
0.030615
-0.056691
-0.056822
-0.080155
-0.028404
0.060309
-0.051123
-0.042375
-0.057328
0.069695
-0.067175
-0.024360
-0.020609
-0.043655
-0.129452
-0.023798
-0.062759
-0.118665
-0.022957
-0.032104
-0.100202
-0.079557
-0.071358
-0.036811
-0.055302
-0.082179
-0.074895
-0.000266
-0.032022
-0.040945
-0.009641
0.004753
0.014094
0.059431
-0.035717
0.050287
-0.026138
0.059406
-0.025350
0.086025
0.090105
0.079370
0.093154
0.153221
0.030119
0.104265
0.065273
0.117983
0.098128
0.049047
0.097266
0.049765
0.095321
0.000467
0.045115
-0.036194
-0.019021
0.055886
0.038252
-0.053462
-0.043545
-0.054090
-0.028860
0.022301
-0.061017
-0.110686
-0.056147
-0.051473
-0.146745
-0.096551
-0.091752
-0.064707
-0.112109
-0.100319
-0.033196
-0.084115
-0.064770
-0.104950
-0.075579
-0.011395
-0.091625
-0.095909
-0.140002
-0.014530
0.071939
0.207456
0.458301
0.792386
0.993971
1.219028
1.202779
1.045283
0.733973
0.384637
-0.000202
-0.222599
-0.286335
-0.317500
-0.324350
-0.282159
-0.131330
-0.097295
-0.093609
-0.096315
0.017394
-0.053478
-0.036304
-0.052931
-0.052838
0.054390
-0.071850
-0.042653
-0.037172
-0.053011
0.054383
-0.086536
0.031062
-0.034897
-0.047891
0.090186
0.014671
0.011128
0.036353
0.140279
0.072166
0.085666
0.170525
0.214719
0.216179
0.247079
0.322118
0.243155
0.309547
0.226242
0.381431
0.326947
0.406068
0.298171
0.417313
0.400209
0.372364
0.358012
0.371144
0.381091
0.443795
0.382571
0.362244
0.355675
0.402345
0.368099
0.293651
0.380566
0.353949
0.272436
0.303976
0.307023
0.215309
0.202365
0.271471
0.184624
0.194151
0.138519
0.096514
-0.043578
0.024940
0.086431
0.087153
-0.012109
0.040468
0.025340
-0.037017
-0.061319
-0.136583
-0.039248
-0.010196
-0.035273
-0.091689
-0.065653
-0.055865
-0.105586
-0.112380
-0.072698
-0.073457
-0.087965
-0.039689
-0.004634
-0.106102
-0.145195
-0.095123
-0.131991
-0.109806
-0.033094
-0.020614
-0.113001
-0.046667
-0.013097
-0.088524
-0.120066
-0.046671
-0.132094
-0.064529
-0.047761
-0.141933
-0.057816
-0.109214
-0.222655
-0.128731
-0.101132
-0.073197
-0.076687
-0.090787
-0.011385
-0.101634
-0.101505
-0.097394
-0.006367
0.000146
-0.081662
-0.044529
-0.083261
-0.122283
-0.109483
-0.155079
-0.068730
-0.118954
-0.059630
-0.040456
-0.129162
-0.002206
-0.070104
-0.006902
0.011806
-0.070711
-0.103794
-0.035368
-0.124260
-0.083796
-0.090032
-0.092838
0.050721
-0.056168
-0.162371
-0.067236
-0.082771
-0.014163
-0.025306
0.040524
-0.000148
-0.014872
0.004628
0.072009
-0.002943
-0.018650
0.044408
0.037910
0.028453
0.043618
0.083384
0.090264
0.117117
0.126726
0.119624
0.125625
0.101325
0.189203
0.123109
0.036229
0.087939
0.112057
0.101930
0.071996
0.037122
-0.030299
0.045630
0.003867
-0.006557
-0.048249
-0.003941
-0.013047
-0.042581
0.023843
-0.044409
0.094631
0.043337
-0.002878
-0.027063
-0.112310
-0.000549
-0.025625
-0.072722
-0.019703
-0.035970
-0.065762
-0.018430
-0.076554
-0.053439
-0.060030
-0.092711
-0.005408
0.248485
0.469098
0.855765
1.056787
1.312425
1.304621
1.140251
0.807395
0.521073
0.129571
-0.111212
-0.175875
-0.344484
-0.310048
-0.171546
-0.144106
-0.063836
-0.044634
0.009823
-0.001920
-0.038780
-0.028105
0.007555
-0.041586
-0.016533
0.015608
0.051947
-0.000383
-0.019962
-0.026710
0.012663
0.048504
0.028900
-0.004330
0.163549
-0.008004
0.168857
0.053068
0.179469
0.247780
0.214138
0.252449
0.250562
0.246158
0.317970
0.376411
0.280850
0.345742
0.394005
0.414045
0.412550
0.429559
0.442170
0.414008
0.517013
0.459859
0.404199
0.460730
0.451845
0.538637
0.457802
0.452818
0.372129
0.410993
0.465610
0.458492
0.424196
0.460632
0.410387
0.341393
0.327409
0.337947
0.317168
0.314665
0.300833
0.289394
0.203663
0.216612
0.251214
0.205651
0.146312
0.150494
0.114767
0.158529
0.080313
0.127275
0.141851
0.054291
0.084367
0.036580
-0.000305
0.055166
0.008788
0.080415
0.055855
0.049128
-0.002663
0.062726
0.004152
0.065140
0.088122
0.008450
0.068984
0.060194
0.054602
-0.059013
-0.012867
0.094948
0.055667
0.041173
-0.005189
0.068824
0.044775
-0.036849
0.029083
0.037466
-0.010757
0.091373
0.006288
0.016955
0.043727
0.020333
0.054913
0.020255
0.064172
-0.004769
0.082070
-0.003804
0.063799
0.086463
0.015907
0.084202
-0.024054
0.038442
0.005554
0.020634
0.080298
0.046701
0.055429
0.043979
-0.025323
0.068497
0.015030
0.097857
0.000826
0.085235
0.071831
0.098048
0.102151
0.070235
0.015494
0.028638
0.051427
0.005393
0.113004
-0.015355
0.100126
0.051214
0.082932
0.159615
0.153913
0.169871
0.116545
0.181732
0.163028
0.128922
0.067893
0.150646
0.162910
0.076130
0.130305
0.160362
0.275739
0.186610
0.242826
0.283803
0.232554
0.245958
0.225302
0.201979
0.190121
0.141786
0.231806
0.115031
0.074147
0.217108
0.147945
0.189045
0.109419
0.074423
0.158832
0.104621
0.067856
0.150044
0.107340
0.061776
0.107888
0.200326
0.095972
0.034327
0.069806
0.047670
0.117540
0.040858
0.009743
0.107065
0.095129
0.043049
0.102150
0.136486
0.029627
0.061315
0.118482
0.095145
0.217227
0.446126
0.734790
1.105399
1.281003
1.500000
1.368179
1.014523
0.770203
0.360191
0.063193
-0.094315
-0.158817
-0.208304
-0.023954
-0.013932
0.114383
0.085328
0.055671
0.074508
0.123206
0.063492
0.049940
0.111545
0.087599
0.088762
0.027533
0.096640
0.116916
0.160940
0.186137
0.128952
0.179366
0.191315
0.190542
0.163338
0.266766
0.231678
0.224772
0.217895
0.312309
0.265723
0.387147
0.382819
0.361403
0.448546
0.422660
0.465612
0.475544
0.500060
0.466903
0.442234
0.551294
0.544263
0.537892
0.501896
0.614358
0.625771
0.558004
0.552702
0.600946
0.551727
