0.042032
-0.080388
0.008326
-0.015451
-0.054392
-0.000938
0.046296
-0.024216
0.024148
-0.011715
-0.030815
-0.080715
0.061457
0.001115
-0.039546
0.066069
0.043640
0.029170
0.125985
0.043221
0.009393
0.170014
0.093389
-0.056202
0.108840
0.027742
0.109232
0.034118
0.203643
0.011877
0.201303
0.137201
0.087469
0.100937
0.130037
0.119067
0.147054
0.144761
0.137340
0.097958
0.221082
0.202979
0.167505
0.201808
0.193156
0.248454
0.157271
0.175528
0.173128
0.163262
0.179177
0.184282
0.217652
0.140923
0.160628
0.132382
0.110318
0.129236
0.084864
0.055772
0.097592
0.079157
-0.002537
0.001103
0.055450
0.078241
-0.009481
0.046390
0.029869
-0.060139
0.022762
0.040212
0.112324
0.092185
0.046828
0.085961
-0.003315
0.099880
-0.035990
0.038145
0.014869
0.151537
0.222524
0.398234
0.707759
1.055434
1.300417
1.410064
1.382590
0.960665
0.694827
0.429351
0.083233
-0.111022
-0.271934
-0.154815
-0.137072
-0.061768
-0.018411
-0.046114
0.070989
0.052275
0.073186
0.044746
0.072242
0.082045
0.095609
0.085307
0.164806
0.147841
0.138131
0.144893
0.122143
0.120294
0.219368
0.160009
0.155178
0.201868
0.284533
0.258809
0.296843
0.215563
0.205489
0.292962
0.288934
0.371135
0.333253
0.293813
0.373621
0.464776
0.407411
0.459130
0.408940
0.478901
0.555224
0.520724
0.454349
0.513198
0.548877
0.606778
0.531168
0.578905
0.619454
0.557048
0.635117
0.604661
0.526099
0.535935
0.523133
0.494086
0.493801
0.432897
0.401376
0.418826
0.482021
0.357468
0.334917
0.347266
0.359188
0.410532
0.253413
0.258675
0.354416
0.247389
0.266060
0.246816
0.234493
0.235456
0.249860
0.215642
0.148844
0.113807
0.209247
0.193453
0.187214
0.097999
0.128657
0.121756
0.141977
0.146390
0.062791
0.112411
0.040324
0.161848
0.092737
0.042619
0.076584
0.106770
0.162511
0.109023
0.133956
0.199199
0.045049
0.098739
0.106501
0.101710
0.123520
0.080467
0.086351
0.133075
0.126801
0.050346
0.105880
0.164539
0.146078
0.078705
0.135196
0.082860
0.081485
0.085731
0.041825
0.109764
0.103929
-0.009397
0.100463
0.063339
0.029940
0.085642
0.094724
0.086151
0.080540
0.130193
0.152357
0.058987
0.037733
0.067695
0.102253
0.077169
0.114047
0.029556
0.146584
0.113918
0.081451
0.098898
0.039097
0.101519
0.130501
0.143618
0.106414
0.138817
0.096258
0.202661
0.127311
0.125175
0.104540
0.119628
0.097108
0.091495
0.148780
0.153982
0.174847
0.175443
0.181443
0.182087
0.167174
0.189657
0.283206
0.196246
0.228732
0.296753
0.183536
0.227022
0.253376
0.216186
0.241093
0.208660
0.158779
0.157957
0.195694
0.305374
0.242141
0.252380
0.185308
0.184248
0.187830
0.065380
0.127806
0.090749
0.044482
0.116430
0.202823
0.041020
0.051775
0.088410
0.047761
0.104130
0.003588
-0.011023
0.028939
0.087395
0.044879
0.114941
0.101238
0.138237
0.069936
0.062145
0.056033
0.091877
0.070420
0.080221
0.293633
0.582571
0.974749
1.262930
1.401621
1.381273
1.188648
0.819131
0.520346
0.219776
0.000704
-0.134434
-0.118209
-0.159626
-0.143373
-0.055392
-0.031113
0.145811
0.058833
-0.074025
0.104226
0.067627
0.060861
0.108572
0.021074
0.085723
0.093717
0.072080
0.104434
0.150056
0.118243
0.126038
0.123995
0.141523
0.201447
0.225315
0.202028
0.185807
0.200185
0.281564
0.216735
0.331473
0.386956
0.316007
0.394419
0.358080
0.399575
0.394284
0.482621
0.444723
0.441321
0.488914
0.477895
0.543951
0.514839
0.520074
0.550396
0.569650
0.501318
0.538177
0.550554
0.543486
0.488333
0.494997
0.531056
0.496175
0.404145
0.512433
0.444399
0.405889
0.400385
0.382632
0.310351
0.320538
0.279223
0.276742
0.231033
0.264339
0.206127
0.205418
0.182899
0.140355
0.153169
0.224281
0.174793
0.084713
0.136068
0.096527
0.028964
0.140663
0.051230
0.020322
0.002683
0.054419
0.042397
0.114923
0.054917
-0.009165
0.046124
0.062622
0.016558
0.013664
-0.030474
-0.034993
-0.013124
-0.010115
-0.042879
-0.027042
0.013109
-0.036337
-0.023071
-0.021726
-0.052284
-0.019496
0.022437
-0.005076
-0.013882
-0.057425
-0.083735
-0.037619
0.022353
-0.028188
0.011330
0.026638
-0.039388
-0.041984
-0.050728
-0.006525
0.080347
-0.019653
-0.042466
0.006285
0.014798
-0.123818
-0.012610
0.023722
-0.047885
-0.010295
-0.029001
0.034837
0.014641
0.012917
0.028349
0.097273
0.006895
-0.041404
0.015725
0.007134
-0.077270
-0.035645
0.030660
-0.053881
-0.059639
-0.004745
0.105505
-0.030648
-0.012418
0.031046
0.033338
-0.035662
-0.051493
0.036651
0.073470
-0.073473
0.041666
0.029584
0.044987
0.028486
0.129027
0.064010
0.076685
0.131800
0.054156
0.200331
0.096622
0.198487
0.082935
0.184353
0.152532
0.163293
0.124283
0.109478
0.092080
0.178565
0.135614
0.037594
0.120027
0.037547
0.066726
0.092667
0.017631
0.036036
0.004133
0.057462
-0.063751
0.024779
-0.046001
0.068138
0.031946
0.072905
-0.043658
-0.021275
0.046600
-0.042479
-0.063689
-0.134817
0.003972
0.002821
-0.034464
-0.082942
-0.090037
-0.042174
-0.074013
-0.057030
-0.113913
0.010839
-0.075506
0.112997
0.395210
0.685442
1.010904
1.332712
1.306590
1.170914
0.897242
0.570609
0.234712
-0.080551
-0.169176
-0.301903
-0.248434
-0.224816
-0.104049
-0.122941
-0.040457
-0.001140
-0.035528
-0.005233
-0.018502
-0.065614
-0.058153
0.007790
0.032666
0.040597
0.037764
-0.006289
-0.034981
0.025785
-0.046998
0.054071
0.075704
0.098703
0.141357
0.132676
0.105142
0.083915
0.191171
0.194498
0.197734
0.288517
0.245101
0.231323
0.313138
0.288120
0.331923
0.271198
0.327373
0.313846
0.409649
0.327486
0.435537
0.352517
0.409789
0.392415
0.419765
0.469549
0.468633
0.463156
0.447402
0.479896
0.416913
0.375855
0.384656
0.399988
0.374507
0.378963
0.292341
0.315354
0.396882
0.284118
0.284984
0.278102
0.275690
0.168038
0.154781
0.202754
0.220789
0.191075
0.145130
0.171516
0.159083
0.147761
0.134897
0.059323
0.012335
0.040820
0.026236
0.059575
0.065409
-0.034509
-0.017576
-0.017470
-0.048997
-0.025757
-0.045522
0.059077
-0.036333
0.031342
-0.001696
-0.119516
-0.036700
0.008040
-0.052045
0.016025
-0.048656
-0.014692
-0.079394
0.064884
-0.008438
0.014526
0.019823
0.004233
0.051234
-0.102662
-0.018294
-0.030858
0.040935
0.005126
0.040611
-0.063012
-0.044452
-0.088148
-0.058274
-0.069990
-0.027155
0.050135
0.001526
0.008169
-0.032783
-0.050774
-0.066103
-0.028712
-0.051778
-0.051470
-0.027916
-0.042773
0.027940
-0.075038
-0.033252
-0.040409
0.018008
0.025069
-0.028950
-0.003301
-0.038892
-0.018787
-0.031939
0.007228
-0.053608
-0.092710
-0.016258
-0.028144
0.046766
-0.006523
0.022053
0.002163
-0.014958
0.009014
0.074420
0.065125
0.089072
0.087837
0.045633
0.156150
0.035407
0.113543
0.090159
0.128981
0.207752
0.166351
0.147929
0.187781
0.096373
0.141029
0.212237
0.151833
0.105001
0.151285
0.173815
0.161775
0.200791
0.118351
0.120981
0.076876
0.177791
0.095590
0.060811
0.169903
0.006632
0.098375
0.139209
0.076534
0.082394
0.061375
0.012720
0.004761
0.076684
0.047156
-0.029926
0.011380
-0.020100
0.038161
0.018580
0.046463
0.001378
0.010150
0.062905
-0.070530
0.017015
0.023815
-0.024322
-0.071189
-0.020530
0.027841
0.162409
0.362738
0.646109
1.063197
1.248944
1.354324
1.349287
1.120308
0.738253
0.477510
0.083237
-0.097071
-0.280784
-0.287943
-0.177176
-0.135441
-0.061952
-0.058738
-0.000429
0.079839
0.041832
-0.022293
0.083093
0.076433
0.024785
0.063227
0.017294
0.123792
0.026451
0.135602
0.069775
0.052018
0.076750
0.139481
0.168564
0.181055
0.168918
0.235140
0.205642
0.220119
0.276353
0.252141
0.273625
0.225801
0.338773
0.315599
0.367838
0.342736
0.395880
0.382608
0.421986
0.484615
0.480099
0.442233
0.472309
0.488611
0.537001
0.532185
0.559692
0.566834
0.551275
0.651808
0.551219
0.476542
0.523264
0.500579
0.594938
0.476989
0.448933
0.428976
0.384337
0.480405
0.386973
0.436897
0.348569
0.366793
0.312442
0.297157
0.242400
0.321567
0.281399
0.170643
0.205479
0.144134
0.166566
0.217658
0.137027
0.157291
0.139787
0.045800
0.168709
0.234025
0.081566
0.060802
0.107957
0.104410
0.062803
0.067766
0.103281
0.073689
0.031531
0.100215
0.049968
0.030459
0.122688
0.036438
0.055087
0.035485
0.048550
0.079410
0.102068
0.055660
0.067202
0.118473
0.019684
0.072051
0.111565
0.055460
0.103397
0.081590
0.141427
0.032241
-0.005107
0.029322
0.033743
0.092340
0.138440
0.136867
0.090681
0.012473
0.063601
0.074574
0.059801
0.089872
0.078262
0.117058
0.032802
0.062080
0.103453
0.145195
0.106902
0.003458
0.113674
0.096301
0.109770
0.068446
0.066953
0.126078
0.140247
0.090321
0.062466
0.091044
0.034304
0.093686
0.045548
0.109657
0.086404
0.217907
0.104706
0.085533
0.179615
0.128266
0.128495
0.071274
0.098638
0.128374
0.199424
0.241534
0.166462
0.217736
0.134038
0.268088
0.177012
0.257119
0.279321
0.248009
0.295686
0.210515
0.304709
0.136454
0.208843
0.227989
0.314809
0.256183
0.305856
0.193440
0.193468
0.196138
0.241358
0.195405
0.134712
0.228156
0.201143
0.121749
0.182483
0.080931
0.223402
0.113709
0.078215
0.154923
0.077780
0.044573
0.078042
0.154103
0.118854
0.074599
0.072264
0.086542
0.094721
0.065631
0.067315
0.024443
0.103551
0.087987
0.051985
0.011673
0.107562
0.124544
0.316569
0.614995
0.957042
1.248274
1.428458
1.500000
1.354250
0.918900
0.682926
0.300529
0.028480
-0.042479
-0.048725
-0.137424
-0.101958
-0.002750
0.112376
0.080535
0.073282
0.125340
0.091300
0.094046
0.068013
0.121805
0.096716
0.181144
0.147088
0.090904
0.212659
0.173206
0.128906
0.111625
0.220885
0.123165
0.226194
0.216679
0.304247
0.263272
0.297019
0.297674
0.221938
0.263877
0.384522
0.412346
0.404690
0.383917
0.411257
0.445419
0.477974
0.476348
0.456635
0.618373
0.504416
0.507592
0.486792
0.598007
0.589553
0.563380
0.584718
0.463096
0.669929
0.561860
0.495528
0.482893
0.465388
0.587111
0.568285
0.468084
0.530317
0.483915
0.456275
0.421871
0.405768
0.415503
0.421994
0.330919
0.325968
0.345057
0.234523
0.335829
0.278199
0.261251
0.241972
0.187042
0.184883
0.147085
0.182881
0.186401
0.144398
0.045592
0.125887
0.177520
0.128856
0.160378
0.129097
0.082122
0.054831
0.136776
0.136501
0.037043
0.071553
0.038422
0.073724
0.067923
0.028178
0.134229
0.010471
0.052500
0.066331
0.061624
0.031445
0.026272
0.003464
0.139093
0.030843
0.076282
0.039789
0.041495
0.025751
0.010166
0.031322
0.002051
0.081530
0.037767
0.055537
0.045237
0.080146
0.009341
0.069782
0.067678
0.026921
-0.002249
-0.033566
0.047572
0.009658
-0.014204
0.002877
-0.004716
0.063318
-0.006138
0.048081
0.064553
0.099084
0.038565
0.063370
0.072825
-0.003614
0.043943
0.018832
0.055347
0.094087
0.051938
0.072446
0.064810
-0.016323
-0.046941
0.013376
0.102906
0.011173
0.033771
0.043468
0.065122
0.050795
0.113173
0.049297
0.021644
0.129442
0.097838
0.133676
0.082059
0.182931
0.202439
0.159247
0.100205
0.207576
0.164881
0.208729
0.167985
0.192603
0.200232
0.201003
0.136436
0.205857
0.174004
0.125313
0.164142
0.141549
0.028357
0.098364
0.054002
0.138881
0.139422
0.067841
0.102332
0.037780
0.069715
0.040487
0.019894
0.056020
-0.008606
0.009663
-0.087788
0.054056
0.070013
-0.009589
-0.032768
-0.013661
0.020607
-0.031855
-0.063268
-0.070130
0.022955
0.014428
0.037624
-0.061228
-0.037427
-0.036770
0.194077
0.368828
0.662156
1.012266
1.192716
1.395742
1.269407
1.020105
0.616777
0.298838
-0.035448
-0.169678
-0.331413
-0.250201
-0.309536
-0.074293
-0.072332
-0.064116
-0.053660
-0.023106
-0.044009
-0.056204
-0.022884
-0.024620
-0.031584
0.020881
-0.030959
0.044651
0.032446
0.030772
0.032581
0.049869
0.040134
0.084041
0.082564
0.057160
0.116058
0.158639
0.117405
0.160739
0.187932
0.194644
0.214163
0.277249
0.309095
0.350418
0.293928
0.316547
0.379289
0.415079
0.287692
0.441845
0.370754
0.351230
0.427545
0.442556
0.473076
0.483796
0.497121
0.407470
0.447064
0.501311
0.381820
0.476411
0.441042
0.468029
0.445541
0.362489
0.383604
0.366122
0.285033
0.273335
0.266203
0.314247
0.269140
0.229343
0.282860
0.153052
0.238158
0.115977
0.162983
0.185513
0.025954
0.031992
0.116778
0.069733
0.037041
0.035265
-0.013190
0.082944
-0.038234
-0.061800
-0.103478
0.040662
-0.007061
-0.057448
-0.044546
-0.024467
-0.055771
-0.053651
-0.090302
-0.005566
-0.111336
-0.083940
-0.031941
-0.127767
-0.108679
-0.115624
-0.050546
-0.043743
-0.070933
-0.017347
-0.015979
-0.107642
-0.049395
-0.073609
-0.107955
-0.067520
-0.121600
-0.027573
-0.083619
-0.060136
-0.145902
-0.089661
-0.112530
-0.064242
-0.066030
-0.103958
-0.031940
-0.038316
-0.128706
-0.096819
-0.074914
-0.042976
-0.087359
-0.084599
-0.115755
-0.090560
-0.100119
-0.085928
-0.095021
0.010451
-0.003975
-0.060404
-0.078351
-0.066170
-0.076418
-0.122159
-0.066483
-0.155313
-0.110943
-0.039189
-0.025556
-0.146993
-0.088541
-0.088214
-0.135343
0.048399
0.009164
-0.040832
-0.110029
-0.041630
-0.103200
-0.046746
-0.112394
-0.094492
0.101042
-0.011583
0.023968
0.031961
0.044799
0.066296
0.016826
0.064055
0.005443
0.088543
0.103471
0.128402
0.138207
0.073623
0.156553
0.024051
0.016462
0.100785
0.004174
0.033708
0.073357
0.034405
-0.008732
-0.022512
0.025232
-0.035380
-0.022881
-0.057486
0.046322
-0.061447
-0.033261
-0.065397
-0.062526
-0.092666
-0.106241
-0.102845
-0.054524
-0.021720
0.002167
-0.008675
-0.075125
-0.145851
0.015131
-0.074141
-0.078991
-0.055847
-0.104294
-0.118010
-0.103676
-0.119500
-0.079782
0.094232
0.215860
0.525341
0.887687
1.112991
1.258824
1.300024
1.127223
0.765299
0.380570
0.082496
-0.200508
-0.358527
-0.362829
-0.314034
-0.210658
-0.069106
-0.090419
-0.039991
-0.134853
-0.099677
-0.070280
0.026104
-0.048191
-0.022015
0.053178
-0.015244
-0.057991
0.046007
0.004107
0.038464
0.058744
-0.068338
-0.022865
0.045189
0.030318
0.064582
0.080010
0.131469
0.140249
0.183731
0.142856
0.108103
0.238946
0.309420
0.260041
0.302826
0.303461
0.345998
0.286943
0.358948
0.355149
0.421318
0.357761
0.504633
0.492836
0.425268
0.496556
0.372529
0.504458
0.472268
0.427715
0.437013
0.438257
0.458545
0.454165
0.390322
0.339236
0.378272
0.372216
0.323413
0.369134
0.177706
0.292245
0.275176
0.293570
0.246715
0.223376
0.129651
0.147019
0.137433
0.147807
0.092626
0.101543
0.026704
0.076179
-0.001111
0.051003
0.072958
-0.006859
-0.087250
0.044115
-0.009579
0.023121
0.045863
-0.086354
0.020628
-0.006595
0.005647
0.028858
-0.029858
-0.031337
0.057696
-0.043912
-0.006562
-0.106977
0.002394
-0.046276
-0.038389
-0.067428
-0.070489
0.002430
0.041740
0.014604
-0.060400
-0.034117
-0.025035
-0.009473
-0.039365
-0.090093
-0.004070
-0.073102
-0.039886
0.006540
-0.032545
-0.001895
0.014247
0.021390
-0.083623
-0.042669
-0.045082
0.039884
0.068588
-0.070862
-0.003511
0.005108
-0.007210
0.045699
-0.011118
0.022871
-0.022216
0.034845
0.044273
-0.014694
0.009513
0.018180
0.040563
0.022485
-0.002545
0.028280
-0.034654
-0.005474
-0.025574
0.058208
-0.039013
-0.017421
0.038063
0.017506
0.005789
-0.022143
0.108865
0.072727
0.031461
0.075824
0.081929
0.036349
0.091905
0.005758
0.086383
0.108695
0.159003
0.125473
0.120633
0.190369
0.119735
0.120304
0.010306
0.154403
0.158540
0.232155
0.229868
0.221278
0.148165
0.147595
0.179204
0.128210
0.148057
0.204401
0.148755
0.189308
0.101607
0.107325
0.132223
0.143066
0.056305
0.027541
0.002444
0.121573
0.066493
0.038350
0.025905
0.090262
-0.027606
0.029999
0.037260
0.045990
0.017614
0.091469
0.091846
0.060279
0.064900
0.041746
0.069889
0.053414
0.046521
-0.015274
0.044138
-0.027865
0.193071
0.476436
0.787172
1.193106
1.347886
1.341263
1.251123
0.990979
0.650349
0.284200
0.043572
-0.174555
-0.181503
-0.280128
-0.227217
-0.117735
-0.012107
0.001263
0.102267
-0.000653
0.057817
0.061752
0.135488
0.059541
0.122673
0.063875
0.084683
0.011761
0.197776
0.077940
0.073085
0.164941
0.043286
0.061187
0.189960
0.145056
0.202825
0.224471
0.195173
0.249006
0.191199
0.337557
0.294484
0.245048
0.388648
0.295820
0.388043
0.353412
0.445016
0.423876
0.482129
0.503359
0.460674
0.437189
0.462806
0.459977
0.617638
0.497395
0.528819
0.491929
0.552961
0.505359
0.562251
0.485163
0.511012
0.537832
0.520716
0.466683
0.477146
0.496054
0.456211
0.326701
0.389366
0.350007
0.338625
0.384251
0.286524
0.260750
0.279949
0.302106
0.194623
0.171763
0.115048
0.249090
0.147861
0.175826
0.155859
0.137501
0.157665
0.110075
0.084616
0.088117
0.044251
0.120210
-0.018256
0.106612
0.102344
-0.002271
-0.019383
0.125728
0.101810
0.073533
-0.007291
0.055069
0.113301
0.003261
0.038030
0.051986
0.101342
-0.002176
0.028573
0.070909
0.023709
0.084225
0.105856
0.028577
0.030637
0.040413
-0.024116
0.025119
-0.049250
0.053274
0.128288
0.002579
0.057629
0.026923
0.073486
0.003147
0.079501
0.083773
0.010834
-0.030828
-0.042619
0.045565
0.074580
0.111838
-0.001868
0.083309
0.094908
0.020751
0.035877
0.074093
0.036863
0.036318
0.006646
0.046747
0.091747
0.061677
0.023696
0.015533
0.055017
-0.005836
0.077907
-0.036968
0.024435
0.101074
0.047560
0.043850
0.077329
0.051006
0.016259
0.121847
0.082604
0.122985
0.108272
0.124035
0.142842
0.099792
0.140292
0.089889
0.159652
0.154019
0.090427
0.113492
0.153362
0.169944
0.231145
0.280070
0.243526
0.300053
0.293683
0.167305
0.119020
0.218929
0.130145
0.186088
0.209074
0.173449
0.186229
0.131606
0.087194
0.016541
0.070136
0.115622
0.039791
0.068176
0.041960
-0.004628
-0.023463
0.050023
0.063122
-0.006327
0.043356
-0.017199
0.025599
0.018661
0.012814
0.013589
-0.009797
0.017546
0.025165
-0.065288
0.043576
0.029186
-0.004952
-0.011670
-0.013116
0.100848
0.310370
0.671682
0.967486
1.215406
1.368605
1.341198
1.040730
0.772426
0.504847
0.078035
-0.115023
-0.156996
-0.195683
-0.180337
-0.099737
0.050932
-0.130983
-0.061228
-0.145143
0.009509
0.065135
0.062676
0.021870
0.035718
0.074715
0.003432
0.017136
0.065319
-0.033083
0.051829
0.098554
0.087495
0.150649
0.179611
0.144941
0.142361
0.130659
0.202522
0.136772
0.212508
0.237055
0.320992
0.344198
0.244676
0.332050
0.311224
0.301310
0.281942
0.353041
0.431782
0.406287
0.371863
0.383460
0.458224
0.479245
0.445837
0.454945
0.477436
0.467582
0.431629
0.436427
0.503307
0.462479
0.472989
0.464037
0.432174
0.446361
0.356802
0.377652
0.338235
0.224765
0.324356
0.396239
0.330826
0.252307
0.243696
0.240998
0.220351
0.187609
0.178932
0.113633
0.151659
0.051669
0.056373
0.059792
0.025444
0.098294
0.074942
0.036563
-0.002923
-0.010628
-0.006919
-0.069606
-0.021146
-0.040146
-0.049660
-0.054968
0.007641
-0.022157
0.029746
-0.054682
-0.059941
-0.010330
-0.067820
-0.019332
-0.153146
0.007993
-0.021742
-0.056356
0.076629
-0.084815
-0.108487
-0.082877
-0.044222
-0.029637
-0.053336
-0.109490
-0.152108
-0.066199
-0.071345
-0.123916
-0.086993
-0.043680
-0.041414
-0.005212
-0.003298
0.035940
-0.103578
-0.023073
-0.057696
-0.031348
-0.017004
-0.060973
-0.132211
-0.076835
-0.026401
-0.038312
-0.001964
-0.160976
-0.023601
-0.072277
-0.059005
-0.050712
-0.047742
-0.039759
-0.034646
-0.055538
-0.038891
-0.058744
-0.060666
-0.050535
-0.146312
-0.160482
-0.030103
-0.015627
-0.053977
-0.041165
0.018528
-0.060353
-0.030799
-0.112473
-0.071835
0.035873
0.017474
-0.095972
0.046529
0.122914
-0.003885
-0.015231
0.076859
0.041221
0.114635
0.116179
0.087322
0.107281
0.123113
0.060546
0.037702
0.125020
0.034323
0.023107
0.139685
0.077788
0.097197
0.070190
0.088805
0.087502
-0.029320
0.029115
0.024009
0.030966
0.091602
-0.017282
0.023086
-0.106095
-0.004609
-0.052950
-0.034352
-0.041242
-0.027773
-0.013117
-0.133807
-0.109946
-0.028918
-0.033840
-0.052935
-0.002591
-0.066280
-0.120580
-0.048085
-0.026463
-0.182193
-0.107672
-0.073222
-0.121079
-0.088024
-0.069625
0.179680
0.436920
0.765615
1.006221
1.185156
1.253240
1.074957
0.881834
0.406807
0.164402
-0.168006
-0.246754
-0.354478
-0.358509
-0.224289
-0.163271
-0.076264
-0.095796
-0.141940
-0.181292
-0.023007
-0.041172
-0.086898
-0.087431
-0.163669
-0.049334
-0.076259
0.009044
-0.020471
-0.034394
-0.034253
-0.098626
0.059823
0.018111
0.093486
-0.061325
0.065673
0.091794
0.074295
0.114229
0.247630
0.110488
0.189719
0.241710
0.166808
0.248835
0.280982
0.253217
0.333943
0.255310
0.292201
0.349010
0.316581
0.462460
0.303664
0.358251
0.332464
0.431206
0.378756
0.466514
0.333533
0.409480
0.326437
0.363807
0.338199
0.377939
0.319131
0.438044
0.322433
0.256074
0.258869
0.268784
0.278783
0.176553
0.239787
0.239495
0.140020
0.140326
0.129254
0.083820
0.137113
0.095949
0.064358
0.113088
0.043813
-0.059133
0.038158
-0.084071
0.030381
-0.085551
0.036817
-0.063121
-0.071297
-0.016076
-0.040954
-0.104396
-0.076680
-0.041565
-0.035180
-0.004592
-0.043524
-0.098911
-0.063232
-0.084759
-0.115192
0.013685
-0.045286
-0.047028
-0.105398
-0.018975
-0.052719
-0.040531
-0.064844
0.008890
-0.019504
-0.126526
-0.073200
-0.044501
-0.077406
0.022259
-0.115025
-0.125967
-0.071454
-0.053498
-0.110330
-0.070032
-0.039987
-0.062872
-0.093570
-0.050897
-0.126095
-0.071774
-0.091901
-0.042953
-0.044422
-0.068467
-0.109439
-0.177742
-0.080246
-0.032139
-0.117826
-0.035542
-0.083095
-0.028093
-0.007519
-0.010537
-0.043673
-0.155579
-0.047108
-0.086730
-0.106508
-0.023015
-0.070516
-0.113749
0.007203
-0.062350
-0.049113
-0.019170
-0.035323
-0.047068
0.001633
0.008247
-0.091846
0.016073
0.075346
0.051020
-0.006353
0.126976
0.070267
0.150155
0.063894
0.105271
0.071751
0.165032
0.031816
0.131594
0.088519
0.187117
0.132140
0.109788
0.098424
0.167844
0.120781
0.029278
0.092422
0.122821
0.156606
0.085841
0.071293
-0.006424
0.033469
0.097408
-0.038886
0.060491
0.003273
0.022610
0.052015
-0.051561
0.030287
-0.059139
-0.023519
-0.101884
-0.018150
-0.028816
-0.053545
-0.035253
-0.040738
-0.070405
-0.075423
-0.049358
-0.048066
-0.018483
-0.041687
0.012740
-0.057704
0.006217
-0.007036
0.132296
0.363259
0.707527
0.998698
1.187886
1.334833
1.216790
0.933545
0.740952
0.321640
0.041940
-0.259748
-0.238049
-0.258663
-0.168039
-0.045753
-0.078550
-0.013756
0.023762
0.004008
-0.012439
0.037075
0.034992
0.045587
0.020373
0.003611
0.052924
0.063853
-0.003209
0.036319
0.099631
0.130208
0.076369
0.106670
0.139936
0.203602
0.137145
0.195895
0.207537
0.217007
0.231825
0.250949
0.254890
0.292403
0.316923
0.313052
0.372085
0.291733
0.411934
0.371777
0.430977
0.350607
0.476236
0.464156
0.399044
0.440605
0.480797
0.529301
0.509261
0.521776
0.448803
0.517899
0.435809
0.571155
0.478339
0.525171
0.476802
0.504217
0.468511
0.452269
0.424109
0.371027
0.383419
0.253846
0.257345
0.284326
0.271846
0.248549
0.279396
0.313760
0.136838
0.164647
0.233335
0.128520
0.191400
0.141905
0.124468
0.205999
0.114131
0.094458
0.087284
0.063784
0.042890
0.134343
-0.009939
0.121340
0.073806
0.085622
0.057113
0.128694
-0.042963
0.051995
0.042324
0.021948
0.000475
0.049331
0.070932
0.029777
-0.025202
0.007756
-0.020379
0.071211
0.032663
0.024539
0.114783
-0.019597
0.089510
-0.008212
-0.017997
0.015542
0.010283
-0.031768
-0.008793
0.148865
0.090815
0.081932
0.007805
0.040732
0.011944
0.085507
0.039525
0.009956
-0.019160
0.003362
0.075630
0.090710
0.098132
0.076238
0.034556
0.087831
0.043915
0.053805
0.078968
0.127318
0.146383
0.125973
0.030260
0.062179
0.069055
0.014213
0.031527
0.080230
0.062056
0.080501
0.070173
0.122379
0.052880
0.047976
0.037563
0.018403
0.037469
0.144170
0.120183
0.118320
0.080309
0.044163
0.080932
0.148537
0.123205
0.154250
0.128755
0.193822
0.228893
0.234509
0.170723
0.222678
0.270236
0.190661
0.188670
0.196750
0.218834
0.181054
0.154914
0.300793
0.173652
0.233452
0.200286
0.207795
0.159459
0.147350
0.222934
0.142761
0.208050
0.170294
0.111624
0.150388
0.044238
0.086058
0.069507
0.083913
0.057211
0.085573
0.083000
0.113295
0.039760
0.089842
0.076350
0.012754
-0.002020
0.013812
-0.023110
0.089434
-0.012287
-0.039868
0.003391
0.073106
0.006510
0.218472
0.311643
0.635800
0.964801
1.277250
1.373449
1.411294
1.193286
0.851250
0.639681
0.232946
-0.030125
-0.190584
-0.134727
-0.136999
-0.017912
-0.039340
0.108943
0.109197
0.189592
0.060730
0.011286
-0.021300
0.030912
0.111518
0.038835
0.087174
