-0.030735
0.057485
0.027841
-0.032245
-0.036956
-0.017903
0.058828
0.009504
0.031729
0.002274
-0.004040
-0.025778
0.024825
0.048750
0.034084
-0.076008
-0.017083
-0.003067
0.037427
0.096550
0.011912
0.100061
-0.010501
0.046294
0.007270
0.003348
0.035353
0.146508
0.099290
0.155551
0.016916
0.078906
0.105479
0.202402
0.094262
0.199200
0.199766
0.157432
0.121882
0.102409
0.268609
0.194065
0.231155
0.227688
0.174440
0.193748
0.176293
0.243140
0.211200
0.185055
0.155895
0.163629
0.144624
0.075363
0.157944
0.141434
0.084611
0.065886
0.088183
0.064531
0.122753
0.119658
0.134520
0.100626
0.128854
0.069559
0.055703
-0.000376
0.034389
0.069431
0.028978
0.047706
-0.009352
0.012997
-0.020278
0.026313
-0.055704
0.021828
0.003015
0.094794
0.069986
0.195112
0.482719
0.766727
1.150718
1.442354
1.438786
1.220283
1.011964
0.664603
0.286019
0.052231
-0.156897
-0.223131
-0.196639
-0.188293
-0.043310
0.017494
0.063618
0.082350
0.029928
0.068944
0.105814
0.132483
0.140375
0.160529
0.162266
0.107604
0.177963
0.072957
0.093749
0.158590
0.250080
0.204318
0.230075
0.141865
0.181732
0.215844
0.243232
0.258964
0.264056
0.282898
0.327886
0.389678
0.358910
0.319269
0.409023
0.444184
0.405230
0.450892
0.505494
0.430463
0.515762
0.508973
0.512211
0.565413
0.563206
0.595022
0.533249
0.644106
0.529190
0.532689
0.493087
0.558534
0.486296
0.591185
0.422395
0.566167
0.461645
0.512330
0.502433
0.411855
0.392792
0.423712
0.358191
0.380950
0.314771
0.363554
0.240131
0.224359
0.216874
0.273877
0.283404
0.300230
0.223658
0.196411
0.208215
0.158229
0.196471
0.134583
0.191727
0.083776
0.155369
0.099083
0.127850
0.103762
0.114594
0.089808
0.122789
0.112780
0.058939
0.127416
0.130616
0.121748
0.089644
0.136943
0.038394
0.061324
0.123761
0.123703
0.126492
0.069974
0.016686
0.143426
0.032702
0.048246
0.041656
0.052060
0.134233
0.080038
0.099231
0.044011
0.115969
0.087279
0.092412
0.095499
0.175483
0.063924
0.202238
-0.028480
0.118997
0.141192
0.069392
0.038735
0.124222
0.080795
0.108986
0.107758
0.154595
0.025031
0.127366
0.122103
0.085365
0.082145
0.090726
0.057852
0.014620
0.057367
0.069148
0.027692
0.092666
0.101327
0.097693
0.130513
0.125765
-0.043556
0.130010
0.150288
0.172615
0.203795
0.099651
0.071972
0.182939
0.175264
0.197561
0.183620
0.186837
0.122352
0.171132
0.167439
0.199885
0.238739
0.218027
0.273661
0.230004
0.204065
0.180891
0.252782
0.275814
0.139048
0.224619
0.245553
0.236840
0.229423
0.254624
0.185641
0.173312
0.069715
0.116524
0.173413
0.109464
0.124702
0.105082
0.141525
0.124355
0.045858
0.068776
0.035656
0.080230
0.069097
0.027110
0.088450
0.040702
0.106191
0.050538
0.079916
0.056377
0.045613
0.086575
0.148369
0.061036
0.084609
0.109820
0.013226
0.164031
0.216387
0.472635
0.810992
1.121024
1.354843
1.367816
1.282254
1.121828
0.791274
0.390205
0.157442
-0.109954
-0.186222
-0.179046
-0.184310
0.014558
0.035508
0.085539
0.070708
0.065906
0.117003
0.076894
0.062477
0.146392
0.135130
0.122389
0.064934
0.099548
0.129623
0.140904
0.121268
0.110877
0.173799
0.159116
0.151158
0.170200
0.205547
0.221333
0.240123
0.302335
0.328864
0.234903
0.336421
0.389657
0.360752
0.408803
0.462562
0.419703
0.414510
0.379361
0.405840
0.471479
0.493710
0.506139
0.488532
0.464989
0.447651
0.577072
0.567109
0.521916
0.510530
0.572393
0.525408
0.499963
0.453356
0.429949
0.550844
0.505537
0.411556
0.416051
0.396730
0.381858
0.319018
0.413016
0.250709
0.300796
0.311015
0.285767
0.202451
0.185517
0.217629
0.295321
0.168997
0.179215
0.133153
0.116294
0.125293
0.131015
0.077376
0.086529
0.138091
0.073245
0.110422
-0.009499
0.048057
0.088247
0.041011
0.033595
-0.010323
0.121244
0.112887
-0.018143
0.056876
-0.014903
-0.015158
-0.002155
-0.047121
0.030334
-0.023813
0.026551
-0.012486
0.034849
-0.011367
0.014159
-0.002827
0.040298
-0.037808
-0.061621
0.029729
-0.005677
-0.026638
-0.003101
-0.022881
0.041333
-0.016123
-0.004775
-0.056757
-0.018463
0.046058
-0.052737
0.059219
-0.066266
0.008169
-0.052726
0.003405
0.010798
0.043585
-0.034071
-0.018644
-0.003262
-0.056953
-0.017499
-0.059923
0.002416
-0.058052
0.012605
-0.008959
-0.009985
-0.000372
0.020384
-0.061862
-0.040823
-0.084250
0.020224
-0.044500
-0.005161
-0.006474
0.031951
0.061110
-0.000057
-0.025183
0.066548
0.000300
-0.019623
0.038445
0.052000
0.003427
0.043475
0.124666
0.135739
0.138566
0.174518
0.141074
0.236479
0.171298
0.117957
0.195386
0.172452
0.171360
0.170708
0.123225
0.084323
0.082404
0.183076
0.173927
0.078200
0.039326
0.035516
0.035825
0.054653
0.097696
0.035302
-0.041241
0.008845
-0.071578
-0.004102
0.032724
0.038149
-0.066165
0.076289
-0.123530
-0.007398
0.055432
-0.003787
-0.020656
-0.055845
-0.052377
0.008207
-0.061611
-0.006716
-0.031548
-0.035524
-0.063166
-0.026154
0.047184
0.246735
0.572841
0.912123
1.166019
1.314403
1.277439
1.088566
0.787244
0.443727
0.032588
-0.125642
-0.262480
-0.314457
-0.268848
-0.182883
-0.176407
-0.122922
-0.033560
-0.000877
-0.003541
-0.050478
0.025060
-0.007682
-0.018594
-0.031610
-0.005242
0.045391
0.115999
0.045487
0.046890
0.012175
0.113962
0.038379
0.162415
0.139494
0.139488
0.075764
0.099822
0.155695
0.182136
0.224572
0.235216
0.242892
0.175382
0.276138
0.320458
0.325553
0.340950
0.363962
0.369440
0.389228
0.390417
0.362355
0.434187
0.425481
0.395212
0.460945
0.496773
0.413292
0.397724
0.468587
0.412310
0.414103
0.383469
0.392777
0.435622
0.404947
0.401884
0.373109
0.205131
0.363236
0.318815
0.232697
0.175210
0.233069
0.198889
0.104315
0.140209
0.145960
0.121967
0.184798
0.157841
0.102307
0.090631
0.082262
0.036870
0.097329
0.069082
0.034397
-0.054986
0.026981
-0.028488
0.075407
-0.085009
-0.079879
-0.089655
-0.053245
-0.021497
-0.000175
-0.020475
-0.073553
-0.016041
-0.022686
-0.027934
-0.132428
0.058166
-0.093177
0.005230
0.002952
-0.080835
0.028978
-0.069412
-0.017534
-0.075436
0.017732
0.005017
-0.006662
-0.049960
-0.040379
-0.023482
-0.064296
0.012116
-0.011811
-0.029906
-0.118581
-0.019534
-0.025493
-0.033133
-0.077722
-0.038126
0.004293
0.016652
0.065191
0.032227
-0.066302
-0.048498
-0.014159
-0.019256
-0.007824
-0.007325
0.006278
0.052048
-0.000196
0.002146
0.029506
-0.011356
-0.034025
0.020836
0.004434
-0.097868
-0.028645
-0.033771
-0.033586
-0.080231
0.050329
-0.104365
0.065234
-0.039012
-0.010642
-0.016183
0.003172
-0.027379
0.055563
0.057481
0.071370
0.031282
0.055941
0.117539
0.173539
0.119227
0.147061
0.102457
0.149767
0.160640
0.219229
0.193531
0.167628
0.107763
0.200082
0.144067
0.196961
0.189995
0.211861
0.103801
0.140514
0.136730
0.046288
0.033459
0.047740
0.075008
0.002733
0.020042
0.002612
0.030125
-0.005782
0.117181
-0.002964
0.050922
-0.037976
0.006989
-0.063858
-0.023271
0.025620
0.017573
-0.045704
0.025236
-0.017191
0.067784
-0.016181
-0.008492
0.039289
-0.068385
-0.021732
0.085343
0.250573
0.541625
0.836217
1.174179
1.303079
1.334313
1.163925
0.975476
0.628941
0.259834
0.022546
-0.198114
-0.244031
-0.248204
-0.188428
-0.121060
-0.040117
0.023924
-0.063417
0.053370
0.058012
0.108842
0.070865
0.090744
0.034090
0.033849
0.103228
0.106360
0.076892
0.176611
0.092420
0.146858
0.104409
0.170172
0.166181
0.176327
0.227416
0.225015
0.222319
0.280752
0.276450
0.315396
0.352588
0.317010
0.297858
0.401963
0.426236
0.365603
0.391139
0.475900
0.512122
0.435871
0.469492
0.498616
0.530733
0.516020
0.566280
0.592663
0.563603
0.608356
0.449521
0.488131
0.484769
0.545176
0.473103
0.431002
0.495778
0.496050
0.462923
0.505220
0.496085
0.334001
0.458552
0.399950
0.252609
0.339689
0.285465
0.321837
0.237510
0.422370
0.203381
0.253833
0.145191
0.149592
0.140641
0.075063
0.139253
0.170176
0.151525
0.125155
0.123778
0.101274
0.080484
0.107523
0.082987
0.066003
-0.010330
0.019998
0.071608
0.082908
0.003261
0.069555
0.075979
0.119063
0.063114
0.155752
0.064633
0.117079
0.049697
0.135585
0.116280
0.057371
0.051195
0.091904
0.059619
0.091952
0.049617
0.055378
0.157718
-0.031069
0.029176
0.103337
0.110114
0.104296
0.080670
0.007892
0.114587
0.045932
0.017869
0.044524
0.089707
0.079299
0.071302
0.067009
0.069643
0.019680
0.050232
0.154717
0.168458
0.091836
0.085785
0.000409
0.097838
0.138054
0.060336
0.081495
0.106840
0.108931
0.058369
0.084829
0.075178
0.044465
0.105190
-0.007789
0.026867
0.200467
0.074326
0.103296
0.138704
0.152186
0.137321
0.147888
0.133972
0.097762
0.147208
0.195498
0.216599
0.198114
0.272991
0.312884
0.274197
0.295960
0.185090
0.207288
0.222052
0.289542
0.217025
0.247271
0.316150
0.317663
0.236106
0.272794
0.240604
0.280166
0.223151
0.249378
0.125209
0.163734
0.253875
0.162704
0.178464
0.156994
0.183755
0.113165
0.161935
0.073784
0.116743
0.114002
0.114582
0.140467
0.092800
0.102831
0.065237
0.007694
0.069663
0.097292
0.025950
0.112199
0.150021
0.013989
-0.009281
0.058905
0.031168
0.075304
0.273532
0.430129
0.856015
1.185434
1.388935
1.500000
1.437962
1.071158
0.824672
0.338619
0.142045
-0.058983
-0.123239
-0.185954
-0.062523
0.006141
0.032556
0.161012
0.177112
0.129257
0.101462
0.109983
0.079765
0.132453
0.113527
0.111846
0.149489
0.199400
0.126966
0.205679
0.109365
0.160451
0.199426
0.161492
0.252479
0.243389
0.272300
0.364195
0.292967
0.295458
0.224615
0.430865
0.390316
0.490864
0.369250
0.401298
0.515519
0.470532
0.443296
0.452133
0.462263
0.541961
0.565521
0.570353
0.555314
0.580714
0.605768
0.588241
0.633240
0.598515
0.590558
0.623883
0.554404
0.640185
0.532442
0.499399
0.472598
0.490682
0.466575
0.513975
0.401183
0.362672
0.408785
0.432659
0.384039
0.354513
0.302614
0.282096
0.296195
0.197002
0.241909
0.181745
0.210527
0.157742
0.228482
0.172945
0.125403
0.175619
0.042503
0.177597
0.129299
0.156600
0.123639
0.110945
0.070136
0.084668
0.194810
0.032953
0.043351
0.072408
0.037736
0.018938
0.036549
0.126352
0.109949
0.029124
0.036858
0.058120
0.089081
0.070612
0.011049
0.087397
0.093058
0.029042
0.048753
0.106072
0.022079
0.057345
-0.021554
0.105891
0.041810
0.058027
0.023571
0.138426
0.182554
0.077350
-0.036093
0.115811
0.117349
0.066396
0.081340
0.115218
0.036437
-0.012351
0.018950
0.087881
0.027279
0.038420
0.029041
0.126809
0.072765
0.042414
0.078228
0.101302
0.032124
0.065556
0.118162
0.118844
0.012023
0.019406
0.021849
0.084777
0.048577
0.080360
0.036331
0.057616
0.029587
0.147155
0.017075
0.061416
0.086224
0.061426
0.121834
0.123506
0.037264
0.113747
0.084086
0.130276
0.130533
0.178137
0.166319
0.145863
0.158046
0.129644
0.192821
0.162566
0.171681
0.212959
0.248890
0.252798
0.194845
0.184933
0.105955
0.209334
0.147598
0.141379
0.217219
0.136373
0.187937
0.115657
0.057726
0.101240
0.048447
-0.003197
0.131221
0.026968
0.067191
0.063888
0.079079
0.058675
0.110541
0.067815
-0.089159
-0.005167
0.041820
-0.012957
0.038940
-0.037770
-0.049746
0.035448
-0.019077
-0.050245
-0.038956
-0.054980
0.142769
0.311463
0.574112
0.842289
1.210618
1.305822
1.345845
1.104071
0.814886
0.432935
0.049520
-0.125639
-0.248889
-0.247427
-0.244926
-0.114234
-0.139558
0.011228
0.000794
-0.031332
-0.036922
-0.047019
-0.000622
-0.009504
-0.041157
-0.023382
-0.020865
0.030226
-0.010658
0.048167
0.103816
0.070172
0.113671
0.062421
0.034943
0.119494
0.151300
0.071098
0.112069
0.228907
0.245607
0.247165
0.269354
0.242326
0.335688
0.252781
0.383251
0.342281
0.372438
0.519400
0.402573
0.460221
0.405785
0.400307
0.417981
0.459551
0.462902
0.466877
0.461353
0.501284
0.490243
0.431491
0.418114
0.404591
0.398770
0.446237
0.361053
0.393734
0.337818
0.341139
0.340942
0.295067
0.331064
0.216615
0.184565
0.226376
0.237604
0.218307
0.191077
0.207537
0.134276
0.189431
0.137389
0.073547
-0.070177
0.061965
0.035213
0.088901
0.007730
-0.005724
-0.000269
-0.009781
-0.014511
-0.050305
-0.056082
-0.049931
-0.057172
-0.066830
-0.091729
-0.068840
-0.003125
0.010667
-0.080014
-0.114441
-0.108032
-0.087594
-0.007840
-0.106384
-0.133073
-0.050689
-0.115845
-0.048290
-0.116834
-0.110700
-0.011836
-0.083091
-0.023044
-0.049752
-0.143615
-0.038090
-0.080918
-0.060378
-0.093670
-0.113494
-0.122668
-0.041335
-0.102075
-0.053594
-0.095535
-0.118195
-0.152439
-0.056790
-0.130870
-0.077286
-0.050682
-0.069591
-0.135176
-0.075721
-0.153031
-0.058212
-0.054088
-0.059658
-0.083062
-0.116429
-0.080616
-0.077516
-0.084583
-0.146559
-0.087095
-0.152865
-0.096217
-0.018632
-0.049198
-0.047182
-0.048603
-0.087438
-0.137348
-0.089072
-0.102533
-0.101647
-0.040922
0.049636
0.027480
0.041519
0.099091
-0.005088
0.067468
-0.039403
-0.013786
0.126831
0.052880
0.105395
0.060094
0.066300
0.058987
0.162863
0.211357
0.110665
0.079827
0.117400
0.117998
0.114042
0.154673
0.055916
-0.029939
0.040109
0.086223
0.002845
0.025004
-0.016377
0.032471
-0.013077
0.020442
-0.103261
0.045810
-0.005340
-0.058160
-0.049760
-0.156055
0.020876
-0.157772
-0.034931
-0.036355
-0.162713
-0.117905
-0.152904
-0.051839
-0.038435
-0.124212
-0.127926
-0.128950
-0.031366
-0.012891
-0.111436
0.043889
0.135503
0.410622
0.823099
1.061512
1.227310
1.273986
1.164408
0.805006
0.431194
0.154385
-0.136697
-0.288901
-0.295352
-0.274692
-0.190287
-0.177355
-0.145653
-0.052393
-0.071413
-0.083221
-0.075413
-0.008541
-0.067773
-0.064283
-0.037988
-0.020574
-0.029211
0.022881
0.107330
-0.037795
0.074025
-0.002303
0.056696
0.102265
0.035425
0.023350
0.086863
0.010079
0.160791
0.202723
0.129864
0.200833
0.137612
0.236627
0.333112
0.271970
0.264344
0.364022
0.255556
0.450686
0.363824
0.398882
0.432098
0.482670
0.506503
0.469349
0.358640
0.419847
0.402948
0.521814
0.496904
0.528715
0.449991
0.366728
0.305914
0.347670
0.315772
0.316975
0.316185
0.345607
0.272212
0.373596
0.219652
0.320508
0.189362
0.135195
0.168142
0.196890
0.101487
0.139634
0.086665
0.139010
0.071875
0.168944
-0.006745
0.013986
0.029670
0.029736
-0.000553
0.071590
0.091075
-0.028475
-0.003604
-0.003293
0.027145
0.013950
-0.065608
-0.082343
-0.017900
-0.020342
-0.058909
0.032515
-0.013746
-0.023587
-0.038004
-0.059461
-0.010272
-0.054851
-0.093656
0.009634
0.015366
0.008932
-0.060083
-0.053020
-0.035088
-0.080784
-0.023626
-0.077468
-0.050273
0.001731
0.033566
-0.034015
0.007259
-0.010882
-0.069432
-0.022679
-0.020753
0.044059
-0.026742
0.031912
0.010140
-0.063020
-0.031882
-0.045231
-0.086395
-0.034341
-0.029194
0.041436
-0.029236
-0.024824
-0.027608
-0.033994
-0.006801
0.032720
-0.042051
0.027460
0.027964
0.084889
-0.056391
0.031342
-0.064275
-0.079848
0.026358
-0.033347
0.018853
-0.002391
0.004202
0.055608
0.091510
-0.022940
0.065532
0.021247
0.039726
0.042270
0.168339
0.088913
0.090446
0.132645
0.220834
0.018189
0.146685
0.176742
0.175551
0.115961
0.194769
0.173282
0.203841
0.109423
0.061682
0.141595
0.203955
0.167516
0.125494
0.096032
0.126540
0.158437
0.051529
0.081118
0.050651
0.113907
0.071522
0.049463
0.038523
0.092690
0.089877
0.098375
0.007099
0.039136
0.009813
0.027672
0.033290
0.050643
0.009084
-0.001257
-0.038768
-0.008980
0.032111
-0.022993
0.051766
0.049442
0.113368
0.057513
0.020646
0.110247
0.129470
0.463483
0.795355
1.160860
1.336411
1.403020
1.267104
0.932962
0.740264
0.286630
0.004130
-0.142315
-0.194269
-0.202428
-0.142116
-0.118283
-0.054106
0.026236
0.021352
0.037745
0.040230
0.040969
0.134450
0.026109
0.049259
0.061860
0.095476
0.126274
0.155935
0.089719
0.165317
0.073923
0.148109
0.118479
0.124672
0.155213
0.140984
0.183173
0.238840
0.163930
0.326505
0.418448
0.335206
0.329083
0.335675
0.333835
0.395699
0.369866
0.404066
0.489475
0.500834
0.458811
0.503094
0.535842
0.499774
0.487112
0.531821
0.498256
0.531313
0.540807
0.571464
0.501789
0.527817
0.486492
0.423976
0.450322
0.444169
0.468311
0.402896
0.505644
0.364352
0.367169
0.395358
0.336455
0.293791
0.312463
0.210268
0.357337
0.228732
0.238275
0.215254
0.156600
0.167890
0.155196
0.152647
0.120888
0.160094
0.070108
0.100356
0.059061
0.116133
0.164384
-0.014853
0.066160
-0.007087
0.073491
0.041983
-0.021325
0.024316
0.053570
-0.006162
-0.014330
0.115799
0.125713
0.053190
0.098139
0.088714
-0.011017
0.072163
0.005770
-0.004947
0.043062
0.093333
-0.041997
0.036337
0.017730
0.091535
0.016193
0.143123
0.056311
0.041069
0.044611
0.092652
0.091701
0.067840
0.005075
0.012988
0.023730
0.072180
0.040696
0.065456
0.030994
0.025806
0.089975
-0.004123
-0.026418
-0.015242
0.022995
0.021245
0.041740
-0.005562
0.029919
0.083151
0.040256
0.041753
0.007138
0.020171
-0.025696
0.071849
0.028531
0.108697
0.084935
0.057860
0.097579
0.040909
0.099729
0.016789
0.094467
0.094632
0.004719
0.174784
0.135714
0.065607
0.114462
0.121702
0.088899
0.197537
0.119735
0.153513
0.134655
0.048268
0.088982
0.220325
0.195649
0.187022
0.215587
0.226143
0.202948
0.220303
0.150181
0.222727
0.206380
0.206546
0.137104
0.173434
0.170804
0.175421
0.154661
0.125328
0.068513
0.042055
0.040049
0.076736
0.106040
0.037489
0.047928
0.105551
0.025967
-0.023601
0.044131
0.038075
0.058051
-0.055934
0.038992
0.055094
-0.003840
-0.034328
0.071438
0.022828
0.002122
0.059302
-0.046116
0.004211
0.093324
0.202776
0.496848
0.657631
1.021210
1.290269
1.434850
1.313328
0.993435
0.762721
0.350723
0.029835
-0.075656
-0.246843
-0.227493
-0.153098
-0.074422
-0.068365
0.036157
0.071719
0.036354
0.020943
0.032389
0.058547
0.026943
0.047494
-0.009235
0.006384
0.127244
0.077373
0.080931
0.025678
0.079280
0.107426
0.100553
0.044242
0.120734
0.144486
0.177667
0.170737
0.337153
0.196877
0.257063
0.300388
0.315673
0.358101
0.322223
0.347688
0.355342
0.370371
0.457105
0.389909
0.403973
0.454389
0.426205
0.464068
0.462283
0.543072
0.520317
0.490738
0.505892
0.421150
0.514696
0.517239
0.384752
0.455345
0.362991
0.447012
0.454777
0.388041
0.450830
0.350081
0.275218
0.312900
0.336325
0.276755
0.241011
0.178760
0.258473
0.165463
0.172296
0.201346
0.097876
0.163992
0.147859
0.049743
0.109670
0.016440
-0.012735
0.098900
0.047433
-0.031501
0.096153
-0.050183
-0.019890
-0.016269
0.048827
0.000789
0.005990
-0.055200
-0.060044
-0.035247
0.032503
0.003798
-0.079334
-0.059900
-0.102385
-0.030925
-0.027606
0.006194
-0.076588
-0.010539
-0.085978
-0.020308
-0.090298
-0.050958
-0.128356
-0.065236
-0.010696
-0.084791
-0.063268
0.039229
-0.114212
-0.032736
-0.136012
-0.062380
-0.015072
0.019627
-0.040903
-0.014881
-0.087570
-0.048332
-0.055479
-0.001621
-0.018846
-0.063678
-0.088035
-0.080936
-0.101779
-0.094121
-0.081170
-0.083043
-0.036023
-0.116526
-0.042387
-0.077048
-0.058536
0.023511
-0.043225
-0.013098
-0.028039
-0.027453
-0.100676
-0.055303
-0.097509
0.035455
-0.031434
-0.083816
-0.006853
-0.018880
-0.073916
0.003891
0.042627
0.023941
0.054292
0.041134
0.007529
0.008787
0.061072
-0.007932
0.035642
0.056054
0.073504
0.113378
0.140991
0.118189
0.108354
0.103261
0.115542
0.087588
0.121579
0.076485
0.070864
-0.014128
0.014942
0.054084
0.045539
0.032029
0.036698
0.034540
-0.065972
-0.112156
-0.018417
-0.002663
-0.094135
-0.105243
-0.050254
-0.063381
-0.129356
-0.058901
-0.057717
-0.134361
-0.043597
-0.078378
-0.128282
-0.097434
-0.022749
-0.110327
-0.117089
-0.078956
-0.193577
-0.060822
-0.097784
-0.068974
-0.111635
0.041204
0.171539
0.454572
0.761982
1.075808
1.280543
1.198686
0.926799
0.738263
0.353819
0.060714
-0.218623
-0.367301
-0.334336
-0.279024
-0.223817
-0.054579
-0.087225
-0.105232
-0.114493
-0.025779
-0.128275
-0.045063
-0.085239
-0.000796
-0.004377
-0.011280
0.005162
-0.080658
0.005431
0.016817
-0.047448
0.048021
-0.029098
0.006436
0.056163
0.091243
0.126282
0.080389
0.125366
0.184580
0.136564
0.148415
0.171978
0.182136
0.271425
0.241684
0.308441
0.326543
0.282727
0.388521
0.357824
0.334355
0.432486
0.429835
0.345689
0.381380
0.435441
0.441728
0.469240
0.423802
0.433059
0.363652
0.501253
0.400456
0.353209
0.323500
0.388392
0.273257
0.309015
0.276629
0.295201
0.243973
0.274506
0.155332
0.164214
0.167424
0.158604
0.136715
0.096852
0.102797
0.111395
0.050698
0.026411
-0.006884
-0.019436
0.036982
-0.023495
-0.009680
-0.064808
-0.024039
-0.033750
-0.010993
-0.048063
-0.085909
-0.013080
0.007515
-0.221275
-0.091512
-0.132979
-0.054622
-0.086371
-0.135950
-0.078897
-0.095770
-0.077011
-0.032976
-0.109953
-0.149732
-0.083621
-0.078360
-0.004369
-0.099741
-0.099509
-0.099494
-0.104339
-0.008474
-0.034474
-0.103226
-0.112962
-0.155949
-0.127718
-0.106128
-0.143394
-0.081017
-0.112840
-0.037814
-0.022869
-0.065457
-0.105087
-0.115401
-0.084576
-0.032543
-0.103411
-0.062623
-0.140054
-0.110806
-0.040791
-0.107542
-0.076697
-0.097403
-0.054989
-0.102757
-0.134889
-0.061074
-0.044467
-0.037992
-0.077028
-0.103837
-0.128780
-0.089985
-0.115028
-0.092276
-0.092907
-0.067439
-0.130994
0.010944
-0.049076
-0.077007
-0.092056
-0.081117
-0.041634
0.013243
-0.008514
-0.020561
-0.054270
0.044467
0.006235
0.070437
0.014107
-0.011280
0.063661
0.115103
0.112515
0.090635
0.075626
0.145674
0.049982
0.094463
0.102072
0.097382
0.150289
0.068741
0.132477
0.036666
0.112837
-0.027932
0.018411
0.053049
0.102200
0.033245
-0.010746
-0.072790
0.044180
-0.004825
-0.094195
-0.059608
-0.056178
-0.079163
-0.039742
-0.058940
-0.030478
-0.054492
-0.029986
-0.116524
-0.059466
-0.114863
0.004856
-0.030592
-0.083270
-0.065681
0.046116
-0.148610
-0.020694
0.036666
0.233886
0.402909
0.773146
1.111066
1.347273
1.280482
1.209592
0.858449
0.530231
0.174204
-0.061346
-0.233053
-0.366847
-0.326062
-0.134105
-0.129119
-0.064182
0.004441
-0.111851
0.049665
-0.001857
0.023972
-0.005321
-0.014186
0.033280
0.020173
0.027798
-0.010578
0.008937
0.118972
0.031681
0.105227
0.081898
0.085309
0.135319
0.185533
0.150888
0.203563
0.169674
0.210151
0.229699
0.217834
0.247458
0.267620
0.386496
0.276700
0.422055
0.334649
0.369815
0.375055
0.424729
0.456446
0.487126
0.473282
0.521962
0.429878
0.499622
0.519836
0.479283
0.456348
0.459249
0.357449
0.532440
0.497408
0.485894
0.454866
0.441124
0.393655
0.446121
0.390041
0.349465
0.436443
0.262837
0.282520
0.284864
0.253609
0.208308
0.267900
0.195935
0.182316
0.196640
0.177710
0.163079
0.123644
0.021637
0.189227
0.153402
0.117042
0.078199
0.086741
0.017808
0.112585
0.090287
0.035849
0.110594
0.010751
-0.008490
0.031412
0.076033
-0.033342
0.087287
0.040046
0.058033
0.057408
0.043399
-0.016430
0.041060
0.105432
0.011580
0.050255
0.072924
0.030691
0.035892
-0.004135
0.070761
0.027976
0.015375
0.133837
0.018349
0.062965
0.063477
0.059402
0.086336
-0.002630
0.026584
0.065653
0.072234
0.018424
0.037218
0.051383
0.086257
0.039808
-0.005235
0.046313
0.029669
0.057325
0.055571
-0.057393
0.052337
0.026818
0.018270
0.135206
0.074868
0.106508
0.030715
-0.017684
0.038812
-0.017455
0.095464
0.021135
0.029144
0.126460
0.114081
0.071479
0.091532
0.071198
0.042375
0.023322
0.060481
0.114130
0.010527
0.042288
0.167086
0.031303
0.112014
0.139292
0.130246
0.154993
0.110813
0.259591
0.245618
0.163031
0.227386
0.202772
0.174162
0.210543
0.218758
0.181159
0.242625
0.171489
0.257027
0.159280
0.171935
0.191818
0.211134
0.156476
0.150426
0.254769
0.111952
0.110201
0.098454
0.151183
0.165254
0.022124
0.037618
0.049369
0.118516
-0.035425
0.097227
0.070649
0.006129
0.143313
0.142466
0.134030
0.067293
0.044417
0.026332
0.118738
0.024699
0.075716
0.024779
-0.024343
0.027124
0.055721
0.274034
0.469993
0.820438
1.079519
1.331163
1.455854
1.264475
1.076915
0.727407
0.459839
0.129200
-0.105591
-0.211405
-0.128549
-0.137398
-0.010028
-0.002967
0.072473
0.100589
-0.000822
0.089732
0.112035
-0.021690
0.111875
0.149083
0.063297
0.091995
0.130924
0.150761
0.202428
0.058106
0.109698
0.127880
0.270569
0.186405
0.206122
0.240069
0.313315
0.224926
0.267686
0.343097
0.326767
0.384842
0.409586
0.421146
0.346725
0.408634
0.398057
0.378571
0.528029
0.451604
0.490482
0.590229
0.620907
0.528710
0.584107
0.629125
0.570298
0.546874
0.581907
0.500822
0.576536
