-0.066074
-0.042699
0.034212
-0.027598
0.055717
0.002554
0.078041
0.041672
-0.022005
0.037689
0.074299
-0.025089
-0.051709
-0.002153
0.047222
0.088502
0.109822
0.082449
0.031699
0.016886
0.033498
0.111593
0.061546
0.098794
0.099610
0.090351
0.145655
0.131700
0.100242
0.121175
0.099905
0.206138
0.187137
0.117281
0.155959
0.149701
0.103351
0.168424
0.231757
0.249654
0.205012
0.283137
0.300136
0.221327
0.234659
0.155901
0.064752
0.121979
0.178676
0.027773
0.169596
0.014055
0.143138
0.151612
0.087995
0.143505
0.090566
0.009582
0.081254
0.104400
0.069752
0.125231
0.031957
0.006321
0.040012
0.088186
0.021842
0.159424
0.046438
-0.029682
0.051756
0.223629
0.470857
0.766458
1.038727
1.333212
1.477854
1.312023
1.111837
0.777775
0.390153
0.051248
-0.144664
-0.194129
-0.167375
0.010602
0.033121
0.059223
0.062635
0.139153
0.088821
0.134903
0.136912
0.077171
0.112781
0.075635
0.176695
0.165215
0.161666
0.124286
0.207290
0.225139
0.257130
0.186383
0.313759
0.440167
0.272535
0.395075
0.280370
0.323126
0.370965
0.456899
0.426293
0.453089
0.484647
0.483402
0.473947
0.476772
0.597170
0.615407
0.575121
0.664766
0.567185
0.645716
0.590543
0.586135
0.583740
0.599640
0.547429
0.554318
0.527589
0.635176
0.489808
0.495876
0.559325
0.413740
0.454635
0.495319
0.341768
0.448461
0.378018
0.347919
0.332145
0.273946
0.354130
0.244813
0.220710
0.160132
0.186669
0.171997
0.190770
0.185515
0.175825
0.147837
0.223979
0.180707
0.096578
0.162406
0.146998
0.126357
0.131888
0.023245
0.052323
0.142136
0.115153
0.076248
0.092120
0.073760
0.086737
0.145804
0.114003
0.041761
-0.024493
0.012432
0.080959
0.046953
0.127977
0.092832
0.110455
0.149353
0.125794
0.139192
0.123215
0.055409
0.076311
0.056973
0.113946
0.083111
0.122155
0.081573
0.093133
0.072128
0.007776
0.022945
0.004404
0.050227
0.011851
0.038293
0.096639
0.120769
0.094535
0.070977
0.140122
0.056942
0.109359
0.226612
0.138305
0.123279
0.120128
0.121194
0.165149
0.108728
0.213772
0.160773
0.144947
0.124531
0.206797
0.195982
0.185400
0.163378
0.191818
0.362059
0.269618
0.257239
0.212733
0.182998
0.255929
0.277925
0.302922
0.250927
0.237660
0.365794
0.267097
0.243658
0.223293
0.123600
0.176534
0.158070
0.154025
0.148611
0.124417
0.167287
0.166693
0.137406
0.193077
0.079920
0.084110
0.139055
0.106748
0.052460
0.090952
0.087463
0.032108
0.097798
0.118795
0.088316
0.095026
0.002490
0.167761
0.128755
0.095808
0.212978
0.512602
0.837648
1.183695
1.365832
1.402971
1.325629
1.125551
0.757466
0.277376
0.055464
-0.144246
-0.201796
-0.134031
-0.028755
-0.019775
0.108370
0.041936
0.096371
0.037234
0.056267
0.110239
0.174156
0.227427
0.087149
0.154318
0.120593
0.146715
0.212783
0.114657
0.263185
0.148546
0.340179
0.373701
0.335650
0.294351
0.344450
0.425021
0.389652
0.387667
0.392903
0.374047
0.474619
0.465988
0.473682
0.454525
0.472396
0.550777
0.537703
0.585424
0.544865
0.456393
0.597075
0.618198
0.531596
0.601469
0.561411
0.557071
0.527877
0.518925
0.486330
0.511678
0.462964
0.406764
0.367014
0.416365
0.399740
0.355851
0.394024
0.417794
0.255188
0.240830
0.239949
0.268965
0.229192
0.167922
0.256456
0.123957
0.177868
0.114823
0.149606
0.092150
0.112422
0.058915
0.124481
0.124851
0.171053
0.089530
0.077494
0.010820
0.016159
0.076676
0.051463
-0.010441
0.045486
0.037996
0.017660
0.099404
-0.037902
0.101790
-0.013978
0.022356
0.043583
-0.000422
0.047284
0.066687
0.092202
-0.007897
-0.000025
0.069798
-0.052087
-0.026983
0.024583
-0.055829
0.045234
-0.005089
0.008017
0.058265
0.039024
0.016881
0.076044
0.043579
0.052865
0.074578
0.012278
-0.012317
0.056229
-0.002472
0.053716
0.048490
-0.003182
0.019964
0.083227
0.046619
0.105088
-0.012563
0.104309
-0.072477
0.147688
0.010871
0.050111
0.064616
0.043199
0.076406
-0.007511
0.060748
0.090171
0.106995
0.203474
0.140422
0.144282
0.168787
0.168232
0.229287
0.121182
0.170153
0.157935
0.162260
0.240174
0.172371
0.211986
0.112248
0.173010
0.074247
0.210255
0.115100
0.061183
0.079321
0.008221
-0.006772
0.079203
0.028590
0.094937
0.037312
0.044428
0.007687
0.114075
-0.014070
0.046558
0.017552
-0.010418
-0.003599
0.058134
-0.014242
-0.024046
0.039721
-0.141921
-0.054556
0.030589
0.071281
0.223834
0.447665
0.745659
1.105192
1.281436
1.425125
1.235745
0.892146
0.506160
0.183823
-0.016911
-0.196904
-0.184483
-0.167270
-0.120675
-0.034413
0.005958
-0.048526
0.034088
0.025954
0.052857
0.012092
0.070358
-0.043297
0.056483
0.104830
0.121271
0.039719
0.124502
0.083944
0.170855
0.173661
0.211543
0.199674
0.247879
0.245921
0.308271
0.264485
0.289213
0.401955
0.380390
0.420081
0.336814
0.350250
0.441670
0.351224
0.494069
0.385229
0.428085
0.448410
0.485191
0.478415
0.493305
0.446429
0.491290
0.429457
0.405883
0.434807
0.502871
0.328429
0.421030
0.421361
0.299179
0.358769
0.342440
0.329436
0.347021
0.372152
0.285391
0.259693
0.184856
0.164693
0.117542
0.131417
0.130616
0.119800
0.094823
0.127511
0.045054
-0.032896
0.107927
0.024360
-0.007979
-0.031010
0.027110
-0.044138
-0.020235
-0.063089
0.024498
0.042051
-0.033878
-0.041450
-0.015769
-0.008965
0.034816
-0.051979
-0.040345
-0.065509
-0.039401
-0.022870
-0.063395
-0.062836
-0.036384
0.009880
-0.043998
-0.118908
-0.026661
-0.040963
-0.022384
0.019330
0.025818
0.005283
-0.037983
0.002345
-0.089164
-0.056388
-0.033794
-0.098560
-0.057568
-0.014393
-0.037237
-0.070864
0.009154
0.028389
-0.051721
0.100788
-0.077261
-0.060681
-0.001982
0.027419
-0.075201
-0.044194
-0.017983
-0.061202
0.014524
-0.015497
0.053511
-0.070302
-0.077143
-0.003188
-0.085086
0.038154
0.061479
0.068636
0.084152
0.020813
0.034665
0.028552
0.123163
0.101902
0.139127
0.121163
0.089840
0.096609
0.079423
0.144745
0.098665
0.133269
0.135717
0.123006
0.172796
0.129408
0.069622
0.168913
0.112428
0.092392
0.003247
0.087144
0.047601
-0.007820
-0.028482
0.028012
0.038535
0.035761
0.052629
0.024517
0.050774
-0.022805
-0.066000
-0.021507
-0.026604
-0.033691
-0.009305
-0.064569
-0.008390
-0.007826
0.012604
-0.100330
-0.074624
0.065189
0.215109
0.427513
0.904023
1.077171
1.317294
1.376674
1.243763
0.840935
0.499438
0.185576
-0.120575
-0.247673
-0.178659
-0.164669
-0.142528
-0.035913
-0.017434
0.096907
0.043408
-0.005167
-0.004968
0.061798
0.031398
0.081324
0.112294
0.122668
0.061494
0.072533
0.087295
0.091687
0.172364
0.199528
0.197570
0.219708
0.299109
0.305188
0.224232
0.267246
0.320363
0.318204
0.406105
0.415659
0.440006
0.389313
0.388717
0.451017
0.485951
0.474803
0.506329
0.441352
0.524453
0.457824
0.626123
0.510471
0.614736
0.464403
0.528190
0.448734
0.524155
0.539142
0.477568
0.441092
0.401334
0.415124
0.409223
0.378722
0.285666
0.383974
0.261494
0.260993
0.307212
0.271608
0.216397
0.156206
0.177827
0.126282
0.190479
0.090572
0.100788
0.057100
0.054439
0.065695
0.144521
0.057660
0.034465
0.088591
0.108812
0.020815
-0.011612
0.006283
0.034401
0.002026
-0.000231
0.046214
0.013782
0.041645
0.024340
-0.034394
0.003751
0.023787
0.058256
-0.001450
0.073404
0.048632
0.050833
0.093258
-0.002894
-0.043569
-0.000332
0.077618
0.041511
0.005856
0.050370
0.018464
0.077352
0.022590
-0.008464
0.032745
0.041404
0.035413
0.067379
0.064028
0.019544
0.028637
0.025458
-0.004020
0.060588
0.036097
0.006376
-0.032858
0.014985
0.103265
-0.037878
0.049381
0.028518
-0.036119
0.137296
0.122558
0.133051
0.020744
0.088373
0.093511
0.086061
0.078578
0.097840
0.078580
0.170002
0.178004
0.136429
0.093729
0.119303
0.114743
0.174033
0.187097
0.259032
0.305829
0.181586
0.238721
0.210405
0.238415
0.216744
0.311105
0.182410
0.235675
0.202210
0.196275
0.163459
0.162366
0.150402
0.119846
0.107524
0.221983
0.087543
0.088347
0.102143
0.119594
0.092444
0.046245
0.083840
0.038289
0.155304
0.074149
0.047196
0.041092
0.139390
0.122126
0.014886
0.032636
0.102752
0.187136
0.372029
0.654040
0.921332
1.220923
1.467976
1.445146
1.263061
0.958829
0.524531
0.265992
-0.021730
-0.079967
-0.071936
-0.143732
-0.071898
0.126619
0.032294
0.129783
0.132220
0.152346
0.182827
0.121068
0.167661
0.157007
0.203876
0.256263
0.179581
0.253681
0.196251
0.222852
0.190673
0.224758
0.244005
0.343192
0.311693
0.323875
0.409739
0.352184
0.425518
0.458692
0.480270
0.504482
0.496023
0.463941
0.604124
0.477494
0.631201
0.566743
0.556050
0.540073
0.682377
0.553602
0.607298
0.576523
0.623856
0.575322
0.563657
0.608815
0.548328
0.630251
0.542530
0.506878
0.520961
0.432406
0.454692
0.429385
0.454008
0.476958
0.353079
0.382664
0.327540
0.291790
0.230982
0.276934
0.338655
0.315032
0.177683
0.267654
0.162458
0.197674
0.172626
0.176843
0.240458
0.147482
0.093049
0.135651
0.106574
0.117559
0.119514
0.207959
0.119279
0.141233
0.050122
0.106523
0.074494
0.086791
0.071541
0.090997
0.098129
0.056339
0.035938
0.183500
0.127827
0.093891
0.134077
0.026734
0.065325
0.099474
0.085360
0.105231
0.076654
0.106112
0.045329
0.056788
0.127798
0.069221
0.122142
0.143954
0.062945
0.129611
0.109433
0.151981
0.125122
0.084537
0.061064
0.084872
0.132257
0.153512
0.069276
0.101434
0.127694
0.017022
0.131008
0.136844
0.124991
0.109831
0.076381
0.070000
0.128901
0.132227
0.075496
0.123955
0.101339
0.144463
0.161110
0.208020
0.164475
0.170779
0.225066
0.196940
0.312730
0.311575
0.224979
0.336312
0.236017
0.254178
0.326304
0.197982
0.311981
0.286026
0.262494
0.227054
0.291721
0.247032
0.207677
0.218026
0.250062
0.215836
0.120717
0.160412
0.105924
0.139551
0.132494
0.157821
0.120991
0.057977
0.160837
0.094624
0.020594
0.104382
0.048319
0.056723
0.107206
0.026208
0.092416
0.096411
0.067265
0.013250
0.161201
0.150664
0.449744
0.701533
0.979005
1.251732
1.500000
1.447939
1.195583
0.853482
0.459083
0.167927
-0.026833
-0.145945
-0.129607
-0.165634
0.036529
0.041085
0.045689
0.125810
0.150352
0.109616
0.125137
0.127716
0.150175
0.129977
0.199016
0.189638
0.186148
0.193155
0.202393
0.233617
0.132250
0.229260
0.244329
0.306459
0.298384
0.337438
0.404858
0.357712
0.412692
0.428223
0.437875
0.468429
0.469411
0.454782
0.572287
0.529286
0.499675
0.546559
0.528345
0.608929
0.680337
0.585168
0.614540
0.601339
0.644894
0.552437
0.533383
0.476331
0.444622
0.510916
0.503356
0.471262
0.453616
0.481703
0.449112
0.427494
0.413367
0.398596
0.257158
0.286134
0.341473
0.249696
0.178532
0.174067
0.157437
0.194965
0.163948
0.161293
0.159217
0.104971
0.119753
0.125800
0.103751
0.042706
0.040024
0.059819
0.081729
0.022620
0.116352
0.018624
0.085753
0.076823
0.083873
0.089340
0.003596
-0.015924
0.036490
0.069250
0.050423
0.017678
0.108656
0.051293
-0.018382
0.094566
0.029938
0.049600
0.000953
-0.003518
0.058509
0.017742
0.015705
-0.009651
0.011626
0.006669
-0.052919
-0.016305
0.006243
-0.092400
0.010045
-0.067149
-0.030825
-0.017181
0.032617
0.005225
0.019520
-0.066947
-0.017152
0.072077
0.033031
-0.045367
-0.049336
0.001077
0.007525
0.016744
0.058437
0.028763
0.021393
0.075348
0.061430
0.062895
0.081524
0.040998
0.083959
0.053055
0.042783
0.038554
0.103790
0.065370
0.087356
0.150594
0.129514
0.197651
0.235076
0.181192
0.156153
0.114463
0.115246
0.157573
0.122252
0.135465
0.189507
0.157158
0.073430
0.105879
0.040900
0.091467
0.030954
0.117428
0.108291
-0.000923
0.040413
0.032797
-0.033044
0.032004
0.045927
0.008513
0.023732
0.031965
-0.023849
0.024076
-0.078805
-0.036215
0.021799
-0.019503
0.030599
-0.023184
-0.022142
-0.061713
-0.075077
0.123857
0.281139
0.593965
0.936558
1.269245
1.332947
1.303398
1.078203
0.736955
0.295180
0.040913
-0.137902
-0.219044
-0.215146
-0.167493
-0.092251
-0.136103
-0.040557
-0.004003
-0.065836
-0.005220
-0.038129
0.016643
0.032286
0.084408
0.026742
0.069604
0.057068
0.123513
0.132614
0.111322
0.051198
0.135702
0.162151
0.192786
0.237499
0.193939
0.296751
0.275647
0.255057
0.320943
0.288927
0.378286
0.359537
0.387602
0.402698
0.405242
0.412349
0.466091
0.408914
0.432657
0.426915
0.449852
0.397662
0.383926
0.495666
0.462176
0.366743
0.382946
0.430491
0.420600
0.348909
0.377801
0.331178
0.333490
0.299368
0.172147
0.232158
0.265429
0.169516
0.189168
0.120551
0.111126
0.051422
0.176406
0.021825
0.046828
0.080168
0.077324
0.068337
0.008836
-0.016470
0.021367
-0.086870
-0.083990
-0.136868
-0.059807
-0.113929
-0.018141
-0.088837
-0.073594
-0.070608
-0.023496
-0.082091
-0.101801
-0.001337
-0.014125
-0.066308
-0.048865
-0.122756
-0.167695
-0.038720
-0.106464
-0.121317
-0.109902
-0.062395
-0.099040
-0.093628
-0.035924
-0.098009
-0.061784
-0.087923
-0.075193
-0.087442
-0.083693
-0.096596
-0.072687
-0.095362
-0.165941
-0.136974
-0.071106
-0.065675
-0.047882
-0.083522
-0.084917
0.016114
-0.126136
-0.013725
-0.135238
0.008205
-0.116380
-0.075106
-0.075614
-0.071916
0.041353
-0.115295
0.027826
-0.137909
-0.046504
-0.125996
-0.042187
-0.044230
-0.022245
-0.002921
-0.023729
-0.009066
0.063907
0.040811
0.104163
0.043994
0.102790
0.085876
0.068604
0.019774
0.128334
0.192172
0.141778
0.102440
0.081906
0.115609
0.088189
0.010505
0.048394
0.021189
0.080994
0.065636
0.136021
0.045724
0.008426
0.023981
0.032611
0.015860
0.020836
-0.073951
-0.029956
-0.068226
-0.032504
-0.092007
-0.074181
-0.055915
-0.086973
-0.021588
-0.023369
-0.063232
-0.032944
-0.017943
-0.037526
-0.055824
-0.083510
-0.012953
0.108735
0.360170
0.635622
0.967872
1.257882
1.291248
1.208336
0.986758
0.632951
0.269525
-0.088009
-0.212698
-0.267944
-0.224897
-0.149384
-0.115649
-0.110886
-0.072686
-0.027999
-0.020343
0.010237
0.027154
-0.069314
-0.085709
-0.073325
-0.011936
0.085148
0.069662
0.105980
0.124033
0.019033
0.042831
0.096266
0.184912
0.135386
0.175696
0.153465
0.128961
0.309471
0.311506
0.384790
0.242810
0.371247
0.368520
0.361428
0.391861
0.408374
0.419710
0.433092
0.460460
0.458895
0.485931
0.427835
0.415480
0.474311
0.430827
0.439284
0.416200
0.351924
0.430913
0.412406
0.427655
0.398157
0.362718
0.377546
0.344554
0.302091
0.272666
0.178846
0.262432
0.140932
0.162574
0.236073
0.188824
0.037084
0.176567
0.088886
0.140562
0.041621
0.042170
0.040915
0.001700
0.045894
0.048139
0.061549
0.037425
0.020366
-0.021031
-0.057499
-0.035750
0.011485
-0.030590
-0.002224
0.002673
-0.042758
0.004556
-0.031591
-0.056650
0.007197
-0.084883
-0.016898
-0.094700
-0.008196
-0.035399
0.003308
0.004817
-0.059712
-0.058831
0.000386
0.024367
0.055670
-0.035191
-0.017354
-0.020220
0.093420
-0.020135
-0.030402
-0.020980
-0.011586
0.017788
0.081871
-0.008055
0.010553
-0.008066
-0.052851
-0.046126
0.036271
-0.031609
0.008100
0.028659
-0.107761
-0.060767
0.045759
-0.033425
-0.008416
-0.022790
-0.050846
-0.006899
-0.061137
0.089888
-0.026845
0.060511
0.058183
0.070603
0.046177
0.059707
-0.011778
0.048746
0.050431
0.150665
0.112403
0.098956
0.123880
0.252563
0.114046
0.091144
0.162479
0.177340
0.243359
0.159048
0.207645
0.220885
0.189320
0.198542
0.118030
0.165434
0.201342
0.143178
0.110114
0.053434
0.115329
0.196720
0.096134
0.025842
0.091449
-0.019839
0.088019
0.017681
0.053555
0.027268
-0.003106
0.035212
-0.007110
0.031821
0.052017
0.112990
-0.061974
-0.069247
-0.006374
0.038263
0.255349
0.414110
0.762576
1.052423
1.303375
1.415187
1.307686
1.055164
0.768217
0.296973
0.002259
-0.233686
-0.216328
-0.215877
-0.117228
-0.033316
-0.056370
0.025280
0.092604
0.032366
0.036089
0.052023
0.047381
0.117990
0.125307
0.205504
0.161515
0.117265
0.205889
0.229678
0.210055
0.222656
0.215983
0.247882
0.283982
0.255679
0.288838
0.270618
0.378135
0.361867
0.439792
0.427881
0.491187
0.430203
0.501432
0.507567
0.565121
0.529910
0.544948
0.512961
0.598185
0.571063
0.573815
0.545326
0.531802
0.595410
0.545488
0.508748
0.557111
0.491816
0.466141
0.469985
0.487663
0.478787
0.374845
0.378075
0.424500
0.359594
0.415212
0.381314
0.225267
0.350065
0.255314
0.302141
0.250871
0.221118
0.227003
0.175249
0.165821
0.164312
0.095238
0.128597
0.076668
0.129304
0.022744
0.163488
0.175472
0.046378
0.024491
0.066713
0.018460
0.079367
0.058999
0.147066
0.000666
0.076672
0.030751
-0.015682
0.056823
-0.031601
0.059702
0.013733
0.090637
-0.040638
-0.005228
0.119699
0.093452
0.078812
0.089813
0.045647
-0.010034
0.127892
0.053826
-0.004551
0.004732
0.087376
0.039385
0.094197
0.090843
0.042721
0.048907
0.032967
0.023994
0.027580
0.088459
0.043361
0.182847
0.030069
0.109056
0.023285
0.023625
0.120187
0.025275
0.079896
0.080465
0.119344
0.088719
0.047566
0.010717
0.125988
0.117357
0.107587
0.113151
0.176200
0.184288
0.121230
0.118928
0.178404
0.158066
0.116316
0.152714
0.181792
0.189309
0.208276
0.248124
0.241392
0.201646
0.254086
0.354400
0.270972
0.190608
0.219384
0.218425
0.143161
0.168338
0.152555
0.136465
0.080172
0.138890
0.161446
0.138204
0.078960
0.091662
0.063815
0.004053
0.112493
-0.001510
0.073123
0.053647
0.076077
0.076140
0.029629
0.057067
0.149685
0.092286
0.060930
0.070251
-0.024269
0.007864
0.186453
0.172696
0.436294
0.732409
1.063986
1.336376
1.423747
1.347301
1.031387
0.602116
0.320947
0.073057
-0.165703
-0.131341
-0.176087
-0.080718
0.041322
0.036640
0.086617
0.078265
0.119976
0.065699
0.081006
0.028035
0.066320
0.037701
0.065042
0.057513
0.261083
0.126052
0.184132
0.183006
0.148858
0.268850
0.308051
0.237046
0.278448
0.307379
0.176622
0.320736
0.390575
0.307208
0.443705
0.382241
0.454041
0.364240
0.486199
0.513662
0.433685
0.516186
0.487115
0.463365
0.425435
0.490821
0.530259
0.615693
0.591945
0.540319
0.486250
0.470471
0.454051
0.425337
0.393312
0.364931
0.462684
0.410362
0.338391
0.284932
0.347209
0.323475
0.289424
0.286261
0.290363
0.193568
0.089076
0.167018
0.144888
0.137922
0.102332
0.222762
0.137203
0.089386
0.022471
0.053735
-0.030845
-0.010136
0.065218
0.044929
0.055504
0.033577
0.003508
-0.002438
0.014344
0.039836
-0.014799
0.044150
-0.061196
-0.093341
-0.041303
-0.031102
-0.042599
-0.047595
0.039751
0.033561
-0.017196
-0.058972
-0.010604
-0.012758
-0.019279
-0.038917
-0.041377
-0.066013
-0.094587
0.020970
-0.063803
0.014379
0.005995
-0.094814
-0.049627
-0.059874
-0.077710
-0.031528
-0.005957
-0.043072
-0.076102
-0.020184
-0.025255
-0.008983
-0.074760
-0.036787
-0.025359
-0.016876
-0.008739
-0.016872
-0.047228
0.008326
0.018238
0.043350
-0.086230
-0.012057
-0.055117
0.000509
0.030401
-0.027850
0.009517
-0.010660
0.066995
0.036401
-0.023918
0.085207
0.074246
0.060959
0.095851
0.104324
0.144526
0.075993
0.065877
0.041660
0.119954
0.067605
0.176164
0.119060
0.043310
0.083775
0.039118
0.031713
0.022893
0.113693
0.029436
0.007220
-0.057797
0.045384
0.043123
-0.037447
-0.055998
-0.057663
-0.089848
-0.116309
-0.099006
0.016516
-0.003290
-0.114569
0.014577
0.030754
-0.052428
-0.101668
-0.065315
-0.043918
-0.048081
0.004992
0.032782
0.176263
0.423188
0.766266
0.958954
1.296945
1.274446
1.267290
0.900664
0.464318
0.168946
-0.130874
-0.293561
-0.348430
-0.202248
-0.230858
-0.089839
-0.097981
-0.038583
-0.073681
0.001282
0.036501
-0.074550
-0.051457
0.016150
-0.018830
-0.031037
0.006525
0.019890
0.037658
0.110095
0.031730
0.044438
0.138977
0.180370
0.192502
0.212238
0.204719
0.229295
0.226870
0.243927
0.301608
0.267329
0.251209
0.322584
0.345643
0.332126
0.339425
0.296456
0.399151
0.420143
0.489146
0.377741
0.458120
0.493058
0.366012
0.455746
0.444117
0.357851
0.389567
0.423083
0.371596
0.320233
0.347870
0.323953
0.308306
0.191406
0.275744
0.143240
0.210368
0.221318
0.148301
0.035824
0.161106
0.032387
0.101565
0.021573
0.042285
0.057134
0.037241
0.088778
-0.081226
-0.115925
-0.122221
0.017243
-0.057035
0.017752
-0.096837
-0.135400
-0.122323
-0.070166
-0.121939
-0.150924
-0.081130
-0.055862
-0.073362
-0.068064
-0.098329
-0.142744
-0.063657
0.008656
-0.096851
-0.117831
-0.049266
-0.144418
-0.134913
-0.124499
-0.072208
-0.135966
-0.060307
-0.045285
-0.089185
-0.096960
-0.079945
-0.101977
-0.039953
-0.082002
-0.072267
-0.109116
-0.054288
-0.088800
-0.061539
-0.061219
-0.046333
-0.016055
-0.017305
-0.065136
-0.101544
-0.049006
-0.123572
-0.061929
-0.067733
-0.111166
-0.054933
-0.057557
0.021191
-0.135835
-0.127075
-0.032895
0.011383
-0.131416
-0.101516
-0.102618
0.021379
-0.101683
-0.047502
0.005574
0.073139
0.001376
0.034990
-0.023042
0.030503
0.050517
0.090306
0.100737
0.108333
0.067875
0.078728
0.074518
0.040280
0.047483
0.081041
0.096834
0.097713
0.116203
0.069565
0.102218
0.030449
0.051037
-0.096295
0.056208
-0.067931
-0.055553
0.044572
-0.107807
0.074461
0.037408
-0.107203
-0.041958
-0.084807
-0.112628
0.025809
0.008245
-0.089438
-0.032930
-0.155084
-0.100856
-0.122982
-0.037549
-0.034382
0.082069
0.189863
0.407787
0.702905
1.125869
1.373889
1.253853
1.173911
0.800492
0.470921
0.097839
-0.126865
-0.265890
-0.367625
-0.233573
-0.176536
-0.068866
-0.077506
-0.112087
-0.031553
-0.025676
-0.056374
-0.024958
0.004871
0.045182
-0.007670
0.026710
0.003922
0.085401
0.173871
0.103880
0.124969
0.110524
0.123368
0.136476
0.111637
0.171480
0.267315
0.226238
0.245906
0.284475
0.324930
0.320858
0.370115
0.367476
0.369033
0.363027
0.415378
0.466661
0.523097
0.466031
0.458209
0.439068
0.447467
0.449552
0.502181
0.436043
0.415656
0.458887
0.424916
0.379136
0.396323
0.405517
0.398290
0.420856
0.362606
0.273692
0.318642
0.283464
0.279626
0.256677
0.202769
0.183028
0.189335
0.097460
0.165849
0.062168
0.058662
-0.016587
0.073217
0.070112
0.051618
0.060136
0.011597
0.027395
-0.010932
-0.068821
-0.009775
-0.028372
-0.009913
0.022752
0.039921
0.039980
-0.007215
0.059073
-0.017130
-0.010485
-0.024008
-0.050962
-0.119362
-0.041497
-0.055445
-0.105942
0.010346
-0.036888
0.020278
-0.049830
-0.079520
-0.065080
0.065130
-0.055179
-0.018242
0.020819
-0.039674
-0.018926
-0.044171
-0.062922
-0.056232
0.017434
-0.035559
-0.017472
-0.059823
0.014441
0.023426
-0.005367
-0.069288
0.018768
-0.054711
0.017609
0.035039
0.083624
-0.008548
-0.016708
0.060244
-0.103894
0.064048
-0.044851
-0.093649
-0.037770
0.029863
0.060042
0.159650
-0.022624
0.096358
0.068735
0.081539
0.074061
0.075606
0.125793
0.182983
0.111186
0.151392
0.119489
0.141806
0.237116
0.179356
0.215461
0.197406
0.185477
0.196818
0.223130
0.141503
0.242769
0.229593
0.126575
0.168859
0.145869
0.116230
0.115066
0.162211
0.185225
0.045779
0.071623
0.192345
0.058668
0.057627
0.052388
0.008261
0.063692
0.011505
0.031215
0.029850
0.078546
0.055643
0.054330
-0.003128
0.015785
0.064341
0.032343
0.023503
0.073005
0.269380
0.617052
0.900882
1.202404
1.404747
1.405862
1.246155
0.856333
0.522367
0.122345
-0.005066
-0.196274
-0.154899
-0.187536
0.019570
0.022947
-0.001223
0.068578
0.076516
0.055647
0.132966
0.120285
0.098000
0.033058
0.060617
0.216690
0.084696
0.146922
0.164966
0.273308
0.206127
0.282384
0.291986
0.257499
0.282083
0.362962
0.307670
0.333423
0.330826
0.433060
0.379473
0.440953
0.453982
0.454045
0.589221
0.567791
0.450277
0.558853
0.553982
0.599691
0.480974
0.454150
0.555494
0.470882
0.499839
0.545431
0.595649
0.658835
0.512798
0.494955
0.548041
0.530408
0.384144
0.462131
0.470290
0.393852
0.455205
0.393470
0.380837
0.324636
0.323575
0.305897
0.270985
0.227975
0.310221
0.150235
0.222123
0.141561
0.201398
0.130498
0.118023
0.106613
0.126428
0.161538
0.204635
0.075270
0.079988
0.085970
0.133154
0.073813
0.065811
0.136149
0.057734
0.009417
0.086460
0.121035
0.080947
0.033643
0.069034
0.017693
0.052117
0.084545
0.096806
0.042544
-0.038211
0.073649
0.082974
0.121592
0.049367
0.061159
0.073440
0.073462
-0.008156
0.037812
0.035130
0.059511
0.171354
0.067767
0.144598
0.122976
-0.014283
0.064802
0.071422
0.084331
0.108163
0.025120
0.055648
0.024782
0.076689
0.040739
0.103750
0.134147
0.043010
0.061746
0.112816
0.113109
0.114633
0.154417
0.131834
0.144313
0.148285
0.134537
0.127333
0.196158
0.172879
0.100974
0.095879
0.159976
0.140279
0.224781
