0.023823
0.072672
0.013615
-0.005269
0.025934
0.038939
-0.004797
-0.017165
0.018564
0.028468
0.002851
-0.015250
0.064162
-0.048891
0.006712
0.014683
0.076922
0.037872
0.066549
-0.017541
0.054919
0.113668
0.113510
0.089040
0.094832
0.041580
0.049341
0.018653
0.202982
0.084655
0.157014
0.190853
0.154881
0.163274
0.184535
0.162568
0.226939
0.197568
0.197181
0.236235
0.241402
0.231173
0.228847
0.192754
0.106349
0.142196
0.144149
0.107557
0.112252
0.142956
0.090476
0.153244
0.133286
0.034783
0.097230
0.052500
0.079350
0.066349
0.068260
-0.025802
0.057020
0.086805
0.119039
0.044734
0.055311
0.158840
0.134149
0.002238
-0.033107
0.038804
0.153241
0.184745
0.204905
0.485144
0.748786
1.131938
1.334903
1.426721
1.341041
1.088896
0.730278
0.441338
-0.043530
-0.082844
-0.145253
-0.076721
-0.029149
-0.089086
0.096804
0.168221
0.017707
0.068574
0.053840
0.103290
0.031855
0.187524
0.088456
0.187859
0.182767
0.121005
0.131437
0.245339
0.128137
0.229392
0.222561
0.252357
0.341496
0.414039
0.357843
0.344183
0.346959
0.409484
0.477499
0.435730
0.437628
0.468490
0.528676
0.564046
0.581708
0.576815
0.560312
0.530609
0.712384
0.559167
0.618520
0.703125
0.580282
0.655100
0.522531
0.539888
0.657565
0.558503
0.590665
0.440147
0.504318
0.508950
0.580930
0.375254
0.426958
0.552275
0.437194
0.422897
0.418863
0.443245
0.318111
0.335001
0.181422
0.324456
0.284784
0.292058
0.162833
0.242126
0.216588
0.126522
0.087253
0.118108
0.093808
0.070473
0.189410
0.211908
0.139585
0.126008
0.127046
0.052166
0.087862
0.113428
0.029941
0.076888
0.112341
0.078588
0.094513
0.116488
0.173681
0.090840
0.142523
0.161911
0.083248
0.043009
0.077891
0.067024
0.067080
0.150402
0.140204
0.093987
0.087989
0.084994
0.104634
0.053584
0.121592
0.161359
0.108607
0.143256
0.025526
0.170919
0.090099
0.082388
0.154778
0.105681
0.033142
0.058258
0.140446
0.107577
0.097788
0.072275
0.057128
0.128857
0.125062
0.108500
0.078867
0.109917
0.078165
0.136671
0.137668
0.076777
0.084036
0.163381
0.135769
0.147209
0.282740
0.232810
0.183874
0.164012
0.304246
0.221545
0.190982
0.218915
0.290475
0.212191
0.256449
0.185620
0.259580
0.314050
0.225021
0.244508
0.242485
0.286259
0.293045
0.210333
0.226090
0.246072
0.145362
0.220698
0.201916
0.202351
0.121735
0.270490
0.182478
0.152873
0.134884
0.108970
0.132847
0.130622
0.064225
0.174499
0.128859
0.140195
0.046814
0.103840
0.159859
0.105954
0.087104
-0.003307
0.085612
0.067059
0.217072
0.399096
0.653929
1.030047
1.314349
1.478795
1.402021
1.254340
0.928835
0.469986
0.181408
0.034594
-0.152958
-0.056021
-0.058993
-0.000916
0.042566
0.109448
0.120263
0.201845
0.185627
0.038754
0.183781
0.062323
0.155896
0.155300
0.183332
0.168058
0.238498
0.199088
0.163691
0.206962
0.192542
0.293326
0.322502
0.355968
0.361391
0.453077
0.345900
0.436142
0.406068
0.393303
0.459230
0.534495
0.490293
0.509172
0.560653
0.601411
0.538598
0.561893
0.597340
0.591220
0.547387
0.610954
0.524423
0.541814
0.555622
0.629128
0.597437
0.571417
0.567941
0.550123
0.470653
0.596732
0.392948
0.566762
0.375412
0.339028
0.383488
0.400043
0.382119
0.306134
0.267990
0.264426
0.222914
0.282624
0.307182
0.221012
0.237346
0.149796
0.208178
0.142704
0.120354
0.169464
0.113974
0.089221
0.041081
0.065621
0.071829
0.053176
-0.038270
0.010396
0.046577
0.055309
0.018202
0.056843
0.091829
-0.002213
0.040598
0.147083
0.031377
0.062822
-0.069465
0.028887
0.023993
-0.027364
0.027830
0.012446
0.043687
0.096031
0.012081
0.047793
0.012893
-0.036743
0.030339
0.090994
0.029563
0.022494
0.014770
-0.010058
-0.022375
0.018562
-0.011760
0.047974
0.058243
0.001951
-0.070497
0.053651
0.009361
0.092994
-0.024867
0.061416
0.037346
-0.007339
0.015186
0.015123
0.028859
0.038841
0.042185
0.003919
0.050251
0.038866
0.097270
0.102247
0.057211
0.104065
0.124288
0.114099
0.164350
0.045757
0.104943
0.129630
0.056199
0.243474
0.167261
0.179429
0.185746
0.163371
0.216928
0.167439
0.098415
0.180151
0.102903
0.165667
0.215189
0.149039
0.175106
0.237883
0.172749
0.061741
0.126103
0.103256
0.003864
0.005852
0.037859
0.109350
0.004251
-0.073834
-0.014052
0.051809
-0.000142
-0.013056
-0.017693
-0.008428
-0.075879
0.006780
-0.045227
-0.051289
-0.028728
0.005278
-0.102277
0.003329
0.202440
0.228195
0.477863
0.797783
1.236819
1.357292
1.396737
1.197614
0.985550
0.521170
0.186924
-0.118425
-0.193236
-0.200805
-0.118289
-0.082744
-0.048118
-0.057202
0.013647
-0.026434
0.003615
0.032082
0.047935
0.086596
0.113003
0.090740
0.052249
0.158557
0.043149
0.156493
0.160889
0.134608
0.109688
0.168415
0.191199
0.172749
0.194442
0.168822
0.282656
0.342818
0.245225
0.391523
0.336231
0.324210
0.392750
0.458182
0.418337
0.419026
0.440444
0.465617
0.474943
0.487987
0.505081
0.403583
0.595908
0.469317
0.517731
0.495273
0.458824
0.417672
0.384998
0.418738
0.422460
0.403482
0.325898
0.343593
0.303581
0.414530
0.302443
0.202753
0.243213
0.195593
0.183414
0.220796
0.178150
0.049421
0.126485
0.102290
0.153438
0.116106
0.158940
0.087411
-0.030425
0.059740
0.035939
0.041938
0.000552
-0.008600
-0.002799
-0.074158
-0.007120
0.044438
0.011352
-0.014939
-0.003501
-0.014228
0.033588
0.024515
-0.101791
-0.069086
-0.136771
-0.072042
-0.045871
-0.041323
0.031639
-0.130532
0.038993
-0.066974
-0.040059
-0.069988
-0.064862
-0.137519
-0.068988
-0.151027
-0.066812
-0.132029
-0.040830
-0.044700
-0.040087
0.017771
-0.034505
-0.007221
-0.013470
-0.056770
-0.094158
0.007342
-0.079949
0.022733
-0.041295
0.013296
-0.095576
-0.056838
-0.087959
-0.027419
-0.079265
-0.020076
-0.072518
-0.036814
-0.044764
-0.061067
-0.072610
0.067884
0.014771
0.040387
0.011271
0.017329
0.085678
-0.046112
0.044805
0.034441
0.054507
0.067531
0.105679
-0.026168
0.066913
0.146316
0.105045
0.167100
0.140807
0.193445
0.217265
0.039201
0.115641
0.195969
0.142147
0.066936
0.177977
0.114761
0.106160
0.096889
0.118491
0.071820
0.065327
-0.020747
0.021133
0.016424
0.020541
-0.057411
0.052958
-0.050956
0.068773
-0.006322
-0.045103
-0.110585
0.035997
-0.035859
-0.046075
0.050372
0.021249
-0.021685
-0.017989
0.001279
0.103069
0.184489
0.486343
0.713055
1.066528
1.199999
1.351518
1.224134
0.980079
0.692300
0.255057
-0.048919
-0.189034
-0.325815
-0.200597
-0.130171
-0.132328
0.023872
0.031412
0.007484
0.035415
-0.002844
0.051998
0.092611
0.070558
0.114796
0.118964
0.045427
0.163674
0.096502
0.137670
0.184171
0.137306
0.207314
0.267010
0.273112
0.228753
0.272919
0.219415
0.357986
0.343465
0.306418
0.332320
0.415473
0.405654
0.403744
0.526480
0.461156
0.541023
0.407624
0.457273
0.616649
0.522110
0.513367
0.464190
0.510881
0.478323
0.512316
0.576005
0.522723
0.435598
0.499378
0.406838
0.469869
0.427718
0.381205
0.348812
0.353992
0.275413
0.248186
0.346968
0.302535
0.237156
0.230631
0.203156
0.222281
0.227646
0.222244
0.133327
0.110852
0.048032
0.054341
0.060056
0.115056
0.052288
0.058360
-0.016127
0.022718
0.060582
0.068806
0.035079
0.033029
0.068368
0.025207
-0.007208
-0.083718
0.012432
0.006002
0.072478
0.034597
0.089921
-0.024066
0.046077
0.035156
-0.026756
0.061794
-0.010823
-0.014263
0.053410
-0.000969
0.035752
0.034493
0.085401
0.049899
0.036435
0.076406
0.108484
0.043042
0.075955
0.119833
-0.006146
0.055755
0.104437
0.072639
0.033224
0.033481
0.054000
0.040591
-0.032069
0.052341
-0.022323
-0.051885
-0.018176
-0.018324
0.126424
0.011355
0.030909
0.106344
0.096380
0.077670
0.081495
0.036366
0.070712
0.054714
0.081368
0.081621
0.107508
0.188525
0.161440
0.123744
0.190738
0.114733
0.147874
0.251665
0.121450
0.191699
0.228883
0.250035
0.148584
0.233054
0.255365
0.260155
0.229551
0.284043
0.273309
0.182942
0.232986
0.306493
0.176330
0.176727
0.149439
0.116608
0.216691
0.167657
0.131876
0.090912
0.116772
0.113091
0.078218
0.076923
0.063477
0.106947
0.072728
0.147139
-0.001933
0.073142
0.054728
0.080858
0.004800
-0.028428
0.081296
0.030332
0.108950
0.266558
0.444507
0.816138
1.054991
1.392466
1.500000
1.384166
1.227038
0.807434
0.436972
0.169499
-0.103312
-0.145918
-0.156552
-0.069035
0.034218
0.042351
-0.010782
0.129709
0.026192
0.063887
0.133910
0.157364
0.133631
0.130231
0.173080
0.205740
0.249683
0.197128
0.226511
0.260150
0.205963
0.288882
0.248078
0.355701
0.301466
0.414344
0.404621
0.363016
0.495235
0.435875
0.491375
0.555703
0.467481
0.529148
0.467885
0.489480
0.567696
0.570254
0.552799
0.565263
0.609678
0.588803
0.610814
0.558735
0.627193
0.656265
0.581199
0.613856
0.666591
0.631561
0.582730
0.583269
0.487825
0.476269
0.539670
0.554779
0.458981
0.416057
0.431275
0.375880
0.373416
0.337665
0.263880
0.282582
0.274020
0.254894
0.292340
0.286920
0.254436
0.237727
0.198295
0.151707
0.145223
0.223968
0.114614
0.077769
0.115240
0.177218
0.206182
0.043307
0.149624
0.095025
0.088766
0.142603
0.009192
0.113080
0.160081
0.011692
0.024123
0.044081
0.114756
0.125839
0.168602
0.083194
0.119898
0.062514
0.133336
-0.002177
0.126651
0.045528
0.083189
0.142708
0.060062
0.138779
0.084189
0.053682
0.137168
0.095627
0.062121
0.203274
0.102053
0.036705
0.105639
0.046314
0.102799
-0.037535
0.132265
0.129565
0.086672
0.036964
0.109533
0.123697
0.129461
0.137802
0.071684
0.148102
0.175479
0.209915
0.024532
0.091800
0.097589
0.146352
0.117742
0.184260
0.126081
0.096171
0.173871
0.096717
0.193370
0.151644
0.247036
0.201648
0.303492
0.208583
0.272586
0.246393
0.198123
0.380249
0.249958
0.304718
0.324484
0.317138
0.271407
0.264748
0.226331
0.177180
0.264724
0.166230
0.172949
0.098322
0.160355
0.068748
0.171029
0.139466
0.104543
0.054273
0.137880
0.135896
0.044349
0.106486
0.061588
-0.000534
0.148701
0.116094
0.003301
0.101074
0.041658
0.030488
0.024566
0.017455
-0.042675
0.199234
0.352558
0.676971
1.017754
1.343468
1.441727
1.450695
1.304893
1.018758
0.514414
0.236934
0.018891
-0.173958
-0.213181
-0.116968
0.048008
0.023832
0.133858
0.088177
0.139188
0.115832
0.009583
0.070393
0.184790
0.142461
0.188898
0.142154
0.109500
0.195697
0.174194
0.162089
0.257451
0.247793
0.185420
0.380545
0.206668
0.399010
0.336538
0.341130
0.371491
0.352289
0.381765
0.396010
0.435648
0.491783
0.501095
0.446304
0.548827
0.583042
0.581535
0.448759
0.575015
0.645548
0.557388
0.579680
0.635122
0.571399
0.658652
0.506707
0.507912
0.526722
0.517977
0.506556
0.460318
0.446120
0.448293
0.393877
0.386113
0.371497
0.271420
0.308985
0.241518
0.266828
0.202896
0.198972
0.299096
0.167771
0.213823
0.120053
0.148808
0.064695
0.069475
0.219952
0.046073
0.098481
0.065542
0.120578
0.159842
0.038369
-0.059906
0.062135
0.085144
0.006330
-0.001386
0.032603
0.076771
0.077298
0.003854
0.034656
0.012703
0.027506
0.033178
-0.022198
-0.041066
0.075988
0.033384
0.042019
0.024622
-0.029844
0.044888
-0.030528
0.002680
0.026778
-0.010658
0.011313
0.041559
-0.042958
0.040275
0.002250
0.069701
-0.060726
0.003155
-0.074458
0.073182
-0.005516
-0.003827
0.027875
0.091366
0.015854
0.035177
0.024002
-0.043145
-0.016076
0.035486
0.027958
-0.039682
0.017075
0.000633
-0.016642
0.021168
-0.000233
0.067620
0.005220
0.076358
-0.072661
0.026439
0.011639
0.041497
0.209239
0.076023
0.112133
0.108272
0.185767
0.115833
0.106147
0.085482
0.234494
0.130312
0.194889
0.041046
0.208500
0.097468
0.162445
0.115976
0.169716
0.132528
0.001944
0.050807
0.098671
0.044044
0.139670
0.009673
0.053179
0.013451
0.069601
0.046664
0.026440
0.016990
0.002357
-0.008201
0.037363
-0.049405
-0.080111
-0.058644
-0.042781
-0.104533
-0.032671
-0.089680
-0.117930
-0.048023
-0.065391
-0.114143
0.072703
0.193098
0.412179
0.680853
1.038143
1.270366
1.325165
1.252821
0.980107
0.592350
0.269175
-0.099400
-0.214009
-0.310211
-0.235375
-0.153033
-0.097479
-0.061107
0.016179
-0.032005
-0.048262
-0.033602
0.029482
-0.010989
-0.070079
0.051117
0.036839
0.067276
0.043753
0.172521
0.060298
0.168248
0.128053
0.089385
0.190823
0.191824
0.258177
0.226039
0.229831
0.285651
0.278690
0.242262
0.312151
0.318296
0.353131
0.442850
0.399470
0.442869
0.460441
0.441937
0.433456
0.447209
0.411913
0.459457
0.474910
0.480354
0.440368
0.385834
0.429959
0.413040
0.330089
0.430904
0.365116
0.293203
0.336274
0.304265
0.343614
0.208572
0.256686
0.185645
0.153672
0.244149
0.174754
0.117620
0.106545
0.129402
0.138795
0.073610
0.060746
0.097989
0.066260
0.099578
0.037248
-0.103881
0.010720
-0.013582
0.045798
0.004305
-0.027216
-0.036318
0.003594
-0.027334
-0.048479
-0.114115
0.062519
-0.056688
-0.096024
-0.089765
-0.059404
-0.030263
-0.060871
-0.073774
-0.149033
-0.085780
-0.111122
-0.035873
-0.056440
-0.117636
-0.055322
-0.032990
-0.174219
-0.066457
-0.020098
-0.119268
-0.098185
-0.158970
-0.112805
-0.038337
-0.099546
-0.054431
-0.153759
-0.096605
-0.085107
-0.068840
-0.061055
-0.106397
-0.126712
-0.177241
-0.157328
-0.087181
-0.105969
-0.095452
-0.086558
-0.030838
-0.024716
-0.032942
0.013312
-0.108202
-0.117268
-0.016596
-0.029528
-0.054163
-0.024706
-0.033126
0.017252
-0.058018
0.034039
-0.003297
-0.071094
-0.012666
-0.040178
0.096743
0.052739
0.055936
0.129011
0.091178
0.065112
0.177417
0.121978
0.161180
0.142702
0.043394
0.041419
0.125492
0.032992
0.122157
0.027609
0.105856
0.064001
-0.000829
-0.038227
0.021802
0.018759
-0.027515
-0.026408
0.009000
-0.004625
0.016421
-0.041234
-0.030138
-0.026632
-0.053010
-0.110967
-0.056431
0.006392
-0.072231
-0.058353
-0.112327
-0.051765
-0.121845
-0.037607
-0.120232
0.016573
0.086841
0.405914
0.569749
0.971598
1.240569
1.371714
1.327528
0.985218
0.652948
0.306324
0.006575
-0.197469
-0.291632
-0.253799
-0.135046
-0.070736
-0.162462
-0.054462
-0.020311
0.013832
-0.077954
-0.021381
0.056812
-0.000530
0.049835
0.134319
0.008326
0.050873
0.075352
0.065904
0.092561
0.009147
0.117750
0.075400
0.268519
0.227676
0.281941
0.174106
0.191226
0.260457
0.370376
0.307098
0.392849
0.434032
0.358188
0.374786
0.423660
0.444485
0.449785
0.492959
0.569562
0.502195
0.492527
0.479565
0.534567
0.525033
0.455498
0.501492
0.461672
0.377500
0.465998
0.415452
0.335194
0.386331
0.412791
0.398499
0.388813
0.285513
0.269288
0.277038
0.233625
0.209291
0.219997
0.222072
0.223241
0.173537
0.140920
0.109533
0.118044
0.160154
0.029188
0.057460
0.089369
-0.020170
0.080647
0.023706
-0.012116
0.012404
-0.038281
0.016315
0.056162
0.019959
-0.041495
-0.002720
0.003809
-0.031566
-0.049142
-0.002575
-0.021353
-0.072741
0.003470
-0.008863
-0.012549
-0.001224
-0.050379
-0.012357
0.050148
-0.030070
-0.039948
0.020955
0.019765
0.076897
0.002380
-0.098232
0.052801
0.073945
0.027612
0.001985
0.020215
0.000455
-0.019955
-0.046881
-0.000880
-0.080665
-0.004850
-0.018899
0.009074
0.020561
0.020319
0.062596
0.044184
-0.001106
-0.075657
0.090950
0.038356
-0.004588
-0.012895
0.073065
0.081608
0.087897
0.108759
0.121128
0.092961
0.072926
0.025823
-0.009487
0.089748
-0.001345
0.123948
0.125694
0.066465
0.181324
0.151068
0.230620
0.171318
0.105128
0.275719
0.236065
0.199526
0.273934
0.136694
0.066233
0.310418
0.210886
0.141359
0.239309
0.198475
0.261343
0.106167
0.118170
0.026059
0.111556
0.087493
0.135191
0.025426
0.144227
0.021900
0.019988
0.053313
0.108682
0.012665
0.060777
-0.028199
0.006471
0.090035
0.036976
-0.026886
-0.002171
0.049720
0.112064
-0.036074
0.064607
-0.015946
0.274816
0.584121
0.985539
1.230407
1.446020
1.451899
1.220596
0.893351
0.428207
0.158867
0.024474
-0.229486
-0.133724
-0.082861
-0.087257
0.029657
0.012165
0.076521
0.106350
0.169308
0.119683
0.022013
0.083085
0.079795
0.114294
0.160259
0.118472
0.201113
0.300996
0.263576
0.204218
0.157964
0.259517
0.262570
0.274541
0.188580
0.268749
0.370897
0.339164
0.393975
0.440647
0.455406
0.489248
0.438339
0.601052
0.531053
0.477209
0.536666
0.563839
0.521583
0.552635
0.575917
0.537609
0.630242
0.549830
0.523541
0.632631
0.671972
0.535050
0.555805
0.581407
0.506637
0.546183
0.415083
0.462168
0.347213
0.428649
0.312369
0.290619
0.330086
0.341890
0.227520
0.287231
0.194178
0.209177
0.252306
0.272163
0.132467
0.116028
0.216232
0.177660
0.126808
0.130212
0.134006
0.128498
0.079241
0.075443
0.188674
0.029321
0.075366
0.092682
0.066147
0.035184
0.046039
0.053681
0.001624
0.091789
0.103238
0.102150
0.174405
0.144165
0.085998
0.077572
0.006449
0.057829
0.163234
0.076821
0.060592
0.009723
0.021796
0.017859
0.030542
0.012441
0.020567
0.094239
0.094035
0.132923
0.019356
0.024372
0.094463
-0.046634
-0.001565
0.097153
0.124863
0.011333
0.145770
0.079733
0.057966
0.095220
0.124744
0.076712
0.035801
0.056790
0.115875
0.024464
0.069353
0.042976
-0.009138
0.118718
-0.028351
0.027211
0.136439
0.026096
0.146371
0.161942
0.128867
0.140571
0.149524
0.097905
0.209976
0.204023
0.191334
0.121117
0.241068
0.240626
0.232143
0.224634
0.151488
0.235784
0.222118
0.293631
0.124127
0.202047
0.129715
0.198146
0.180512
0.235388
0.175415
0.144344
0.060704
0.111232
0.108395
0.101918
0.127966
0.141930
0.142909
0.109356
0.033789
0.083930
0.000777
0.025278
0.085484
0.059226
-0.034681
0.003531
0.025193
0.050304
0.009591
0.014097
0.032564
-0.001523
0.068893
0.235584
0.558370
0.849230
1.078970
1.422701
1.343253
1.267157
0.963691
0.689580
0.179536
-0.102606
-0.089722
-0.226854
-0.149356
0.013674
-0.083537
0.019714
-0.016084
0.077344
0.086319
0.080150
0.114392
0.114222
0.114065
0.132906
0.153337
0.062156
0.137888
0.137671
0.159827
0.205523
0.132624
0.185531
0.178028
0.319583
0.341550
0.308675
0.244261
0.255500
0.362603
0.327776
0.377145
0.454374
0.424445
0.369201
0.530574
0.572509
0.490023
0.516129
0.492435
0.516674
0.522664
0.448234
0.508458
0.453801
0.507969
0.570103
0.529880
0.543606
0.359403
0.554484
0.458908
0.428887
0.409639
0.374588
0.402747
0.307911
0.303407
0.374286
0.348801
0.322472
0.291050
0.199295
0.179740
0.227646
0.176157
0.131051
0.172665
0.124685
0.120702
0.035965
0.056508
0.035902
-0.032270
0.105843
-0.019756
0.011460
0.042413
-0.027439
-0.019478
-0.037907
0.080364
-0.029134
-0.091316
0.037152
0.002093
0.006144
-0.040899
-0.004318
0.014703
-0.042563
0.091408
0.021469
-0.045419
-0.014414
-0.070476
-0.098010
-0.008103
-0.017835
-0.022100
0.009414
-0.052128
0.024326
-0.135326
-0.004247
-0.032127
0.023101
0.048746
-0.034659
-0.036881
-0.045385
-0.104627
-0.058021
-0.107423
-0.000434
-0.029366
0.012637
-0.121368
-0.121291
-0.081722
-0.069268
-0.022842
-0.074117
-0.102057
-0.064643
-0.101756
-0.045091
-0.018818
0.030987
-0.036682
0.050859
-0.052944
-0.046136
-0.052166
0.079201
0.054692
-0.072377
-0.057786
0.021512
0.027068
0.074619
0.017805
0.041726
0.021327
0.092583
0.130715
0.090607
0.124234
0.037528
0.140582
0.175347
0.213288
0.116580
0.145245
0.039928
0.111516
0.037346
0.067463
-0.050123
0.002073
0.052696
0.092182
-0.024751
0.012116
-0.023965
-0.041229
-0.020064
0.033891
-0.062347
-0.011858
-0.007274
-0.053677
-0.089112
-0.063654
-0.097754
-0.125082
-0.031526
-0.070997
-0.078211
-0.131821
-0.103373
-0.111248
0.048516
0.300425
0.656604
0.933502
1.129434
1.322904
1.173243
0.924973
0.589309
0.221763
-0.008529
-0.225566
-0.335642
-0.325011
-0.236806
-0.154027
-0.150134
-0.058222
-0.041562
-0.131367
-0.028466
-0.031420
-0.106333
0.013983
0.002983
0.009434
-0.057541
0.123646
-0.008130
0.014943
0.061693
0.038306
0.130381
0.110243
0.216759
0.121350
0.188556
0.254921
0.209734
0.226501
0.252029
0.286271
0.342087
0.305755
0.347686
0.368026
0.390496
0.329127
0.369079
0.368101
0.425803
0.401794
0.388010
0.396507
0.401805
0.370161
0.439382
0.461232
0.410157
0.439646
0.322773
0.372193
0.274996
0.256102
0.306630
0.267955
0.231508
0.286585
0.215430
0.218946
0.171494
0.182775
0.166291
0.100408
0.095702
0.123907
0.102759
-0.005439
-0.027389
-0.059147
0.056040
-0.045812
0.033938
0.004871
-0.115800
-0.012126
-0.154529
-0.121619
-0.059087
-0.029434
-0.090120
-0.093892
-0.116263
-0.066321
-0.068500
0.031713
-0.028266
-0.020021
-0.086545
-0.117455
-0.059397
-0.118775
-0.093290
-0.065512
-0.096031
-0.049811
-0.132374
-0.078039
-0.071688
-0.081768
-0.139281
-0.117733
-0.170035
-0.098283
-0.084008
-0.057052
-0.140525
-0.025326
-0.044188
-0.150006
-0.127064
-0.090054
-0.059948
-0.110488
-0.145690
-0.160931
-0.139549
-0.132504
-0.122827
-0.107917
-0.052246
-0.116215
-0.126813
-0.185658
-0.029012
-0.057374
-0.099289
-0.068031
-0.044763
-0.075454
-0.124561
-0.065631
-0.089605
-0.030520
-0.044795
-0.016419
-0.009028
-0.063596
0.051291
-0.029725
-0.003460
-0.004204
-0.061405
0.024429
0.034750
0.016301
0.051353
0.081274
0.071918
0.107185
0.179001
0.047761
0.060246
0.054997
0.071052
0.070710
0.038545
0.118348
0.088951
-0.002188
-0.038417
-0.031911
-0.066748
0.044834
-0.048064
-0.012203
-0.117844
-0.017677
-0.022203
-0.072752
-0.133104
-0.034812
-0.130374
-0.066935
-0.085407
-0.121941
-0.081656
-0.117723
-0.021232
0.013862
-0.108628
-0.059019
0.045291
0.269362
0.474609
0.899445
1.147716
1.352486
1.269428
1.128440
0.791816
0.349623
0.064727
-0.178829
-0.205798
-0.332185
-0.136824
-0.081423
-0.051800
-0.083185
-0.046443
-0.058413
-0.022162
-0.080545
-0.044987
0.043615
0.020746
0.139650
-0.052107
0.000420
0.095129
0.111224
0.076991
0.177364
0.160031
0.091234
0.286730
0.196831
0.259531
0.263287
0.291200
0.287131
0.295401
0.349442
0.299818
0.451324
0.385664
0.493406
0.371598
0.378285
0.464636
0.459609
0.564499
0.474298
0.568642
0.538521
0.524354
0.447259
0.478604
0.439277
0.528022
0.509531
0.463683
0.343757
0.462833
0.474411
0.387341
0.332706
0.393492
0.325649
0.260491
0.304456
0.237785
0.225489
0.264074
0.195916
0.208183
0.157624
0.228320
0.062562
0.143224
0.049450
0.162818
0.159129
0.091095
0.032897
-0.056269
0.072995
-0.022450
0.061247
-0.060681
0.020843
-0.013910
0.013669
-0.002020
0.066112
-0.059207
0.048322
-0.026980
-0.054990
0.028627
0.029311
-0.074598
-0.077804
0.006881
0.035567
0.070298
-0.009336
-0.055557
-0.069874
0.065317
0.065980
-0.039316
-0.036587
0.043471
-0.011871
0.104231
0.058456
-0.037322
-0.012227
0.038949
0.013197
0.039165
0.036015
-0.007401
-0.046752
0.020584
0.078235
-0.026839
-0.052799
-0.067025
0.108015
0.005984
0.061762
-0.073031
-0.028759
0.023362
0.091775
0.053047
0.075251
0.009338
0.040466
0.221800
-0.010250
0.137792
0.019800
0.030836
0.090966
0.091473
0.100660
0.196113
0.192608
0.165351
0.112036
0.240825
0.187309
0.324291
0.237262
0.231236
0.144021
0.146761
0.181070
0.180999
0.215618
0.204295
0.182422
0.182489
0.187396
0.170950
0.159778
0.133196
0.142644
0.206293
0.178071
0.094113
0.108953
0.096231
0.038613
0.098589
0.060088
0.104151
0.043307
-0.021640
0.036254
0.011370
-0.014762
-0.001490
-0.000890
0.078277
0.057201
0.082640
0.010212
0.054283
0.056895
0.079099
0.263381
0.555674
0.878318
1.130065
1.449528
1.436578
1.243924
1.060808
0.605387
0.234994
-0.022359
-0.094942
-0.188154
-0.184794
-0.072306
0.035370
0.007970
0.090299
0.130098
0.104036
0.214742
0.001084
0.142133
0.129848
0.205038
0.123865
0.179491
0.134123
0.196508
0.190013
0.195564
0.198973
0.271682
0.270751
0.241997
0.347273
0.299796
0.422146
0.433509
0.374896
0.380875
0.469017
0.528074
0.418377
0.498406
0.509100
0.585522
0.545829
0.537924
0.561131
0.625429
0.583592
0.577538
0.642222
0.542676
0.653895
0.624594
0.580340
0.594072
0.502893
0.563153
0.540412
0.493413
0.453676
0.436578
0.373701
0.466937
0.398276
0.376492
0.415003
0.286477
0.343840
0.256776
0.429633
0.326519
0.267639
0.266367
0.244600
0.233808
0.107661
0.222699
0.150771
0.004162
0.199758
0.138818
0.142381
0.110102
0.110992
0.092881
0.055282
0.148151
0.146558
0.067849
0.131689
0.083673
0.040443
0.039400
0.060953
0.149318
0.100399
-0.012634
0.074884
0.075227
0.024731
0.165631
0.037477
0.093526
0.094342
0.050577
0.061894
0.116956
0.114775
0.045183
-0.004123
0.003977
0.096841
0.087474
0.102637
0.085117
0.077017
