0.054881
-0.023918
-0.008834
-0.040050
-0.075823
0.037087
0.045004
-0.021651
0.051943
0.038365
-0.032921
-0.012071
0.000637
0.010937
-0.000180
0.030777
-0.011766
-0.059991
0.016057
0.020396
0.039451
0.091235
0.011811
-0.004890
0.058588
0.038126
0.059712
0.136003
0.035982
0.115941
0.108107
0.118317
0.151791
0.131472
0.121954
0.127578
0.140370
0.172028
0.146944
0.213194
0.115373
0.237265
0.165809
0.107911
0.175227
0.219154
0.212220
0.173305
0.227739
0.164269
0.123965
0.276785
0.170065
0.140573
0.103045
0.128628
0.122325
0.070499
0.109524
0.125871
0.187422
0.093665
0.096190
0.095437
0.085891
0.038404
0.033629
-0.035892
0.087565
0.059456
0.024728
0.120677
-0.008464
0.040505
0.047774
0.010042
0.072799
-0.025853
-0.007470
0.016553
0.055678
0.030566
0.066802
0.184085
0.369117
0.687480
0.961090
1.289321
1.420048
1.349208
1.164707
0.832979
0.484174
0.247091
-0.038610
-0.211719
-0.190498
-0.116179
-0.103711
0.018655
0.039240
0.101459
0.143066
0.054296
0.086485
0.062226
0.102705
0.039650
0.100065
0.099868
0.053230
0.129127
0.118113
0.108591
0.118210
0.192675
0.166221
0.181811
0.136665
0.201808
0.204769
0.292313
0.236832
0.296325
0.302714
0.298078
0.286390
0.243592
0.380313
0.411343
0.398501
0.473778
0.554732
0.437346
0.467552
0.456134
0.544053
0.452660
0.500823
0.580496
0.569076
0.617314
0.541616
0.592067
0.614284
0.597255
0.572094
0.578051
0.576535
0.525255
0.490881
0.459533
0.513999
0.442730
0.448786
0.504298
0.388210
0.356379
0.361594
0.344470
0.307282
0.385472
0.294112
0.210990
0.375483
0.204180
0.255273
0.284918
0.222249
0.218577
0.242202
0.147984
0.180709
0.139413
0.133712
0.108397
0.099803
0.053431
0.192175
0.061111
0.092265
0.063421
0.081059
0.131305
0.104515
0.130157
0.092537
0.060566
0.164667
0.013532
0.078481
0.083173
0.088197
0.120934
0.092054
0.079167
0.081655
0.137028
0.130076
0.077350
0.093124
0.027817
0.099188
0.069674
0.026673
0.113121
0.098221
0.098416
0.021536
0.097098
0.110383
0.157057
0.061705
0.085490
0.150349
0.086367
0.007089
0.057574
0.113270
0.078591
0.112310
0.053507
0.024402
0.044949
0.060999
0.063411
0.013770
0.108371
0.079888
0.089308
0.072693
0.065182
0.053448
0.072024
0.098215
0.029407
0.106258
0.136308
0.124992
0.072818
0.125926
0.088033
0.085737
0.059830
0.073833
0.079966
0.170064
0.076905
0.166654
0.170086
0.099360
0.130151
0.113736
0.138760
0.177549
0.169352
0.225447
0.178190
0.189952
0.235001
0.196479
0.241235
0.233300
0.201142
0.205710
0.172150
0.252501
0.267118
0.238169
0.274619
0.225760
0.249566
0.163166
0.142139
0.210457
0.194681
0.171459
0.118550
0.112227
0.105280
0.100790
0.204448
0.151593
0.089899
0.161952
0.082790
0.064421
0.085945
0.102571
0.095120
0.038669
-0.007937
0.072127
0.152373
0.019481
0.077270
0.058551
0.011844
0.136968
0.067910
-0.029631
0.013395
-0.002726
0.123499
0.133373
0.501190
0.796241
1.108581
1.332406
1.500000
1.335192
1.076875
0.667083
0.422728
0.076713
-0.044148
-0.197147
-0.154322
-0.142647
-0.113349
-0.057024
0.080393
0.071873
0.067317
-0.007660
0.069337
0.087202
0.051240
0.017493
0.102799
0.102963
0.074144
0.018332
0.131925
0.116346
0.120736
0.213383
0.204246
0.212643
0.122038
0.121277
0.174119
0.175049
0.282867
0.302302
0.280344
0.341496
0.316416
0.261630
0.384246
0.392417
0.344716
0.389093
0.383701
0.439103
0.512197
0.512840
0.420146
0.484447
0.502322
0.559135
0.561808
0.508282
0.506473
0.520867
0.489563
0.483844
0.629976
0.495311
0.484663
0.520700
0.416853
0.414072
0.423513
0.421720
0.421000
0.296871
0.261698
0.371081
0.330129
0.282364
0.272826
0.314190
0.246854
0.171572
0.266097
0.184648
0.156112
0.181064
0.154189
0.054470
0.135963
0.025111
0.075666
0.105392
0.022371
0.095230
0.019822
0.042134
-0.019552
0.041249
0.048102
-0.057887
-0.037528
-0.023362
0.029849
0.051908
-0.012423
0.008163
0.015937
0.011843
-0.053409
0.014382
-0.017665
-0.050603
-0.007443
0.039822
0.015231
0.049116
0.008254
0.039371
-0.081775
-0.024163
0.038174
0.063461
0.027891
0.005685
0.017138
-0.047840
-0.036936
-0.009272
-0.047338
-0.008133
0.051342
-0.001060
-0.037138
-0.126175
-0.018540
0.009688
0.043182
-0.017781
-0.090906
-0.044312
-0.032300
-0.013341
0.031519
-0.026081
0.022144
0.056342
-0.035439
0.061724
-0.011972
0.025189
0.047676
0.028698
-0.004421
0.021522
-0.012746
0.030505
0.093190
-0.031007
-0.131716
-0.038390
-0.043172
-0.097191
-0.026122
-0.003213
-0.011833
-0.007089
0.055810
0.090429
0.016197
-0.072213
0.048336
0.053800
0.073203
0.115738
0.120573
0.184912
0.115844
0.097837
0.120725
0.110405
0.127713
0.102119
0.176994
0.127273
0.116504
0.075411
0.165150
0.106760
0.084884
0.126552
0.074576
0.139469
0.001136
0.044322
0.103816
0.004748
0.081450
0.007176
-0.008036
0.040317
0.034375
-0.002044
-0.036526
-0.011765
-0.079214
-0.014920
0.031558
-0.133594
0.000323
-0.025473
-0.051672
-0.023877
-0.060686
-0.034350
-0.030780
-0.079934
-0.060872
-0.044853
-0.156339
-0.156220
0.002308
0.023578
0.194877
0.544727
0.874320
1.161889
1.255554
1.267626
1.152565
0.869729
0.460155
0.115214
-0.158872
-0.241588
-0.270094
-0.287883
-0.186871
-0.119004
-0.110588
-0.117906
-0.044950
-0.019266
-0.081561
-0.080228
0.032404
0.029621
0.020220
0.058636
-0.089785
-0.026108
0.001286
0.014261
-0.009434
0.013361
0.069870
0.016426
0.031690
0.103234
0.116621
0.097500
0.120067
0.143345
0.195972
0.190433
0.176101
0.256411
0.252387
0.260614
0.156595
0.356396
0.343663
0.292655
0.328721
0.321733
0.393939
0.335705
0.419120
0.412090
0.383627
0.476139
0.539878
0.428254
0.448957
0.516286
0.504287
0.444163
0.438903
0.448179
0.389613
0.387195
0.466576
0.302174
0.402728
0.298935
0.311186
0.298177
0.229311
0.223257
0.266254
0.164217
0.144178
0.205866
0.215456
0.089570
0.095911
0.036694
0.133228
0.034993
0.059092
0.050383
0.066717
0.029795
0.043463
0.001495
-0.026252
0.110913
0.010809
-0.002935
-0.073980
0.004898
-0.000130
-0.017390
0.002161
-0.047814
0.032458
-0.033687
-0.018027
-0.046000
-0.012999
-0.017159
-0.019907
-0.012207
0.001310
-0.035270
-0.018932
-0.000565
-0.029977
-0.040335
-0.013483
-0.000622
-0.022813
-0.035077
-0.056248
0.068510
-0.021750
-0.092166
0.011242
-0.074919
-0.059812
-0.018355
-0.067992
-0.008726
-0.047174
-0.040115
-0.075504
-0.051948
-0.036519
-0.097272
-0.023653
-0.032277
0.012723
-0.011079
-0.093629
-0.118463
-0.077292
0.009004
-0.042775
-0.025044
0.036939
-0.104341
0.005777
-0.006604
0.002955
-0.031632
-0.046873
-0.026034
-0.070673
0.008572
0.044967
0.033938
-0.047153
-0.001046
0.031154
-0.000611
0.015204
-0.011095
0.053153
0.008189
0.091919
0.056352
-0.010352
0.123724
0.118175
0.133862
0.020097
0.031414
0.139838
0.142599
0.142353
0.080320
0.112455
0.134541
0.128109
0.155992
0.165249
0.167878
0.244931
0.113057
0.118112
0.126492
0.134041
0.183204
0.107235
0.064074
0.042330
0.157374
0.101514
0.042091
0.093002
0.062221
0.063336
0.047817
-0.023762
-0.001509
-0.016350
0.045112
0.027235
0.029773
-0.006769
-0.056068
-0.016361
0.004306
-0.034817
-0.001305
0.041161
-0.042305
-0.080677
0.040488
-0.059837
-0.032645
-0.064125
0.041891
0.204855
0.455501
0.697297
0.969427
1.244819
1.334571
1.332020
1.077371
0.818775
0.345153
0.170419
-0.059921
-0.236654
-0.246826
-0.226123
-0.084239
0.076848
0.035994
0.073833
0.015788
0.110120
0.056250
0.027057
0.084842
0.015085
0.133725
0.003874
0.109101
0.102139
0.094865
0.168993
0.179650
0.146309
0.126569
0.155272
0.195691
0.183098
0.264635
0.273747
0.221628
0.250838
0.228704
0.351115
0.257946
0.212070
0.370461
0.384033
0.410977
0.448049
0.414135
0.414738
0.470256
0.577968
0.490320
0.509696
0.417621
0.470415
0.503882
0.468602
0.471290
0.560153
0.612386
0.481469
0.565870
0.594668
0.569563
0.582212
0.543296
0.552407
0.508401
0.500044
0.432804
0.472105
0.353341
0.314965
0.406915
0.440544
0.367662
0.327034
0.347466
0.200258
0.330476
0.244097
0.190337
0.277334
0.183117
0.231006
0.130187
0.153091
0.198695
0.106214
0.168286
0.021435
0.162850
0.144781
0.080620
0.096278
0.114750
0.135864
0.150222
0.049882
0.032645
0.055826
0.046178
0.060270
0.084859
0.103107
0.140437
0.113790
0.086374
0.129909
0.129848
0.132178
0.073660
0.030027
0.052336
0.006023
0.037299
0.055225
0.150155
0.054852
0.100934
0.130130
-0.016230
0.027889
0.085700
0.020116
0.147883
0.155636
0.101973
0.073164
0.170243
0.116041
0.102728
0.036804
0.045996
0.111111
-0.031948
0.083872
-0.000478
0.062154
0.074622
0.081799
0.053430
0.071198
0.135705
0.141829
0.105042
0.133403
0.123177
0.101527
0.071057
0.021012
0.059997
0.168798
0.156375
0.092682
0.139452
0.133345
0.065973
0.124803
0.094747
0.107427
0.116287
0.155643
0.116784
0.120758
0.171431
0.251172
0.232248
0.159997
0.234439
0.218731
0.230665
0.257304
0.268189
0.198271
0.303599
0.250259
0.305554
0.218188
0.282446
0.216820
0.239711
0.305868
0.303184
0.244034
0.243861
0.237044
0.243047
0.273356
0.320171
0.218916
0.140641
0.168664
0.184945
0.150550
0.106968
0.099774
0.117632
0.104126
0.076971
0.113447
0.147685
0.099801
0.038685
0.065164
0.160371
0.100444
0.114614
0.143705
0.081397
0.068445
0.093249
0.064751
0.087481
0.107092
0.066545
0.049217
0.034477
0.201448
0.329104
0.571746
0.897297
1.172300
1.369263
1.496418
1.407430
1.057530
0.644072
0.341080
-0.015487
-0.189655
-0.231240
-0.224209
-0.147216
-0.013177
-0.006326
0.072111
0.096792
0.074185
0.114589
0.127965
0.072222
0.092794
0.116110
0.136742
0.134754
0.106321
0.173231
0.066035
0.178890
0.140672
0.198552
0.297961
0.226519
0.213334
0.247066
0.283756
0.195816
0.253334
0.350120
0.380887
0.330596
0.354058
0.334908
0.394240
0.449893
0.358808
0.508358
0.380096
0.428936
0.455931
0.441404
0.503199
0.553580
0.541363
0.617637
0.554808
0.538609
0.530779
0.621582
0.583726
0.562191
0.552087
0.522509
0.552666
0.598562
0.550003
0.492656
0.472665
0.584132
0.439845
0.392255
0.467894
0.455704
0.350159
0.361974
0.330307
0.345774
0.273410
0.256395
0.179138
0.279302
0.201751
0.229147
0.180109
0.132716
0.182464
0.137229
0.158323
0.118072
0.071526
0.087017
0.035246
0.042374
0.031801
0.028954
-0.019760
0.037698
0.038731
0.080314
0.067006
0.123417
0.077232
0.067741
0.049062
0.066711
0.125415
0.058561
0.013824
-0.010894
0.050617
0.023463
0.058385
0.089122
0.081901
0.049140
0.108329
0.095589
-0.069420
0.041332
-0.073040
-0.036676
0.088802
0.110332
0.034839
-0.022604
0.014660
0.003131
-0.003884
0.111826
-0.011022
0.102164
0.043525
0.041863
0.040342
0.002773
0.031702
0.021242
0.019345
0.127147
0.015456
0.021804
0.036509
-0.005162
-0.051653
0.063458
-0.036156
0.094258
-0.006566
0.076083
0.066447
-0.051625
-0.016061
0.075558
0.018921
-0.025006
-0.008753
0.005193
0.004482
0.058535
0.004059
0.021758
0.043783
-0.000987
0.105620
0.076925
0.017981
0.077559
0.036584
0.054148
0.074166
0.089680
0.150678
0.080291
0.077176
0.071719
0.134579
0.160342
0.158661
0.130704
0.261845
0.158481
0.094563
0.119738
0.165495
0.044181
0.102171
0.070496
0.128971
0.087061
0.091382
0.061482
0.042790
0.077490
0.162888
0.046412
-0.020554
0.015296
0.081049
-0.014232
0.086695
0.020980
0.024469
0.011687
-0.083582
0.031374
-0.024370
0.014557
0.020498
-0.023119
0.032998
-0.047712
-0.020564
-0.020231
0.002378
-0.019586
-0.049156
-0.171855
-0.059441
0.044361
0.276618
0.631252
0.941286
1.238287
1.297146
1.285663
1.083189
0.799477
0.366445
0.132565
-0.209752
-0.324246
-0.321221
-0.204467
-0.184043
-0.109874
-0.114338
-0.068747
-0.001950
0.071333
-0.117246
-0.026388
-0.056219
-0.051370
0.010661
0.060628
-0.034292
0.043463
-0.029451
-0.013049
0.003799
0.062125
0.119770
0.054196
0.034813
0.136354
0.186260
0.188871
0.139079
0.068811
0.192438
0.125559
0.178313
0.229628
0.243423
0.318493
0.293051
0.337583
0.300664
0.361346
0.321862
0.437290
0.385048
0.413778
0.400958
0.400433
0.445751
0.529695
0.448297
0.472261
0.484821
0.451015
0.418077
0.438729
0.365638
0.505045
0.425793
0.377491
0.349296
0.347368
0.384749
0.286639
0.399426
0.327612
0.190527
0.272188
0.204962
0.250249
0.094235
0.105811
0.129698
0.153475
0.076973
0.066857
0.088931
0.063020
0.053526
0.042172
0.089494
0.013363
0.025353
-0.034302
0.000059
-0.030987
-0.086017
-0.070786
-0.080490
-0.156476
-0.048511
-0.117507
-0.162354
-0.045718
-0.022247
-0.081906
-0.086424
-0.107501
-0.099892
-0.149445
-0.115670
-0.034701
-0.076374
-0.131529
-0.053062
-0.066167
-0.087855
-0.091213
-0.085372
-0.067754
-0.062023
-0.097902
-0.048512
-0.051298
-0.030045
-0.059398
-0.059988
-0.085017
-0.054935
-0.028111
-0.005916
-0.045952
-0.144013
-0.124971
-0.104606
-0.049263
-0.039788
-0.128027
-0.163995
-0.096329
-0.088710
-0.080325
-0.102163
-0.029053
-0.050573
-0.139116
-0.054594
-0.097238
-0.049755
-0.089787
-0.019541
-0.065539
-0.108428
0.005910
-0.111394
-0.125642
-0.032397
-0.130894
-0.076274
-0.133310
-0.089840
-0.096495
-0.087045
-0.092778
-0.060883
0.017566
0.014023
0.026276
0.004662
0.059954
0.018262
-0.012221
0.004649
-0.009520
-0.012214
0.066164
0.036632
0.067386
0.042060
0.084262
0.127721
0.077754
0.169013
0.097528
0.092902
0.038563
0.056347
0.121326
0.093218
0.006188
0.077986
0.110280
-0.006101
0.066349
0.095388
0.078113
0.007318
-0.088322
-0.070398
-0.092967
-0.034715
-0.030748
-0.078003
-0.075493
-0.079806
-0.067267
0.020888
0.005152
-0.033011
-0.009711
0.024375
-0.016424
-0.024998
-0.105226
-0.024373
-0.097859
-0.022649
-0.099098
-0.074379
-0.042076
-0.134383
-0.091425
0.086377
0.368365
0.700972
0.993195
1.313429
1.403574
1.215183
0.963669
0.617829
0.250553
-0.094550
-0.281156
-0.239513
-0.300577
-0.236610
-0.192657
-0.098141
-0.069438
-0.113982
0.012957
-0.101607
-0.064888
-0.047244
0.038021
-0.059042
-0.023986
0.030110
0.010768
0.004067
0.016837
-0.012082
0.032288
0.010078
0.083287
-0.031928
0.027739
0.114962
0.065445
0.089689
0.192483
0.141535
0.179110
0.284794
0.174805
0.233277
0.133513
0.339830
0.273889
0.338622
0.322166
0.334579
0.361960
0.427673
0.442371
0.433976
0.448701
0.482176
0.424392
0.409158
0.404483
0.486986
0.504110
0.426754
0.505651
0.493151
0.540772
0.400439
0.437222
0.361209
0.345161
0.380474
0.353279
0.305439
0.271341
0.402606
0.259934
0.200342
0.193191
0.190942
0.236932
0.137424
0.165836
0.176118
0.084359
0.075022
0.125308
0.033328
0.076006
-0.008988
0.047504
0.004331
0.012484
0.100590
0.019323
0.005808
0.041525
0.029840
0.001020
0.018728
0.043006
0.042440
-0.065714
-0.073830
0.052324
-0.004474
-0.022865
-0.080461
-0.005499
0.040248
0.034626
0.043025
0.012376
0.020456
-0.015755
-0.048094
-0.064526
-0.015907
-0.083613
0.012110
0.042753
-0.111778
-0.060508
-0.002174
-0.012228
-0.036580
-0.044109
0.036145
-0.016986
-0.058963
0.029122
-0.026012
-0.086586
-0.091218
0.016793
-0.033985
-0.034977
-0.000439
-0.013581
0.082444
0.027018
-0.071620
-0.018911
0.024347
-0.025505
0.021288
-0.024305
0.022776
-0.014977
-0.036931
0.031531
0.052645
0.020535
-0.022063
-0.009498
0.056480
-0.025173
-0.061386
0.074445
0.068921
0.045413
0.038412
0.017614
0.033558
0.021753
0.021610
0.072503
0.020725
0.017022
0.049274
0.088404
0.071873
0.063059
0.192758
0.171706
0.167147
0.223900
0.153015
0.167377
0.182563
0.163863
0.186382
0.302294
0.224034
0.134601
0.158668
0.126146
0.178283
0.224113
0.161382
0.127441
0.146313
0.126187
0.168348
0.104281
0.019656
0.127316
0.084065
0.070478
-0.013754
0.040053
0.067092
0.101891
-0.017744
0.086829
0.081210
0.049258
0.005382
0.089371
0.004968
0.101750
0.040548
0.076190
0.030565
0.059550
0.049352
0.027332
0.031348
-0.003359
-0.003998
-0.058238
0.048148
0.342025
0.652130
0.881335
1.111855
1.399024
1.394828
1.251827
0.944284
0.641855
0.172869
-0.080695
-0.213906
-0.272619
-0.242262
-0.141358
-0.095033
0.073746
0.040181
0.060475
0.016186
0.056137
0.074945
0.073088
0.020874
0.017893
0.064913
0.120468
0.066524
-0.009618
0.083844
0.074386
0.134169
0.133212
0.151673
0.166766
0.177116
0.069704
0.233284
0.224636
0.248500
0.315781
0.299970
0.290652
0.303045
0.340002
0.331084
0.437830
0.324112
0.394638
0.392418
0.419749
0.513613
0.495641
0.502559
0.611767
0.434819
0.495906
0.574515
0.566400
0.510319
0.538350
0.497724
0.527456
0.626134
0.451146
0.524138
0.445404
0.421385
0.453432
0.385813
0.469286
0.334338
0.491598
0.400570
0.377135
0.400029
0.285068
0.242131
0.309025
0.323725
0.186756
0.222861
0.197261
0.150061
0.146224
0.082678
0.199908
0.168973
0.032863
0.124463
0.141169
0.097808
0.039558
0.078672
0.122143
0.099544
-0.043649
0.071179
0.061529
0.050887
0.080723
0.026728
0.079031
0.121287
0.088130
-0.019992
0.072239
0.027237
0.017411
0.059997
0.136364
-0.014922
0.030322
0.027391
0.011132
0.035313
-0.048434
-0.054988
0.069105
0.073468
0.052771
-0.030228
-0.020356
0.063058
0.042340
0.011888
-0.001286
-0.010268
0.031191
-0.017986
0.060805
0.102853
0.057294
0.047360
0.097539
0.063913
0.107206
0.043664
0.068191
0.017670
0.030687
0.015418
0.027496
0.139995
0.081332
-0.011318
0.061421
0.043671
0.051504
-0.002529
0.021826
0.043257
0.049506
0.008296
0.057814
0.095491
0.044988
0.090489
-0.015418
0.063001
0.076934
0.048567
0.025073
0.116988
0.079231
0.021383
0.059424
0.120240
0.099221
0.134247
0.193216
0.204926
0.186298
0.116210
0.138100
0.155289
0.225782
0.166613
0.227649
0.225176
0.200707
0.210825
0.218508
0.209606
0.190849
0.142502
0.230822
0.215284
0.184509
0.147712
0.130560
0.177880
0.126538
0.054833
-0.000808
0.069546
0.070899
0.018097
0.055008
0.044594
0.005942
0.014096
0.027214
-0.033528
0.107484
0.040794
0.057543
-0.005893
-0.052499
-0.025942
0.002358
0.045633
0.020497
-0.001265
-0.038469
-0.024625
0.018404
-0.030885
-0.061875
0.057155
0.144652
0.296253
0.719594
1.077139
1.238927
1.425981
1.246577
1.142540
0.742999
0.309510
0.058400
-0.182606
-0.291099
-0.229310
-0.226009
-0.141456
-0.121343
-0.043103
0.003650
-0.115262
0.021688
-0.076268
0.049114
-0.045463
0.019837
0.075975
-0.032171
-0.018953
0.078503
0.133397
0.088737
0.124606
0.076753
0.077082
0.077338
0.115870
0.107174
0.133634
0.134395
0.109401
0.207797
0.245849
0.197764
0.262764
0.245303
0.358497
0.340686
0.324480
0.408634
0.344207
0.365843
0.371500
0.420040
0.417807
0.448784
0.409467
0.525311
0.447679
0.423326
0.471859
0.451994
0.483100
0.513224
0.447003
0.425982
0.503187
0.382466
0.470566
0.404139
0.310007
0.315965
0.414757
0.366490
0.390561
0.263857
0.186400
0.281175
0.258788
0.193306
0.189597
0.186804
0.045332
0.179305
0.042606
0.039077
0.093425
0.057134
0.016359
0.035635
0.027544
-0.040972
0.061248
0.062631
0.027422
-0.096961
-0.011515
0.012981
-0.050831
-0.140058
-0.091245
0.014837
-0.056528
0.018378
-0.137781
-0.090971
-0.048121
-0.078961
-0.108610
-0.077221
-0.069388
-0.054577
-0.143439
-0.164705
-0.032813
-0.065997
0.037698
-0.071722
-0.084084
-0.058905
-0.132901
-0.149240
0.039627
-0.113486
-0.116972
-0.034653
-0.065341
-0.077627
-0.213285
-0.075312
-0.042574
-0.070930
-0.001292
-0.103086
-0.089812
-0.121726
-0.084691
-0.094760
-0.112097
-0.138350
-0.126622
-0.049119
-0.061219
-0.043178
-0.161092
0.008706
-0.103370
-0.132420
-0.024949
-0.100447
-0.023458
-0.114761
-0.132025
-0.065781
-0.122395
-0.052912
-0.004763
-0.072353
-0.090776
-0.074390
-0.018902
-0.119982
-0.047220
-0.041642
-0.062628
-0.019390
-0.016238
-0.052568
0.007792
0.022088
-0.040284
-0.022472
0.023190
0.000067
0.085990
0.046845
-0.036518
0.063335
-0.006805
0.089312
0.015706
0.093307
0.038725
0.168351
0.050251
0.071013
0.031612
0.039467
0.011034
0.103407
-0.069758
0.021471
0.002149
0.013572
-0.000558
0.035880
-0.050242
-0.014464
-0.034268
-0.030314
-0.095126
-0.059395
-0.069492
-0.110701
-0.064972
-0.129071
-0.086792
-0.016081
-0.123766
-0.180449
-0.124735
-0.083800
-0.072673
-0.117530
-0.095912
-0.144970
-0.037147
-0.076903
-0.099355
-0.094706
-0.067863
0.057696
0.151725
0.471323
0.708854
1.075159
1.216079
1.251177
1.078738
0.822633
0.473432
0.097915
-0.066303
-0.307890
-0.370445
-0.368372
-0.244295
-0.171157
-0.128291
-0.098750
-0.117529
-0.123754
-0.127792
-0.067026
0.039414
-0.054715
-0.127340
-0.021069
-0.004013
-0.005838
0.003134
-0.064814
-0.037308
-0.005316
0.040068
-0.041403
0.043970
0.029187
0.018299
0.125278
0.029403
0.051571
0.159731
0.097093
0.174213
0.115118
0.214243
0.300428
0.290731
0.236541
0.295268
0.327675
0.239898
0.335982
0.330196
0.354190
0.303720
0.369868
0.364643
0.391366
0.349714
0.345281
0.398251
0.406070
0.403398
0.384692
0.361492
0.445879
0.340061
0.355049
0.361188
0.364687
0.334982
0.257722
0.248611
0.185772
0.206806
0.167389
0.093391
0.161178
0.133424
0.168679
0.059400
0.106879
0.121828
0.110487
0.023101
0.065260
0.102024
-0.024419
0.014020
-0.043544
-0.039420
-0.074309
-0.009429
0.027989
-0.070984
-0.090858
-0.092863
-0.060340
-0.066385
-0.021656
-0.009587
-0.033009
-0.066385
-0.046204
-0.040801
-0.044225
-0.046032
-0.048043
0.022562
-0.050507
-0.032311
-0.055283
-0.106309
-0.137904
-0.122919
-0.070241
-0.032302
-0.034601
-0.181066
-0.013818
-0.066271
-0.034084
-0.069902
-0.018751
-0.135889
-0.089517
-0.040359
-0.151232
-0.022710
-0.095986
-0.053916
-0.022215
-0.039181
-0.008883
-0.127619
-0.108158
-0.014622
0.004567
-0.063340
0.026777
-0.155323
-0.064908
-0.008863
-0.014678
-0.107994
-0.125509
-0.061718
-0.038905
-0.109249
-0.008638
-0.069170
-0.053422
-0.150987
-0.057732
-0.086359
0.010431
-0.097314
-0.110909
-0.022935
-0.014674
-0.063265
-0.020797
-0.093728
0.058947
-0.018102
-0.012907
-0.005855
0.016722
0.003396
0.003767
0.057597
0.054160
0.079662
0.072133
0.102461
0.122186
0.130964
0.126012
0.096892
0.174842
0.087957
0.097040
0.183185
0.071102
0.184447
0.161194
0.106707
0.118063
0.102374
0.134995
0.082416
0.134459
0.078464
0.136072
0.126077
-0.022805
0.033812
-0.012513
-0.005528
-0.046664
-0.080152
0.037581
0.010682
0.026162
-0.023082
0.033007
0.059890
-0.038171
-0.017455
0.019791
0.039326
-0.013460
0.031718
0.001173
-0.011098
-0.031352
-0.079812
-0.065973
0.012337
-0.040332
0.100072
0.273315
0.629533
0.935362
1.342833
1.350029
1.326226
1.020500
0.781983
0.443393
0.047964
-0.121203
-0.143648
-0.332560
-0.205227
-0.083087
-0.094307
-0.012750
-0.012561
0.025317
-0.029267
-0.026430
0.116936
0.052257
0.010445
0.102279
-0.022240
0.104796
0.006031
0.095679
0.118486
0.057050
0.086831
0.117979
0.146438
0.066175
0.106809
0.146828
0.232853
0.188062
0.240546
0.224419
0.214697
0.204175
0.323875
0.278247
0.399039
0.395785
0.473967
0.433911
0.403193
0.391361
0.426552
0.433927
0.484366
0.472509
0.512426
0.496765
0.648886
0.486265
0.515948
0.565029
0.507200
0.544624
0.561350
0.468302
0.513079
0.443727
0.477643
0.343821
0.424142
0.356648
0.388270
0.347155
0.419997
0.325116
0.379600
0.339677
0.374371
0.292730
0.302479
0.220837
0.303542
0.141788
0.169150
0.181224
0.106598
0.132599
0.066299
0.096480
0.180723
0.015526
0.109158
0.051935
0.066478
0.073711
0.112116
0.056905
0.044158
0.091230
0.042907
0.088150
0.152753
0.093176
0.087726
0.036752
0.017318
0.062292
0.061894
0.044658
0.072988
0.010820
0.045372
-0.002870
0.068116
0.038867
-0.007368
0.017308
0.040049
0.087839
0.051114
-0.019448
0.061794
0.035049
0.100420
0.092154
0.075610
0.080204
0.048670
0.038050
0.012547
0.081527
0.045613
0.043302
0.058503
0.172599
0.132581
0.049609
0.041782
0.060681
0.055162
0.015509
0.138383
0.146332
-0.006825
0.028798
0.062019
0.135485
0.060466
0.087185
0.053725
0.053859
0.076373
-0.002818
0.020217
0.069442
0.037854
0.058351
0.084816
0.059769
0.083861
0.021961
0.120978
0.034272
0.117677
0.087825
0.109134
0.122791
0.060399
0.117975
0.184221
0.149811
0.088140
0.239321
0.238729
0.247332
0.235382
0.244120
0.283515
0.305318
0.314367
0.211821
0.257369
0.153636
0.122992
0.253704
0.241565
0.179769
0.164282
0.168863
0.195120
0.065286
0.136352
0.085719
0.209571
0.184069
0.166680
0.174139
0.090184
0.027920
0.135398
0.072085
0.083049
0.030459
0.135248
0.090252
0.068973
0.093093
0.020603
0.053297
0.096743
