0.084746
0.029763
-0.033607
0.033073
0.051095
-0.048984
0.060665
-0.042445
-0.004611
-0.052698
0.083785
-0.067390
0.023042
0.026179
0.022970
0.024592
0.026688
0.045335
0.027097
0.107241
0.015409
0.009821
0.143890
0.070886
0.049225
0.055840
0.095672
0.134925
0.136311
0.148736
0.170665
0.184505
0.142541
0.180995
0.208023
0.209136
0.275670
0.205698
0.225968
0.197873
0.196935
0.223069
0.157973
0.204879
0.100484
0.070727
0.132134
0.254710
0.067099
0.148591
0.096341
0.120912
0.069706
0.068852
0.055691
0.038055
0.117909
0.000453
0.041832
0.131440
0.049131
0.093475
0.028368
0.070351
0.110554
0.014029
0.263247
0.344089
0.593264
0.956320
1.154630
1.446998
1.284872
1.209555
0.845268
0.522933
0.104296
-0.030702
-0.165193
-0.153646
-0.007649
-0.007931
0.053517
0.056939
0.086959
0.168600
0.127106
0.148391
0.177539
0.180978
0.151144
0.172219
0.210320
0.277853
0.260173
0.239260
0.292310
0.273833
0.276221
0.276586
0.351826
0.335608
0.330643
0.359620
0.422630
0.499030
0.470414
0.473400
0.468711
0.555092
0.528826
0.586166
0.575856
0.556027
0.630920
0.644669
0.543645
0.605239
0.639027
0.552068
0.629325
0.471263
0.497897
0.562594
0.509614
0.461518
0.524779
0.449340
0.444435
0.358835
0.458132
0.407511
0.287094
0.363421
0.286870
0.345084
0.342830
0.304149
0.269377
0.225089
0.240746
0.238686
0.198642
0.156925
0.162968
0.149207
0.192391
0.103560
0.093474
0.097233
0.040270
0.062155
0.042841
0.058357
0.166621
0.087745
0.131354
0.053831
0.075610
0.098305
0.153077
0.079350
0.039711
-0.010546
0.023364
0.117210
0.132705
0.057283
0.050901
0.049632
0.123227
0.077568
0.054644
0.134258
0.073566
0.132197
0.041459
0.052532
0.052421
0.163527
0.082866
0.108024
0.082038
0.045867
0.151253
0.089655
0.078726
0.059032
0.131375
0.090808
0.025383
0.042215
0.085674
0.098580
0.180148
0.070996
0.094676
0.155217
0.116025
0.062683
0.131342
0.098424
0.149513
0.147040
0.179708
0.178095
0.222237
0.270090
0.204736
0.221256
0.196627
0.280621
0.234077
0.239460
0.288821
0.220242
0.246747
0.340974
0.245952
0.252047
0.215269
0.164316
0.202991
0.287934
0.217864
0.201888
0.126632
0.126929
0.105833
0.092301
0.189533
0.009214
0.124671
0.113512
0.150496
0.128117
0.162432
0.119830
0.164947
0.016152
0.034368
0.101932
0.039522
0.066373
0.167335
0.264156
0.508341
0.780135
1.109201
1.309455
1.365446
1.386286
1.129173
0.745650
0.299819
0.042115
-0.091006
-0.105569
-0.069978
-0.064728
0.043510
0.170923
0.108403
0.105633
0.198163
0.163874
0.147867
0.105063
0.180232
0.225172
0.213213
0.237885
0.257582
0.256575
0.300351
0.306827
0.312577
0.326077
0.390511
0.297634
0.359642
0.399309
0.328804
0.409670
0.502250
0.512581
0.542324
0.584626
0.494137
0.535726
0.572559
0.642276
0.498712
0.582267
0.470480
0.641536
0.520455
0.580770
0.623380
0.584576
0.490376
0.548453
0.492120
0.466460
0.485349
0.404459
0.423228
0.508099
0.455981
0.399235
0.341234
0.306500
0.340273
0.309423
0.276221
0.167339
0.280327
0.306817
0.154501
0.187476
0.112087
0.189626
0.162943
0.228883
0.129878
0.117942
0.113142
0.054586
0.079657
0.074012
0.050311
0.075513
0.093050
0.080170
0.119689
0.073363
0.014245
0.036240
-0.060599
0.078525
0.064068
-0.001820
0.079297
0.047020
0.063379
0.043754
0.079604
-0.038463
0.041773
0.058494
0.066897
0.041492
0.067522
-0.015114
0.016826
0.034485
0.111586
0.074478
-0.021100
0.039320
0.041021
0.037103
0.026829
0.025407
0.109921
0.059200
0.039965
0.032708
-0.081967
-0.040039
0.043887
-0.036990
0.016467
0.114977
0.052034
0.033717
0.152952
0.052859
0.084225
0.066784
0.025342
0.127918
0.189695
0.095450
0.125105
0.211932
0.148397
0.213980
0.132329
0.208891
0.216611
0.163579
0.196980
0.150190
0.228044
0.214905
0.318435
0.209271
0.184571
0.163838
0.154874
0.149114
0.171355
0.068319
0.117003
0.084492
0.006158
-0.003474
0.063430
0.055343
0.030460
0.046246
0.071950
-0.017395
0.051937
-0.008412
0.026938
0.001115
-0.067434
0.016811
0.004797
-0.087272
0.015282
0.150348
0.203796
0.453275
0.803151
1.185457
1.279443
1.386399
1.103065
0.955510
0.517717
0.161326
-0.055242
-0.153039
-0.158601
-0.131557
-0.070790
0.001174
-0.026534
0.029238
-0.005759
0.089972
0.107070
0.106433
0.171994
0.108708
0.113875
0.137489
0.132282
0.118450
0.091972
0.190451
0.207644
0.256557
0.282642
0.319710
0.309004
0.371074
0.393296
0.412274
0.349856
0.378646
0.403599
0.416577
0.430723
0.431729
0.541076
0.480776
0.496890
0.528289
0.489589
0.492301
0.535192
0.497531
0.400810
0.523761
0.411518
0.555738
0.478914
0.376803
0.396656
0.357483
0.343138
0.342883
0.407062
0.356430
0.327162
0.280853
0.234244
0.275708
0.212430
0.189697
0.202184
0.216659
0.119664
0.181459
0.014612
0.105376
0.064317
0.038637
0.090111
-0.019520
0.036068
0.026164
0.003186
0.074410
-0.030260
-0.023632
-0.038759
-0.027407
-0.010008
-0.003025
0.055857
-0.040555
-0.034887
-0.042725
-0.041466
-0.025260
-0.034466
-0.019475
-0.021783
0.003154
-0.033653
-0.102225
-0.009095
0.036431
0.014549
-0.027030
-0.111420
-0.121027
-0.034762
-0.119551
0.017774
0.039031
-0.009257
0.006422
-0.014169
-0.073581
-0.079803
-0.066305
-0.002319
-0.052347
-0.030171
0.028470
-0.008957
-0.086278
0.023030
-0.074532
0.002058
-0.093883
-0.011123
-0.006947
-0.070047
0.011015
0.067249
-0.001310
-0.005318
0.016878
0.017914
0.036716
0.049272
0.076738
0.188943
0.098765
0.107655
0.090079
0.149470
0.127634
0.119127
0.091060
0.137525
0.128271
0.109320
0.231121
0.149848
0.130417
0.162780
0.001733
0.014557
0.116461
0.017620
0.045049
0.064246
0.032461
0.074510
0.051648
-0.050476
0.064308
-0.050438
-0.008740
0.010186
-0.055621
-0.050410
-0.040802
-0.018966
0.004788
-0.051929
-0.074872
-0.016672
0.028321
0.159020
0.346329
0.587871
0.839136
1.164782
1.306289
1.271990
1.067662
0.598307
0.354528
0.100158
-0.209575
-0.220032
-0.143355
-0.164277
-0.045213
0.003332
0.039984
-0.062708
0.029749
-0.013273
0.025049
0.016160
0.033092
0.025733
0.118812
0.110719
0.166475
0.171279
0.148989
0.176672
0.198115
0.224909
0.218601
0.278321
0.290709
0.367325
0.304791
0.317666
0.401967
0.352092
0.454884
0.294428
0.332176
0.468621
0.472862
0.390864
0.475192
0.427235
0.463912
0.490157
0.495846
0.492065
0.527130
0.396099
0.525745
0.463629
0.431673
0.422412
0.357506
0.389807
0.386141
0.355393
0.368300
0.346398
0.195963
0.234106
0.283302
0.179157
0.265371
0.194883
0.131346
0.215304
0.134634
0.155956
0.166678
0.071119
0.144157
0.039428
0.065332
0.201406
0.121313
0.127426
0.040976
0.020448
0.086893
-0.040187
0.043236
-0.129411
0.009001
-0.090474
-0.011212
-0.001368
-0.067474
-0.039711
0.010562
-0.073968
0.008716
0.106138
0.051032
-0.016718
-0.038448
0.077603
0.012854
-0.010034
-0.070903
-0.013509
-0.058487
0.020878
-0.040459
0.063603
0.001999
-0.001645
0.018353
0.051085
0.017157
-0.008041
-0.048800
0.055713
0.024290
-0.026441
0.045969
-0.017189
0.027341
-0.043136
-0.012945
-0.000333
0.001867
-0.032366
0.079830
0.029367
0.130936
0.048332
0.084605
0.020493
0.047743
0.125869
0.204889
0.084670
0.162980
0.184295
0.174441
0.190311
0.131577
0.183793
0.237139
0.248894
0.308157
0.264269
0.161137
0.165058
0.226036
0.234315
0.177912
0.121061
0.139406
0.088569
0.162707
0.191874
0.098786
0.185481
0.126097
0.094763
0.035135
0.149767
0.044934
0.098816
0.131271
0.016986
0.013622
0.085991
0.061343
0.121458
0.069123
-0.012968
0.004235
-0.025081
0.028853
0.149737
0.239750
0.450158
0.859297
1.068589
1.350005
1.458939
1.289078
1.007176
0.589350
0.231705
-0.052219
-0.143732
0.013523
-0.047571
-0.003584
-0.014436
0.067039
0.058814
0.100767
0.153664
0.068983
0.131517
0.157507
0.153273
0.151681
0.208313
0.165272
0.226238
0.236267
0.275485
0.307586
0.308337
0.445083
0.373762
0.403686
0.403999
0.478821
0.542364
0.458210
0.389536
0.527049
0.476638
0.467184
0.534512
0.573085
0.540561
0.603273
0.637174
0.583717
0.604377
0.565974
0.528525
0.575227
0.558094
0.526048
0.516386
0.489252
0.540538
0.501909
0.470841
0.434461
0.452190
0.459067
0.459878
0.434519
0.338284
0.404697
0.360811
0.323718
0.296939
0.250541
0.292639
0.210508
0.262292
0.131184
0.189847
0.135045
0.134831
0.185213
0.128354
0.150409
0.205533
0.091625
0.125599
0.098515
0.122799
0.209053
0.087814
0.064216
0.078236
0.130642
0.129674
0.068745
0.016388
0.089151
0.071574
0.102465
0.085074
0.083231
0.011658
0.113575
0.122033
0.094027
0.096920
0.163711
0.122479
0.085397
0.043054
0.082687
0.009929
0.029322
0.088262
0.040438
0.113006
-0.039746
0.058617
-0.000731
0.072300
0.032254
0.047643
0.050698
0.109876
0.024147
0.061204
0.098865
-0.000578
0.196761
0.128936
0.161822
0.129424
0.144382
0.145606
0.071552
0.151460
0.167140
0.171817
0.252663
0.211260
0.275427
0.222066
0.175202
0.319028
0.212270
0.254937
0.255770
0.265143
0.203418
0.190705
0.249674
0.301311
0.328591
0.301938
0.263099
0.243996
0.260433
0.232757
0.291902
0.103196
0.218582
0.139243
0.179865
0.204167
0.094797
0.195393
0.087287
0.153351
0.071292
0.041243
0.055373
0.076642
0.212045
0.021066
0.109678
0.192392
0.135518
0.171976
0.077073
0.141038
0.207326
0.390229
0.622056
1.087937
1.273101
1.462527
1.500000
1.151582
0.852899
0.475443
0.167978
-0.091058
-0.010227
-0.095963
0.008124
0.008688
0.063397
0.128828
0.129803
0.132093
0.129268
0.172782
0.193196
0.232785
0.210757
0.193990
0.214216
0.252434
0.250153
0.314988
0.301575
0.351547
0.236598
0.399949
0.318155
0.381912
0.386526
0.485070
0.396064
0.450751
0.500071
0.543742
0.526803
0.618044
0.526927
0.578275
0.587757
0.563417
0.621791
0.627133
0.581176
0.526602
0.582063
0.565540
0.647479
0.525898
0.566101
0.578787
0.510299
0.557262
0.431295
0.481634
0.432321
0.405464
0.463117
0.311369
0.349638
0.336586
0.295929
0.297048
0.312454
0.264674
0.244099
0.252813
0.251139
0.202548
0.198624
0.252208
0.134233
0.138702
0.169960
0.184256
0.156997
0.068966
0.195029
0.026308
0.104370
0.064100
0.119624
0.042846
0.029165
0.100375
0.090763
0.006908
0.039139
0.039217
0.050691
0.012183
0.070872
0.026446
0.070539
0.070455
0.041775
-0.001071
0.021660
0.117432
0.097576
0.096858
0.016574
0.120505
-0.012353
0.038282
0.069651
0.043803
0.135822
0.026585
0.112754
0.125607
-0.006577
0.033222
0.014014
0.070344
0.059404
0.030345
0.071920
0.057870
0.055078
0.066323
0.068872
0.088728
0.137610
0.121415
0.162072
0.099484
0.215082
0.099707
0.103158
0.126020
0.131337
0.082839
0.211603
0.125015
0.145145
0.240313
0.174207
0.139863
0.196739
0.153586
0.177982
0.252955
0.232120
0.245046
0.183623
0.163244
0.104440
0.207855
0.132035
0.105801
0.189227
0.077534
0.155063
0.143143
0.049800
0.065277
0.016297
0.117942
0.039155
0.033909
0.141269
-0.005895
0.015244
0.007587
0.058424
0.090661
-0.009905
0.002992
-0.027191
0.048215
0.015682
0.242485
0.398444
0.749439
1.028547
1.271868
1.419307
1.231603
0.995852
0.588241
0.228463
-0.034656
-0.115457
-0.116613
-0.140303
-0.064294
0.004358
-0.041111
0.091693
0.082297
0.024251
0.088664
0.097693
0.150287
0.070268
0.202799
0.095789
0.124025
0.145805
0.225325
0.075252
0.275671
0.213573
0.209185
0.292088
0.282919
0.338176
0.330102
0.376962
0.414744
0.404723
0.426618
0.360504
0.429035
0.486124
0.403701
0.512570
0.418309
0.463764
0.442000
0.556168
0.467856
0.549377
0.417234
0.510578
0.450564
0.475914
0.467807
0.404711
0.407662
0.402668
0.387865
0.343249
0.388604
0.364222
0.359864
0.242115
0.303035
0.302221
0.155795
0.199662
0.184830
0.229192
0.127508
0.160421
0.047122
0.147106
-0.017286
0.112933
0.022923
0.108059
-0.057613
0.119879
0.022257
-0.000209
-0.023691
-0.061465
-0.055840
-0.035125
-0.075553
0.061101
0.048784
-0.001197
-0.030257
-0.082815
-0.105976
-0.039403
-0.071894
-0.025473
-0.028289
-0.086690
-0.063104
-0.011702
-0.094817
-0.079137
-0.061920
-0.032542
-0.034585
-0.075265
-0.046660
-0.089899
-0.006694
0.004528
-0.059930
-0.030776
-0.038727
-0.060922
-0.066701
-0.066211
-0.071364
-0.099630
-0.086934
-0.043441
-0.175984
-0.086164
-0.103046
-0.071442
-0.069649
-0.036302
0.012161
-0.110862
-0.073717
-0.106936
0.042139
0.027408
-0.089844
-0.031364
0.039852
0.050364
0.092781
0.014525
0.017867
0.016794
0.123344
0.020934
0.071944
0.102655
0.120441
0.025275
0.110840
0.076166
0.131963
0.036772
0.095795
0.089289
0.064420
0.078491
0.111411
-0.024010
0.055174
0.065632
-0.018965
-0.027531
-0.061270
-0.066063
-0.111127
0.008286
-0.018819
0.021858
-0.135837
-0.030600
-0.083585
-0.011482
-0.083734
-0.009290
-0.068388
-0.066422
-0.084285
0.023638
0.018783
0.222143
0.536929
0.793879
1.066766
1.226644
1.169453
1.093174
0.781979
0.327134
0.030750
-0.199483
-0.236808
-0.241554
-0.183841
-0.113381
-0.037739
-0.067398
-0.082053
0.031442
-0.012499
0.010764
0.036258
0.125925
0.017948
0.050810
0.073793
0.096551
0.083602
0.102324
0.063014
0.108466
0.238750
0.164359
0.203159
0.265918
0.244485
0.309908
0.361081
0.279869
0.314952
0.380465
0.332633
0.397352
0.362218
0.466044
0.406718
0.408718
0.410474
0.511840
0.480789
0.384099
0.407804
0.384063
0.423665
0.427377
0.368310
0.394035
0.394886
0.309552
0.389008
0.248468
0.262889
0.241048
0.275257
0.164961
0.265224
0.264739
0.156053
0.154746
0.033598
0.140218
0.118789
0.127268
0.141946
0.040320
-0.024766
-0.070945
0.107820
-0.023674
0.029834
-0.051350
0.034509
-0.002645
-0.062799
-0.064955
-0.047977
0.032015
-0.078496
-0.065097
-0.091471
-0.111261
-0.091259
-0.078832
0.021369
-0.094136
0.015828
-0.111302
-0.093722
0.048124
-0.003906
-0.017701
-0.069167
-0.009641
-0.035815
-0.140687
-0.090401
-0.073601
-0.083330
-0.068137
-0.061167
-0.037363
-0.098841
0.006652
-0.122029
0.012457
-0.020914
-0.002027
-0.075737
-0.068621
-0.078020
-0.061655
-0.085397
-0.057264
-0.091635
-0.045700
0.030183
-0.130785
-0.122297
-0.031250
-0.039899
0.028526
0.049216
-0.066788
0.015602
-0.020580
0.044821
-0.016392
-0.004310
0.046944
0.105241
0.071977
0.112508
0.149509
0.085471
0.003986
0.102201
0.058325
0.118424
0.175961
0.107602
0.152148
0.054292
0.050248
0.110048
0.080195
0.092776
0.060915
0.089621
0.032353
0.094669
0.033556
0.078686
-0.015162
0.052199
-0.062040
-0.062078
-0.027987
0.040013
0.010158
-0.042638
-0.013505
-0.132659
-0.091846
0.017579
-0.114553
-0.047227
-0.030335
0.007275
0.183791
0.363854
0.660084
0.956057
1.169559
1.384234
1.286098
0.924357
0.638792
0.328180
0.074331
-0.180020
-0.208567
-0.200152
-0.030082
-0.012702
0.020831
0.096385
0.010413
0.020812
0.067904
0.064033
0.021362
0.112255
0.070448
0.071193
0.130912
0.142308
0.197423
0.183574
0.121944
0.209949
0.287495
0.230159
0.216764
0.232472
0.371424
0.305102
0.378308
0.352216
0.393169
0.511206
0.460162
0.509630
0.508609
0.484566
0.523403
0.479453
0.538024
0.515137
0.466613
0.453574
0.518604
0.511349
0.416525
0.515017
0.502297
0.418743
0.429677
0.405110
0.348324
0.442347
0.339979
0.326503
0.253844
0.244112
0.292616
0.289828
0.169471
0.236256
0.214859
0.256595
0.105087
0.192143
0.182783
0.107711
0.150194
0.155190
0.139733
0.076178
0.126556
0.065007
0.053828
0.047905
0.006909
0.062014
0.076533
-0.015606
0.007721
-0.006803
-0.046273
-0.004515
-0.002299
0.034012
0.028948
0.089719
-0.008430
0.106717
0.021640
-0.002848
0.021674
0.100449
-0.002028
0.049923
0.040344
0.076902
0.013544
-0.046170
0.068512
0.014775
0.014558
0.010511
-0.026828
0.109791
0.020191
0.067732
0.084882
-0.015452
0.073751
0.025107
0.025815
0.002950
-0.015861
-0.031963
0.099687
0.045513
0.091874
0.022734
0.197195
0.045994
0.011200
0.053861
0.148932
0.064849
0.124783
0.091029
0.092278
0.126422
0.048666
0.138553
0.147314
0.263044
0.194195
0.176550
0.177097
0.215470
0.184116
0.267670
0.236755
0.231538
0.190621
0.209472
0.255069
0.121046
0.209472
0.088611
0.144555
0.167895
0.096655
0.065367
0.125185
0.161076
0.045675
0.098546
0.038732
0.023846
0.022342
0.015372
0.104980
0.081995
0.073591
0.003061
-0.023782
0.020981
0.120735
0.065209
0.039330
0.055327
0.189242
0.365711
0.551301
0.836493
1.189750
1.370124
1.356303
1.330481
0.946290
0.535278
0.282421
0.040679
-0.061885
-0.139889
-0.139946
0.060548
0.045412
0.066935
0.155281
0.101219
0.174454
0.162341
0.112492
0.085742
0.241945
0.164553
0.105081
0.211194
0.313080
0.301562
0.197919
0.193805
0.254380
0.279832
0.341402
0.306880
0.357349
0.429018
0.431136
0.520754
0.498067
0.495635
0.469520
0.585091
0.493710
0.555230
0.461270
0.525190
0.528813
0.524548
0.552979
0.652172
0.569255
0.640095
0.575865
0.448796
0.435587
0.542916
0.470418
0.401975
0.442496
0.415420
0.431687
0.357037
0.410104
0.375465
0.385791
0.288963
0.294865
0.247303
0.219280
0.247125
0.190592
0.239804
0.212697
0.249108
0.166319
0.168995
0.139301
0.181279
0.140106
0.107377
0.123999
0.136497
0.070995
0.149332
0.080083
0.097470
0.002319
0.109380
0.079683
0.038423
0.070712
-0.003689
0.061222
0.093946
0.080992
0.059048
-0.063019
0.050221
0.107912
-0.011385
-0.030089
0.031540
0.011680
-0.033651
0.052278
0.083715
0.066593
0.016954
0.031289
0.000651
-0.036152
0.052358
0.076204
0.054371
0.020741
0.085667
0.006702
0.022159
0.069535
0.026177
-0.005255
0.036138
-0.007215
0.035563
0.046250
0.061019
0.169572
0.068150
0.037766
-0.000640
0.069596
0.068027
-0.033378
0.113156
0.145789
0.067671
0.108269
0.127841
0.166706
0.196922
0.135498
0.200158
0.179006
0.228935
0.100180
0.131472
0.250808
0.171795
0.181240
0.108024
0.241569
0.179784
0.139031
0.146260
0.169883
0.148138
0.098708
0.109444
0.184266
0.153658
0.046523
0.104632
0.005069
0.002102
0.027987
-0.083135
0.059162
-0.003644
0.066247
-0.055671
-0.017654
0.048863
0.045946
0.054150
-0.002723
0.046051
-0.017817
0.144452
0.406840
0.598006
0.929261
1.086114
1.373134
1.327019
1.022498
0.744012
0.367550
0.129912
-0.139508
-0.160877
-0.128907
-0.079143
-0.004003
0.002787
-0.020355
0.088393
0.020638
0.068522
0.098021
0.004037
0.088332
0.078287
0.073484
0.116643
0.078988
0.158535
0.204491
0.177983
0.269228
0.263657
0.275739
0.255228
0.330470
0.348346
0.395068
0.375881
0.338512
0.315831
0.415328
0.354985
0.427842
0.431371
0.449061
0.456010
0.433133
0.509583
0.476070
0.500563
0.471596
0.410574
0.499471
0.458097
0.404654
0.471444
0.440338
0.361213
0.315519
0.387295
0.319169
0.341784
0.308405
0.344268
0.297164
0.197547
0.168632
0.168142
0.177857
0.069241
0.140554
0.133025
0.108363
0.052296
0.060148
0.070118
0.131440
0.054804
-0.011374
0.048319
0.013231
0.019206
0.036091
-0.031217
-0.035587
-0.070476
0.000090
-0.024869
0.010738
0.021243
-0.085474
-0.026216
-0.009229
-0.123448
-0.050456
-0.108510
-0.043290
-0.039704
-0.037300
-0.205248
-0.175837
0.017050
0.000353
-0.151625
-0.090556
-0.088764
-0.005670
-0.103387
-0.093651
-0.061370
-0.035775
-0.065817
-0.058319
-0.113577
-0.019599
-0.143540
-0.014630
-0.040854
-0.086924
-0.079449
-0.041266
-0.088640
-0.109984
-0.022390
-0.079859
-0.049282
-0.020697
-0.060313
-0.049521
0.017005
-0.025655
-0.004469
-0.007666
0.010394
-0.013757
-0.026970
-0.045170
0.019459
-0.021742
0.064279
0.019979
0.055917
0.065446
0.039618
0.088356
0.097400
0.039583
0.144683
0.030922
0.165930
0.133345
0.144412
0.088353
0.073417
0.099422
0.041231
0.145910
0.012629
-0.045298
-0.030895
-0.045864
0.001857
-0.040839
-0.044693
-0.078366
-0.026638
-0.036990
-0.079501
-0.121433
-0.106743
-0.045849
-0.013417
-0.067882
-0.124023
-0.125607
0.003852
-0.009722
0.110443
0.120170
0.404221
0.719830
0.981596
1.200563
1.269962
1.074133
0.795774
0.508342
0.130267
-0.082982
-0.246780
-0.289552
-0.266602
-0.091114
-0.120960
-0.099784
-0.022276
-0.029767
-0.074144
-0.071569
-0.023682
0.011388
-0.027897
0.007779
0.107730
0.130454
0.023003
0.134426
0.188084
0.187559
0.148137
0.143890
0.185491
0.133436
0.243326
0.252676
0.215035
0.311329
0.270039
0.271941
0.359668
0.357499
0.417916
0.340057
0.381868
0.436972
0.420218
0.411705
0.435363
0.413853
0.382187
0.429285
0.443600
0.391944
0.363122
0.276973
0.336369
0.399725
0.298487
0.258591
0.294809
0.237786
0.234900
0.244881
0.206962
0.165217
0.201215
0.139211
0.094801
0.112001
0.040209
0.087172
0.050194
0.018525
0.069620
0.040316
-0.004949
0.026244
-0.011023
-0.008043
-0.020338
-0.021113
-0.020698
-0.097853
-0.008513
-0.001075
-0.080514
-0.068636
-0.101629
-0.100861
-0.116349
-0.060896
-0.061565
-0.015467
-0.084557
-0.160632
-0.112267
-0.082721
-0.102979
-0.086009
-0.096088
-0.051680
-0.053630
-0.088079
-0.157252
-0.162662
-0.049170
-0.090472
-0.096560
-0.091450
-0.086738
-0.077639
-0.120577
-0.159120
-0.107424
-0.081009
-0.089948
-0.083781
-0.061890
-0.102723
-0.077602
-0.080843
-0.096850
-0.105332
-0.131938
-0.023635
-0.119788
0.000363
-0.074840
-0.045111
-0.061958
0.008141
-0.011882
0.013462
0.005675
0.062555
-0.011768
0.095573
-0.037939
0.119548
0.112706
0.125576
0.068674
0.098544
0.025562
0.136827
0.129332
0.087023
0.076197
0.052796
0.075040
0.067477
0.071674
0.058302
0.108008
0.066097
0.060114
0.031944
0.100226
0.097200
-0.009111
0.081493
-0.002525
0.023378
-0.086289
0.016590
0.056401
-0.033017
-0.108351
-0.025307
-0.017061
-0.038910
-0.134448
-0.023012
-0.067141
-0.084578
0.091796
0.102591
0.316076
0.535740
0.802014
1.140554
1.263421
1.312453
1.006388
0.747703
0.301612
0.062466
-0.183925
-0.246720
-0.234740
-0.143805
0.009847
-0.043676
-0.002264
0.089656
0.018503
0.085488
-0.031474
0.015945
0.072491
0.052817
0.085884
0.126892
0.054151
0.163460
0.098840
0.133523
0.174559
0.174543
0.332303
0.262768
0.347016
0.306496
0.292685
0.265045
0.321104
0.475424
0.469581
0.290196
0.383728
0.493822
0.459383
0.494430
0.404342
0.468628
0.548395
0.539967
0.444861
0.528064
0.425929
0.423867
0.412436
0.494746
0.382772
0.455772
0.398249
0.355103
0.488018
0.466924
0.341601
0.332896
0.380456
0.282324
0.308570
0.247585
0.261144
0.088649
0.115544
0.169059
0.100163
0.030504
0.116060
0.098179
0.051889
0.010089
0.069663
0.060180
0.055556
0.045473
0.020821
0.017017
-0.003198
0.053088
0.019133
-0.031775
0.016725
0.038336
-0.015990
-0.026590
-0.064603
0.023613
-0.009125
0.039611
-0.038947
-0.002997
0.007552
-0.001567
0.003131
0.026715
0.011506
-0.032515
-0.026017
-0.000748
0.009570
0.062624
0.032513
-0.010643
0.003893
-0.023914
0.045701
0.059708
-0.025252
0.019800
0.013117
0.063452
0.089064
0.018363
-0.040492
-0.033223
0.031600
-0.013071
0.027490
0.020080
0.059181
-0.019774
0.067850
0.017671
-0.005342
0.126188
0.173950
0.150517
0.082173
0.003086
0.216329
0.105711
0.138073
0.152786
0.145307
0.092370
0.176463
0.237683
0.270112
0.288628
0.185003
0.244632
0.299262
0.221176
0.283457
0.193981
0.164306
0.169802
0.167613
0.120636
0.185996
0.108302
0.054224
0.136358
0.155080
0.126463
0.126571
0.068862
0.094869
0.033803
0.058055
0.116524
0.074645
0.084267
0.146084
0.203374
0.100127
0.035213
0.044398
0.139249
0.135293
0.076943
0.278319
0.427198
0.740759
1.056955
1.347103
1.408091
1.323484
0.992424
0.686929
0.268168
0.009995
-0.072774
-0.134109
-0.159824
-0.052707
0.010161
0.026121
0.141064
0.091502
0.129235
0.067548
0.143245
0.191411
0.139010
0.233825
0.193571
0.270623
0.290196
0.154754
0.316411
0.267116
0.314300
0.336324
0.304725
0.321765
0.399215
0.469193
0.468020
0.462586
0.482484
0.412270
0.533460
0.489146
0.498861
0.597343
0.581650
0.528235
0.624562
0.525967
0.596088
0.616989
0.551447
0.493325
0.647443
0.606573
0.495561
0.504903
0.525417
0.541629
0.576660
0.454090
0.455361
0.434944
0.434249
0.411032
0.393223
0.324458
0.363614
0.197106
0.202363
0.267554
0.308439
0.253768
0.261069
0.236693
0.230720
0.218584
0.221051
0.175333
0.127831
0.085133
0.085058
0.068510
0.053431
0.127779
0.088134
0.109118
0.072767
0.064261
0.115201
0.059373
0.056046
0.079712
0.065262
-0.006437
0.075445
0.009166
0.110258
0.102371
0.030534
0.030755
0.015355
0.020177
0.035681
0.142192
0.097349
0.066199
0.109853
0.102998
0.056247
0.082927
0.036432
