-0.000620
-0.053117
0.057103
-0.011569
-0.031039
0.017506
-0.020107
0.030693
-0.015392
-0.076907
0.031346
0.017626
0.006562
-0.002449
0.084104
-0.047324
0.029476
0.060560
0.066816
0.057198
0.087268
0.048779
0.052920
0.081166
0.072044
0.077963
0.223773
0.082390
0.129156
0.165730
0.139981
0.153006
0.155630
0.144389
0.152672
0.209941
0.111192
0.128558
0.198438
0.184274
0.103759
0.168315
0.165486
0.140232
0.225196
0.137267
0.203106
0.106795
0.095638
0.122632
0.071136
0.041568
0.055886
0.089006
0.109368
0.087921
0.134895
0.031335
0.075804
0.010726
0.029754
0.121256
0.073320
0.132840
0.046782
0.136425
0.257770
0.491932
0.746193
1.009731
1.218872
1.260267
1.086910
0.764812
0.454475
0.196469
-0.057572
-0.129196
-0.044069
-0.022169
-0.031946
0.147594
0.110151
0.089736
0.090420
0.097579
0.121549
0.120351
0.158445
0.210464
0.158039
0.212078
0.269327
0.180696
0.282546
0.241983
0.265535
0.291128
0.301144
0.352504
0.310782
0.291754
0.397930
0.393618
0.422087
0.389367
0.414754
0.470251
0.540279
0.536493
0.505692
0.490399
0.537754
0.537790
0.551845
0.539602
0.444231
0.528477
0.528395
0.504271
0.503809
0.490237
0.486236
0.462513
0.455018
0.429250
0.376709
0.447963
0.409128
0.257590
0.369091
0.379797
0.335664
0.260664
0.245131
0.309694
0.234123
0.263686
0.206316
0.186489
0.251999
0.155668
0.105492
0.137122
0.139827
0.176114
0.110781
0.118274
0.172959
0.076536
0.143705
0.132888
0.166523
0.134603
0.175386
0.151423
0.109681
0.119738
0.040268
0.112351
0.102651
0.091229
0.126411
0.099786
0.111190
0.141218
0.054266
0.025642
0.130290
0.106220
0.095499
0.129468
0.109621
0.058037
0.048288
0.092092
0.127732
0.059300
0.090202
0.114796
0.059497
0.112530
0.109501
0.122821
0.140390
0.157939
0.127857
0.062038
0.140152
0.137322
0.115853
0.154205
0.135425
0.103728
0.173959
0.161320
0.176131
0.170949
0.118292
0.234122
0.216564
0.142408
0.214005
0.212106
0.199066
0.210959
0.218071
0.189993
0.247987
0.299180
0.301084
0.249612
0.219552
0.358578
0.223722
0.276634
0.316588
0.229129
0.238086
0.315517
0.229173
0.248333
0.218882
0.174816
0.157468
0.152539
0.187682
0.256486
0.129103
0.154787
0.192808
0.076145
0.140317
0.091304
0.177662
0.151539
0.141645
0.106871
0.088924
0.118910
0.075373
0.136931
0.257556
0.435630
0.697332
0.919598
1.209061
1.307248
1.247480
0.990532
0.702542
0.407785
0.146520
-0.005561
-0.063518
-0.089871
0.094630
0.072221
0.151259
0.140880
0.122087
0.172751
0.166457
0.202831
0.240338
0.093897
0.163309
0.256888
0.269289
0.208002
0.323807
0.325370
0.280639
0.336703
0.385155
0.379083
0.365540
0.413930
0.482542
0.419634
0.489083
0.538511
0.532550
0.553477
0.496388
0.578349
0.529556
0.534048
0.593256
0.616527
0.605297
0.511333
0.471010
0.569053
0.575339
0.553697
0.536070
0.478932
0.478453
0.487224
0.502471
0.475778
0.492615
0.394292
0.414153
0.398925
0.363297
0.428058
0.289912
0.258950
0.291190
0.305580
0.316148
0.233938
0.233555
0.266476
0.238719
0.205131
0.208115
0.245835
0.157981
0.148300
0.168571
0.182072
0.105991
0.164136
0.056895
0.139766
0.084816
0.127291
0.091969
0.105065
0.068574
0.131861
0.126604
0.040888
0.091884
0.153047
0.154224
0.080234
0.109980
0.160920
0.070878
0.097670
0.142731
0.143492
-0.004909
0.099460
0.126654
0.081413
0.113812
0.014831
0.124205
0.062526
0.090786
0.093332
0.069651
0.026134
0.091605
0.144786
0.126434
0.159765
0.089897
0.118137
0.130355
0.058129
0.129495
0.073688
0.135095
0.078153
0.086594
0.094171
0.172340
0.140090
0.192210
0.142096
0.240060
0.149825
0.177014
0.221375
0.223101
0.241590
0.249951
0.197385
0.221196
0.257533
0.204173
0.285256
0.233062
0.170033
0.251757
0.254453
0.219707
0.216700
0.224147
0.236095
0.173619
0.199388
0.162212
0.112993
0.193657
0.107392
0.114996
0.108108
0.089450
0.152800
0.126330
0.108170
0.087475
0.168457
0.080605
0.091153
0.165216
0.121150
0.060320
0.013483
0.116169
0.083351
0.184165
0.307624
0.531434
0.791816
1.139127
1.250632
1.246313
1.042784
0.795906
0.586767
0.216063
0.003041
-0.059644
-0.095625
-0.042607
0.074366
0.069899
0.092696
0.040280
0.069357
0.167080
0.113334
0.193924
0.174512
0.174474
0.218293
0.141355
0.193212
0.180467
0.278172
0.213066
0.244553
0.278754
0.329788
0.340643
0.316834
0.400960
0.352047
0.388492
0.427826
0.463164
0.528372
0.449704
0.432169
0.494641
0.523051
0.554245
0.530336
0.486331
0.515200
0.519312
0.491453
0.509336
0.499912
0.453301
0.471823
0.448762
0.431586
0.474808
0.454547
0.456165
0.453149
0.374167
0.400371
0.350805
0.369419
0.306653
0.327988
0.315155
0.278866
0.239160
0.231979
0.264639
0.185261
0.240924
0.175637
0.116854
0.152702
0.158600
0.149430
0.090812
0.178574
0.134121
0.116545
0.171871
0.087436
0.091455
0.092499
0.018498
0.006324
0.037700
0.074301
0.034201
0.079641
0.090530
0.057943
0.090075
-0.025233
0.064477
0.121867
0.088818
0.002671
0.071427
0.060110
0.033406
0.125647
-0.007286
0.081734
0.027029
-0.044539
0.076201
0.118901
0.055873
0.053671
0.080151
-0.013143
0.096047
0.056856
0.006113
0.063176
0.082231
0.048607
0.102155
0.061766
0.049964
0.131502
0.086718
0.152495
0.044484
0.167728
0.069878
0.099812
0.150155
0.066787
0.129312
0.144834
0.151674
0.148596
0.190007
0.224064
0.238023
0.190094
0.179771
0.218912
0.160021
0.226546
0.194255
0.212685
0.242501
0.187208
0.190845
0.183305
0.230130
0.183912
0.222439
0.179939
0.119583
0.125327
0.161478
0.137237
0.130573
0.073144
0.112720
0.055617
0.147528
0.086044
0.052225
0.066172
0.013422
0.088062
0.123116
0.060926
0.090040
0.096523
-0.000883
0.128782
0.115661
0.254799
0.383051
0.704815
0.979346
1.190171
1.266040
1.238471
0.989772
0.691968
0.361517
0.164455
-0.031250
-0.042176
-0.063913
-0.048435
0.023622
0.045331
0.170583
0.129941
0.101854
0.106255
0.221485
0.168848
0.131392
0.236230
0.247246
0.204865
0.234829
0.276216
0.243916
0.346672
0.245147
0.307643
0.259306
0.317109
0.313939
0.374790
0.443856
0.433080
0.501663
0.529904
0.457478
0.475753
0.462160
0.504525
0.494719
0.536171
0.506736
0.577223
0.551095
0.492604
0.512211
0.503493
0.567494
0.518278
0.559188
0.525061
0.478634
0.468775
0.517938
0.493160
0.427145
0.370246
0.343129
0.344828
0.341318
0.338504
0.348734
0.253859
0.278030
0.201355
0.247005
0.218324
0.239280
0.192572
0.207167
0.197609
0.160393
0.169485
0.173653
0.184552
0.174087
0.145622
0.140183
0.197262
0.177333
0.115747
0.069907
0.097689
0.074259
0.133525
0.164622
0.100837
0.086265
0.179734
0.062953
0.173647
0.138391
0.126272
0.124467
0.136363
0.117942
0.119940
0.115226
0.132980
0.172782
0.189707
0.243596
0.119867
0.129220
0.180908
0.146171
0.142894
0.126639
0.174173
0.106417
0.167723
0.124357
0.118046
0.124354
0.104057
0.164262
0.132012
0.184856
0.146468
0.164081
0.180989
0.144752
0.198955
0.239443
0.193492
0.246825
0.213253
0.283030
0.299483
0.250370
0.265082
0.255063
0.295487
0.265972
0.336034
0.282349
0.259849
0.302476
0.289232
0.284342
0.328500
0.324366
0.271353
0.267030
0.325035
0.292910
0.256099
0.212848
0.225830
0.205187
0.286205
0.316275
0.159346
0.239150
0.209085
0.203202
0.210325
0.214292
0.240469
0.269805
0.166140
0.128218
0.178941
0.184080
0.224501
0.214196
0.179795
0.229205
0.172250
0.195641
0.306233
0.436958
0.607575
0.848167
1.190758
1.358826
1.316608
1.195545
0.881582
0.578558
0.290398
0.108435
0.011640
0.025537
0.098439
0.186111
0.259102
0.216891
0.186642
0.236609
0.181669
0.255032
0.233378
0.291082
0.322083
0.326574
0.326037
0.355342
0.293610
0.347547
0.326758
0.458429
0.408583
0.433212
0.519655
0.515759
0.507169
0.564070
0.604093
0.540889
0.569950
0.605545
0.605194
0.602236
0.633586
0.618915
0.613586
0.697103
0.626847
0.619656
0.650079
0.649978
0.591426
0.666203
0.621286
0.672105
0.599269
0.623160
0.579602
0.562224
0.519269
0.529973
0.456452
0.464885
0.507415
0.448718
0.429063
0.436091
0.417673
0.411197
0.380592
0.376680
0.387462
0.401744
0.377298
0.265623
0.279907
0.323446
0.220386
0.327287
0.206773
0.237849
0.273484
0.268356
0.251416
0.246889
0.210287
0.326193
0.251504
0.240530
0.196913
0.236671
0.272032
0.242750
0.297677
0.168895
0.205959
0.155394
0.128346
0.168884
0.247029
0.147672
0.260647
0.241646
0.247525
0.227944
0.122977
0.201514
0.243708
0.212237
0.146451
0.193981
0.189722
0.230656
0.240402
0.255056
0.279836
0.207600
0.224840
0.167695
0.228879
0.198992
0.273070
0.313830
0.278033
0.248259
0.225019
0.295056
0.338693
0.291387
0.241627
0.255359
0.326670
0.286974
0.293646
0.270720
0.370957
0.318994
0.336542
0.422089
0.392289
0.296832
0.396236
0.399242
0.452532
0.357328
0.330978
0.414667
0.356292
0.373826
0.394974
0.361102
0.409543
0.357657
0.388233
0.348228
0.366527
0.384595
0.331174
0.319894
0.256839
0.276792
0.275664
0.327268
0.291050
0.269971
0.286170
0.282589
0.323494
0.265502
0.229655
0.252399
0.262730
0.249672
0.196477
0.236476
0.297956
0.455494
0.635994
0.774702
1.139697
1.357021
1.401921
1.332922
1.175428
0.771757
0.484030
0.187419
0.152735
0.105130
0.177081
0.207373
0.249025
0.228192
0.288010
0.297413
0.366929
0.342310
0.252210
0.433570
0.355259
0.303275
0.350970
0.424343
0.342103
0.390992
0.422153
0.456859
0.469665
0.507642
0.499640
0.518771
0.610581
0.578699
0.551423
0.619277
0.590034
0.638656
0.638460
0.656830
0.729332
0.709154
0.680462
0.721021
0.675046
0.648494
0.711769
0.723632
0.627762
0.682071
0.619129
0.647857
0.700093
0.640172
0.573640
0.629772
0.645414
0.597851
0.639529
0.541515
0.503902
0.503243
0.561939
0.457596
0.423970
0.447220
0.434051
0.453480
0.421101
0.340645
0.377498
0.349492
0.337522
0.337374
0.312330
0.322667
0.323978
0.307566
0.278549
0.244511
0.264795
0.316984
0.357400
0.241643
0.286315
0.241540
0.230140
0.235949
0.207103
0.215930
0.317741
0.219452
0.224824
0.255903
0.229816
0.162783
0.213275
0.183438
0.203587
0.318344
0.220412
0.246167
0.236635
0.347830
0.249612
0.232312
0.294392
0.160093
0.211406
0.190748
0.199699
0.227286
0.245373
0.214283
0.203901
0.235198
0.245525
0.205346
0.232315
0.227799
0.289197
0.241637
0.262959
0.191215
0.276058
0.280941
0.222827
0.307076
0.187097
0.278873
0.241330
0.237524
0.297022
0.365250
0.420129
0.361190
0.329968
0.342636
0.320485
0.376620
0.340758
0.401966
0.356144
0.367548
0.409638
0.392336
0.324301
0.398344
0.284139
0.328345
0.298219
0.305665
0.319286
0.298202
0.297047
0.257844
0.305566
0.281714
0.211360
0.295717
0.233519
0.304384
0.194214
0.253590
0.227162
0.227403
0.260805
0.269613
0.242340
0.300761
0.210275
0.257729
0.254988
0.311261
0.472988
0.689055
0.909454
1.215394
1.339985
1.356628
1.237068
0.853463
0.679707
0.306983
0.204594
0.009080
-0.018278
0.091740
0.238805
0.168560
0.199393
0.256999
0.313300
0.245446
0.164856
0.194381
0.271030
0.229955
0.277909
0.302525
0.344379
0.320802
0.377766
0.384461
0.382498
0.444688
0.406089
0.508546
0.509859
0.551478
0.498875
0.527679
0.539757
0.604341
0.585603
0.626585
0.598842
0.576252
0.525422
0.718053
0.585604
0.590883
0.672691
0.607236
0.595631
0.596057
0.581206
0.617358
0.581384
0.585019
0.634324
0.530874
0.531084
0.553012
0.459322
0.474139
0.522254
0.508150
0.460996
0.441486
0.475365
0.339979
0.388161
0.361425
0.330892
0.264509
0.248929
0.220104
0.287571
0.284896
0.249574
0.224805
0.221848
0.250816
0.255930
0.149991
0.233919
0.278459
0.137708
0.172789
0.203065
0.241166
0.185261
0.132856
0.169729
0.157202
0.150524
0.148414
0.174841
0.178864
0.065708
0.204174
0.175100
0.110600
0.213743
0.138584
0.145030
0.185484
0.180893
0.168278
0.163061
0.132808
0.177214
0.197957
0.191344
0.174811
0.181409
0.134140
0.125450
0.144404
0.157053
0.143683
0.130741
0.175497
0.161283
0.155633
0.158542
0.128073
0.182622
0.150494
0.146887
0.184369
0.187470
0.198215
0.141080
0.236630
0.267736
0.239685
0.179487
0.244071
0.277242
0.273118
0.295037
0.308889
0.260276
0.277156
0.355180
0.287853
0.334440
0.320278
0.323547
0.309023
0.300224
0.296128
0.308455
0.264883
0.252829
0.213479
0.184357
0.276407
0.179931
0.262043
0.234967
0.224584
0.228129
0.211500
0.170716
0.224278
0.250975
0.210414
0.177803
0.214217
0.176562
0.045839
0.178096
0.136443
0.129057
0.174420
0.216807
0.266501
0.325970
0.507951
0.764168
1.052206
1.238707
1.372901
1.256505
0.958439
0.635598
0.419727
0.193452
0.047578
-0.005660
0.065964
0.115384
0.169603
0.126152
0.150081
0.192181
0.165622
0.187723
0.165812
0.253894
0.240595
0.274792
0.259158
0.329903
0.358662
0.290267
0.300807
0.316214
0.360279
0.360247
0.388664
0.479171
0.425632
0.462761
0.484564
0.530060
0.485736
0.527382
0.495831
0.579390
0.618100
0.559130
0.636830
0.605713
0.612937
0.624881
0.654012
0.691201
0.586938
0.564129
0.551527
0.602180
0.611454
0.514253
0.541992
0.521659
0.511588
0.522050
0.437610
0.458743
0.446550
0.457778
0.377167
0.382851
0.373515
0.355474
0.319442
0.338070
0.216432
0.310652
0.234152
0.237537
0.302710
0.237787
0.260677
0.192287
0.232245
0.238022
0.242470
0.243518
0.140014
0.166142
0.141107
0.177286
0.148919
0.267286
0.153860
0.114653
0.174449
0.178508
0.171354
0.190630
0.177972
0.192501
0.195080
0.143662
0.169206
0.196367
0.170450
0.175803
0.197253
0.160262
0.233378
0.111209
0.143310
0.166120
0.161302
0.125097
0.199699
0.150147
0.194050
0.168483
0.163237
0.216744
0.146872
0.168495
0.211282
0.184677
0.184376
0.155748
0.150304
0.203327
0.121858
0.206185
0.227803
0.131926
0.189486
0.160752
0.244671
0.233039
0.221805
0.242801
0.274034
0.324370
0.311094
0.302450
0.332997
0.315491
0.308971
0.315903
0.325280
0.371925
0.325999
0.347029
0.283569
0.346602
0.330047
0.255548
0.359273
0.354628
0.280868
0.218645
0.291123
0.280887
0.293472
0.250377
0.255944
0.292643
0.290909
0.249430
0.192106
0.175986
0.173889
0.200665
0.216958
0.107054
0.229878
0.197982
0.190854
0.180093
0.155299
0.191110
0.225898
0.310471
0.504373
0.720519
1.009449
1.191762
1.332496
1.299236
1.171313
0.855824
0.537584
0.331644
0.180958
0.049384
0.007972
0.123480
0.170492
0.199719
0.186880
0.236714
0.246103
0.303155
0.227170
0.269392
0.340264
0.355724
0.306040
0.378460
0.405167
0.402340
0.355406
0.353719
0.461901
0.446764
0.501494
0.472050
0.479700
0.530030
0.577041
0.591599
0.572723
0.524259
0.572746
0.575880
0.628388
0.648833
0.602470
0.633084
0.681669
0.647974
0.688531
0.666127
0.664192
0.675043
0.587093
0.587930
0.609586
0.638260
0.603205
0.621790
0.591669
0.541322
0.493995
0.595367
0.570408
0.499178
0.497603
0.488273
0.437127
0.430886
0.322694
0.418027
0.447433
0.375721
0.388095
0.354357
0.333130
0.280862
0.411996
0.303646
0.328638
0.304815
0.265633
0.315541
0.248375
0.248138
0.241610
0.213256
0.279414
0.227475
0.290448
0.228646
0.235534
0.274371
0.231070
0.297986
0.206996
0.254086
0.197025
0.244712
0.268603
0.266589
0.253323
0.229284
0.234533
0.247100
0.254794
0.264898
0.296589
0.232642
0.286468
0.185292
0.292261
0.171577
0.261960
0.234241
0.230487
0.317469
0.269731
0.248053
0.285558
0.275372
0.310064
0.345968
0.328706
0.294741
0.277443
0.289328
0.355897
0.271996
0.286547
0.283018
0.342412
0.347201
0.298744
0.333959
0.288248
0.302032
0.335259
0.299757
0.424836
0.413635
0.375908
0.351479
0.368293
0.445269
0.383626
0.456454
0.430727
0.428418
0.379968
0.434715
0.456556
0.387185
0.369683
0.383707
0.462739
0.369434
0.254242
0.442432
0.347225
0.350696
0.301358
0.320347
0.338046
0.359592
0.343802
0.333584
0.272887
0.262892
0.296762
0.330060
0.274562
0.267175
0.275857
0.289138
0.300423
0.324378
0.493281
0.659401
0.940549
1.215957
1.415361
1.434092
1.383344
1.108145
0.812355
0.499384
0.302671
0.146775
0.119271
0.108298
0.253463
0.301505
0.321127
0.270432
0.356013
0.293870
0.340059
0.390144
0.402383
0.359782
0.418242
0.369874
0.354585
0.439551
0.413781
0.515706
0.466595
0.544731
0.563766
0.492635
0.540697
0.550734
0.596430
0.586578
0.675379
0.675814
0.645676
0.714361
0.718408
0.663353
0.722498
0.658270
0.782397
0.742258
0.728847
0.708996
0.734032
0.745660
0.770337
0.642923
0.686962
0.688707
0.681871
0.608426
0.664482
0.645470
0.630349
0.636086
0.581609
0.559314
0.609887
0.544148
0.464229
0.531638
0.561018
0.496173
0.436366
0.442588
0.422794
0.333475
0.447923
0.421116
0.376612
0.346375
0.376276
0.382595
0.375513
0.311265
0.319530
0.308528
0.334761
0.312622
0.336034
0.297711
0.266197
0.340790
0.268278
0.279836
0.299594
0.277158
0.311321
0.299361
0.224304
0.294818
0.257477
0.268256
0.321901
0.210109
0.296329
0.290669
0.329894
0.288705
0.252792
0.245036
0.256781
0.321737
0.265513
0.357087
0.261575
0.319762
0.233848
0.261635
0.270910
0.307668
0.270161
0.323768
0.308183
0.257737
0.225851
0.259842
0.277736
0.302306
0.283295
0.332959
0.341473
0.287340
0.284994
0.339463
0.344344
0.365646
0.376185
0.274446
0.373510
0.422467
0.419193
0.451982
0.351253
0.453556
0.430526
0.335397
0.445589
0.404853
0.439130
0.419602
0.447524
0.424576
0.445924
0.381287
0.504048
0.410429
0.361693
0.348228
0.325202
0.343068
0.306743
0.284426
0.309964
0.321664
0.310374
0.336146
0.290205
0.261158
0.283672
0.241025
0.237017
0.254976
0.237979
0.309367
0.304915
0.271943
0.214522
0.347134
0.417833
0.534613
0.792160
0.971491
1.261211
1.500000
1.449313
1.229619
0.896168
0.578205
0.317007
0.142347
0.064436
0.117639
0.090287
0.179098
0.282379
0.277575
0.304744
0.274181
0.290550
0.334045
0.352209
0.454811
0.288227
0.339552
0.355561
0.422594
0.433729
0.396977
0.377824
0.524476
0.472516
0.467513
0.456244
0.517455
0.505822
0.543313
0.538635
0.575135
0.569290
0.582283
0.673516
0.631342
0.718709
0.667792
0.697805
0.726967
0.681248
0.692704
0.719437
0.665616
0.674574
0.739078
0.640455
0.644940
0.700030
0.661683
0.593397
0.533851
0.516285
0.586700
0.618295
0.502844
0.540698
0.468895
0.461197
0.493439
0.403018
0.435974
0.387286
0.350207
0.325911
0.326972
0.307318
0.267177
0.335593
0.351931
0.335394
0.315522
0.276596
0.240620
0.131767
0.247218
0.219657
0.306013
0.152106
0.257521
0.254439
0.185407
0.240690
0.264335
0.189186
0.251485
0.228707
0.209307
0.184497
0.157155
0.267613
0.213624
0.258357
0.202858
0.210603
0.174549
0.147585
0.268286
0.212058
0.223613
0.209018
0.158268
0.240526
0.141700
0.236189
0.180468
0.137115
0.217023
0.201412
0.189690
0.236477
0.197094
0.208065
0.223505
0.181401
0.197411
0.176780
0.168267
0.244223
0.245833
0.222119
0.211353
0.157745
0.257431
0.254210
0.234003
0.268606
0.254843
0.215398
0.305467
0.288525
0.282561
0.274763
0.281460
0.300693
0.357936
0.295287
0.415780
0.407073
0.307936
0.317129
0.315501
0.375021
0.287945
0.341712
0.279053
0.358247
0.352513
0.246508
0.263425
0.313458
0.240105
0.255795
0.226867
0.338313
0.186313
0.232148
0.262414
0.220812
0.130288
0.224828
0.265947
0.193874
0.255973
0.203765
0.222179
0.194743
0.150698
0.243194
0.492463
0.595984
0.872161
1.070264
1.272875
1.386949
1.214673
1.093349
0.702428
0.360674
0.180513
0.070641
0.060980
0.127178
0.084543
0.201784
0.142727
0.205047
0.218225
0.205884
0.165874
0.206199
0.281954
0.324705
0.283081
0.277264
0.299981
0.329873
0.329079
0.377124
0.452772
0.422601
0.378772
0.489286
0.410642
0.395539
0.488938
0.484633
0.539154
0.476037
0.538113
0.579079
0.550067
0.586629
0.570970
0.542932
0.622602
0.607366
0.556672
0.586164
0.620122
0.652407
0.618307
0.634210
0.555421
0.589423
0.588417
0.625017
0.525906
0.508339
0.627499
0.516269
0.478177
0.446877
0.453931
0.392748
0.434639
0.358440
0.323341
0.357848
0.308122
0.337584
0.300544
0.336358
0.363917
0.281512
0.274810
0.308619
0.288517
0.283193
0.226913
0.187886
0.183407
0.156515
0.181648
0.279020
0.215230
0.146889
0.174314
0.221196
0.195228
0.166771
0.153436
0.156175
0.188565
0.221904
0.164061
0.177470
0.225546
0.150344
0.160805
0.182324
0.162231
0.111776
0.174022
0.209639
0.180580
0.153860
0.136597
0.180737
0.220226
0.214199
0.214786
0.128886
0.170976
0.169813
0.149128
0.164431
0.202637
0.199362
0.174227
0.194386
0.151296
0.213004
0.143783
0.157512
0.206426
0.160049
0.215202
0.231548
0.202548
0.199480
0.233987
0.217195
0.281866
0.247439
0.284453
0.310656
0.278267
0.374611
0.257273
0.290954
0.264215
0.342622
0.324800
0.349922
0.401324
0.371390
0.378235
0.379605
0.309238
0.297662
0.290249
0.224398
0.344290
0.243762
0.242481
0.302583
0.292630
0.272598
0.245022
0.219486
0.236064
0.183719
0.215393
0.225818
0.196872
0.212369
0.189390
0.197233
0.157890
0.218374
0.224710
0.176489
0.234478
0.238471
0.380923
0.481439
0.792636
1.056887
1.224046
1.384752
1.354380
1.174977
0.897972
0.511064
0.287016
0.128698
0.081313
0.081821
0.153521
0.191009
0.280151
0.284367
0.207158
0.238106
0.244983
0.247764
0.312919
0.266437
0.267889
0.349831
0.276077
0.394422
0.351539
0.408667
0.454831
0.417134
0.410220
0.423210
0.462430
0.467933
0.493002
0.556915
0.587156
0.550057
0.595014
0.522781
0.633289
0.629777
0.601628
0.702626
0.684242
0.682468
0.711194
0.637147
0.681010
0.632341
0.627827
0.666780
0.656771
0.637150
0.595397
0.651843
0.590961
0.543323
0.555934
0.536188
0.549486
0.509962
0.450973
0.550668
0.400165
0.397728
0.372576
0.468315
0.399020
0.344509
0.337520
0.375577
0.429769
0.305101
0.348866
0.340579
0.341569
0.309208
0.298103
0.257774
0.324909
0.202030
0.257231
0.235429
0.222697
0.264462
0.277682
0.213303
0.291567
0.116490
0.205056
0.243504
0.281257
0.245637
0.231499
0.245697
0.242036
0.165996
0.176760
0.297857
0.281119
0.236704
0.319730
0.121005
0.287176
0.226763
0.319938
0.363325
0.207364
0.241984
0.322876
0.288997
0.189267
0.180630
0.243735
0.290942
0.268135
0.234416
0.227826
0.236170
0.232722
0.238382
0.296311
0.264941
0.229022
0.244032
0.291143
0.273449
0.260176
0.316814
0.315136
0.320352
0.316258
0.355141
0.324263
0.415761
0.382553
0.376225
0.331572
0.399604
0.474381
0.428031
0.431196
0.420314
0.503165
0.435555
0.385353
0.376123
0.440643
0.369405
0.371685
0.391620
0.449774
0.448809
0.419324
0.357495
0.331894
0.355820
0.359996
0.314434
0.325595
0.334103
0.273816
0.377465
0.314601
0.260312
0.349605
0.352628
0.235489
0.250625
0.295811
0.264542
0.294382
0.301394
0.354611
0.524785
0.751618
0.960049
1.191289
1.350450
1.457706
1.336375
1.103616
0.753789
0.478298
0.281167
0.163631
0.109832
0.176527
0.257482
0.246717
0.280815
0.290132
0.296368
0.361039
0.328025
0.394054
0.436740
0.410402
0.365102
0.419330
0.423239
0.423536
0.543003
0.481603
0.535629
0.502135
0.492457
0.544876
0.621787
0.627478
0.624635
0.613835
0.607296
0.625896
0.637787
0.708703
0.686239
0.681580
0.687484
0.718799
0.718538
0.693466
0.784184
0.769828
0.744746
0.775336
0.778384
0.688790
0.712898
0.750500
0.721721
0.673797
0.624034
0.729311
0.653337
0.583109
0.635224
0.613188
0.524395
0.608625
0.554872
0.528305
0.465093
0.505948
0.511953
0.427826
0.490568
0.425800
0.434953
0.369541
0.372668
0.335414
0.382470
0.404453
0.382500
0.293189
0.341445
0.291472
0.287055
0.359273
0.323581
0.314691
0.303791
0.265120
0.346756
0.251670
0.304146
0.325960
0.309436
0.316034
0.280134
0.291031
0.356658
0.323659
0.351642
0.307885
0.259248
0.249057
0.288306
0.285939
0.234453
0.298115
0.264262
0.286916
0.249429
0.282802
0.323068
0.367929
0.244102
0.295567
0.270612
0.397406
0.351675
0.317255
0.293627
0.367123
0.297360
0.305147
0.289694
0.310822
0.314136
0.360923
0.370244
0.434294
0.317964
0.386441
0.304055
0.403475
0.294839
0.372067
0.354371
0.426927
0.369310
0.409876
