-0.074620
0.029903
0.030730
0.043658
0.097966
-0.009730
-0.070113
-0.008287
-0.008166
0.020941
-0.028977
0.084581
0.060444
-0.000894
0.065057
0.023751
-0.050715
0.050919
0.036112
-0.019422
-0.025274
-0.018569
-0.036402
0.084821
-0.055885
-0.035648
-0.016661
0.028760
-0.007586
0.042999
0.068415
-0.018621
0.007958
0.067399
0.054628
0.001240
0.044190
0.046913
0.085044
0.064719
0.082178
0.043633
0.096790
0.131852
0.069759
0.097141
0.196034
0.188677
0.110472
0.091682
0.159696
0.187474
0.218110
0.193969
0.190042
0.187775
0.185603
0.268032
0.194729
0.184303
0.187366
0.229140
0.226322
0.125387
0.192715
0.195264
0.145200
0.168523
0.168423
0.151637
0.027931
0.068037
0.195845
0.139201
0.052447
0.095965
0.087663
0.029877
0.040879
0.070600
0.079414
0.072163
0.026694
0.001081
0.042130
0.039787
0.040700
0.045642
0.011920
0.114866
0.058463
0.037098
0.003709
0.047812
-0.003772
0.024675
0.063099
0.077908
0.023131
0.046201
0.030552
0.023206
0.038762
-0.054622
-0.088396
-0.057395
0.163235
0.432053
0.828130
1.078759
1.329622
1.389718
1.379539
1.147076
0.850520
0.562256
0.348124
0.040451
-0.093253
-0.191585
-0.330763
-0.200541
-0.143319
-0.142097
-0.015188
0.107007
0.040618
0.088617
0.028719
0.140018
0.041479
0.092331
0.080081
0.075098
-0.016205
0.045264
0.091831
0.083328
0.054718
0.066981
0.031473
0.142807
0.083958
0.047470
0.104712
0.133710
0.122607
0.123558
0.083264
0.138645
0.172515
0.128976
0.161420
0.173963
0.147187
0.209685
0.191477
0.304770
0.278901
0.205798
0.277875
0.299816
0.315588
0.299277
0.322791
0.345453
0.377095
0.367891
0.403597
0.481240
0.527550
0.494761
0.519559
0.445307
0.532601
0.565033
0.525480
0.554018
0.557691
0.596728
0.615048
0.606620
0.569232
0.571652
0.634814
0.525074
0.539737
0.562011
0.509728
0.506708
0.430033
0.416043
0.413449
0.465614
0.406297
0.388037
0.303244
0.422990
0.323049
0.306326
0.321436
0.291320
0.311290
0.239706
0.277921
0.220173
0.201348
0.199661
0.162859
0.096424
0.192205
0.127813
0.162503
0.143954
0.160375
0.101103
0.104895
0.083081
0.109661
0.054277
0.201771
0.036277
0.117389
0.046350
0.089788
0.076935
0.112424
0.027367
0.028620
0.067869
0.062319
0.077737
0.103698
0.059446
0.031410
0.102545
0.075175
0.107353
0.080313
0.047488
0.029259
0.129844
0.080100
0.086811
0.096557
0.052392
0.069734
0.019876
0.032966
0.063180
0.009107
0.080653
0.087290
0.038018
0.049170
0.038801
0.185056
0.082122
0.067264
-0.015625
0.077971
0.110947
0.099439
0.047891
0.024124
0.100199
0.050892
0.052991
0.087614
0.057558
0.133282
0.052234
0.093067
0.057638
0.141905
0.095008
0.078539
0.102650
0.081082
0.078536
0.049370
0.049060
0.048281
0.058397
0.115680
0.094581
0.051185
0.131508
0.044880
0.068870
0.086905
0.036089
0.146961
0.071474
-0.004850
0.087616
0.097119
0.106129
0.095952
0.054599
0.050711
0.006200
0.064598
0.097783
0.076746
0.052315
0.107587
0.112385
0.075668
0.036894
0.025260
0.067515
0.050562
0.059545
0.084399
0.187990
0.119192
0.041578
0.043796
0.093772
0.114198
0.098521
0.114874
0.130065
0.244674
0.169429
0.167285
0.089096
0.173976
0.190911
0.230842
0.269373
0.148045
0.199739
0.225150
0.155895
0.185098
0.173907
0.183976
0.205540
0.188415
0.120236
0.147944
0.101157
0.121580
0.063997
0.177720
0.142738
0.072037
0.040376
0.099518
0.106057
0.064621
0.061211
0.023648
-0.001595
-0.012200
-0.019033
0.027803
0.103180
-0.009703
0.053171
0.051632
0.020433
0.067691
0.009737
0.006876
-0.004835
-0.039835
0.045274
0.004055
0.007632
-0.015377
0.055087
0.022438
0.046765
0.007497
0.000679
0.020192
-0.006921
-0.067215
-0.097134
-0.061059
0.070279
0.137572
0.447464
0.749281
1.082648
1.343074
1.354425
1.235530
1.119059
0.815632
0.494919
0.136089
-0.007447
-0.147323
-0.347626
-0.425589
-0.125805
-0.176104
-0.112982
-0.045225
-0.073760
0.054875
0.010495
0.019182
0.010601
-0.078709
-0.070435
0.024988
-0.010125
0.066199
-0.046084
0.110837
-0.016287
-0.016234
-0.053355
-0.035519
-0.008035
0.034148
-0.070675
-0.052892
0.046322
0.065080
0.037714
0.036964
-0.011077
0.046408
0.105006
0.078301
0.186091
0.131428
0.152119
0.126018
0.177121
0.155673
0.216256
0.186092
0.162447
0.212064
0.213142
0.317128
0.258724
0.300025
0.308876
0.401273
0.312902
0.316972
0.401418
0.476133
0.364649
0.431404
0.453047
0.521344
0.446468
0.488268
0.501154
0.474693
0.329006
0.483963
0.450083
0.412049
0.409085
0.516932
0.469360
0.414069
0.389106
0.326230
0.368170
0.362828
0.331155
0.178108
0.275345
0.298898
0.234216
0.158237
0.274931
0.205368
0.089945
0.176997
0.150587
0.003445
0.057404
0.036282
0.062127
0.049274
0.015404
-0.044185
-0.011933
0.066800
0.032667
0.028013
0.034902
-0.090388
-0.077003
0.058684
-0.037990
0.061285
-0.039730
-0.070983
0.005333
0.043103
-0.042048
-0.049086
-0.107972
0.001423
-0.008163
-0.011366
0.015221
0.049999
0.001230
-0.073195
-0.039370
0.032831
-0.082612
-0.026987
-0.097129
0.043347
-0.038511
-0.039080
-0.064045
0.019077
-0.040139
0.064122
-0.133276
-0.011711
0.017670
-0.034189
-0.028205
-0.010904
-0.068518
-0.044936
-0.035091
-0.050976
-0.089177
-0.003866
-0.088365
-0.072018
-0.091986
0.050639
-0.008553
-0.022847
-0.021882
-0.028004
-0.088891
0.002848
-0.020856
-0.037390
-0.005654
0.007543
-0.105210
-0.015273
-0.019058
-0.082107
-0.003907
-0.086670
-0.004314
-0.051958
-0.110074
-0.050315
-0.041951
-0.081040
-0.026617
-0.038270
-0.087134
-0.082574
-0.041227
-0.033080
-0.078177
0.035732
-0.017536
-0.043652
-0.070568
-0.085437
-0.024153
-0.044992
-0.052122
-0.098836
-0.169862
0.019126
0.012617
-0.056827
-0.073414
-0.037114
-0.004393
-0.118986
-0.049012
-0.067254
0.001776
-0.021291
0.016711
0.004807
-0.010683
0.028779
0.033659
0.002506
0.055815
0.031463
0.111387
0.037787
0.118015
0.044444
0.069514
0.070290
0.194021
0.090256
0.099523
0.156290
0.083594
0.158687
0.197075
0.187163
0.113334
0.106505
0.064110
0.083722
0.053019
0.108193
0.075609
0.120382
0.134330
0.065480
0.006877
-0.003271
0.064745
-0.019621
-0.008668
0.023433
-0.010622
-0.008144
0.008683
-0.037959
-0.079432
-0.137321
-0.038533
-0.028907
0.011120
0.001981
0.001355
-0.073769
0.001298
-0.118765
0.029634
-0.061965
-0.029306
-0.125593
-0.092428
-0.026880
0.046642
0.040259
0.013045
-0.056060
-0.054952
-0.020836
-0.044906
-0.079358
-0.023085
-0.092300
-0.080040
-0.100143
-0.043991
0.245851
0.489946
0.844804
1.118606
1.272122
1.306253
1.203598
0.976513
0.682523
0.319878
0.088945
-0.157534
-0.319186
-0.339794
-0.377605
-0.200580
-0.131061
-0.124996
-0.056946
-0.008106
-0.037805
-0.022542
0.040127
-0.002350
-0.048231
-0.009420
0.014218
-0.055153
0.034124
0.030158
-0.025564
0.021121
-0.029828
-0.007345
-0.091715
0.014383
0.095219
-0.008648
0.017099
-0.052990
0.041067
-0.021745
0.121261
0.075871
0.051965
0.093354
0.021573
0.079489
0.131096
0.132692
0.146590
0.172547
0.181303
0.154040
0.258068
0.261339
0.267670
0.294909
0.267961
0.362338
0.342279
0.385106
0.390483
0.333809
0.388725
0.428165
0.445750
0.446258
0.486129
0.494406
0.509919
0.476516
0.474137
0.511642
0.464675
0.521432
0.420233
0.482600
0.586867
0.482591
0.454992
0.480664
0.390711
0.418022
0.372595
0.343689
0.396439
0.321851
0.381860
0.282802
0.342967
0.347196
0.264516
0.277787
0.159831
0.243456
0.135968
0.106011
0.213550
0.126498
0.141190
0.119265
0.119330
0.176696
0.032133
0.165601
0.040025
0.092974
0.099301
0.073267
0.115621
0.056068
0.104849
0.033518
0.034505
0.104680
0.076841
0.103025
0.089022
0.078244
-0.054696
0.028140
0.083057
0.033207
0.086834
0.108812
0.007930
0.108963
0.072949
0.014674
0.058273
0.051044
0.115382
0.022980
0.032472
0.047384
0.093564
0.089408
0.036111
0.068213
0.140348
0.043032
0.002106
0.058398
0.109349
0.022344
0.052953
0.045437
0.021649
0.071064
0.089154
-0.007676
0.035329
0.060218
0.034963
0.028391
0.068170
0.085911
0.015031
0.086640
0.063359
0.041181
0.027983
0.123340
0.108115
0.104822
0.038022
0.130227
0.099617
0.046467
0.038526
0.043934
0.114611
0.102910
0.042835
0.015910
0.086669
0.135818
0.082458
-0.010226
0.022123
0.089337
0.144033
0.126907
0.112390
0.011576
0.094203
0.095029
0.062979
0.109381
0.011003
0.088697
0.110257
0.120178
0.047351
0.047648
0.010857
0.093672
0.019825
0.070218
0.041103
-0.031636
0.063341
0.061852
0.065662
0.041935
0.096809
0.064210
0.094658
0.068985
0.070348
0.131395
0.101669
0.127728
0.160227
0.131831
0.237724
0.157708
0.184551
0.199577
0.240823
0.252175
0.233213
0.338710
0.205743
0.203822
0.190995
0.300743
0.307589
0.276768
0.200227
0.286821
0.208735
0.182396
0.131121
0.216016
0.174915
0.138511
0.142669
0.132145
0.141128
0.189982
0.068286
0.138365
0.120748
0.151280
0.129381
0.131625
0.055043
0.049335
0.047038
0.040519
0.098667
0.052040
0.045024
0.022906
0.025961
0.111081
0.124745
0.106699
0.206170
0.054206
0.157116
0.063070
0.084641
0.058987
0.038802
0.191206
0.111516
0.125442
0.140579
0.112907
0.077045
0.032567
0.000682
-0.028446
0.004703
0.084507
0.376631
0.646581
0.943729
1.222131
1.500000
1.481158
1.278808
1.066362
0.643358
0.439557
0.092695
-0.058102
-0.128702
-0.297487
-0.220884
-0.119705
-0.056878
0.038767
0.064851
0.107458
-0.007307
0.093746
0.076651
0.086953
0.114863
0.079004
0.012566
0.138288
0.132073
0.076819
0.086616
0.093935
0.022378
0.228843
0.119004
0.151878
0.164326
0.074585
0.043629
0.147479
0.142167
0.188639
0.156276
0.086918
0.137711
0.080707
0.183954
0.178432
0.275028
0.187701
0.132836
0.202492
0.252695
0.243608
0.248995
0.368810
0.354711
0.412454
0.367331
0.388348
0.342805
0.399228
0.412792
0.412260
0.505978
0.457561
0.362936
0.582058
0.563477
0.592506
0.592774
0.527037
0.531063
0.626482
0.576242
0.642124
0.585305
0.525720
0.553091
0.482270
0.454742
0.509962
0.492899
0.486521
0.480063
0.439766
0.382818
0.414822
0.387434
0.376705
0.302425
0.375674
0.267592
0.279270
0.283599
0.277767
0.222652
0.195133
0.196275
0.216254
0.121783
0.195698
0.141778
0.151074
0.097228
0.078956
0.133718
0.119419
0.160345
0.176974
0.148307
0.053275
0.173007
0.082341
0.054120
0.254872
0.111032
0.052575
0.025705
0.036588
0.159153
0.017058
0.068554
0.047477
0.101233
0.054373
0.018454
0.106543
0.005058
0.064411
0.091829
0.089853
0.056993
0.085950
0.070629
0.078361
0.107506
0.041543
0.004167
0.044980
0.100968
-0.016804
0.060076
0.085031
0.138768
0.043535
0.034404
-0.019678
0.026811
0.089616
0.050761
0.058482
0.042587
-0.027352
-0.013488
0.094168
0.046089
0.043378
-0.004438
0.084268
0.022857
0.055569
0.015241
0.003057
0.010191
0.027681
0.053579
0.024784
-0.021436
-0.066389
0.016502
0.006930
0.048506
-0.023908
0.073948
0.024285
0.013075
-0.014871
0.064826
0.072023
0.148489
0.014238
0.013357
0.030392
-0.037443
-0.008872
-0.002631
0.051778
0.061023
0.020726
0.034583
0.066953
-0.037040
0.036567
0.030821
0.122255
0.038902
-0.030296
0.038060
-0.004258
0.001986
0.042436
0.024006
0.049492
0.025781
0.072561
0.049555
0.012765
0.067074
-0.004075
0.041476
0.088648
0.044899
0.030994
0.069154
0.115844
0.034101
0.115541
0.090698
0.130194
0.167596
0.133238
0.066318
0.087123
0.177415
0.079722
0.190752
0.213402
0.139661
0.202815
0.194575
0.083037
0.132220
0.190096
0.023640
0.087647
0.151929
0.044544
0.074039
-0.041956
0.041157
0.101824
-0.033450
-0.052173
0.006098
-0.001975
0.015204
0.062253
-0.023876
0.052673
0.051531
-0.063104
0.006436
-0.039015
-0.012980
0.003203
-0.008065
-0.033509
-0.000465
-0.084689
-0.002260
-0.130149
-0.051709
-0.044174
-0.001659
-0.030838
-0.008173
0.037819
-0.021820
-0.051147
0.002759
0.003128
-0.132628
-0.086288
-0.110042
-0.124286
-0.170384
0.038193
0.316028
0.596302
0.951381
1.116259
1.361476
1.356611
1.071236
0.754552
0.533553
0.178565
-0.068927
-0.264889
-0.319660
-0.429623
-0.287955
-0.326284
-0.149873
-0.112855
0.009986
-0.117668
-0.094967
-0.129210
-0.012746
-0.050555
-0.019406
-0.055997
-0.022608
-0.059555
-0.036034
-0.063194
-0.058893
0.014777
-0.043329
-0.019379
-0.021223
-0.018174
-0.046625
-0.041712
-0.023447
-0.085500
0.000280
-0.011661
-0.006718
0.019286
0.003540
-0.033725
0.035502
-0.000875
0.078252
0.080108
0.093484
0.119378
0.087248
0.061204
0.075373
0.175623
0.212803
0.256355
0.195789
0.221151
0.209719
0.253538
0.308493
0.314090
0.327315
0.398390
0.352694
0.379331
0.396602
0.333045
0.403526
0.451248
0.460578
0.424657
0.382932
0.381525
0.420329
0.431369
0.378583
0.343151
0.404963
0.355916
0.377841
0.243754
0.281322
0.313954
0.251829
0.237306
0.255262
0.285133
0.116292
0.166466
0.130748
0.189927
0.136418
0.118757
0.091957
0.044755
0.066941
0.015972
0.046302
0.045753
0.006216
0.011947
-0.040474
0.011591
0.004385
-0.051834
-0.028200
-0.023130
-0.011142
-0.027968
-0.069067
-0.006500
-0.077041
-0.013076
-0.025774
-0.101004
-0.077321
-0.122396
-0.063418
0.003881
-0.075287
-0.092285
-0.078309
-0.045151
-0.149349
-0.122546
-0.052101
-0.119167
-0.047554
-0.048431
-0.041738
-0.090614
-0.043523
-0.061022
-0.032611
-0.089615
-0.108868
-0.083541
-0.012154
-0.042470
-0.127741
0.009795
-0.067620
-0.096573
-0.219208
-0.121594
-0.138533
-0.031541
-0.117959
-0.057866
-0.131684
-0.064476
-0.079823
-0.043594
-0.214083
-0.087123
-0.136196
-0.030801
-0.105162
-0.120936
-0.091257
-0.065455
-0.013396
-0.067193
-0.024679
-0.033231
-0.000701
-0.087277
-0.061831
-0.018040
-0.043633
-0.042728
-0.016860
-0.030434
-0.158775
-0.033489
0.008119
-0.054340
-0.005590
-0.031403
-0.043861
-0.076938
-0.059685
-0.071692
-0.036681
-0.021946
-0.083762
-0.075282
-0.126462
-0.052357
-0.057639
-0.040580
-0.034640
-0.019724
-0.027329
-0.056684
-0.049149
-0.064383
-0.045442
-0.025471
-0.057428
-0.107654
-0.098201
-0.033759
-0.035937
-0.033243
-0.073410
-0.041635
-0.056119
-0.030615
0.025336
0.001862
0.035194
-0.016204
0.100249
0.110031
0.036339
0.049846
0.040898
0.068801
0.114185
0.125810
0.111893
0.155611
0.084266
0.056392
0.089472
0.139997
0.130292
0.083736
0.056176
0.117815
0.123819
0.057793
0.117901
0.078674
0.062108
-0.025196
-0.049446
0.036765
0.000266
0.033015
-0.043610
0.042113
-0.099152
-0.066468
0.030907
0.012963
-0.116641
-0.029575
0.005756
-0.014372
-0.139867
0.030962
-0.012851
-0.031969
-0.021665
-0.060672
-0.060924
-0.095823
-0.003568
-0.028825
-0.019089
0.033087
-0.050583
-0.017082
-0.028259
0.064266
0.048737
-0.001009
-0.079943
-0.129681
-0.131919
-0.074294
-0.076293
0.091864
0.336095
0.640698
1.056498
1.184392
1.355350
1.243434
1.068716
0.789039
0.505884
0.240921
-0.045181
-0.239713
-0.413439
-0.401939
-0.317184
-0.240290
-0.158078
-0.037626
0.025986
-0.001210
0.009645
-0.006733
-0.044820
0.014331
0.005349
-0.069171
0.002966
0.001103
0.045355
0.006619
-0.000362
0.056630
-0.014187
0.022502
-0.103278
-0.054048
0.005928
0.010142
-0.012150
0.065137
0.010474
0.151907
-0.025714
0.035754
0.033963
0.129220
0.090844
0.125015
0.110835
0.161476
0.149800
0.151409
0.174740
0.217569
0.214917
0.207519
0.237058
0.196369
0.339208
0.270335
0.264341
0.334157
0.405477
0.383280
0.423306
0.355276
0.398701
0.447649
0.462677
0.483962
0.393086
0.517385
0.522029
0.458939
0.572823
0.472877
0.455817
0.516551
0.483213
0.471231
0.429148
0.442163
0.440995
0.443510
0.411129
0.333426
0.349690
0.338691
0.293070
0.340078
0.331338
0.275554
0.257360
0.221809
0.247009
0.132327
0.160680
0.118806
0.107288
0.173265
0.128345
0.066268
0.083084
0.114571
0.016038
0.055873
0.060324
0.068188
0.002950
0.034673
0.027523
0.035335
0.038093
0.059119
0.128877
0.083661
0.009095
0.042927
-0.003955
-0.018993
-0.004313
0.043212
0.081796
0.021648
-0.000529
0.040938
0.021470
0.021619
0.026513
0.038281
-0.047737
-0.009286
0.003612
-0.070099
0.073478
0.062828
0.039108
0.043171
0.012191
0.081726
0.032428
0.027508
0.002467
0.076819
0.023093
0.065393
0.018970
0.126518
0.057549
0.068391
0.042562
-0.034342
0.114482
-0.001846
-0.002101
0.099403
0.014024
0.005798
0.068439
0.108862
-0.087800
0.011383
0.016067
0.050601
-0.029118
0.086490
0.059945
0.073256
-0.007848
0.053112
0.005829
0.074112
-0.048721
-0.022875
0.031590
0.004837
0.029740
0.013939
0.034115
0.081728
0.012846
0.047657
0.034712
0.083410
0.037177
0.052174
-0.026162
0.076750
0.052797
0.012531
0.090496
0.035415
-0.039244
-0.001961
0.051027
0.011507
0.094412
0.032254
-0.001092
0.020532
0.062623
0.070543
0.066410
0.068983
0.034715
0.093028
0.068807
0.100452
0.189691
0.040646
0.057943
0.131246
0.110106
0.170267
0.065826
0.076854
0.128508
0.183757
0.178653
0.206040
0.197512
0.191243
0.160311
0.194373
0.265123
0.222795
0.242068
0.213104
0.217717
0.210389
0.157503
0.212424
0.205456
0.168106
0.188640
0.134626
0.137290
0.147280
0.068050
0.067488
0.071807
0.188680
0.122689
0.054911
0.089866
0.116357
0.009452
0.090823
0.079946
0.043240
0.062099
0.012465
0.047928
0.010703
0.061967
0.041358
-0.041378
0.002431
0.047996
0.049570
-0.003545
0.035574
-0.021787
0.033764
-0.035468
0.059576
0.038977
-0.039639
0.069260
-0.035982
0.010798
0.009078
0.006479
-0.050780
-0.045471
-0.069206
0.054361
0.267204
0.490739
0.785264
1.070966
1.219568
1.357936
1.298687
1.089028
0.737087
0.499766
0.189694
-0.135140
-0.181297
-0.266778
-0.281511
-0.281015
-0.170579
-0.019982
-0.051381
0.031530
0.070133
-0.007558
0.070993
0.025599
-0.000304
-0.040362
0.038154
-0.022335
0.111540
0.070403
-0.014450
0.046745
-0.024213
0.110961
0.045589
0.073496
0.001300
0.010908
0.036286
0.089215
0.069228
0.118090
0.032902
0.121944
0.111415
0.143002
0.104691
0.144413
0.086127
0.089138
0.245877
0.192830
0.154180
0.238085
0.182590
0.197895
0.267263
0.262675
0.295718
0.287822
0.296695
0.369100
0.409258
0.415174
0.358097
0.343464
0.429713
0.410771
0.422721
0.346257
0.454111
0.491315
0.456840
0.427507
0.536769
0.479031
0.474038
0.538204
0.447895
0.408827
0.435580
0.458885
0.429841
0.390149
0.405652
0.385552
0.389833
0.276860
0.296351
0.299629
0.280224
0.285820
0.199028
0.202469
0.210603
0.164952
0.230649
0.121675
0.146507
0.069486
0.174011
0.159178
0.040786
0.153298
0.067550
0.010046
0.006781
0.021611
-0.010936
0.031305
-0.040315
0.026746
0.027074
0.022014
-0.061048
0.001385
0.022295
-0.021226
0.012303
-0.025901
0.058073
-0.019371
-0.033412
-0.012336
-0.048761
-0.019173
-0.073225
-0.045722
-0.040513
-0.101701
0.082794
-0.077291
-0.059513
-0.090223
0.017541
-0.103302
-0.008472
-0.103673
-0.011721
-0.034363
-0.045186
-0.039105
-0.119111
-0.010223
-0.077546
-0.085706
0.022868
-0.074620
-0.032672
0.023067
-0.007025
-0.064470
-0.035590
-0.031767
-0.092091
-0.019629
-0.012605
0.035305
0.015006
-0.009623
-0.070980
-0.048454
-0.077670
-0.020699
-0.036959
-0.056268
-0.050541
-0.009317
-0.025696
-0.047474
-0.033879
-0.026410
-0.078485
0.020750
-0.065163
-0.078432
-0.055277
-0.036555
0.017732
-0.012979
-0.083683
-0.117042
-0.056185
-0.128801
-0.121600
-0.051731
-0.166630
-0.117385
0.028981
-0.096167
-0.044678
-0.063495
-0.106318
-0.070455
-0.146672
0.037229
-0.017891
-0.113962
-0.110389
-0.023201
-0.005204
0.048170
-0.009190
-0.034034
-0.156982
-0.043515
-0.061396
-0.090102
0.006138
-0.001225
-0.093886
-0.068084
-0.038739
0.019623
-0.036124
-0.051446
0.022403
0.066224
-0.013578
0.037054
0.060699
0.101599
0.157154
0.105533
0.057447
0.085657
0.049964
0.064946
0.092238
0.072204
0.142902
0.092346
0.056419
0.097593
0.032714
0.017898
0.094229
0.028565
0.099021
-0.015070
-0.001741
-0.034911
-0.110441
0.004556
-0.075924
-0.028462
-0.065652
-0.123782
-0.111029
-0.073799
-0.034060
-0.027718
-0.103523
0.018600
-0.044422
-0.154990
-0.189576
-0.087414
-0.119855
-0.066857
-0.183460
-0.149506
-0.113468
-0.096624
-0.211608
-0.071451
-0.050626
-0.078657
-0.093421
-0.114704
0.011543
-0.155140
-0.161964
-0.087935
-0.218533
-0.148559
-0.138137
-0.119135
0.106124
0.433696
0.785958
1.080407
1.267031
1.170997
1.078856
0.856931
0.596247
0.218084
-0.000929
-0.188579
-0.360352
-0.464242
-0.453288
-0.296049
-0.303409
-0.131032
-0.112768
-0.100887
-0.089034
-0.139969
-0.110542
-0.088544
-0.106988
-0.118288
-0.041140
-0.100226
-0.055803
-0.149498
-0.098915
-0.016363
-0.069699
-0.077946
-0.067394
-0.093480
-0.132949
-0.050836
-0.083186
-0.074411
-0.022742
-0.070262
-0.063394
-0.012903
-0.064926
0.054644
-0.053615
0.022966
0.007470
-0.018674
-0.046790
0.045535
0.052990
0.098676
0.107308
0.186408
0.247413
0.111543
0.199718
0.201916
0.222999
0.233339
0.279850
0.294459
0.295814
0.305320
0.340294
0.363416
0.292260
0.413865
0.336709
0.352921
0.432779
0.329263
0.459170
0.322403
0.362736
0.404634
0.333829
0.364591
0.357399
0.367760
0.360221
0.271034
0.305887
0.280089
0.316911
0.307492
0.205740
0.259187
0.076669
0.220039
0.148383
0.111025
0.100003
0.172076
0.058151
0.045266
0.053926
0.002366
0.035828
0.086169
0.017897
-0.027896
-0.056741
-0.078449
-0.022558
0.014566
-0.048003
-0.042154
-0.173745
-0.099992
-0.015932
-0.127491
-0.075069
-0.068374
-0.076060
-0.082861
-0.061047
-0.096832
-0.091922
-0.025188
-0.161762
-0.054807
-0.108772
-0.073583
-0.081086
-0.067283
-0.030037
-0.135985
-0.090281
-0.070665
-0.024504
-0.044074
-0.047954
0.024323
-0.049786
-0.191562
-0.076954
-0.109068
-0.073703
-0.071682
-0.131104
-0.085875
-0.020228
-0.050126
-0.111277
-0.091502
-0.084147
-0.047436
-0.077389
-0.057376
-0.104904
-0.039293
-0.108073
-0.050988
-0.130045
-0.062784
0.001065
-0.046955
-0.018281
-0.025730
-0.035641
0.024108
-0.088973
-0.127437
-0.029720
-0.032592
-0.032639
0.019014
-0.007114
-0.096813
-0.057215
-0.025865
-0.001128
-0.057642
-0.044111
-0.076084
-0.108734
-0.074752
0.007547
-0.045839
0.030085
-0.011158
-0.040265
0.014285
0.039665
-0.018772
-0.005546
-0.073199
-0.004968
-0.012736
0.068965
0.012621
-0.039077
-0.035782
0.057825
-0.049561
-0.028070
-0.046617
-0.065575
-0.057896
-0.063181
0.049900
-0.004127
0.022672
-0.051554
-0.013223
0.009023
0.058313
0.068675
0.039331
-0.016311
0.076705
0.045169
0.014247
0.003034
0.090078
0.046787
0.052807
0.066000
0.151555
0.194846
0.162292
0.148146
0.111082
0.153421
0.103278
0.106662
0.119928
0.159832
0.120605
0.220062
0.102419
0.125107
0.136517
0.077604
0.090356
0.131730
0.084003
0.065435
0.083064
0.044814
0.101676
0.070683
0.060249
0.054227
0.031126
0.004693
-0.072468
0.059064
0.009096
-0.003245
0.057940
0.051830
0.003927
-0.033779
0.115422
-0.008040
-0.026626
-0.002142
0.069354
0.024897
0.062219
0.026699
0.018968
-0.007325
-0.011794
-0.029269
0.029651
-0.029917
-0.057522
-0.003127
-0.103825
-0.078003
-0.058601
-0.023312
0.057224
0.296792
0.641258
0.935191
1.127420
1.345621
1.339211
1.215815
0.931370
0.602451
0.374374
0.123009
-0.097452
-0.243175
-0.261816
-0.229868
-0.211651
-0.100890
-0.022123
-0.003117
0.067407
0.086486
0.148822
0.012897
0.038678
0.022158
0.007947
0.034968
0.134440
0.071192
0.044855
0.028181
0.072265
0.033618
0.028667
-0.032577
0.053271
0.057578
0.074274
0.037343
0.056551
0.107962
0.099823
0.114673
0.163190
0.079958
0.160007
0.116594
0.176665
0.148599
0.087323
0.222157
0.199100
0.124961
0.224215
0.231215
0.289828
0.260752
0.313174
0.287583
0.314378
0.298246
0.374477
0.458851
0.428120
0.450235
0.482663
0.467482
0.513126
0.438400
0.525545
0.556682
0.516300
0.572890
0.532242
0.565104
0.525084
0.492322
0.575090
0.539728
0.538485
0.467337
0.484484
0.477977
0.470180
0.447609
0.340331
0.417096
0.480342
0.372552
0.351370
0.342804
0.289195
0.346031
0.255483
0.304773
0.268628
0.272209
0.262919
0.170721
0.164075
0.160708
0.128798
0.159098
0.141628
0.147203
0.115453
0.022672
0.059908
0.096457
0.094231
0.049729
0.029023
0.067459
0.078573
0.069408
0.083980
-0.030661
0.009280
0.027282
0.000724
0.064588
0.126989
0.151791
0.122729
0.044556
0.004130
0.013512
0.040166
0.035484
0.065205
0.030309
0.039781
0.080742
0.045222
0.068000
0.069762
0.072548
0.059737
0.010295
0.101275
0.147202
0.074261
0.045061
0.068201
0.032064
0.100523
0.098829
0.016307
0.159881
0.116356
0.057248
0.085198
0.038632
-0.029828
0.037396
0.007236
0.098736
0.038357
0.029945
0.034150
0.029444
0.113635
0.073854
0.043697
0.015276
0.049494
0.067424
0.145155
0.117129
0.051091
0.110029
