-0.008187
0.006870
-0.033535
-0.012153
-0.032367
0.004978
0.023859
0.051919
0.027491
0.097049
0.107638
-0.054977
-0.030018
0.009348
0.005042
-0.006367
0.065078
-0.060529
-0.042274
0.000234
0.003331
-0.095578
0.009350
0.059076
0.074315
-0.004843
0.020442
-0.037086
0.040548
0.052481
0.016240
0.033131
-0.007266
0.081565
0.074482
0.078033
0.033300
-0.034856
0.091510
0.109951
0.107211
0.177721
0.204767
0.163221
0.078336
0.138978
0.181386
0.130303
0.155181
0.085484
0.180477
0.204662
0.229320
0.269265
0.151203
0.109691
0.262528
0.227872
0.199897
0.172739
0.148221
0.157946
0.140455
0.108224
0.096775
0.099625
0.121404
0.091281
0.088113
0.151184
0.154207
0.093648
0.111527
0.052787
0.078721
0.052431
0.005231
0.013077
-0.045051
0.027647
0.042129
-0.024281
0.076573
-0.016387
0.051010
0.090858
-0.012809
0.057349
0.032836
0.117322
0.106801
0.105811
0.050733
0.062435
0.108508
0.096907
-0.001413
-0.000791
-0.005455
0.051842
0.089933
0.400058
0.725467
1.052156
1.287603
1.449497
1.417367
1.320725
1.016142
0.644673
0.347290
-0.095806
-0.209268
-0.210830
-0.255885
-0.180080
-0.137647
-0.049009
0.016147
0.102578
0.005022
0.043605
0.071443
0.024391
0.077275
0.047544
0.107909
0.065611
-0.004485
0.009900
0.137536
0.035355
0.024618
0.126442
0.035299
0.060892
0.117679
0.165176
0.123943
0.139885
0.168225
0.135239
0.234125
0.147240
0.202606
0.140190
0.258352
0.201479
0.249826
0.281276
0.236352
0.281895
0.309046
0.300434
0.398798
0.372445
0.365584
0.415153
0.447925
0.376741
0.411550
0.448355
0.514392
0.506614
0.548389
0.513977
0.512413
0.548074
0.598186
0.544689
0.572375
0.589934
0.546138
0.516828
0.589947
0.587743
0.522657
0.571095
0.488230
0.446065
0.546388
0.521207
0.436727
0.427923
0.478085
0.385485
0.440679
0.376826
0.394272
0.280145
0.331311
0.362208
0.287414
0.279193
0.263896
0.188776
0.146149
0.185250
0.231109
0.143178
0.225491
0.131367
0.127095
0.081003
0.042524
0.121645
0.078656
0.149473
0.126469
0.097405
0.109972
0.056320
0.049906
0.049525
0.087384
0.062451
0.083066
0.047133
0.118174
-0.015988
0.096694
0.114617
0.108719
0.174470
0.181100
0.057627
0.111067
0.091500
0.079118
-0.025902
0.077716
0.070901
0.126579
0.072148
0.058531
0.122400
0.092771
0.125034
0.045393
0.081811
-0.002443
0.077342
0.123892
0.073054
0.164674
0.061968
0.099618
0.094422
0.017809
0.072009
0.092656
0.009185
0.097673
0.026237
0.058668
0.124752
0.038948
0.089615
0.066689
0.133310
-0.017418
0.103761
0.077772
0.080474
0.019901
0.042026
0.029139
0.065292
0.048905
0.068221
0.007273
0.044526
0.053084
0.092598
0.079354
0.086890
0.054755
0.072129
-0.006974
0.071147
0.044150
0.106836
-0.007376
-0.008812
0.129913
0.111904
0.057540
0.068852
0.109624
0.164242
0.141823
0.041083
0.091675
0.043683
0.065996
0.071262
0.113544
0.138045
0.014576
0.091508
0.084537
0.121156
0.168246
0.152322
0.133553
0.186944
0.081205
0.198664
0.236374
0.208378
0.193679
0.222503
0.203754
0.228643
0.213716
0.195972
0.205055
0.203253
0.195473
0.251497
0.227250
0.158794
0.190884
0.259847
0.197499
0.148000
0.130365
0.103711
0.209940
0.094321
0.063401
0.127195
0.068376
0.034438
0.135007
0.047165
0.053094
0.061337
0.066533
0.069264
0.024683
0.069796
0.066504
0.057490
0.082841
-0.002397
0.070079
0.040621
0.034714
0.059290
0.017635
0.042815
0.002200
0.063273
0.062845
0.037630
0.043540
-0.041664
0.013727
-0.025826
-0.060088
-0.056882
-0.007168
0.111846
0.295708
0.563759
0.887388
1.240695
1.451914
1.438109
1.243397
0.948904
0.650937
0.376706
0.048194
-0.116973
-0.241011
-0.331556
-0.198936
-0.175092
-0.120785
-0.112173
0.014222
-0.021996
0.102428
0.031114
-0.030669
-0.006986
0.089720
0.029295
-0.002265
0.053718
-0.043931
0.045886
0.039573
0.015942
-0.039132
-0.020260
0.017223
0.038414
0.044044
0.057326
-0.014617
0.094052
0.118565
0.095776
0.091529
0.081004
0.110708
0.147441
0.069954
0.131463
0.121406
0.159036
0.195990
0.268929
0.212499
0.314838
0.269173
0.294270
0.347732
0.305969
0.362394
0.413772
0.371997
0.460567
0.429456
0.400622
0.446975
0.473544
0.465187
0.561149
0.394162
0.516374
0.530540
0.517425
0.517622
0.542092
0.506195
0.494406
0.461205
0.392442
0.443897
0.342877
0.451922
0.367377
0.363027
0.328692
0.322548
0.317284
0.217334
0.221445
0.282721
0.188773
0.164698
0.129183
0.083965
0.107627
0.102238
0.056831
0.059205
0.022867
0.011815
0.066356
0.036542
0.050882
0.032117
0.025650
0.013235
-0.042968
-0.023041
0.028601
0.042586
-0.006555
-0.140873
-0.008055
0.027132
-0.036899
0.023633
-0.030145
-0.047675
0.006831
-0.075073
-0.038420
-0.072484
-0.051582
-0.105583
0.010177
0.031580
-0.003664
-0.056816
-0.057451
-0.054918
-0.003863
-0.041809
-0.084784
-0.090497
0.004722
-0.075996
0.008634
-0.052190
-0.047864
-0.117935
-0.012966
-0.067554
-0.024334
-0.024928
-0.090943
-0.086331
-0.023372
-0.079497
-0.099434
-0.035133
0.009579
-0.009006
-0.049835
-0.038609
-0.038290
-0.021417
-0.085329
-0.112724
-0.085409
-0.070494
-0.074485
-0.041625
-0.017322
-0.039673
-0.055059
-0.085672
0.005744
-0.046154
-0.077129
-0.033762
-0.069269
-0.015393
-0.030078
-0.088393
0.010931
-0.041447
-0.055211
-0.051270
-0.067526
-0.011645
-0.062104
-0.031317
-0.076514
-0.011706
-0.031135
0.022510
-0.064292
-0.012279
-0.037192
-0.129532
-0.167648
-0.029697
-0.008906
-0.041713
-0.022666
0.024187
0.049409
0.033400
0.019232
-0.003223
-0.059102
-0.019629
0.032573
0.048256
-0.007253
0.009109
0.116289
0.084375
-0.020984
0.070950
0.110249
0.102339
0.064629
0.054121
0.117048
0.102340
0.102706
0.130477
0.170981
0.179747
0.092686
0.132371
0.070299
0.103548
0.046314
0.072837
0.161961
0.011479
-0.015614
0.046670
-0.043001
-0.047123
-0.018082
-0.030055
-0.024627
0.049526
-0.023228
0.061385
-0.014599
-0.113641
0.012228
0.024718
0.001469
0.029089
-0.083162
-0.102383
-0.028760
-0.021686
-0.061012
-0.088612
-0.113905
-0.002502
-0.020762
-0.049534
0.027466
-0.070453
-0.043818
-0.081997
-0.096849
-0.072427
-0.110808
-0.064893
-0.171483
-0.029874
0.223024
0.466373
0.785807
1.119022
1.306572
1.359736
1.271880
0.987123
0.578777
0.316108
0.010725
-0.274627
-0.351823
-0.368295
-0.356151
-0.213848
-0.153245
-0.103392
-0.000584
-0.039461
0.012843
-0.028839
0.045058
0.037646
-0.017663
0.037166
-0.067023
0.031562
-0.021631
0.002382
-0.048238
-0.048907
0.043696
0.126992
0.026941
-0.028893
0.028768
0.057808
0.094502
0.030021
0.005574
0.077113
0.142909
0.088614
0.034184
0.060666
0.081218
0.005735
0.130866
0.146634
0.215362
0.165013
0.229694
0.168736
0.244053
0.235931
0.253176
0.279716
0.326297
0.261096
0.396484
0.367616
0.443012
0.493020
0.420861
0.504427
0.446504
0.551675
0.529922
0.455852
0.506871
0.452217
0.500410
0.534268
0.539175
0.443197
0.446850
0.452442
0.441542
0.456791
0.456697
0.401064
0.350306
0.418153
0.322330
0.267916
0.315614
0.256720
0.209041
0.253422
0.227155
0.264487
0.127395
0.164739
0.152849
0.140676
0.173602
0.082842
0.035542
0.145047
0.094832
0.065753
0.061163
0.006134
0.018383
0.051137
0.127309
0.052914
0.071264
0.003318
0.028950
0.088476
-0.005706
0.034517
0.095081
-0.012875
0.008880
-0.011762
-0.011563
-0.026647
0.103898
0.003040
0.009806
0.013142
-0.001596
-0.042262
-0.023515
0.056932
0.082213
0.067426
-0.017052
-0.003926
0.034604
0.077775
0.026636
0.017614
0.050419
0.013892
0.105742
0.034298
-0.004776
-0.015551
0.130638
0.028148
0.050328
0.010784
0.094121
0.028452
-0.032685
0.051703
0.061736
-0.000699
-0.006245
-0.058510
0.012276
0.050915
0.023974
-0.000167
-0.012927
0.080885
0.055966
0.084783
0.014836
0.009396
-0.016059
0.036498
0.057498
0.013221
0.045867
0.028849
0.077411
0.055045
-0.005680
0.002907
0.041080
0.066054
-0.051371
0.172426
0.034371
0.080812
0.107433
-0.002439
0.120639
0.093122
0.083775
0.058516
0.080257
0.037089
0.052583
0.071253
0.064517
0.060334
0.046350
0.144104
0.080549
0.024929
0.091937
0.150935
0.160513
0.063374
0.197653
0.216121
0.164812
0.186633
0.141281
0.156582
0.145423
0.170787
0.096417
0.208485
0.139189
0.270001
0.221609
0.256150
0.229395
0.289998
0.231363
0.228672
0.228532
0.242668
0.307031
0.140304
0.172269
0.202384
0.175711
0.231421
0.153624
0.135146
0.161342
0.114694
0.139278
0.048752
0.051963
0.078046
0.136995
0.093236
0.111620
0.087690
0.029778
0.034567
0.068062
0.100515
0.089310
0.119786
0.022957
0.029210
0.034790
0.075192
0.076612
0.094428
0.065182
0.064643
0.045230
0.076210
0.106575
0.208309
0.153729
0.022881
0.122086
0.091246
-0.024536
0.045889
0.191619
0.270474
0.531125
0.905214
1.232779
1.402244
1.500000
1.327666
1.042701
0.797926
0.501884
0.213661
-0.037372
-0.209512
-0.224016
-0.223862
-0.125571
-0.071932
-0.024297
0.098025
0.041862
0.033950
0.033975
0.011182
0.085714
0.030289
0.065434
0.138157
0.092051
0.102110
0.040951
0.069504
0.111723
0.097434
0.110632
0.086974
0.176474
0.129279
0.147538
0.067408
0.148671
0.244250
0.122778
0.223834
0.167768
0.161253
0.218414
0.204151
0.216457
0.188401
0.199636
0.328634
0.294472
0.253939
0.392728
0.381928
0.339520
0.339631
0.402588
0.418443
0.372667
0.497287
0.498723
0.494457
0.617505
0.509586
0.547879
0.611337
0.591623
0.656531
0.586537
0.624596
0.567783
0.562774
0.548098
0.580671
0.525911
0.540390
0.583357
0.428140
0.515431
0.491041
0.424534
0.399973
0.467327
0.397818
0.400008
0.315402
0.360241
0.357793
0.289777
0.287881
0.258458
0.279907
0.230559
0.195835
0.280696
0.250458
0.197466
0.183572
0.143586
0.178447
0.139653
0.136916
0.132177
0.083253
0.140991
0.084205
0.141733
0.106755
0.068285
0.106432
0.176524
0.092287
0.082403
0.132670
0.051037
0.083357
0.024250
0.033070
0.099727
0.144143
0.147897
0.069785
0.088756
0.077440
0.132002
0.147977
0.073360
0.084127
0.060962
0.077683
0.072560
0.056952
0.084967
0.085775
0.043953
0.105874
0.018880
0.038101
0.076802
0.027653
0.030537
0.088549
0.103014
0.007180
0.055930
-0.032386
0.125869
0.050873
0.165105
0.098660
0.025014
0.047387
0.066016
0.019362
0.095851
-0.023512
0.032181
0.088553
0.071553
0.125972
0.086258
0.055742
0.004780
0.085920
0.114249
0.062965
0.009031
0.031618
0.051806
0.023151
-0.070717
-0.031068
0.094356
0.082267
0.103516
0.084571
0.000616
0.026477
0.069245
0.082721
0.114319
0.089879
0.044631
0.005970
0.032108
0.051254
0.033343
0.109404
-0.018825
0.049212
0.074246
0.074408
0.022683
0.115871
0.132315
0.081271
-0.004190
0.133806
0.175008
0.048658
0.073994
0.160392
0.085255
0.088178
0.137490
0.091836
0.175157
0.152503
0.207891
0.135701
0.182584
0.198320
0.214663
0.218295
0.178323
0.215479
0.206652
0.160666
0.176082
0.166775
0.144521
0.142864
0.153659
0.128936
0.179485
0.173255
0.099648
0.085041
0.081319
0.064767
0.091876
0.011038
-0.011198
-0.030801
-0.026508
0.072332
0.060239
-0.006706
0.010034
-0.002675
0.014665
-0.034660
-0.013431
0.029413
-0.026637
0.035127
0.071506
0.028917
-0.007034
0.003706
-0.042508
0.009771
0.108767
-0.054868
0.048680
0.034669
-0.065107
-0.015140
-0.090317
-0.088901
-0.057714
0.022360
0.214465
0.367921
0.804106
1.069747
1.221378
1.306138
1.231761
1.068872
0.741614
0.438781
0.150426
-0.113625
-0.288013
-0.360910
-0.341803
-0.307402
-0.238183
-0.048951
-0.062189
0.047882
-0.062100
-0.093203
-0.007652
0.088956
0.053944
0.000369
-0.033319
-0.034554
-0.001144
-0.002765
0.071944
0.075615
0.001405
0.023875
0.103198
-0.025732
0.048389
-0.022958
0.057807
0.001789
0.071671
0.087817
0.096122
0.133833
0.013698
0.117956
0.122655
0.110971
0.135999
0.147812
0.093992
0.193995
0.063638
0.151891
0.210081
0.298660
0.203533
0.382101
0.336496
0.354075
0.400529
0.304420
0.469447
0.375868
0.388874
0.369130
0.390501
0.367936
0.462751
0.443456
0.475275
0.444466
0.430250
0.420290
0.433705
0.408521
0.375364
0.451102
0.325432
0.378732
0.373735
0.320423
0.292224
0.295470
0.282988
0.183840
0.267070
0.296661
0.176257
0.177804
0.154407
0.139705
0.184998
0.126274
0.065625
0.096246
0.044914
0.071760
0.030827
0.030791
0.046154
-0.040022
0.015783
-0.076224
-0.002608
-0.021965
-0.104414
-0.031781
-0.119305
0.069519
-0.083649
-0.068964
-0.079542
-0.031554
-0.097164
-0.107049
-0.100403
-0.107732
-0.056015
-0.115411
-0.093477
-0.071887
-0.055611
-0.009084
0.030409
-0.015039
0.000387
-0.069363
-0.122327
-0.106965
-0.056152
-0.091919
-0.046321
-0.073088
-0.076864
-0.050026
-0.129718
-0.111655
-0.019669
-0.057989
-0.151133
-0.077463
-0.050473
-0.068805
-0.003038
-0.080056
-0.058612
-0.118678
-0.102682
-0.073445
-0.097617
-0.049374
-0.063087
-0.062672
-0.039943
-0.045046
-0.107708
-0.046037
-0.115662
-0.108269
-0.066501
-0.035560
-0.138029
-0.022873
-0.055166
-0.122468
-0.133350
-0.021340
-0.094262
-0.144078
-0.087778
-0.091785
-0.055375
-0.053701
-0.073005
-0.032249
-0.135821
-0.057414
-0.077965
-0.060425
-0.088238
-0.048414
-0.061812
-0.036668
-0.063507
-0.043825
-0.049168
-0.004588
-0.069985
-0.016870
-0.043058
-0.112989
-0.029894
-0.096643
-0.065292
-0.046136
-0.061209
-0.141199
0.024161
0.008500
0.005953
-0.076902
-0.018690
-0.043958
-0.064090
0.021983
-0.025602
0.046859
0.071222
0.104735
0.094836
0.069645
0.087153
0.123596
-0.037576
0.084415
0.125077
0.086404
0.077027
0.045009
0.144874
0.058485
0.096113
0.056836
0.039071
0.043426
-0.062093
0.011403
-0.033187
-0.011569
0.009150
-0.039777
0.000290
-0.008934
-0.071630
-0.049879
-0.095872
-0.065138
-0.087387
-0.067370
-0.049409
-0.090723
-0.089084
-0.094019
-0.054043
-0.111907
-0.000114
-0.081757
-0.116178
-0.152333
-0.059715
-0.111367
-0.139486
-0.013668
-0.094066
-0.061075
-0.035656
-0.100508
-0.036341
-0.117543
-0.109135
-0.113317
-0.075019
0.083825
0.312088
0.679665
0.952742
1.191928
1.310677
1.220202
1.013272
0.752751
0.405334
0.144871
-0.162874
-0.338220
-0.287740
-0.371267
-0.239534
-0.241930
-0.067948
-0.071957
-0.159278
-0.042344
-0.088135
-0.075065
-0.070258
-0.009597
-0.004516
-0.078792
-0.001940
-0.078563
-0.066587
-0.096096
-0.105952
-0.031478
-0.047184
-0.050829
-0.006144
0.002790
-0.071553
0.002850
-0.028763
-0.014687
0.105295
0.000173
0.031556
-0.037026
0.049033
0.003524
0.151850
0.098439
0.093252
0.132575
0.164916
0.202176
0.182834
0.224971
0.262225
0.290367
0.335772
0.344150
0.322054
0.298522
0.355033
0.427959
0.403212
0.366699
0.452795
0.424395
0.511271
0.437236
0.412608
0.487509
0.455900
0.505287
0.426881
0.435422
0.477410
0.485871
0.421372
0.342691
0.342938
0.332316
0.391932
0.362201
0.304303
0.289821
0.305356
0.243889
0.118670
0.260503
0.243340
0.199898
0.148521
0.169519
0.208076
0.202158
0.155879
0.133137
0.057304
0.030853
0.071656
-0.021069
0.021453
0.027583
0.036358
0.075199
0.043336
0.055804
0.011846
0.029631
0.029691
-0.040966
-0.015962
0.004726
0.012781
-0.033631
-0.029052
-0.026077
0.011397
0.050709
-0.043963
-0.036856
0.014981
-0.004449
-0.027463
-0.045917
-0.096850
-0.014513
0.071142
0.020410
0.059273
0.019048
0.108921
0.041046
-0.031149
0.025044
-0.007503
-0.053517
0.029831
0.014576
0.023853
0.008799
0.047856
-0.015883
0.031715
-0.034235
-0.018235
0.064709
-0.034579
-0.011414
0.031864
-0.007604
0.000054
0.004187
0.033373
0.041245
0.018872
0.004822
-0.004807
0.090178
0.111715
0.023216
0.002108
-0.012179
0.116739
0.043587
-0.022372
0.062064
0.014090
0.030287
0.040409
0.050296
-0.001444
0.043060
0.024407
-0.066094
0.006878
0.034958
0.013070
0.081827
-0.012693
0.008678
-0.012387
0.007512
0.033242
0.066169
0.008239
-0.013847
0.001410
0.064725
0.039157
0.067028
0.031185
0.025361
0.046880
0.089971
0.029183
0.134666
0.050348
0.003985
-0.037102
0.104061
0.010730
0.081340
0.155169
0.109839
0.161626
0.111124
0.159489
0.232897
0.224284
0.261440
0.187717
0.178529
0.222331
0.147275
0.225222
0.214153
0.259978
0.296106
0.215870
0.165890
0.204137
0.171958
0.135121
0.109365
0.170258
0.163913
0.076620
0.100522
0.156815
0.132678
-0.016817
0.084071
0.123613
0.116939
0.098375
0.088355
0.065561
0.154022
0.078951
0.037240
0.057224
0.153344
0.049691
0.049766
0.092847
0.081632
-0.008932
0.060133
-0.007610
0.058572
0.048593
0.013383
-0.013986
0.093850
0.035851
0.020765
0.091428
0.023725
-0.105847
0.073383
-0.031822
-0.011592
0.137767
0.319096
0.653893
0.989778
1.255329
1.384876
1.421447
1.209777
0.822009
0.669818
0.208415
0.049295
-0.177500
-0.215953
-0.249518
-0.148430
-0.210370
-0.091629
0.032687
-0.003342
0.100470
0.048692
-0.060458
0.079854
0.060471
0.046267
0.038034
0.116679
0.115137
0.089196
0.084027
0.008102
0.006985
-0.010377
0.057413
0.072577
0.051762
0.103867
0.094086
-0.006227
0.064903
0.107967
0.134532
0.169071
0.099401
0.099927
0.215216
0.177438
0.140815
0.118525
0.228498
0.191922
0.261663
0.286514
0.321172
0.316342
0.277854
0.328898
0.347758
0.376717
0.365602
0.512420
0.553966
0.447050
0.529620
0.464857
0.531499
0.508347
0.555941
0.502691
0.474926
0.480066
0.550424
0.440952
0.467239
0.536690
0.463330
0.479796
0.474014
0.497943
0.460470
0.397687
0.457567
0.420919
0.473944
0.410181
0.406119
0.347520
0.292885
0.239352
0.252835
0.240586
0.188314
0.168996
0.100336
0.203877
0.061942
0.196761
0.097222
0.232839
0.072937
0.129090
0.125554
0.033551
0.117171
0.052218
0.047914
0.048020
0.089261
0.051339
0.108341
0.057799
0.082812
0.053030
0.037416
-0.007382
0.078528
0.074757
-0.029003
0.019220
0.077859
0.046270
-0.024219
0.018508
0.006521
0.073290
0.064379
-0.005362
0.000718
-0.050949
0.009001
-0.043609
-0.010922
-0.001932
-0.012436
-0.046476
-0.015159
0.037758
0.023767
0.021011
0.017190
0.009781
-0.060165
0.003153
0.046207
0.082910
0.106377
0.072255
0.064817
0.059781
0.055842
0.004609
0.055093
0.026079
-0.031839
-0.012232
0.043272
-0.049901
0.016880
-0.014411
0.067096
0.000961
-0.004786
-0.124755
-0.054559
-0.016166
-0.064591
-0.006003
0.071507
0.026085
0.081368
0.019595
-0.092055
0.016096
-0.046717
-0.029845
0.034843
-0.039425
-0.097387
-0.032248
0.048080
0.021392
-0.006786
0.038639
-0.089980
-0.052544
0.057690
0.010110
0.007826
0.027161
0.031767
0.048375
-0.014074
0.009416
-0.027922
-0.009605
-0.011031
0.062626
-0.017556
0.027813
-0.049837
0.120705
0.084275
0.008268
0.052321
0.125608
0.076687
0.118278
0.085830
0.168753
0.145959
0.081759
0.172669
0.095142
0.129630
0.222427
0.163647
0.130727
0.179886
0.206630
0.161130
0.134654
0.151081
0.103583
0.048389
0.097646
0.043310
0.058840
0.130427
0.077312
-0.006200
0.022093
0.026915
-0.064538
0.073444
0.038021
-0.086825
-0.039428
-0.089864
-0.014703
0.032137
-0.031013
-0.132146
-0.075047
-0.011534
-0.047598
-0.016149
0.010392
-0.026095
-0.018557
-0.053655
-0.003664
-0.041055
-0.095902
-0.063943
-0.103799
-0.055467
-0.030795
-0.064369
0.012796
-0.187264
-0.021488
-0.085327
0.091075
0.227184
0.510964
0.873118
1.255581
1.372074
1.284514
1.133650
0.869974
0.525560
0.209355
0.015724
-0.283342
-0.365343
-0.405187
-0.419726
-0.256681
-0.133086
-0.071248
-0.132806
-0.005705
-0.119073
-0.155450
-0.130233
-0.109492
-0.033422
-0.015131
-0.167120
-0.006085
-0.069192
-0.056796
-0.107796
-0.067277
-0.088684
-0.080853
-0.000403
-0.042790
-0.115447
-0.036199
-0.030595
-0.042216
0.016511
0.024146
-0.028127
0.069355
0.038326
0.040769
0.040354
0.014761
0.079319
0.102822
0.145595
0.211708
0.152411
0.156529
0.099989
0.193587
0.265489
0.294853
0.257389
0.289255
0.332964
0.260911
0.326294
0.305245
0.405149
0.400276
0.413614
0.395745
0.374551
0.466724
0.433759
0.423330
0.395926
0.401211
0.373306
0.358580
0.354122
0.344605
0.332717
0.368647
0.271192
0.303688
0.292236
0.206318
0.252197
0.214124
0.172511
0.174094
0.188647
0.125368
0.104392
0.163718
0.070343
-0.034057
0.045349
0.034096
0.049947
-0.030245
0.035550
-0.055067
-0.011891
-0.062060
-0.051149
-0.023656
-0.042494
-0.065161
-0.100043
-0.060301
-0.014782
-0.020992
-0.131973
-0.104019
-0.002098
-0.188479
-0.038314
-0.065566
-0.094056
-0.168306
-0.086324
-0.101449
-0.068724
-0.107120
-0.058312
-0.145810
-0.080952
-0.087175
-0.087856
-0.092006
-0.109330
-0.111960
-0.107075
-0.063300
-0.016203
-0.094634
-0.103923
-0.095308
-0.086866
-0.025710
-0.156862
-0.097855
-0.140686
-0.092504
-0.163851
-0.083314
-0.087143
-0.139272
-0.057012
-0.086038
-0.207066
-0.127942
-0.210128
-0.142623
-0.165286
-0.154253
-0.107808
-0.100979
-0.128651
-0.144787
-0.069572
-0.066356
-0.080885
-0.094796
-0.158359
-0.048641
-0.038700
-0.135616
-0.117579
-0.029425
-0.069412
-0.064963
-0.049584
-0.122479
-0.051040
-0.138534
-0.179645
-0.131902
-0.035099
-0.073378
-0.179236
-0.121416
-0.093258
-0.149385
-0.041877
-0.137051
-0.072464
-0.100668
-0.079209
-0.071689
-0.047818
-0.045326
-0.060094
-0.084333
-0.069729
-0.103842
-0.083765
-0.130566
-0.106568
-0.107131
0.011476
-0.062429
-0.047243
0.043863
-0.078373
0.012687
0.056919
0.019369
-0.026811
0.059591
0.058823
0.006618
0.059135
0.082329
0.105812
0.043694
0.069356
0.086046
0.072482
0.061879
0.150694
0.017696
0.138821
-0.025012
0.074848
0.005471
-0.000689
-0.047117
-0.008840
0.045322
0.072960
0.009526
-0.039675
-0.021291
-0.029370
-0.023698
-0.017660
-0.057842
-0.037909
-0.038806
-0.152498
0.000273
-0.017251
-0.064009
-0.019546
-0.075276
-0.083746
-0.039044
-0.127468
-0.053595
-0.036872
-0.134827
-0.077924
-0.032488
-0.042181
-0.053913
-0.118966
-0.070496
-0.061971
-0.076236
-0.098941
-0.126619
-0.095306
-0.083665
-0.032933
0.203172
0.471926
0.831773
1.038682
1.381848
1.365892
1.141984
0.970777
0.616014
0.233174
-0.063823
-0.216665
-0.345169
-0.384669
-0.365389
-0.213564
-0.196649
-0.037509
-0.062475
-0.035851
-0.007605
-0.052476
-0.039373
-0.000049
-0.048146
-0.079979
-0.078512
-0.069481
-0.059026
0.038658
0.014970
-0.028938
-0.024258
-0.059616
-0.052605
0.047869
-0.041648
0.083768
0.052909
-0.014935
0.012601
0.074686
0.096673
-0.007089
0.053598
0.129475
0.149119
0.079136
0.122803
0.233758
0.215417
0.133043
0.143024
0.188670
0.304046
0.189849
0.344703
0.287395
0.346016
0.317149
0.360038
0.391510
0.412476
0.411423
0.422603
0.418435
0.399141
0.434044
0.447564
0.473685
0.530766
0.463733
0.486130
0.490023
0.458773
0.486294
0.535639
0.415841
0.405318
0.347710
0.378158
0.400442
0.350677
0.269027
0.357991
0.203198
0.258843
0.272948
0.222386
0.217943
0.306007
0.244320
0.213618
0.183253
0.172467
0.092895
0.173476
0.053869
0.142382
0.114837
0.030602
0.153284
0.070839
0.092663
0.022558
0.016009
0.014502
-0.020579
-0.022044
0.020116
0.058551
0.035847
0.050116
0.086576
0.009038
-0.006605
-0.009072
0.008331
-0.031156
-0.023835
0.032627
0.082793
-0.018708
-0.079047
0.085932
0.057598
-0.004113
-0.009866
0.069376
0.104131
-0.026145
0.032407
0.017501
0.026973
0.012458
0.025231
0.079855
-0.039888
-0.016572
-0.014311
0.029729
0.082341
-0.021251
0.047723
-0.017920
-0.013236
0.079940
-0.031016
0.073081
0.036996
0.001878
0.134072
0.111187
-0.004656
0.056272
0.035493
0.021280
0.055086
0.049840
0.027828
0.072537
0.102827
0.061972
-0.011354
0.090944
-0.035639
0.038407
0.086838
0.017671
0.032421
0.066733
0.108846
-0.004109
0.043756
0.111440
-0.063989
0.029513
0.094119
0.080992
0.065100
0.028916
0.067788
0.038206
-0.001330
0.113023
0.080325
0.044818
0.020955
0.007512
-0.034754
0.053399
0.057881
0.021654
0.080230
0.034841
0.131556
0.040522
0.158624
0.107515
0.047684
0.054007
0.057300
0.086764
0.148126
0.013221
0.168209
0.141719
0.225944
0.187772
0.177830
0.189383
0.210660
0.195165
0.198920
0.256294
0.196611
0.166937
0.262238
0.122879
0.199311
0.220782
0.168164
0.209968
0.181342
0.146661
0.211529
0.124836
0.101539
0.176620
0.169974
0.131934
0.161373
0.147102
0.116764
0.066699
0.142605
0.002726
0.047485
0.156522
-0.032863
0.135310
0.090102
0.034398
0.054673
0.101752
0.147541
0.059410
0.038652
0.159611
0.038857
0.009182
0.072248
0.045967
0.048033
0.075094
0.096010
0.060869
0.036805
-0.030632
0.045303
-0.009896
0.029913
0.155655
0.261114
0.544496
0.880632
1.161712
1.398742
1.391394
1.306607
1.058806
0.729787
0.440610
0.202209
-0.054051
-0.184256
-0.186202
-0.113231
-0.133081
-0.010693
0.000112
0.087319
0.070405
0.082141
0.091616
0.079956
0.025102
0.046383
0.087188
0.080139
0.101092
0.076692
0.086823
0.155378
