-0.005961
-0.039535
-0.088187
-0.042639
-0.078171
-0.001747
-0.030610
0.076595
0.014705
0.049145
0.017830
-0.018113
0.032339
0.053674
-0.051063
0.032297
0.003848
0.051590
-0.001283
0.033085
0.020055
0.031844
0.062678
0.096582
0.044635
0.006252
0.092262
0.087586
0.039156
0.009580
0.042374
0.125093
0.090336
0.073631
0.149185
0.055427
0.143346
0.143638
0.181967
0.155816
0.201532
0.169812
0.167820
0.220342
0.265877
0.218540
0.198807
0.216422
0.185713
0.240737
0.163476
0.198944
0.211247
0.168627
0.170234
0.153693
0.078346
0.140432
0.162124
0.078118
0.123005
0.057694
0.006107
0.102614
0.082681
0.124991
0.046724
-0.047085
0.081587
0.059607
0.065353
0.063542
0.025103
0.083485
0.103794
-0.011614
-0.003877
-0.011604
0.130391
0.099751
0.062665
-0.045419
-0.025268
0.045451
0.126253
0.332128
0.582926
0.952311
1.210805
1.429593
1.467582
1.302176
1.044754
0.643066
0.288903
-0.005081
-0.237005
-0.274451
-0.277519
-0.148005
-0.085684
0.040911
-0.021878
0.089490
0.046561
0.150603
0.031818
0.047733
0.094329
0.176455
0.076986
0.018587
0.088877
0.120164
0.095906
0.227944
0.143290
0.209826
0.182442
0.240734
0.173407
0.276231
0.273743
0.200356
0.212450
0.287187
0.258929
0.270273
0.404472
0.280915
0.375595
0.344402
0.419136
0.440796
0.434628
0.464096
0.422219
0.470590
0.485311
0.612705
0.484255
0.544237
0.639422
0.599522
0.617406
0.567049
0.581429
0.516060
0.539323
0.637823
0.536609
0.552095
0.498862
0.547403
0.471222
0.557965
0.467941
0.507696
0.437580
0.469076
0.347141
0.364302
0.382808
0.353242
0.338221
0.374436
0.234455
0.254017
0.283085
0.265849
0.254661
0.219749
0.190215
0.179173
0.162322
0.223773
0.191437
0.090895
0.143517
0.105899
0.092405
0.052512
0.078483
0.105552
0.152168
0.013894
0.142672
0.059607
0.124770
0.083337
0.019662
0.130742
0.062188
0.014801
0.124587
0.062071
0.103946
0.051595
0.056168
0.120003
0.007151
0.087611
0.098222
0.098845
0.114552
0.062390
0.076099
0.101328
0.097282
0.019185
-0.073386
0.092531
0.038427
0.010047
0.052044
0.100882
0.045103
0.091067
0.074309
0.072451
0.048347
0.020645
0.078401
0.058983
0.143222
0.109278
0.079280
0.003810
0.087085
0.128205
0.101198
0.101959
0.128149
0.075239
0.045855
0.087804
0.107771
0.112063
0.052325
0.095377
0.068696
0.104734
0.179880
0.196150
0.145728
0.020307
0.069033
0.094631
0.076032
0.155563
0.129429
0.126063
0.173016
0.199839
0.200526
0.184797
0.137781
0.227265
0.160935
0.239996
0.227157
0.234872
0.174132
0.195866
0.332381
0.267650
0.247195
0.268033
0.272323
0.282126
0.267619
0.221317
0.225611
0.335105
0.172437
0.290049
0.166259
0.217049
0.220064
0.253672
0.141855
0.093194
0.192623
0.189908
0.192580
0.163023
0.157308
0.114861
0.028343
0.080950
0.093183
0.099534
0.143209
0.100498
0.072408
0.010132
0.123128
0.111633
0.035548
0.047879
0.044084
0.116704
0.096096
0.013321
0.120084
0.008613
0.033641
0.044193
0.086896
0.356071
0.648702
0.982963
1.214206
1.500000
1.406593
1.333771
1.001020
0.663589
0.233924
-0.046783
-0.156657
-0.102515
-0.144096
-0.141833
-0.084080
-0.010563
0.011964
0.098265
0.045430
0.134750
0.104910
0.036275
0.080517
0.006923
0.048894
0.119184
0.085804
0.086079
0.112439
0.129155
0.078426
0.135215
0.122592
0.163583
0.197608
0.152763
0.213251
0.251568
0.197559
0.205955
0.272728
0.351971
0.239390
0.317101
0.362913
0.363213
0.381398
0.346634
0.400319
0.370039
0.471780
0.415096
0.529120
0.519722
0.489170
0.535759
0.518047
0.457477
0.615102
0.566125
0.549134
0.497963
0.484913
0.595202
0.526495
0.470915
0.480124
0.516470
0.466704
0.488185
0.377475
0.418809
0.404903
0.347016
0.345474
0.395647
0.284135
0.306570
0.280197
0.185115
0.199997
0.224411
0.208497
0.203586
0.128993
0.238531
0.129095
0.145439
0.067153
0.109371
0.018115
0.032760
0.054785
0.151067
-0.028202
-0.002379
-0.014053
-0.024908
-0.005201
0.047470
0.040944
0.024936
-0.026008
0.024070
-0.000906
-0.015467
0.015558
-0.003677
0.041887
0.001151
-0.076500
0.029713
-0.013537
0.007491
-0.000236
0.019789
0.009684
0.045217
-0.016149
-0.041012
-0.045154
-0.007728
-0.058623
-0.011992
-0.008117
-0.030324
0.038027
0.028151
0.080983
-0.104732
0.033951
0.044407
-0.062683
-0.022902
-0.014032
0.046468
0.030404
0.028869
0.004975
0.062792
-0.012201
-0.075085
-0.041395
-0.001370
0.005408
0.027506
0.088747
-0.084175
-0.088916
0.050071
0.002715
-0.008255
0.010398
0.055527
-0.013440
-0.059072
0.050563
-0.072998
0.037029
-0.065746
-0.008230
-0.099084
-0.042371
-0.053884
-0.012167
0.020549
0.005202
0.001441
0.046207
0.108362
0.049089
-0.009470
0.110782
0.095433
0.042204
0.106282
0.016786
0.199816
0.143041
0.054908
0.095718
0.159722
0.113294
0.138572
0.132013
0.191135
0.129687
0.161210
0.085813
0.155151
0.062728
0.203129
0.018248
0.116468
0.064988
0.098565
0.056400
0.073849
-0.069722
0.026519
0.000184
-0.080125
0.037131
-0.051584
-0.043410
-0.065895
0.030515
-0.003053
-0.076816
-0.052248
-0.098394
0.005201
-0.020340
-0.023176
-0.032622
-0.049743
-0.024951
-0.042498
0.020450
-0.089594
-0.093834
-0.097322
0.064339
0.244962
0.578109
0.944490
1.203727
1.324953
1.361179
1.141862
0.925424
0.437364
0.103146
-0.145289
-0.301186
-0.380412
-0.275051
-0.266746
-0.094401
-0.137713
-0.042324
-0.008205
-0.046342
0.005154
-0.109218
-0.026861
-0.049622
-0.009520
0.046808
0.010866
0.021910
0.056010
-0.104533
0.060688
0.055635
-0.002911
0.057838
0.049678
0.057515
0.060657
0.086755
0.181364
0.192406
0.117833
0.143104
0.220120
0.224448
0.301007
0.213989
0.301829
0.318161
0.327316
0.334125
0.309254
0.393688
0.395702
0.443138
0.408394
0.471399
0.472628
0.347445
0.426543
0.480114
0.511958
0.413665
0.472993
0.403990
0.523499
0.411329
0.472315
0.352930
0.407482
0.415849
0.384301
0.440265
0.330443
0.283880
0.272692
0.167618
0.247552
0.198486
0.239539
0.214244
0.213477
0.165884
0.104009
0.102279
0.140650
0.150240
0.079106
0.139445
-0.008709
0.074269
0.060488
0.056021
0.035526
0.045159
-0.027419
-0.001450
-0.027918
-0.050351
-0.073444
-0.051981
-0.046136
-0.040194
-0.023590
-0.052824
-0.043701
-0.066118
-0.063783
-0.006932
0.031171
-0.051955
-0.055572
-0.025503
-0.003588
-0.000733
0.057196
-0.029550
-0.047345
-0.008089
-0.072898
-0.004039
-0.061648
-0.068286
-0.036132
-0.014721
-0.025778
-0.045136
-0.025248
-0.076160
-0.056470
-0.080897
-0.012844
-0.047269
0.012851
-0.061901
-0.023893
-0.017388
-0.077021
0.039369
0.009146
-0.001999
-0.062934
-0.041902
-0.084244
0.015525
0.052231
-0.021146
0.013559
0.013469
0.026919
-0.038928
-0.060408
0.035476
0.015467
0.005932
0.019523
-0.033004
-0.062039
0.053513
0.006430
0.011073
0.021565
0.024692
-0.050753
0.049792
0.034812
-0.008689
-0.019971
0.055703
-0.023100
0.065460
0.107174
0.105172
0.130357
0.020379
0.176351
0.087424
0.163244
0.127126
0.198938
0.163088
0.122978
0.205738
0.201027
0.130945
0.161876
0.182000
0.125227
0.268343
0.167378
0.116246
0.126178
0.208853
0.085564
0.182259
0.072469
0.088855
0.131244
0.063776
0.073612
0.150281
0.073658
0.082390
0.001586
-0.062856
0.021273
0.025097
0.060163
0.064611
-0.011848
-0.040613
-0.101953
0.045118
-0.062446
0.004639
-0.026971
0.022087
0.077159
0.057392
0.005362
0.043937
-0.029262
-0.035729
0.008841
0.167556
0.339461
0.724351
1.021876
1.271873
1.400987
1.337667
1.144571
0.899687
0.495225
0.191669
-0.073514
-0.208081
-0.237387
-0.240802
-0.084455
-0.053206
0.057834
-0.003101
0.075400
0.101112
0.044415
0.070915
-0.000047
0.100213
0.092521
0.081378
0.093609
0.108968
0.102061
0.175076
0.140002
0.175753
0.174215
0.082730
0.132648
0.174941
0.110105
0.181287
0.194225
0.287214
0.205352
0.215765
0.260206
0.302435
0.333556
0.331843
0.440744
0.356166
0.461865
0.503024
0.440562
0.478473
0.557024
0.515602
0.517416
0.566799
0.525335
0.643601
0.616049
0.535372
0.660333
0.585638
0.592824
0.501981
0.543441
0.608498
0.503387
0.527051
0.444862
0.471719
0.509180
0.449194
0.505568
0.379203
0.437710
0.349115
0.358365
0.319666
0.314962
0.313767
0.312221
0.241827
0.203222
0.290690
0.299308
0.215900
0.237204
0.106077
0.249607
0.115013
0.158064
0.181034
0.148547
0.130678
0.174352
0.076589
0.120319
0.053654
0.136038
0.156367
0.111326
0.083576
0.089229
0.092099
0.157498
0.030576
0.061856
0.109816
0.018428
0.134656
0.151355
0.102836
0.050470
0.084965
0.054235
0.092646
0.096486
0.074476
0.036091
0.101041
0.133876
0.101909
0.012023
-0.029665
0.072267
0.082135
0.104944
0.129407
0.102760
0.091057
0.120152
0.037001
0.055162
0.114370
0.173935
0.071560
0.018109
0.076848
0.109999
0.094171
0.110283
0.123618
0.131470
0.068255
0.125686
0.134414
-0.043047
0.082790
0.064832
0.166466
0.159324
0.097741
0.118969
0.048479
0.177112
0.071835
0.054790
0.121926
0.114735
0.052494
0.159251
0.056208
0.149524
0.063356
0.074297
0.086195
0.031115
0.161860
0.127595
0.221518
0.116180
0.151854
0.181358
0.214249
0.206046
0.254669
0.248515
0.158892
0.251613
0.201878
0.210984
0.330649
0.247542
0.252613
0.178049
0.228478
0.165406
0.296661
0.223495
0.244598
0.251853
0.250914
0.235883
0.188089
0.202870
0.177336
0.155852
0.106880
0.146943
0.148727
0.155088
0.214902
0.069590
0.103039
0.114262
0.172040
0.132170
0.082161
0.086801
0.106182
0.118979
0.090170
0.105922
0.038910
0.108957
0.100899
0.053609
0.097171
0.035204
0.038655
0.111976
0.130762
-0.052619
0.285084
0.499729
0.787252
1.132559
1.350623
1.448115
1.325360
1.176025
0.876443
0.542238
0.213174
-0.052781
-0.154646
-0.178486
-0.089073
-0.027636
-0.002622
0.071181
0.144063
0.053267
0.118367
0.110130
0.049135
0.013138
0.175848
0.145877
0.092384
0.143155
0.089843
0.189775
0.156773
0.079780
0.118477
0.217378
0.177599
0.185061
0.173643
0.215976
0.335972
0.247879
0.211325
0.283882
0.280266
0.294332
0.353297
0.309400
0.361027
0.330322
0.434330
0.465167
0.456624
0.519084
0.492899
0.506348
0.508633
0.496329
0.517826
0.598266
0.599997
0.543071
0.540264
0.570858
0.643069
0.624517
0.535385
0.625440
0.499204
0.595202
0.529416
0.537202
0.512248
0.567050
0.519661
0.454050
0.386419
0.387514
0.365975
0.385413
0.278611
0.344418
0.402255
0.275914
0.254518
0.135934
0.248384
0.199419
0.223154
0.125088
0.212281
0.161173
0.062530
0.080681
0.083963
0.086265
0.103870
0.085421
0.123438
0.131577
0.066199
0.048119
0.048380
0.028042
0.117176
0.036000
0.015317
0.037902
0.024240
0.017537
0.019275
-0.019090
0.032452
0.075944
0.070341
0.008318
0.066672
0.144520
0.107745
0.046136
-0.048968
0.124064
-0.001122
0.004158
0.023977
0.031544
0.014438
0.026783
0.059227
0.040488
-0.023841
-0.008917
0.068386
0.047208
0.123804
0.048021
0.054305
0.002708
0.032818
-0.049310
0.025532
0.035017
0.044147
0.056956
0.098944
0.027996
0.040956
-0.041091
0.003305
-0.005117
-0.101537
0.015012
0.066790
-0.027387
0.063170
-0.064727
-0.004027
-0.002204
0.042438
0.024665
-0.018924
0.051113
-0.042955
0.039164
0.042150
0.062109
0.078733
0.011334
-0.043288
0.023361
0.077135
0.034970
0.175963
0.076488
0.105804
0.083774
0.113314
0.068475
0.105494
0.122533
0.097778
0.061202
0.192818
0.194527
0.176228
0.109729
0.236740
0.166921
0.239944
0.158213
0.153599
0.170290
0.204551
0.177115
0.066519
0.134483
0.055115
0.053658
0.078646
0.046845
-0.007966
0.069161
0.048336
0.069354
-0.036242
0.043835
0.043388
0.002907
-0.024427
-0.040269
0.033091
-0.007876
0.006120
-0.069918
-0.084495
-0.006070
-0.000545
-0.019162
-0.056616
-0.029171
-0.071988
-0.042325
-0.089545
-0.090723
-0.079042
-0.059397
0.132660
0.418495
0.703938
0.986380
1.330759
1.408361
1.345131
1.031111
0.721798
0.364899
0.046335
-0.214469
-0.292004
-0.350430
-0.221230
-0.165054
-0.058186
-0.115271
-0.051545
-0.110621
-0.037240
-0.092951
0.018960
-0.066446
0.019276
-0.004644
-0.048937
0.018759
0.029401
0.067659
-0.017132
-0.076776
0.052313
0.014405
0.066466
0.014997
0.119263
0.082050
0.060436
0.117296
0.067452
0.083040
0.238983
0.224074
0.238423
0.315866
0.247965
0.324781
0.250867
0.279750
0.287701
0.282156
0.389181
0.373631
0.391935
0.414631
0.439101
0.428807
0.403083
0.437929
0.401177
0.510863
0.472210
0.394896
0.480510
0.443782
0.462180
0.385713
0.442432
0.398403
0.432994
0.295971
0.325104
0.235199
0.276388
0.322060
0.290764
0.218452
0.168012
0.177377
0.142663
0.157419
0.112158
0.148362
0.139331
0.093130
0.050041
0.047248
-0.020120
-0.044883
0.018958
-0.001925
-0.048410
-0.041202
-0.059162
-0.058511
0.029137
-0.112792
-0.120983
-0.066014
-0.135772
-0.140000
-0.048271
-0.097894
-0.069095
-0.074756
-0.088114
0.015741
-0.050685
-0.051245
-0.071170
-0.016782
-0.070428
-0.086083
-0.048066
-0.007667
-0.124698
-0.106731
-0.147286
-0.092266
-0.174082
-0.106596
-0.067008
-0.066328
-0.084624
-0.090001
-0.072914
-0.052830
-0.142934
-0.112967
-0.080603
-0.082742
-0.104130
-0.112275
-0.129780
-0.113436
-0.034266
-0.041470
-0.146241
-0.004716
-0.113060
-0.033376
-0.007542
-0.034099
-0.032106
-0.049331
-0.124324
-0.144340
-0.087732
-0.024659
-0.166075
-0.095560
-0.054782
-0.111435
-0.125366
-0.118513
-0.037891
-0.040161
-0.125485
-0.113170
-0.049059
-0.041772
-0.098144
-0.057085
-0.066793
-0.060965
-0.024131
-0.106441
-0.116856
-0.017347
-0.053440
-0.038469
-0.082049
0.012377
0.060320
0.033320
0.094976
0.065522
0.151956
0.165304
-0.019792
0.056096
0.083557
0.153147
0.110795
0.079570
0.147556
0.100050
0.091264
0.148393
0.064519
0.019852
0.137359
0.039732
0.017463
0.085487
0.115826
-0.019532
0.042520
-0.062760
-0.027030
-0.077854
-0.129352
-0.092276
-0.124023
-0.081843
-0.004900
-0.007204
-0.067757
-0.115030
-0.024462
-0.063247
-0.072853
-0.095755
-0.108142
-0.074991
-0.086832
-0.042355
0.011249
-0.022294
-0.123277
-0.189189
-0.162053
-0.007469
0.168925
0.424849
0.633093
1.049828
1.255925
1.340643
1.269593
0.977072
0.660329
0.330640
-0.077828
-0.280713
-0.399523
-0.407229
-0.383504
-0.251583
-0.086781
-0.103004
-0.063712
-0.112280
0.037474
-0.067947
0.070676
-0.021726
-0.014401
0.004696
0.026788
0.018282
-0.032059
-0.046819
0.056093
-0.016947
0.022243
0.042096
0.071962
0.068110
0.108743
0.154635
0.130133
0.189268
0.097098
0.239933
0.200363
0.115242
0.214600
0.225459
0.302321
0.325761
0.301459
0.383698
0.382694
0.420754
0.435419
0.489168
0.491470
0.359930
0.448979
0.555042
0.421214
0.435924
0.445233
0.504595
0.471948
0.452556
0.491202
0.482736
0.413155
0.412815
0.412820
0.454199
0.403501
0.353623
0.379207
0.354077
0.301362
0.246077
0.208354
0.257375
0.125999
0.290723
0.280868
0.156115
0.203153
0.081235
0.083669
0.138222
0.129796
0.007073
0.118983
0.058184
0.135416
0.022980
0.120369
-0.023652
0.056531
0.100941
-0.024916
-0.026805
0.030317
-0.007629
-0.038188
0.059547
0.007690
0.018601
-0.094781
0.032908
0.104324
0.002494
-0.016337
-0.008231
0.017711
0.041443
-0.126557
-0.055384
-0.059537
-0.042095
-0.028254
-0.013081
0.017622
-0.024387
0.013931
-0.018357
-0.037319
-0.048646
-0.012826
-0.024856
0.031323
0.089267
-0.021050
0.013448
-0.024538
0.048087
0.004179
0.043284
-0.018682
0.021682
0.024711
0.045110
0.006180
0.013160
0.068024
0.037039
0.046201
-0.008813
0.010373
0.011358
0.039077
0.039181
0.057012
-0.015732
0.051246
-0.046278
-0.002985
-0.013323
0.102369
0.007745
-0.042536
0.077132
-0.006448
0.024037
-0.040438
0.026072
0.049559
0.045786
0.059288
-0.005167
0.050752
0.126017
0.056305
-0.003810
0.163153
0.115786
0.083423
0.152164
0.100157
0.150114
0.168975
0.155140
0.205212
0.172272
0.220370
0.170426
0.187732
0.252096
0.104400
0.184739
0.203780
0.127355
0.198802
0.224947
0.187955
0.177109
0.179162
0.152192
0.164919
0.205615
0.199490
0.188490
0.035488
0.138699
0.056084
0.081013
0.085768
0.089655
0.088323
0.087663
0.035133
0.098806
0.078899
0.030486
0.036493
0.073913
-0.012407
0.056337
-0.000886
0.081457
-0.006733
0.089854
0.026935
0.032213
0.002323
0.062305
-0.048212
0.167938
0.222497
0.547366
0.805790
1.272030
1.338025
1.394945
1.378582
0.950678
0.732680
0.279442
-0.003331
-0.118219
-0.197332
-0.214260
-0.152270
-0.058223
-0.016979
0.076608
0.115317
0.121506
0.099984
0.007645
0.120203
0.114253
0.002074
0.066262
0.147594
0.152165
0.085671
0.103489
0.044834
0.137617
0.098508
0.048414
0.157029
0.106928
0.113530
0.137566
0.229057
0.305904
0.299966
0.305724
0.296032
0.347119
0.423464
0.353618
0.290320
0.413254
0.390616
0.514055
0.516521
0.452102
0.514639
0.485617
0.584777
0.561823
0.496537
0.521622
0.567343
0.597197
0.562608
0.594242
0.512422
0.558563
0.486549
0.475896
0.534812
0.548320
0.454764
0.499347
0.476400
0.519464
0.467706
0.368757
0.419378
0.405927
0.330412
0.362611
0.241032
0.308963
0.312849
0.162716
0.250985
0.229005
0.188864
0.095213
0.193827
0.156401
0.133563
0.105849
0.182066
0.016670
0.090510
0.097465
0.040893
0.060785
0.092369
0.084067
0.103687
0.069213
0.079324
0.076499
0.017190
0.009564
0.059045
0.095289
0.027667
-0.002556
0.004176
0.011917
0.020063
0.056104
0.067524
0.001257
0.029961
-0.005612
-0.036883
0.052790
0.060305
0.079798
0.022226
-0.015505
0.026762
-0.009065
-0.008571
-0.040426
0.024846
-0.025064
0.022424
0.034922
0.065926
0.040518
0.073178
0.054783
-0.009978
0.028408
0.006205
0.011862
0.054783
0.037228
-0.036718
0.109093
-0.085382
0.048560
0.025005
0.085026
0.006632
0.077568
0.069719
-0.018046
-0.048489
0.003110
0.134457
-0.018431
0.036141
0.035913
0.027573
0.036606
0.088699
0.015360
0.029110
-0.000429
0.043748
0.121992
-0.022777
0.040913
0.122269
0.099665
0.038194
0.091314
0.067878
0.180945
0.028985
0.114918
0.150782
0.235415
0.141842
0.118302
0.184095
0.123661
0.092206
0.200409
0.122434
0.125881
0.186527
0.140588
0.162795
0.159049
0.206160
0.063649
0.230132
0.130766
0.154399
0.069446
0.205560
0.093676
0.136730
0.084654
0.143768
0.053004
0.069330
-0.025426
-0.021384
0.068674
0.058717
0.017432
0.061723
0.038995
-0.094681
0.076868
0.005282
-0.003468
-0.069016
-0.018673
0.027842
0.019312
-0.017820
-0.042732
-0.046484
-0.006199
-0.112582
-0.064938
-0.027637
0.067442
0.207883
0.506821
0.849936
1.126516
1.283276
1.388799
1.282035
0.922293
0.594755
0.280796
-0.007152
-0.291074
-0.320419
-0.306715
-0.229646
-0.082606
0.003697
-0.091584
-0.058790
0.016073
-0.005472
0.064249
-0.035840
0.000786
-0.033964
-0.069323
-0.029551
-0.006987
0.017918
0.005950
0.029177
0.080991
0.000829
0.065857
0.059601
0.103955
0.108102
0.046410
0.099799
0.074094
0.109548
0.222656
0.159188
0.322004
0.205156
0.251292
0.252441
0.295291
0.276500
0.319860
0.353784
0.295995
0.404544
0.455219
0.422961
0.423989
0.432119
0.471081
0.373823
0.392102
0.510713
0.467179
0.453587
0.473041
0.419683
0.442857
0.387035
0.428189
0.467320
0.314314
0.356450
0.299809
0.289720
0.327814
0.321293
0.213560
0.222364
0.206039
0.199254
0.143300
0.149955
0.113434
0.104240
0.164109
0.140565
0.036117
0.004178
0.096989
0.039908
0.069721
0.020537
0.031738
0.040524
-0.072922
-0.057221
-0.006808
-0.060678
0.017064
-0.042095
-0.047979
-0.007811
-0.099303
-0.210382
-0.090705
-0.016914
-0.102960
0.010243
-0.038739
-0.020721
-0.044747
-0.111661
-0.174103
-0.066030
-0.027712
-0.128393
-0.130017
-0.061172
-0.109727
-0.059429
-0.122565
-0.108949
-0.100936
-0.061331
-0.066442
-0.117138
-0.045538
-0.126940
0.000712
0.001715
-0.138839
-0.118276
-0.086426
-0.140234
-0.081994
-0.078555
-0.134206
-0.054829
-0.139056
-0.087337
-0.160768
-0.052917
-0.101120
-0.102078
-0.118511
-0.038783
-0.095036
-0.191067
-0.097544
-0.090049
-0.080577
-0.098696
-0.086162
-0.095401
-0.150008
-0.082840
-0.124587
-0.141873
-0.142548
-0.081764
-0.049306
-0.054036
-0.145879
-0.139258
-0.122052
-0.024560
-0.105729
-0.102767
-0.025869
0.005186
-0.020993
-0.001325
-0.008666
-0.004385
-0.006539
0.046960
-0.011029
-0.056266
0.034157
0.005989
0.059344
0.108521
0.080711
0.056119
0.097966
0.090648
0.092960
0.143068
0.007430
0.095536
0.069973
-0.012714
0.026368
-0.035983
-0.041831
-0.060236
0.063891
-0.028416
0.001484
0.017237
0.007840
-0.016265
-0.087361
-0.031854
-0.101540
-0.187031
-0.135891
-0.053526
-0.095068
-0.050746
-0.112209
-0.053220
-0.022439
-0.044207
-0.123491
-0.023397
-0.015679
-0.131076
-0.067419
-0.157736
-0.135722
-0.155223
-0.177636
-0.133355
-0.015387
0.160055
0.410095
0.725659
1.067187
1.295479
1.354475
1.118875
0.774086
0.424968
0.142838
-0.040360
-0.384980
-0.387310
-0.297125
-0.277448
-0.157689
-0.134488
-0.085943
-0.143167
-0.122532
-0.034175
-0.046448
-0.003710
-0.028370
-0.046008
-0.004276
0.003611
-0.041695
-0.034664
0.023651
-0.113022
-0.062437
-0.064643
0.005558
-0.032745
-0.002453
0.032432
0.037279
0.060167
0.136378
0.091061
0.131506
0.096888
0.168409
0.258605
0.240746
0.224152
0.158317
0.299863
0.214406
0.262668
0.387431
0.268248
0.336450
0.413512
0.403791
0.319196
0.384342
0.309514
0.459034
0.496311
0.389080
0.422111
0.502023
0.465306
0.370323
0.372723
0.402539
0.375757
0.413807
0.301250
0.345517
0.284622
0.281065
0.239876
0.274351
0.283385
0.351074
0.206316
0.159903
0.213926
0.135842
0.092755
0.177671
0.099670
0.069700
0.024145
0.053210
0.036083
-0.073018
-0.023768
0.049724
-0.014189
-0.017177
0.002865
0.003823
0.010510
0.073060
-0.086930
-0.013316
-0.046336
-0.067399
-0.107205
-0.040951
0.019132
-0.074409
-0.066909
-0.038777
-0.140475
-0.144764
-0.089706
-0.081677
-0.110856
-0.083960
-0.086337
-0.029354
-0.063621
-0.089206
-0.041512
-0.036469
-0.086968
-0.076456
-0.055137
-0.039930
0.018831
-0.029101
-0.061962
0.040825
-0.036346
0.022860
-0.062526
-0.057841
-0.035994
-0.043616
-0.018794
-0.070957
-0.023383
0.018319
-0.038235
0.013137
-0.046190
0.011736
-0.067638
0.021289
-0.038108
0.004169
-0.050831
-0.082168
-0.000123
-0.071794
-0.018194
-0.078926
0.052356
-0.048330
0.003482
-0.044741
0.013765
-0.030205
-0.034491
0.018365
-0.014361
-0.029477
0.032018
-0.016631
-0.046700
0.014679
0.014940
-0.046331
0.078859
0.054767
0.058358
0.050404
0.139923
0.040932
0.012820
0.102694
0.098020
0.116963
0.084240
0.125506
0.195675
0.133994
0.203473
0.190524
0.153875
0.159671
0.189073
0.153350
0.129384
0.044306
0.183240
0.142484
0.160426
0.078417
0.107728
0.134768
0.058607
0.084589
0.082517
0.176156
-0.006619
-0.046858
0.030782
0.104311
0.042414
0.035667
0.015680
0.062647
-0.045344
0.001034
0.055153
-0.004414
0.035861
0.032703
0.028475
0.014465
0.035781
0.034035
-0.044235
-0.026899
-0.026107
-0.047705
0.055994
0.115798
0.292841
0.599033
0.971100
1.244210
1.431489
1.446589
1.198134
0.956553
0.453288
0.173751
-0.100365
-0.156251
-0.215400
-0.267804
-0.116900
-0.021577
0.021682
-0.001411
0.059665
0.044223
0.017794
0.119836
0.040676
0.163222
0.019169
0.106509
0.070959
0.192632
0.149036
0.067632
0.069159
0.098847
0.120259
0.139783
0.160401
0.100256
0.242107
0.146603
0.211320
0.216022
0.174567
0.280771
0.247431
0.358716
0.291942
0.315958
0.293639
0.341450
0.426664
0.396999
0.401403
0.435117
0.504170
0.562836
0.460659
0.544062
0.568070
0.489045
0.519730
0.525008
0.554544
0.577535
0.559789
0.536354
0.517851
0.576350
0.540179
0.477993
0.533643
0.456809
0.416037
0.486329
0.436336
0.453911
0.436217
0.381213
0.286230
0.394358
0.336572
0.268434
0.239382
0.265234
0.288478
0.227897
0.139026
0.173899
0.139061
0.236611
0.104057
0.204028
0.105376
0.183388
0.133146
0.096008
0.131081
0.131534
0.099588
0.107602
0.148106
0.096272
0.183044
0.126965
0.069288
0.094032
0.048634
-0.010588
0.018793
0.076868
0.118503
0.094832
0.076309
0.126710
0.095150
0.099640
0.044039
0.109413
0.112194
0.184622
-0.008724
0.176203
0.093092
0.086585
0.083402
0.052809
0.051236
0.071162
-0.025426
0.083521
0.037050
0.065345
0.067433
0.008542
-0.026811
0.142541
0.040986
0.024903
0.082754
0.081030
-0.005830
0.135369
0.168471
0.028044
0.096360
0.073995
0.098107
0.025971
0.058052
0.016073
0.065871
0.116887
0.038125
0.064895
0.006045
0.040954
0.091887
0.099835
0.066473
0.046718
0.141315
-0.018343
0.133120
0.107006
0.073035
0.010991
0.082387
0.191209
0.097966
0.144957
0.169763
0.118052
0.213878
0.036636
0.061998
0.178169
0.134056
0.167143
