-0.063867
0.008516
0.052963
0.086362
-0.044386
0.062746
-0.067272
0.002773
0.045930
0.070889
-0.006752
0.044693
-0.026124
-0.025107
0.036163
-0.054349
0.035846
0.094398
0.031591
0.053009
0.021247
-0.013971
0.036249
0.035444
0.052104
0.042141
0.041291
0.132158
0.008130
0.056181
0.115571
0.197570
0.176302
0.155719
0.203303
0.190354
0.139795
0.135675
0.241736
0.211227
0.241434
0.177858
0.159857
0.282382
0.236070
0.212629
0.233601
0.132399
0.145462
0.135016
0.191210
0.095545
0.030724
0.137272
0.129933
0.061156
0.095381
0.036350
0.104201
0.083377
0.008927
0.132627
0.038089
0.068876
0.065595
0.047269
0.140081
0.104960
0.039397
0.087104
-0.064064
0.001967
-0.054613
0.105393
-0.006060
0.035900
0.015031
0.129909
0.396527
0.663000
1.064527
1.295293
1.451922
1.397820
1.163213
0.864589
0.465028
0.154122
-0.117190
-0.099863
-0.132203
-0.122163
0.057424
0.079981
-0.006093
0.027385
0.042352
0.068622
0.029137
0.055441
0.107692
0.073242
0.170232
0.124494
0.148105
0.181090
0.165966
0.125598
0.144809
0.255023
0.259148
0.202138
0.289341
0.187753
0.221547
0.295396
0.346460
0.370761
0.380100
0.331410
0.396192
0.381945
0.461383
0.507692
0.462807
0.508272
0.483867
0.506871
0.484466
0.551348
0.521715
0.565960
0.620898
0.628397
0.629428
0.607057
0.602545
0.617354
0.625065
0.578715
0.517916
0.559619
0.513518
0.495885
0.562112
0.465535
0.494690
0.390000
0.421625
0.325543
0.340366
0.291606
0.309556
0.346649
0.253565
0.211170
0.186933
0.229627
0.234988
0.182448
0.162094
0.188760
0.201493
0.218699
0.158707
0.116429
0.125408
0.195816
0.100090
0.108569
0.164189
0.078740
0.211113
0.116993
0.030906
0.118558
0.124339
0.117490
0.082705
0.110961
0.097685
0.060315
0.083326
0.050929
0.134131
0.108968
0.056144
0.106226
0.133685
0.112198
0.038862
0.113158
0.068730
0.143769
0.061209
0.047754
0.114206
0.026019
0.096700
0.135050
0.105183
0.139145
0.072833
0.139685
0.027129
0.085617
0.141358
0.065815
0.142171
0.051532
0.063106
0.060097
0.022450
0.060819
0.011969
0.047916
0.086156
0.141832
0.064094
0.013847
0.120174
0.093976
0.088470
0.084888
0.090652
0.110755
0.056921
0.086976
0.057290
0.090361
0.076489
0.164240
0.090028
0.131060
0.188155
0.120967
0.215772
0.251658
0.220300
0.181828
0.190465
0.230910
0.257012
0.164824
0.285758
0.328798
0.247861
0.266798
0.225489
0.297582
0.248478
0.280054
0.207588
0.097460
0.206440
0.297471
0.173710
0.214208
0.240400
0.161975
0.172436
0.095634
0.098281
0.019709
0.122481
0.060144
0.106839
0.063822
0.110461
0.129352
0.085392
0.024693
0.050892
0.044955
0.019223
0.057466
0.070459
0.057821
0.012683
0.062660
0.046869
0.070707
0.117853
0.296327
0.496547
0.918274
1.189201
1.364852
1.470876
1.317501
0.944254
0.642418
0.287519
0.093286
-0.061766
-0.201794
-0.186633
-0.042043
0.043238
-0.005039
0.089875
0.089230
0.066212
0.052992
0.058912
0.149555
0.125360
0.085011
0.158314
0.153655
0.149984
0.164438
0.204543
0.131199
0.106156
0.176330
0.297746
0.278742
0.242206
0.284390
0.275375
0.358770
0.290859
0.337538
0.294150
0.381036
0.517763
0.444345
0.513748
0.468350
0.462273
0.522261
0.492349
0.536501
0.560330
0.494153
0.554673
0.633085
0.526613
0.519582
0.590350
0.593488
0.514775
0.587192
0.542616
0.450103
0.486859
0.441671
0.464891
0.455140
0.480393
0.323565
0.424056
0.359244
0.289002
0.367300
0.286608
0.250989
0.294902
0.215332
0.281045
0.215812
0.270251
0.224924
0.116967
0.099344
0.086089
0.133360
0.132861
0.129819
0.073716
0.093893
0.111432
0.003596
0.111828
0.046059
0.084651
0.023768
-0.029099
0.033548
-0.015712
0.005512
0.018975
0.026121
0.064622
0.037530
-0.033516
0.017476
0.001899
0.048151
0.020086
0.002287
0.052011
0.019494
-0.002811
-0.001179
-0.028601
0.035224
0.004709
-0.016475
0.040567
0.101832
-0.053109
-0.029932
0.016635
0.028298
0.113433
0.061598
0.015331
-0.043704
0.009271
-0.015486
0.076528
0.015346
0.079132
0.040350
0.006640
-0.035529
0.007111
0.007529
-0.034662
0.009345
0.001046
-0.101625
0.086139
-0.034188
0.014180
0.021656
0.002526
-0.092984
0.000381
0.006690
-0.002861
-0.004747
0.015495
-0.021685
0.079146
0.065589
0.024716
0.038811
0.115066
0.091280
0.103830
0.120256
0.154776
0.061494
0.104508
0.103683
0.182423
0.151577
0.183733
0.172528
0.156356
0.205070
0.139303
0.138139
0.120398
0.143658
0.200882
0.079323
0.039129
0.124900
0.079298
0.061150
0.082747
0.033521
0.056325
-0.012266
0.011000
0.096944
0.029127
0.014592
-0.086370
-0.044946
0.060068
-0.043641
0.029625
-0.037335
-0.011925
-0.024559
0.027480
-0.055224
-0.019826
-0.059191
-0.068974
-0.066442
-0.022412
-0.063264
0.122307
0.353656
0.629038
0.775951
1.197970
1.398082
1.326508
1.018758
0.706186
0.363632
0.029638
-0.164516
-0.309763
-0.175354
-0.265273
-0.189244
-0.117957
-0.071698
-0.002315
-0.025772
-0.033364
-0.007282
-0.005827
0.119369
-0.005369
0.013584
0.001220
0.035962
-0.001742
0.134414
0.118838
0.114585
0.121237
0.076716
0.086678
0.134144
0.186959
0.290789
0.205135
0.258257
0.267539
0.264815
0.197746
0.298033
0.302439
0.386928
0.343236
0.366310
0.391364
0.401521
0.341213
0.463997
0.481452
0.493010
0.454406
0.452613
0.497421
0.490983
0.513568
0.433042
0.423031
0.407391
0.366125
0.336496
0.351557
0.415852
0.397825
0.342623
0.368664
0.336270
0.391851
0.264052
0.271555
0.192511
0.312356
0.251632
0.235950
0.148554
0.153748
0.092258
0.156976
0.096819
0.136605
0.085102
0.059098
0.065793
0.054156
0.028174
-0.021877
-0.016072
-0.047651
0.089023
-0.026867
0.036209
0.078614
-0.004154
-0.047201
-0.030590
-0.069840
-0.056709
-0.089048
-0.165312
0.026552
0.018455
0.002737
0.053486
-0.116435
0.006193
-0.045697
-0.047477
-0.134041
-0.044031
-0.056243
-0.119812
-0.085058
-0.063738
-0.043981
0.015255
0.012051
-0.135221
-0.019806
-0.037282
-0.088670
0.021562
-0.075089
-0.043531
-0.000572
-0.051679
-0.065297
-0.019855
-0.056249
-0.015164
-0.062662
-0.097553
-0.048365
-0.112483
-0.025472
0.092140
-0.023763
0.044810
0.033555
-0.016661
0.026950
0.024322
-0.107780
-0.015500
-0.024903
-0.012915
-0.051379
-0.008546
0.036853
-0.043073
0.071490
0.090418
-0.008506
0.047346
0.024146
0.035253
0.068546
0.062702
0.036535
0.019493
0.188634
0.092037
0.187120
0.098512
0.110468
0.136699
0.070507
0.137478
0.175057
0.128545
0.147873
0.154747
0.230111
0.134305
0.043685
0.082282
0.003622
0.097628
0.099451
0.038019
0.126666
0.042819
-0.012960
0.103823
0.018266
0.052551
0.033319
-0.014102
-0.014262
0.022559
-0.002775
0.018047
-0.025918
0.019170
-0.046561
-0.010528
-0.133822
-0.051656
-0.052657
-0.144980
-0.045618
-0.031685
0.053882
0.066157
0.238739
0.539756
0.795649
1.145743
1.372579
1.339936
1.245615
1.007813
0.630451
0.248863
-0.027307
-0.241782
-0.223051
-0.182773
-0.144126
-0.065265
-0.043645
-0.009276
-0.007624
0.072675
0.013924
0.079564
0.005417
0.009626
0.059377
0.092887
0.073066
0.010824
0.098873
0.077704
0.109345
0.146733
0.161267
0.117753
0.219801
0.174393
0.193443
0.313925
0.236580
0.288025
0.322907
0.303402
0.330125
0.362917
0.333511
0.387139
0.405307
0.517386
0.402832
0.498080
0.555186
0.481232
0.566837
0.572818
0.504848
0.558649
0.500455
0.590705
0.492467
0.551339
0.490166
0.504074
0.514957
0.424694
0.466832
0.464362
0.370564
0.420589
0.443824
0.392049
0.302341
0.343208
0.367568
0.298989
0.282114
0.278323
0.220975
0.216191
0.233606
0.284988
0.134992
0.186438
0.223335
0.174413
0.121518
0.138206
0.062774
0.163905
0.083449
0.133997
0.056191
0.139303
0.040807
0.044641
0.110954
0.107294
0.010886
0.060218
0.002465
0.052673
0.098653
0.038712
0.087288
0.080060
0.021756
0.034517
0.034885
0.101733
0.066477
0.048628
-0.010913
0.124489
0.060644
0.089882
-0.020810
0.076934
0.046067
0.176057
0.036020
0.007421
-0.010691
0.076968
0.027059
0.036256
0.054459
0.075475
0.015588
0.095058
0.113955
-0.019336
-0.030580
0.106177
0.044161
0.005274
0.082667
0.021899
0.030904
0.118326
0.016759
0.063620
0.079764
0.047191
0.067138
0.095256
0.076100
0.139733
0.129875
0.142903
0.142451
0.157550
0.137804
0.132044
0.119300
0.036769
0.114315
0.162167
0.207433
0.095579
0.112379
0.139320
0.114262
0.224319
0.289709
0.227343
0.281210
0.228828
0.300092
0.284865
0.260656
0.233553
0.269547
0.276013
0.301156
0.208236
0.317348
0.217620
0.241912
0.138753
0.229238
0.229318
0.288984
0.169239
0.072922
0.101152
0.102950
0.127489
0.104145
0.297282
0.082694
0.080610
0.100388
0.137103
0.111605
0.078090
0.095473
0.076280
0.139266
0.064125
0.074070
0.039776
0.083855
0.073763
0.085781
0.071835
0.168387
0.287277
0.411264
0.757026
1.131223
1.325153
1.500000
1.360051
1.212906
0.839685
0.412510
0.181270
-0.033059
-0.036263
-0.193269
-0.068745
0.065260
0.071127
0.023930
0.149109
0.160461
0.073913
0.124546
0.153650
0.151407
0.081425
0.108794
0.160510
0.185423
0.150811
0.178815
0.242327
0.289669
0.215492
0.184077
0.294087
0.234675
0.277620
0.358213
0.362237
0.331845
0.414952
0.325472
0.399698
0.470217
0.458815
0.507626
0.474041
0.571389
0.550964
0.534937
0.574122
0.623292
0.660010
0.584681
0.603146
0.596942
0.640476
0.577983
0.625584
0.626630
0.577029
0.589246
0.578449
0.538956
0.492688
0.442180
0.465325
0.472689
0.456321
0.406217
0.461907
0.401108
0.401084
0.357015
0.287791
0.410216
0.274119
0.230432
0.337351
0.219810
0.272476
0.209614
0.260205
0.162481
0.221002
0.138821
0.137662
0.122071
0.073792
0.035098
0.079680
0.183413
0.096010
0.073777
0.041835
0.104134
0.110615
0.023319
0.075719
0.119932
0.127674
0.114427
0.106420
0.087041
0.101459
0.146118
0.075185
0.067897
0.171923
-0.002374
0.088547
0.005532
0.073169
0.025704
0.094518
0.029441
0.083904
0.051182
0.015769
0.156064
0.056781
0.123270
0.147463
0.017356
0.051723
0.050008
0.007848
0.081974
0.042496
0.016873
0.054276
0.059516
0.044653
0.090114
0.016603
0.077192
0.080227
0.048959
0.015054
0.080501
0.151453
0.038807
0.027065
0.004508
0.075688
0.051832
0.078119
0.116408
0.100283
0.032466
0.215865
-0.031521
0.116099
0.115413
0.060895
0.054011
0.191684
0.217124
0.202348
0.140797
0.140993
0.125067
0.075677
0.193143
0.227870
0.226902
0.210450
0.216278
0.218284
0.253640
0.156858
0.207741
0.178852
0.228295
0.234687
0.181144
0.162712
0.114328
0.081034
0.142229
0.114690
0.101955
0.125855
0.119040
0.128323
0.074951
0.072315
0.079263
0.060734
0.060650
0.108854
0.051245
0.058483
0.088347
0.006938
0.022684
-0.014183
0.038645
0.071235
0.059516
0.041937
0.019171
-0.039407
0.026442
0.100061
0.015453
0.289662
0.549507
0.785527
1.172841
1.353025
1.389162
1.182523
1.003442
0.562519
0.219119
-0.018712
-0.267713
-0.133982
-0.166056
-0.118131
0.016496
-0.000177
-0.009597
0.039005
0.004753
0.051360
0.007032
0.048836
0.068302
0.096525
0.048735
0.173142
0.137551
0.136117
0.114616
0.101283
0.141141
0.137227
0.201173
0.153359
0.201280
0.273056
0.224534
0.283131
0.270376
0.339769
0.429484
0.361433
0.404465
0.291214
0.350823
0.457947
0.397246
0.454606
0.530276
0.428518
0.429001
0.406364
0.457101
0.416511
0.579107
0.506205
0.506530
0.499845
0.515142
0.466659
0.455689
0.522213
0.413856
0.413676
0.468125
0.400880
0.336027
0.297925
0.346406
0.292123
0.214845
0.326777
0.242814
0.193472
0.092515
0.222909
0.234474
0.129750
0.143604
0.188752
0.128867
0.165773
-0.045914
0.051306
0.093392
0.080260
0.096893
0.056682
0.046432
0.034788
0.010638
-0.016101
-0.008111
0.060304
-0.089510
-0.051392
-0.003371
-0.029391
-0.024968
-0.007636
-0.020212
-0.054412
-0.051918
-0.046285
-0.012217
-0.016497
-0.085400
-0.082792
-0.047680
-0.000999
-0.023646
-0.019767
-0.083588
-0.080739
-0.012811
-0.046317
-0.046203
-0.032091
-0.024253
-0.031691
-0.035196
-0.007162
-0.028708
-0.047538
-0.053617
0.044250
-0.022924
-0.002729
-0.022761
-0.045051
-0.065478
-0.051997
-0.114165
-0.034212
-0.067704
0.014545
-0.100948
0.012235
-0.069592
-0.017274
-0.118587
-0.017342
-0.093793
-0.015947
-0.024278
-0.046565
-0.030710
0.003851
-0.019845
-0.021370
-0.013241
-0.004543
-0.023392
-0.027144
-0.005344
0.019285
0.019564
0.054177
0.031449
0.048042
0.058496
0.036945
0.087396
0.041100
0.128994
0.112784
0.111516
0.141427
0.025745
0.176214
0.122726
0.131327
0.226645
0.110131
0.042861
0.068945
0.101194
0.064584
0.020806
0.084617
0.097771
0.035871
0.024224
-0.028691
-0.038758
-0.003215
-0.046732
0.041031
0.077051
-0.008819
-0.059192
-0.114734
-0.118514
-0.111575
-0.071492
-0.025949
-0.120388
-0.062294
-0.122802
-0.124522
-0.004908
-0.072847
-0.072891
-0.000477
0.074702
0.372239
0.581565
0.888103
1.215646
1.303086
1.204600
0.984460
0.624123
0.316269
-0.006792
-0.233552
-0.358662
-0.314119
-0.265139
-0.203936
-0.045577
0.024324
-0.081734
-0.045962
-0.020162
-0.053685
-0.015694
0.048413
-0.090286
-0.051998
-0.005814
-0.015755
-0.039546
0.011981
0.032455
0.066970
0.016173
0.008241
0.071161
0.182623
0.135142
0.100790
0.137506
0.201105
0.190074
0.192791
0.219822
0.286227
0.291105
0.278349
0.255875
0.402332
0.263534
0.412820
0.393753
0.412809
0.446111
0.481621
0.465410
0.507334
0.446466
0.491813
0.430630
0.432721
0.434167
0.415273
0.442160
0.319796
0.409707
0.319498
0.455065
0.314801
0.269679
0.211830
0.342949
0.177127
0.241409
0.270822
0.176910
0.154709
0.124863
0.096730
0.083864
0.104494
0.110897
0.053476
0.043643
0.040667
0.092375
0.062506
0.000589
-0.030665
-0.023021
0.026765
-0.031856
0.003905
-0.024479
-0.144107
-0.049903
-0.049649
-0.035450
0.091630
-0.067218
-0.000502
-0.051816
-0.115291
-0.049552
-0.065719
-0.005334
-0.098426
-0.066420
-0.108348
-0.032611
-0.051656
-0.069315
-0.087480
-0.078967
-0.090369
-0.066591
-0.044108
-0.077428
-0.018556
-0.062416
-0.020095
-0.091221
-0.023943
-0.036567
-0.095114
-0.045152
-0.067159
-0.070591
-0.026728
-0.014704
-0.084970
-0.070085
-0.067145
-0.003475
-0.088524
-0.116592
-0.009342
-0.169354
0.040376
-0.058262
0.025543
-0.012640
-0.010609
-0.068168
-0.034168
-0.069464
0.006710
0.016781
-0.047549
-0.022920
-0.098641
-0.008699
-0.090968
0.012429
0.002486
-0.052095
0.000608
0.071466
0.019591
-0.020184
0.050699
0.047942
0.141311
0.034527
0.051301
0.067018
0.115667
0.056247
0.098754
0.190597
0.151308
0.079376
0.160413
0.173649
0.125606
0.176926
0.116820
0.093428
0.058622
0.129409
-0.026566
0.051328
0.116436
0.029524
0.063964
0.005130
0.041812
0.020259
0.046803
0.025782
-0.002489
-0.030787
0.064403
0.044364
0.013684
-0.042386
-0.021308
-0.076248
0.007785
-0.085577
0.013696
-0.110297
-0.046115
-0.020937
-0.027241
-0.061196
0.043190
0.153774
0.487711
0.810380
1.121299
1.307650
1.405698
1.242194
0.895079
0.569897
0.201954
-0.037504
-0.195959
-0.252491
-0.196332
-0.159758
-0.116119
0.055575
-0.010408
-0.003084
0.011615
0.019620
0.019939
0.099016
0.048464
0.064344
0.086780
0.140523
0.059774
0.026184
0.055426
0.140802
0.010591
0.093944
0.191097
0.124724
0.249585
0.271532
0.252147
0.115645
0.314494
0.225260
0.405439
0.399008
0.363941
0.391545
0.446895
0.443165
0.437048
0.477481
0.431837
0.513280
0.441520
0.434296
0.530568
0.587828
0.440099
0.615103
0.488621
0.550224
0.536260
0.501612
0.493814
0.585298
0.448688
0.529718
0.448344
0.485206
0.450340
0.402153
0.437531
0.339950
0.327304
0.302005
0.250021
0.216209
0.218250
0.264680
0.200104
0.208383
0.219446
0.193196
0.186963
0.105869
0.198944
0.168567
0.179068
0.134892
0.102387
0.064782
0.048820
0.087979
0.032715
0.035485
0.027056
0.045963
-0.073374
0.011428
0.005373
0.076393
-0.023008
0.049376
0.058895
0.012610
0.035526
0.043340
0.021313
0.115577
-0.001469
0.048411
0.059207
0.018870
0.035261
0.017110
-0.005614
0.078306
0.069369
-0.042894
0.020323
0.005178
0.022733
0.040549
0.121363
0.091974
0.052424
0.009677
-0.026572
0.042438
0.061755
0.001081
0.067325
-0.025240
-0.003531
0.088138
0.067299
0.066181
0.046668
0.124141
0.030205
0.120840
-0.015805
0.026936
0.014661
0.010529
0.103088
0.014023
0.009550
0.045787
0.060761
0.081547
0.100174
0.066954
0.169610
0.152995
0.075136
0.137084
0.151079
0.169070
0.131375
0.048553
0.207943
0.233243
0.199886
0.108745
0.252792
0.149517
0.273569
0.199689
0.326105
0.261782
0.215791
0.183118
0.253786
0.207941
0.224453
0.240733
0.084901
0.178860
0.089424
0.205193
0.123981
0.153982
0.155809
0.108553
0.070979
0.126007
0.119789
0.050229
0.089758
0.075059
0.091890
0.048513
0.095873
0.085407
0.032014
0.100952
0.101002
0.110194
-0.004884
0.026546
0.036920
0.078462
0.126640
0.009138
0.078806
0.133235
0.186997
0.459668
0.782311
0.992884
1.395697
1.389040
1.356548
1.107048
0.758151
0.379006
0.118225
-0.167200
-0.159330
-0.201666
-0.176631
-0.014065
0.033251
0.021387
0.062891
0.111604
0.096944
0.004757
0.105006
0.120080
0.062628
0.040197
0.133859
0.139164
0.096080
0.169345
0.103195
0.234112
0.209902
0.189479
0.228646
0.184189
0.301962
0.295761
0.238061
0.232952
0.316952
0.339813
0.475183
0.366965
0.343318
0.401663
0.458107
0.429064
0.449805
0.460938
0.544859
0.504588
0.463284
0.559444
0.612075
0.577783
0.552884
0.518256
0.476257
0.514640
0.540052
0.559632
0.541884
0.536328
0.508797
0.394831
0.397298
0.471001
0.386966
0.376925
0.372096
0.374716
0.349638
0.261558
0.273423
0.228122
0.206583
0.187790
0.165718
0.217679
0.161109
0.175343
0.079306
0.165157
0.065207
0.121330
0.059613
-0.011030
0.070252
0.087982
0.076262
0.089548
0.052415
0.112609
0.104317
0.011060
-0.011733
0.041062
0.064076
0.040940
0.048277
-0.040881
-0.079139
-0.017033
0.043372
0.067689
0.100200
0.001540
0.056019
-0.013748
-0.004088
0.022457
-0.052318
0.012682
0.026608
0.036213
-0.030149
0.015631
-0.013655
0.023068
-0.021472
0.084026
0.006478
-0.039731
0.008544
-0.009859
0.033138
0.058259
-0.005759
-0.022072
-0.093554
-0.066737
0.008434
0.007617
0.082319
0.038392
0.037820
0.002749
-0.013766
-0.036927
0.019556
-0.023612
-0.029226
0.034619
-0.001071
-0.026924
-0.101541
0.007957
0.089804
0.045085
0.004575
0.010362
0.033327
0.012708
0.112326
0.108760
0.043174
0.064053
0.051625
0.067766
0.128251
0.121265
0.107310
0.104115
0.153930
0.073221
0.160229
0.188254
0.128304
0.218114
0.107328
0.220427
0.194650
0.172229
0.153717
0.092920
0.102742
0.054471
0.109855
0.132533
0.074532
-0.013904
0.090673
0.132252
0.033534
0.045606
0.092673
0.012659
0.001297
0.015111
-0.028789
-0.037122
0.067867
-0.112866
-0.014345
-0.078825
-0.019828
-0.033851
0.052429
-0.050148
-0.014356
-0.002653
-0.089219
-0.037200
-0.047716
-0.006730
0.152042
0.524591
0.807504
1.090020
1.272361
1.308860
1.214473
0.788891
0.487261
0.157698
-0.163096
-0.205383
-0.313873
-0.352693
-0.243231
-0.149158
-0.078408
-0.082817
-0.056744
-0.065493
0.004736
-0.118143
0.069500
0.027659
-0.087617
0.020241
0.048858
0.038118
0.014685
0.007092
0.044756
0.058859
-0.014255
0.064668
0.090007
0.086731
0.057462
0.145896
0.084667
0.211438
0.187054
0.262248
0.276983
0.271020
0.307976
0.397720
0.342121
0.326464
0.329037
0.316234
0.408656
0.432527
0.357996
0.490376
0.401198
0.418047
0.404618
0.453184
0.413358
0.392306
0.406765
0.396506
0.415529
0.411471
0.365992
0.364286
0.326274
0.324600
0.239544
0.231834
0.280955
0.319839
0.212555
0.253618
0.141644
0.134566
0.190291
0.074011
0.025294
0.087441
0.037366
0.060824
-0.023042
-0.032999
0.056548
0.001227
0.002739
-0.071082
-0.038918
-0.094747
-0.148339
-0.064354
-0.120166
-0.125589
-0.041556
-0.027342
0.022670
-0.105441
-0.077653
-0.045742
-0.053473
-0.085490
0.016607
-0.038669
-0.024129
-0.125420
-0.146864
-0.235121
-0.104856
-0.112840
-0.101400
-0.054352
-0.041471
-0.117850
-0.068007
-0.104749
-0.053841
-0.118276
-0.069914
-0.152502
-0.096941
-0.082407
-0.161598
-0.095369
-0.025969
-0.060003
-0.047567
-0.077125
-0.063641
-0.084712
-0.095486
-0.145230
-0.071311
-0.158530
-0.079364
-0.117349
-0.095033
-0.098772
-0.137164
-0.148332
-0.035649
-0.124558
-0.110922
-0.150015
-0.017323
-0.097287
-0.039784
-0.115482
-0.109253
-0.075514
-0.085522
-0.024869
0.001685
-0.028568
0.039228
0.012083
0.003095
-0.022686
-0.054766
0.022293
-0.062545
0.068149
0.050413
0.036043
0.086555
0.103746
0.156286
0.055157
0.037624
0.094140
0.029562
0.054304
0.065003
0.072280
0.056955
0.053410
-0.030483
0.117398
0.022009
0.019393
-0.016343
-0.018735
-0.059050
0.020890
-0.066727
-0.009498
-0.023506
-0.105915
-0.096218
-0.150501
-0.116399
-0.096958
-0.102386
-0.102590
0.003728
-0.049839
-0.122466
-0.173338
-0.173904
-0.121842
-0.151947
-0.152049
-0.076819
-0.176321
-0.029676
0.062588
0.270377
0.636080
0.894291
1.176688
1.275784
1.294763
0.978668
0.589965
0.312706
-0.026603
-0.284434
-0.327905
-0.305419
-0.282838
-0.141160
-0.104203
-0.061262
-0.132274
-0.030188
-0.078161
-0.175943
-0.015143
-0.001187
-0.001562
-0.051364
-0.101611
-0.023061
0.003712
-0.009182
0.001375
0.059359
-0.064376
0.116148
0.054621
0.089045
0.108990
0.156033
0.152850
0.151924
0.161548
0.147392
0.312074
0.313661
0.287527
0.262554
0.359080
0.348573
0.431314
0.365451
0.444907
0.471866
0.450740
0.444386
0.437495
0.425005
0.479857
0.415466
0.375211
0.493330
0.451623
0.469854
0.425565
0.390064
0.354369
0.366349
0.417157
0.351580
0.361252
0.292353
0.290886
0.279435
0.252221
0.200322
0.179855
0.143072
0.219503
0.118265
0.145585
0.153452
0.055918
0.123511
0.051026
0.077844
0.022018
0.032061
0.025269
-0.037186
-0.062265
-0.064043
-0.002419
0.040127
-0.003638
-0.122669
-0.001619
-0.076143
-0.006323
0.013325
-0.087274
-0.028194
-0.047481
-0.058549
-0.033975
0.049249
0.031094
-0.054783
0.018024
-0.036778
-0.035781
-0.048823
-0.058969
-0.067448
-0.046591
-0.119127
-0.010905
-0.030019
-0.044546
-0.006139
-0.040170
-0.087105
-0.035999
0.025163
0.071851
-0.022348
-0.023922
-0.059959
-0.027286
-0.100429
0.027097
0.039162
-0.087663
-0.012584
-0.060448
-0.072866
-0.045759
-0.022411
0.012953
-0.009655
-0.066955
-0.036781
-0.064970
0.067524
0.014443
0.008390
0.021494
0.048768
0.012457
-0.081477
0.025562
0.038736
0.028419
-0.005145
-0.009886
0.095230
0.088225
0.099428
0.005686
0.070575
0.158381
0.177557
0.063591
0.063239
0.082162
0.168660
0.130073
0.081897
0.144843
0.207569
0.149669
0.249438
0.237352
0.145438
0.243078
0.134415
0.213235
0.201592
0.086001
0.131865
0.118136
0.090885
0.089045
0.082746
0.111724
0.084509
0.115345
0.126690
0.124851
-0.019593
0.001715
0.005344
-0.068525
0.073942
0.022368
-0.031911
-0.005618
0.020443
0.061897
-0.009776
0.019183
0.018798
0.062341
0.014771
0.064370
-0.004213
0.056164
0.067324
0.323530
0.502030
0.841557
1.239071
1.395914
1.349271
1.249259
0.815611
0.502445
0.203585
-0.054972
-0.207219
-0.189620
-0.249027
-0.115550
-0.020569
0.019117
0.013803
0.027566
0.110812
0.106017
0.113459
0.122544
0.111807
0.087947
0.095276
0.118506
0.137770
0.077973
0.183308
0.221397
0.135028
0.254662
0.217251
0.128340
0.178728
0.248200
0.362982
0.251205
0.293115
0.254874
0.351136
0.338129
0.425996
0.348601
0.495220
0.468759
0.611856
0.512760
0.546621
0.530910
0.519552
0.547985
0.533864
0.605964
0.590677
0.585865
0.574178
0.548513
0.512544
0.555330
0.485707
0.530262
0.466812
0.464580
0.576920
0.545015
0.452791
0.441573
0.408764
0.303297
0.348565
0.340506
0.353351
0.309303
0.321160
0.294337
0.182723
0.147254
0.273252
0.204195
0.183912
0.203153
0.130009
0.245315
0.124276
0.101138
0.140234
0.119933
0.155693
0.178387
0.055005
0.026774
0.141984
0.014065
0.103438
-0.003941
0.087572
0.049799
0.005717
0.064169
0.108803
0.095130
-0.021947
0.056152
0.006874
0.019817
0.091382
0.088617
0.071487
0.037751
0.048950
0.127618
0.024597
0.118131
0.028411
0.045393
0.026200
0.083602
0.094130
0.015159
0.064942
0.022889
0.045738
0.003624
0.181106
0.018117
0.048213
0.022342
0.072814
0.047256
0.095521
0.124141
0.091923
0.108874
0.168368
-0.037120
0.094448
0.121126
0.054820
0.043890
0.089030
0.086640
0.019609
0.067914
0.104455
0.021907
0.094406
0.117399
0.113354
0.012075
0.118323
0.060856
0.089190
0.154944
0.097466
0.120009
0.133838
0.225195
0.216044
0.246309
0.235811
