0.012765
0.038640
0.037872
0.076245
-0.025697
0.018793
0.040788
-0.042855
-0.003224
-0.039494
0.009096
0.003609
-0.057056
0.030792
-0.041641
0.088818
0.010682
-0.003239
-0.018143
-0.003745
0.063486
0.031085
-0.023935
0.114241
0.102414
0.055039
0.104908
0.105650
0.147589
0.090012
0.034432
0.174699
0.170975
0.208728
0.237991
0.161726
0.140369
0.192009
0.183373
0.182860
0.213910
0.160482
0.145825
0.167733
0.238266
0.175078
0.183923
0.198236
0.096709
0.103087
0.132026
0.121785
0.106437
0.118425
0.210892
0.096761
0.088834
0.071215
0.058949
0.108567
0.037285
0.135513
0.047657
0.092332
0.074756
0.073798
0.029074
-0.037449
0.085207
0.074390
0.036013
0.030374
0.082547
0.178566
0.362435
0.673661
1.041544
1.336860
1.404340
1.347964
1.020237
0.703024
0.366664
0.108078
-0.082484
-0.172686
-0.118851
-0.049371
-0.087931
0.009944
0.004908
0.060252
0.094639
0.085843
0.091747
0.063044
0.100519
0.049432
0.192614
0.155964
0.146132
0.294616
0.159088
0.254488
0.208728
0.236722
0.198120
0.163044
0.375039
0.355505
0.306043
0.363954
0.488859
0.363710
0.447083
0.435602
0.439958
0.473349
0.509380
0.538329
0.566917
0.541673
0.533893
0.643812
0.601516
0.523194
0.547784
0.607549
0.525674
0.606331
0.564348
0.578289
0.545151
0.550118
0.500514
0.549336
0.463769
0.465762
0.477861
0.383695
0.411893
0.399342
0.325999
0.367856
0.348137
0.305980
0.240079
0.272643
0.243457
0.303752
0.276862
0.314330
0.217897
0.136587
0.156867
0.173533
0.196773
0.171411
0.116726
0.054290
0.129972
0.139894
0.147785
0.105080
0.073907
0.116022
0.116866
0.032449
0.020835
0.115621
0.064474
0.082893
0.086284
0.090473
0.064530
0.144271
0.050876
0.048276
0.010436
0.043320
0.004625
0.149550
0.023852
0.110634
0.129560
0.097203
0.059272
0.019443
0.079004
0.094919
0.052039
0.139351
0.076176
0.117939
0.036108
0.114057
0.028526
0.076950
0.081244
0.073664
0.083422
0.108295
0.133944
0.121553
0.135004
0.037995
0.077077
0.113115
0.049949
0.083440
0.164218
0.118598
0.147184
0.077336
0.093482
0.133674
0.174286
0.195961
0.081887
0.207782
0.155697
0.160226
0.163401
0.189165
0.172595
0.190784
0.207566
0.176209
0.188983
0.271753
0.270004
0.295857
0.228663
0.246757
0.191697
0.248402
0.211193
0.220831
0.188183
0.251496
0.221593
0.193983
0.176706
0.145333
0.152206
0.196057
0.121949
0.217089
0.165117
0.069294
0.108557
0.072214
0.104308
0.042724
0.162553
0.044499
0.000396
0.009189
0.072747
0.132850
0.097393
0.089936
0.145460
0.046430
0.085430
0.076760
0.067497
0.143965
0.327868
0.569480
0.825532
1.231480
1.326074
1.500000
1.316944
0.985916
0.662582
0.254928
0.051720
-0.134059
-0.036710
-0.080196
-0.062960
0.059047
-0.040483
0.100975
0.147325
0.058166
0.078352
0.164140
0.171326
0.148017
0.138785
0.252473
0.171331
0.227952
0.251447
0.245756
0.192907
0.209863
0.276493
0.239309
0.266749
0.271985
0.319580
0.333129
0.436444
0.393513
0.429948
0.362010
0.426620
0.531470
0.436648
0.566574
0.406223
0.511987
0.553408
0.604260
0.555119
0.450475
0.514894
0.631292
0.556031
0.510285
0.470453
0.547174
0.561977
0.510511
0.478246
0.408262
0.478758
0.515792
0.427858
0.440948
0.373905
0.402165
0.301706
0.365183
0.264859
0.245010
0.224571
0.272679
0.207966
0.225495
0.160501
0.129825
0.219935
0.168437
0.123543
0.162539
0.125238
0.125312
0.084697
0.039362
0.106035
0.107925
0.099345
0.008028
0.083573
0.015546
0.021052
0.025929
0.079464
0.003923
0.056988
0.057494
0.024718
0.112486
0.006012
-0.001210
-0.004216
-0.003666
0.059525
-0.020777
0.050749
0.030054
0.070599
0.083335
0.011940
0.024010
0.050062
-0.014741
-0.030655
0.015300
-0.020485
0.034779
0.082937
0.063450
-0.006510
-0.030014
-0.040960
-0.058857
0.044246
0.033715
0.078045
0.026663
0.011167
0.010513
-0.033182
0.015226
0.078064
0.088366
-0.048275
0.042965
0.080981
-0.018667
-0.020544
-0.035347
0.031870
0.064505
0.059028
0.024616
0.045202
0.057383
0.024484
0.130552
0.110880
0.031462
0.147237
0.055947
0.068159
0.073258
0.117855
0.129919
0.097584
0.146350
0.135072
0.119002
0.190555
0.117501
0.145182
0.200369
0.106389
0.148245
0.112312
0.175109
0.207852
0.115319
0.162549
0.066835
0.081924
0.030263
0.003782
0.068651
0.097583
0.054390
0.042637
0.032356
0.023800
0.069569
0.026541
0.082387
-0.048876
0.062120
-0.041676
0.011794
-0.014766
0.053269
-0.039938
-0.048603
0.012556
-0.019684
0.080142
0.251907
0.503059
0.817757
1.196251
1.289958
1.322532
1.124124
0.885176
0.441619
0.106405
-0.019632
-0.220596
-0.229133
-0.148426
-0.053848
-0.086490
-0.027629
-0.025434
-0.004559
-0.069301
0.015768
0.022125
0.021573
0.072531
0.176564
0.030018
0.085855
0.096720
0.144235
0.083812
0.111588
0.066361
0.136689
0.165565
0.262372
0.213435
0.241179
0.232887
0.291924
0.311976
0.345036
0.335661
0.323689
0.405631
0.347868
0.369816
0.419073
0.418213
0.428272
0.539858
0.522742
0.527282
0.375606
0.519205
0.453281
0.444942
0.441848
0.484834
0.504036
0.440210
0.418074
0.401414
0.375740
0.340597
0.351354
0.228466
0.325691
0.311523
0.270910
0.259061
0.264347
0.236630
0.189208
0.158546
0.242829
0.196905
0.101588
0.136392
0.097335
0.036034
0.032529
0.092324
0.023003
0.002906
0.039603
-0.033504
-0.087318
-0.086566
-0.034122
-0.064661
-0.076679
0.071296
0.021134
-0.003447
-0.030463
-0.040780
-0.045164
0.011445
-0.004949
-0.019988
-0.020828
0.016291
-0.081148
0.008276
0.032780
-0.038052
-0.130155
0.031508
-0.081153
0.005105
-0.045365
0.020318
-0.095671
-0.078012
-0.091671
-0.104141
-0.024378
0.075514
0.029716
-0.104260
-0.063222
-0.017919
-0.064593
0.006756
-0.062365
-0.063100
-0.095864
-0.030980
-0.141223
0.033097
-0.029531
-0.034108
-0.018951
-0.048520
-0.072238
-0.002915
0.059735
-0.060319
-0.015557
0.072586
-0.031098
0.050235
-0.007918
-0.011913
-0.046696
-0.046413
-0.004627
0.018908
0.008421
0.077461
0.061899
0.138369
0.065077
0.084664
0.160353
0.103972
0.178980
0.077859
0.080159
0.071895
0.219998
0.166868
0.153723
0.147377
0.062842
0.146433
0.136341
0.102764
0.065203
0.098595
0.123816
0.069184
0.117872
0.062124
0.043065
0.031912
0.014077
0.051143
0.055466
0.106433
0.047203
-0.014219
-0.009396
-0.016751
-0.026836
-0.024977
0.007678
-0.046368
-0.029805
-0.015040
-0.010675
-0.084501
0.040964
-0.034916
0.042734
0.240885
0.567985
0.894182
1.141030
1.328414
1.302474
1.149404
0.751940
0.416813
0.142390
-0.106849
-0.217476
-0.276169
-0.151963
-0.118144
-0.103899
-0.009395
-0.038245
-0.017006
0.007443
-0.020010
0.027828
0.094932
0.015710
0.089365
0.103986
0.100156
0.042206
0.140078
0.138435
0.047156
0.212585
0.192835
0.247405
0.224251
0.186123
0.135418
0.212864
0.273549
0.277625
0.403590
0.397147
0.412330
0.322578
0.337073
0.506544
0.422563
0.499658
0.533819
0.499236
0.489684
0.593172
0.585425
0.489454
0.503113
0.533649
0.534896
0.481982
0.405528
0.504787
0.414915
0.525570
0.498524
0.382919
0.348584
0.320841
0.375770
0.368788
0.336205
0.371753
0.203778
0.342173
0.257913
0.222101
0.209191
0.126656
0.164623
0.229918
0.164183
0.119658
0.092186
0.074808
0.144488
0.108806
0.060213
0.120390
0.104595
0.131875
0.060366
-0.000474
0.079522
0.008262
0.025965
0.063463
0.028643
0.004330
0.081706
0.092197
0.069849
0.056842
0.097216
0.019324
0.061197
0.004442
0.023597
-0.007215
0.025588
-0.004289
-0.038709
0.032918
0.045306
0.076615
0.007549
0.023427
-0.004850
0.071929
0.043453
0.026334
0.036077
0.044429
0.028612
0.058368
0.088575
-0.030789
0.028913
-0.034515
0.058650
-0.058541
0.035046
0.082315
0.016569
0.066748
0.102807
-0.013233
0.060236
0.014483
0.024518
0.104591
0.014513
0.070523
0.022084
0.082322
0.111294
0.099280
0.046692
0.158194
0.092371
0.042205
0.169555
0.107928
0.101720
0.135732
0.097327
0.113395
0.225634
0.287243
0.224492
0.203492
0.210165
0.229084
0.318575
0.180997
0.245391
0.297250
0.191693
0.232716
0.188775
0.199124
0.140703
0.097218
0.176653
0.090772
0.229452
0.143873
0.129614
0.131916
0.174809
0.074729
0.040949
0.205459
0.114978
0.043121
0.172311
0.147672
0.093141
0.122630
0.062111
0.049006
-0.046757
0.065142
0.097036
0.096032
0.048867
0.101838
0.231799
0.394962
0.655167
0.979900
1.326323
1.411948
1.393355
1.239169
0.861761
0.480383
0.073188
-0.039991
-0.122178
-0.182649
-0.095437
0.032508
0.048087
0.117055
0.098646
0.186325
0.136642
0.116065
0.202799
0.118180
0.064428
0.208793
0.201069
0.157430
0.186356
0.240777
0.252694
0.274939
0.223618
0.266919
0.306291
0.326728
0.407629
0.346738
0.448076
0.345014
0.447200
0.479241
0.456703
0.540389
0.530831
0.572728
0.524367
0.579506
0.633670
0.593681
0.620587
0.677432
0.559756
0.574849
0.582229
0.631777
0.694045
0.567269
0.488233
0.558217
0.561023
0.495787
0.534992
0.499898
0.537916
0.493285
0.497554
0.418835
0.398632
0.358697
0.456591
0.430311
0.356917
0.341380
0.270581
0.274660
0.265059
0.257004
0.226843
0.343681
0.241311
0.126984
0.131651
0.093405
0.180202
0.143746
0.144372
0.132378
0.191158
0.097091
0.067004
0.167619
0.167809
0.117823
0.146002
0.031033
0.116497
0.120620
0.091738
0.042119
0.074963
0.107650
0.035190
0.100194
0.075130
0.045042
0.094916
0.062502
0.097440
0.106245
0.065201
0.064881
0.072263
0.089609
0.066638
0.072380
0.096454
0.195713
0.062771
0.183695
0.001902
0.116938
0.183405
0.110327
0.089529
0.135534
0.128365
0.100769
0.059822
0.119885
0.068627
0.139694
0.114366
0.100679
0.093907
0.116245
0.080191
0.051704
0.175912
0.079141
0.096505
0.062098
0.020375
0.146262
0.112842
0.139878
0.156070
0.176990
0.262558
0.145152
0.156146
0.222433
0.164100
0.129934
0.204752
0.189155
0.171133
0.238985
0.261556
0.276602
0.263129
0.260791
0.225471
0.301422
0.266759
0.221994
0.318802
0.276017
0.196117
0.229553
0.265445
0.182127
0.103911
0.091498
0.173096
0.062121
0.131887
0.171124
0.069317
0.100706
0.092145
0.083556
0.124870
0.110808
0.066397
0.028761
0.032737
0.081216
0.015557
0.040577
0.140596
-0.019484
0.093248
0.099310
0.142434
0.285536
0.406091
0.835947
1.071387
1.274568
1.405329
1.305109
1.077811
0.765767
0.349740
0.048181
-0.156437
-0.258322
-0.113725
-0.092031
0.047106
0.098688
0.094456
0.103263
0.159976
0.157316
0.125301
0.181450
0.112176
0.091095
0.105027
0.139887
0.183119
0.194738
0.224862
0.251719
0.236409
0.217247
0.247007
0.274457
0.281390
0.269818
0.337420
0.346030
0.347845
0.413344
0.421886
0.401920
0.351370
0.403944
0.452197
0.484025
0.537790
0.561374
0.457197
0.484265
0.518424
0.511577
0.593569
0.528857
0.558306
0.522947
0.592952
0.540319
0.497835
0.516927
0.518722
0.398797
0.477188
0.427772
0.334988
0.361438
0.397502
0.300419
0.260979
0.324947
0.259680
0.249826
0.293041
0.207623
0.218200
0.185467
0.150678
0.211027
0.181272
0.095294
0.077720
0.155378
0.117156
-0.000031
0.011640
0.118860
0.099905
0.054554
0.052002
0.038662
-0.000025
0.015513
0.023957
0.023149
0.040880
-0.036262
0.088581
0.010142
-0.019299
0.006220
0.035822
-0.086602
-0.039253
0.007693
-0.050440
-0.030877
0.012103
0.008791
0.024552
-0.007017
0.000528
0.027689
-0.054206
-0.028024
0.017283
-0.030558
0.005315
-0.041242
0.040263
-0.036764
-0.022915
0.049689
-0.067861
-0.048587
0.003251
-0.063941
0.003255
0.041275
0.017950
0.022364
0.008847
-0.010175
0.033992
-0.013957
-0.029148
-0.050271
0.009984
-0.093745
-0.003065
0.013375
-0.020882
-0.017772
0.115596
0.017931
0.053693
-0.014075
0.002012
0.036572
0.027521
0.094770
0.085474
0.071952
0.145539
0.079548
0.084224
0.052357
0.160537
0.154145
0.116686
0.074685
0.126196
0.154953
0.042545
0.168357
0.151732
0.096481
0.148608
0.035133
0.149462
0.096101
-0.004588
0.037602
0.029152
0.023307
-0.018726
0.066539
-0.031684
-0.060688
0.040828
-0.084415
0.025495
-0.063628
0.033904
-0.033294
-0.076513
-0.071084
0.001320
0.019376
-0.010329
-0.111392
-0.082567
-0.003102
-0.066067
-0.055473
0.143289
0.369231
0.650427
1.076011
1.213198
1.281106
1.190380
0.877700
0.570596
0.157996
-0.128118
-0.270775
-0.265923
-0.323314
-0.161262
-0.207391
-0.099226
-0.026668
-0.022435
-0.116482
-0.066000
-0.073365
-0.055364
0.027127
-0.049672
0.062347
-0.033705
0.080036
0.028097
0.120302
0.136878
0.219232
0.113763
0.112110
0.129885
0.192091
0.133661
0.156370
0.253275
0.282552
0.280453
0.323055
0.347329
0.288000
0.360052
0.459439
0.389477
0.441818
0.457045
0.515378
0.454522
0.414194
0.416074
0.459830
0.367679
0.468603
0.374135
0.463512
0.430692
0.333056
0.354709
0.320594
0.384607
0.343434
0.324737
0.387942
0.227638
0.291196
0.240631
0.165739
0.158396
0.237191
0.153962
0.079741
0.089926
0.085302
0.104151
0.087528
0.079241
0.039472
0.041049
0.068956
-0.003165
0.014857
-0.064886
0.026446
-0.052677
-0.114418
-0.078587
-0.074836
0.021702
-0.065765
-0.011868
-0.109818
0.000018
-0.091175
-0.021579
-0.040700
-0.053919
-0.171255
-0.017187
-0.131124
-0.061943
-0.102125
-0.060094
-0.146036
0.075989
-0.066521
-0.098700
-0.092979
-0.113350
-0.057963
-0.019257
-0.092866
-0.077023
-0.139276
-0.114957
-0.088216
-0.096366
-0.099657
-0.109081
-0.139208
-0.018995
-0.084189
-0.054761
-0.048956
-0.125345
-0.023284
-0.049497
-0.134775
-0.038285
-0.067050
-0.060051
-0.097293
-0.055916
-0.081075
-0.032809
-0.091960
-0.075192
-0.059102
-0.000298
-0.104331
-0.008600
0.021643
-0.048586
-0.046343
-0.030581
-0.027887
-0.035994
-0.050438
0.042976
-0.023718
0.077858
0.047130
0.133322
0.141411
0.074377
0.069970
0.087215
0.140303
0.061062
0.086902
0.107127
0.165210
0.093358
-0.025707
0.031650
0.156304
0.081027
0.046930
0.123201
-0.020900
-0.022440
-0.016577
-0.004182
0.017574
0.005335
-0.088601
-0.010360
0.020226
0.050339
-0.002724
-0.003172
-0.020400
-0.049102
-0.002092
-0.035781
-0.061607
-0.034326
-0.122459
-0.079139
-0.076195
-0.134887
-0.046969
0.000321
0.224419
0.504829
0.694105
1.032048
1.262166
1.317694
1.121074
0.825498
0.480062
0.127628
-0.149395
-0.249104
-0.214352
-0.268470
-0.219064
-0.121597
-0.083630
-0.092401
-0.066886
0.010791
-0.006151
0.000571
0.015805
0.027504
-0.009057
0.057064
0.052730
0.001613
0.042613
0.128132
0.140691
0.116025
0.130560
0.101753
0.105000
0.215238
0.261803
0.268002
0.318429
0.300535
0.249093
0.352373
0.337540
0.333740
0.358247
0.410421
0.383724
0.499569
0.527259
0.445735
0.481831
0.433152
0.472761
0.471157
0.441122
0.511523
0.498056
0.539377
0.353079
0.421650
0.419181
0.448670
0.395912
0.345830
0.380990
0.290695
0.420126
0.272520
0.298410
0.230867
0.243397
0.269732
0.212506
0.226987
0.199321
0.175292
0.183141
0.097832
0.093056
0.071045
0.087523
0.065289
0.081520
0.091754
0.049873
0.036065
0.047756
-0.032737
-0.010646
0.074984
0.032397
0.050787
0.089509
0.008166
0.006990
-0.015969
0.041085
0.002373
0.015510
0.017193
0.000921
-0.114051
-0.022659
0.035969
0.035348
0.027980
0.035199
0.019319
-0.009152
0.088114
0.001007
0.052120
0.011890
0.005171
0.030927
-0.045548
0.054875
0.011153
0.018492
0.000210
-0.005149
-0.000503
0.019825
0.038778
0.023867
0.064546
-0.089003
0.010763
0.043030
-0.021639
-0.072611
0.003864
0.051919
0.093991
0.004834
0.018491
0.025741
-0.029591
0.124625
-0.053718
0.033272
0.027353
0.092411
0.075942
0.040231
0.044243
0.081933
0.085524
0.099843
0.066921
0.168713
0.114343
0.187283
0.173379
0.176860
0.281631
0.243404
0.177992
0.247789
0.091313
0.185431
0.146274
0.172499
0.154058
0.141047
0.063542
0.211562
0.213075
0.191381
0.175081
0.157194
0.132436
0.085646
0.100004
0.118610
0.142313
0.081288
0.020606
0.065793
0.062390
-0.040800
0.029974
0.068925
0.071571
0.057542
-0.001202
0.065987
0.114093
0.023029
0.031706
-0.003453
-0.026215
-0.003540
0.060454
0.092360
0.404621
0.596528
0.922826
1.148301
1.459414
1.342938
1.193076
0.851069
0.446219
0.165959
-0.078657
-0.189518
-0.183103
-0.116781
-0.120093
0.032155
0.060083
0.107962
0.064275
0.049396
0.069895
0.118572
0.133075
0.143062
0.102975
0.049434
0.024472
0.172069
0.196733
0.165022
0.184616
0.172456
0.189510
0.170153
0.289195
0.287331
0.284932
0.285332
0.385296
0.373724
0.442959
0.472456
0.410393
0.487873
0.475071
0.454181
0.388122
0.487424
0.622652
0.434014
0.536776
0.533718
0.520791
0.619901
0.515620
0.524478
0.509916
0.498543
0.489395
0.531666
0.492802
0.481685
0.434294
0.461060
0.455268
0.431215
0.306321
0.435390
0.342842
0.345670
0.310933
0.300115
0.277483
0.326046
0.236745
0.253566
0.234385
0.223613
0.116540
0.127867
0.187417
0.121956
0.142623
0.071001
0.106668
0.162766
0.141885
0.117298
0.104718
0.038982
0.055962
-0.005725
0.039288
0.083190
0.007035
0.087743
0.076974
-0.060429
0.033855
0.041706
0.029045
0.026515
0.117855
0.057871
0.014001
0.036753
0.042879
0.001999
0.100520
0.041860
0.028523
-0.048697
0.026707
-0.028550
0.010151
0.019441
0.048175
0.004035
0.027317
0.028930
0.072336
-0.032894
0.047733
0.023257
0.028634
-0.060344
0.090631
0.077228
0.123143
0.016625
-0.000491
-0.079306
-0.017191
0.029848
0.020838
0.096901
0.040085
0.098767
0.078073
0.060428
0.071124
-0.005702
-0.016641
0.048718
0.009847
0.150701
0.115562
0.139942
0.047101
0.082691
0.113107
0.091678
0.118119
0.135309
0.117253
0.167331
0.226291
0.143954
0.174071
0.242404
0.219089
0.169970
0.216813
0.207936
0.207259
0.154262
0.171425
0.152219
0.180721
0.098223
0.179212
0.176657
0.046134
0.087235
0.033621
0.165551
-0.008353
0.112951
0.122391
0.017133
-0.046005
0.005040
0.093307
0.110764
0.066033
-0.033000
0.062453
-0.036208
0.033007
0.062692
-0.038418
-0.039319
-0.033015
0.112001
0.193616
0.323076
0.616403
0.912690
1.203952
1.339744
1.285519
1.137739
0.740711
0.336581
0.059568
-0.105546
-0.203621
-0.223149
-0.132528
-0.057548
0.045240
0.084404
0.089553
0.076534
0.044507
0.084709
0.096529
0.081552
0.073640
0.068119
0.081717
0.054436
0.142591
0.115972
0.170464
0.132977
0.271165
0.160167
0.204693
0.161454
0.153413
0.247542
0.177188
0.283603
0.321349
0.367996
0.318914
0.289966
0.462075
0.406007
0.461166
0.435595
0.491604
0.408307
0.439402
0.505644
0.466339
0.505004
0.466064
0.481021
0.487785
0.485309
0.516224
0.404500
0.402469
0.386506
0.313014
0.407095
0.372410
0.405354
0.373130
0.272986
0.199535
0.309320
0.291507
0.212782
0.172411
0.140646
0.198590
0.157073
0.161968
0.126293
0.124675
0.116319
0.069115
0.050141
0.010386
0.045730
-0.023057
0.004946
0.024312
-0.012387
0.040994
-0.003982
-0.028306
0.087463
0.069684
-0.018509
-0.062654
-0.052062
-0.048214
0.016054
-0.122130
-0.022356
-0.000740
-0.174251
-0.134422
-0.060111
-0.060310
0.036249
-0.049134
0.028226
-0.053156
-0.051586
-0.080529
-0.068239
-0.043563
-0.012880
-0.029922
-0.023348
-0.080267
-0.094266
-0.045563
-0.053535
-0.052928
-0.067696
-0.103414
-0.014632
0.004364
-0.078146
-0.028360
0.008647
-0.112005
-0.033015
-0.111318
-0.010977
-0.097788
-0.063588
-0.121740
-0.059557
-0.015970
-0.045176
-0.033646
-0.097231
-0.068527
-0.032099
-0.096272
0.002086
-0.071679
-0.083427
0.005388
0.004668
0.037783
0.040438
0.082758
0.006702
0.055250
0.056700
0.052560
0.136798
0.172712
0.188727
0.092487
0.114202
0.085286
0.090607
0.056813
0.027495
0.121782
0.096527
0.031010
0.006562
0.064840
0.011035
0.019060
-0.034141
0.037521
0.021132
-0.077549
-0.085824
0.037336
-0.070331
-0.003373
-0.071118
-0.062604
-0.061001
-0.080594
-0.132947
-0.065494
-0.051023
-0.038560
-0.095496
-0.088762
-0.121471
-0.123926
-0.165649
-0.099616
-0.069202
-0.009151
0.099771
0.300811
0.598216
0.908468
1.155009
1.247404
1.208493
0.939673
0.628612
0.208125
-0.084625
-0.255052
-0.311077
-0.342674
-0.243937
-0.203603
-0.125005
-0.136467
-0.061292
-0.041172
-0.047176
-0.003528
0.031401
-0.112895
-0.076265
0.022970
0.086022
0.004103
0.039042
0.047532
0.045505
0.039332
0.110929
0.056971
0.099409
0.223852
0.182309
0.153546
0.224691
0.234666
0.217370
0.249016
0.256501
0.356518
0.312734
0.351749
0.384763
0.328584
0.381452
0.447209
0.402396
0.380226
0.404873
0.356604
0.381423
0.399854
0.370036
0.355576
0.382556
0.394641
0.350888
0.310063
0.342310
0.341045
0.290486
0.306038
0.264318
0.320720
0.249005
0.235417
0.144937
0.175452
0.098060
0.087681
0.081643
0.090766
0.131675
0.065245
-0.011799
0.092419
-0.075243
-0.057833
0.105091
-0.029421
-0.011883
0.036703
-0.072142
-0.070129
-0.106245
-0.005526
-0.043266
-0.117930
-0.053456
-0.054802
-0.103689
-0.023199
-0.075562
-0.088234
-0.066776
-0.097265
-0.171687
-0.009283
-0.087129
-0.085791
-0.088577
-0.039077
-0.096595
-0.032719
-0.080517
-0.109018
-0.020901
-0.072793
-0.117377
-0.171955
-0.079337
-0.029838
-0.057829
-0.109326
-0.130671
-0.035175
-0.030169
-0.143619
-0.086711
-0.038471
-0.015697
-0.092110
-0.129558
-0.030414
-0.055667
-0.066764
-0.015857
-0.106798
-0.136914
0.036143
-0.108433
-0.112934
-0.056736
-0.091386
-0.051233
-0.096905
-0.015619
-0.074470
-0.072560
-0.035020
-0.033162
0.025472
-0.000334
0.039877
-0.040133
-0.035436
0.027298
0.066253
0.056310
0.042510
0.023746
0.106288
0.000223
0.100821
0.074945
0.106168
0.107026
0.078064
0.054932
0.105771
0.113358
0.189020
0.086668
-0.003929
0.085531
0.116022
0.006691
0.043428
-0.038413
0.049987
0.009548
0.022770
-0.000177
-0.046273
-0.088612
-0.093266
0.007766
-0.100156
0.000933
-0.123319
-0.060316
-0.017048
-0.070849
-0.088937
-0.109282
-0.103974
0.004959
-0.049951
-0.116960
-0.037578
-0.028527
0.165230
0.428039
0.684269
1.043606
1.283314
1.239418
1.136159
0.925006
0.557128
0.199834
0.008447
-0.252140
-0.247505
-0.229789
-0.187763
-0.083928
-0.125901
-0.039016
0.036995
0.073739
0.076714
-0.029584
-0.038755
0.013986
-0.007472
0.024198
0.017521
-0.029130
0.039167
0.120173
0.204474
0.179691
0.177308
0.168092
0.151395
0.178414
0.108562
0.222276
0.245568
0.207113
0.464618
0.331937
0.315160
0.400059
0.413919
0.470948
0.395414
0.410244
0.441241
0.422198
0.452250
0.533708
0.466802
0.449129
0.496677
0.540907
0.463130
0.482530
0.473130
0.526480
0.442352
0.457575
0.404144
0.438728
0.390395
0.357519
0.294396
0.360262
0.307118
0.193477
0.188627
0.269545
0.252132
0.312479
0.240990
0.147450
0.218980
0.131472
0.094319
0.189666
0.099324
0.166827
0.135768
0.055367
0.082676
0.036542
0.054863
0.044423
0.096241
0.088085
0.016568
-0.049212
0.076748
-0.056714
-0.000033
0.016131
0.004414
-0.013820
0.100053
0.039874
-0.046653
-0.002745
0.113898
0.049177
0.009354
-0.005191
0.004286
0.010095
0.064682
-0.075519
-0.016981
0.044349
0.107587
0.027178
-0.012782
-0.048027
-0.044373
-0.033518
0.010769
0.077626
-0.017274
0.047334
0.021048
0.086770
0.101310
0.054435
-0.056103
0.005746
-0.010357
0.052325
0.046705
0.092155
0.097960
0.053415
0.008622
0.004427
0.099956
0.010897
0.056504
0.076390
0.063451
0.078283
0.065001
0.099267
0.004129
0.166899
0.156936
0.094255
0.189285
0.153933
0.202869
0.113256
0.198134
0.183018
0.107955
0.198531
0.151233
0.199617
0.243855
0.178889
0.194311
0.184897
0.291599
0.179752
0.195308
0.212750
0.128950
0.276535
0.183341
0.102201
0.137079
0.223344
0.056973
0.081276
0.127322
0.103838
0.149969
0.081442
0.055718
0.042558
0.054398
0.075202
0.070602
0.185178
0.004713
0.069699
0.016404
0.046305
0.117633
0.040863
0.064754
0.048222
0.005191
0.086750
0.158029
0.316314
0.466604
0.824220
1.182947
1.335932
1.430592
1.260254
0.954568
0.516884
0.283533
-0.005906
-0.170232
-0.228366
-0.072808
-0.039629
-0.001379
0.064589
0.104208
0.116747
0.059078
0.144244
0.116973
0.199564
0.244044
0.150053
0.188114
0.110659
0.193662
0.213242
0.104782
0.167372
0.292647
0.232477
0.318957
0.187302
0.264140
0.228442
0.350254
0.417160
0.420329
0.431839
0.428841
0.487530
0.452616
0.443100
0.581991
0.578387
0.556627
0.500125
0.606623
0.503012
0.584098
0.604542
0.638533
0.595102
0.602828
0.532379
0.493957
0.610229
0.553059
0.559939
0.487458
0.595866
0.534090
0.466023
0.433590
0.411226
0.400940
0.447521
0.356524
0.407620
0.343861
0.295976
0.266421
0.231144
0.279385
0.269598
0.207663
0.114404
0.225738
0.200006
0.143831
0.099013
0.212686
0.164252
0.066047
0.116181
0.076204
0.156214
