0.021102
-0.055831
-0.007659
0.066667
-0.001506
0.013110
0.000702
0.063114
0.048848
-0.043427
0.031350
0.069827
-0.001322
0.044551
-0.025888
0.040935
0.074486
-0.055553
0.074854
0.075428
-0.008495
0.039898
0.018553
0.065139
0.051930
0.008187
0.017447
0.081072
0.096788
0.143759
0.190836
0.114030
0.207463
0.170296
0.163651
0.199645
0.128954
0.211220
0.194736
0.131381
0.288623
0.161482
0.267694
0.125262
0.216407
0.103875
0.120285
0.204198
0.110962
0.121462
0.185811
0.095041
0.087830
0.183458
0.103717
0.040471
0.036488
0.019012
0.106037
0.071429
0.070134
0.054087
0.037066
-0.010905
0.017424
0.068538
0.071440
0.069222
0.032220
-0.004976
0.045857
0.015807
0.073316
0.285704
0.423330
0.796632
1.133431
1.369730
1.426128
1.269070
1.079722
0.690787
0.372022
0.016916
-0.114972
-0.164951
-0.135253
-0.015187
0.034656
-0.066858
0.073847
0.097941
0.015786
0.073095
0.059004
0.124417
0.075282
0.142597
0.107181
0.208413
0.083409
0.201741
0.198700
0.232710
0.209533
0.250711
0.290214
0.267731
0.313992
0.399494
0.368458
0.287098
0.384562
0.389059
0.440285
0.461011
0.470817
0.492725
0.532342
0.539788
0.503951
0.589962
0.517017
0.637878
0.625799
0.565865
0.566508
0.679576
0.521132
0.610470
0.542022
0.548809
0.622773
0.583532
0.456514
0.529088
0.456407
0.395016
0.479280
0.440073
0.400151
0.417924
0.417917
0.325599
0.277803
0.293575
0.307275
0.270660
0.210821
0.256033
0.224342
0.218127
0.169213
0.172559
0.298712
0.170415
0.102335
0.108203
0.096473
0.170441
0.039416
0.153826
0.072409
0.139064
0.152950
0.177438
0.065284
0.149626
0.087954
0.061935
0.024537
0.078228
0.007294
0.010618
0.124900
0.043334
0.078435
0.112552
0.091227
0.090313
0.072146
0.007759
0.157823
0.057913
0.084576
0.098881
0.128452
0.139119
0.098514
0.121972
0.112503
0.097241
0.089555
0.040763
0.107085
0.056969
0.109092
0.090524
0.064655
0.081385
0.111476
0.000646
0.116913
0.031549
0.098029
0.024065
0.071745
0.025274
0.134044
0.095166
0.139587
0.061438
0.114720
0.124454
0.111435
0.086427
0.028456
0.146012
0.173236
0.202284
0.128050
0.154845
0.220580
0.250736
0.183096
0.258001
0.273713
0.185567
0.199993
0.110793
0.209724
0.322464
0.215368
0.333556
0.172003
0.296757
0.208433
0.262499
0.230649
0.248146
0.181457
0.243418
0.224975
0.187232
0.214508
0.211750
0.142973
0.122926
0.163354
0.152610
0.080622
0.113051
0.160326
0.099918
0.103833
0.159905
0.015076
0.061740
0.163509
0.108571
0.118045
0.100293
0.165820
0.087712
0.147848
0.147220
0.071013
0.202490
0.319028
0.509451
0.796896
1.188306
1.437069
1.492356
1.296481
1.056640
0.666155
0.332687
0.086437
-0.105439
-0.102950
-0.115143
-0.108584
-0.059341
0.019508
0.112027
0.192532
0.080255
0.106929
0.107600
0.099360
0.163782
0.186497
0.147461
0.162687
0.123415
0.196009
0.236868
0.166173
0.191542
0.231686
0.160047
0.250082
0.312885
0.336984
0.293938
0.285573
0.400104
0.484742
0.442251
0.457271
0.483504
0.436566
0.560836
0.537081
0.486812
0.522125
0.567403
0.628844
0.541132
0.605742
0.570547
0.538591
0.606183
0.539901
0.528265
0.633523
0.548955
0.535034
0.496100
0.498627
0.485240
0.523204
0.456486
0.462402
0.311369
0.378361
0.319452
0.314402
0.305314
0.283442
0.203099
0.247016
0.189989
0.259811
0.250415
0.232018
0.142827
0.179815
0.143277
0.120301
0.063532
0.037991
0.084864
0.148046
0.123970
0.111447
0.030023
0.041381
0.055923
0.029140
-0.027812
0.051909
0.001652
0.061114
0.044557
0.001605
0.022233
0.067090
-0.007321
0.054354
-0.008930
-0.060650
0.145354
0.028369
0.024857
0.029061
-0.028180
-0.045717
-0.017792
0.062289
0.051863
0.076607
0.062814
0.039445
0.010210
0.025158
-0.069445
0.014071
0.033561
-0.016320
0.099119
-0.035422
0.041165
-0.022452
0.017288
0.062923
0.070444
0.041911
0.037931
0.040764
0.082001
-0.050181
0.061407
0.082402
0.027292
-0.055931
0.115690
0.014981
0.006138
0.054367
0.030016
0.110546
0.088848
-0.102480
0.042798
0.077288
0.083755
0.203549
0.124780
0.119142
0.181356
0.156341
0.141110
0.124753
0.091645
0.199005
0.135738
0.242467
0.173965
0.248786
0.120114
0.194846
0.084614
0.191346
0.146840
0.062762
0.080801
0.088236
0.078510
0.084690
0.059779
0.142096
0.063685
0.035626
-0.041640
0.067126
-0.045331
0.034688
0.005649
0.062802
0.095813
0.008586
-0.021229
0.067160
0.041038
0.013628
0.013708
-0.044867
0.059988
-0.003061
-0.032737
0.059369
0.278184
0.460114
0.808105
1.058962
1.297256
1.361285
1.153965
0.818638
0.578113
0.157684
-0.109439
-0.186391
-0.197304
-0.214677
-0.041206
-0.072751
-0.038052
-0.037530
-0.002949
-0.021928
0.046842
-0.016399
0.033769
0.057702
0.174657
0.118111
0.054440
0.134480
0.153711
0.105477
0.106004
0.173262
0.226222
0.224439
0.185731
0.204115
0.227703
0.233538
0.254561
0.271629
0.321778
0.397224
0.342872
0.394442
0.432454
0.477097
0.367442
0.489146
0.474640
0.478445
0.468370
0.475207
0.459615
0.534378
0.450891
0.463026
0.488312
0.471092
0.497372
0.426619
0.422931
0.383340
0.360349
0.467450
0.348002
0.300866
0.349423
0.399244
0.218965
0.270945
0.164632
0.259007
0.172080
0.178469
0.221997
0.164139
0.159374
0.169903
0.078152
0.004892
0.051227
-0.052233
0.081168
-0.022222
0.099187
0.033674
-0.029157
-0.088378
0.003341
0.059379
0.002515
0.005862
0.056894
-0.002952
-0.031461
-0.011378
-0.017261
-0.051214
-0.081306
-0.017760
-0.048008
-0.067270
-0.042294
-0.046833
-0.004172
-0.049087
-0.061125
-0.016845
-0.027857
-0.065955
-0.011097
0.025186
-0.021896
-0.077376
-0.013203
-0.044553
-0.046318
-0.039889
-0.002371
0.019941
-0.081517
-0.061947
-0.084336
-0.062497
-0.091689
-0.053891
0.005122
-0.012740
0.017048
-0.027856
-0.028220
-0.069080
-0.043868
-0.041641
-0.054094
-0.085437
-0.036913
-0.082145
0.004151
-0.013105
0.011055
-0.010879
-0.013714
0.016003
-0.008812
-0.021303
0.057140
-0.048339
-0.017127
0.047284
0.099260
0.071607
0.085263
0.107405
0.115171
0.075277
0.123073
0.153594
0.105871
0.224333
0.100991
0.079592
0.115246
0.131411
0.161105
0.195004
0.177718
0.093040
0.099672
0.093879
-0.015768
0.062150
0.088694
0.033834
0.042176
0.068533
0.005648
0.032981
-0.024762
0.038057
0.039940
0.023937
-0.007094
-0.012616
-0.028138
-0.004051
0.021683
-0.055821
0.040789
-0.097196
-0.064904
0.033072
0.021659
0.010372
0.032972
0.301082
0.568040
0.842198
1.175542
1.364593
1.317244
1.108247
0.838873
0.433847
0.158515
-0.126520
-0.163800
-0.186667
-0.190129
-0.072634
0.023874
-0.022251
-0.012665
0.101433
0.054744
0.025680
0.086956
-0.029365
0.044082
0.058323
0.134734
-0.001989
0.188874
0.026260
0.093803
0.073196
0.118365
0.195760
0.137694
0.300191
0.248286
0.251365
0.268872
0.369135
0.387828
0.346494
0.353596
0.386269
0.428808
0.476920
0.421797
0.520995
0.510380
0.528480
0.437795
0.490458
0.561123
0.434958
0.521575
0.549320
0.534846
0.473993
0.499229
0.561791
0.496349
0.478257
0.495178
0.315290
0.452161
0.340575
0.408010
0.368072
0.222893
0.324169
0.253993
0.289297
0.235376
0.286879
0.200797
0.249198
0.177648
0.154426
0.181424
0.116576
0.151946
0.174262
0.102114
0.038319
0.047411
0.073945
0.070464
0.107953
0.099513
0.039352
0.022201
-0.036178
-0.019709
0.056607
0.030570
0.026318
0.015629
0.027787
0.102455
0.028438
-0.024705
0.032372
-0.027126
0.063749
0.062204
-0.028638
0.064010
0.028432
0.042666
0.100843
0.025455
-0.007584
0.097977
0.062883
-0.011991
0.040405
0.034261
0.062300
0.024215
-0.072324
-0.043354
0.011080
0.029369
0.049256
0.078924
0.045605
0.041793
0.075223
0.037140
0.064035
0.006784
0.020176
0.032285
-0.012322
0.055290
-0.002434
0.053806
0.034246
0.072522
0.025492
0.064538
0.027716
0.118140
0.141988
0.025793
0.103476
0.167092
0.172152
0.140079
0.110599
0.085604
0.162976
0.122715
0.197377
0.153397
0.191533
0.209479
0.268238
0.319150
0.206440
0.211522
0.236716
0.269572
0.287736
0.201470
0.250051
0.206249
0.248326
0.205476
0.148421
0.214693
0.191066
0.095193
0.153945
0.223478
0.129937
0.072603
0.120309
0.089104
0.165312
0.147488
0.083436
0.106680
0.085311
0.112315
0.043658
0.062028
0.030070
0.098964
0.045961
0.043547
0.016282
0.165710
0.030919
0.121967
0.339265
0.424003
0.693286
1.020061
1.351134
1.383489
1.397156
1.266866
0.834916
0.494802
0.130833
-0.015719
-0.090996
-0.131687
-0.121189
-0.013722
0.101106
0.070089
0.156326
0.088421
0.100385
0.111660
0.112989
0.206754
0.126217
0.152623
0.244309
0.218067
0.167495
0.263041
0.245404
0.249968
0.234223
0.305711
0.263909
0.219890
0.296666
0.343041
0.367996
0.404636
0.392692
0.372594
0.510471
0.522333
0.558226
0.478393
0.501972
0.530701
0.574842
0.554199
0.646759
0.613151
0.591829
0.577359
0.556414
0.658541
0.567154
0.604218
0.673490
0.605016
0.524524
0.517282
0.521114
0.489383
0.454296
0.449825
0.512796
0.367146
0.406180
0.394832
0.417714
0.366375
0.332546
0.282461
0.304242
0.226516
0.273594
0.256725
0.206845
0.258476
0.165211
0.224461
0.201195
0.231329
0.185800
0.128701
0.227190
0.229577
0.044775
0.119906
0.175788
0.254314
0.050571
0.080247
0.093998
0.084457
0.215508
0.103585
0.090927
0.119976
0.094528
0.135475
0.098657
0.104161
0.087732
0.050647
0.106045
0.020610
0.091607
0.050890
0.122243
0.065452
0.148542
0.091315
0.057018
0.082104
0.163938
0.070937
0.082979
0.060552
0.009096
0.096705
0.122259
0.106254
0.098797
0.190900
0.225466
0.160672
0.092163
0.083852
0.176524
0.184232
0.090894
0.079543
0.126959
0.133950
0.145299
0.084061
0.130695
0.084908
0.043646
0.060025
0.085699
0.160389
0.128563
0.185769
0.161317
0.126868
0.174718
0.218897
0.202092
0.154232
0.228679
0.143182
0.076988
0.211341
0.281352
0.237732
0.304843
0.275052
0.360083
0.265816
0.197335
0.145688
0.266173
0.352570
0.123481
0.245525
0.120596
0.185237
0.203008
0.166856
0.250391
0.155514
0.135981
0.102662
0.144195
0.120167
0.117741
0.096816
0.138481
0.070428
0.081320
0.127476
0.096701
0.093866
0.079840
0.091713
0.053892
0.057138
0.067789
0.034558
0.058367
0.065528
0.029822
0.220087
0.444849
0.746226
1.039140
1.351782
1.500000
1.305033
1.059460
0.728666
0.331051
0.095424
-0.068843
-0.180558
-0.137114
-0.071400
-0.063043
0.086021
0.088503
0.102887
0.108534
0.186012
0.146347
0.149149
0.136060
0.136415
0.133783
0.147048
0.136785
0.184586
0.245265
0.154217
0.204934
0.244533
0.254721
0.253444
0.283286
0.311873
0.323709
0.341934
0.411085
0.308869
0.417582
0.366763
0.415098
0.475523
0.459330
0.418185
0.495159
0.477342
0.589976
0.521974
0.515033
0.498820
0.539783
0.552726
0.540154
0.491254
0.474861
0.506739
0.461002
0.438156
0.554648
0.534125
0.424681
0.447467
0.415636
0.392841
0.419157
0.347508
0.324648
0.280745
0.263310
0.304924
0.237009
0.172947
0.178927
0.195645
0.203370
0.091952
0.074002
0.088088
0.154762
0.039864
0.039557
0.079603
0.049424
0.049682
-0.052305
-0.005506
0.105275
0.117953
0.034316
0.026441
0.144275
-0.088155
-0.017933
-0.005599
0.031392
0.115363
-0.040696
0.027527
0.031774
-0.019777
-0.030493
0.026590
0.000317
0.046023
-0.061827
-0.019410
0.034859
-0.070131
-0.020332
-0.058271
-0.057846
-0.009577
0.011614
-0.056399
-0.018753
-0.079355
-0.050062
0.028418
-0.037604
-0.043237
0.051224
-0.074371
-0.097434
0.013053
-0.082690
0.043994
0.007420
-0.008855
-0.024206
-0.078392
-0.043354
0.003773
0.012101
0.013956
-0.051327
-0.078399
-0.007104
0.007744
-0.010638
-0.024594
-0.022537
-0.026922
0.022022
0.043258
0.084080
0.069381
0.037750
0.084761
0.099469
0.086561
0.049980
0.048972
0.127012
0.145638
0.156982
0.201974
0.118343
0.191457
0.144733
0.139166
0.139436
0.177248
0.143652
0.089646
0.064133
0.078822
0.049011
0.099792
0.124423
-0.001619
0.046831
-0.005961
0.041137
0.020898
0.039077
-0.045930
-0.051346
-0.026673
0.036322
-0.104841
-0.111338
-0.081780
-0.029610
-0.051998
-0.081766
-0.071100
-0.076220
-0.062983
-0.023141
-0.075377
0.011712
0.028423
0.146136
0.396413
0.716752
1.023701
1.183209
1.268652
1.107415
0.920276
0.483380
0.187851
-0.087847
-0.199233
-0.250163
-0.316665
-0.194969
-0.056838
-0.066473
-0.060756
-0.000489
-0.049697
0.021099
-0.004039
-0.022022
0.017883
0.000144
0.042028
-0.025134
0.105057
0.030763
0.061954
0.123040
0.150547
0.097247
0.100540
0.125131
0.242310
0.152279
0.234218
0.256737
0.269178
0.233408
0.333109
0.231998
0.327861
0.360558
0.369190
0.370845
0.380827
0.398994
0.374208
0.380019
0.420047
0.462944
0.453003
0.440670
0.393695
0.435465
0.458612
0.446463
0.532023
0.431943
0.374100
0.309183
0.303675
0.313404
0.289799
0.379944
0.290411
0.269987
0.211106
0.241718
0.156384
0.158320
0.057822
0.110052
0.123269
0.138773
0.008788
0.076805
0.039422
-0.034084
0.005487
-0.042879
0.043951
0.003882
-0.051940
0.035004
-0.054392
-0.054094
-0.017711
-0.090116
-0.081177
-0.042837
-0.035585
-0.120421
-0.050685
-0.146893
-0.127581
-0.044692
-0.118095
-0.057931
-0.063039
-0.080075
-0.112238
-0.072116
-0.098075
-0.127906
-0.070117
-0.112161
-0.106703
-0.058990
-0.035186
-0.080829
-0.118386
-0.040513
-0.073839
-0.119724
-0.096515
-0.076354
-0.045341
-0.078028
-0.073347
-0.078283
-0.094180
-0.000556
-0.066785
-0.194929
-0.058328
-0.064131
-0.084104
-0.035680
-0.180375
-0.080879
-0.085396
-0.016493
-0.094251
-0.066359
-0.139648
-0.061487
0.005052
-0.056524
-0.019690
-0.028322
0.002938
0.051583
-0.038712
-0.016627
0.009686
0.015440
-0.043173
0.073652
0.086166
-0.033522
0.055022
0.044744
0.094773
0.018239
0.143632
0.092220
0.065364
0.178694
0.152478
0.139548
0.108120
0.175791
0.169584
0.070471
0.036030
0.043756
0.045545
0.034163
0.039242
-0.035772
0.018696
0.031890
-0.025023
-0.026054
-0.123733
0.001890
0.007956
-0.080286
-0.080643
-0.089634
0.025993
0.002352
-0.102552
-0.072442
-0.031234
-0.109755
-0.016927
-0.067809
-0.115567
-0.028482
-0.062455
-0.038683
0.215913
0.457317
0.725057
1.051767
1.313308
1.313592
1.096810
0.801627
0.473075
0.199458
-0.169675
-0.309101
-0.226030
-0.227247
-0.133628
-0.088208
0.010038
-0.003750
0.015217
-0.086647
0.011632
0.020642
-0.038030
-0.024873
-0.054113
0.030646
0.057204
0.041869
0.110253
0.078889
0.093858
0.191010
0.199207
0.096726
0.225940
0.243024
0.270435
0.298190
0.296116
0.204426
0.318460
0.430554
0.510741
0.308549
0.472260
0.366368
0.365654
0.439895
0.356452
0.432888
0.515192
0.492747
0.431689
0.505842
0.483206
0.477161
0.517706
0.465270
0.415941
0.396919
0.428883
0.510165
0.395827
0.328868
0.412243
0.363258
0.336606
0.265911
0.235789
0.270635
0.240330
0.292431
0.214307
0.234920
0.144440
0.152797
0.123422
0.165030
0.069048
0.114269
0.131568
0.123067
0.096112
0.136840
0.049955
0.059812
0.016158
0.066903
0.031234
-0.016849
0.017369
-0.005989
-0.021567
0.033625
0.015268
-0.008329
-0.023232
0.011761
0.056115
-0.013281
-0.030738
-0.076106
0.024029
-0.011129
-0.036432
-0.022052
0.020972
-0.026420
0.021284
-0.046215
0.031243
0.029939
0.086317
0.023061
0.043452
-0.084337
0.015360
-0.024653
0.026592
0.024509
-0.041173
-0.023970
0.065329
-0.080530
-0.009009
0.045535
-0.044364
-0.005494
-0.000739
-0.042085
0.015229
0.042753
-0.065083
0.030241
0.020094
-0.009324
0.005777
0.056358
0.098837
0.012357
0.071804
0.010698
0.098967
0.002578
0.062672
0.030024
0.077259
0.048217
0.049522
0.091669
0.148809
0.207727
0.113518
0.116219
0.091982
0.131141
0.226711
0.191564
0.173520
0.155329
0.158305
0.220734
0.241866
0.268932
0.180317
0.169147
0.135739
0.134686
0.144785
0.126737
0.133508
0.100019
0.108533
0.134501
0.113825
0.062796
0.059914
0.053072
0.125637
0.022880
0.047122
-0.034071
0.046901
0.061200
0.110843
-0.003462
0.068983
0.049582
0.091405
-0.018154
0.055462
-0.004579
0.033623
0.073229
0.165889
0.351018
0.511465
0.959696
1.175592
1.332526
1.429307
1.220865
0.832758
0.577052
0.189122
-0.042929
-0.151251
-0.130325
-0.050081
-0.026658
0.030505
0.093073
0.028875
0.042951
0.058116
0.114330
0.185978
0.159095
0.152259
0.093439
0.123762
0.156244
0.190625
0.203294
0.216018
0.136842
0.167642
0.131542
0.260415
0.273638
0.290094
0.251189
0.329470
0.376009
0.421202
0.300938
0.362673
0.484450
0.512174
0.452109
0.344169
0.475707
0.534143
0.523578
0.519820
0.508228
0.632306
0.666342
0.527628
0.524938
0.555979
0.571895
0.647828
0.522641
0.532225
0.479334
0.553643
0.514880
0.448421
0.473329
0.432794
0.396884
0.411790
0.359986
0.286032
0.278084
0.287258
0.314382
0.235599
0.204400
0.228864
0.237547
0.261286
0.104988
0.155770
0.093339
0.112162
0.140912
0.034549
0.113271
0.122446
0.064647
0.114584
0.100759
0.087160
0.097559
0.029419
0.033707
0.088975
0.060525
0.092348
0.033884
0.011183
0.063297
-0.000133
0.001990
-0.002769
0.052730
0.021799
0.037269
0.011525
0.087411
0.015295
0.047622
0.095449
-0.014337
0.060714
0.052043
-0.004134
0.046450
0.124711
0.015779
0.116568
0.044365
0.022539
0.072158
0.011988
0.004332
0.074295
-0.019414
0.004113
0.026839
0.045947
0.107791
0.034993
0.002258
0.094193
-0.018188
-0.014267
0.023985
0.046470
0.029377
0.105987
0.038481
0.065264
0.019304
0.070179
0.144477
0.153708
0.116508
0.063228
0.119049
0.093763
0.068631
0.001396
0.168515
0.118333
0.195601
0.118771
0.141425
0.243273
0.170334
0.262761
0.216783
0.199192
0.217964
0.217039
0.194473
0.190642
0.240904
0.222388
0.221303
0.189853
0.141322
0.130907
0.200492
0.096315
0.133168
0.006794
0.157118
0.115464
0.060619
0.072694
0.101839
0.080126
0.069789
0.072394
0.075088
-0.038945
0.069101
0.066466
-0.045377
0.057645
-0.026192
-0.023639
-0.014621
0.022008
-0.004576
0.093959
0.150831
0.334432
0.603734
1.021248
1.212036
1.408629
1.277371
1.039327
0.807344
0.386392
0.055160
-0.105425
-0.196448
-0.244385
-0.183927
-0.135513
0.028661
0.023218
-0.046355
0.004620
0.108381
0.043069
0.078158
0.030357
0.077515
0.133999
0.111362
0.079841
0.158203
0.081234
0.100700
0.177765
0.250836
0.175862
0.203542
0.219949
0.261281
0.291287
0.292148
0.356420
0.302752
0.292171
0.280094
0.455772
0.380691
0.432371
0.469635
0.410090
0.489894
0.488137
0.458241
0.509194
0.544360
0.465616
0.592447
0.497418
0.456962
0.514964
0.516051
0.419908
0.415902
0.399796
0.484193
0.406603
0.320397
0.328194
0.317255
0.285011
0.261867
0.259153
0.199299
0.238712
0.166867
0.241393
0.146553
0.253383
0.106487
0.154098
0.108889
0.131357
0.090296
0.041983
0.115643
0.061902
0.037689
0.025872
0.058870
-0.000169
0.019108
-0.036370
0.037396
0.019815
0.000821
-0.054498
-0.026848
-0.038192
0.022999
-0.044312
0.027773
0.082385
0.025323
-0.097976
-0.051417
-0.066789
-0.045593
-0.034852
0.001701
-0.139246
-0.088331
-0.049402
-0.092183
-0.024061
-0.122980
-0.098611
-0.069716
-0.058898
-0.090859
-0.055705
-0.063067
-0.033764
-0.151912
-0.057050
-0.106157
-0.159018
-0.033887
-0.087352
-0.058185
0.004342
-0.077083
-0.036617
-0.077806
-0.022930
-0.081178
-0.076487
-0.022514
-0.083163
-0.049793
-0.031158
-0.025436
-0.006456
-0.023096
-0.106540
-0.016254
-0.074304
0.005950
-0.007154
-0.049008
-0.080035
0.054879
-0.016341
-0.072982
0.016635
-0.012631
0.046871
0.062956
0.045132
0.040168
0.110161
0.078880
0.170749
0.119935
0.079563
0.128590
0.132934
0.175096
0.072507
0.067742
0.062747
-0.005197
0.018591
0.134586
0.085391
-0.011408
0.036555
0.015440
-0.043825
-0.014791
-0.004163
-0.117931
-0.091774
0.002643
0.043574
-0.192666
0.050515
0.021129
-0.058804
-0.102959
-0.089528
-0.122529
-0.086264
-0.090953
-0.070010
-0.077289
-0.101879
0.016373
0.079551
0.308769
0.646933
0.929134
1.151995
1.308884
1.204000
0.892981
0.562951
0.218384
-0.071147
-0.265188
-0.343305
-0.312667
-0.280529
-0.176560
-0.107413
-0.154091
0.029128
-0.072429
-0.015903
0.028007
-0.069092
-0.054850
0.017248
0.016321
0.089331
0.069169
0.062030
-0.001260
0.092026
0.108087
0.083434
0.012496
0.198829
0.047478
0.164808
0.160678
0.200229
0.235105
0.259728
0.248698
0.215927
0.340448
0.347436
0.339057
0.413106
0.333178
0.363225
0.378161
0.360442
0.408918
0.395556
0.405658
0.386498
0.435688
0.477771
0.359801
0.316260
0.350644
0.359960
0.395575
0.369953
0.340102
0.271783
0.313139
0.261564
0.186388
0.221097
0.146092
0.143900
0.180701
0.156314
0.138335
0.139832
0.101155
0.080817
0.065055
0.023618
0.014975
-0.058545
0.021939
0.057102
0.055577
0.002425
-0.023493
-0.073507
-0.023460
-0.150947
-0.096609
0.038296
-0.180005
-0.063149
-0.145585
-0.058040
-0.032151
-0.084666
-0.096652
-0.121778
-0.046361
-0.139206
-0.109165
-0.109292
-0.122738
-0.096540
-0.029037
-0.143596
-0.080700
-0.087140
-0.221112
-0.131126
-0.103624
-0.078698
-0.076302
-0.099730
-0.066325
-0.081189
-0.110572
-0.112214
-0.136162
-0.104547
-0.021802
-0.131965
-0.051550
-0.072394
-0.134889
-0.116823
-0.007285
-0.078833
-0.055454
-0.077311
-0.120432
-0.110696
-0.056770
-0.075828
-0.116242
-0.084158
-0.105068
-0.187022
-0.034548
-0.140288
-0.070722
-0.064853
-0.032576
-0.060801
0.055965
-0.012642
0.065457
-0.080072
0.054365
0.021736
0.047962
0.034661
0.059778
0.046486
0.011962
0.056268
0.068391
0.113017
0.100476
0.080799
0.060409
0.133962
0.029234
0.072994
0.126160
0.116491
0.192529
0.068644
0.052425
0.037608
-0.014589
-0.004912
0.014662
-0.041171
-0.052838
0.110492
0.000131
-0.015358
-0.060295
-0.103008
0.053446
-0.006206
-0.062007
-0.079703
-0.102547
-0.086907
-0.053192
-0.016424
-0.055370
-0.060445
-0.148655
-0.036803
0.001469
-0.055147
0.105557
0.355866
0.707861
1.073495
1.286508
1.281280
1.238013
0.987734
0.631518
0.206369
-0.122845
-0.126545
-0.282510
-0.196982
-0.184985
-0.075898
0.038176
-0.013502
-0.064380
0.002670
-0.000148
0.091086
-0.012244
0.035598
0.001569
0.018991
-0.059003
0.050743
0.066064
0.110052
0.064553
0.158054
0.170233
0.094058
0.179706
0.171757
0.183672
0.314391
0.184344
0.290454
0.380125
0.261524
0.335260
0.384983
0.432500
0.361987
0.457632
0.472015
0.542829
0.434312
0.505270
0.363742
0.515425
0.427143
0.561759
0.516371
0.464120
0.462368
0.497548
0.509311
0.358668
0.420452
0.400227
0.473521
0.420088
0.301133
0.380608
0.437245
0.330756
0.325911
0.243584
0.203774
0.231184
0.231766
0.192859
0.138085
0.195742
0.184731
0.040067
0.061486
0.126560
0.112471
0.016582
0.152878
0.066015
0.072790
0.076140
0.025698
0.068956
0.047315
0.017837
0.043860
0.049018
0.008517
0.089674
-0.014226
0.063203
-0.018391
0.038272
0.067353
-0.042725
0.007405
0.024052
-0.024155
-0.036145
0.007577
-0.042287
-0.002282
0.021707
0.004130
-0.065094
-0.036229
-0.027403
-0.032877
0.023188
0.055609
-0.065662
0.106326
-0.005325
0.097533
0.043778
-0.020910
0.043283
0.035842
0.058698
0.060203
-0.014498
0.070550
0.025955
0.047338
0.015790
-0.025492
0.061160
0.048673
0.049987
0.035589
0.072652
0.127933
0.061019
-0.013796
0.061209
0.081441
0.079227
0.123634
0.037093
0.060188
0.135718
0.184709
0.199056
0.061382
0.123799
0.151677
0.185732
0.199097
0.187769
0.084684
0.184357
0.297197
0.235601
0.277269
0.209169
0.220382
0.236623
0.221879
0.160730
0.189149
0.232154
0.212597
0.162164
0.126223
0.089791
0.156863
0.134428
0.181448
0.222311
0.093931
0.075626
0.063775
0.092999
0.130609
0.141303
0.053343
0.139984
0.132195
0.061292
0.043608
0.089027
0.104043
0.087289
0.099220
0.093712
0.021945
0.077627
0.099719
0.147477
0.265978
0.611242
0.968608
1.191950
1.373335
1.426438
1.336638
0.977736
0.564341
0.279429
-0.044934
-0.148184
-0.054135
-0.081950
-0.063136
-0.044043
0.043017
0.129049
0.064931
0.107548
0.046173
0.149422
0.094494
0.187882
0.135886
0.177266
0.080271
0.164679
0.186891
0.208871
0.173837
0.310486
0.308253
0.183140
0.312423
0.293768
0.367526
0.359859
0.414054
0.466880
0.381833
0.467374
0.500477
0.427019
0.553120
0.531933
0.556902
0.551161
0.570196
0.608236
0.571869
0.566455
0.576208
0.583552
0.572018
0.630888
0.607710
0.630139
0.620491
0.481065
0.501633
0.531507
0.454816
0.562867
0.397802
0.449633
0.428235
0.387169
0.365814
0.358801
0.380004
0.377023
0.276617
0.310467
0.297768
0.268817
0.223190
0.266030
0.198979
0.189836
0.149914
0.239502
0.167006
0.122347
0.052696
0.172865
0.163652
0.061086
0.149047
