0.001750
-0.083499
-0.014924
-0.041470
0.029838
-0.048186
-0.042405
0.010157
0.053777
-0.066878
0.001694
0.049569
0.042798
0.010302
-0.045105
-0.046748
0.045618
-0.088517
0.003757
-0.054114
0.003052
-0.011500
-0.006729
0.026031
0.059220
0.021094
-0.001924
0.069562
0.057228
0.058572
0.046905
0.023542
-0.000451
-0.039091
0.097049
0.039134
-0.040534
0.054689
0.110351
0.052118
0.050907
0.098773
0.104491
0.184499
0.086674
0.054232
0.082999
0.089195
0.140047
0.090013
0.109969
0.183130
0.134871
0.245394
0.237266
0.194574
0.129730
0.267846
0.181030
0.255931
0.140291
0.165963
0.209386
0.133202
0.149976
0.182913
0.151749
0.210002
0.128869
0.104763
0.106018
0.130626
-0.034327
0.030442
0.045069
0.118182
0.169694
0.061900
0.038512
0.037882
0.011969
0.129710
0.013705
0.069252
0.069856
-0.014298
0.019961
0.094130
0.036228
0.082160
0.036485
0.069172
0.093343
0.052677
0.054429
0.052101
0.012722
0.153077
0.017543
0.028729
0.027791
0.028387
-0.001008
-0.089420
-0.005905
0.010306
0.187437
0.430161
0.791229
1.057627
1.334699
1.500000
1.420405
1.173607
0.903490
0.664937
0.278134
0.032266
-0.169268
-0.265819
-0.237695
-0.172322
-0.118736
-0.097181
0.009843
0.065756
0.051035
0.010013
0.100755
0.138822
-0.004017
0.085805
0.031307
0.155217
0.041055
0.060996
0.102255
-0.023980
0.088818
0.111798
0.100444
0.040462
0.063108
0.091461
0.138812
0.127358
0.151565
0.087415
0.070297
0.172003
0.143085
0.133504
0.190096
0.139068
0.151359
0.212470
0.223876
0.176831
0.199315
0.275073
0.331217
0.276181
0.324886
0.369366
0.379358
0.364249
0.397685
0.370845
0.461733
0.455858
0.451950
0.496736
0.480552
0.480826
0.509152
0.548505
0.494983
0.561398
0.508564
0.544075
0.537713
0.558227
0.577909
0.555299
0.602117
0.550828
0.495445
0.538750
0.498493
0.533051
0.543050
0.558352
0.411784
0.423724
0.310159
0.313300
0.372099
0.368448
0.401519
0.350010
0.371905
0.324550
0.250840
0.248114
0.215950
0.234291
0.224197
0.229955
0.168979
0.066674
0.144218
0.071987
0.140171
0.083021
0.091108
0.186688
0.171285
0.108313
0.137938
0.036129
0.182270
0.090023
0.120029
0.062460
0.093676
0.078506
0.068150
0.009915
0.084036
0.157657
0.088812
0.126222
0.088158
0.116259
0.054451
0.064457
0.050143
0.161088
0.154940
0.124952
0.051517
0.109415
0.044614
0.074867
0.117307
0.130499
0.100555
0.099867
0.108649
0.150251
0.079361
0.093012
0.021520
0.041656
0.053057
0.050315
0.116923
0.045317
0.071318
0.049565
0.051320
0.116899
0.077800
0.046866
0.076930
0.075586
0.012636
0.082897
-0.005293
0.103097
-0.004367
0.127590
0.082390
0.060448
0.014814
0.013581
0.110613
0.080827
0.153301
0.054950
0.158727
0.035908
0.088202
0.117517
-0.025191
0.048908
0.073067
0.106758
0.101296
0.075614
0.129264
0.093327
0.072246
0.037798
0.078261
0.040698
0.124519
0.089749
0.042900
0.056208
0.054204
0.042469
0.052638
0.088093
0.006577
0.070612
0.020511
0.077792
0.008780
0.104599
0.131592
0.090125
0.030601
0.015758
0.055875
0.130462
-0.005292
0.074860
0.028623
0.168467
0.155517
0.216942
0.106853
0.149847
0.129287
0.245534
0.173924
0.197374
0.263172
0.257101
0.224794
0.197347
0.250809
0.188241
0.201982
0.097166
0.211110
0.209276
0.216356
0.145132
0.116826
0.124364
0.123871
0.122339
0.091485
0.188635
0.120445
0.027515
0.131094
0.079557
0.127215
0.041414
0.045002
0.015169
0.038657
0.043191
0.117743
-0.011389
0.027429
-0.015408
-0.034072
0.009197
-0.036326
-0.054780
0.087556
0.002924
0.113747
0.032333
0.003232
-0.010581
0.030424
0.044870
0.029030
0.031737
0.078934
-0.041680
0.022335
0.002515
0.007349
-0.052730
-0.029786
-0.086907
-0.029746
-0.001817
0.200274
0.435407
0.784806
1.088274
1.285749
1.418752
1.264109
1.125342
0.881517
0.431773
0.166794
-0.040486
-0.231432
-0.296085
-0.308102
-0.215369
-0.200380
-0.096543
-0.074421
-0.036806
0.079156
0.052200
0.017732
0.007909
0.025819
-0.035981
0.025865
-0.010111
0.033912
-0.051458
0.034725
-0.028129
0.094501
-0.039398
0.025959
0.025593
0.027732
0.015566
0.036978
0.017405
0.067130
-0.009259
0.062870
-0.008364
-0.018753
0.034896
0.114528
0.053200
0.143609
0.122995
0.150151
0.124209
0.079006
0.162953
0.181501
0.225936
0.199017
0.236368
0.278114
0.277431
0.303406
0.231253
0.272286
0.332506
0.362016
0.430199
0.365907
0.509950
0.455487
0.460210
0.463468
0.446523
0.440522
0.514452
0.529699
0.473454
0.435041
0.486661
0.423189
0.419491
0.464856
0.447586
0.424596
0.386057
0.423622
0.399451
0.306149
0.355023
0.287195
0.268265
0.253182
0.234230
0.216973
0.177299
0.179025
0.098895
0.176771
0.104815
0.131306
0.097540
0.090180
0.077677
0.059881
0.056327
0.030159
0.077671
0.048466
0.015999
-0.051421
0.022772
-0.031190
0.040998
-0.011399
0.092307
-0.050662
-0.048514
-0.031747
-0.007782
-0.007829
-0.086098
-0.074153
0.006200
-0.087376
-0.018819
-0.085331
-0.057013
-0.029796
-0.079904
-0.032314
-0.048678
0.013597
0.031436
-0.036369
0.015236
-0.052309
-0.070457
-0.108770
0.006967
-0.006451
-0.046925
0.039924
-0.119052
-0.111529
-0.102919
-0.069221
-0.027614
-0.045650
0.012512
-0.013362
-0.113474
-0.068653
-0.011892
-0.078687
-0.028732
-0.004298
-0.037553
-0.091709
0.019810
-0.079022
-0.010167
-0.109850
-0.102237
-0.079232
-0.011106
-0.035663
-0.016192
-0.071365
-0.073201
0.007719
-0.035326
-0.050580
0.031948
0.032416
-0.022816
-0.001958
-0.061116
-0.043710
-0.032883
-0.022129
-0.073588
-0.136145
-0.043554
-0.026810
-0.011281
-0.035656
-0.035776
0.017024
0.021169
-0.102329
-0.042267
-0.046238
-0.084940
-0.059756
-0.047219
-0.027639
-0.082190
-0.028503
-0.056616
-0.085572
-0.042058
0.001838
-0.026617
0.017930
0.030534
-0.070023
-0.104457
-0.057807
-0.078812
0.015495
-0.018953
-0.021990
0.064668
0.090223
0.018218
0.109905
0.071689
-0.000602
0.052143
0.015067
0.051519
0.079316
0.123683
0.124246
0.082978
0.109091
0.194713
0.150512
0.187430
0.237461
0.105569
0.113543
0.196761
0.095761
0.145104
0.074157
0.059480
0.070150
0.062634
0.094878
0.055588
0.080399
-0.007292
0.100597
0.075432
0.000104
0.001159
0.016622
0.032658
0.038134
-0.024233
-0.068297
0.070616
0.041394
-0.028506
-0.027721
0.035865
-0.055722
-0.030720
-0.043341
0.023200
-0.014862
-0.064538
-0.083338
-0.030249
0.043582
0.013799
0.009576
-0.041351
-0.009826
-0.016776
-0.020414
0.011866
-0.058361
-0.037970
0.016364
-0.120815
-0.110196
-0.008547
0.200804
0.480862
0.824883
1.156850
1.325740
1.327036
1.206327
0.966521
0.722361
0.343181
0.169691
-0.125123
-0.285390
-0.314149
-0.400381
-0.231688
-0.222899
-0.071960
-0.071742
-0.063245
-0.001606
-0.011543
-0.052156
-0.003340
0.050602
0.045890
-0.032356
-0.036396
0.015925
0.005156
-0.005075
0.009520
-0.002666
-0.011474
-0.054667
-0.011071
0.014452
0.011792
0.022668
0.016238
0.032148
0.104556
0.050384
0.098655
0.079928
0.082602
0.130451
0.072925
0.078632
0.147067
0.130880
0.131093
0.133763
0.164634
0.127307
0.255979
0.254276
0.277863
0.360568
0.275680
0.255568
0.366876
0.315000
0.342416
0.386689
0.474585
0.450160
0.459507
0.430750
0.470925
0.462823
0.538209
0.556407
0.498128
0.510730
0.472182
0.529051
0.576941
0.439512
0.413854
0.473172
0.470941
0.474251
0.407969
0.424734
0.465611
0.348465
0.361596
0.359408
0.296444
0.283446
0.295238
0.302415
0.267323
0.239811
0.184899
0.132363
0.242558
0.134574
0.155614
0.160765
0.072784
0.084453
0.086385
0.026057
0.126736
0.118648
0.101966
0.065920
0.056403
0.136441
0.054648
0.069953
-0.031308
0.083088
0.045833
0.087414
0.050041
0.017992
0.038497
0.105741
0.141766
-0.015239
0.066318
0.046933
0.071584
-0.038023
0.026694
0.089453
0.008212
0.020435
0.016533
0.014911
0.082163
0.074846
0.134983
0.085637
-0.005898
0.018198
0.042885
0.049508
0.023357
0.043655
-0.019966
0.000443
0.053843
0.079995
0.068001
0.055147
-0.011284
0.032763
0.074528
0.014141
0.011610
0.002748
0.025237
0.144099
0.080373
0.005313
0.120536
0.030223
0.125966
-0.034950
0.001885
0.108212
0.171230
0.083505
0.067556
0.135308
0.018093
0.063378
-0.021657
0.097639
0.098682
0.012699
0.104546
0.054674
0.054537
0.092022
0.139678
0.039236
0.080418
0.017036
0.076885
0.056966
0.139776
0.118849
0.095271
0.116217
0.049394
0.078895
0.068820
0.079515
0.035444
0.106294
0.040389
0.073450
0.106697
0.071776
0.153212
0.041351
0.176806
0.050950
0.147354
0.087068
0.102434
0.112723
0.075587
0.093031
0.109572
0.122199
0.142269
0.114591
0.180162
0.100338
0.167116
0.103065
0.122718
0.157546
0.223715
0.292914
0.258550
0.257126
0.262717
0.251503
0.204835
0.250504
0.186667
0.253827
0.220671
0.261100
0.319342
0.189268
0.192289
0.230764
0.198621
0.145839
0.166552
0.207104
0.181750
0.171625
0.101525
0.119922
0.092373
0.148346
0.050772
0.107365
0.099401
0.136652
0.095312
0.096553
0.099009
0.105819
0.197430
0.070907
0.137309
0.006373
0.052879
0.077009
0.140785
0.118221
0.049699
0.081374
0.114494
0.116499
0.032788
0.069945
0.039269
0.064247
0.128986
0.047554
0.107739
0.096247
0.026827
0.097566
0.012209
-0.002272
0.180032
0.393786
0.638107
1.028678
1.243251
1.375804
1.380817
1.278561
0.956511
0.672814
0.407341
0.133664
-0.036840
-0.091145
-0.178720
-0.182648
-0.216886
-0.097152
0.007387
0.116250
0.065855
0.108854
0.071261
0.028572
0.048171
0.113149
0.140550
0.139701
0.140749
0.122092
0.109523
0.070637
0.067917
0.147124
0.062561
0.142158
0.039578
0.042456
0.105936
0.063811
0.105067
0.073723
0.144062
0.229322
0.097328
0.063566
0.214255
0.156419
0.209443
0.228428
0.211189
0.225623
0.203727
0.246995
0.240341
0.291982
0.317213
0.268109
0.426621
0.316695
0.311441
0.369386
0.442231
0.452558
0.441597
0.463511
0.517743
0.526982
0.549861
0.504932
0.535795
0.572650
0.530431
0.516549
0.499922
0.507990
0.530499
0.518105
0.455446
0.512790
0.548278
0.522926
0.489108
0.543063
0.460485
0.481195
0.443961
0.530566
0.411699
0.430955
0.387709
0.414412
0.273138
0.250820
0.291464
0.262111
0.250975
0.238463
0.197693
0.202873
0.200600
0.121940
0.201037
0.212254
0.182293
0.120132
0.067101
0.169642
0.127330
0.088753
0.077122
0.066739
0.141511
0.057467
-0.032695
0.089479
-0.012533
0.088930
0.092942
0.088312
0.039882
0.058437
0.081602
0.019036
0.147059
0.092034
0.089976
0.026648
0.021761
0.008560
0.055806
0.071793
0.084117
0.010939
-0.017444
0.036109
-0.009791
0.055249
0.059996
0.058145
-0.033473
0.041364
0.068766
0.086118
0.010545
0.075558
-0.005627
0.045361
0.051807
0.037530
0.015095
0.043075
0.036563
0.009401
0.013992
-0.032798
0.049790
0.065499
0.031585
0.032352
-0.007502
0.043328
0.034582
0.019849
0.071255
0.005077
-0.009132
0.072714
0.036946
0.016166
0.033766
-0.025307
-0.035371
0.006382
0.048562
0.064512
0.126882
0.052522
0.113354
0.034102
0.035527
0.089045
0.026997
0.016229
-0.068764
0.003612
0.019806
0.004605
0.047961
0.074290
0.082346
-0.016537
-0.004080
0.131994
0.018182
0.011167
-0.031322
-0.064168
-0.014687
-0.051580
0.038598
0.015048
0.016755
-0.047263
0.073487
-0.001790
-0.003045
0.029937
-0.021766
-0.024986
0.059013
0.021047
-0.038238
0.128062
0.116024
0.107969
0.023277
0.083572
0.177592
0.090865
0.108952
0.200260
0.153822
0.149730
0.114676
0.108307
0.177577
0.185030
0.158286
0.174375
0.187198
0.137610
0.144171
0.120915
0.088332
0.169360
0.105088
0.150662
0.150585
0.102327
0.068405
0.032814
0.109716
-0.006965
0.038651
-0.026747
-0.009921
0.034325
0.024844
-0.067847
-0.025594
-0.056074
0.048668
-0.014943
-0.076972
-0.002596
-0.045338
0.090294
-0.015800
-0.065593
0.039895
0.028120
-0.014083
-0.022578
-0.082515
-0.033080
-0.033126
-0.074756
0.025675
-0.062743
0.048072
-0.027602
-0.069778
0.005271
-0.059423
-0.133613
-0.097355
-0.052871
0.084663
0.357016
0.691203
0.886434
1.201167
1.367418
1.251299
1.129752
0.865165
0.517986
0.203801
-0.069922
-0.177856
-0.326158
-0.353830
-0.374249
-0.262677
-0.103665
-0.116771
-0.086691
-0.039974
-0.065527
-0.017607
-0.035842
-0.061588
0.012651
-0.000029
-0.170270
-0.029741
-0.038516
-0.071863
-0.008709
-0.117473
-0.048114
-0.062553
-0.057309
-0.004798
-0.076762
-0.009143
-0.033139
-0.013547
0.022442
-0.076103
0.031415
0.011919
0.061296
-0.038510
0.022827
0.056702
-0.000326
0.095766
0.048635
0.148876
0.143336
0.069757
0.141987
0.156800
0.220658
0.146208
0.192176
0.229674
0.200043
0.273341
0.238120
0.338157
0.371804
0.354619
0.443719
0.467867
0.412770
0.323289
0.331813
0.403351
0.303572
0.405658
0.433242
0.413835
0.384908
0.428716
0.332461
0.374307
0.364413
0.360700
0.345908
0.370659
0.298142
0.281954
0.303657
0.214175
0.284238
0.165938
0.206669
0.197735
0.185918
0.108169
0.150747
0.088399
0.133486
0.044985
-0.055836
0.053675
0.022523
0.034799
0.059898
-0.023057
-0.061297
-0.029033
-0.114850
-0.022986
0.003014
-0.081111
-0.042473
-0.046412
-0.098069
-0.034104
-0.016986
-0.104936
-0.078298
-0.028832
-0.130241
-0.077480
0.027657
-0.074071
-0.093174
-0.129347
0.044620
-0.038493
-0.036318
-0.045975
-0.145354
-0.144537
-0.045020
-0.022613
-0.054226
-0.114644
-0.097593
-0.106238
-0.118850
-0.100367
-0.004419
-0.063927
-0.033025
-0.133897
-0.121004
-0.022929
-0.084673
-0.040859
-0.119124
-0.121738
-0.071617
-0.107859
-0.025785
-0.054466
-0.116939
-0.123067
-0.071200
-0.129929
-0.077523
-0.094015
-0.149322
-0.009714
-0.074722
-0.120613
-0.038120
-0.018811
0.020916
-0.094624
-0.020278
-0.041675
-0.038835
0.006384
-0.026333
-0.147575
-0.083397
0.007538
-0.083126
-0.101182
-0.083769
0.038028
-0.109709
-0.118191
-0.148927
-0.111601
-0.028618
-0.088408
-0.070211
-0.019160
-0.123835
-0.060994
-0.086818
-0.079721
-0.022744
0.028163
0.008539
-0.068297
-0.150437
-0.036248
-0.055090
-0.023351
-0.018588
-0.058602
-0.070738
-0.052999
0.001361
-0.040743
-0.030561
-0.009038
-0.038555
-0.079792
0.023332
-0.062376
-0.028049
-0.033084
-0.037150
0.020224
0.009002
0.039344
0.025150
0.043309
0.096266
0.097549
0.063530
0.083388
0.139484
0.147821
0.163989
0.077823
0.142944
0.110224
0.137002
0.132281
0.072645
-0.033837
0.091594
0.049673
0.106313
0.098310
0.028086
0.109575
0.019301
0.012833
0.050209
-0.057550
-0.016311
-0.006563
-0.040140
0.048998
0.010970
0.032933
-0.022237
-0.011099
-0.063225
-0.082896
-0.010967
-0.010422
0.031152
-0.020606
-0.029034
-0.049146
-0.031836
0.016743
-0.009772
-0.092093
0.022333
-0.030532
-0.061779
-0.031070
-0.018062
-0.101594
-0.025158
-0.051799
0.005142
-0.076974
-0.067956
-0.139412
-0.080875
-0.126220
0.009031
0.080584
0.409732
0.670359
0.939042
1.246899
1.415679
1.331511
1.105449
0.824305
0.418396
0.189113
0.033068
-0.255948
-0.336589
-0.355943
-0.212065
-0.226505
-0.157925
-0.136399
-0.010501
0.005144
0.016373
-0.040758
0.007612
0.076210
-0.078383
-0.095454
0.033764
-0.036279
-0.030489
-0.035312
-0.047865
-0.005949
0.041163
0.017020
-0.009567
0.076653
-0.046795
-0.017011
-0.004880
-0.004849
0.025596
0.079928
0.108832
0.165760
0.109721
0.045698
0.111153
0.118293
0.060058
0.037758
0.131522
0.136867
0.110708
0.266839
0.195004
0.213738
0.290826
0.343377
0.210163
0.299776
0.310241
0.389328
0.359136
0.318915
0.393087
0.443997
0.457784
0.465725
0.433313
0.566693
0.477905
0.517997
0.546602
0.417928
0.505979
0.565720
0.504362
0.547932
0.502534
0.397537
0.349722
0.456087
0.454730
0.344405
0.401320
0.402079
0.344626
0.367203
0.320830
0.313048
0.290345
0.247317
0.246045
0.268414
0.182615
0.165079
0.101748
0.182609
0.181913
0.160494
0.082065
0.114085
0.125547
0.116275
0.033462
-0.029196
0.097591
0.103250
0.057126
0.143720
0.018660
0.038160
0.052656
0.066456
0.123481
0.133994
0.035806
0.070342
0.044335
0.013045
0.020189
0.021983
0.068416
0.057924
-0.030499
0.090596
0.026235
0.052656
0.021305
-0.048780
0.007233
0.026847
0.022405
-0.001734
0.042154
0.046092
0.091337
-0.072898
0.053121
0.020338
0.103158
0.016293
0.064400
0.047780
-0.008464
0.038517
0.040229
0.041643
0.006212
0.095377
-0.033791
0.039306
0.078822
0.040404
0.098336
0.110247
0.001076
-0.027876
0.034031
0.063047
0.007341
0.082033
0.085555
0.023233
0.035995
0.055517
0.040621
0.037475
0.049349
-0.006897
0.071546
0.037392
0.056065
0.043454
0.038706
0.015255
-0.001422
0.024697
0.030508
-0.011387
0.036919
0.073061
-0.010357
0.038512
0.045073
0.021858
0.051163
0.114379
0.006348
0.061942
0.020542
0.069251
0.003828
0.155917
-0.042150
0.044530
0.073403
0.038570
0.056089
0.084317
-0.012435
-0.040932
0.084966
0.067918
-0.017054
-0.005868
0.078049
0.093719
0.079641
-0.013449
0.061419
0.115429
0.137402
0.119511
0.076983
0.134063
0.118049
0.190641
0.121260
0.185521
0.136608
0.210532
0.157628
0.179726
0.220773
0.226456
0.254599
0.245054
0.246895
0.284197
0.175346
0.179450
0.161600
0.232418
0.185266
0.228302
0.154890
0.177774
0.140898
0.166428
0.175016
0.122048
0.067588
0.037212
0.060829
-0.001292
0.079580
0.060992
0.052031
0.087879
0.074784
0.007142
0.015808
0.044891
0.057764
0.029592
0.010203
-0.018533
0.020430
-0.019551
0.029965
0.121386
0.061155
0.012549
-0.013524
0.011603
0.006761
0.025933
0.005303
0.008186
-0.018067
0.048232
0.028928
-0.026149
-0.086803
-0.022019
0.073357
0.197743
0.486685
0.887062
1.158578
1.380629
1.418240
1.269019
1.065996
0.747058
0.454912
0.227906
-0.096904
-0.226274
-0.325314
-0.230298
-0.271495
-0.185364
-0.054029
0.013297
0.039626
0.009748
0.001927
0.131124
0.099998
0.084184
0.080841
0.020587
0.009411
0.005294
0.064272
-0.012489
-0.029068
0.079918
0.000975
-0.000668
0.043805
0.054067
0.074470
0.080166
-0.072888
-0.001702
0.030677
0.017137
0.123889
0.098721
0.003688
0.155180
0.112950
0.047273
0.123038
0.165209
0.100791
0.158379
0.208757
0.208870
0.128613
0.273132
0.256520
0.231518
0.408964
0.352977
0.367015
0.333405
0.335127
0.371112
0.461096
0.452147
0.435842
0.462331
0.440028
0.448471
0.423278
0.540258
0.548281
0.471751
0.475727
0.525700
0.519006
0.470339
0.405058
0.495567
0.481381
0.451120
0.356061
0.436912
0.366697
0.371408
0.317254
0.219050
0.273583
0.235264
0.184340
0.146732
0.216535
0.147036
0.129602
0.236235
0.063939
0.145095
0.188520
0.156750
0.052080
-0.000423
0.089345
0.088413
0.088521
0.089230
0.028798
0.096995
0.010111
0.043322
-0.009265
0.025872
0.023021
-0.019530
-0.066739
0.060852
-0.067927
-0.068152
0.025131
-0.001898
-0.064760
0.039623
0.049543
-0.087544
-0.074086
-0.060745
-0.064349
0.011770
-0.002330
-0.024311
-0.066069
0.020348
-0.077506
-0.041706
-0.026217
-0.056238
0.018501
-0.060417
-0.067276
-0.130799
0.007050
0.117892
-0.087483
0.071430
-0.042110
-0.014511
-0.105591
-0.051823
-0.060746
-0.092459
-0.023564
-0.064889
-0.078418
-0.072811
-0.026006
-0.064765
-0.049067
0.057968
-0.038141
-0.140724
-0.004152
-0.011765
-0.087966
-0.082829
-0.101205
-0.058148
-0.040149
-0.107045
-0.075067
-0.086710
-0.019853
-0.001026
-0.055238
-0.063566
0.021204
-0.060927
-0.129037
-0.069211
-0.017818
-0.085742
-0.038696
-0.136408
-0.006674
0.024791
-0.122762
-0.092492
-0.068501
-0.054714
-0.014647
-0.091667
-0.055319
0.076419
-0.000592
-0.076358
-0.077905
-0.068816
-0.065398
-0.046158
-0.048974
-0.047379
-0.037606
-0.093833
-0.041129
-0.139196
-0.055849
-0.023853
-0.100849
-0.059400
-0.009924
-0.059597
-0.061352
-0.015495
0.002259
0.064512
-0.050535
0.111003
-0.052050
-0.026492
0.111257
-0.016888
0.168027
0.093864
0.011287
0.185205
0.063864
0.103420
0.136510
0.043204
0.074312
0.071323
0.089583
0.063524
0.065851
0.129586
0.030952
0.035268
-0.001491
-0.046541
0.044361
-0.011219
-0.007897
-0.014153
-0.025661
-0.028696
-0.007778
-0.104889
-0.106765
-0.050061
-0.082834
-0.061831
-0.074048
-0.044755
-0.048892
-0.091279
-0.149025
-0.058620
-0.059529
-0.065853
-0.030146
-0.118176
-0.063370
-0.177629
-0.015171
-0.195073
-0.118193
-0.097563
-0.125407
-0.081761
-0.129510
-0.020838
-0.088292
-0.122750
-0.225149
-0.208688
-0.226437
-0.202733
-0.015692
0.100885
0.396317
0.736707
1.036086
1.263983
1.322948
1.186146
0.969556
0.556470
0.312902
0.071703
-0.195026
-0.339479
-0.364586
-0.410398
-0.331790
-0.269545
-0.195948
-0.164102
-0.188653
-0.116745
-0.111793
-0.009616
-0.077603
-0.148121
-0.097891
-0.055349
-0.041073
-0.137971
-0.133413
-0.144145
-0.086416
-0.078201
-0.051719
-0.054713
-0.136040
-0.033857
-0.097077
0.009173
-0.127337
0.009142
-0.112334
-0.015382
-0.047628
0.030333
0.048148
0.033160
0.012602
0.100796
0.044250
0.095336
0.075327
0.077042
0.077809
0.065904
0.092627
0.121083
0.204941
0.205993
0.168107
0.160805
0.249013
0.297338
0.292088
0.321988
0.416455
0.288340
0.352480
0.370962
0.371899
0.429297
0.433009
0.374922
0.360619
0.424464
0.442328
0.409320
0.361651
0.393483
0.370543
0.334633
0.292338
0.282079
0.396422
0.338281
0.242253
0.287045
0.262779
0.229299
0.243167
0.214893
0.153862
0.127635
0.186254
0.113736
0.121051
0.135269
0.111731
-0.035431
0.059106
0.082958
-0.033863
-0.031640
-0.148356
-0.061600
-0.030466
-0.000906
-0.013085
0.024190
-0.008877
-0.053503
-0.081185
0.023951
0.000267
-0.090807
-0.045987
-0.127282
-0.085939
-0.091961
-0.138194
-0.074639
-0.060579
-0.106924
-0.056775
-0.049181
-0.102904
-0.116269
-0.075228
-0.017120
-0.061407
-0.083739
-0.059268
-0.033431
-0.090803
-0.079881
-0.127108
-0.087962
-0.094368
-0.097030
-0.060592
-0.095238
-0.065629
-0.129938
-0.084648
-0.031196
-0.122145
-0.100443
-0.033552
-0.027162
-0.186442
-0.056140
-0.062716
-0.053408
-0.053194
-0.045369
-0.037711
-0.091223
-0.101342
-0.047411
-0.094782
-0.084202
-0.028149
-0.010622
-0.043690
-0.017435
-0.050182
-0.100459
-0.034307
-0.021256
-0.115914
-0.040597
-0.102179
-0.036291
-0.022586
-0.029526
-0.013173
-0.127989
-0.066228
-0.083413
-0.009649
-0.063379
-0.029422
-0.066144
-0.017430
-0.009637
-0.050146
-0.013603
-0.029074
-0.035724
-0.010523
-0.084929
-0.059702
-0.048719
-0.095053
0.022886
-0.061519
-0.001526
-0.034692
-0.052253
-0.029922
0.027343
0.000606
0.051403
0.012184
-0.046824
-0.018341
0.004190
0.022778
0.117779
0.028558
-0.024564
0.006197
0.048699
-0.004170
0.041440
0.108564
0.072695
0.065580
0.144969
0.161271
0.098899
0.146807
0.073443
0.163274
0.148999
0.144256
0.126730
0.173351
0.231120
0.136537
0.186510
0.094544
0.128391
0.156303
0.100485
0.144309
0.138748
0.087750
0.098511
0.097238
0.035247
0.081616
0.029668
0.092529
0.031358
-0.015080
0.041098
0.069155
-0.034113
0.034396
-0.083418
0.011436
-0.029949
0.023051
0.017225
-0.008587
-0.038479
0.072819
-0.046000
0.001140
0.049080
0.010706
0.005520
0.069777
0.034384
-0.040163
0.003983
0.077794
-0.007997
0.097920
-0.088484
-0.013558
0.018831
-0.078116
-0.216264
-0.104066
0.008568
0.110769
0.269712
0.602794
0.981041
1.211134
1.347532
1.457500
1.171959
0.965619
0.650152
0.338558
0.145685
-0.105012
-0.245004
-0.328368
-0.191920
-0.193560
-0.057700
-0.010002
0.026487
0.111586
-0.002707
0.055099
0.031342
0.116693
0.018696
0.075255
0.016788
0.056523
0.034829
0.044834
-0.000925
-0.024104
0.057482
0.088719
0.064025
0.017177
0.086672
0.075687
0.059054
0.138045
-0.055594
0.069694
0.032867
0.139037
0.089773
0.144859
0.175830
0.134377
0.169486
0.201423
0.177368
0.194548
0.225704
0.199399
0.238203
0.246674
0.327241
0.294066
0.354142
0.373520
0.305435
0.496884
0.450667
0.354602
0.491786
0.491988
0.449927
0.483641
0.455609
0.571785
0.516157
0.501323
0.646691
0.532786
0.605985
0.529597
0.553267
0.510482
0.564504
0.500520
0.499896
0.564185
0.531129
0.475163
0.528555
0.398227
0.457753
0.356144
0.391363
0.286457
0.341365
0.321703
0.335894
0.318657
0.373063
0.219973
0.221138
0.211840
0.197900
0.228289
0.082545
0.188774
0.133826
0.095230
0.027317
0.114783
0.054347
0.112781
0.183550
0.141998
0.055068
0.093970
0.085358
0.148361
0.073622
0.142393
0.066266
0.002426
0.113174
0.057851
0.002040
0.018334
0.060698
0.077042
0.053628
0.090300
0.075844
0.072436
0.046408
-0.008714
0.104357
0.063106
0.067588
-0.018385
0.026232
0.128724
0.059079
0.007142
0.134998
0.045033
0.041386
0.076677
0.055759
0.079137
0.032965
0.090067
0.081904
0.014690
0.090474
0.142126
0.044530
0.024523
0.143523
0.102444
0.110271
0.090550
0.079849
0.007342
0.087052
0.040205
0.115759
0.043708
0.075602
0.015896
0.116528
0.051156
0.091182
0.077561
0.074020
0.038279
0.089572
