0.007709
0.017752
0.009210
0.102025
0.014842
0.038776
-0.049296
0.021389
0.061920
-0.064512
-0.065809
0.094226
0.039244
0.051998
0.077821
-0.062802
0.038408
-0.008910
0.056340
0.030624
0.039010
0.052551
0.144081
0.040759
-0.001096
0.021278
0.067229
0.137372
0.070049
0.091142
0.115103
0.138485
0.056060
0.119789
0.109831
0.100007
0.150408
0.245421
0.229833
0.180666
0.200258
0.234554
0.164510
0.219932
0.127608
0.086018
0.248416
0.146399
0.223154
0.197207
0.183884
0.178846
0.101399
0.141748
0.138421
0.133937
0.077413
0.139295
0.062060
0.123506
0.129608
0.028889
0.072069
0.106908
0.046880
0.045642
0.054007
0.024664
0.099418
-0.023758
0.074115
0.028856
0.084718
0.023608
0.104637
0.002098
0.066197
0.060620
0.068269
0.056966
0.116136
0.268441
0.544249
0.856666
1.169812
1.467426
1.404019
1.250224
1.002326
0.669969
0.365193
0.058174
-0.087614
-0.290525
-0.232034
-0.171685
-0.089574
0.082718
0.017049
0.081568
-0.002657
0.018727
0.135602
0.124583
0.110792
0.137847
0.155499
0.084564
0.176341
0.156276
0.032128
0.188260
0.191568
0.216368
0.220976
0.260138
0.174185
0.307624
0.261187
0.272134
0.247577
0.324386
0.326795
0.302720
0.385763
0.421931
0.437530
0.456399
0.414807
0.376556
0.464975
0.464528
0.490098
0.587310
0.519510
0.483948
0.502817
0.535906
0.627964
0.569352
0.496358
0.614644
0.636634
0.531233
0.553901
0.552348
0.587748
0.558614
0.520035
0.427314
0.428958
0.479651
0.433006
0.411102
0.396220
0.314754
0.493851
0.309444
0.279858
0.184399
0.277855
0.287641
0.221530
0.236967
0.186197
0.150938
0.178610
0.165922
0.172220
0.155562
0.127392
0.142787
0.124881
0.168664
0.104590
0.071499
0.077956
0.102578
0.094627
0.165228
0.110457
0.081266
0.077793
0.101801
0.068000
0.096881
0.093205
0.081647
0.023916
0.061218
0.068854
0.149099
0.144070
0.118833
0.123491
0.082551
0.138321
0.134934
0.130109
0.061969
0.067789
0.098523
0.034138
0.058639
0.048300
0.156277
0.002505
0.161721
0.075848
0.070310
0.158488
0.030517
0.144960
0.049612
0.099452
0.033525
0.109866
0.108077
0.018831
0.036227
0.098167
0.072185
0.091367
0.118877
0.109187
0.095551
0.179561
0.069574
0.040825
0.100119
0.033864
0.092217
0.140190
0.094206
0.127440
0.170967
0.144034
0.176087
0.089676
0.145981
0.127116
0.147258
0.107456
0.175079
0.182619
0.144488
0.199943
0.232050
0.169342
0.130267
0.266866
0.177757
0.232372
0.253876
0.282598
0.161565
0.286332
0.192495
0.337710
0.200107
0.337567
0.217676
0.207237
0.171750
0.163345
0.205891
0.214618
0.336030
0.187139
0.121541
0.100364
0.145270
0.145213
0.082201
0.148802
0.164636
0.108929
0.102228
0.175288
0.055522
0.070972
0.085558
0.012500
0.004693
0.129146
0.072778
0.086181
0.109749
0.027038
-0.039836
0.005656
-0.020027
0.017595
0.089374
0.129089
0.248226
0.464385
0.745689
1.144823
1.279082
1.500000
1.345783
1.205757
0.797582
0.438418
0.107825
-0.102909
-0.167264
-0.242641
-0.194140
-0.017660
0.016060
0.054784
0.093478
0.091551
0.070431
0.093113
0.107898
0.081824
0.026732
0.098872
0.117590
0.142594
0.163729
0.134292
0.103670
0.171776
0.225906
0.099961
0.150100
0.209414
0.186946
0.222577
0.251048
0.208619
0.279869
0.255314
0.438680
0.292225
0.397277
0.418977
0.435959
0.459805
0.453898
0.485134
0.448854
0.518924
0.523108
0.460624
0.549555
0.549035
0.511126
0.538797
0.524052
0.576561
0.516972
0.543085
0.572790
0.542432
0.473890
0.446436
0.520946
0.432170
0.454462
0.330794
0.405298
0.435740
0.294681
0.397385
0.288506
0.296874
0.232064
0.249529
0.221870
0.208730
0.205834
0.203845
0.180313
0.139858
0.090351
0.108474
0.153219
0.188608
-0.002113
0.073348
0.110025
-0.025553
0.066132
-0.047241
0.057478
0.028090
0.030140
0.064466
0.046449
0.077774
-0.023224
-0.023811
-0.015821
0.000153
-0.056728
0.013380
0.050677
-0.032784
-0.024062
-0.004035
0.016355
0.026199
0.059882
0.004473
-0.050163
-0.022168
-0.063904
0.009461
-0.006638
0.082492
0.053207
0.027664
0.013945
0.025900
0.029108
0.040511
0.000718
0.025039
-0.066016
0.019810
0.024666
-0.034568
-0.080873
0.008431
0.051898
0.064849
-0.006943
-0.021894
-0.045358
-0.005045
-0.008902
-0.042249
-0.003821
-0.092756
0.077090
-0.029445
0.014264
-0.007771
0.001892
0.055364
-0.059964
0.062188
0.016223
-0.026041
-0.038028
-0.008198
0.041252
0.039949
0.019400
0.054194
-0.001177
0.007548
-0.032533
0.129220
0.006430
0.093734
0.126690
0.171194
0.062091
0.134049
0.061202
0.147358
0.154565
0.097078
0.137271
0.227821
0.177443
0.110169
0.059668
0.176146
0.080314
0.085235
0.112899
0.111914
0.100577
0.104349
0.066561
0.116001
0.048640
0.007518
0.078247
0.012208
0.016191
-0.036115
-0.025476
0.060706
-0.065821
0.036230
0.039003
-0.058389
-0.094124
0.017743
0.000657
-0.066857
-0.068897
-0.057971
0.015408
-0.051776
-0.065143
-0.072535
0.020863
-0.095472
-0.173321
-0.023372
0.160895
0.241210
0.557268
0.976683
1.158630
1.372225
1.355915
1.121665
0.798052
0.399150
0.102293
-0.137059
-0.233499
-0.253977
-0.260253
-0.179660
-0.091419
-0.062822
-0.008308
-0.020365
-0.001933
0.022372
-0.047531
-0.062666
-0.050303
-0.059300
-0.072863
0.028486
-0.003032
-0.021833
0.019775
0.026790
0.063150
0.149233
0.052211
0.106520
0.055413
0.151406
0.167683
0.120684
0.190734
0.155318
0.257169
0.224773
0.242895
0.319284
0.303653
0.312866
0.355519
0.342028
0.357140
0.351417
0.415715
0.338233
0.399049
0.448004
0.430460
0.484193
0.441463
0.408591
0.384753
0.528831
0.470025
0.434550
0.470636
0.355742
0.383043
0.304575
0.429619
0.295364
0.318571
0.404159
0.297085
0.312645
0.315110
0.242471
0.211196
0.292307
0.113631
0.088837
0.169189
0.139844
0.144455
0.061909
0.093392
0.049892
0.089017
0.093098
0.021980
0.013731
0.022931
-0.037092
0.018590
-0.015242
-0.021804
0.037332
0.018434
0.014179
-0.017480
-0.050805
-0.037675
0.024887
-0.015753
0.041000
0.020152
0.021295
-0.077609
-0.072068
-0.012749
-0.058808
-0.105253
-0.014207
-0.047534
-0.079437
0.013175
-0.066992
-0.013219
-0.067757
-0.008630
0.016871
-0.054199
-0.033896
-0.045624
0.035112
0.020041
-0.024946
0.000202
0.025634
-0.008146
-0.022985
-0.041886
-0.058459
-0.055216
-0.030771
-0.015991
0.053850
-0.002678
-0.010207
-0.064052
-0.004236
-0.001614
-0.024593
-0.122992
-0.050033
-0.045148
-0.094281
-0.022310
-0.039668
-0.018958
-0.030937
0.000267
-0.087135
0.036718
-0.053529
0.024252
-0.020177
-0.030884
0.110477
0.006254
-0.001244
0.051640
0.113342
0.037039
-0.016868
-0.016164
0.078728
0.094716
0.024793
0.106393
0.053148
0.142319
0.139409
0.148107
0.165429
0.166709
0.145993
0.150507
0.161158
0.151955
0.239325
0.189505
0.094568
0.132416
0.106425
0.061769
0.135701
0.159449
0.070149
0.146203
0.052714
0.083550
0.090812
0.047073
0.049124
0.013440
0.063880
-0.006337
0.036562
0.001514
0.036794
-0.025966
0.062052
0.038717
0.032967
0.066384
0.016257
-0.022766
-0.020613
-0.001433
0.038209
-0.015888
-0.052623
0.014794
-0.014767
0.114702
0.186086
0.445530
0.888171
1.155325
1.282571
1.440530
1.221616
0.925710
0.594887
0.236838
-0.015250
-0.244798
-0.193191
-0.221698
-0.088698
-0.046524
0.034709
-0.007954
0.029845
0.029833
0.006065
0.032487
0.002125
0.061598
0.020866
0.074813
0.054481
0.037963
0.106200
0.077923
0.166949
0.132691
0.098995
0.233736
0.169277
0.170605
0.174644
0.158881
0.291712
0.275863
0.226523
0.268080
0.270524
0.347926
0.368367
0.472657
0.421076
0.393042
0.460870
0.485199
0.525648
0.543765
0.581484
0.491380
0.483471
0.499348
0.588591
0.594622
0.567382
0.557485
0.540676
0.536367
0.545168
0.554356
0.558790
0.470021
0.468369
0.425398
0.531771
0.451288
0.387800
0.386397
0.420151
0.362855
0.392873
0.310779
0.335540
0.257269
0.266708
0.286479
0.189371
0.182037
0.154541
0.313062
0.176571
0.180394
0.104836
0.132430
0.079761
0.166058
0.119541
0.138432
0.045274
0.005377
0.052719
0.012000
0.101130
0.043507
0.074978
0.028148
0.143719
0.082947
0.057059
0.061814
0.141419
0.048555
0.079437
0.054856
0.066870
0.027562
0.055429
0.073247
0.106179
0.055355
0.057824
0.060555
0.013407
0.116788
0.106903
0.137693
0.098040
0.095028
0.055649
0.080112
0.064450
0.124992
0.095025
0.057185
0.061208
0.046063
0.115450
0.008569
0.029851
0.081434
0.096698
0.017667
0.046028
-0.006723
0.061743
0.067777
0.071885
0.060434
0.112969
0.164381
0.097792
0.042882
0.047864
0.021414
0.045146
0.025851
0.030632
0.152832
0.118384
0.023635
0.068156
0.101506
0.159504
0.143269
0.168222
0.134175
0.108046
0.121125
0.107998
0.211964
0.096874
0.160764
0.163026
0.218631
0.239852
0.252733
0.154147
0.218638
0.250766
0.254115
0.223885
0.316069
0.231009
0.308161
0.206590
0.265400
0.277586
0.235555
0.225573
0.205606
0.233694
0.280262
0.276081
0.193215
0.162700
0.225097
0.128417
0.173151
0.269041
0.176052
0.146501
0.159487
0.101482
0.122794
0.145119
0.038257
0.105139
0.094038
0.087303
0.075446
0.109869
0.110023
0.024857
0.072175
0.103595
0.137729
0.083749
0.041423
0.043307
0.135579
0.333504
0.481770
0.855172
1.232535
1.472265
1.422993
1.405146
1.114451
0.813857
0.375848
0.043395
-0.091684
-0.195032
-0.167929
-0.090793
0.004219
-0.001146
0.024139
0.099237
0.093016
0.112593
0.124312
0.170720
0.236202
0.127945
0.114625
0.064820
0.136573
0.188228
0.200950
0.186593
0.106068
0.193252
0.189678
0.215904
0.189396
0.240112
0.300071
0.231405
0.253929
0.330068
0.313282
0.385433
0.384218
0.422546
0.478001
0.412103
0.500897
0.450677
0.539679
0.599738
0.560534
0.545970
0.567724
0.628359
0.529340
0.570034
0.590913
0.564142
0.520445
0.567328
0.580164
0.580608
0.603765
0.604152
0.653933
0.515230
0.560298
0.570072
0.520641
0.481538
0.364247
0.408762
0.418633
0.388827
0.368906
0.361561
0.288926
0.326240
0.270793
0.316128
0.220678
0.213529
0.199169
0.158387
0.213864
0.132858
0.163827
0.166910
0.037221
0.121555
0.115753
0.183161
0.087768
0.053945
0.142427
0.179117
0.053307
0.033295
0.130369
0.026132
0.015000
0.082914
0.019834
0.079352
0.060969
0.085567
0.054776
0.110729
0.061248
0.068977
0.075296
0.098803
0.025093
0.056760
0.081640
0.108993
0.149888
-0.020360
-0.023801
0.109923
0.123190
0.031120
0.109168
-0.035858
0.028523
0.109021
0.090159
0.084529
0.063987
-0.049037
0.017693
0.024316
0.116018
0.087575
0.065459
0.031865
0.053441
0.083300
0.087190
0.065912
0.049743
0.029612
0.018502
0.071064
-0.023418
0.002713
0.076188
-0.010403
0.060052
0.038097
0.025112
0.011978
-0.008715
0.059080
0.070942
0.090880
0.004541
0.051042
0.048078
0.067491
0.098754
0.199324
0.108458
0.173495
0.091423
0.123851
0.164366
0.119115
0.199414
0.118718
0.212030
0.192053
0.196379
0.171985
0.230659
0.208802
0.104457
0.174364
0.227031
0.145076
0.218918
0.144162
0.100786
0.145403
0.189310
0.144696
0.151245
0.101593
0.121480
0.059134
0.110075
0.095094
0.081455
-0.026979
0.051068
0.070315
0.072204
0.092060
0.019961
0.024004
0.017048
0.011713
-0.036183
0.005016
0.088728
0.020348
-0.005014
-0.059557
-0.032249
0.004135
-0.001156
-0.047368
0.042194
0.111072
0.347658
0.631242
0.948286
1.249527
1.315366
1.293406
1.113280
0.822247
0.428441
0.081482
-0.150101
-0.244920
-0.316358
-0.257947
-0.167053
-0.102104
-0.015116
-0.090647
0.070500
-0.000723
-0.000435
-0.020731
-0.001995
-0.005732
0.048632
0.015100
-0.020447
0.044830
0.012836
0.027119
-0.032563
0.142684
0.131755
0.065417
0.092786
0.071508
0.192839
0.130670
0.244040
0.179650
0.181016
0.230053
0.238792
0.372117
0.289435
0.350978
0.338321
0.396174
0.343499
0.402230
0.414967
0.408666
0.426623
0.419478
0.512566
0.413221
0.522910
0.488794
0.461901
0.395499
0.446010
0.416709
0.473858
0.446094
0.389032
0.393728
0.431756
0.389996
0.368062
0.313331
0.423451
0.269067
0.306792
0.337764
0.345958
0.255183
0.188960
0.159695
0.045727
0.138842
0.140069
0.097083
0.045892
0.053344
0.099930
-0.029928
0.039163
0.033512
0.010980
0.034926
0.057403
-0.067492
0.005747
0.020583
0.048342
-0.057561
-0.006813
-0.061854
-0.062537
-0.026318
-0.025592
-0.071722
-0.048850
-0.069396
-0.096387
-0.047913
-0.010722
-0.090352
-0.017870
-0.073959
-0.004941
-0.065116
-0.166427
0.000648
-0.069035
-0.056936
-0.027768
-0.039368
-0.041855
-0.064864
-0.038343
-0.063831
-0.097884
-0.073836
-0.047600
-0.068664
-0.134200
-0.081600
-0.080171
-0.012543
-0.044201
-0.111642
-0.057210
-0.041532
-0.098551
-0.085866
0.018998
-0.100356
-0.097675
-0.091225
-0.002539
-0.130020
-0.028759
-0.052871
-0.131093
-0.025309
-0.105653
-0.099218
-0.130181
-0.035323
-0.119602
-0.058457
-0.011507
-0.095318
-0.069422
-0.018934
-0.080474
-0.160071
0.036789
0.003230
0.044551
-0.093852
0.029890
0.034202
-0.113730
0.029079
0.006320
-0.005474
0.095351
0.115213
0.028072
0.062109
0.042400
0.108626
0.053780
0.068226
0.131264
0.049899
0.091482
0.090854
0.061285
0.091220
0.126350
-0.001766
0.091188
0.025230
0.074980
-0.039668
0.034171
-0.043158
-0.017076
-0.069754
-0.072283
-0.030963
-0.037729
-0.103460
-0.089248
-0.122938
-0.092964
-0.037232
-0.009775
-0.019359
-0.095033
-0.053632
-0.082018
-0.107759
-0.106849
-0.122294
-0.090019
-0.068573
-0.147611
-0.129105
-0.070493
-0.052185
0.173824
0.425423
0.800336
1.007919
1.338142
1.286177
1.141025
0.751221
0.494390
0.043648
-0.116653
-0.197923
-0.264586
-0.271560
-0.187353
-0.128002
-0.086311
0.008501
0.010078
0.038783
-0.104220
-0.068060
-0.044823
-0.023746
0.007199
-0.080405
-0.037714
-0.056491
0.046507
-0.051590
0.040247
0.049586
0.075697
0.032916
0.053611
0.066216
0.153870
0.136405
0.174157
0.185365
0.193060
0.162989
0.147258
0.290331
0.223857
0.319119
0.248120
0.317558
0.351171
0.419860
0.403909
0.363068
0.406180
0.413840
0.423391
0.422725
0.435949
0.519349
0.456833
0.439398
0.446619
0.407345
0.381873
0.485692
0.359478
0.405138
0.411776
0.423798
0.347395
0.297580
0.335192
0.259553
0.268918
0.236323
0.166473
0.080157
0.123446
0.167488
0.047076
0.155584
0.076096
0.151300
0.106669
0.050977
0.029804
0.129906
0.002829
0.059748
-0.010285
-0.038179
0.099864
0.017595
-0.013170
0.059288
0.036807
-0.027897
-0.037505
-0.018702
-0.056723
-0.078178
-0.092699
-0.021124
-0.050195
-0.036040
-0.071648
-0.058391
-0.051984
-0.111501
-0.074600
-0.063182
-0.051429
0.010096
-0.053507
-0.070062
-0.053013
-0.040813
-0.043784
-0.014112
-0.056878
-0.087782
-0.014614
0.040518
-0.070189
-0.074519
-0.018420
-0.058336
-0.064601
-0.118033
-0.026530
0.056862
-0.045767
-0.048353
-0.089778
-0.052555
-0.057459
-0.014867
0.032163
-0.005548
-0.045541
-0.019623
-0.012637
-0.058448
-0.053324
-0.020295
-0.048827
-0.075109
-0.032020
-0.016144
-0.023765
-0.009170
-0.043563
-0.063048
0.008887
0.032149
0.059732
0.013016
-0.052934
0.067277
0.077824
0.036117
0.054416
0.037853
0.075092
0.038084
0.123224
0.106553
0.070342
0.163208
0.019653
0.156909
0.166304
0.178056
0.140846
0.183747
0.175753
0.117299
0.166722
0.227149
0.117088
0.179454
0.216641
0.197743
0.120930
0.176235
0.135742
0.242150
0.043275
0.080648
0.100105
0.034047
0.031307
0.022947
0.030203
0.071365
0.062659
-0.000837
0.034660
-0.000278
0.101895
-0.014219
0.083224
0.095475
0.066561
-0.039200
-0.003195
-0.021900
0.032265
0.009843
0.012419
-0.050407
0.007519
0.008756
-0.068263
0.044414
0.245263
0.529760
0.798442
1.147887
1.332700
1.448947
1.327924
0.976563
0.606745
0.289172
0.032460
-0.151830
-0.226840
-0.227660
-0.140744
-0.102271
-0.052599
-0.000051
0.013164
-0.017352
0.009269
0.116529
0.091813
0.067199
0.124879
-0.007343
0.019540
0.078146
0.112784
0.050810
0.222452
0.096460
0.167307
0.180946
0.160987
0.219771
0.187121
0.279640
0.153071
0.322761
0.264307
0.294894
0.278562
0.299671
0.333613
0.409520
0.407319
0.327787
0.391014
0.447548
0.461984
0.559925
0.523839
0.543070
0.515050
0.582016
0.510696
0.629244
0.574493
0.508683
0.478147
0.596186
0.586258
0.511281
0.401408
0.467638
0.446300
0.460907
0.428182
0.384327
0.427610
0.340671
0.395169
0.353348
0.376944
0.347340
0.253963
0.264904
0.280676
0.209679
0.209869
0.241699
0.154113
0.200309
0.115128
0.178637
0.128775
0.084264
0.142220
0.057862
0.064001
0.045352
0.094401
0.141943
0.013272
0.092801
0.072643
0.030612
0.050630
-0.001312
0.076348
0.068826
-0.010467
0.038541
0.023630
0.057718
0.011194
0.040652
0.054866
0.053892
0.127121
0.067912
0.123825
0.108794
0.039942
0.018745
0.131429
0.031141
0.045281
0.007992
-0.006899
0.142299
0.062342
0.028852
0.058829
0.006890
0.097072
0.038877
0.099229
-0.019795
0.025290
-0.062113
0.025605
0.047912
0.025713
0.017927
-0.002610
0.125550
0.077903
0.022067
0.081806
0.050438
0.003595
0.044438
0.083842
0.043417
0.105323
-0.005954
0.065355
-0.027027
0.078816
0.051649
0.025046
0.081730
0.063227
-0.025288
0.034050
0.032907
0.090039
0.121428
0.073534
0.110603
0.099814
0.143531
0.015166
0.119055
0.179933
0.115000
0.139655
0.209374
0.193271
0.210325
0.217600
0.235938
0.233238
0.162628
0.186059
0.168585
0.182529
0.193459
0.228290
0.201536
0.164358
0.214832
0.196919
0.113108
0.131929
0.084968
0.055720
0.061046
0.109238
0.155233
0.092304
0.019580
-0.008967
0.089452
0.096472
-0.054371
0.057368
0.028196
-0.000307
0.102730
0.094782
-0.046413
0.079076
0.005364
0.029996
0.034557
0.049250
0.002046
0.034953
-0.077628
-0.033936
0.025213
0.181560
0.370438
0.714276
0.965098
1.210774
1.395374
1.386563
1.052283
0.708969
0.422841
0.064933
-0.193177
-0.184040
-0.268427
-0.121123
-0.070331
-0.042658
-0.061769
-0.027943
0.030585
0.073447
0.024275
0.007983
-0.028828
0.008454
0.054102
0.072751
0.092932
0.092031
0.057369
-0.003625
0.126815
0.136877
0.076439
0.190562
0.120650
0.174224
0.187371
0.190847
0.172475
0.279153
0.252133
0.405460
0.277693
0.287580
0.322308
0.349194
0.393105
0.411641
0.411394
0.432742
0.415225
0.491789
0.436206
0.395539
0.534995
0.432881
0.532269
0.587215
0.468733
0.469085
0.473976
0.483687
0.452486
0.436972
0.437419
0.436578
0.456993
0.305044
0.471936
0.355885
0.376281
0.299552
0.371178
0.302065
0.129388
0.279568
0.242549
0.223619
0.201489
0.216966
0.108476
0.069566
0.144965
-0.015195
0.083621
0.098450
0.071710
0.073136
0.092995
0.002081
0.049070
0.066083
0.039248
-0.006278
0.008945
0.017023
0.015917
-0.110230
0.052479
-0.040620
-0.042113
-0.036117
0.036287
-0.019883
-0.023048
-0.049248
-0.011013
0.002651
-0.047389
-0.014461
-0.003920
-0.008976
-0.088722
-0.111933
-0.055840
-0.052456
0.004954
-0.107226
-0.038900
-0.063263
-0.129604
-0.081590
-0.037442
0.010230
-0.089257
-0.056189
0.007778
-0.086742
-0.052105
-0.042574
0.011499
-0.045123
-0.019188
-0.055621
0.017246
-0.086461
-0.034422
-0.026149
-0.097022
-0.058170
-0.067236
-0.062006
-0.043623
-0.017205
-0.063752
-0.004361
-0.098286
-0.037651
0.035431
-0.003220
-0.112227
-0.141546
-0.072179
-0.128086
-0.052202
0.042491
-0.104905
-0.023197
-0.074420
-0.015671
0.024382
0.011188
-0.046424
0.054659
0.074791
0.009639
0.018178
0.037760
0.016007
0.024263
0.049586
0.006036
0.066829
0.138769
0.141966
0.157676
0.087864
0.084364
0.091134
0.131909
0.094105
0.233785
0.122531
0.081078
0.074181
0.034319
0.030449
0.021953
0.019143
-0.019672
-0.061766
-0.054359
-0.060480
-0.069616
-0.039018
0.001052
-0.099646
-0.012506
-0.067742
-0.105705
-0.011454
-0.059322
-0.103806
-0.070629
-0.111208
-0.179558
-0.136443
-0.065892
-0.066512
-0.154915
-0.192357
-0.122792
0.014462
0.073411
0.162685
0.473308
0.827932
1.073571
1.245903
1.192232
1.073679
0.756149
0.383938
-0.016674
-0.256710
-0.391525
-0.323069
-0.308262
-0.295975
-0.156312
-0.123570
-0.050041
-0.093374
-0.056109
-0.087588
-0.102809
-0.073178
-0.031639
-0.009757
-0.072363
-0.031435
0.020175
-0.115106
-0.060641
-0.049937
-0.005131
-0.011383
0.038378
0.083767
0.009944
-0.002358
0.124159
0.230763
0.095135
0.239554
0.153940
0.225857
0.196896
0.223677
0.304239
0.399416
0.287069
0.312107
0.424245
0.447691
0.341287
0.377155
0.355587
0.475268
0.407821
0.458593
0.439750
0.377641
0.362045
0.360171
0.421959
0.394396
0.355158
0.341810
0.387744
0.251308
0.288994
0.268106
0.332875
0.334331
0.294361
0.191146
0.196370
0.169093
0.125761
0.199686
0.133084
0.099688
0.016575
0.147467
0.079995
0.088841
0.060739
0.068014
0.047407
0.023480
0.008669
-0.030402
-0.074455
-0.109704
0.042881
-0.015592
-0.056016
-0.048541
-0.087967
-0.094084
-0.097134
-0.049748
-0.162108
-0.124416
-0.147777
-0.139951
-0.072587
-0.054173
-0.082516
-0.086875
-0.069400
-0.091284
-0.145097
-0.079752
-0.055610
-0.105716
-0.072002
-0.155796
-0.084176
-0.094708
-0.143961
-0.065619
-0.094298
-0.182492
-0.142503
-0.070389
-0.070815
-0.062600
-0.031829
-0.154223
-0.063504
-0.116481
-0.133765
-0.082460
-0.081417
-0.087865
-0.134063
-0.040102
-0.095354
-0.097854
0.028695
-0.109528
-0.061648
-0.137121
-0.074667
-0.146418
-0.165431
-0.078375
-0.060389
-0.095400
-0.062118
-0.069366
-0.048615
-0.132287
-0.059388
0.090611
-0.023291
-0.127006
-0.085575
-0.047753
-0.087255
-0.017594
-0.079176
-0.069625
-0.042441
0.025569
-0.005129
-0.045212
0.013350
0.070720
0.018710
0.125591
0.086838
0.064986
0.113584
0.072088
0.135322
0.115053
0.098054
0.124525
0.041108
0.156971
0.125011
0.088889
0.059244
0.080458
0.077866
0.012230
0.059791
0.003876
-0.058437
0.051740
-0.044450
0.073159
0.035090
-0.036114
-0.055806
-0.008311
-0.064512
-0.037031
-0.007310
-0.088446
-0.008101
-0.037117
-0.012651
-0.039755
0.017069
-0.035190
-0.067653
-0.085701
-0.052938
-0.074480
-0.028657
-0.093596
-0.115640
-0.065054
-0.044581
0.174960
0.461954
0.837205
1.153298
1.345963
1.311535
1.186883
0.793398
0.566381
0.159421
-0.167894
-0.253590
-0.305163
-0.276920
-0.215599
-0.146382
-0.067742
-0.044155
-0.058703
0.010925
-0.007985
0.044235
0.034244
-0.035186
0.053899
0.001257
0.134990
-0.029555
0.041676
0.041438
-0.019122
0.054055
0.038879
0.104951
0.198075
0.069253
0.125991
0.138263
0.214298
0.143576
0.259127
0.258067
0.245725
0.210831
0.264240
0.251240
0.401126
0.407355
0.371350
0.395241
0.364218
0.435421
0.459990
0.496810
0.495344
0.485147
0.440338
0.506138
0.543682
0.421367
0.574620
0.421432
0.453538
0.384963
0.430244
0.408670
0.458962
0.426378
0.357142
0.446701
0.371217
0.323390
0.326157
0.260246
0.195262
0.316732
0.237042
0.230035
0.229501
0.179077
0.155529
0.145649
0.227750
0.154452
0.174706
0.171721
0.094669
0.068056
0.046821
0.011032
0.012244
0.079848
0.028081
0.032512
0.092879
0.057370
0.119783
0.072181
0.034742
0.014201
0.016450
0.115926
0.024960
0.007552
0.010121
0.036222
0.013899
-0.024005
0.013842
-0.034066
-0.004624
0.068154
0.078222
0.050389
0.093819
0.056007
0.114904
0.060821
0.029229
0.076530
0.010304
0.060877
-0.030322
0.014162
-0.024354
0.032771
0.020278
0.099732
0.012426
0.052195
-0.005835
0.033700
-0.080499
0.000845
0.012890
0.028367
0.034809
0.025772
0.077505
0.049540
0.105556
0.019707
0.055816
0.076449
0.068965
0.037946
0.030322
0.059716
0.017236
0.040137
0.101849
0.061317
0.055479
0.167247
-0.007202
0.122622
-0.063646
0.020860
0.085131
0.056760
0.164252
0.161372
0.137273
0.169456
0.196842
0.126514
0.164808
0.153726
0.135294
0.181085
0.205660
0.141534
0.227910
0.254486
0.198280
0.222442
0.276728
0.170997
0.205711
0.206013
0.207231
0.312742
0.120040
0.178430
0.213031
0.175969
0.086779
0.066025
0.129927
0.067054
0.135039
0.022927
0.097619
0.042775
0.110007
0.058287
0.075162
0.155749
0.110020
0.061350
0.089653
0.119020
0.002387
0.073626
0.052326
0.175860
0.049855
-0.002612
0.114069
0.074174
0.071869
0.032877
0.037394
0.092872
0.219520
0.489769
0.764658
1.068155
1.450124
1.485567
1.386225
1.100102
0.754578
0.379634
0.073202
-0.073253
-0.199430
-0.190681
-0.169981
-0.026739
0.107913
0.053664
0.046797
0.153763
0.066960
0.042101
0.156138
0.107070
0.086148
0.169550
0.110641
0.123768
0.081259
0.172607
0.162770
0.124136
0.137764
0.241073
0.227201
0.183157
0.326366
0.224014
0.311613
0.267621
0.331306
0.304551
0.351911
0.268890
0.455909
0.338563
0.494885
0.442828
0.439460
0.413865
0.482452
0.548663
0.584472
0.553203
0.581445
0.572895
0.595066
0.519818
0.592411
0.555608
0.601646
0.551882
