0.040488
0.043561
0.021969
0.004830
0.030982
-0.000629
0.025549
-0.044972
0.015523
-0.058970
0.075430
-0.056265
-0.010280
0.078391
0.070748
0.056728
0.002380
-0.008928
0.065892
0.074016
0.083712
0.054437
0.065268
0.091365
0.057869
0.107717
0.103896
0.144035
0.177902
0.209715
0.165123
0.131299
0.226511
0.175790
0.227427
0.194711
0.196894
0.142461
0.220623
0.208934
0.186958
0.173637
0.247387
0.133964
0.102109
0.160709
0.210296
0.098946
0.055281
0.041271
0.098495
0.092167
0.157036
0.076740
0.063222
0.046930
0.063671
0.075205
0.086342
0.003319
0.078734
0.025366
0.088830
0.033413
0.207157
0.226184
0.636205
0.820294
1.155511
1.417672
1.412385
1.311170
1.017248
0.657143
0.263834
0.067010
-0.061266
-0.013560
-0.064997
0.030240
0.120020
0.058807
0.054630
0.045988
0.194642
0.091024
0.167852
0.140877
0.226873
0.256354
0.259706
0.220639
0.284586
0.256475
0.380093
0.356060
0.287077
0.265440
0.338372
0.390897
0.437589
0.447789
0.507302
0.468375
0.484197
0.517720
0.546254
0.579814
0.589737
0.553646
0.532556
0.575501
0.599809
0.610425
0.625965
0.571156
0.567374
0.575617
0.634045
0.547446
0.518395
0.551945
0.574306
0.483203
0.460351
0.445226
0.406756
0.439706
0.377437
0.420099
0.376887
0.301270
0.291534
0.244971
0.291009
0.292697
0.264326
0.283249
0.131696
0.227601
0.144819
0.215767
0.136529
0.153156
0.155230
0.141673
0.144108
0.110661
0.078584
0.106113
0.106928
0.112500
0.122684
0.108911
0.134600
0.013473
0.141489
0.131907
0.080711
0.125649
0.097180
0.039386
0.069358
0.107070
0.082775
0.094332
0.005686
0.050152
0.112925
0.043853
0.105331
0.084302
0.131190
0.048357
0.000622
0.162086
0.065211
0.007442
0.001464
0.057113
0.097508
0.015760
0.095941
0.101464
0.082111
0.187394
0.151654
0.057756
0.071335
0.035149
0.133514
0.110464
0.103321
0.088640
0.156563
0.279904
0.142742
0.171156
0.231825
0.185231
0.230097
0.191062
0.280944
0.211172
0.255789
0.324541
0.286755
0.347748
0.274277
0.245206
0.342911
0.306492
0.279845
0.274607
0.224200
0.150866
0.203496
0.298788
0.177066
0.090303
0.187802
0.218673
0.202871
0.216596
0.175407
0.152695
0.079375
0.131584
0.104851
0.157361
0.132745
0.108506
0.101520
0.101271
0.103338
0.091792
0.108598
0.148967
0.163902
0.247381
0.413484
0.709542
1.021442
1.320375
1.467302
1.473778
1.180377
0.834374
0.472806
0.224894
-0.044663
-0.005991
-0.049193
-0.055248
0.113783
0.076371
0.135461
0.165777
0.094804
0.242244
0.159797
0.175967
0.273466
0.121833
0.244777
0.218265
0.237726
0.386959
0.274796
0.330623
0.358612
0.479263
0.375117
0.333168
0.426014
0.426875
0.497641
0.482499
0.492516
0.549704
0.576568
0.571683
0.561663
0.559807
0.559625
0.576598
0.653399
0.581325
0.507196
0.676689
0.654213
0.439675
0.615851
0.529405
0.577541
0.629362
0.552628
0.466480
0.501494
0.451970
0.438882
0.407740
0.397720
0.329906
0.398319
0.300557
0.350693
0.394646
0.332321
0.262005
0.204989
0.185297
0.198674
0.161278
0.056534
0.215806
0.143588
0.121573
0.150890
0.137909
0.096604
0.138130
0.042076
0.069518
0.109107
0.072766
0.109608
0.052581
0.043220
0.046298
0.067945
0.000538
0.106100
0.104354
0.062488
0.069564
0.036000
0.116977
0.051567
0.002665
0.050898
0.001363
0.084374
0.053624
0.010037
0.008840
0.092778
-0.036832
-0.003311
0.076957
-0.006939
0.010082
0.073759
0.042577
0.019164
0.037464
0.073729
0.074101
0.124693
-0.021941
0.063219
0.060046
0.001875
0.061733
0.090166
0.129426
0.128547
0.058137
0.081834
0.042038
0.003793
0.050747
0.076409
0.084077
0.241245
0.103904
0.230061
0.195426
0.178303
0.137128
0.213118
0.160491
0.192169
0.192943
0.205303
0.218965
0.147969
0.149665
0.223113
0.168810
0.186779
0.149524
0.112208
0.151048
0.107745
0.104399
0.063894
0.099923
0.036973
0.047011
0.024941
0.058909
-0.001179
0.035900
0.009277
0.001223
0.082868
-0.010324
-0.021456
-0.032853
-0.002941
0.000213
0.024522
0.205374
0.341571
0.495293
0.931307
1.079030
1.423047
1.337073
1.185158
0.848775
0.645276
0.117382
-0.055233
-0.115096
-0.194882
-0.103900
-0.097509
0.026770
0.083082
0.112869
0.095497
0.030534
0.072538
0.081888
0.163590
0.199163
0.150468
0.173915
0.161408
0.208079
0.208676
0.222947
0.196559
0.217593
0.235400
0.303699
0.243285
0.366832
0.315684
0.381679
0.379550
0.400661
0.500843
0.485274
0.494292
0.584294
0.438259
0.483249
0.531238
0.521353
0.516544
0.505632
0.538840
0.503663
0.417498
0.409347
0.472063
0.386005
0.415076
0.418709
0.340831
0.409268
0.425943
0.362717
0.294569
0.360633
0.322192
0.234645
0.242520
0.279653
0.129778
0.181541
0.126846
0.196650
0.132437
0.055146
0.070419
0.018409
0.131261
0.075278
0.077496
0.008823
0.066068
0.067536
0.045874
0.039660
-0.039036
0.002350
0.038923
-0.026061
-0.015382
-0.062743
-0.007243
0.032147
-0.013251
-0.040343
-0.075642
-0.013639
-0.064499
-0.034769
0.021567
-0.074663
-0.017910
-0.107896
0.011746
-0.018817
0.016057
-0.049017
-0.030478
-0.044979
-0.057802
-0.039112
-0.019772
-0.056613
-0.006133
0.067206
-0.024747
-0.031723
-0.030802
-0.043766
-0.044454
0.026864
-0.012902
0.021358
-0.097936
-0.054951
-0.014302
-0.010072
-0.071503
0.026115
-0.033461
0.103087
-0.033923
-0.021454
-0.018439
0.040303
0.077665
0.058431
0.123717
0.017237
0.107205
0.076123
0.167044
0.089728
0.062558
0.242080
0.155829
0.160233
0.133634
0.108665
0.127171
0.198601
0.050367
0.045317
0.062247
0.059502
0.146898
0.033907
-0.003113
-0.011186
0.099340
0.057769
0.053081
0.033810
-0.016711
-0.028544
0.058751
0.020699
-0.088881
-0.071235
-0.014569
-0.013171
-0.018818
-0.043422
0.041435
0.031734
0.160191
0.324741
0.647642
1.031188
1.185438
1.300039
1.300695
1.021969
0.591193
0.303823
0.021478
-0.139883
-0.242427
-0.219697
-0.175491
-0.043824
-0.018425
-0.033362
0.044559
0.062185
0.017014
0.143689
0.061103
0.107772
0.105023
0.122183
0.138853
0.145702
0.183337
0.152099
0.230778
0.157475
0.217365
0.213466
0.288770
0.318868
0.277860
0.308770
0.452283
0.324244
0.392653
0.399079
0.458144
0.474075
0.338752
0.442705
0.543149
0.472113
0.510269
0.517870
0.514663
0.555048
0.442949
0.492548
0.402227
0.403359
0.368349
0.488698
0.452176
0.399259
0.372691
0.361573
0.276037
0.369241
0.299720
0.256713
0.264423
0.231615
0.234700
0.255901
0.161116
0.149613
0.153106
0.066534
0.014047
0.080035
0.055165
0.019227
0.111180
-0.062296
0.046675
-0.004931
0.096784
0.050214
-0.069830
0.033859
0.027079
-0.013305
-0.014009
0.028641
0.066398
-0.063867
-0.063278
0.008569
-0.014356
-0.028432
-0.001170
-0.027194
-0.035149
0.017051
0.039690
0.084304
0.056960
-0.009663
0.006995
0.025515
0.079467
0.033289
0.002148
-0.004169
-0.053624
0.099026
-0.038953
0.028601
0.022295
-0.024741
-0.002214
-0.001387
-0.065922
-0.000670
0.059540
0.001720
0.117797
0.079772
-0.013938
0.031820
0.062214
0.046483
0.111754
0.032567
0.074247
0.021924
0.057155
0.130285
0.122185
0.090834
0.109011
0.158459
0.109423
0.232093
0.202389
0.150275
0.194398
0.146170
0.273656
0.198080
0.192437
0.265914
0.184069
0.185626
0.190256
0.185798
0.290583
0.169514
0.092892
0.178881
0.110219
0.094080
0.056916
0.182669
0.027667
0.088872
0.081070
0.027813
-0.007767
0.159200
-0.027772
-0.000282
0.047957
0.121718
0.006499
0.001014
0.089579
0.033451
0.172897
0.366783
0.550617
0.790437
1.236214
1.400338
1.344980
1.206361
0.940657
0.574623
0.150052
-0.044181
-0.159528
-0.066912
-0.009403
0.011215
0.037129
0.128603
0.125889
0.038932
0.154375
0.089496
0.240002
0.211898
0.135503
0.166892
0.163350
0.203442
0.225628
0.222333
0.312419
0.267542
0.303218
0.342635
0.403242
0.329531
0.423449
0.372301
0.463147
0.440380
0.469998
0.540283
0.502203
0.549071
0.636377
0.595363
0.621520
0.582763
0.560074
0.525146
0.625145
0.561264
0.571294
0.622683
0.553282
0.502763
0.549702
0.458401
0.564734
0.587176
0.420889
0.418452
0.390825
0.383243
0.473221
0.352700
0.364896
0.349432
0.380559
0.250077
0.236352
0.283437
0.165668
0.239591
0.229646
0.150486
0.146128
0.115637
0.210942
0.118710
0.150151
0.137572
0.051041
0.103480
0.125048
0.204448
0.095386
0.023578
0.091553
0.061351
0.007128
0.108596
-0.004450
0.129324
-0.010595
0.084016
0.018686
0.068926
0.021563
0.047371
0.122044
0.041349
0.120580
0.112988
-0.019077
0.059618
0.116810
0.036000
0.084413
0.071326
0.029425
0.009777
0.035142
0.163226
0.115269
0.145074
0.073004
0.049345
0.057455
0.050269
0.100040
0.091884
0.161812
0.012626
0.126975
0.145853
0.176444
0.110433
0.102950
0.104940
0.246050
0.047830
0.194248
0.109147
0.223963
0.177663
0.193831
0.185231
0.284103
0.271097
0.271706
0.230735
0.234014
0.285127
0.241819
0.213703
0.300068
0.288510
0.318864
0.283832
0.245125
0.247399
0.289108
0.226236
0.267037
0.220093
0.220272
0.199140
0.167789
0.150355
0.138050
0.116606
0.145262
0.163735
0.008047
0.129603
0.115622
0.068171
0.054937
0.158108
0.103294
0.016403
0.105532
0.141539
0.214595
0.361045
0.523236
0.802911
1.099581
1.440837
1.500000
1.463474
1.065018
0.758570
0.327586
0.103528
-0.106400
-0.046091
-0.035376
0.010934
-0.024595
0.185794
0.207745
0.236340
0.212864
0.201238
0.325356
0.223724
0.274361
0.237353
0.272992
0.268345
0.269704
0.349198
0.317734
0.327463
0.339540
0.400961
0.400723
0.370513
0.461949
0.576274
0.601443
0.459532
0.538478
0.537332
0.513017
0.661040
0.632307
0.518372
0.626651
0.588185
0.607671
0.563593
0.664022
0.661644
0.639680
0.523237
0.566056
0.585001
0.622862
0.458146
0.469160
0.470745
0.518541
0.536163
0.427949
0.439175
0.453548
0.413974
0.367950
0.398347
0.352612
0.301006
0.263459
0.241687
0.344221
0.153706
0.219852
0.222173
0.208736
0.219134
0.092730
0.204958
0.091612
0.134671
0.132561
0.111909
0.025099
0.168104
0.144005
0.075047
0.105109
0.085522
0.187199
0.139637
0.110261
0.136046
0.050777
0.115475
0.073690
-0.010787
0.037112
0.077520
0.050972
0.084427
-0.016281
0.063522
0.030437
0.093025
0.059348
-0.000896
0.069976
0.033358
0.075366
0.057734
0.060563
0.073625
0.148561
0.094600
0.096920
0.107235
0.097373
-0.023899
0.028278
0.063988
0.089334
0.097505
0.084123
0.203510
0.113779
0.050790
0.198652
0.130235
0.086065
0.130129
0.106486
0.145235
0.236330
0.094879
0.186278
0.145479
0.195340
0.256680
0.220776
0.227665
0.282574
0.217534
0.161209
0.267081
0.266425
0.224797
0.251414
0.199903
0.192115
0.137366
0.135794
0.238807
0.207511
0.153609
0.145086
0.082979
0.166180
0.096180
0.173085
0.147635
0.139588
0.072506
-0.015145
0.018352
0.006032
0.016775
0.001476
0.051679
0.018301
-0.036399
0.033013
0.008621
0.084531
0.134012
0.310195
0.618560
0.964887
1.346633
1.386307
1.337883
1.086600
0.700579
0.458281
0.065174
-0.115842
-0.105269
-0.031093
-0.023030
0.027700
0.047632
0.095712
0.069637
0.067129
0.144485
0.144321
0.106162
0.139675
0.105737
0.104284
0.211201
0.183780
0.181667
0.197864
0.267260
0.278093
0.295189
0.209226
0.353176
0.246454
0.325980
0.372916
0.362518
0.409509
0.412367
0.502075
0.478872
0.456614
0.473732
0.397235
0.524812
0.496893
0.500274
0.541166
0.560894
0.396351
0.564472
0.604280
0.462992
0.473919
0.453113
0.447461
0.445101
0.355546
0.403473
0.403488
0.274985
0.309494
0.341699
0.228248
0.199317
0.264593
0.183770
0.184985
0.208427
0.170260
0.181200
0.107554
0.101390
0.157271
0.038328
-0.016326
0.007207
0.034260
0.040968
-0.045038
-0.025443
-0.017372
0.028058
0.052629
-0.039561
-0.061583
0.042109
-0.017057
-0.005619
-0.052748
0.010541
-0.064829
0.028689
-0.108081
-0.051589
-0.000733
-0.013073
-0.035414
0.020118
-0.000941
-0.052022
-0.015989
-0.028711
0.027489
0.012225
-0.052137
-0.059379
0.021701
0.017947
-0.073763
-0.044829
-0.052147
-0.041033
-0.036967
-0.038729
-0.022796
-0.022052
-0.098906
0.016661
-0.051407
-0.035345
-0.040790
-0.013465
0.063726
-0.099923
-0.067407
-0.064968
0.065836
0.049615
0.078530
-0.038607
0.018473
0.072096
0.081118
0.028788
0.115605
0.191192
0.106503
0.106107
0.132182
0.114385
0.051700
0.036918
0.196226
0.164338
0.071418
0.106891
0.093900
0.137167
0.159121
0.050383
0.026676
-0.041993
-0.025505
-0.036187
-0.054814
-0.056057
0.103221
0.046733
-0.074850
0.010268
-0.107315
-0.031464
-0.066564
-0.046936
-0.086440
-0.074946
-0.117765
-0.060589
-0.071172
-0.064319
-0.079808
-0.077418
0.188366
0.387396
0.724694
1.034601
1.211891
1.280088
1.220535
0.891315
0.372647
0.177701
-0.133366
-0.216992
-0.356681
-0.176760
-0.090745
-0.206072
-0.062213
-0.069491
-0.035281
0.008525
-0.032693
-0.035337
-0.012484
0.063322
0.089469
0.021660
0.063783
0.099411
0.137500
0.136649
0.196941
0.190170
0.182435
0.222216
0.176988
0.356115
0.258836
0.305928
0.308836
0.312567
0.331681
0.364406
0.401445
0.415638
0.435522
0.428863
0.451071
0.479303
0.474983
0.394786
0.496108
0.349345
0.381374
0.435754
0.475260
0.413529
0.348717
0.321443
0.373063
0.382515
0.256731
0.328006
0.212575
0.354787
0.210434
0.240681
0.139834
0.180535
0.086251
0.127694
0.082437
0.123233
0.060520
0.125019
-0.004533
-0.019226
0.001914
-0.020981
-0.008771
0.004714
-0.036003
-0.007172
0.005111
-0.082073
-0.037535
-0.052254
-0.002511
-0.042706
-0.089686
-0.054285
-0.014949
-0.042781
-0.027295
0.013267
-0.109616
-0.052721
-0.082651
-0.178702
-0.080917
-0.070634
-0.096699
-0.019873
-0.114495
-0.019577
-0.110704
-0.076512
-0.136828
-0.009265
-0.066580
-0.105630
-0.068046
-0.088201
-0.062476
-0.107453
-0.135072
-0.035595
-0.047460
-0.102248
-0.087235
0.003697
-0.048431
-0.075132
-0.071602
-0.053272
-0.010873
-0.035021
-0.033421
-0.156809
-0.111436
0.047989
-0.055731
-0.058907
-0.063050
0.031628
0.080841
0.002945
0.115299
0.076359
0.072211
0.166652
0.117005
0.135716
0.120132
0.031730
0.121811
0.016924
0.196205
0.121958
0.110317
0.078700
0.089536
0.107583
0.083010
0.113402
0.020873
0.035597
0.011003
0.024408
0.024502
-0.058604
-0.012047
-0.046689
0.022202
-0.029838
-0.073874
0.054321
-0.087536
0.052955
-0.094136
-0.059802
-0.072195
-0.048058
0.043743
0.045953
0.114371
0.255186
0.594276
0.997742
1.191339
1.319374
1.279404
1.066251
0.681318
0.326449
0.041258
-0.167728
-0.239199
-0.186546
-0.181541
-0.059496
0.052489
0.036056
0.047648
-0.018607
0.034158
0.069829
0.176387
0.147424
0.035685
0.235069
0.158465
0.107469
0.216142
0.252114
0.167374
0.286698
0.299729
0.307250
0.301170
0.303160
0.269683
0.376540
0.378245
0.382681
0.464927
0.458270
0.479899
0.410168
0.510555
0.501746
0.484442
0.499545
0.563237
0.453195
0.479604
0.468282
0.571370
0.518633
0.378888
0.432920
0.406220
0.416163
0.449598
0.416239
0.381522
0.375294
0.384868
0.372665
0.321368
0.203962
0.270211
0.310709
0.249571
0.188431
0.200150
0.209802
0.151644
0.248822
0.135406
0.059583
0.135268
0.103056
0.124220
0.038676
0.072708
0.108586
0.032232
0.009328
0.005359
-0.006875
-0.011534
0.034428
0.082990
0.026869
-0.018655
0.011175
0.071659
0.094455
-0.082452
0.114052
0.110043
0.034451
0.052304
0.000545
0.029770
0.030485
-0.023492
-0.023817
0.005189
-0.016167
-0.035708
0.055603
0.046960
-0.073531
0.071571
0.044112
-0.007720
-0.055581
-0.008172
0.033821
-0.007597
0.061305
0.004101
-0.051423
0.101712
0.028222
0.060881
-0.017441
0.083789
0.095385
0.089475
0.035095
0.067851
0.053028
0.057228
0.118170
0.077034
0.081237
0.067069
0.125336
0.145195
0.151608
0.163295
0.164386
0.235530
0.222497
0.118394
0.209501
0.136537
0.252639
0.212633
0.114599
0.302545
0.165501
0.171974
0.080093
0.193532
0.219761
0.086910
0.141617
0.179003
0.184141
0.068106
0.080387
0.086572
0.077547
0.179875
0.069318
0.139336
0.028092
0.014161
0.110288
0.093883
0.059534
-0.004093
0.053415
0.026584
0.073515
0.254292
0.292480
0.608696
0.799984
1.178183
1.400786
1.407450
1.235908
0.896127
0.576713
0.178617
0.006320
-0.089426
-0.108861
-0.042467
0.105973
-0.024768
0.081338
0.032233
0.100381
0.146753
0.173221
0.170638
0.147754
0.218251
0.202359
0.204969
0.196600
0.088307
0.223988
0.212489
0.314400
0.351536
0.383072
0.368184
0.441909
0.342394
0.422723
0.440822
0.576213
0.406112
0.531338
0.515667
0.480594
0.526131
0.543145
0.594025
0.517214
0.594382
0.453406
0.534826
0.542224
0.615884
0.561402
0.543423
0.596145
0.505247
0.560506
0.568790
0.442438
0.469827
0.415004
0.413155
0.333139
0.413335
0.436907
0.335572
0.263935
0.292052
0.303541
0.225555
0.264529
0.326019
0.148481
0.191032
0.212840
0.078559
0.101257
0.196734
0.146288
0.049682
0.179502
0.136214
0.130452
0.064435
0.191695
0.048145
0.177855
0.114546
0.023007
-0.055039
0.030861
0.052304
0.074294
0.094904
0.042750
0.165412
0.091579
0.026685
0.001295
0.007519
0.062279
0.029995
0.130762
-0.020755
0.069504
-0.001985
0.128290
0.072249
0.092587
0.064851
0.058074
0.011603
0.041601
0.038099
0.062219
0.023759
0.013301
-0.013588
0.031029
0.076263
0.160008
0.067834
0.042017
0.085817
0.066819
-0.021793
0.115909
0.121833
0.021789
0.168584
0.174974
0.156933
0.093235
0.166357
0.086337
0.133081
0.069666
0.124385
0.185580
0.178022
0.151780
0.136744
0.218204
0.271711
0.290851
0.235726
0.159749
0.157036
0.280012
0.084772
0.212287
0.238961
0.100681
0.170977
0.152675
0.135053
0.146213
0.153187
0.124658
0.124570
0.118529
0.034047
0.033520
0.026814
0.035222
0.072682
0.027663
0.093034
0.008010
0.117679
-0.028514
0.002064
0.048304
0.174957
0.155366
0.478304
0.727022
1.076403
1.341255
1.364101
1.306625
1.053658
0.637622
0.321320
0.066637
-0.198211
-0.192566
-0.070846
-0.027512
-0.016009
0.063493
0.077972
0.137043
0.121544
0.035533
0.110731
0.156163
0.058912
0.191628
0.061536
0.184300
0.166198
0.251843
0.163468
0.247151
0.325909
0.281273
0.231338
0.330226
0.342299
0.360680
0.425409
0.384542
0.400924
0.483564
0.437412
0.467566
0.509962
0.528087
0.559654
0.521893
0.550925
0.544914
0.549893
0.454243
0.484876
0.386576
0.583980
0.475083
0.389674
0.408939
0.503026
0.398666
0.402948
0.395273
0.407810
0.374104
0.361894
0.300415
0.238833
0.183205
0.304974
0.240759
0.220806
0.154705
0.209165
0.046842
0.126176
0.137996
0.136319
0.070488
0.093666
0.044659
0.059088
0.016684
0.064953
-0.013967
-0.029873
0.007887
0.037454
0.022027
0.062936
0.044028
-0.051751
0.057656
0.050547
-0.100808
-0.114675
0.005844
-0.025750
-0.036563
-0.039146
0.006811
0.027694
-0.040001
-0.012737
-0.065557
-0.023007
-0.025784
-0.144437
-0.042723
-0.019245
-0.092325
-0.021083
-0.075414
0.045644
-0.025230
-0.119397
0.011897
-0.076209
-0.083869
0.061950
-0.076973
-0.055321
-0.169634
-0.018126
-0.059554
-0.100688
-0.038216
-0.002284
0.011399
-0.008785
-0.069670
-0.001325
0.008693
0.055047
0.056993
0.065526
0.062477
0.062912
0.052356
0.148200
0.159913
0.104287
0.147977
0.088011
0.139171
0.165730
0.096064
0.149100
0.155887
0.108107
0.163182
0.072870
0.143758
0.031781
-0.009066
0.017751
0.012090
0.098535
-0.021573
0.040134
-0.036847
-0.024851
-0.059168
0.007152
-0.011576
-0.072313
-0.107701
-0.058019
-0.018972
0.004645
-0.148139
-0.062403
-0.070298
-0.017410
-0.076496
-0.049146
0.069812
0.203769
0.548372
0.806961
1.104558
1.294487
1.316498
1.050935
0.747454
0.361387
0.004935
-0.137025
-0.227470
-0.303584
-0.205345
-0.046453
-0.120962
-0.055502
-0.024473
0.063074
-0.030230
-0.015441
0.082405
0.117471
-0.013524
0.070616
0.050790
0.124733
0.090680
0.095778
0.135722
0.228401
0.197274
0.175906
0.247195
0.221690
0.270983
0.303623
0.387453
0.309309
0.418429
0.270406
0.355267
0.484932
0.456707
0.457948
0.426771
0.403570
0.453650
0.440558
0.484278
0.463169
0.465309
0.455497
0.433483
0.398867
0.403498
0.380025
0.351609
0.293078
0.341093
0.261043
0.303382
0.275261
0.278893
0.216468
0.248253
0.118531
0.175330
0.064123
0.140550
0.050736
0.076028
0.060194
0.073797
-0.000720
0.042382
-0.005336
0.004395
0.003299
-0.079039
-0.115357
-0.091052
-0.056848
-0.035203
-0.058984
-0.007107
-0.038779
-0.155043
-0.016474
-0.098856
-0.068691
-0.113442
-0.135782
-0.048441
-0.091079
-0.149386
-0.081541
-0.143326
-0.079926
-0.156731
-0.081044
-0.035801
-0.056028
-0.175840
-0.079699
-0.105878
-0.108244
-0.154363
-0.119706
-0.098143
-0.081848
-0.078447
-0.088388
-0.117726
-0.115144
-0.092873
-0.033730
-0.013972
-0.070731
-0.065160
-0.086410
-0.082992
-0.063203
0.003818
-0.078889
-0.071217
-0.055484
-0.121781
-0.095762
-0.020660
-0.071889
-0.063274
-0.002439
0.004253
0.015318
-0.001155
0.011043
0.081388
0.062137
0.087441
0.089598
0.102124
0.110564
0.100041
0.134761
0.109181
0.134328
0.054509
0.071782
0.121155
0.058466
0.003542
0.069513
0.011224
0.028611
0.050172
-0.024687
-0.101520
-0.007947
-0.005627
-0.028227
0.048578
-0.003097
-0.092547
-0.044035
-0.112457
-0.139933
-0.044783
-0.072131
-0.003790
-0.133900
-0.055414
0.002757
0.056370
0.055487
0.438363
0.696688
1.050976
1.209794
1.287893
1.156635
0.950336
0.457049
0.125340
-0.116529
-0.224290
-0.220902
-0.202595
-0.099452
-0.078532
-0.042283
0.046403
-0.069613
-0.039115
-0.026077
0.020751
0.062595
0.061427
0.102335
0.063396
0.200393
0.111607
0.131502
0.175983
0.144467
0.208423
0.177683
0.347725
0.146098
0.286276
0.393527
0.317321
0.388441
0.317594
0.341655
0.423142
0.450775
0.407819
0.480643
0.486078
0.420094
0.477648
0.465233
0.526083
0.490176
0.529417
0.444365
0.468889
0.391899
0.400914
0.383705
0.414305
0.337536
0.376626
0.318128
0.344282
0.339411
0.341907
0.255024
0.286048
0.194711
0.177657
0.253117
0.207862
0.136064
0.166489
0.102050
0.042914
0.021738
-0.015354
0.118820
0.016801
-0.005523
0.030544
0.000437
0.040265
-0.017860
0.002919
0.013271
0.062463
-0.028197
0.056209
-0.041866
-0.023025
-0.011276
0.076494
-0.040432
-0.050616
-0.059800
-0.080786
0.039741
-0.078137
0.012149
-0.003962
-0.083355
-0.069443
-0.075356
0.030608
0.051452
0.051524
-0.109028
-0.035748
-0.086708
-0.005650
-0.006139
-0.026759
-0.018713
0.037934
-0.037610
0.038971
-0.025450
0.075042
0.073543
0.017834
0.034388
-0.025750
0.002444
-0.035115
0.002749
0.016161
-0.009320
0.012455
0.011663
0.085585
-0.045019
0.076089
0.095633
0.132034
0.051767
0.091489
0.158669
0.170227
0.204960
0.125857
0.200123
0.181071
0.070698
0.226328
0.191915
0.106562
0.157052
0.218841
0.102047
0.154915
0.202712
0.213383
0.081821
0.142475
0.060542
0.127040
0.159260
0.026954
0.061001
0.031027
0.092361
0.046092
0.042650
0.061614
0.101327
0.053834
0.061370
0.037668
-0.000184
0.029951
0.027304
-0.026366
0.101019
0.074792
0.250055
0.372149
0.707225
0.959356
1.186531
1.432309
1.393637
1.110774
0.855147
0.399896
0.109192
-0.018406
-0.135724
-0.123479
-0.041760
0.078498
0.084637
0.090431
0.126097
0.123725
0.064375
0.158150
0.010784
0.080155
0.210092
0.209519
0.231618
0.181317
0.151201
0.220216
0.317983
0.337500
0.272158
0.359382
0.349563
0.320910
0.444954
0.459579
0.496396
0.444058
0.497524
0.403621
0.582258
0.545442
0.567441
0.645149
0.592989
0.556647
0.702823
0.621151
0.481559
0.522670
0.526502
0.492716
0.607510
0.584742
0.505569
0.558196
0.511139
0.404392
0.403182
0.406025
0.458522
0.403746
0.386344
0.386494
0.365974
0.321289
0.281363
0.237083
0.156822
0.267834
0.339940
0.224839
0.133132
0.071459
0.238280
0.126901
0.207149
0.140165
0.171340
0.131114
0.152877
0.020015
0.168528
0.081994
0.099575
0.205577
0.041129
0.167830
-0.000225
0.096189
-0.002710
0.065237
0.016530
0.085148
0.028478
0.104678
-0.012929
0.115676
0.165348
0.104050
0.112392
0.014990
0.052994
0.091149
0.025820
0.124788
0.136257
0.161610
0.124693
0.160254
0.014756
0.064016
0.022030
0.085433
0.152020
0.027812
0.060493
0.152804
0.065530
0.079061
0.040641
0.105820
0.071824
0.122331
0.100589
0.046815
0.105874
0.029954
0.035864
0.171841
0.202378
0.213094
0.131257
0.097483
0.240717
0.252345
0.185103
0.184678
0.272915
0.172105
0.218149
0.223235
0.259100
0.279783
0.313375
0.232792
0.246071
0.146177
0.237320
0.223752
0.225379
0.225824
0.281248
0.200295
0.236585
0.192855
0.196835
0.147299
0.165289
0.182317
0.063749
0.179912
-0.025062
0.108321
0.008117
0.151310
