-0.049514
0.052331
0.057204
-0.003068
0.028221
0.051889
-0.007060
-0.086255
-0.058515
-0.000638
-0.067125
0.129770
0.043318
0.034420
-0.028411
-0.025303
0.062412
0.073135
0.079502
0.101674
0.095780
0.083293
0.081554
0.100308
0.089616
0.161466
0.115722
0.110971
0.157191
0.143416
0.165182
0.179318
0.231037
0.147087
0.125076
0.186759
0.196898
0.213753
0.195391
0.249094
0.169946
0.110737
0.176698
0.194655
0.081604
0.149991
0.099777
0.215642
0.087989
0.138934
0.156355
0.124852
0.172896
0.083848
0.059193
0.038416
0.014938
0.073523
0.092708
0.079668
0.089347
0.055973
0.164340
0.065079
0.117311
0.073586
0.071717
0.225358
0.396080
0.617009
0.955902
1.194933
1.482884
1.324599
1.129746
0.854846
0.427636
0.168190
-0.068531
-0.192839
-0.135698
-0.017190
0.053099
0.113402
0.055963
0.089020
0.125852
0.110532
0.069805
0.144842
0.185738
0.123053
0.241912
0.152223
0.212434
0.239309
0.186326
0.386748
0.328225
0.297447
0.360112
0.294121
0.348337
0.424602
0.394087
0.498662
0.490485
0.557485
0.548823
0.553331
0.549194
0.480061
0.603863
0.618651
0.577692
0.516256
0.598376
0.572032
0.578471
0.574347
0.569163
0.609579
0.534370
0.499047
0.486381
0.531556
0.468791
0.564539
0.444801
0.473930
0.431014
0.501171
0.366882
0.318558
0.332943
0.350862
0.363238
0.257685
0.270321
0.248080
0.327042
0.207923
0.106558
0.152409
0.199989
0.166125
0.208064
0.240485
0.082615
0.160338
0.084731
0.099678
0.114639
0.062214
0.164450
0.115878
0.052592
0.190535
0.061932
0.142305
0.164158
0.072852
0.114882
0.104128
0.199333
0.144287
0.046509
0.076190
0.183047
0.129343
0.051985
0.031098
0.077956
0.124424
0.098821
0.106036
0.093936
0.031048
0.181866
0.050872
0.122830
0.066040
0.123249
0.083607
0.022002
0.128342
0.103546
0.058712
0.094766
0.156051
0.138823
0.136806
0.100279
0.093317
0.153213
0.108828
0.207496
0.012169
0.121592
0.179201
0.130131
0.110035
0.172717
0.184599
0.146295
0.211523
0.156370
0.232035
0.208741
0.147143
0.230776
0.189515
0.176866
0.242446
0.205268
0.269442
0.214501
0.214774
0.269097
0.308754
0.243911
0.346880
0.215325
0.222748
0.270932
0.245619
0.218666
0.193583
0.155371
0.130787
0.097211
0.142851
0.223437
0.170786
0.152958
0.032880
0.090255
0.122367
0.157137
0.126836
0.039377
0.154080
0.035955
0.064914
0.089321
0.071910
0.034324
0.053767
0.254253
0.457457
0.779016
1.043054
1.383256
1.467886
1.353333
1.107355
0.766455
0.466062
0.169007
-0.031714
-0.116964
-0.129242
0.052774
0.012388
0.051868
0.129176
0.120206
0.118612
0.167075
0.152380
0.200558
0.166986
0.238995
0.246180
0.240509
0.336573
0.275528
0.276693
0.325476
0.328615
0.385044
0.332872
0.301999
0.336064
0.447516
0.407271
0.380499
0.419357
0.454112
0.438612
0.528186
0.581799
0.585879
0.609054
0.622172
0.565651
0.578804
0.635869
0.611529
0.633262
0.524688
0.567548
0.486012
0.572298
0.603777
0.499467
0.513529
0.397671
0.516247
0.517883
0.524085
0.426281
0.364755
0.397317
0.270854
0.317135
0.299733
0.230450
0.265669
0.285161
0.250630
0.177482
0.261111
0.197662
0.158081
0.184692
0.131749
0.174290
0.144671
0.061286
0.065046
0.090652
-0.003237
0.144750
0.095217
0.025849
0.041610
0.077911
0.062548
-0.022475
0.103934
0.119715
0.056337
0.003209
0.049518
0.020429
0.007225
0.004471
0.079611
0.066166
0.054061
-0.007728
0.000008
-0.005229
0.053105
0.101126
0.064899
-0.016479
0.023098
0.037976
0.004918
0.103002
0.046951
0.047270
0.045764
0.042691
0.015760
0.062968
0.013043
-0.017080
0.044517
0.102032
-0.065609
0.075327
0.072164
0.077868
0.022224
0.078434
0.103405
0.122919
0.070617
0.048560
0.103466
0.097310
0.054597
0.126723
0.060032
0.113004
0.107429
0.158618
0.215682
0.128317
0.135647
0.147385
0.236582
0.206161
0.162653
0.221935
0.204094
0.192995
0.232941
0.227250
0.116694
0.214220
0.211853
0.101710
0.149677
0.193466
0.131642
0.110891
0.058837
0.088795
0.098922
0.135083
0.069053
0.109628
0.022547
0.024285
0.024163
0.028786
-0.017996
0.029275
0.131825
0.097120
-0.014479
-0.060447
-0.018480
-0.076759
0.023522
0.178784
0.471922
0.872446
1.102266
1.296045
1.394224
1.235615
0.960651
0.599676
0.195833
-0.027761
-0.182582
-0.188848
-0.211365
-0.155728
-0.035904
-0.052756
-0.024797
-0.022208
-0.000325
0.045030
-0.008469
0.050024
-0.022028
0.110526
0.069666
0.089350
0.141078
0.220307
0.213038
0.223381
0.244128
0.244216
0.233143
0.254505
0.362677
0.293945
0.345837
0.354771
0.351234
0.409029
0.439700
0.379554
0.428676
0.490267
0.412796
0.505953
0.492747
0.446954
0.479736
0.466634
0.440926
0.490033
0.441722
0.385562
0.427190
0.493589
0.473809
0.507608
0.445328
0.403318
0.280756
0.378975
0.326597
0.302393
0.240245
0.279477
0.148656
0.220541
0.243321
0.167237
0.216139
0.118657
0.077224
0.098061
0.026636
0.040812
-0.024923
0.004747
-0.025289
-0.003250
0.128608
-0.002379
0.065727
-0.070958
-0.009771
-0.076190
0.045178
0.023428
-0.049509
0.028847
-0.038762
-0.029231
-0.009696
-0.058819
-0.034551
-0.064431
-0.018914
-0.047591
-0.019386
-0.064142
-0.015503
0.017045
-0.065374
-0.029032
-0.012119
0.024195
0.038265
0.036717
-0.069270
-0.068797
-0.089003
0.009187
0.001064
-0.061034
-0.002235
0.001772
-0.102606
-0.000466
-0.061604
-0.079431
-0.065035
-0.097173
-0.011372
-0.043929
-0.014896
-0.037293
0.016630
0.061199
-0.138304
0.028734
-0.057091
-0.091063
0.052846
0.008987
0.063530
0.020945
0.105973
0.116044
0.021988
0.041514
0.074971
0.067488
0.053403
0.104650
0.164782
0.091830
0.132748
0.118073
0.144070
0.178603
0.099008
0.156438
0.114463
0.079106
0.007830
0.091545
0.065841
0.052354
0.116294
0.029613
0.085092
0.030107
0.089223
-0.027660
0.097019
0.024957
-0.007169
-0.011110
0.029715
-0.021816
-0.006565
0.061252
-0.049038
-0.021657
-0.080638
-0.082132
-0.001558
0.019098
0.022214
0.026909
0.292550
0.588749
0.858539
1.059327
1.259643
1.304260
1.070887
0.751152
0.483304
0.070421
-0.113547
-0.241134
-0.215902
-0.167928
-0.095883
-0.024502
0.036456
0.016421
0.069128
0.059788
0.022641
0.021353
0.005214
0.126981
0.125371
0.070499
0.063843
0.167256
0.155964
0.140198
0.238609
0.214993
0.277035
0.206684
0.230534
0.225596
0.411088
0.306768
0.389490
0.383442
0.380675
0.350415
0.400579
0.421638
0.462620
0.440097
0.439888
0.446708
0.491126
0.569468
0.458984
0.398623
0.456865
0.436450
0.458616
0.396422
0.416163
0.420012
0.364485
0.424246
0.489808
0.362815
0.341477
0.399604
0.350260
0.275946
0.225219
0.222126
0.246380
0.157711
0.181193
0.214791
0.167443
0.156176
0.150864
0.045803
0.116697
0.056240
0.095619
0.176849
0.048512
0.047428
0.043809
0.058181
0.084888
0.008301
-0.007181
-0.057774
0.004369
-0.026824
0.069714
0.000199
0.018759
0.075156
-0.084592
0.009860
0.023678
-0.033465
0.013095
-0.002881
0.001996
0.010581
-0.025086
0.056009
0.040611
-0.036667
0.042334
0.114737
0.078693
0.050848
-0.049486
-0.011274
0.042994
-0.050294
0.044741
0.020286
0.079642
0.138812
0.067631
0.016202
0.102448
0.063795
-0.026535
0.070937
0.095324
0.003651
0.037022
0.045126
0.115194
-0.012128
0.070548
0.059366
0.012399
0.054967
0.079655
0.059356
0.092072
0.101113
0.105499
0.146990
0.207094
0.212374
0.141290
0.216982
0.221824
0.289784
0.132835
0.245256
0.262353
0.217173
0.209393
0.171087
0.234264
0.199835
0.179321
0.097741
0.169353
0.185986
0.147539
0.160940
0.196109
0.137103
0.202471
0.151625
0.135729
0.158617
0.092195
0.068063
0.109789
0.038247
0.056462
-0.002024
0.041643
0.048572
0.067343
0.044752
0.030727
0.110947
0.082857
0.135309
0.185972
0.394511
0.718958
0.987739
1.298689
1.500000
1.391831
1.162947
0.791615
0.415259
0.124769
-0.036873
-0.083586
-0.109398
-0.095003
0.073115
0.016710
0.051411
0.089514
0.114313
0.102895
0.176571
0.095684
0.238431
0.178218
0.219069
0.213943
0.237991
0.247369
0.160708
0.315997
0.308692
0.295502
0.298947
0.321897
0.343848
0.325694
0.404687
0.472091
0.443175
0.450419
0.470887
0.506256
0.646426
0.624214
0.579949
0.739312
0.547508
0.513346
0.606020
0.564857
0.582466
0.638086
0.575934
0.668982
0.614722
0.564703
0.570168
0.533551
0.558453
0.517573
0.484294
0.425635
0.436987
0.465413
0.319474
0.404497
0.399397
0.368620
0.341395
0.438148
0.329000
0.268813
0.283697
0.244687
0.191819
0.118366
0.174422
0.240587
0.207512
0.183169
0.136202
0.127921
0.167917
0.142902
0.089267
0.117951
0.120963
0.139911
0.097339
0.177611
0.113980
0.075939
0.163665
0.136780
0.088435
0.122358
0.080006
0.028850
0.111843
0.116173
0.084234
0.083997
0.033670
0.067578
0.094016
0.049337
0.147746
0.051301
0.117716
0.077116
0.089305
0.129328
0.103034
0.042395
0.095272
0.124800
0.082638
0.065930
0.149431
0.059552
0.104308
0.123822
0.075254
0.082948
0.105428
0.057039
0.091053
0.107512
0.153202
0.128310
0.123717
0.086137
0.189677
0.179803
0.107484
0.081229
0.203935
0.144559
0.252922
0.211188
0.184908
0.210435
0.222100
0.215627
0.209740
0.279341
0.259840
0.309809
0.222450
0.302062
0.281988
0.238490
0.239940
0.165524
0.238704
0.227115
0.161646
0.168740
0.247769
0.141223
0.237809
0.159533
0.174351
0.181660
0.158334
0.206317
0.129858
0.041209
0.140994
0.166089
0.136566
0.070554
0.100538
0.101416
0.083433
0.099951
0.022155
0.071063
0.074792
0.145839
0.337518
0.538543
0.844260
1.090342
1.410805
1.442702
1.448973
1.102686
0.698600
0.317007
0.034902
-0.066343
-0.189108
-0.077578
0.005679
0.052580
0.097056
0.129728
0.074110
0.192650
0.182300
0.172688
0.169841
0.242831
0.238787
0.240554
0.233259
0.240456
0.230051
0.292507
0.334284
0.268410
0.386227
0.314493
0.322819
0.431008
0.463340
0.449540
0.567191
0.432505
0.481555
0.537133
0.565682
0.577799
0.550080
0.597096
0.594304
0.560589
0.563225
0.511394
0.605434
0.593914
0.661259
0.556976
0.556075
0.544748
0.572693
0.591698
0.527705
0.537535
0.533270
0.433178
0.415439
0.432806
0.269379
0.429689
0.404015
0.328466
0.323633
0.294549
0.225077
0.191209
0.241508
0.223686
0.227745
0.167678
0.203542
0.194427
0.151178
0.143087
0.097288
0.233221
0.099938
0.061171
0.132688
0.173147
0.072969
0.057879
0.178844
0.079231
0.039676
0.006905
0.008455
0.112997
0.041346
0.048468
0.082832
0.047619
0.060427
0.024216
0.027555
0.083004
0.117957
0.094522
-0.003339
0.044069
0.013059
0.074887
0.018929
0.114356
0.041066
0.129201
-0.002601
0.076279
0.004221
0.039271
0.086375
0.142509
-0.065428
0.032209
0.041303
-0.020090
0.007699
0.028807
0.056652
0.015746
0.050940
-0.037856
0.058353
0.050987
0.039248
0.092563
0.063958
0.115081
0.087589
0.097781
0.097057
0.130757
0.134376
0.182002
0.066053
0.137890
0.122779
0.149341
0.189479
0.174407
0.224703
0.186368
0.244776
0.195182
0.252275
0.246324
0.238535
0.249550
0.182758
0.132836
0.099974
0.137110
0.156247
0.155827
0.092167
0.119967
0.044969
-0.018133
0.072840
0.093755
0.063723
0.106975
0.009526
0.024446
0.036280
-0.008012
-0.014954
-0.019564
0.086160
0.018982
0.001278
-0.030139
-0.026243
-0.004746
0.169513
0.252452
0.514885
0.758088
1.148256
1.364592
1.294981
1.212435
0.908106
0.467580
0.097087
-0.035278
-0.168033
-0.161257
-0.073878
-0.058908
-0.006803
0.024685
0.141679
0.064428
0.078592
0.031712
0.090976
0.041401
0.105930
0.122685
0.093449
0.180015
0.056703
0.177876
0.235307
0.186463
0.229491
0.229034
0.333927
0.296164
0.253524
0.281257
0.252856
0.371017
0.390897
0.468443
0.389486
0.408310
0.558062
0.483217
0.439093
0.507909
0.469513
0.457921
0.416631
0.499422
0.498363
0.433541
0.497646
0.429184
0.464268
0.404669
0.442779
0.415084
0.357876
0.350308
0.400712
0.374390
0.358799
0.290255
0.251715
0.233538
0.142154
0.273471
0.202462
0.187527
0.092615
0.133664
0.101425
0.074518
0.061187
0.149742
-0.006764
0.036938
0.055898
-0.023621
0.028875
0.000568
0.035527
-0.006530
0.003153
-0.024497
0.012460
-0.074774
-0.007863
0.002159
-0.027902
-0.107709
-0.077401
-0.087833
-0.041096
-0.071401
-0.049444
-0.042443
-0.037404
-0.126016
-0.034902
-0.077094
-0.098456
-0.035027
-0.068770
-0.030837
-0.046318
-0.046560
0.045912
-0.042705
-0.128585
-0.048666
-0.072584
-0.060507
-0.078201
-0.027178
-0.058508
-0.064971
-0.091029
-0.063353
-0.043230
-0.032197
0.024669
-0.017026
-0.109772
-0.030066
-0.089086
0.001836
0.015776
-0.000031
-0.117122
-0.005307
-0.011583
0.044419
0.062240
-0.015717
-0.000040
-0.004177
-0.000043
0.025634
0.109538
-0.005157
0.069935
0.106041
0.089973
0.084192
0.054590
0.128291
0.030751
0.118285
0.175798
0.110104
0.151460
0.137418
0.072236
0.039661
0.069547
0.049944
-0.001118
0.070259
-0.003018
0.015360
0.013324
-0.058393
-0.017667
-0.041756
-0.012356
-0.098382
-0.138601
-0.097375
-0.076684
-0.018363
-0.052348
0.024059
-0.092748
-0.140382
-0.132599
-0.159117
-0.055750
0.033290
0.290767
0.511400
0.816517
1.134205
1.254752
1.254282
1.076564
0.758192
0.344945
0.071678
-0.203351
-0.265113
-0.294434
-0.246258
-0.095327
-0.051971
-0.119808
-0.017647
-0.054161
-0.015443
0.021368
0.007039
0.021861
0.033288
0.069784
0.086846
0.117505
0.081564
0.070869
0.048638
0.177429
0.114065
0.163104
0.239532
0.212221
0.256195
0.292488
0.323246
0.252893
0.408988
0.316760
0.361602
0.397001
0.388983
0.385553
0.368910
0.345137
0.340700
0.411066
0.477844
0.439131
0.468364
0.429058
0.391603
0.397913
0.382913
0.434683
0.398070
0.370387
0.314443
0.341054
0.311921
0.306767
0.316956
0.250743
0.133524
0.191401
0.149419
0.207680
0.182377
0.125525
0.072576
0.088655
0.118512
0.096451
0.042863
0.049863
0.019857
-0.057425
-0.019412
-0.035045
0.007953
-0.089055
-0.020272
0.057269
-0.033017
-0.130688
-0.090280
0.070709
-0.016333
-0.074432
-0.043444
-0.086439
-0.060295
-0.073405
-0.096570
-0.071304
-0.094241
-0.102573
-0.004459
0.002703
0.009381
-0.035589
-0.153986
-0.082910
-0.044180
-0.069066
-0.118803
0.020357
-0.105216
-0.094624
-0.067654
0.033036
-0.076585
-0.067274
-0.048711
0.013709
-0.078425
-0.094799
-0.043710
0.009067
-0.072071
-0.050646
-0.050109
0.005398
-0.100619
0.043656
-0.024551
0.000963
0.093605
0.008974
0.031349
-0.063336
-0.061524
-0.038991
0.004977
0.108500
0.017090
0.068561
0.053368
0.078739
0.030853
0.146248
0.146737
0.098215
0.095886
0.053841
0.108254
0.173979
0.115073
0.036714
0.102971
0.159188
0.158108
0.173978
0.158143
0.013082
0.065361
0.096125
0.104956
0.095981
0.057141
0.023089
-0.050858
0.089536
-0.058096
-0.076683
0.004582
0.014110
0.023399
-0.014816
-0.057269
0.022151
-0.008079
-0.066686
-0.080389
-0.030282
0.050732
-0.028035
0.128334
0.147098
0.369345
0.627805
0.889723
1.244364
1.344557
1.307113
1.063375
0.691305
0.325083
-0.015913
-0.054569
-0.225329
-0.155531
-0.195169
-0.040762
0.024649
0.007621
0.054340
0.071844
0.058782
0.137024
0.154132
0.090372
0.138237
0.089746
0.153451
0.119322
0.156446
0.185322
0.181406
0.170307
0.258881
0.183212
0.268687
0.291777
0.368631
0.420800
0.418225
0.465079
0.398313
0.478642
0.430096
0.460231
0.532124
0.543507
0.375393
0.593513
0.517609
0.479757
0.520834
0.586945
0.565498
0.554821
0.548531
0.543051
0.535224
0.499944
0.375838
0.534664
0.349448
0.419855
0.406235
0.363372
0.345105
0.339821
0.378304
0.348139
0.300370
0.229063
0.224856
0.187361
0.192476
0.162231
0.222370
0.158448
0.148417
0.099014
0.062017
0.058731
0.095174
0.106822
0.106435
0.047054
0.134741
0.028565
-0.024067
0.034789
0.029378
0.042849
0.060731
0.099071
0.013050
0.007605
-0.006012
0.032599
0.048370
0.054179
-0.060097
0.125827
-0.027391
0.068349
0.022683
0.062082
0.044016
0.018675
-0.019557
0.089465
-0.060626
0.124982
-0.050965
-0.096390
0.007656
0.040942
0.067002
0.027280
0.097733
0.070424
-0.002992
0.010572
0.053950
-0.063211
0.014745
0.052096
-0.021525
0.134888
0.027712
0.119276
0.063037
0.155606
0.074389
0.051165
0.124333
0.180706
0.107191
0.062426
0.087015
0.100350
0.154504
0.061699
0.161282
0.053143
0.174677
0.131512
0.177097
0.214217
0.206554
0.256309
0.158840
0.192312
0.216913
0.206228
0.265773
0.156133
0.272704
0.339199
0.201171
0.123283
0.232190
0.166850
0.182428
0.114032
0.120062
0.078646
0.112735
0.045680
0.086276
0.050428
0.103222
0.128083
0.146431
0.034243
-0.007949
0.107336
0.041045
0.088678
0.032414
0.056258
0.059965
0.057285
0.146093
0.290771
0.408628
0.873587
1.074013
1.370515
1.442086
1.275675
1.003997
0.674094
0.300000
0.109032
-0.088689
-0.152249
-0.106495
-0.088605
-0.000672
0.044816
0.131383
0.118780
0.119801
0.103758
0.069622
0.165180
0.069849
0.142410
0.145878
0.245987
0.138305
0.227230
0.209132
0.267989
0.265648
0.357087
0.380464
0.275445
0.347505
0.365234
0.370335
0.333642
0.390197
0.446876
0.497619
0.465819
0.402893
0.515345
0.577567
0.633797
0.587202
0.451742
0.560299
0.565477
0.552975
0.554222
0.570374
0.593828
0.500131
0.523222
0.471666
0.522922
0.454842
0.469690
0.437332
0.436437
0.373738
0.365312
0.298120
0.320279
0.348495
0.286941
0.223268
0.293370
0.302187
0.207189
0.212842
0.235525
0.131616
0.110269
0.186163
0.160373
0.078772
0.126751
0.096417
0.067243
0.147255
0.117864
0.077852
0.114089
0.078824
0.082904
0.074991
0.034486
0.007596
0.100411
0.007017
0.085664
0.037145
0.009384
-0.044049
0.083705
0.045521
-0.026095
-0.040178
0.033320
0.038648
0.033062
-0.041781
0.043840
0.059743
0.016140
-0.062281
-0.040701
0.034958
0.040544
0.019000
0.029658
0.090724
0.034877
0.041269
0.020938
0.012097
0.070940
0.059903
-0.016163
0.018568
0.022023
-0.017131
0.044881
0.056269
0.027952
-0.015154
0.059520
0.058308
0.018851
0.093277
0.117055
-0.024820
0.127862
0.046680
0.178024
0.134546
0.103455
0.136897
0.208432
0.193997
0.136583
0.163537
0.148815
0.150844
0.116463
0.100695
0.190307
0.287544
0.217386
0.122919
0.125072
0.126169
0.120918
0.154332
0.105672
0.071806
0.131874
0.006354
0.062768
0.058539
-0.005516
0.016287
0.078827
0.057499
0.014180
0.010545
-0.023207
0.006063
-0.034169
0.015168
0.011144
-0.014319
-0.005172
0.032712
0.028977
0.001219
0.125939
0.356363
0.467166
0.801137
1.147552
1.215563
1.361757
1.105684
0.783216
0.391475
0.087226
-0.126315
-0.101699
-0.190020
-0.123700
-0.065960
-0.052354
-0.008852
0.075520
0.006082
0.043371
0.114290
0.079782
0.080772
0.051053
0.043305
0.068796
0.125715
0.140568
0.160811
0.096916
0.180055
0.272071
0.317087
0.312952
0.197395
0.258604
0.250453
0.336314
0.367112
0.340200
0.320259
0.401157
0.378046
0.442315
0.458451
0.450290
0.429404
0.499438
0.470732
0.463858
0.448523
0.407602
0.442029
0.433075
0.428883
0.444860
0.463396
0.409864
0.375600
0.345778
0.352491
0.353440
0.436875
0.243537
0.294103
0.233508
0.154462
0.214144
0.182898
0.192683
0.209442
0.139068
0.225344
0.073320
0.030834
0.090649
0.012267
0.002825
0.045357
-0.030103
-0.015999
-0.001147
-0.006104
-0.049112
-0.012192
-0.074366
-0.050863
-0.016640
-0.057043
-0.061427
-0.035962
-0.006490
-0.043862
-0.062048
-0.072429
-0.084423
-0.069894
-0.110447
-0.125726
-0.063946
-0.103865
-0.009964
-0.037017
-0.005289
-0.106008
-0.071023
-0.005104
-0.164403
-0.005590
-0.099938
-0.056549
-0.127311
-0.129148
-0.010171
-0.120029
-0.130711
-0.119801
-0.054508
-0.087509
-0.083599
-0.060252
-0.067081
-0.035542
-0.193252
-0.010829
-0.141499
-0.041803
-0.037405
-0.026388
-0.003233
-0.043482
-0.045768
-0.062814
-0.021850
0.003188
-0.042601
-0.038104
-0.034497
0.046362
0.087765
0.042423
0.057287
0.019935
0.004961
0.083537
0.104253
0.056159
0.061924
0.182613
0.121889
0.006025
0.040972
0.075302
0.063374
0.106974
0.082011
0.081385
-0.005861
0.050757
-0.022064
-0.056878
-0.026224
-0.012233
-0.107276
-0.064844
-0.093645
-0.042989
-0.127122
-0.027431
-0.089606
-0.046356
-0.080021
-0.147190
-0.058397
-0.032385
-0.089169
-0.089301
-0.126056
-0.086776
-0.050722
0.066789
0.300680
0.526053
0.675129
1.093025
1.196163
1.322618
1.006514
0.700107
0.331766
-0.020842
-0.260182
-0.352304
-0.270185
-0.250707
-0.108000
-0.140308
-0.129142
0.015644
-0.024303
-0.110281
-0.034075
-0.001587
-0.018093
0.075159
-0.012136
0.120059
0.119338
0.110274
0.060895
0.093410
0.062710
0.146062
0.099975
0.203852
0.250544
0.231616
0.222596
0.161089
0.249881
0.284667
0.253963
0.360258
0.417976
0.374731
0.414194
0.407376
0.422427
0.375350
0.370606
0.380874
0.461602
0.380966
0.475266
0.334022
0.472440
0.416623
0.428477
0.322896
0.297254
0.299091
0.298066
0.400669
0.228615
0.247489
0.192418
0.295215
0.207707
0.161290
0.192938
0.156182
0.103657
0.068965
0.040536
0.146482
0.017921
-0.025207
-0.026551
0.049034
-0.004595
-0.027185
0.019410
-0.090693
-0.083359
0.005276
-0.063255
-0.010777
-0.113221
-0.122579
-0.067216
-0.104549
-0.076634
-0.020549
-0.048755
-0.019744
-0.062237
-0.062772
-0.046614
-0.113714
-0.075048
-0.058714
-0.079098
-0.097553
-0.143586
-0.117865
-0.084203
-0.110954
-0.066492
-0.069783
-0.051873
-0.083203
-0.140130
-0.110353
-0.086918
-0.091561
-0.085577
-0.095672
-0.110564
-0.024616
-0.051908
-0.103674
-0.049930
-0.072936
-0.071163
-0.049565
-0.019315
-0.091085
-0.028402
-0.081163
-0.036800
-0.050035
-0.073604
-0.079788
-0.058578
0.007410
-0.021034
-0.051376
-0.005590
0.013191
0.073795
0.018153
0.044174
0.060762
0.044975
0.125508
0.083498
0.096004
0.152606
0.151011
0.177686
0.066663
0.097553
0.172640
0.132046
0.115172
0.029640
0.086336
0.096451
0.127002
0.052751
0.084175
0.066199
0.074519
0.021777
0.032302
-0.064272
0.017097
-0.038532
0.024800
-0.002387
-0.011338
0.028739
0.018421
-0.042308
-0.032690
-0.051288
0.014963
-0.069399
-0.118065
-0.094748
0.039236
0.146772
0.290442
0.585633
0.971709
1.307370
1.388785
1.176496
0.958702
0.650582
0.268535
-0.011051
-0.199704
-0.130455
-0.162831
-0.086463
-0.034705
-0.021416
-0.045658
0.025470
0.024402
-0.035001
0.065296
0.034190
0.063941
0.012200
0.028006
0.118993
0.139480
0.091676
0.191173
0.176088
0.216144
0.276651
0.271995
0.212574
0.242490
0.340883
0.420123
0.452717
0.428346
0.396667
0.417016
0.537287
0.421007
0.417305
0.548434
0.537702
0.505623
0.514309
0.605988
0.496005
0.503304
0.510729
0.515454
0.501629
0.513939
0.533468
0.483112
0.421984
0.427793
0.416251
0.515198
0.391389
0.372406
0.325297
0.261309
0.325450
0.274246
0.300226
0.141438
0.262097
0.239762
0.183275
0.152681
0.208820
0.104310
0.129735
0.179863
0.106471
0.073075
-0.002033
0.077683
0.085045
0.035636
0.053280
0.073004
0.065331
0.058918
0.003806
0.064841
0.047214
0.003719
0.007348
-0.035801
0.048073
0.143774
0.000049
0.046026
0.019690
0.114314
0.038206
0.011525
0.007081
0.058754
0.020442
0.022753
0.106719
0.054096
0.012646
-0.005377
-0.032633
0.096874
0.066243
0.059624
0.066844
0.049944
0.032180
0.065455
-0.129610
0.000023
0.031280
0.140772
-0.030990
-0.002865
-0.017746
-0.000100
0.045299
0.107044
0.056001
0.120001
0.080236
0.005612
0.050399
0.072497
0.147342
0.080686
0.130732
0.147911
0.190763
0.194985
0.072935
0.139850
0.187092
0.233997
0.182567
0.261866
0.272850
0.295530
0.225102
0.238775
0.228315
0.360123
0.202842
0.253363
0.145624
0.127977
0.138560
0.195427
0.184132
0.245370
0.134941
0.196174
0.111348
0.056208
0.095960
0.101714
0.061960
0.033067
0.021414
0.030779
0.002559
0.021824
0.020775
0.030734
0.068829
0.064349
0.045430
0.140197
0.044799
0.030901
0.084436
0.347823
0.519870
0.788218
1.132472
1.360240
1.383081
1.227762
0.911280
0.555561
0.232730
0.044935
-0.075318
-0.067377
-0.119191
0.018970
0.063764
0.039076
0.119619
0.136447
0.195059
0.134838
0.058867
0.180415
0.124661
0.179060
0.204686
0.145770
0.254739
0.234703
0.248124
0.258002
0.278444
0.225501
0.368110
0.374274
0.355746
0.360074
0.478553
0.464780
0.520877
0.519834
0.534358
0.562630
0.555488
0.524956
0.547915
0.558731
0.563790
0.641285
0.580805
0.599318
0.588484
0.618886
0.508694
0.626431
0.571010
0.553300
0.506793
0.544264
0.504145
0.487570
0.489820
0.411188
0.384087
0.338010
0.398032
0.301995
0.354154
0.296270
0.257663
0.302868
0.290331
0.249062
0.202179
0.119318
0.199958
0.191938
0.161974
0.169318
0.156864
0.142020
0.110004
0.082041
