-0.025590
0.060591
-0.012997
-0.038162
-0.055048
0.030165
0.023485
0.022901
-0.029022
-0.084504
0.036253
0.061135
0.006096
0.019114
-0.060064
0.033183
0.023098
-0.017241
0.029283
0.066518
0.087152
-0.096734
0.035493
0.040278
0.023754
0.041441
0.094234
0.004313
0.084573
0.049873
0.079060
0.176659
0.045137
0.036430
0.083496
0.220096
0.189449
0.181177
0.152530
0.220079
0.186581
0.170737
0.197574
0.178207
0.214906
0.094956
0.230113
0.218507
0.188734
0.146773
0.172444
0.133263
0.102062
0.127636
0.049244
0.156556
0.056336
0.107771
0.110041
0.155818
0.181548
0.040380
0.123184
0.001970
0.042248
0.087893
0.092394
0.115142
0.023222
0.094951
0.064416
0.048576
0.034241
0.039871
0.090776
0.083867
0.073089
0.034250
-0.041029
-0.018419
0.002993
0.099854
0.211952
0.448025
0.795018
1.034970
1.327581
1.406448
1.381823
1.107816
0.785023
0.455230
0.193305
-0.084343
-0.142098
-0.253191
-0.150400
-0.076762
-0.050667
0.029593
-0.000091
0.016885
0.061272
0.069263
0.102340
0.039861
0.063065
0.051289
0.071427
0.092159
0.120994
0.113358
0.084659
0.151873
0.220925
0.194446
0.219298
0.116267
0.164053
0.227750
0.235833
0.300762
0.284631
0.282409
0.317464
0.373392
0.385646
0.404553
0.458751
0.543853
0.408811
0.377608
0.408259
0.531201
0.525678
0.521636
0.525986
0.583223
0.592889
0.575697
0.608320
0.556457
0.565156
0.588218
0.599377
0.518063
0.539735
0.542991
0.576307
0.522248
0.657344
0.505567
0.462070
0.500756
0.385723
0.349253
0.369119
0.413591
0.291074
0.316791
0.300266
0.314864
0.285021
0.191940
0.223036
0.243747
0.173588
0.245226
0.199744
0.151440
0.215414
0.180929
0.112542
0.031381
0.139734
0.157652
0.074346
0.021985
0.187284
0.112521
0.085687
0.122575
0.024063
0.067280
0.037600
0.093061
0.112665
0.157215
0.047018
0.126458
0.147020
0.098431
0.091938
0.116673
0.109051
0.144677
0.067464
0.079342
0.139662
0.137865
0.147523
0.038429
0.094807
0.121189
0.120489
0.066788
0.142802
0.073256
0.104432
0.104009
0.043262
0.056277
0.050759
0.082972
0.061016
0.065748
0.091203
0.041205
0.040101
0.032211
0.164885
0.105822
0.129000
0.127098
0.057793
0.077788
0.050299
0.124134
0.098480
0.111064
0.074966
0.075326
0.102466
0.060872
0.090150
0.129340
0.131141
0.086537
0.105474
0.201138
0.054430
0.153058
0.172575
0.129712
0.069756
0.033734
0.040885
0.120771
0.192533
0.199561
0.223630
0.126892
0.187405
0.269720
0.118448
0.178258
0.265771
0.193072
0.217842
0.244018
0.284846
0.255855
0.259964
0.332281
0.207247
0.158956
0.153792
0.302487
0.226951
0.179705
0.191313
0.262352
0.198850
0.242229
0.201490
0.224669
0.114536
0.103457
0.080902
0.117206
0.127678
0.099665
0.135791
0.080732
0.003195
0.101800
0.088470
0.040665
0.043650
0.058584
0.069655
0.084103
-0.002796
0.052905
0.069706
0.078176
0.030181
0.024048
0.027507
0.226801
0.340624
0.608315
1.048879
1.219370
1.357483
1.407914
1.266040
0.943051
0.559062
0.182095
-0.094928
-0.197524
-0.233706
-0.108125
-0.153386
0.007998
-0.014230
-0.034744
0.046932
0.039155
0.073157
0.043983
0.059789
0.032087
0.053631
0.079852
0.085719
0.103758
0.104017
0.107957
0.193441
0.130961
0.135024
0.183349
0.144463
0.133244
0.259422
0.188477
0.252856
0.235118
0.295482
0.264864
0.347982
0.353530
0.415760
0.341923
0.392259
0.445406
0.374667
0.468572
0.468486
0.532924
0.497469
0.470866
0.506167
0.511856
0.524663
0.493691
0.560586
0.588475
0.559209
0.572049
0.429121
0.496838
0.517759
0.523903
0.482451
0.426360
0.526285
0.399626
0.452204
0.379523
0.431309
0.373769
0.411559
0.331008
0.336674
0.286090
0.249568
0.163518
0.197518
0.191550
0.167101
0.187922
0.150024
0.132634
0.116732
0.117727
0.116007
0.091583
0.038156
0.042133
0.070569
0.008042
0.021420
0.014240
0.110093
0.058013
0.032066
-0.031092
-0.024490
0.017084
-0.044953
0.001381
-0.016701
0.037895
0.035137
0.004142
0.104182
-0.028079
0.058988
0.043546
0.059709
0.057846
-0.034558
-0.005330
-0.079009
0.034011
-0.024243
0.002620
0.000717
-0.067645
0.073054
-0.008854
0.041749
-0.034037
0.056589
0.030660
-0.020723
-0.014456
0.055343
0.037102
-0.042887
-0.079676
-0.010786
0.071296
-0.054253
0.058757
0.053657
0.016318
-0.026370
0.016464
-0.004388
-0.053230
-0.044632
0.034122
-0.046508
-0.023729
-0.006123
-0.022332
-0.000729
-0.039333
0.017026
-0.042412
-0.013881
-0.047618
-0.085091
0.023215
-0.055186
-0.011872
0.047594
0.044062
-0.004114
0.052296
0.080914
0.016608
0.137923
0.053564
0.033019
0.119036
0.065711
0.046601
0.114028
0.138998
0.239008
0.122219
0.156640
0.168950
0.174162
0.149929
0.191758
0.147763
0.119966
0.115846
0.116906
0.207490
0.121082
0.048058
0.084148
0.083980
0.060962
0.049571
0.053762
0.101516
0.091683
-0.002075
-0.008363
-0.073317
-0.079673
-0.035427
-0.074870
-0.054923
-0.005151
-0.001429
-0.001137
-0.019968
-0.082696
0.070119
-0.097523
-0.052055
-0.007938
-0.005694
-0.046164
-0.014176
-0.076010
-0.022080
0.015285
0.139192
0.423931
0.819908
1.062845
1.313444
1.293666
1.239729
0.956997
0.600871
0.224749
-0.066192
-0.255677
-0.276826
-0.278579
-0.238902
-0.160367
-0.220769
-0.058920
0.007339
-0.012946
0.019621
0.009808
0.004561
-0.011772
-0.009749
0.033395
0.077523
-0.003880
-0.081973
-0.049996
0.050987
0.029909
0.065967
0.054749
0.037809
0.133190
0.160119
0.171231
0.130306
0.189645
0.205383
0.143855
0.235507
0.245355
0.238010
0.353417
0.297467
0.287267
0.373233
0.316681
0.351128
0.393865
0.322647
0.455336
0.460181
0.390262
0.486571
0.461918
0.470917
0.520910
0.487313
0.474882
0.437500
0.406925
0.477433
0.444207
0.361712
0.362740
0.393833
0.452535
0.401287
0.359930
0.275293
0.364064
0.335437
0.222109
0.235790
0.296087
0.166520
0.076759
0.150241
0.192873
0.125090
0.124507
0.132475
0.016285
0.039978
0.076150
0.043446
0.131654
-0.033124
0.032583
0.003953
-0.028296
0.025665
-0.081659
-0.033801
0.013000
0.001950
-0.073072
-0.031605
0.025334
-0.022558
-0.074083
0.004281
-0.076053
0.000517
-0.045630
-0.096913
-0.051491
-0.052931
-0.036704
-0.029410
-0.077460
-0.019926
-0.089065
0.001382
-0.084151
0.019723
-0.031555
-0.030469
-0.017722
-0.054107
-0.047366
-0.131203
-0.057182
0.004981
-0.093736
0.009751
-0.128944
-0.055767
-0.072864
0.057135
-0.021768
-0.044303
-0.045720
0.022316
-0.023328
0.003616
-0.032112
-0.015945
-0.020485
0.020523
-0.001512
0.032603
0.001957
-0.004295
0.007671
-0.045844
-0.047215
-0.071495
-0.014874
0.035532
-0.012944
-0.017821
-0.044132
-0.009010
-0.009957
-0.062149
0.056542
0.076472
0.035213
-0.003729
0.096989
0.077687
0.048086
0.105138
0.065656
0.062013
0.070098
0.091408
0.158331
0.182307
0.116641
0.135356
0.168240
0.171283
0.160419
0.165416
0.179760
0.159252
0.196523
0.160669
0.173050
0.133731
0.125313
0.125014
0.119212
0.054399
0.059929
0.103579
0.079339
0.060600
0.002679
0.072696
-0.003373
0.048791
0.001515
-0.002048
-0.009548
0.021635
0.148818
0.012027
-0.011973
0.034508
0.008838
-0.001639
-0.006296
-0.015400
0.024427
-0.010584
-0.016012
0.099045
0.033773
-0.057122
0.003376
-0.008403
0.193888
0.340622
0.665936
0.940098
1.260949
1.378472
1.431279
1.112275
0.816347
0.536534
0.166104
-0.095174
-0.238798
-0.207678
-0.134813
-0.140606
0.037481
-0.005754
-0.056079
0.126913
0.011769
0.046391
0.011599
0.014824
0.078190
0.032897
0.021940
0.102009
0.050700
0.110185
0.108989
0.142961
0.114038
0.227627
0.162239
0.144899
0.175289
0.191868
0.256453
0.187976
0.256770
0.334824
0.338711
0.268050
0.461986
0.274979
0.419913
0.360844
0.421421
0.388028
0.476616
0.506509
0.397179
0.517051
0.570945
0.558438
0.534293
0.551531
0.491838
0.493318
0.538466
0.562775
0.584958
0.500131
0.560310
0.542172
0.563964
0.471567
0.486880
0.484460
0.400284
0.430841
0.329815
0.354059
0.391334
0.431783
0.395877
0.280933
0.289248
0.282379
0.257848
0.171978
0.198860
0.126442
0.141245
0.154489
0.206347
0.081628
0.142068
0.191684
0.120587
0.109591
0.140447
0.151152
0.109769
0.116938
0.059434
0.086547
0.123282
0.058259
0.077022
0.090141
0.144464
0.080359
0.078905
0.055862
0.070767
0.050182
0.091542
0.125113
0.076184
-0.032967
0.105880
0.151301
0.145172
0.006994
0.109185
0.060079
0.025885
0.057502
0.123084
-0.009624
0.146414
0.065662
0.172878
0.036999
0.027796
0.096036
0.076937
0.121564
0.111800
0.080526
0.057970
0.039054
0.103958
0.069327
0.057066
0.046190
0.107398
0.153292
0.054387
0.093844
0.013962
0.073803
0.019920
0.124293
0.023052
0.063424
0.111980
0.128341
0.053438
0.038552
0.011530
0.095990
0.097342
0.058522
0.036624
0.105227
0.092721
0.132797
0.094899
0.097846
0.133820
0.089643
0.145315
0.106163
0.092647
0.150578
0.239534
0.199376
0.222194
0.164811
0.264964
0.289252
0.205660
0.274653
0.319077
0.268553
0.228613
0.303526
0.238601
0.256039
0.297343
0.208094
0.294355
0.277405
0.205091
0.238545
0.226189
0.270610
0.224532
0.178393
0.117009
0.199730
0.164040
0.101700
0.144363
0.110589
0.137051
0.056419
0.133803
0.080457
0.176715
0.131588
0.020182
0.097863
0.039907
0.018408
0.050943
0.127520
0.146144
0.089753
0.053795
-0.000616
0.028563
0.035057
0.060016
0.123912
0.338215
0.688828
0.943598
1.133982
1.394394
1.500000
1.340093
1.034666
0.606363
0.249856
0.020464
-0.087741
-0.171936
-0.133653
-0.131298
0.004724
0.006127
0.054917
0.088374
0.139315
0.123421
0.070320
0.121997
0.105299
0.110340
0.019617
0.105194
0.114837
0.094450
0.124455
0.232925
0.095107
0.129160
0.215373
0.167915
0.314717
0.241538
0.308614
0.210008
0.284987
0.372899
0.325981
0.355078
0.425516
0.429430
0.434309
0.405655
0.526010
0.476669
0.412158
0.419868
0.501910
0.562444
0.584124
0.579953
0.552507
0.619407
0.544371
0.593437
0.514142
0.582306
0.589353
0.580138
0.530503
0.544951
0.565742
0.573998
0.569504
0.467337
0.506511
0.517496
0.428170
0.394873
0.378993
0.325709
0.315345
0.338825
0.316540
0.358951
0.297763
0.332146
0.241319
0.216151
0.108485
0.278373
0.128824
0.155352
0.096302
0.154050
0.120924
0.126877
0.088417
0.067720
0.090636
0.087083
0.096656
0.075136
0.148795
0.112780
0.077988
0.094595
0.091314
-0.055809
-0.034424
0.058737
0.074465
0.092344
-0.017498
0.133706
0.108788
0.113687
0.059155
0.056322
0.082609
-0.015082
0.071062
0.041628
0.050323
0.070210
0.049317
0.115497
0.038584
0.001479
0.086926
0.101460
0.039046
0.107927
0.090505
0.047338
0.021945
0.039992
-0.004585
0.023380
0.050102
0.020291
0.049721
0.042026
0.020225
0.017000
0.124124
0.066573
0.093978
0.056348
-0.015252
0.083979
0.092072
-0.006656
0.091855
-0.053669
0.000016
-0.028221
0.003230
0.070553
0.065044
0.012767
0.008346
-0.021230
0.029562
0.065358
0.078037
0.053639
0.072664
0.021028
0.128186
0.068553
0.018641
0.156280
0.072141
0.096467
0.143027
0.123815
0.081569
0.156662
0.185972
0.197669
0.222928
0.226234
0.183897
0.165064
0.225583
0.184197
0.127661
0.159898
0.175865
0.192207
0.123607
0.156894
0.130330
0.075313
0.027865
0.065990
0.009578
0.093278
0.070027
0.103694
0.094833
0.045130
0.014109
0.032728
-0.014959
-0.010770
0.024870
-0.059989
-0.050694
0.019426
-0.036388
0.016614
-0.057922
-0.010223
-0.053562
-0.052995
0.035164
-0.071903
-0.077207
-0.028624
-0.119111
0.057466
0.110902
0.422741
0.735998
0.988745
1.240739
1.408760
1.258070
0.995890
0.709876
0.288674
-0.072518
-0.200493
-0.212686
-0.365546
-0.230618
-0.162160
-0.029789
0.042190
0.005697
0.000105
0.024864
0.049926
0.004849
0.043879
0.064095
0.042350
-0.035867
-0.003188
0.005962
0.049468
0.062926
0.085336
0.067427
0.054107
0.044978
0.126001
0.099188
0.204752
0.146598
0.128634
0.146516
0.181590
0.268924
0.270212
0.261070
0.296088
0.290185
0.332394
0.340777
0.356686
0.347363
0.409601
0.489574
0.391009
0.462620
0.386987
0.457143
0.386322
0.477874
0.473714
0.478149
0.535842
0.421619
0.415364
0.427562
0.362327
0.422711
0.405522
0.380092
0.331273
0.346122
0.304096
0.278112
0.279630
0.257005
0.227683
0.209037
0.200968
0.268255
0.140350
0.116899
0.175910
0.120112
0.014601
0.049588
0.052734
0.070183
0.066687
0.037122
0.025630
0.042917
-0.067020
-0.002427
-0.045320
-0.015183
0.001489
-0.140092
-0.018688
-0.037266
-0.087418
-0.068148
-0.045304
-0.081159
-0.042563
-0.056497
-0.131551
-0.036872
-0.062871
-0.060953
-0.074411
-0.045727
-0.093081
-0.099947
-0.073011
-0.096104
-0.015528
-0.124300
-0.133223
-0.074311
-0.098167
-0.083990
-0.095896
-0.016567
-0.045829
-0.087931
-0.073561
-0.053575
-0.074572
-0.126375
-0.074652
-0.030557
-0.094919
-0.046032
-0.095599
-0.126690
-0.077125
-0.051625
-0.068149
-0.048933
-0.066024
-0.131866
-0.031122
-0.032467
-0.087201
-0.046518
-0.051162
0.029068
-0.134586
-0.011962
0.011555
-0.140486
-0.102259
-0.146045
-0.027959
-0.102093
-0.057937
-0.067008
-0.103472
-0.126569
-0.085850
-0.093635
-0.111580
-0.067015
-0.046731
-0.042904
-0.045075
0.006168
0.024386
0.002733
0.113689
0.043586
-0.021387
-0.001676
0.148703
0.039362
0.069818
0.154690
0.068349
0.180209
0.054501
0.047746
0.051348
0.140147
0.075965
0.055067
0.058882
0.082161
0.055958
-0.000715
0.080537
0.006208
0.023315
0.022559
-0.071796
0.008726
-0.000294
0.001580
-0.061245
-0.038879
-0.098347
-0.144373
-0.012762
-0.076929
-0.094952
-0.028813
-0.083987
-0.093278
-0.020629
-0.028112
-0.018257
-0.091356
-0.045329
-0.132460
-0.033505
-0.054905
-0.101183
-0.064378
-0.031148
0.274956
0.528978
0.853679
1.082673
1.315759
1.311969
1.069430
0.757982
0.393981
0.091384
-0.162187
-0.385349
-0.291110
-0.364024
-0.190851
-0.063827
-0.096730
-0.070309
-0.046611
-0.069341
-0.044675
-0.118459
-0.043196
-0.022011
-0.020557
-0.031437
-0.010756
0.023954
-0.006518
-0.000537
-0.055405
0.037289
0.022608
0.005476
0.037196
0.101453
0.055167
0.108155
0.113310
0.234301
0.178973
0.148405
0.273297
0.184166
0.258304
0.225634
0.304205
0.311887
0.284304
0.374420
0.390993
0.452298
0.392983
0.399269
0.376460
0.383047
0.399050
0.340665
0.455920
0.480238
0.445715
0.463954
0.464297
0.508283
0.397748
0.404122
0.311867
0.356700
0.397779
0.359048
0.318503
0.272588
0.321717
0.262906
0.219975
0.252383
0.158003
0.200991
0.108699
0.054666
0.109370
0.056429
0.125335
0.083275
0.107886
0.013246
0.040587
0.037717
0.056347
-0.027389
0.097495
-0.008014
-0.011604
0.056576
-0.018678
0.053254
-0.056220
-0.110043
-0.034935
0.004617
-0.012205
0.014391
-0.083095
0.021321
0.046560
-0.094307
0.003996
-0.039093
-0.020838
-0.023958
0.041171
-0.038286
-0.052862
0.023153
-0.024827
-0.017514
0.050418
-0.084840
-0.010979
-0.064280
-0.019138
-0.031885
0.043290
-0.036043
-0.059927
-0.006631
-0.013409
0.007460
-0.046158
-0.076122
0.014517
0.022225
-0.004184
0.022574
0.016681
-0.007371
0.023516
-0.025613
-0.038565
-0.009464
0.021021
0.011575
0.021761
-0.049943
-0.008372
-0.054521
0.017326
-0.052949
0.060635
0.031900
0.040164
-0.049624
0.076201
-0.044427
0.005181
0.026730
0.004780
0.037046
-0.037762
0.066400
0.003082
0.112373
0.039112
0.061880
-0.032447
0.135607
0.111968
0.120077
0.197955
0.132727
0.169243
0.134723
0.176843
0.131348
0.156270
0.202946
0.231389
0.250742
0.225828
0.161348
0.088607
0.187389
0.143089
0.219157
0.138923
0.170236
0.147660
0.148350
0.130443
0.101810
0.084589
0.105384
0.026102
0.056882
0.071187
0.153874
-0.002540
0.071560
0.077179
0.009527
0.058397
0.023895
0.041000
0.043086
0.041479
0.027356
0.024629
0.044259
0.037952
0.016678
0.071181
-0.024156
-0.015610
0.001735
0.067668
0.017636
0.065885
0.271941
0.476018
0.856511
1.127608
1.328826
1.430429
1.215039
0.979023
0.653312
0.424076
0.008621
-0.197114
-0.295929
-0.245596
-0.163049
-0.154422
-0.039563
-0.038506
0.096396
0.065832
0.097663
0.077467
0.045853
0.085489
0.053811
0.035133
0.155717
0.071556
0.070624
0.050105
0.045177
0.206574
0.046373
0.191154
0.127794
0.170738
0.207859
0.207092
0.275808
0.290609
0.252656
0.252807
0.323891
0.341207
0.265960
0.458168
0.385546
0.443441
0.460232
0.408804
0.441868
0.558328
0.459514
0.521735
0.494862
0.535941
0.478708
0.589796
0.512905
0.518155
0.542474
0.480525
0.504738
0.528196
0.511614
0.552789
0.580134
0.534738
0.501105
0.389479
0.362915
0.399722
0.372447
0.410731
0.382386
0.446992
0.292142
0.320500
0.330898
0.277518
0.267792
0.248012
0.265006
0.198965
0.168161
0.156423
0.244229
0.076193
0.176051
0.177573
0.115075
0.121407
0.119208
0.097542
0.002456
-0.012638
0.040604
0.067805
0.036680
0.021432
0.010765
0.035909
0.007121
0.061760
0.034954
0.088681
0.004448
0.009594
0.042392
0.057223
0.046827
0.030326
0.052584
0.083041
0.108798
0.056091
0.052701
0.068183
0.008774
0.112278
0.079134
0.013919
0.041575
0.043673
0.092652
0.031156
0.029569
0.023064
0.032660
0.058346
0.068540
-0.017630
0.047259
0.002363
0.019300
0.002357
0.037730
0.006421
0.006476
-0.014888
0.103867
0.029970
0.051495
0.051531
0.085584
0.007253
-0.029063
-0.036663
0.080968
0.064188
0.042146
0.035298
0.046610
0.022674
0.055867
-0.016960
0.013135
0.081024
0.056659
0.057585
0.068957
0.132345
0.073675
0.051546
0.069892
0.096918
0.157754
0.115721
0.098695
0.163943
0.205382
0.213912
0.231699
0.213708
0.225952
0.086687
0.149218
0.167685
0.209364
0.217095
0.232780
0.240113
0.122813
0.108511
0.214071
0.156180
0.192384
0.147878
0.156926
0.113970
0.087650
0.083911
0.106415
0.100707
0.058135
0.055683
0.039094
0.020383
-0.002165
0.023241
0.000183
0.079977
0.072673
-0.023992
-0.003240
0.039167
-0.041963
0.053326
-0.015034
0.033069
-0.110581
-0.010096
-0.037679
0.070460
-0.025148
-0.071377
-0.006251
0.136637
0.354074
0.629034
1.049282
1.225757
1.401745
1.320715
1.031875
0.763953
0.403383
0.143927
-0.173818
-0.204237
-0.288010
-0.250015
-0.108275
0.039011
0.030517
-0.044916
0.057258
0.130223
-0.025470
0.007473
0.014282
0.089703
0.006478
0.063451
0.091739
0.030459
0.026888
0.053153
0.006589
0.060807
0.085734
0.026043
0.111127
0.063023
0.182657
0.146621
0.122434
0.229385
0.245466
0.255776
0.298602
0.269108
0.304290
0.325689
0.344053
0.313826
0.366378
0.444687
0.422549
0.453074
0.457768
0.493585
0.423203
0.540717
0.492333
0.440213
0.443090
0.467825
0.401502
0.480946
0.500028
0.528764
0.457675
0.463152
0.407212
0.384709
0.354871
0.413992
0.401897
0.389745
0.259178
0.243693
0.236608
0.271706
0.273738
0.286991
0.233323
0.084342
0.088477
0.137490
0.115926
0.107373
0.088256
-0.012168
0.095792
-0.005667
0.064534
0.058161
0.018121
0.046180
-0.012354
-0.076451
-0.017458
-0.059391
-0.000947
-0.014690
-0.120543
0.048183
-0.048213
-0.086013
-0.037205
-0.068980
0.007658
-0.057431
-0.027567
-0.048745
-0.095207
-0.049331
-0.063797
-0.068377
0.015397
-0.062528
-0.082948
-0.087137
-0.053035
-0.051494
-0.043555
-0.074690
-0.060486
-0.034850
-0.020150
-0.065476
-0.010803
-0.074969
-0.010994
-0.078408
-0.039635
-0.054649
-0.015184
-0.124257
-0.059760
-0.089766
-0.112821
-0.162527
-0.139391
-0.093160
-0.099027
-0.027886
-0.081047
0.024318
-0.085897
-0.119453
-0.000688
-0.032181
-0.112953
-0.037901
-0.109709
-0.133103
-0.044446
-0.099004
-0.130098
-0.030576
-0.030347
-0.045426
-0.123322
-0.156438
-0.072716
-0.062309
-0.063127
-0.072978
-0.010772
0.034878
0.001243
0.051341
0.024353
0.013920
-0.082856
-0.007493
0.081964
-0.015566
0.149649
0.122428
0.090651
0.117901
0.137105
0.094297
0.100907
0.121428
-0.019001
0.131115
0.113375
0.015941
0.053883
0.051015
0.057014
0.085920
-0.049420
-0.016889
-0.029189
-0.004920
-0.077504
0.011806
-0.007509
-0.014037
-0.073705
-0.128015
-0.163145
-0.066195
-0.060119
-0.057305
-0.089122
-0.082552
-0.129682
-0.035769
-0.118175
-0.109082
-0.069473
-0.095280
-0.109041
-0.094589
-0.094392
-0.129146
-0.160639
-0.093049
-0.026705
0.165532
0.397761
0.816430
1.156776
1.315734
1.242901
1.060132
0.799409
0.421958
0.194862
-0.140813
-0.381881
-0.412258
-0.350078
-0.239444
-0.248703
-0.138863
-0.075626
-0.055655
-0.066585
-0.121822
-0.068964
-0.048433
-0.085459
-0.131641
-0.054778
-0.036488
-0.030587
-0.073448
-0.004605
-0.067428
0.003944
-0.021225
-0.026737
0.002358
0.063708
0.097378
0.124011
0.138243
0.124904
0.158471
0.167500
0.149243
0.229591
0.240072
0.290042
0.299180
0.355942
0.280140
0.440232
0.324654
0.288068
0.363284
0.391866
0.426174
0.468296
0.424666
0.368036
0.448885
0.387195
0.403076
0.380116
0.399124
0.419864
0.330894
0.408662
0.360690
0.360610
0.397106
0.298973
0.140320
0.246432
0.252334
0.192499
0.213870
0.237333
0.160364
0.151430
0.136895
0.140652
0.090060
0.035905
0.042600
0.109120
0.037943
0.039407
-0.024337
-0.006724
-0.050921
-0.017759
-0.058525
0.030621
-0.115168
0.024058
-0.091123
-0.085812
-0.025819
-0.175075
-0.097314
-0.090436
-0.069577
-0.120674
-0.106022
-0.028168
-0.002964
-0.020850
-0.026655
-0.126304
-0.053952
-0.151301
-0.072325
-0.172364
0.021266
-0.147307
-0.036282
-0.095437
-0.091079
-0.113397
-0.012520
-0.095480
-0.114359
-0.018794
-0.169324
-0.105086
-0.128509
-0.063797
-0.065240
-0.069478
-0.101069
-0.020675
-0.043012
-0.144790
-0.112264
-0.071862
-0.075015
-0.098436
-0.114905
-0.018906
-0.066342
-0.080595
-0.041735
-0.004011
-0.049598
-0.076122
-0.100870
-0.091055
-0.090086
-0.080929
-0.089237
-0.141757
-0.011854
-0.137422
-0.137565
-0.013709
-0.078116
-0.077586
-0.061515
-0.016540
-0.086382
-0.024599
-0.058667
-0.003686
-0.142874
-0.012825
0.022239
-0.009839
-0.002334
0.064928
0.010584
0.067332
0.067008
0.021173
0.091260
0.050413
0.051834
0.196292
0.146997
0.088809
0.103064
0.089934
0.076741
0.165517
0.018843
0.057537
0.072832
0.042031
0.098964
0.040972
0.053796
0.063188
0.059469
0.110908
-0.000214
0.025102
-0.001015
0.001948
0.023000
0.000550
0.000534
-0.026147
-0.028863
-0.033847
-0.068537
0.014189
-0.062372
-0.005971
0.007700
0.019577
-0.002582
0.030996
-0.071084
-0.038226
0.011925
-0.076098
-0.023037
-0.011486
-0.011308
0.213811
0.370594
0.666083
1.074541
1.366027
1.366247
1.351686
1.049855
0.653080
0.372454
0.054346
-0.180038
-0.367331
-0.293697
-0.203237
-0.142795
-0.014805
-0.059075
-0.034256
0.053578
0.011878
0.014574
0.000988
0.016706
0.063580
-0.032367
-0.004843
0.027333
0.087381
0.134704
0.074153
0.138538
0.131312
0.172490
0.164940
0.129532
0.133909
0.162118
0.179879
0.209039
0.242763
0.243401
0.280551
0.342115
0.273555
0.348114
0.254322
0.314492
0.461705
0.430132
0.413724
0.428788
0.429078
0.504690
0.455661
0.494195
0.593824
0.566622
0.459898
0.528886
0.472578
0.507327
0.461404
0.460122
0.505291
0.543501
0.466902
0.407994
0.415604
0.453602
0.411370
0.366505
0.390532
0.333318
0.348556
0.351292
0.258921
0.192179
0.219740
0.219405
0.232086
0.133062
0.084389
0.153763
0.156455
0.165310
0.165561
0.123924
0.205087
0.124208
0.049665
0.040939
0.040247
0.096258
0.102386
0.053933
0.104288
0.062979
0.076591
0.072448
-0.017654
0.076443
-0.029742
0.027868
0.005193
0.018654
0.040444
-0.024925
0.049060
-0.038643
-0.016087
-0.000576
0.064373
0.072200
0.066226
0.055816
0.006699
0.064046
0.065495
0.034540
0.047930
0.007235
0.030916
0.057146
0.071010
-0.015224
-0.025287
0.059712
0.026064
0.052398
0.069247
0.010850
0.062339
0.038187
0.061716
0.092675
0.088198
0.120255
0.036159
0.073141
0.055229
0.081383
0.075332
0.021430
0.097828
0.054350
0.089345
0.037330
0.063171
-0.006593
0.064964
0.079179
0.003754
0.038014
-0.003963
0.083309
0.096062
0.118260
0.046635
0.108099
0.116264
0.061584
0.062924
0.102951
0.101133
0.116606
0.157496
0.245036
0.165395
0.198731
0.153679
0.222562
0.194956
0.172704
0.303074
0.265499
0.192199
0.169938
0.254970
0.204202
0.185895
0.200140
0.240709
0.302495
0.281574
0.182892
0.229289
0.225427
0.132314
0.138238
0.151509
0.143269
0.141104
0.134655
0.119974
0.106571
0.115474
0.168946
0.112537
0.073352
0.101608
0.068223
0.044339
0.041244
0.096452
0.065373
0.085400
0.084068
0.073098
0.121928
0.043326
0.083509
0.127208
-0.046881
-0.034675
0.114064
0.033598
0.208010
0.393055
0.672147
1.018638
1.248571
1.482610
1.391338
1.185127
0.943938
0.593836
0.193150
-0.037776
-0.179543
-0.118040
-0.152255
-0.059862
0.004644
0.002221
0.084763
0.074890
0.116729
0.065643
0.047310
0.134835
0.070440
0.040103
0.116290
