-0.016483
-0.051846
0.042491
-0.000271
-0.020023
-0.047669
0.056906
0.049050
-0.014799
0.057504
0.024218
0.028748
0.070904
-0.011477
-0.029507
0.040186
0.075756
0.032564
-0.030932
0.016676
0.003565
0.158224
0.017351
0.087663
0.088326
0.149973
0.065252
0.197738
0.106112
0.143399
0.207851
0.057352
0.170839
0.161898
0.126950
0.178745
0.135970
0.255420
0.108001
0.086016
0.144905
0.242514
0.123356
0.111298
0.098409
0.189865
0.077119
0.149884
0.109927
0.152772
0.105047
0.205530
0.090644
0.014960
0.075813
0.080139
0.160803
0.097005
0.079770
0.012103
0.063264
0.001370
0.069281
0.112571
0.042573
0.049793
0.030593
0.110515
0.002855
0.201936
0.387821
0.603056
0.871683
1.154872
1.163972
1.133867
0.942460
0.678416
0.369080
0.168784
-0.027043
-0.079015
-0.032042
0.039421
-0.025172
0.023852
0.092421
0.046089
0.077966
0.114562
0.148084
0.138755
0.130774
0.205126
0.209927
0.201295
0.142714
0.207456
0.182849
0.277697
0.261200
0.223460
0.360640
0.222992
0.301674
0.391500
0.328742
0.435396
0.361111
0.449976
0.316519
0.482244
0.469394
0.450694
0.559642
0.496611
0.508262
0.482120
0.550644
0.547509
0.504732
0.526497
0.508527
0.511618
0.442420
0.596863
0.482220
0.501018
0.508177
0.508149
0.402279
0.422601
0.417905
0.385930
0.359509
0.376148
0.339497
0.351552
0.332952
0.324232
0.305804
0.246031
0.207237
0.237724
0.240489
0.149966
0.252991
0.172869
0.091819
0.180719
0.250055
0.233531
0.120312
0.122152
0.187378
0.141345
0.078194
0.111266
0.099384
0.103082
0.112680
0.120431
0.132518
0.149596
0.073444
0.064404
0.091647
0.107702
0.105176
0.172768
0.141277
0.122697
0.171847
0.152857
0.072061
0.116831
0.098494
0.107863
0.114186
0.104234
0.115228
0.057231
0.069347
0.125177
0.074980
0.038471
0.121311
0.054464
0.125477
0.111737
0.117065
0.112670
0.226153
0.173161
0.067201
0.107480
0.095934
0.144822
0.125441
0.165974
0.183240
0.098342
0.143652
0.168295
0.153469
0.124284
0.165766
0.150361
0.221624
0.267830
0.186809
0.147964
0.272783
0.277282
0.273624
0.292237
0.248451
0.225465
0.266657
0.288407
0.188289
0.289581
0.286248
0.278159
0.302624
0.215905
0.303188
0.273381
0.296558
0.306971
0.176109
0.228820
0.185897
0.271724
0.142236
0.138960
0.191655
0.183187
0.115363
0.137584
0.145089
0.046318
0.141124
0.051562
0.123941
0.133865
0.074814
0.179852
0.195836
0.135332
0.068009
0.173658
0.170786
0.145018
0.232685
0.418584
0.618892
0.925951
1.196769
1.355067
1.310911
1.103497
0.837774
0.397175
0.142878
0.027304
0.034445
-0.011895
-0.025148
-0.010013
0.167842
0.149665
0.159963
0.157986
0.227627
0.110710
0.149435
0.203421
0.188244
0.259474
0.190912
0.247725
0.186708
0.285864
0.235236
0.297748
0.257701
0.365923
0.330891
0.352801
0.404330
0.392997
0.377244
0.469026
0.469430
0.439587
0.438221
0.536777
0.533731
0.489701
0.465992
0.577074
0.559162
0.511766
0.584429
0.523215
0.496014
0.568912
0.546828
0.465067
0.577449
0.519155
0.586662
0.541844
0.484794
0.453567
0.515362
0.339785
0.432516
0.426003
0.426815
0.352227
0.442836
0.296678
0.358205
0.299054
0.274657
0.260190
0.221736
0.284022
0.241723
0.212716
0.211870
0.114904
0.116605
0.214638
0.094778
0.148380
0.118801
0.071690
0.095552
0.165973
0.093781
0.140721
0.135622
0.077574
0.093977
0.082357
0.068095
0.168376
0.142015
0.066744
0.120780
0.077267
0.056216
0.098786
0.132018
0.087605
0.096688
0.106122
0.115379
0.009731
0.083241
0.188723
0.043106
0.064435
0.067389
0.069490
-0.003013
0.058283
0.059992
0.072276
0.088683
0.064881
0.020897
0.144347
0.044322
0.084812
0.108149
0.110683
0.042697
0.099951
0.128765
0.075696
0.011544
0.067287
0.072498
0.114152
0.169122
0.092293
0.098767
0.045723
0.207281
0.139513
0.182383
0.161700
0.164681
0.147758
0.131229
0.214296
0.217783
0.202758
0.231558
0.198173
0.203698
0.214932
0.254570
0.258250
0.258923
0.205853
0.266577
0.236126
0.177417
0.178223
0.221700
0.193932
0.164678
0.239749
0.091056
0.132814
0.146383
0.170974
0.125631
0.083136
0.109550
0.156935
0.127783
0.146899
0.146959
0.111531
0.039187
0.147495
0.105697
0.022168
0.099959
0.074227
0.060063
0.098705
0.100261
0.178921
0.260727
0.526196
0.724688
1.045393
1.276980
1.272426
1.044794
0.824054
0.493703
0.166349
0.000457
-0.130793
-0.085427
-0.053852
0.013136
0.068589
0.116845
0.054227
0.105278
0.051889
0.145766
0.168502
0.102167
0.178252
0.185293
0.149450
0.167112
0.182916
0.224841
0.217222
0.219215
0.204293
0.350387
0.293212
0.328860
0.293927
0.349571
0.309289
0.392733
0.346212
0.410739
0.373479
0.432862
0.462535
0.547258
0.489984
0.491886
0.482928
0.530521
0.476672
0.508227
0.512351
0.506365
0.525287
0.493844
0.394432
0.497442
0.546286
0.455909
0.419634
0.446524
0.447609
0.391243
0.414161
0.389337
0.355579
0.339423
0.300694
0.212064
0.288494
0.259333
0.255593
0.240608
0.170799
0.161181
0.185065
0.161327
0.219297
0.113007
0.055049
0.181265
0.146210
0.101705
0.093424
0.075483
0.130852
0.151525
0.135042
0.094031
0.030333
0.032092
0.122130
0.111280
0.029071
0.024433
0.014070
0.148526
0.078317
0.054552
0.061270
0.057568
-0.054663
0.100146
0.078026
0.119253
0.116686
0.064747
0.091714
0.034576
0.052000
0.057665
0.096016
0.107964
0.042436
0.097303
0.071864
0.032094
0.059777
0.044366
0.051239
0.069837
0.009342
0.096791
0.084848
-0.015347
0.136330
0.088615
0.047679
0.039381
0.033437
0.161585
0.146299
0.059271
0.098540
0.058131
0.118978
0.083644
0.137971
0.158074
0.092208
0.132775
0.107526
0.170344
0.144670
0.139486
0.154106
0.205482
0.138911
0.179531
0.234890
0.194840
0.231679
0.205720
0.280405
0.275621
0.189559
0.260248
0.178826
0.234584
0.222143
0.183794
0.167147
0.176967
0.208012
0.134855
0.154936
0.135143
0.129750
0.164280
0.130517
0.059730
0.126195
0.116867
0.010423
0.086660
0.066187
0.114061
0.149581
0.025167
0.091154
0.025230
0.059783
0.061474
0.074105
0.087935
0.305319
0.471763
0.774955
1.060511
1.275559
1.236763
1.104385
0.879105
0.568009
0.248110
-0.019321
-0.085125
-0.076312
-0.009870
0.020896
-0.015992
0.079691
0.105481
0.119022
0.148646
0.143774
0.150418
0.155864
0.154685
0.165113
0.184974
0.227205
0.266663
0.192862
0.243603
0.285037
0.318132
0.257331
0.286884
0.368287
0.361694
0.384034
0.374206
0.374841
0.430104
0.476092
0.491190
0.529862
0.478474
0.544954
0.534334
0.461721
0.548553
0.569343
0.594170
0.555330
0.504890
0.554785
0.573248
0.560133
0.557471
0.533968
0.534145
0.459937
0.505577
0.353501
0.504587
0.411512
0.423422
0.410555
0.399749
0.411940
0.362045
0.386264
0.344952
0.334718
0.285533
0.295717
0.285593
0.233051
0.237055
0.248710
0.249421
0.243272
0.195507
0.206877
0.257300
0.169082
0.129768
0.116117
0.168371
0.260625
0.114833
0.118187
0.155155
0.177312
0.096036
0.149683
0.106460
0.126565
0.122354
0.147774
0.218626
0.151145
0.111967
0.176779
0.131143
0.135904
0.170513
0.149185
0.115452
0.140511
0.142448
0.139344
0.239421
0.126825
0.185831
0.174654
0.110182
0.183109
0.098924
0.166459
0.169034
0.134133
0.132763
0.135868
0.077602
0.180457
0.159443
0.116849
0.184244
0.181411
0.146773
0.129620
0.184595
0.173838
0.238460
0.203317
0.175003
0.162087
0.131798
0.163346
0.209953
0.218553
0.235561
0.303959
0.266684
0.258873
0.371005
0.286512
0.269073
0.289576
0.268944
0.317350
0.303116
0.328769
0.345740
0.317781
0.278232
0.253066
0.375593
0.249127
0.301755
0.330016
0.297334
0.278437
0.276467
0.216609
0.225360
0.291720
0.329054
0.322147
0.258338
0.316576
0.145547
0.194376
0.215775
0.202006
0.215392
0.263877
0.162390
0.220336
0.230783
0.199587
0.165101
0.180272
0.223174
0.203490
0.182345
0.271319
0.335124
0.512658
0.844422
1.054445
1.201940
1.437284
1.308927
1.021530
0.693639
0.440514
0.128110
0.000976
0.050816
0.066983
0.153441
0.201346
0.201502
0.225293
0.228720
0.297327
0.210732
0.314601
0.346431
0.285701
0.291661
0.265345
0.281714
0.379480
0.396108
0.348268
0.394046
0.372094
0.374133
0.496254
0.488786
0.497147
0.448532
0.498827
0.489188
0.533544
0.540223
0.535135
0.508589
0.648888
0.684719
0.593418
0.700426
0.689521
0.664797
0.649971
0.628850
0.672599
0.630172
0.597641
0.665692
0.645668
0.707735
0.583981
0.590494
0.626386
0.588571
0.562080
0.486028
0.595043
0.584637
0.503160
0.505111
0.445848
0.394771
0.478375
0.435128
0.394429
0.491614
0.363992
0.380495
0.299509
0.317256
0.349969
0.346840
0.340999
0.371843
0.314343
0.326483
0.257352
0.295116
0.237981
0.312475
0.215025
0.270742
0.231734
0.222770
0.325679
0.269437
0.222024
0.152390
0.295983
0.304056
0.205026
0.226187
0.163473
0.253518
0.223620
0.228694
0.297099
0.268172
0.205890
0.189779
0.298841
0.233755
0.224448
0.195680
0.222618
0.234206
0.219665
0.269885
0.238565
0.293147
0.155059
0.220444
0.211691
0.290194
0.240251
0.291304
0.328979
0.252633
0.288236
0.311685
0.278552
0.298747
0.238321
0.324523
0.244997
0.272538
0.291900
0.236838
0.213580
0.375899
0.241798
0.280694
0.382513
0.279971
0.358744
0.370212
0.309745
0.314987
0.401617
0.337044
0.404514
0.432716
0.354304
0.327690
0.384882
0.376502
0.437900
0.413349
0.342180
0.436784
0.368860
0.376208
0.365773
0.392790
0.358859
0.341876
0.331952
0.288443
0.316605
0.296142
0.399574
0.285719
0.253922
0.328721
0.278220
0.308220
0.265382
0.223324
0.291508
0.253564
0.287198
0.294491
0.222697
0.207488
0.216756
0.310697
0.252448
0.287127
0.339070
0.646298
0.820902
1.114583
1.286296
1.420034
1.348512
1.079740
0.856666
0.528952
0.251204
0.078088
0.083537
0.066259
0.191942
0.160166
0.255727
0.266625
0.278966
0.272851
0.206157
0.248645
0.337983
0.317223
0.321207
0.262972
0.359510
0.425739
0.430540
0.371747
0.361294
0.408459
0.438906
0.470589
0.428437
0.466813
0.546432
0.523936
0.566969
0.604118
0.551007
0.582760
0.567622
0.616323
0.643475
0.630540
0.613016
0.640153
0.619831
0.672245
0.710124
0.740742
0.698139
0.726634
0.695823
0.700690
0.641130
0.597899
0.639716
0.565226
0.631857
0.617447
0.635061
0.596533
0.560605
0.588092
0.484447
0.532592
0.467523
0.442264
0.410057
0.431562
0.353028
0.348078
0.325586
0.355979
0.329915
0.305889
0.320407
0.347567
0.284587
0.256818
0.244825
0.257834
0.260203
0.303517
0.282053
0.201367
0.231150
0.234251
0.234288
0.226829
0.157974
0.254741
0.215764
0.217417
0.259211
0.188490
0.259629
0.299139
0.223374
0.229084
0.165215
0.262104
0.248028
0.191865
0.239399
0.213385
0.202228
0.193781
0.163292
0.203730
0.249625
0.272241
0.184639
0.246214
0.229574
0.247580
0.181476
0.232335
0.141196
0.197434
0.174852
0.196450
0.200612
0.266172
0.198392
0.141405
0.162456
0.218097
0.223464
0.208356
0.178896
0.145980
0.193115
0.243899
0.206311
0.205130
0.241267
0.281297
0.253124
0.274588
0.236819
0.300247
0.269041
0.279412
0.350946
0.351393
0.331527
0.348677
0.321327
0.350939
0.370467
0.362485
0.347778
0.340772
0.379099
0.338914
0.354656
0.294328
0.336306
0.348264
0.270034
0.211151
0.294566
0.316228
0.222131
0.188148
0.193836
0.257420
0.220959
0.187369
0.213900
0.185785
0.253354
0.222355
0.159239
0.239868
0.247632
0.120639
0.157646
0.165057
0.150449
0.243560
0.217060
0.279828
0.527983
0.796009
1.090589
1.210094
1.397051
1.288095
1.101463
0.750375
0.447404
0.277319
0.134082
-0.039838
0.057345
0.038367
0.182596
0.195957
0.176819
0.296506
0.244534
0.290221
0.221415
0.214296
0.267215
0.174601
0.286458
0.312483
0.253068
0.381939
0.307400
0.329605
0.381536
0.375322
0.354510
0.354034
0.378180
0.357735
0.464424
0.506556
0.437361
0.519679
0.483586
0.592371
0.530316
0.576109
0.564204
0.591455
0.551979
0.564928
0.576211
0.631882
0.611235
0.609313
0.593751
0.615162
0.623280
0.588604
0.572194
0.614824
0.469626
0.538394
0.520720
0.512649
0.520440
0.492417
0.464070
0.460827
0.391659
0.394848
0.324574
0.361186
0.317724
0.320694
0.342189
0.297540
0.324170
0.233720
0.255449
0.327557
0.245577
0.172572
0.220101
0.170533
0.243208
0.175220
0.141058
0.137552
0.213420
0.128614
0.175929
0.178137
0.121927
0.167357
0.185578
0.190435
0.128955
0.173980
0.101954
0.202868
0.163548
0.137901
0.161045
0.191257
0.113632
0.133096
0.189948
0.215991
0.149484
0.112011
0.185490
0.154538
0.173647
0.207540
0.186893
0.106664
0.176671
0.110003
0.204385
0.180561
0.102484
0.176751
0.124408
0.176480
0.104776
0.104259
0.121537
0.147384
0.142761
0.110598
0.074849
0.174198
0.134426
0.245510
0.082321
0.128757
0.234827
0.127574
0.203286
0.220096
0.216530
0.190320
0.227876
0.247374
0.270806
0.243559
0.217205
0.245313
0.231816
0.268300
0.280895
0.337046
0.350012
0.291764
0.347464
0.255209
0.335511
0.327620
0.262227
0.265769
0.285187
0.219098
0.284914
0.283588
0.213313
0.247617
0.209656
0.248970
0.171817
0.166389
0.148192
0.140046
0.244286
0.144221
0.223264
0.177514
0.173028
0.144791
0.163594
0.142015
0.153940
0.140672
0.148850
0.122009
0.114037
0.135345
0.264529
0.407924
0.678111
0.929128
1.109269
1.258550
1.329985
1.080574
0.819543
0.514631
0.278533
0.008339
0.059029
-0.022988
0.019496
0.143204
0.131393
0.183314
0.170991
0.189617
0.150586
0.247174
0.203124
0.278402
0.261849
0.234799
0.210988
0.324665
0.298998
0.240182
0.418695
0.325287
0.327203
0.338718
0.367657
0.331299
0.395274
0.443098
0.426714
0.442714
0.499867
0.544241
0.568181
0.495602
0.498874
0.599091
0.561070
0.634723
0.633656
0.525217
0.593776
0.588739
0.648172
0.642734
0.534298
0.641018
0.588044
0.611266
0.600976
0.544594
0.538737
0.541246
0.496388
0.453262
0.523813
0.499309
0.453889
0.416027
0.494179
0.382295
0.391873
0.451511
0.310309
0.391806
0.348307
0.311448
0.324375
0.212543
0.315911
0.230421
0.229405
0.292076
0.249998
0.197920
0.254176
0.289501
0.239604
0.147214
0.237510
0.224934
0.178182
0.181681
0.180136
0.200243
0.198172
0.177863
0.161980
0.203187
0.163904
0.211367
0.172276
0.187797
0.110056
0.200295
0.169225
0.195270
0.162759
0.144669
0.236395
0.155036
0.155601
0.105819
0.191671
0.138428
0.185072
0.204260
0.106854
0.146278
0.209306
0.228966
0.214568
0.237206
0.231831
0.205041
0.154051
0.122084
0.196014
0.235705
0.234443
0.220385
0.241121
0.132419
0.276466
0.198002
0.199814
0.222409
0.265544
0.270727
0.211456
0.251097
0.238409
0.302023
0.236142
0.243511
0.327477
0.290329
0.341110
0.388435
0.367603
0.434266
0.331046
0.368379
0.361998
0.370165
0.384634
0.370026
0.305621
0.349690
0.419704
0.346726
0.411059
0.332864
0.293763
0.296634
0.301495
0.238960
0.332491
0.247120
0.292625
0.278844
0.216940
0.297120
0.201396
0.268212
0.248782
0.261355
0.206292
0.223310
0.272205
0.280597
0.205259
0.295712
0.159688
0.225837
0.270704
0.294095
0.490133
0.622152
0.995017
1.242322
1.382422
1.356023
1.244723
1.045168
0.659724
0.452232
0.149875
0.119569
0.060819
0.060163
0.208788
0.244999
0.195044
0.273928
0.287696
0.313782
0.274435
0.243089
0.349294
0.337885
0.370492
0.300489
0.360290
0.409500
0.375065
0.418750
0.447385
0.501023
0.401715
0.495314
0.484036
0.525785
0.537926
0.563985
0.523045
0.596942
0.612429
0.618992
0.628148
0.599807
0.616847
0.754551
0.646771
0.678149
0.688174
0.657228
0.692244
0.743898
0.635520
0.658913
0.679196
0.695578
0.687956
0.686328
0.676357
0.628631
0.630327
0.596175
0.624203
0.612101
0.581184
0.527745
0.631000
0.539266
0.494162
0.444580
0.505476
0.466110
0.388733
0.495461
0.390957
0.379073
0.415028
0.437205
0.347947
0.421031
0.346246
0.298879
0.392650
0.257878
0.331222
0.303996
0.295385
0.313597
0.302622
0.281488
0.214202
0.253364
0.315471
0.212594
0.251559
0.259268
0.259269
0.332962
0.255361
0.301747
0.192530
0.260765
0.264575
0.238545
0.301409
0.262592
0.326689
0.309641
0.320548
0.271562
0.247053
0.311039
0.177582
0.246286
0.248229
0.308115
0.264780
0.259199
0.347157
0.267431
0.261893
0.333887
0.334770
0.231064
0.284829
0.257307
0.234004
0.314140
0.343241
0.302646
0.373846
0.325968
0.279227
0.290488
0.311098
0.303932
0.396462
0.328047
0.314267
0.403967
0.331119
0.370476
0.354535
0.365016
0.404163
0.366395
0.415932
0.366467
0.428392
0.453657
0.436262
0.382302
0.383208
0.485318
0.363353
0.495762
0.387366
0.408742
0.413421
0.364883
0.411088
0.354376
0.396045
0.371706
0.423553
0.448289
0.325510
0.346573
0.348158
0.294219
0.245898
0.307764
0.338636
0.304899
0.306504
0.285982
0.245011
0.307915
0.356840
0.295447
0.308071
0.275226
0.315601
0.283487
0.325228
0.486110
0.661979
0.969389
1.265301
1.407052
1.456560
1.354629
1.146816
0.784574
0.495202
0.279264
0.151919
0.105937
0.112955
0.203202
0.200537
0.258832
0.302684
0.341302
0.326303
0.369064
0.379804
0.353989
0.294865
0.412787
0.376660
0.340771
0.383918
0.431036
0.434333
0.428932
0.441511
0.488242
0.592668
0.530843
0.588628
0.528406
0.530152
0.640325
0.673888
0.548214
0.701123
0.618899
0.658035
0.638965
0.692372
0.660363
0.737707
0.658788
0.682116
0.727458
0.713974
0.684673
0.673477
0.747451
0.719073
0.653351
0.648091
0.699418
0.695637
0.586457
0.662672
0.576408
0.599323
0.639832
0.653642
0.562903
0.494749
0.464440
0.511226
0.403234
0.491618
0.451270
0.359701
0.387995
0.388360
0.343399
0.356443
0.346017
0.340388
0.368647
0.284951
0.303307
0.316191
0.304435
0.273576
0.239610
0.274235
0.276438
0.311288
0.283262
0.231156
0.276940
0.279011
0.306377
0.200386
0.244356
0.210173
0.212182
0.195481
0.199958
0.279036
0.266334
0.244203
0.311332
0.275924
0.201605
0.255673
0.234516
0.296282
0.242957
0.224795
0.180544
0.225769
0.214826
0.197693
0.192795
0.255860
0.205559
0.190146
0.213134
0.277365
0.275605
0.242764
0.211441
0.245091
0.240870
0.207721
0.163909
0.252142
0.249988
0.236963
0.254037
0.289792
0.272602
0.296473
0.285270
0.256147
0.297694
0.311131
0.351438
0.314368
0.337234
0.341958
0.299542
0.348373
0.394845
0.406453
0.422902
0.351436
0.289350
0.307185
0.348213
0.361943
0.408484
0.340951
0.339465
0.374208
0.370406
0.342008
0.322505
0.358627
0.280935
0.382381
0.308632
0.262444
0.257010
0.243284
0.271582
0.265914
0.248666
0.244026
0.312411
0.241955
0.181480
0.255089
0.211651
0.241293
0.223590
0.236123
0.178186
0.138936
0.223458
0.177583
0.306771
0.384565
0.552173
0.833944
1.061080
1.288696
1.401840
1.302376
1.082022
0.763824
0.444593
0.235654
0.078387
0.029612
0.062694
0.079233
0.161119
0.181718
0.244261
0.267619
0.222497
0.229043
0.177780
0.297104
0.347275
0.268653
0.369506
0.297700
0.352661
0.340164
0.371183
0.389468
0.429015
0.381458
0.417219
0.427832
0.464764
0.418412
0.436860
0.550288
0.488479
0.539018
0.573623
0.485401
0.650281
0.588555
0.678345
0.590158
0.607052
0.605691
0.686945
0.612451
0.633406
0.702222
0.592187
0.633692
0.603769
0.593874
0.574170
0.628504
0.541393
0.553734
0.522645
0.526269
0.493589
0.597073
0.518382
0.422174
0.538912
0.352152
0.306387
0.381511
0.277551
0.364763
0.398442
0.290304
0.337483
0.323703
0.326564
0.269454
0.224702
0.178930
0.293275
0.284822
0.227406
0.232795
0.217158
0.189852
0.250163
0.212476
0.125312
0.184636
0.171461
0.194429
0.216904
0.157598
0.117410
0.175035
0.192505
0.176166
0.218995
0.225896
0.209258
0.144506
0.133438
0.157442
0.244241
0.208713
0.205158
0.156404
0.170259
0.169024
0.122265
0.220680
0.226622
0.175929
0.148374
0.145312
0.092707
0.188240
0.178366
0.137341
0.142525
0.139425
0.178425
0.151952
0.207411
0.217959
0.170128
0.109330
0.154251
0.212120
0.177585
0.174029
0.173354
0.189805
0.254170
0.176911
0.238273
0.265714
0.162929
0.147318
0.215668
0.267083
0.290437
0.217539
0.322248
0.322999
0.288687
0.312508
0.221147
0.367561
0.282048
0.289714
0.423824
0.329392
0.279527
0.294495
0.344471
0.278712
0.290633
0.265949
0.315031
0.259776
0.294999
0.361577
0.156106
0.281889
0.195249
0.199216
0.230119
0.258281
0.190224
0.172993
0.211598
0.152328
0.159162
0.266329
0.184875
0.192338
0.216320
0.163588
0.151735
0.167187
0.215279
0.183899
0.320975
0.512536
0.734557
0.998787
1.219058
1.354808
1.327046
1.082627
0.760348
0.485698
0.291083
0.087001
-0.000564
-0.006697
0.128566
0.151538
0.128326
0.172475
0.204651
0.321667
0.197191
0.215670
0.263042
0.247998
0.340785
0.268355
0.249738
0.285246
0.328693
0.325034
0.321588
0.410645
0.369402
0.367532
0.364390
0.374674
0.488208
0.407666
0.533763
0.507496
0.512683
0.532067
0.602931
0.668930
0.544917
0.545982
0.542476
0.667040
0.566553
0.600588
0.661236
0.596484
0.710703
0.607421
0.631524
0.648789
0.544699
0.624896
0.512389
0.630898
0.591057
0.577000
0.407831
0.536856
0.484730
0.425524
0.543678
0.400012
0.394494
0.407183
0.376815
0.373315
0.407178
0.331397
0.334185
0.308880
0.394372
0.224894
0.267259
0.224583
0.291527
0.236558
0.312495
0.146733
0.149189
0.258335
0.282826
0.264948
0.294711
0.179056
0.298285
0.220708
0.189310
0.247079
0.173706
0.206608
0.198008
0.193003
0.148031
0.256354
0.185571
0.261470
0.222990
0.258640
0.233190
0.244866
0.184483
0.216874
0.242935
0.218990
0.224926
0.163802
0.143417
0.168091
0.289814
0.155632
0.155834
0.206054
0.180724
0.246182
0.233212
0.185557
0.220306
0.181857
0.269261
0.233247
0.211857
0.197031
0.213472
0.244672
0.249513
0.261237
0.171711
0.225672
0.217710
0.227759
0.270857
0.266077
0.282506
0.260630
0.268666
0.312974
0.238104
0.288193
0.297434
0.299981
0.384692
0.306247
0.365358
0.287518
0.301294
0.370932
0.395071
0.343666
0.403935
0.398294
0.396027
0.346332
0.402265
0.299929
0.290203
0.358430
0.314362
0.275107
0.316120
0.368084
0.287968
0.281941
0.332613
0.283396
0.341849
0.201517
0.271147
0.262661
0.227197
0.253295
0.249364
0.310334
0.296284
0.234110
0.242828
0.201324
0.287802
0.190217
0.244473
0.365892
0.476645
0.686518
0.992959
1.223304
1.468198
1.446279
1.166559
0.968578
0.601100
0.361344
0.092188
0.076028
0.098980
0.115736
0.241677
0.179819
0.284278
0.334408
0.395609
0.325230
0.356698
0.304652
0.288022
0.362027
0.360866
0.311752
0.312890
0.386065
0.429190
0.378403
0.470595
0.389153
0.436147
0.469616
0.523195
0.462484
0.545669
0.579727
0.609414
0.609132
0.578894
0.571015
0.718944
0.659232
0.617827
0.630695
0.611373
0.704621
0.744540
0.683565
0.688737
0.751758
0.723438
0.694955
0.739384
0.633348
0.690130
0.675588
0.696009
0.697689
0.668089
0.602113
0.574978
0.608601
0.616934
0.563347
0.550096
0.595265
0.460130
0.484104
0.394450
0.489914
0.433656
0.495855
0.356037
0.472014
0.403340
0.396306
0.321777
0.347597
0.420155
0.382749
0.381622
0.295364
0.319500
0.332000
0.395898
0.271555
0.276854
0.297603
0.304924
0.341856
0.321180
0.266143
0.294198
0.249988
0.300225
0.315226
0.302980
0.222163
0.352046
0.280236
0.316353
0.276386
0.312506
0.280737
0.339266
0.320106
0.297845
0.319795
0.299965
0.301543
0.305400
0.234657
0.310416
0.238812
0.323966
0.367820
0.243854
0.271354
0.250086
0.269006
0.374471
0.307680
0.304148
0.335910
0.358515
0.326860
0.253388
0.256838
0.295886
0.320750
0.339639
0.381523
0.345497
0.402859
0.384465
0.335494
0.382370
0.373077
0.393898
0.407716
0.391922
0.406312
0.403498
0.378946
0.395699
0.457006
0.492456
0.441862
0.420380
0.446457
0.426572
0.378307
0.397517
0.384989
0.442741
0.387939
0.409886
0.428786
0.326658
0.449835
0.485039
0.322911
0.367882
0.332226
0.394618
0.350272
0.430414
0.354651
0.280759
0.345032
0.310003
0.354690
0.357861
0.287164
0.292605
0.268346
0.301783
0.313140
0.311627
0.345076
0.243297
0.232926
0.435599
0.517338
0.670510
1.031413
1.298451
1.500000
1.483813
1.325953
0.975864
0.716732
0.476795
0.189230
0.204746
0.147297
0.211087
0.218074
0.311143
0.307161
0.340727
0.353185
0.314904
0.385571
0.382922
0.328683
