0.057455
0.852095
0.399777
-0.022666
0.072550
-0.017215
0.244363
0.326858
0.267561
0.002622
0.476425
0.334604
-0.155074
0.106412
0.179802
-0.478083
0.513450
0.074201
-0.288382
0.400765
-0.034113
0.189462
-0.169187
-0.017040
-0.337636
-0.408826
0.407080
0.506792
-0.167561
-0.790539
-0.407446
0.423387
0.274065
-0.733947
-0.160702
0.494256
-0.160859
-0.263428
-0.514949
-0.357887
0.195396
0.317843
-0.237553
0.398461
-0.485353
0.303392
0.010009
-0.213921
0.813971
-0.134577
0.474666
1.053024
0.079086
0.305087
0.203750
-0.152045
-0.465209
-0.039402
-0.061105
-0.288049
0.364788
0.156650
-0.289350
0.069633
-0.990932
-0.753699
-0.108203
-0.616968
0.191481
0.758081
0.042891
0.544251
-0.222851
0.137405
0.090115
-0.371526
0.029419
-0.014806
-0.824145
0.345159
0.087040
-0.121168
0.264155
0.506809
-0.075553
0.274867
-0.551373
-0.144850
-0.125394
0.228264
0.222538
0.981462
0.950604
1.234646
0.661203
1.347435
1.119271
-0.081534
-0.291334
-1.134029
0.054055
-0.271826
0.010856
-0.012686
-0.112258
0.089982
0.068652
0.259490
0.474070
0.279551
0.532431
0.300160
0.330464
0.579049
0.353352
0.344419
0.147939
-0.318361
0.076968
0.039755
0.612884
0.014816
0.025139
-0.543023
-0.137229
-0.180953
0.329432
0.468161
-0.248182
0.295233
0.110051
-0.310410
0.166542
-0.329992
-0.311363
0.224949
0.049312
0.754201
0.413277
-0.209096
0.193539
0.589656
1.197593
0.895922
0.436112
0.375877
0.098841
0.256228
0.265769
0.378759
0.232439
0.209178
0.486277
-0.021002
0.425972
-0.354154
0.669587
0.198905
0.094620
0.295008
0.246343
0.392195
0.252210
0.082302
-0.142501
0.404940
0.103265
-0.469944
-0.160036
0.475901
-0.217732
0.091366
-0.533011
-0.366067
0.929165
-0.222430
0.139353
0.101081
0.163458
0.724133
-0.155152
-0.460526
-0.004163
-0.249541
0.375125
0.554909
0.050762
0.029162
0.105854
0.564631
0.126312
-0.704165
0.222231
0.064348
0.030469
-0.100946
0.545291
0.047596
-0.165280
0.239894
0.674965
0.629178
-0.009690
0.500962
0.260463
0.005856
-0.335627
0.117994
-0.312039
-0.431386
-0.469263
0.854192
0.256640
-0.352878
0.094527
0.539796
0.061608
0.124132
0.158436
-0.268206
-0.193710
-0.361242
0.445082
-0.289465
-0.037357
-0.652105
-0.525069
0.188263
0.238425
-0.159326
0.428591
-0.327020
0.152879
0.266294
0.392983
-0.252206
0.305078
-0.533046
-0.006655
-0.050443
-0.032322
0.505827
0.295717
0.211606
0.865113
-0.434459
0.043247
-0.081508
-0.139569
-0.563902
-0.465207
-0.261758
-0.316219
0.289348
0.320877
0.110536
0.170457
0.078461
-0.486038
0.195536
-0.261692
0.060316
-0.060334
-0.294578
0.200648
0.417964
0.223696
-0.300624
0.168447
0.025141
0.612325
0.740465
-0.047818
0.192274
0.498484
0.509690
0.372327
-0.174607
0.226741
0.035920
-0.791585
0.542593
0.309469
-0.571776
-0.009579
-0.260353
-0.165736
-0.467117
-0.399845
0.486248
0.436198
-0.238418
0.274974
-0.204791
0.048132
-0.033158
-0.497928
0.298629
-0.164479
0.442616
0.721233
0.050836
-0.349437
-0.131720
0.619375
-0.137414
0.275005
0.184967
-0.545614
0.347148
0.835114
0.574499
0.392860
-0.090092
-0.236764
-0.018012
-0.245187
-0.170516
0.103471
0.326407
0.381610
0.681618
0.624448
1.087039
0.899362
-0.211005
0.292007
-0.489019
-0.042283
0.300411
0.000691
0.335320
-0.546623
-0.595666
-0.277566
-0.728369
0.187735
-0.084479
0.024097
0.308565
-0.347893
0.706673
-0.827126
-0.502509
-0.735909
0.345608
0.610876
-0.081833
0.382798
0.111900
0.033214
-0.254417
-0.144577
-0.339553
0.334075
0.026896
0.087438
0.195985
-0.298839
-0.417957
0.467596
-0.066020
0.028560
-0.297000
-0.484522
-0.118775
-0.051979
-0.162087
-0.153629
0.502585
-0.149476
0.647395
-0.168501
0.681645
0.050986
-0.004390
-0.257408
0.008472
-0.201293
-0.093808
0.560717
-0.003374
0.679129
0.494681
0.495764
0.750390
0.099676
0.297344
0.770229
1.181405
0.414401
-0.342512
0.579589
0.354267
-0.041223
0.203730
0.374890
0.682391
-0.259046
-0.889565
0.735167
0.071456
0.590601
0.592009
0.437255
0.203233
-0.447187
-0.431162
0.611034
-0.040363
0.203697
-0.132408
-0.591556
0.109332
-0.117530
0.385720
0.199134
-0.578734
-0.116730
0.619304
-0.013710
-0.118045
0.291794
-0.738184
-0.276831
0.324996
0.004281
-0.014804
-0.191642
-0.492837
-0.197290
-0.337832
-0.494731
-0.227097
0.247276
-0.229792
-0.117701
0.264842
-0.028870
-0.121159
0.598553
0.323835
-0.641270
0.447943
0.243805
0.028341
-0.066606
-0.407768
0.657915
-0.580853
0.125163
-0.186395
-0.238525
-0.572707
0.174895
0.079999
0.182070
0.151955
0.165473
0.188271
-0.179107
-0.001624
0.454792
0.547141
0.304263
0.277321
0.187715
-0.177692
0.254616
0.282604
-0.040214
-0.121038
0.740809
-0.749554
-0.057514
0.336800
-0.227165
-0.069345
-0.342637
0.034887
0.068412
0.544652
0.346781
-0.013675
-0.315102
-0.004952
-0.453768
-0.183173
0.230644
0.108201
-0.054043
-0.282204
0.116208
-0.221621
-0.248985
-0.213511
0.590474
-0.063679
0.199211
0.351712
0.189158
0.079981
-0.065253
0.762081
-0.245658
-0.303832
-0.296521
0.397171
0.615850
0.024742
-0.130559
0.416545
-0.098995
0.283668
-0.700237
-0.287020
-0.385801
-0.078354
-0.363934
0.570323
0.601271
-0.255036
0.630880
-0.155894
-0.136760
0.164311
-0.067891
-0.055178
-0.032101
-0.053677
0.186758
0.166253
0.295599
-0.123135
0.328691
-0.270395
0.208135
-0.163520
-0.091686
-0.384861
0.194409
0.347757
-0.415962
0.082538
0.157421
0.120293
0.363232
-1.085270
-0.164818
0.042007
0.420433
0.084254
0.846042
0.078118
1.370723
1.255188
-0.220441
0.018849
0.384201
0.441863
-0.417285
-0.588296
-0.586929
-0.379951
-0.012808
0.358844
-0.081255
0.753257
0.341531
0.073711
0.327157
0.019840
0.109437
-0.126907
0.660945
-0.286530
0.446860
0.396301
0.017069
-0.185869
0.234450
-0.294862
-0.103542
0.032235
0.175944
0.383985
-0.310187
-0.262356
-0.003011
0.621520
0.221111
-0.812438
0.148394
-0.521213
-0.487350
0.677979
-0.161527
0.595523
-0.862175
-0.115491
0.500881
0.319549
-0.397537
0.320481
-0.183535
0.520025
0.557660
-0.138844
0.236375
0.357974
0.240052
-0.353174
0.425881
0.206364
0.738144
0.325553
-0.223556
-0.052338
0.049411
1.005638
-0.411828
-0.072926
-0.238363
0.319599
0.172892
0.429245
0.317327
0.462874
0.145634
0.164666
0.064864
0.582097
0.434425
0.001265
0.765029
-0.116915
-0.350054
-0.605180
0.114578
0.106576
-0.492301
-0.212044
-0.845733
-0.010623
0.655620
-0.363067
-1.232669
-0.114746
-0.116856
-0.190334
0.356278
0.044851
0.016005
-0.404220
0.500289
-0.490167
0.275759
-0.087883
0.009342
-0.619775
0.026463
-0.161192
0.521203
-0.045811
-0.089322
-0.259868
-0.275511
-0.309113
0.490506
-0.349192
0.493843
-0.138232
-0.523906
0.301829
0.371076
0.087708
-0.360112
0.266528
0.535744
-0.094775
-0.571529
0.437126
0.831724
0.455593
-0.030863
-0.253011
0.184945
-0.017514
0.117283
-0.194538
-0.451904
0.086482
-0.497229
0.367013
0.361237
0.833905
0.020901
-0.224011
0.195076
-0.074265
-0.302799
0.095334
0.325831
-0.142750
-0.631233
0.324131
-0.243770
-0.122999
-0.494449
0.049917
0.453959
-0.211886
0.295544
-0.149248
-0.059044
-0.084089
-0.391759
-0.292802
-0.455527
0.593837
0.252588
-0.062204
-0.693674
0.458868
-0.090038
0.415306
-0.188753
0.515446
-0.494329
-0.308650
0.145509
-0.677448
0.074849
0.330777
0.285853
-0.244962
0.205243
-0.262221
0.427528
-0.435533
0.285090
-0.204484
0.693831
0.666155
0.071391
-0.088176
-0.669853
0.245982
0.137207
-0.397015
0.177930
-0.173339
-0.250330
-0.092096
0.129090
0.481187
0.186095
-0.295454
0.306277
-0.074046
-0.336828
0.246827
-0.350481
-0.143227
0.196790
-0.307958
-0.286401
0.385118
-0.312276
0.032652
0.222425
0.029841
-0.076371
0.224427
0.800788
0.336072
0.626756
0.056306
0.441352
-0.579893
-0.563855
0.559768
0.323314
0.329687
0.736160
0.435830
0.652505
0.527734
0.494790
-0.052775
0.255674
0.036395
-0.175604
-0.478463
0.103856
-0.036647
0.092588
-0.344126
0.755394
0.512916
0.914257
0.087950
0.362170
0.370621
-0.093143
0.219732
0.202664
-0.187184
-0.374996
0.303571
0.591249
0.463826
-0.048129
-0.434805
0.185770
0.004570
0.187574
0.685019
0.058591
0.030451
0.412371
-0.125062
-0.005930
0.575659
0.516712
0.321291
-0.208377
0.686818
0.808050
-0.048371
0.185237
0.272732
0.669360
-0.129181
0.265993
0.336195
0.691288
0.958001
0.517825
1.213408
0.735421
0.268446
0.224028
0.384357
0.615189
0.579196
0.382172
0.333699
0.473767
0.511244
0.437791
0.054861
0.302341
0.146318
-0.252729
-0.204795
0.031329
-0.038342
0.136877
0.263257
0.011128
-0.333366
0.447780
-0.015536
-0.574860
0.430535
0.254323
-0.131913
-0.195402
0.384531
-0.466934
0.070918
-0.305070
0.311068
0.361884
-0.499168
0.463390
0.339548
-0.550462
0.070037
0.329029
0.022531
-0.077135
0.570099
-0.185616
0.228437
0.319223
0.076087
0.532076
0.306864
-0.300172
-0.459620
-0.712313
-0.651716
0.109275
0.343407
0.362635
0.200163
-0.497850
0.716271
-0.339392
0.406381
-0.490603
-0.717907
-0.108630
-0.362977
0.531768
0.572759
-0.342868
0.075837
0.344834
0.250737
0.182054
-0.102128
-0.809910
-0.299337
0.208126
-0.202288
-0.010336
0.407063
0.529334
0.542681
-1.138471
-1.016832
0.322969
-0.127461
0.090979
-0.216076
0.007206
0.563980
0.698962
-0.410752
0.078007
0.408575
0.510299
0.143487
0.257686
-0.753351
-0.358479
0.356802
0.019865
-0.292843
-0.122117
0.504091
0.074306
0.020642
0.287840
0.857229
-0.088589
-0.012141
-0.266680
-0.178096
0.833143
-0.281400
0.466839
0.259933
0.090984
0.620230
-0.435244
0.157145
-0.129859
0.337511
0.036999
0.348698
-0.398885
0.727011
0.015104
0.125090
-0.179993
0.459558
0.152614
-0.310510
-0.171341
0.248992
-0.059595
0.279500
-0.789357
0.638970
0.118760
0.740969
0.184011
-0.181508
0.491333
0.114588
0.086344
-0.010670
-0.437434
-0.249708
-0.164879
-0.162531
0.548899
-0.453093
-0.298672
-0.815789
0.060391
-0.115838
-0.684521
-0.463987
0.127597
-0.280372
0.574253
0.117662
-0.091877
-0.051955
-0.078853
0.034950
-0.434487
-0.534491
0.128954
-0.038354
0.672866
-0.004597
0.157913
0.344174
0.401317
0.751783
0.893449
0.382737
0.681824
0.293684
-0.101606
0.348100
-0.155583
0.265739
-0.438068
0.041577
-0.065209
0.192575
0.041590
0.075307
0.256087
-0.372380
-0.029763
-0.072126
0.179712
0.497583
0.005040
0.088429
0.856793
0.184353
0.237536
0.488573
0.086885
0.477207
-0.127301
-0.154478
-0.337972
-0.463695
-0.078989
0.121915
0.928485
0.123215
-0.004841
-0.368693
0.360037
-0.186522
0.150945
-0.822267
-0.015363
0.313594
0.664028
0.372273
0.172070
0.071692
0.214972
0.044817
0.306437
-0.044442
-0.350165
0.364152
0.408969
-0.013784
-0.136867
0.415023
0.517165
-0.200135
-0.251954
-0.059126
0.509924
-0.470056
0.525038
0.209294
-0.004449
0.554045
0.286493
0.344049
0.325396
0.252382
0.150075
0.170289
-0.088104
-0.428234
-0.004366
-0.016404
-0.048431
-0.339357
0.125552
-0.233984
-0.118292
-0.090444
0.223460
0.643252
0.123577
-0.121767
-0.523715
-0.136150
-0.263032
0.266298
0.754798
0.094687
-0.333017
0.423154
0.461512
-0.690871
0.680593
0.005033
0.369710
0.299672
-0.572528
0.589106
0.337424
-0.060866
-0.373756
-0.179740
-0.272100
-0.072625
-0.520174
-0.016115
-0.235832
0.029870
-0.155067
-0.138877
0.748817
-0.306777
-0.535255
-0.792206
0.174621
-0.024843
-0.078598
-0.111288
-0.546188
0.246605
-0.002414
-0.169182
0.972387
0.149635
0.149744
0.827762
0.250100
-0.020479
0.118227
-0.985814
-0.248069
0.419646
-0.514856
-0.085626
0.413950
-0.058342
-0.328066
-0.225483
-0.268607
0.005663
-0.464086
-0.107617
0.081242
0.334909
0.576322
-0.268299
0.276210
0.247980
-0.386864
0.262435
0.135974
-0.596681
0.076080
-0.257889
0.183763
-0.202643
-0.491039
0.063344
0.430884
0.032194
-0.879411
0.384639
0.005527
0.099786
0.602476
-0.204847
0.497937
0.550183
-0.347255
-0.560284
-0.231250
0.315818
0.267149
0.454476
0.557465
0.225101
0.151845
-0.051073
-0.075270
0.533511
-0.828792
0.238953
-0.592846
0.225522
0.248231
0.330810
0.105831
0.153342
0.553753
0.098319
0.281218
0.059557
0.140886
-0.429723
0.014860
-0.079621
0.939855
-0.008220
0.001630
-0.007861
-0.498062
0.133972
0.894324
0.454841
-0.171102
-0.347356
0.008058
-0.110395
0.747754
-0.643428
-0.534125
-0.639938
0.198998
-0.242624
-0.492290
-0.065371
0.417473
1.117699
0.195352
0.321552
-0.037773
0.428059
0.075905
0.479922
0.688919
0.638853
0.393899
-0.070784
0.319311
0.249758
-0.479449
0.794091
0.174900
-0.310560
0.479432
-0.411342
-0.137003
0.307374
-0.791759
-0.270091
0.051264
-0.849199
-0.006897
0.262814
-0.060518
-0.155072
0.057751
-0.738502
0.234018
-0.749273
0.595038
0.287055
0.209995
-0.305935
-0.147052
-0.572851
-0.810407
0.367782
-0.460452
0.012798
-0.102275
-0.618010
-0.085225
-0.104657
0.325502
-0.427333
0.235338
0.381162
0.801911
0.109217
0.420664
0.403212
-0.274083
0.794163
-0.204501
0.198594
-0.058099
0.511592
-0.153085
0.222891
-0.511992
-0.465575
0.458148
0.357743
0.364710
0.363370
-0.212594
0.710104
0.288136
0.048956
-0.088803
0.292269
0.173091
0.044129
0.120246
-0.011392
0.227988
-0.422652
-0.085451
0.590169
-0.214056
-0.389587
0.194602
0.202893
-0.035344
-0.194651
0.006782
0.086632
0.238094
0.185025
0.065854
-0.273936
0.063924
0.004149
-0.094433
-0.174566
-0.749548
-0.105560
0.601284
0.888887
0.480314
-0.574503
-0.198128
-0.510779
-0.223083
-0.275007
0.503848
-0.035284
0.398802
-0.453512
0.428479
-0.301897
0.107219
0.245531
-0.080032
0.296061
-0.108257
-0.132444
0.250968
0.593343
0.069566
-0.241644
-0.060888
-0.241327
0.180500
-0.194744
-0.169117
-0.252668
0.267173
0.201893
-0.095667
-0.469478
0.409747
-0.125411
0.724351
-0.079782
0.195775
-0.742342
-0.026677
0.393596
0.041530
-0.210821
-0.466084
0.304770
-0.649295
-0.257503
-0.522017
-0.107615
-0.165316
0.312361
-0.509258
-0.105425
-0.423980
-0.343924
-0.349329
-0.400275
-0.289244
0.299547
0.066432
0.244466
0.380817
-0.582124
0.313117
-0.527153
0.031531
0.311062
-0.547884
0.134795
-0.398343
0.278504
-0.338121
-0.501129
-0.039428
-0.261947
0.487044
0.618744
0.302784
0.278692
0.631106
0.187062
0.128788
-0.312857
-0.788885
-0.430809
0.114194
-0.664571
0.068165
0.126497
0.305568
-0.203979
0.050916
0.253390
-0.210172
0.174129
0.479882
-0.124143
0.293260
-0.309967
-0.160094
0.475016
-0.414417
-0.162600
0.417500
-0.220388
-0.351337
-0.685570
-0.210872
-0.668872
0.687093
0.043978
-0.142114
0.006873
0.454805
-0.076535
0.110225
-0.621191
-0.445838
0.305027
-0.350364
-0.410161
-0.302920
-0.312620
0.032825
-0.641087
0.691610
-0.235607
-0.098304
0.039347
0.107167
0.068916
-0.140125
-0.017686
0.135473
0.538233
0.496815
0.884177
0.175474
0.651208
0.480123
-0.446412
-0.172434
0.449811
-0.677468
-0.075356
-0.385866
-0.349142
0.198885
-0.087079
0.515712
-0.194359
0.390932
-0.342090
0.003524
-0.128516
-0.090754
0.336473
0.072268
-0.027803
0.095878
0.633329
0.054503
-0.003243
-0.448858
0.301959
0.051682
-0.624391
-0.126210
0.176267
0.149201
-0.390284
0.585897
-0.076158
0.275285
-0.257075
0.548421
-0.203766
0.470091
0.298281
0.411720
0.751643
0.536215
0.090044
0.681725
0.541648
0.558080
0.278285
0.495133
0.585311
0.676715
0.757929
0.065564
0.053563
0.965447
0.536207
0.073618
0.341967
-0.223259
1.284951
0.295920
0.258455
-0.171883
0.704675
0.226394
0.580204
0.163597
0.361875
-0.414554
0.494448
-0.066656
0.037657
-0.258025
0.123654
-0.795663
0.324941
0.608766
-0.176667
0.686746
-0.232048
-0.265789
0.090191
0.657270
0.149730
-0.530722
-0.134867
0.144021
-0.101683
-0.203199
-0.213608
-0.160675
0.073400
-0.171515
-0.334428
0.111247
-0.126631
0.200473
-0.391098
-0.251672
0.380062
-0.016717
0.030809
0.441760
-0.382954
0.561992
0.255810
0.026032
0.163147
0.228253
0.400495
0.084187
0.151138
0.227480
-0.236536
0.237734
-0.145998
0.626137
0.074310
0.351866
-0.156715
-0.019906
-0.359993
0.449807
1.106105
0.318597
-0.110815
0.205352
0.287985
-0.162729
-0.170496
-0.606182
0.621783
0.046840
0.033855
0.397262
0.293111
-0.361546
-0.352881
0.368437
-0.253727
0.180166
-0.172049
0.393357
-0.096728
0.143826
0.028670
0.304675
-0.363367
-0.520277
-0.363660
0.276190
0.120485
0.252220
0.131604
-0.473979
-0.161967
-0.014602
0.097990
0.367264
0.153927
-0.171045
0.068958
0.688774
0.796436
0.312501
0.392073
0.212969
0.481508
-0.206447
0.124481
-0.111672
-0.827783
-0.012677
0.056438
0.143791
-0.216318
0.026812
0.593218
0.120262
-0.340760
0.398103
0.354776
-0.141525
0.321256
0.638072
-0.201114
0.405585
-0.438300
0.492163
0.566698
-0.524410
0.623623
-0.655025
-0.737414
-0.148261
-0.247559
-0.242430
-0.771114
0.508673
-0.581193
-0.039006
0.237144
0.501854
-0.230446
0.743146
0.362283
-0.323473
-0.032349
-0.481263
-0.080894
0.469633
0.118099
0.227568
-0.274350
0.142390
0.172976
-0.613405
0.490062
-0.386089
-0.114269
-0.196038
-0.026374
-0.971699
-0.032278
0.056678
1.035398
0.167724
0.946329
0.299136
0.665202
0.945921
0.510269
0.303093
0.349111
0.025012
-0.777109
-0.144987
-0.604373
0.296828
0.448745
-0.301443
0.364854
0.639896
0.471081
0.099608
0.743940
-0.221891
0.077290
0.609610
0.141782
-0.356711
0.237649
-0.262591
0.234765
0.173849
0.022503
0.442182
-0.092880
-0.341570
-0.272999
-0.412553
-0.028065
-0.214823
-0.319245
-0.600079
0.152712
0.085814
-0.343904
-0.350195
-0.318141
0.433572
0.533147
0.409818
0.990871
0.428916
-0.381206
-0.025640
-0.259232
1.117280
0.409893
0.420499
0.020308
0.100676
-0.082275
0.334474
0.121326
0.397200
0.896307
-0.187147
0.283312
-0.041840
-0.555491
0.415938
-0.297149
0.554577
-0.210108
0.807226
0.524845
0.419264
0.791758
0.087828
0.184797
0.665043
0.566505
0.680874
0.551858
0.088104
0.096463
0.034994
0.271813
-0.244037
-0.133502
0.604319
0.325186
-0.329172
0.275810
0.072660
0.175836
0.182847
0.362277
-0.285688
0.243674
0.269855
0.513869
-0.186046
-0.335382
1.084099
0.236134
0.440760
0.465762
0.261660
-0.035381
-0.712141
0.222559
0.328501
-0.025472
0.205793
-0.109271
-0.089975
-0.425170
0.581668
0.368189
0.608871
0.678631
0.188648
-0.974189
-0.225034
-0.190044
0.925810
0.075258
-0.446358
0.671068
0.245908
0.241213
-0.277100
-0.068781
0.218387
0.382566
1.110064
0.050545
0.181713
-0.697787
-0.483271
0.361826
-0.075517
0.437696
-0.259748
0.302009
-0.233330
0.461834
-0.614174
0.068125
-0.096755
0.570486
-0.484965
-0.324379
-0.014320
0.466694
0.018410
-0.175695
0.501385
-0.274473
-0.244306
-0.204020
-0.205141
-0.485492
0.052482
-0.262886
-0.610685
-0.261051
-0.250032
0.785086
0.526335
-0.176573
0.007725
0.183546
0.162073
0.542483
-0.227117
0.042026
0.395417
0.070557
0.224152
0.149124
-0.612783
-0.316333
-0.041560
-0.123231
0.169269
0.095299
0.084900
0.783722
0.171356
0.140131
0.413465
0.036871
0.038566
0.170581
-0.317785
0.238767
-0.237155
-0.112444
1.182225
-0.639662
0.291299
-0.469377
0.038129
-0.352841
0.060072
0.310109
-0.164844
0.021187
0.051703
0.160196
-0.760756
0.112890
0.095712
-0.034752
-0.325694
-0.098100
0.293884
0.068110
-0.024101
0.349070
-0.350086
-0.914220
0.490847
0.371615
-0.113179
0.218257
-0.068490
-0.378172
-0.357523
0.616962
0.269145
0.163821
0.485361
1.150015
-0.273118
0.797140
0.173864
0.176809
-0.010512
0.239628
-0.200274
-0.077005
-0.205563
-0.137980
-0.792095
-0.230719
0.207710
-0.689868
-0.137811
0.329513
0.516087
-0.602061
0.013709
0.200557
0.567473
-0.690647
0.346178
-0.105093
0.206321
-0.396229
-0.583049
0.096253
-0.268609
-0.090933
0.364480
0.219358
0.690537
0.310493
0.570118
0.486732
-0.319593
0.252691
-0.931999
0.087226
0.360304
-0.228142
-0.795356
0.224815
-0.506372
0.172467
0.359171
0.411088
0.434384
-0.309130
0.036569
-0.123462
0.784763
0.886663
-0.553950
0.414742
0.024238
1.096540
0.656175
0.234562
-0.006769
0.097916
0.198569
0.278276
0.189312
0.092162
0.413862
-0.294759
0.091361
0.423152
0.179783
0.208382
0.664552
-0.528193
-0.031951
0.553363
0.080434
0.266874
0.223229
-0.079161
-0.021392
0.502325
0.067368
0.524723
0.732192
0.392848
-0.063251
0.813784
-0.397010
0.111213
-0.232478
-0.415544
0.123120
-0.369370
-0.356114
0.475707
-0.069467
-0.175782
0.422878
-0.213022
-0.027361
-0.018871
-0.179564
-0.335231
0.261035
0.002511
-0.544021
0.122721
-0.204947
-0.001894
-0.171404
0.370554
-0.240030
-0.071621
0.061275
-0.176944
-0.141272
0.644990
-0.344486
0.721565
0.331504
-0.152584
0.301562
0.546528
-0.338303
-0.318197
0.370643
0.032441
-0.320490
-0.460323
-0.853101
-0.106976
-0.760715
-0.367434
0.095643
0.050218
0.040718
0.069223
0.278074
-0.336940
-0.212321
-0.266337
-0.595939
-0.186257
-0.337434
0.307920
-0.035492
-0.178849
0.013115
1.005015
0.288053
0.014847
0.396284
0.437154
0.272914
-0.009325
0.026248
0.159008
-0.070564
0.146580
-0.206563
-0.615194
0.572944
0.358941
0.104194
0.346787
0.340837
-0.408968
-0.448494
0.031348
-0.135350
-0.297798
0.039161
0.422588
0.323443
-0.089695
-0.089451
0.846959
0.609378
0.473675
-0.013068
-0.468136
0.478931
0.657149
0.079096
-0.614725
-0.073491
0.733622
0.320199
0.526751
0.035731
-0.212642
-0.247466
0.148850
0.138381
0.042247
-0.321509
0.715474
-0.328528
-0.597814
-0.386276
-0.199367
-0.293832
-0.256272
-0.114624
-0.173239
-0.261333
-0.332390
-0.503562
-0.534691
0.347361
0.020091
0.355923
0.984399
-0.446364
0.054879
0.012692
-0.110008
0.081129
-0.302823
0.491472
-0.604460
0.253272
-0.384966
0.219679
0.266848
0.227395
0.177718
0.583100
0.001688
0.371815
0.699723
1.500000
0.962631
0.293549
0.562812
0.749279
-0.037376
-0.471416
-0.166888
0.076778
0.430217
0.033404
0.645950
0.047943
0.009486
-0.216229
0.173793
-0.190679
-0.251258
0.018982
0.201671
0.146874
0.217066
-0.260120
0.010058
0.052049
-0.183766
0.002875
-0.079498
0.543686
-0.516657
0.040801
-0.295809
0.047027
0.051347
-0.187813
0.770043
-0.120965
-0.010895
-0.138776
0.480419
0.049254
0.154491
0.715514
0.334667
0.366208
0.250291
0.582776
0.465845
0.150388
0.570492
-0.124498
0.465647
0.140765
0.453431
0.874984
0.793617
0.424095
-0.189456
0.600374
-0.410609
0.567547
-0.034496
-0.194204
0.680684
0.101938
0.052124
-0.262207
-0.068012
0.297691
-0.021688
-0.018001
0.639461
-0.503497
0.204635
-0.073726
-0.107908
0.155190
0.747866
-0.382711
0.170405
-0.325421
-0.326985
0.015323
-0.383136
0.533233
-0.295920
0.042836
0.013599
0.647545
0.177377
-0.186674
-0.563868
0.035595
-0.023075
-0.573536
-0.450951
-0.485846
0.278545
0.514749
-0.139840
0.162737
-0.013357
-0.169730
-0.095138
1.021557
-0.266015
-0.029048
-0.466509
0.414708
0.266197
-0.506724
-0.353285
0.647304
-0.056519
0.248934
-0.274130
0.397109
0.527128
0.862135
0.552695
0.108425
-0.846320
-0.485024
-0.181769
-0.158768
0.528174
0.398157
-0.196489
-0.001986
0.006911
0.831152
-0.111308
0.205732
0.055505
0.609970
-0.079879
0.059168
0.645541
-0.222509
0.878089
0.078989
0.460115
-0.317149
0.103227
0.167630
-0.184842
0.403878
-0.289832
0.058575
-0.693490
-0.055968
0.420668
-0.188841
0.151316
-0.045963
-0.274328
-0.126967
0.251221
-0.171964
0.297159
-0.081115
0.581363
-0.289795
0.290933
-0.253544
-0.060455
-0.066320
0.096003
0.320967
0.110850
-0.339789
-0.005769
-0.311227
-0.020100
-0.902693
0.035272
-0.225054
0.018209
0.255560
0.700528
-0.728162
-0.176570
-0.196886
0.076015
0.320294
0.587166
-0.514321
-0.926512
0.399054
-0.188188
-0.019848
0.198333
-0.309725
0.167491
0.314893
0.006311
0.499703
0.591611
0.072918
0.410575
-0.061451
0.115630
0.674367
0.507289
-0.021853
-0.361267
0.471127
0.010433
-0.316134
0.218733
0.166951
0.198617
-0.213879
-0.062185
-0.108025
-0.790998
-0.066771
-0.503042
-0.060693
-0.004019
-0.674677
0.419093
-0.376664
-0.213528
0.066027
-0.480831
0.235556
0.481328
0.473453
0.828122
0.272194
1.127897
0.713150
0.275216
-0.197656
-0.037349
0.048740
0.436972
-0.063375
0.424521
-0.406380
-0.230968
0.093178
-0.166031
-0.252114
0.101455
-0.214194
-0.530951
-0.209530
-0.086290
-0.120709
0.249855
0.580936
-0.249033
0.049867
0.028940
0.024292
0.416184
0.520236
-0.011095
0.381215
0.012006
0.294477
-0.030719
-0.338263
0.031900
-0.372155
0.155062
0.258642
-0.147866
0.522539
0.018339
0.527609
-0.092562
0.608174
0.066421
0.817008
0.299364
-0.143798
0.061076
0.282027
0.056276
1.221953
0.495100
0.415530
0.296911
0.327091
0.744712
0.432415
0.229292
0.230185
0.299551
0.502703
0.037926
-0.137137
-0.038060
1.110772
0.884406
0.810320
0.664951
0.242442
0.171827
0.076553
1.257861
0.092745
-0.402757
0.344175
0.319644
-0.449472
-0.440865
0.139931
-0.366610
0.333996
0.303478
0.624962
-0.333645
-0.060524
-0.862113
0.309943
0.485276
0.064072
0.370933
0.495171
0.364984
0.054147
0.188378
0.261382
0.338012
0.085433
-0.087020
