-0.030273
-0.050609
0.046475
0.002552
-0.013639
-0.001660
0.003911
-0.027759
-0.041078
0.054304
-0.006932
0.018054
0.046455
0.032760
0.004705
0.039863
0.021816
-0.013235
0.043726
0.122161
0.043130
0.085057
0.042803
0.025401
0.105913
-0.038780
0.023668
0.100052
0.053715
0.053917
0.129302
0.066227
0.154837
0.151272
0.102080
0.179077
0.101747
0.170306
0.197742
0.178060
0.196851
0.188887
0.137941
0.177736
0.208823
0.247619
0.199643
0.148290
0.110234
0.198007
0.178854
0.177094
0.161317
0.045934
0.144967
0.142727
0.110599
0.075764
0.143743
0.097741
-0.001971
0.074093
0.037371
0.119817
0.052527
0.062232
0.021664
0.052075
0.050339
-0.026732
0.125375
0.031994
0.096292
0.114776
-0.000452
-0.007874
0.092241
0.302001
0.386614
0.681960
1.068517
1.249480
1.462754
1.432403
1.218735
0.851834
0.433001
0.096446
-0.001181
-0.191953
-0.165918
-0.162533
-0.068068
-0.051333
0.025326
0.087002
0.074150
0.077266
0.106189
0.072384
0.082301
0.060748
0.230945
0.172612
0.086657
0.169908
0.160647
0.157463
0.198923
0.279218
0.230606
0.245609
0.268973
0.226570
0.294783
0.323998
0.303418
0.331930
0.371754
0.339749
0.400313
0.409531
0.441373
0.441295
0.428118
0.494399
0.543061
0.538190
0.519701
0.603307
0.558653
0.599876
0.637004
0.622741
0.629296
0.532121
0.529912
0.573381
0.659781
0.597757
0.535978
0.586146
0.552655
0.454558
0.409027
0.493208
0.498354
0.403679
0.425430
0.426267
0.323672
0.316790
0.304013
0.312831
0.245946
0.339583
0.298282
0.202346
0.222052
0.221656
0.169687
0.168582
0.102461
0.234716
0.139628
0.133466
0.146063
0.168828
0.148850
0.183789
0.193143
0.121822
0.100534
0.086319
0.052448
0.016215
0.079807
0.132438
0.129007
0.104507
0.098716
0.059314
0.147790
0.092344
-0.009605
0.061865
0.105213
0.099015
0.103484
0.148514
0.070781
0.070974
0.188580
0.096682
0.074685
0.085583
0.074143
0.111793
0.127522
0.042998
0.068346
0.093722
0.081115
0.072008
0.050083
0.066979
0.110371
0.054556
0.049661
0.106755
0.045435
0.061697
0.056833
0.044261
0.128905
0.095701
0.025521
0.053082
0.023695
0.086875
0.116371
0.138031
0.043181
0.160561
0.099215
0.086431
0.148218
0.069583
0.103125
0.205724
0.152444
0.138193
0.124446
0.143201
0.178664
0.192503
0.219418
0.207191
0.203757
0.203972
0.262709
0.254231
0.252936
0.176012
0.234818
0.277324
0.199325
0.299205
0.195636
0.229176
0.315811
0.273628
0.188873
0.287392
0.298166
0.170920
0.234129
0.171813
0.131852
0.159697
0.146480
0.157861
0.085745
0.172802
0.107654
0.128759
0.093247
0.062060
0.134266
0.151036
0.076041
0.029334
0.106457
0.170734
0.116696
0.044502
0.098063
0.071967
0.188592
0.027778
0.075331
0.090040
0.035319
0.292672
0.519776
0.832585
1.222179
1.422620
1.413636
1.353360
1.040302
0.701116
0.326640
0.043219
-0.124848
-0.247171
-0.121270
-0.083711
-0.022295
0.067024
0.044910
0.050587
0.069817
0.044310
0.135211
0.089290
0.092989
0.150970
0.102420
0.221587
0.086174
0.204993
0.120443
0.197073
0.145757
0.247203
0.279636
0.251433
0.227707
0.237628
0.299291
0.273261
0.325089
0.348342
0.324936
0.406635
0.413509
0.381234
0.483198
0.432784
0.506289
0.493231
0.462729
0.569156
0.589553
0.546753
0.648559
0.595765
0.580351
0.593441
0.565162
0.498649
0.622212
0.580036
0.521697
0.532646
0.524977
0.514017
0.453124
0.465010
0.407926
0.419563
0.350799
0.373235
0.469656
0.315279
0.395937
0.270052
0.215550
0.257483
0.210123
0.129367
0.190342
0.133572
0.153033
0.094185
0.092563
0.146814
0.105695
0.129538
0.028726
0.026724
-0.036824
0.048583
0.061417
0.076932
0.094246
-0.012657
0.105775
-0.030668
-0.028301
0.037445
0.062579
0.036871
0.069541
0.020377
0.001885
0.054429
-0.071894
-0.046071
0.003706
-0.019735
0.029165
-0.008225
-0.032562
-0.028425
0.074989
0.128720
0.013688
0.036913
-0.067196
-0.013204
0.009471
0.088586
-0.005861
0.038521
-0.022377
0.089946
-0.067482
0.005247
-0.019905
0.076516
-0.001976
0.064847
-0.046666
0.070140
-0.071440
-0.065615
-0.034660
-0.056071
-0.107097
0.019385
0.010457
-0.019120
-0.051401
-0.029267
0.003126
-0.063433
0.070000
0.020846
-0.010202
0.023052
-0.002435
0.081137
0.005796
-0.008312
0.031805
0.003435
-0.000427
-0.030471
0.142747
-0.015843
0.068773
0.099922
0.129204
0.098295
0.178788
0.159162
0.156864
0.145938
0.190747
0.211567
0.133868
0.142378
0.161002
0.119288
0.186456
0.136890
0.156781
0.146900
0.107070
0.104551
0.134070
0.107788
0.050411
0.055842
0.035570
-0.067177
0.046931
-0.067655
0.019059
-0.071746
-0.034924
0.012030
-0.042231
-0.008701
-0.022484
-0.011262
-0.015551
-0.056495
-0.021217
0.028523
-0.054018
0.010974
-0.028974
-0.035116
-0.079311
0.016402
0.066060
0.325189
0.677428
0.954586
1.187578
1.223685
1.283478
1.151643
0.803905
0.354243
0.059069
-0.207299
-0.279741
-0.259255
-0.134237
-0.096458
-0.105511
-0.021865
-0.013201
0.013686
-0.037056
0.019497
-0.018277
-0.012187
0.048061
0.046975
0.007429
0.010478
0.057920
0.083108
0.117592
0.129628
0.075879
0.188388
0.158534
0.139992
0.205637
0.193864
0.127732
0.197730
0.251642
0.316711
0.328775
0.285266
0.318563
0.459654
0.421522
0.428913
0.465215
0.454918
0.418638
0.461925
0.525802
0.475329
0.467687
0.447994
0.503899
0.549395
0.414083
0.479136
0.431399
0.441988
0.431382
0.343902
0.403045
0.363836
0.410550
0.364645
0.384778
0.350171
0.306129
0.268896
0.245197
0.172958
0.228653
0.159122
0.104876
0.112321
0.119049
0.130187
0.071313
0.129835
0.062300
0.120239
0.074944
0.033201
-0.018764
0.069245
0.095860
0.058477
-0.009789
0.014697
0.055728
-0.155395
-0.009208
-0.043929
-0.019380
-0.099898
-0.135179
-0.002108
-0.003798
-0.069795
-0.000476
-0.089634
-0.103009
-0.037801
0.014578
-0.023949
-0.046627
-0.164242
0.010613
0.029003
0.031343
-0.028061
-0.007585
-0.061395
-0.048255
-0.054940
-0.089912
0.013086
0.024541
-0.065620
0.048109
-0.040898
-0.034016
-0.024939
-0.059795
-0.078668
0.032639
-0.046287
-0.026357
-0.063200
-0.076781
-0.099385
-0.051808
0.054532
-0.042831
-0.013720
-0.005646
-0.083862
-0.022207
-0.062567
-0.107862
-0.045916
-0.075675
-0.046202
-0.055955
-0.070937
-0.067650
-0.048153
-0.107271
-0.039846
-0.006875
0.009078
0.036696
0.050900
0.061908
0.005585
0.119118
0.081908
0.027692
0.093296
0.093395
0.110698
0.156662
0.123090
0.174926
0.128447
0.090954
0.217516
0.105127
0.139170
0.165963
0.177303
0.095268
0.065853
0.150362
0.195208
0.139541
0.174717
0.163774
0.154734
0.035989
-0.005357
0.028020
0.061205
0.003680
0.050863
0.078284
0.020916
0.109915
0.025897
-0.017154
0.038194
-0.016031
-0.080657
0.022554
0.023046
-0.048300
0.013543
0.027450
0.002489
-0.051015
-0.015151
-0.075368
0.082199
0.212237
0.520738
0.801995
1.089979
1.353639
1.384378
1.260039
0.952591
0.637245
0.215617
-0.097999
-0.264977
-0.245643
-0.226137
-0.151173
-0.103881
-0.013332
0.030956
-0.031449
0.055019
-0.009316
0.102298
0.065873
0.053683
0.056751
0.132007
0.067401
0.073598
0.122461
0.145298
0.128559
0.152382
0.213688
0.113421
0.243693
0.269248
0.204196
0.181556
0.334480
0.345892
0.297145
0.353430
0.318021
0.340350
0.395359
0.399833
0.370842
0.498858
0.384373
0.475127
0.517732
0.459617
0.587802
0.515503
0.537064
0.533275
0.517715
0.519408
0.537609
0.530089
0.573568
0.541293
0.516744
0.484374
0.412683
0.419412
0.405117
0.484946
0.361778
0.335229
0.393110
0.218958
0.317204
0.407461
0.293880
0.349594
0.164743
0.286156
0.212375
0.178792
0.202657
0.164226
0.223512
0.118492
0.083735
0.141995
0.159391
0.081008
0.105029
0.108032
0.067304
0.048665
0.093069
0.130079
-0.032105
0.032413
0.060164
0.073613
0.025565
0.044176
0.068306
0.054841
0.066435
-0.044519
0.049077
0.037407
0.027069
0.092719
0.098741
0.070260
-0.007667
0.064750
0.013004
0.062864
0.096462
0.066394
0.033115
0.088952
0.058461
0.078035
0.077652
0.071637
0.045263
0.088455
0.078309
0.032703
0.159178
0.106139
0.106504
0.036509
0.079292
0.076677
0.073992
0.106894
0.084644
0.078272
-0.000102
0.047978
0.090234
0.121118
0.059932
0.056475
0.178810
0.070641
0.153593
-0.026465
0.101887
0.183493
0.142743
0.106101
0.045447
0.062177
0.181543
0.139768
0.119693
0.183029
0.179206
0.172448
0.129569
0.190338
0.242865
0.176394
0.263123
0.263230
0.261893
0.196635
0.353265
0.270259
0.190814
0.229624
0.288146
0.285125
0.242812
0.175542
0.256209
0.260157
0.216662
0.265068
0.196698
0.233302
0.198920
0.116722
0.243330
0.160553
0.213632
0.189805
0.210519
0.173976
0.172689
0.157206
0.167523
0.070883
0.073391
0.139693
0.105874
0.136181
0.037898
0.159545
0.009000
0.056859
0.085246
0.076255
-0.006932
0.060456
0.111797
0.136292
0.428400
0.657578
1.101632
1.342207
1.500000
1.439297
1.185858
0.797662
0.527787
0.094726
-0.110035
-0.155860
-0.245956
-0.095527
0.022343
0.088895
0.051676
0.102125
0.094758
0.116423
0.137722
0.104023
0.129058
0.120177
0.147919
0.158236
0.084159
0.228817
0.243433
0.213895
0.203240
0.290498
0.233640
0.287694
0.294397
0.351769
0.297067
0.320408
0.421573
0.355306
0.385644
0.383557
0.483805
0.438949
0.448071
0.530168
0.521133
0.510005
0.504950
0.513622
0.610212
0.663252
0.608331
0.607746
0.673435
0.553361
0.671254
0.567113
0.611337
0.600983
0.639185
0.535722
0.546655
0.585532
0.531936
0.500027
0.449200
0.465483
0.536354
0.472801
0.437359
0.434132
0.324230
0.403154
0.400842
0.311857
0.316986
0.256587
0.286359
0.265778
0.132565
0.212883
0.211456
0.160690
0.140504
0.182025
0.087342
0.150263
0.082666
0.159544
0.104677
0.149398
0.134845
0.108286
0.096370
0.072551
0.107723
0.154870
0.163238
0.120880
0.094745
0.051170
0.101413
0.114847
0.081717
0.156138
0.070829
0.105322
0.128308
0.028745
0.027048
0.068013
0.075984
0.058691
0.036138
0.119826
0.077326
0.156227
0.115436
0.051542
0.175556
0.082989
0.089525
0.091513
-0.003648
0.127168
0.124363
0.134678
0.108907
0.065878
0.138075
0.108437
0.039195
0.079327
0.015623
0.112311
0.057563
0.043311
0.092255
0.020868
0.076685
0.081549
0.145221
0.044019
0.138079
0.133925
0.022207
0.130182
0.112226
0.112946
0.109891
0.151062
0.075665
0.161748
0.121922
0.129521
0.220190
0.167437
0.128459
0.166811
0.113439
0.224190
0.253285
0.225528
0.242264
0.272820
0.217059
0.267675
0.141162
0.300112
0.198581
0.260173
0.135123
0.188705
0.210877
0.128097
0.088177
0.226281
0.193426
0.118893
0.147598
0.075995
0.086286
0.027943
0.090205
0.110127
0.065922
0.069015
0.069552
0.035677
0.075531
0.035964
0.041978
0.046728
0.034477
0.058808
-0.018589
0.069186
0.054967
0.019315
-0.036335
0.003929
0.071103
0.091653
0.159290
0.252275
0.613975
0.854841
1.097573
1.358305
1.385554
1.329442
0.985539
0.666998
0.250305
-0.000707
-0.101677
-0.270932
-0.197050
-0.164491
-0.084157
-0.093276
0.040125
0.035132
0.058110
0.061542
0.048174
0.073533
0.055340
0.012777
0.106197
0.133718
0.130422
0.035311
0.092236
0.165405
0.087287
0.186287
0.182959
0.141065
0.231996
0.177194
0.202221
0.243409
0.253811
0.356043
0.350682
0.266885
0.430246
0.409252
0.306963
0.384712
0.427660
0.425321
0.454581
0.486595
0.413903
0.416855
0.580446
0.558181
0.502066
0.494836
0.487297
0.497182
0.518379
0.461798
0.460216
0.423399
0.562986
0.387194
0.415904
0.383221
0.397764
0.394199
0.328988
0.317542
0.357819
0.307244
0.322009
0.178261
0.157539
0.129889
0.173840
0.130502
0.076809
0.123621
0.145138
0.072111
0.055363
0.081019
0.080239
0.039498
0.014530
0.052610
0.056488
-0.028942
-0.003556
0.005658
-0.027805
-0.063934
-0.027583
0.008475
-0.023930
-0.083216
0.010923
0.027635
-0.024449
-0.052879
-0.090232
-0.035684
-0.070823
0.026431
-0.125981
0.059897
-0.081028
-0.019515
0.022513
-0.087270
-0.079594
-0.033043
-0.059651
0.012041
-0.092990
-0.004632
-0.002060
-0.024719
-0.018659
-0.122505
-0.028616
-0.027656
-0.005337
0.019796
-0.082011
-0.050503
-0.068730
-0.073135
-0.073076
-0.018535
-0.073218
-0.060259
-0.037384
-0.018923
-0.057599
-0.074668
-0.043254
-0.109271
-0.024034
-0.064336
-0.111498
-0.109369
-0.064916
-0.081449
-0.069353
-0.029631
-0.111068
-0.094598
0.051868
-0.008631
0.017303
0.060516
-0.010213
-0.016183
0.015520
0.088873
0.051140
0.022924
0.090719
0.023597
0.008287
0.140661
0.128468
0.000000
0.000000
0.000000
0.000000
0.000000
0.000000
0.000000
0.000000
0.000000
0.000000
0.000000
0.000000
0.000000
0.000000
0.000000
0.000000
0.000000
0.000000
0.000000
0.000000
0.000000
0.000000
0.000000
0.000000
0.000000
0.000000
0.000000
0.000000
0.000000
0.000000
0.000000
0.000000
0.000000
0.000000
0.000000
0.000000
0.000000
0.000000
0.000000
0.000000
0.000000
0.000000
0.000000
0.000000
0.000000
0.000000
0.000000
0.000000
0.000000
0.000000
0.000000
0.000000
0.000000
0.000000
0.000000
0.000000
0.000000
0.000000
0.000000
0.000000
0.000000
0.000000
0.000000
0.000000
0.000000
0.000000
0.000000
0.000000
0.000000
0.000000
0.000000
0.000000
0.000000
0.000000
0.000000
0.000000
0.000000
0.000000
0.000000
0.000000
0.000000
0.000000
0.000000
0.000000
0.000000
0.000000
0.000000
0.000000
0.000000
0.000000
0.000000
0.000000
0.000000
0.000000
0.000000
0.000000
0.000000
0.000000
0.000000
0.000000
0.000000
0.000000
0.000000
0.000000
0.000000
0.000000
0.000000
0.000000
0.000000
0.000000
0.000000
0.000000
0.000000
0.000000
0.000000
0.000000
0.000000
0.000000
0.000000
0.000000
0.000000
0.000000
0.000000
0.000000
0.000000
0.000000
0.000000
0.000000
0.000000
0.000000
-0.022988
-0.012372
-0.028027
-0.092585
-0.022262
0.013097
-0.088925
-0.122542
-0.017179
-0.033559
-0.025556
-0.022993
-0.027850
-0.055659
-0.071892
-0.036297
-0.109668
-0.063008
-0.131611
-0.054637
-0.027892
-0.105115
-0.017294
-0.127301
-0.047412
0.021169
-0.039925
-0.070720
-0.028929
-0.073821
-0.112362
-0.100983
-0.124367
-0.048160
-0.070710
-0.083267
-0.046916
0.016191
-0.116849
-0.079553
0.043740
-0.091189
-0.023857
-0.095370
-0.037519
-0.082663
-0.027514
-0.082668
-0.096667
-0.061701
-0.077054
-0.008226
-0.051999
-0.105492
-0.078928
-0.051244
0.016016
-0.005610
0.049073
-0.058150
0.059824
-0.088818
0.061745
-0.002408
0.019138
0.093873
0.005621
0.043867
-0.010781
0.020861
0.121988
0.080123
0.144042
0.138868
0.104032
0.080824
0.167885
0.096613
0.153275
0.156929
0.135164
0.090672
0.123781
0.077308
0.165597
0.070991
0.150563
0.066991
0.081928
0.061069
0.045913
0.146646
0.063438
-0.043590
0.048624
0.063802
0.043394
-0.024434
0.006648
-0.000415
-0.063953
-0.044162
-0.042753
-0.071144
-0.026399
0.028154
0.015002
0.011167
-0.023728
-0.075505
-0.078023
-0.040344
0.037076
-0.034309
0.081138
0.161958
0.525849
0.829748
1.109442
1.276981
1.386317
1.184724
0.836400
0.582277
0.204619
-0.101287
-0.092347
-0.321012
-0.215547
-0.202105
-0.108284
-0.060751
-0.020756
-0.000927
0.039560
0.080573
0.044347
-0.022601
0.113978
0.101372
0.063498
0.093465
0.063615
0.060919
0.094793
0.164645
0.079039
0.159169
0.133693
0.168071
0.303831
0.146631
0.277271
0.192922
0.221171
0.237688
0.387586
0.270118
0.349357
0.397523
0.434575
0.435839
0.382145
0.368241
0.527328
0.493987
0.548081
0.463117
0.564523
0.571126
0.446676
0.495756
0.579234
0.514512
0.513193
0.550871
0.479409
0.520834
0.455831
0.534338
0.436139
0.331253
0.362065
0.342598
0.397556
0.453676
0.285951
0.303676
0.255819
0.281845
0.278587
0.174443
0.221564
0.239558
0.196937
0.209449
0.203362
0.227151
0.120497
0.059264
0.100169
0.058679
0.078272
0.110593
0.015409
0.063392
0.131722
0.129426
0.115427
-0.004558
0.106365
-0.004799
0.033966
0.119602
0.161589
0.039443
-0.008481
0.022584
0.109238
0.067685
-0.029103
0.043534
0.034552
0.104737
0.040678
-0.001350
0.073023
0.073584
0.144122
0.028051
0.043724
0.032595
-0.008247
0.002760
0.077835
-0.029116
-0.013161
0.039869
-0.010773
0.041065
-0.042684
0.061018
0.088462
0.030023
0.009655
0.033918
0.034564
-0.023647
0.036357
0.027521
0.054814
0.067141
0.073388
0.006847
0.037203
0.080547
0.057898
0.063126
0.026638
0.036561
0.025810
0.083146
0.092131
0.121160
0.068335
0.061901
0.097627
0.152596
0.070314
0.134421
0.119077
0.172847
0.082965
0.086993
0.121931
0.159758
0.103350
0.155105
0.203640
0.199874
0.162847
0.233129
0.264159
0.163354
0.240830
0.269231
0.183480
0.148143
0.214638
0.297967
0.217159
0.163605
0.134588
0.095856
0.201219
0.194511
0.148819
0.094790
0.086592
0.089510
0.088237
0.105651
0.114928
0.048355
0.018100
0.136152
0.109857
0.061877
0.050867
0.028775
0.102899
-0.000216
0.117751
0.061648
0.048803
0.083049
-0.072063
0.052199
0.047340
0.116943
0.262753
0.480902
0.763214
0.994090
1.348955
1.442539
1.395366
1.157177
0.828274
0.409502
0.082004
-0.156254
-0.222716
-0.193326
-0.158988
0.005617
-0.021998
0.025799
0.045090
0.107248
0.046561
0.117822
0.097558
-0.003197
0.138339
0.123301
0.143273
0.179087
0.155307
0.183447
0.173910
0.131699
0.207583
0.192545
0.222095
0.262729
0.261135
0.178124
0.241223
0.280674
0.321554
0.314853
0.331750
0.387606
0.472195
0.407802
0.440145
0.421835
0.375327
0.479615
0.597596
0.513257
0.473006
0.532747
0.492825
0.600961
0.540593
0.570903
0.534189
0.491388
0.464393
0.569237
0.490846
0.506095
0.513276
0.496691
0.494687
0.423163
0.346993
0.365052
0.405997
0.354598
0.330256
0.343317
0.303408
0.246828
0.285310
0.245839
0.232916
0.228336
0.213832
0.049344
0.081707
0.163527
0.205815
0.091156
0.110514
0.053693
0.048881
0.089357
0.096148
-0.004101
-0.038410
0.021954
0.008217
0.026589
0.046898
-0.016492
-0.037930
0.057926
-0.029010
0.066577
0.007566
0.023413
-0.016045
0.047133
-0.032930
-0.034465
0.041508
-0.027809
-0.007153
-0.007471
-0.060641
-0.118095
0.036691
-0.005030
0.058902
0.007761
0.091964
0.025921
0.051055
-0.016544
0.013535
0.053595
0.022950
0.032276
-0.024378
-0.005880
-0.068607
0.042896
-0.054893
-0.079569
0.000698
-0.012440
-0.079151
0.014305
0.009020
0.020053
-0.078367
-0.080574
-0.029409
-0.039951
-0.008562
-0.001822
-0.022488
-0.047702
-0.026633
0.023183
0.075382
0.076962
0.013751
0.068011
0.003907
0.012831
-0.002654
0.044734
0.007070
0.015970
0.050670
0.097254
0.039248
0.164304
0.103859
-0.027820
0.063033
0.089634
0.146529
0.131894
0.233233
0.152459
0.121868
0.077653
0.086455
0.132828
0.126345
0.106088
0.025043
0.073991
0.109613
0.025971
0.026522
0.105611
-0.009990
0.078287
0.035934
0.000739
0.057659
-0.004842
-0.004410
-0.077276
-0.000281
0.009616
-0.078725
-0.018258
-0.036136
-0.025536
-0.080308
-0.131220
-0.035586
0.034520
-0.050984
-0.072952
-0.115157
-0.042528
-0.062662
-0.030746
0.251972
0.505057
0.785440
1.153114
1.255952
1.329461
1.163358
0.877562
0.452121
0.150320
-0.110066
-0.272823
-0.291062
-0.252897
-0.116231
-0.096344
-0.093895
-0.093542
-0.129549
-0.052660
-0.030698
0.011633
0.010346
-0.014498
0.031224
-0.018071
0.006372
-0.000189
0.034405
0.048286
0.022570
0.125651
0.050584
0.102166
0.155217
0.098574
0.172428
0.212983
0.167740
0.207844
0.212875
0.234269
0.243795
0.274682
0.330949
0.327129
0.374522
0.345464
0.413968
0.434636
0.399007
0.428746
0.366121
0.392154
0.479718
0.425657
0.486156
0.409634
0.421359
0.443965
0.432980
0.287808
0.320746
0.403131
0.414858
0.279037
0.313602
0.356056
0.251005
0.269582
0.259728
0.257856
0.220467
0.160761
0.153067
0.120429
0.135027
0.140201
0.162603
0.069879
-0.021038
0.055766
0.095747
0.023967
-0.068510
-0.010747
0.062016
0.021453
-0.128923
0.017586
-0.106087
-0.059613
-0.029972
-0.050407
-0.108411
-0.125992
-0.143967
-0.027639
-0.138109
-0.098516
-0.030656
-0.114463
-0.062022
-0.044218
-0.090564
-0.106128
-0.122858
-0.084474
-0.125730
-0.149803
-0.108654
-0.095835
-0.175714
-0.024170
-0.082162
-0.052419
-0.096844
-0.136566
-0.139433
-0.121928
-0.112707
-0.161454
-0.094261
-0.124281
-0.052243
-0.035924
-0.174855
-0.165084
-0.070064
-0.077032
-0.045950
-0.117666
-0.066550
-0.141616
-0.155780
-0.106531
-0.112595
-0.049335
-0.101794
-0.032304
-0.081328
-0.150475
-0.145635
-0.103585
-0.006704
-0.159348
-0.119172
-0.110123
-0.060071
-0.082523
-0.048751
0.024505
-0.116140
-0.101624
-0.062130
-0.056767
0.038343
0.026807
0.025662
0.085158
-0.023260
0.061629
0.000596
0.016081
0.114997
0.116045
0.073079
0.003423
0.082798
0.135997
0.043197
0.109855
0.058252
0.067436
0.054569
0.005900
0.053548
-0.039847
-0.015975
-0.017536
0.041706
-0.023462
-0.002930
0.020495
-0.050871
0.019446
-0.032709
0.000199
-0.082797
-0.058721
-0.028250
0.023462
-0.082905
-0.090728
-0.079040
-0.179115
-0.120616
-0.148612
-0.163246
-0.025656
-0.159273
-0.163490
-0.211196
-0.155411
-0.000811
0.082236
0.280905
0.537039
0.982656
1.228425
1.315615
1.271145
0.951838
0.572665
0.264938
-0.084903
-0.325358
-0.393684
-0.360844
-0.235817
-0.199055
-0.108313
-0.134103
-0.108408
-0.046367
-0.059661
-0.083771
-0.001023
0.033271
-0.019501
-0.099585
-0.057590
-0.017128
0.023651
0.083219
-0.005733
0.029399
0.003886
0.118418
0.072652
0.092429
0.150882
0.165643
0.166617
0.200887
0.246923
0.177155
0.251465
0.338081
0.262302
0.384044
0.350028
0.335938
0.310741
0.394398
0.391154
0.322982
0.368081
0.444720
0.450994
0.515696
0.413005
0.399217
0.476122
0.458071
0.429657
0.420373
0.392541
0.380405
0.356827
0.437210
0.369124
0.291761
0.294107
0.348478
0.202612
0.218639
0.206766
0.181231
0.219002
0.204490
0.095946
0.178291
0.207287
0.063202
0.089140
0.109094
0.091269
-0.001662
0.077511
0.092104
-0.063435
0.035296
-0.039129
0.050760
-0.101853
-0.036439
-0.031500
0.004507
-0.007022
-0.043440
-0.020772
-0.122034
-0.015913
-0.118548
-0.041229
-0.011740
0.011905
-0.019849
0.024364
-0.019929
-0.079972
0.015173
0.023765
-0.024077
-0.033633
-0.012194
-0.028941
0.020032
-0.017835
0.008666
-0.025344
-0.022412
0.001788
-0.053573
0.008571
0.059266
-0.006694
-0.032568
-0.063470
0.050630
-0.010487
-0.006941
0.043192
-0.070501
-0.133348
-0.017570
0.023560
0.031101
0.006324
-0.019196
-0.067249
-0.022002
-0.056896
-0.047331
-0.060227
-0.012544
0.059010
0.013774
-0.087656
0.005787
0.031761
0.022982
0.035385
0.013678
0.022176
0.043172
0.006227
0.149124
0.021109
0.026585
0.012932
0.116371
0.058084
0.058690
0.024813
0.104878
0.198380
0.212558
0.227980
0.169181
0.149020
0.145180
0.189152
0.188673
0.218744
0.164058
0.142885
0.155741
0.076916
0.160249
0.183285
0.107896
0.118967
0.049400
0.056174
0.116755
0.136300
0.068758
-0.015944
0.058667
0.044384
0.029902
0.028726
-0.016876
0.038708
0.039653
-0.033672
0.031839
0.079720
0.051413
-0.069045
-0.003990
0.048213
0.068510
0.038384
-0.020840
-0.038921
0.078399
0.023668
0.179438
0.306619
0.587751
0.878098
1.159192
1.339775
1.351800
1.248995
0.915594
0.595944
0.213771
-0.028622
-0.118242
-0.206742
-0.134423
-0.052897
-0.081543
0.061866
0.029993
0.132703
0.076532
0.048509
0.072403
0.011201
0.041248
0.112919
0.107987
0.157036
0.108762
0.160429
0.085843
0.161188
0.210535
0.171966
0.139719
0.252026
0.184560
0.303901
0.333532
0.283056
0.286495
0.294765
0.421945
0.305915
0.385326
0.380733
0.393821
0.419176
0.431806
0.522109
0.504274
0.507858
0.535581
0.574287
0.578225
0.596661
0.564739
0.533316
0.561857
0.571437
0.573985
0.524671
0.575467
0.606484
0.431437
0.527798
0.487654
0.525780
0.465410
0.405073
0.418644
0.421211
0.494477
0.366238
0.336113
0.269299
0.258451
0.245474
0.332383
0.279280
0.213652
0.229533
0.227044
0.157552
0.090286
0.155624
0.193081
0.047188
0.112956
0.144634
0.061479
0.111298
0.127224
0.072563
0.056130
0.139413
0.096686
0.090836
0.078717
0.052087
0.074266
0.070831
0.052937
0.056369
0.030429
0.132127
0.112281
0.061991
0.037762
-0.014023
0.093014
0.132590
0.075438
0.099280
0.050156
0.036918
0.141100
0.066338
0.081447
0.109871
0.039288
0.051871
0.134985
0.114158
0.111086
0.084361
0.153679
0.032293
0.076924
0.060376
0.061443
0.108716
0.045870
0.077258
0.142539
0.049084
0.147484
0.094813
0.099515
0.091978
0.169767
0.059696
0.156195
0.065718
0.156804
0.051024
0.097470
0.108023
0.126774
0.066321
0.194800
0.089364
0.108917
0.119515
0.168247
0.160301
0.145157
0.123006
0.087550
0.142584
0.222619
0.172697
0.225483
