0.061169
-0.002273
-0.026753
-0.084248
0.011913
-0.029186
0.002698
0.033385
-0.033351
0.002711
-0.003001
-0.005121
-0.021886
-0.031795
0.064860
-0.009861
0.027326
0.113316
0.051180
-0.039771
0.068847
0.030379
0.051959
0.042436
-0.047283
0.111454
0.071613
0.102208
0.174785
0.076367
0.082115
0.147544
0.198220
0.147797
0.159962
0.110550
0.139800
0.222010
0.284711
0.224526
0.230866
0.182209
0.234067
0.198743
0.156957
0.181970
0.193750
0.240705
0.127799
0.141302
0.163144
0.129379
0.115930
0.179749
0.179894
0.128696
0.052775
0.100872
0.165755
0.047956
0.074842
0.076161
-0.049996
0.028216
0.127276
0.088522
0.016258
0.050189
0.024687
0.012777
0.025223
0.022084
0.027790
0.062214
0.052415
0.014442
0.050538
0.154930
0.354778
0.703233
0.960120
1.227283
1.404504
1.407790
1.258187
0.839782
0.491552
0.131153
-0.070394
-0.102838
-0.282337
-0.151086
0.012940
0.047383
0.099574
0.101705
0.060891
0.054663
0.162220
0.163174
0.063797
0.118564
0.064263
0.141481
0.114393
0.179138
0.128657
0.119411
0.162161
0.144388
0.143151
0.098454
0.262435
0.304841
0.299805
0.365682
0.409911
0.350406
0.438294
0.303881
0.444393
0.470904
0.427793
0.547025
0.420083
0.525004
0.463213
0.522881
0.517043
0.568246
0.523677
0.647284
0.560800
0.605821
0.549873
0.632232
0.550410
0.546786
0.595738
0.562623
0.558127
0.506389
0.490396
0.496560
0.450714
0.459357
0.437101
0.425267
0.403570
0.354652
0.257985
0.332045
0.320998
0.409481
0.243531
0.220767
0.222819
0.297962
0.234101
0.243983
0.113901
0.162193
0.180093
0.122875
0.167336
0.118878
0.149295
0.149761
0.134239
0.084057
0.149652
0.131660
0.097673
0.079232
0.075389
0.102365
0.108042
0.108160
0.086175
0.114387
0.059153
0.143444
0.111679
0.067025
0.105257
0.117484
0.013524
0.112863
-0.015268
0.045767
0.071217
0.049041
0.173479
0.096234
0.122490
0.084229
0.094466
0.052662
0.116575
0.076580
0.094210
0.046230
0.121616
0.119317
0.122124
0.144950
0.108081
-0.000586
0.092990
0.171651
0.070819
0.122981
0.103555
0.094098
0.112091
0.105075
0.127883
0.124975
0.104324
0.155252
0.134499
0.114347
0.073025
0.077628
0.092567
0.145270
0.111491
0.099649
0.056683
0.073550
0.176414
0.113856
0.145271
0.183832
0.226745
0.180563
0.164058
0.160647
0.279164
0.240037
0.124697
0.246038
0.279773
0.216199
0.232990
0.154376
0.315682
0.227826
0.267442
0.237358
0.292954
0.195717
0.239166
0.195886
0.168615
0.184527
0.135731
0.175986
0.167699
0.162240
0.180015
0.126297
0.100737
0.158397
0.101354
0.166150
0.127923
0.107344
0.160964
0.162551
0.025787
0.151537
0.120563
0.049681
0.117214
0.084856
0.053759
0.120740
0.109212
0.059857
0.073076
0.140931
0.119633
0.312362
0.504414
0.925074
1.054296
1.333344
1.500000
1.282631
1.044890
0.622325
0.298838
-0.020656
-0.097690
-0.239187
-0.118314
-0.066592
0.030074
0.032692
0.001610
0.023879
0.128757
0.082259
0.146418
0.155676
0.095885
0.099549
0.189210
0.101361
0.103777
0.167690
0.134871
0.126552
0.192857
0.237309
0.246304
0.185507
0.280659
0.303089
0.310486
0.297055
0.296229
0.352118
0.370237
0.300213
0.411210
0.344075
0.491148
0.512855
0.476097
0.539084
0.590360
0.532233
0.497528
0.553739
0.531849
0.588197
0.444668
0.555611
0.578335
0.532819
0.566393
0.475006
0.446544
0.513330
0.564575
0.518063
0.476058
0.416566
0.360349
0.425527
0.439459
0.406799
0.308717
0.315200
0.171086
0.250623
0.267280
0.358371
0.231783
0.198818
0.250725
0.114631
0.190610
0.132143
0.115535
0.127171
0.166105
0.069898
0.056822
0.060932
-0.009681
0.040888
0.067167
0.058097
0.035651
0.022345
0.080807
0.057859
0.047262
0.065187
0.008565
0.068691
-0.005392
0.039696
0.013141
-0.025765
0.075143
0.031860
0.093392
0.095469
-0.006062
0.048880
-0.001937
-0.012019
-0.006933
0.011111
0.009200
0.042161
-0.043461
0.010681
-0.018420
0.045858
0.069553
0.037736
0.036342
0.009321
-0.022900
-0.074720
0.045055
-0.000358
-0.032111
0.100001
0.010210
0.021802
-0.005961
0.038274
0.006904
0.001265
-0.042172
0.067359
-0.034536
0.085208
-0.079113
0.017227
-0.006953
0.008954
0.034068
-0.022102
0.016736
0.002922
0.012173
-0.058839
-0.043264
0.119463
0.031422
0.037084
0.060643
0.077390
0.130433
0.127566
0.121592
0.058376
0.083673
0.159811
0.151694
0.051175
0.198121
0.112561
0.165041
0.106108
0.111654
0.074064
0.142088
0.130451
0.130946
0.152222
0.205540
0.091179
0.167012
0.131168
0.086534
0.107314
0.031225
0.086715
0.057384
-0.005641
0.105442
0.078346
0.021664
0.025973
-0.026975
-0.003919
-0.049523
-0.021333
0.016848
-0.056600
0.035583
-0.026100
-0.064470
-0.046532
-0.089981
0.014815
-0.080047
-0.050890
-0.121030
-0.021390
0.144213
0.364761
0.584590
0.900008
1.161859
1.351773
1.242250
1.191586
0.679942
0.346858
0.102474
-0.200165
-0.248769
-0.332261
-0.158447
-0.074206
-0.069535
-0.041175
-0.033860
0.030571
-0.023192
-0.032716
-0.010144
-0.004944
0.016921
0.001362
0.006210
0.031172
0.011645
0.051058
0.090414
0.049536
0.120091
0.033589
0.060999
0.139187
0.125873
0.165742
0.192215
0.225158
0.261030
0.241706
0.273218
0.273446
0.362662
0.317692
0.292741
0.313853
0.330704
0.457034
0.430726
0.401450
0.501311
0.448051
0.442058
0.472418
0.507437
0.408064
0.512787
0.475859
0.512501
0.428225
0.334306
0.367478
0.333795
0.489192
0.399305
0.330537
0.316238
0.322512
0.287959
0.197901
0.242767
0.266032
0.211066
0.173587
0.107588
0.107388
0.132746
0.063978
0.082028
0.031029
0.016964
0.044800
-0.035918
0.059621
0.039969
-0.062497
0.014998
0.020293
-0.022736
0.018749
-0.042508
-0.000998
0.003740
-0.006681
0.053177
-0.036307
-0.011582
-0.012212
0.044225
-0.011184
0.023961
-0.098106
0.017440
-0.063323
-0.025368
-0.046742
-0.027996
-0.042892
-0.074022
0.027326
0.007615
-0.032148
-0.000281
-0.037311
-0.082145
-0.037079
-0.047043
-0.061282
-0.170935
-0.038125
-0.112321
-0.067110
0.046408
-0.017461
-0.118982
-0.048120
0.055000
-0.040705
-0.045822
-0.011731
-0.014053
0.005543
0.022103
0.009474
-0.045712
-0.073295
-0.041538
0.004860
0.063820
-0.033763
-0.073168
-0.160265
0.007064
-0.019505
-0.100981
-0.020292
-0.032797
0.091914
-0.065556
0.063059
0.035246
-0.030609
-0.033784
-0.034013
0.047322
0.004880
0.066398
0.065760
0.057620
0.080330
0.088435
0.224230
0.137120
0.103606
0.150834
0.169906
0.116346
0.049876
0.122891
0.152585
0.201538
0.161716
0.130409
0.098606
0.114596
0.088272
0.098885
0.116792
0.024662
0.071072
0.025830
0.002354
0.024346
0.127550
0.052641
-0.029757
0.013024
-0.037401
0.008904
-0.031844
-0.058252
-0.036125
0.069903
0.035075
0.058223
-0.035417
-0.017390
-0.030863
-0.005854
-0.002880
0.002741
-0.015885
-0.162424
0.092848
0.242004
0.474395
0.786468
1.149490
1.323295
1.284117
1.209824
0.957499
0.502809
0.223066
-0.025230
-0.215300
-0.168745
-0.156179
-0.128313
-0.020117
-0.025691
0.032631
0.019902
-0.013531
0.079110
0.079534
-0.007503
0.020888
0.059324
0.057966
-0.034019
0.093845
0.068867
0.191136
0.032475
0.146663
0.092250
0.225787
0.226455
0.260878
0.197244
0.301264
0.282628
0.256078
0.263893
0.266526
0.360701
0.384048
0.390189
0.395534
0.401321
0.511377
0.465626
0.387747
0.439707
0.504946
0.493558
0.537858
0.501855
0.533350
0.446246
0.537186
0.456772
0.508291
0.509526
0.544019
0.500400
0.521009
0.519574
0.493309
0.370912
0.403160
0.378057
0.385421
0.306546
0.401752
0.210728
0.310096
0.267350
0.265373
0.231915
0.263397
0.195650
0.185316
0.051760
0.251317
0.132502
0.171919
0.157596
0.123205
0.097446
0.082886
0.038893
0.121650
0.102330
0.109427
0.060259
0.062931
0.088120
0.131429
0.034531
0.128823
0.054513
0.112136
0.039512
0.057868
0.086819
0.094664
0.015422
0.050130
0.094588
0.048863
-0.029273
0.032445
-0.008026
0.059077
0.000195
0.059746
-0.002494
0.061264
0.143836
0.032193
0.068933
0.098350
0.090108
0.083183
-0.004209
0.001068
0.096072
0.104329
0.116116
0.081684
0.104011
0.082551
0.048320
0.094834
0.029383
0.084840
0.099643
0.081232
0.047463
0.085342
-0.003828
0.006781
0.128063
0.068784
0.102916
0.095262
0.056518
0.022066
0.086936
0.124293
0.103530
0.143957
0.135212
0.062800
0.135248
0.072571
0.116051
0.081977
0.229661
0.166815
0.168984
0.135173
0.217405
0.278316
0.253590
0.256792
0.289658
0.161644
0.183532
0.277617
0.237007
0.300060
0.219444
0.275146
0.249055
0.271707
0.268937
0.218931
0.218649
0.227712
0.135093
0.209895
0.044781
0.179326
0.147647
0.177797
0.084931
0.154117
0.090017
0.089134
0.164775
0.083554
0.030103
0.083341
0.103915
0.160957
0.141051
0.110749
0.073826
0.126020
0.146320
0.056104
0.043577
0.067730
0.105894
0.079956
0.137304
0.197351
0.421776
0.725264
1.037466
1.248957
1.481744
1.385711
1.204509
0.831119
0.473794
0.162362
-0.011963
-0.178888
-0.132332
-0.064453
-0.055153
0.088114
0.019024
0.147296
0.105851
0.096909
0.140700
0.097905
0.152115
0.137933
0.125272
0.139654
0.081715
0.178498
0.138367
0.167374
0.199451
0.220720
0.253811
0.283876
0.236000
0.243451
0.244059
0.380290
0.334585
0.301129
0.344115
0.403955
0.436847
0.457467
0.454275
0.465975
0.508790
0.540364
0.546693
0.479171
0.597168
0.547127
0.610896
0.571005
0.553258
0.593944
0.616002
0.556122
0.576651
0.512479
0.576059
0.520192
0.531582
0.573209
0.477714
0.539421
0.474354
0.425858
0.457391
0.428712
0.436862
0.388780
0.480533
0.350778
0.307172
0.326943
0.304531
0.287066
0.255090
0.233032
0.278346
0.189918
0.186551
0.197916
0.178571
0.166506
0.076902
0.097493
0.213717
0.075702
0.144265
0.162098
0.086029
0.052698
0.084031
0.180565
0.108854
0.059691
0.056774
0.044097
0.106875
0.092483
0.089411
0.075104
0.044853
0.040109
0.089895
0.015056
0.098535
0.117060
0.098577
0.076420
0.102194
0.150855
0.071271
0.137334
0.039617
0.038349
0.124191
0.022082
0.153984
-0.017359
0.072252
0.048017
0.033347
0.103909
0.071836
0.071898
0.054596
0.054420
-0.025587
0.055301
0.142681
0.042370
0.039875
-0.000770
0.078871
0.098295
0.007301
0.070149
0.055265
0.031435
0.077826
0.039670
0.110198
0.098277
0.141538
0.015148
0.143734
0.080513
0.148714
0.052228
0.127257
0.178378
0.115606
0.132305
0.127737
0.104277
0.156815
0.093037
0.168014
0.143267
0.251578
0.167295
0.208543
0.216980
0.209753
0.293978
0.299652
0.225488
0.298910
0.148684
0.191768
0.227886
0.263255
0.282334
0.120544
0.119238
0.201576
0.150136
0.123658
0.086645
0.144472
0.122765
0.095679
0.094387
0.142700
0.014157
0.051409
0.011126
0.000960
0.020344
0.026976
-0.038625
0.036494
-0.007921
0.084272
-0.030131
0.007868
0.047673
-0.024255
-0.096992
0.022050
0.056141
-0.012249
0.268362
0.560406
0.779966
1.190825
1.326452
1.407353
1.180696
0.888815
0.555035
0.254516
-0.053006
-0.105482
-0.265173
-0.223755
-0.129601
-0.031449
0.064074
0.025022
0.087622
0.024186
0.078505
0.073341
0.115927
0.103029
0.065465
0.186854
0.080457
0.121519
0.198097
0.043067
0.117573
0.103336
0.162977
0.217886
0.191253
0.171803
0.261482
0.274740
0.277922
0.268943
0.203791
0.308854
0.301403
0.360645
0.323360
0.383776
0.411681
0.397635
0.487825
0.461081
0.416171
0.460594
0.561261
0.472198
0.495799
0.462616
0.410112
0.482516
0.524122
0.466660
0.477221
0.407599
0.482780
0.378572
0.371622
0.329118
0.378228
0.384912
0.305856
0.387236
0.355746
0.204432
0.314225
0.261908
0.176938
0.178667
0.206205
0.196482
0.188831
0.135481
0.047654
0.087701
0.141561
-0.011623
0.105471
0.022983
0.033801
0.023555
0.029545
0.004514
-0.003035
-0.067753
0.035453
-0.053095
-0.012630
-0.046754
-0.004285
-0.045521
-0.001618
-0.036644
-0.048033
-0.000124
-0.003773
-0.021106
-0.117204
-0.055780
-0.033712
-0.046815
0.030962
-0.004394
-0.051800
0.024423
0.030342
-0.050372
-0.031065
-0.051419
-0.070134
-0.007842
-0.075911
-0.059497
0.023055
0.004663
-0.133172
0.002762
-0.129036
-0.001445
-0.044997
-0.020111
-0.056188
-0.157350
-0.087350
-0.040518
-0.073524
-0.036568
-0.029500
-0.117324
-0.074070
-0.033064
-0.082428
-0.054080
-0.131084
-0.065524
-0.015303
-0.060644
-0.076856
-0.005385
0.003575
-0.066050
0.008554
-0.009915
-0.058860
-0.016688
-0.080544
-0.013550
-0.011782
0.028958
0.042753
-0.070464
0.054574
0.025347
0.081276
-0.006827
0.046794
0.008880
0.044240
0.064885
0.082065
0.098921
0.026069
0.079240
0.077028
0.060726
0.022752
0.091076
0.106115
0.127087
0.063444
0.051902
0.056825
0.035883
0.022034
0.077191
-0.043257
-0.046949
-0.060529
-0.048605
-0.140602
0.058619
-0.066153
-0.159119
-0.098211
-0.139577
-0.063345
-0.121984
-0.044541
-0.068501
-0.068098
-0.139489
-0.074553
-0.052974
-0.032149
-0.087670
-0.098980
-0.084280
-0.058116
-0.003680
0.298819
0.601518
0.979607
1.131017
1.299870
1.199363
1.107219
0.762798
0.273043
-0.042336
-0.240806
-0.279610
-0.284118
-0.209679
-0.150728
-0.106131
-0.130962
-0.105596
-0.019823
-0.120621
0.009480
-0.038835
-0.024634
-0.002191
-0.000866
0.007986
-0.033278
0.052779
-0.026412
0.002032
0.051651
0.025764
0.027730
0.054105
0.093051
0.096607
0.125359
0.194643
0.156967
0.181279
0.143034
0.270825
0.315695
0.248450
0.264774
0.309997
0.356104
0.333274
0.417189
0.423019
0.394065
0.357028
0.459235
0.464159
0.380934
0.378815
0.461742
0.434909
0.361723
0.439790
0.316009
0.457694
0.359421
0.390894
0.287822
0.367694
0.342359
0.415895
0.292381
0.242886
0.247912
0.266577
0.221020
0.170162
0.176943
0.138456
0.072927
0.098455
0.090708
0.066017
0.125157
0.005262
-0.000373
0.045220
-0.008959
-0.011884
-0.105897
-0.052923
-0.000613
0.023111
-0.006936
0.051041
-0.001595
-0.113007
0.056086
-0.037079
0.003549
-0.098764
-0.041290
-0.019436
-0.030805
-0.014635
-0.029816
-0.056129
-0.052145
-0.097169
-0.023403
-0.067304
-0.062965
-0.121306
-0.107801
-0.153525
-0.086215
-0.028267
-0.058213
0.002758
-0.092513
-0.136241
-0.042607
-0.065577
-0.033293
-0.084879
-0.092688
-0.056286
-0.046726
-0.012881
-0.060562
-0.055150
-0.036955
-0.033014
-0.075511
-0.064424
-0.031692
0.023817
-0.081088
-0.017958
-0.053868
-0.065346
-0.018683
-0.111831
-0.086926
-0.112088
-0.049207
-0.094657
0.003106
-0.006919
0.041945
-0.031612
-0.037916
-0.027303
-0.040859
0.014959
-0.042397
0.007285
0.011475
0.006858
0.111520
0.035041
0.026953
0.067203
0.100920
0.168758
0.089188
0.175224
0.099529
0.161388
0.156441
0.187580
0.110160
0.104690
0.152603
0.114293
0.093578
0.187589
0.092753
0.093468
0.052171
0.067094
-0.002393
0.049007
0.013491
0.047252
-0.036227
0.022413
-0.021686
0.030717
-0.059873
-0.007011
0.006823
-0.046414
-0.002228
-0.027618
0.020804
0.015893
-0.019299
-0.013404
0.024100
0.086196
-0.077924
-0.030408
-0.008211
-0.020684
-0.007571
-0.037986
0.027389
0.292220
0.424928
0.828615
1.153329
1.300744
1.319144
1.187234
0.817812
0.538748
0.172801
-0.037890
-0.247824
-0.231258
-0.205903
-0.114857
-0.049364
-0.033873
0.047682
0.006395
0.112305
0.037606
0.068389
0.006550
0.038077
0.095380
0.069607
0.040731
0.052624
0.089346
0.146623
0.133954
0.119881
0.146450
0.172020
0.121358
0.217101
0.251644
0.147441
0.271468
0.331634
0.294806
0.282941
0.376133
0.373521
0.344218
0.418355
0.358966
0.391994
0.430316
0.496109
0.482027
0.449269
0.431075
0.498447
0.534508
0.534943
0.413139
0.590363
0.496477
0.517142
0.472199
0.504019
0.520746
0.459584
0.404571
0.337375
0.419158
0.434207
0.378842
0.317920
0.248135
0.315996
0.314071
0.332097
0.263645
0.207189
0.307502
0.233033
0.270297
0.163949
0.147412
0.138454
0.204210
0.111679
0.097608
0.117010
0.086531
0.073364
0.141200
-0.008663
0.147080
0.136855
0.016653
0.052965
0.013622
-0.016347
0.063869
0.083092
0.091785
-0.045616
-0.002746
-0.024615
0.056481
0.002400
0.008555
0.026525
0.060650
0.001245
-0.007201
0.086122
-0.002229
-0.001352
0.033254
0.120800
0.012168
0.019988
0.107414
0.001365
0.056480
0.011522
0.122495
0.010774
0.052267
-0.009287
0.066867
0.065940
0.050019
0.096040
0.089512
0.047042
0.080873
0.123843
0.079017
-0.026648
0.118966
0.101630
0.044824
0.042279
-0.009658
0.083083
0.066959
0.051092
0.107098
0.067044
0.144453
0.007452
0.071168
0.091049
0.051347
0.030493
0.068988
0.048222
0.006134
0.103997
0.148315
0.091866
0.058360
0.185730
0.063672
0.161531
0.157571
0.255572
0.230701
0.173445
0.192991
0.205841
0.272196
0.150835
0.208367
0.301264
0.272707
0.169476
0.183470
0.247164
0.214343
0.155638
0.118913
0.203735
0.129953
0.138457
0.070924
0.157518
0.169196
0.142675
0.147333
0.078479
-0.004244
0.130248
0.111275
0.068498
0.035176
0.056812
0.087682
0.030425
-0.027382
0.027873
-0.087108
0.067275
0.084166
0.054711
0.068893
-0.002754
0.017799
0.046156
0.066797
0.203369
0.435783
0.686544
1.064377
1.282625
1.321843
1.303029
1.088417
0.771279
0.359675
0.121547
-0.077204
-0.187219
-0.188118
-0.080971
-0.033744
0.095108
0.077682
0.140165
0.025924
0.005495
0.107597
0.132721
0.127288
0.097043
0.058795
0.105681
0.182148
0.153680
0.106851
0.100511
0.154319
0.168810
0.236607
0.151048
0.243363
0.160268
0.212719
0.253235
0.247622
0.355565
0.411711
0.310044
0.402534
0.412618
0.464008
0.510291
0.471668
0.438665
0.500448
0.546816
0.575932
0.482435
0.559381
0.527984
0.515197
0.511091
0.478500
0.551930
0.442372
0.518060
0.507257
0.403594
0.436824
0.525474
0.414096
0.434506
0.460736
0.379699
0.373768
0.326604
0.324750
0.336486
0.227116
0.255190
0.223259
0.252961
0.226484
0.264629
0.138210
0.235590
0.251499
0.099859
0.166879
0.161771
0.124202
0.058782
0.079102
0.090190
0.093723
0.100882
0.043089
-0.031690
0.005833
0.048617
0.030779
0.025815
0.007324
0.024900
-0.012785
0.039173
0.025996
0.052554
-0.060053
0.032308
0.041252
0.020546
0.024430
-0.035400
0.010457
-0.030048
0.016109
0.066969
-0.067533
-0.015426
0.043088
-0.129519
-0.057798
0.088106
0.005212
0.051615
0.001133
-0.013950
-0.043057
0.029795
0.059449
-0.026832
0.044360
0.002376
-0.036375
0.050918
0.047596
-0.001634
-0.000321
0.014104
-0.033125
0.013457
-0.101276
0.021790
0.033945
-0.020044
-0.006815
-0.016083
0.056110
-0.046755
0.003384
-0.020716
0.032717
-0.035951
-0.002439
0.046193
0.121824
0.031832
-0.030363
-0.015687
0.070815
0.026867
0.066030
0.089864
0.013823
0.089164
0.108460
0.110129
0.127339
0.183896
0.164003
0.110625
0.140465
0.212125
0.167920
0.151268
0.124156
0.233168
0.116130
0.126134
0.059517
0.115348
0.148672
0.065934
0.058890
0.011950
0.013737
0.010134
0.041082
0.054748
-0.027674
-0.004323
0.044507
-0.181001
-0.023488
-0.043675
-0.082570
-0.022979
-0.060442
0.042141
0.047258
-0.021624
-0.101109
0.001125
-0.107538
-0.058052
-0.072139
-0.099392
-0.045926
-0.068884
0.137077
0.314583
0.452767
0.696886
1.053515
1.322834
1.291654
1.135202
0.861526
0.479505
0.129122
-0.065110
-0.252091
-0.292978
-0.294889
-0.214375
-0.185462
-0.022780
-0.091190
0.028609
-0.027195
0.004668
0.032504
-0.090294
-0.018511
-0.059277
-0.035732
-0.005385
0.038410
0.091591
0.020851
0.011230
0.023499
0.058101
0.106510
0.113963
0.200507
0.170342
0.147840
0.269454
0.196574
0.257503
0.158034
0.190007
0.209652
0.374571
0.298986
0.298898
0.423327
0.357898
0.431129
0.411458
0.405852
0.406041
0.444380
0.409393
0.489172
0.389646
0.380016
0.410232
0.452980
0.347315
0.393786
0.350862
0.374584
0.356469
0.281058
0.355152
0.291728
0.243731
0.316580
0.232861
0.166348
0.190275
0.233209
0.170875
0.061413
0.057796
0.146207
0.188439
0.027203
-0.015657
0.028580
-0.010680
-0.007781
0.075366
0.017912
-0.077466
-0.075120
-0.076758
-0.137033
-0.072051
0.032070
-0.101340
-0.112898
-0.082271
-0.093364
-0.002041
0.003834
-0.114430
-0.063560
-0.078000
-0.144865
-0.095659
-0.125512
-0.114164
-0.083269
-0.092391
-0.151492
-0.134980
-0.041118
-0.173432
-0.103966
-0.101463
-0.109258
-0.232875
-0.087681
-0.045941
-0.030821
-0.085889
-0.022142
-0.141851
-0.113384
-0.158302
-0.064642
-0.131384
-0.166975
-0.038253
-0.039053
-0.081218
-0.127963
-0.099040
-0.128627
-0.045675
-0.138335
-0.034790
-0.072252
-0.194501
-0.076568
-0.039638
-0.147370
-0.177458
-0.114112
-0.077527
-0.138548
-0.105970
-0.144223
-0.017698
-0.080420
-0.096240
0.013627
-0.174401
-0.078602
-0.105779
-0.072735
-0.121272
-0.068199
0.060352
0.008577
0.048251
0.089613
-0.013951
0.076515
0.029962
0.051830
0.117199
0.055338
0.104972
0.041659
-0.019687
0.051304
0.095377
0.119102
0.001504
0.052645
-0.015939
0.088217
-0.089646
-0.001512
0.025870
0.079716
-0.012511
0.010610
-0.053452
-0.022893
0.001743
0.015931
-0.038058
-0.045250
-0.011526
-0.045190
-0.081685
-0.133924
-0.061352
-0.058100
0.058632
-0.024176
-0.114603
-0.025376
-0.128416
-0.092441
-0.108754
-0.145228
-0.117686
-0.129294
-0.088984
0.066030
0.294349
0.635217
0.929999
1.209866
1.275494
1.192650
0.978420
0.569479
0.213849
-0.048107
-0.300840
-0.254651
-0.278281
-0.284634
-0.171401
-0.119578
-0.063115
-0.170082
-0.093890
-0.032433
-0.014534
-0.044511
-0.073092
0.047365
-0.020417
0.014854
-0.063155
-0.028964
0.003050
0.108016
0.028994
0.078705
0.088337
0.076743
0.102119
0.133675
0.122300
0.205360
0.154629
0.213850
0.151733
0.247920
0.255078
0.238468
0.334709
0.355926
0.410162
0.383903
0.349384
0.398365
0.323173
0.422954
0.431929
0.398315
0.433025
0.425914
0.375898
0.475702
0.408353
0.438038
0.501733
0.359619
0.476851
0.376824
0.321775
0.333714
0.378989
0.234485
0.306152
0.320796
0.259383
0.201594
0.178196
0.200476
0.177258
0.209518
0.140525
0.169042
0.062791
0.070610
0.144744
0.014549
0.082881
0.048569
-0.004282
0.039110
0.038936
-0.000453
0.037445
-0.002904
-0.003885
0.035503
-0.093333
0.008345
-0.060548
0.006283
-0.027665
0.031572
-0.018152
-0.023165
-0.131361
0.065245
-0.109433
-0.033362
0.009917
-0.005466
-0.048068
-0.014419
-0.031380
-0.132116
-0.105161
-0.001101
0.005047
-0.043946
-0.110729
0.003532
-0.050029
-0.123185
0.032202
0.058099
-0.026131
0.005235
-0.057348
-0.055252
-0.023223
0.005545
-0.120159
-0.007366
0.004374
0.012756
-0.004175
0.017999
0.041214
-0.075593
0.026818
-0.022055
0.031144
-0.031048
-0.026847
0.038599
-0.048911
-0.028325
0.004978
0.012235
-0.000774
0.020256
-0.019794
0.064714
-0.061735
0.086364
-0.017362
-0.029872
-0.023043
0.058731
0.078968
0.140355
0.113910
0.090101
0.082983
0.131604
0.127685
0.167832
0.194973
0.135667
0.134915
0.186657
0.185388
0.136213
0.083804
0.275794
0.216297
0.177293
0.076786
0.112458
0.237722
0.202894
0.081288
0.143154
0.054019
0.131612
0.060938
0.080975
0.160903
0.104399
0.081711
0.137113
0.062101
0.008158
-0.020083
0.052805
-0.024846
0.024090
0.076585
-0.000491
-0.047939
0.055685
0.086322
0.004979
0.066158
-0.041499
-0.011467
-0.066212
0.014017
0.024012
0.132825
0.291946
0.579946
0.897785
1.202486
1.354405
1.419100
1.144993
0.885228
0.597629
0.209151
0.020691
-0.313545
-0.283188
-0.058467
-0.147861
-0.014132
0.009910
0.066586
0.148010
0.101046
0.000871
0.073981
0.086504
0.107586
0.054401
0.096517
0.059403
0.095325
0.115791
0.178995
0.167665
0.204599
0.155334
0.190192
0.163534
0.185041
0.241148
0.270472
0.227212
0.304180
0.332394
0.303567
0.304337
0.366002
0.433045
0.392110
0.381944
0.520943
0.469970
0.490427
0.468111
0.544615
0.533379
0.583488
0.570048
0.583475
0.565314
0.575086
0.508049
0.548249
0.523411
0.463948
0.490480
0.482244
0.458501
0.498433
0.423572
0.454177
0.346900
0.439461
0.393678
0.310006
0.323999
0.322601
0.305044
0.285746
0.206773
0.217612
0.225496
0.275966
0.199064
0.171763
0.123481
0.226727
0.115682
0.041969
0.165301
0.108808
0.078611
0.102966
0.081576
0.037697
0.149161
0.126358
0.085499
0.109893
0.008412
0.053864
0.113349
0.052828
0.069915
0.007799
0.104919
0.035850
0.024750
0.020577
-0.000063
0.094724
0.058269
0.071902
0.045470
0.087109
-0.012313
0.021766
0.025835
0.057195
-0.022847
0.093546
0.125301
0.053053
0.060767
0.061585
0.112500
0.122331
0.057816
-0.039516
0.027073
0.125713
0.092467
0.030450
0.124470
0.078531
0.023650
0.041924
0.062902
0.016887
-0.005373
0.056460
0.028756
0.001294
0.043736
0.000835
0.093359
0.099957
0.107328
0.092132
0.118349
0.072619
0.016555
0.136705
0.102016
0.169734
0.180936
0.118608
0.118186
0.170846
0.215465
0.076711
0.218936
0.204823
0.224445
0.259084
