-0.053269
-0.031497
-0.030005
0.025604
0.009921
0.060927
-0.022881
-0.011107
0.065730
-0.017339
0.074655
0.005600
-0.002219
-0.071976
0.013718
-0.041853
0.002562
-0.008098
0.000127
0.041284
0.089247
-0.021967
0.036360
-0.024948
-0.007962
-0.011666
0.043600
0.089196
0.162213
-0.015858
0.085090
0.030061
0.005767
0.095959
0.039699
-0.036021
0.039427
-0.023939
-0.065381
0.002182
0.031305
0.158253
0.092228
-0.001808
0.025723
-0.011797
0.055594
0.112374
0.084938
0.117173
0.164297
0.164258
0.187473
0.178955
0.191198
0.185684
0.118383
0.151156
0.246140
0.274389
0.194203
0.191727
0.230727
0.272730
0.248987
0.149386
0.201053
0.184224
0.193030
0.157800
0.196447
0.206928
0.039001
0.113721
0.158153
0.075682
0.069268
0.000987
0.056162
0.125410
0.078378
0.108427
0.130131
0.130356
-0.001980
0.060715
-0.077956
0.090713
0.005619
0.092296
0.047499
0.108372
0.010142
0.125551
0.045039
0.040046
0.053424
0.089553
0.057431
0.074469
0.060278
0.012105
0.038365
0.040951
0.050180
0.110653
0.047601
0.117691
-0.012067
-0.012904
-0.016636
0.098094
0.032512
-0.001474
-0.005905
-0.037284
0.001264
0.162493
0.364301
0.670937
1.031158
1.340573
1.474921
1.428630
1.258566
1.082272
0.756903
0.451528
0.280539
0.031169
-0.061942
-0.254821
-0.208548
-0.191963
-0.151125
-0.119968
0.020340
-0.046390
0.091817
0.090845
0.055726
-0.023118
0.002152
0.028922
0.042733
0.093725
0.114718
0.080617
0.082546
0.132413
0.104232
0.018152
0.070149
0.086530
0.106215
0.124476
0.084613
0.090692
0.129770
0.096117
0.149784
0.062490
0.119493
0.077278
0.091212
0.127099
0.117202
0.123644
0.175245
0.145509
0.193349
0.155840
0.199913
0.117660
0.250339
0.166226
0.191772
0.230002
0.316467
0.336656
0.381694
0.435704
0.329727
0.375779
0.383700
0.371968
0.450106
0.458603
0.487655
0.470899
0.507799
0.520639
0.534244
0.587787
0.603970
0.625056
0.587851
0.569070
0.614887
0.625828
0.654640
0.583119
0.492226
0.575785
0.585867
0.552696
0.511567
0.525681
0.478635
0.581405
0.458977
0.369892
0.540542
0.431418
0.346294
0.392511
0.355352
0.316455
0.321216
0.286906
0.297372
0.334479
0.226597
0.155700
0.228905
0.212989
0.163315
0.160936
0.105374
0.195075
0.120372
0.099894
0.208514
0.087240
0.084935
0.011795
0.110745
0.113366
0.087767
0.105092
0.062161
0.034953
0.122445
0.084980
0.082670
0.081871
0.040014
0.037524
0.091170
0.100496
0.085953
0.054783
0.066678
0.100781
0.050692
0.078082
-0.003098
0.052489
0.086114
0.134872
0.047334
0.182431
0.032237
0.152502
0.107822
0.194890
0.125453
0.074446
0.118347
0.116105
0.043405
0.097864
0.030388
0.046259
0.054473
0.032413
0.057179
0.116210
0.101431
0.095529
0.059680
0.048786
0.144735
0.046244
0.081947
0.090361
0.026527
0.161656
0.126489
0.106681
0.072393
0.001689
0.052854
0.066330
0.168519
0.054343
0.050297
0.038752
0.055863
0.032568
0.050231
0.017806
0.023563
-0.038284
0.023286
0.012303
0.052648
0.121018
0.013052
0.054484
0.035122
0.057781
0.039006
0.043805
0.035912
0.057484
0.116498
0.076098
0.019830
0.095694
0.146860
0.040710
0.130068
0.039924
0.042455
0.048181
0.014413
-0.034208
0.042263
0.014685
0.097361
0.063339
0.092535
0.091309
0.084590
0.043564
0.045113
0.083060
0.099387
0.043064
0.055347
0.074287
0.020966
0.092856
0.048792
0.055879
0.051631
0.043581
0.064642
0.120844
0.153941
0.023048
0.149334
0.196795
0.102939
0.045749
0.126098
0.137976
0.089058
0.113894
0.157384
0.137898
0.236750
0.201464
0.262900
0.226286
0.231082
0.163179
0.161704
0.256992
0.259620
0.059707
0.126347
0.151677
0.130857
0.133236
0.080300
0.058946
0.165757
0.066650
0.124700
0.044712
0.088090
0.024601
0.015698
0.084469
0.105087
0.048317
0.083926
0.003316
0.039343
0.025054
0.050849
0.045108
0.022639
0.136461
0.062004
0.040326
-0.010703
0.047116
-0.020867
0.089368
-0.049036
-0.062998
-0.012419
-0.006103
-0.026737
-0.000617
0.075630
-0.021787
0.040687
-0.025993
0.086435
0.037147
-0.007818
0.002384
0.007875
-0.039473
-0.033792
-0.101225
-0.168421
-0.198744
-0.033115
0.014289
0.194570
0.520811
0.871917
1.221644
1.406640
1.399609
1.292757
1.090752
0.746498
0.470593
0.135573
-0.076746
-0.224929
-0.269350
-0.388222
-0.317638
-0.235812
-0.213133
-0.056732
-0.079779
-0.061923
0.020584
-0.059294
-0.070690
-0.092896
0.005026
-0.006529
-0.076531
-0.140429
0.015727
-0.048315
-0.000341
0.034118
0.065833
-0.037039
-0.020097
0.106864
-0.056565
-0.020655
-0.044032
-0.054291
-0.027073
0.003653
-0.031590
-0.020760
0.054238
-0.014171
0.011061
0.033678
0.039107
-0.002565
0.098248
0.049019
-0.003476
0.079384
0.048860
0.162179
0.128583
0.143004
0.166008
0.262441
0.227569
0.242158
0.209490
0.151133
0.353854
0.305927
0.317136
0.319409
0.353592
0.396498
0.344812
0.365551
0.428681
0.476553
0.398121
0.472854
0.456802
0.469059
0.435953
0.478996
0.537289
0.501524
0.511205
0.380497
0.461085
0.407161
0.400421
0.454814
0.453860
0.449791
0.283296
0.365978
0.301050
0.305189
0.158259
0.271405
0.258006
0.271895
0.260489
0.258258
0.193038
0.121748
0.120170
0.116969
0.106153
0.047213
0.077078
0.153444
0.015859
0.072519
0.061689
0.039234
-0.003548
-0.025881
-0.016999
-0.015052
-0.050215
-0.019379
-0.029929
-0.030831
-0.020065
-0.019494
-0.081456
-0.089104
-0.107279
-0.103036
0.005358
-0.047062
-0.005867
0.031465
-0.021981
-0.046699
-0.008286
-0.063111
-0.071593
-0.011780
-0.039638
-0.044915
-0.104899
-0.100312
0.021894
-0.024194
0.025072
-0.064384
-0.047765
-0.002314
-0.098798
-0.022524
-0.086051
-0.083010
-0.002953
-0.103201
-0.012689
-0.088840
0.025185
-0.031317
0.006429
-0.088639
-0.046782
-0.065906
-0.002817
-0.057168
-0.059085
-0.070025
0.016560
0.059089
-0.033528
-0.097594
-0.132553
-0.088945
-0.019519
-0.039369
-0.014660
-0.043617
-0.049210
-0.083587
-0.032901
-0.003951
-0.049455
0.010816
-0.113852
-0.048210
-0.071567
-0.048981
0.024258
0.031786
-0.065443
0.037473
-0.000813
0.003802
-0.015244
-0.108527
-0.056118
0.009414
-0.080554
0.015382
0.001690
-0.032350
-0.102809
-0.019704
0.041480
-0.086153
-0.057661
0.032369
0.049967
0.014859
0.000831
-0.030965
0.036562
0.008028
-0.058023
-0.123141
-0.083775
-0.121233
0.045873
-0.038237
0.042321
0.022083
-0.076485
-0.043133
0.017254
0.035342
0.025056
-0.035078
-0.026603
-0.006307
0.007786
-0.003144
-0.007598
-0.059087
-0.030883
-0.075908
0.019585
0.034116
0.011876
0.045011
0.038711
0.110153
0.064805
0.066290
0.116945
0.054902
0.081789
0.156043
0.148315
0.080240
0.163450
0.182001
0.130170
0.155720
0.151362
0.206006
0.174947
0.113956
0.132018
0.145957
0.081594
0.088287
0.105312
0.095246
0.030499
0.052876
0.059297
0.111232
0.090034
0.047669
0.044082
-0.027145
0.020804
0.001089
0.002940
0.001361
-0.025310
-0.030272
-0.037654
-0.038385
-0.028763
0.014578
-0.005123
0.043763
-0.065603
-0.002406
-0.047817
-0.091617
0.025507
0.042699
-0.031439
0.020888
-0.025960
-0.013176
-0.081834
-0.007885
-0.040955
0.030804
-0.017687
-0.027924
0.062151
0.006355
-0.015612
0.024003
-0.095589
-0.074847
-0.099700
-0.046304
0.028174
0.318335
0.521902
0.816408
1.227810
1.327077
1.379663
1.326807
1.035822
0.788783
0.529882
0.234245
-0.065888
-0.165533
-0.268208
-0.332613
-0.258637
-0.255866
-0.166133
-0.112760
-0.059127
-0.039982
0.069685
-0.035724
-0.023843
0.046585
0.057153
0.048984
0.109834
0.027495
0.058065
0.083203
0.067143
0.070092
0.024944
-0.000890
0.042326
0.098115
0.116997
0.018625
0.077707
-0.031359
0.081186
0.082423
0.073830
0.014401
0.020276
0.049170
0.085935
0.050113
0.099472
0.132014
0.106519
0.164880
0.111259
0.114792
0.200918
0.199748
0.173215
0.158805
0.260067
0.265004
0.202258
0.300082
0.356892
0.245790
0.328444
0.434374
0.328518
0.399429
0.458480
0.423955
0.404370
0.474785
0.548395
0.528873
0.500029
0.569203
0.497663
0.491714
0.590181
0.625367
0.557918
0.649476
0.579611
0.574603
0.560171
0.513548
0.552179
0.573384
0.443452
0.413636
0.457056
0.447416
0.467684
0.331387
0.325651
0.307927
0.332815
0.310972
0.248372
0.264858
0.332716
0.290457
0.169801
0.212859
0.277923
0.275802
0.201461
0.139708
0.216850
0.153413
0.181584
0.135364
0.125028
0.106190
0.160679
0.146654
0.122745
0.050244
0.081216
0.121068
0.029108
0.011843
0.085065
0.128356
0.100860
0.040262
0.077012
0.049774
0.134680
0.060674
0.065714
0.069537
0.150882
0.131892
0.100197
0.055770
0.091075
0.038234
0.099732
0.049841
0.112596
0.082778
-0.013213
0.104269
0.163178
0.119493
0.090114
0.073091
0.190081
0.101047
0.048583
0.034638
0.082269
0.109348
0.101744
0.018255
0.180255
0.080076
0.058859
0.127137
0.089520
0.086414
-0.008428
0.016480
0.083118
0.081812
0.083690
0.137616
0.104907
0.064095
0.043410
0.144935
0.027188
0.067821
0.063254
0.079923
0.065609
0.098493
0.079255
0.172910
0.125766
0.116332
0.071655
0.112438
0.044819
0.133458
0.121817
0.033465
0.100342
0.026353
0.095988
0.129998
0.100522
0.051343
0.195674
0.066270
0.121573
0.076014
0.074146
0.007771
0.075972
0.045667
0.011197
0.117476
-0.031711
0.080877
0.107115
0.102197
0.032047
0.069793
0.124649
0.187865
0.016855
0.124078
0.061584
0.095978
0.131006
0.129633
0.112880
0.092654
0.056334
0.075199
0.115822
0.086002
0.165958
0.095683
0.112716
0.100893
0.073876
0.126975
0.094673
0.109845
0.034806
0.170251
0.088149
0.114939
0.177677
0.168034
0.200230
0.154377
0.193946
0.238010
0.237265
0.235676
0.232704
0.244206
0.324711
0.293102
0.333977
0.242844
0.368015
0.283112
0.171183
0.162491
0.294682
0.267630
0.218253
0.205869
0.201089
0.215616
0.160537
0.118902
0.149494
0.124575
0.097281
0.101265
0.146421
0.120661
0.075973
0.084306
0.073950
0.084177
0.090252
0.046597
0.064429
0.067192
0.102390
0.026326
0.101991
0.033689
0.088779
0.034966
0.073333
0.025223
0.075509
0.085682
0.062552
0.106363
0.080776
0.089512
0.034756
0.095466
0.080799
0.032989
0.061012
0.111499
0.067683
0.009016
0.041703
0.110865
-0.135041
-0.032718
0.001672
-0.069163
0.121359
0.234106
0.554440
0.936739
1.222673
1.372893
1.480505
1.421970
1.124830
0.829006
0.512982
0.264037
0.074704
-0.166718
-0.262597
-0.198552
-0.332872
-0.336431
-0.109474
-0.051057
0.001401
0.057020
0.087637
0.051670
0.030286
0.086576
0.128188
0.095432
0.070327
0.112949
0.017527
0.078444
0.062648
0.037820
0.091971
0.088553
0.091219
0.102638
0.053130
0.039069
0.117682
0.079719
0.064569
0.048245
0.065138
0.107031
0.115978
0.023843
0.081967
0.119756
0.092910
0.105918
0.051566
0.060038
0.151183
0.140709
0.048224
0.151350
0.177139
0.146684
0.160300
0.195690
0.256287
0.203096
0.289370
0.301413
0.329393
0.377366
0.376532
0.359914
0.383418
0.374617
0.486564
0.433459
0.389769
0.581265
0.474332
0.486191
0.462460
0.535634
0.491485
0.573127
0.517693
0.531312
0.493634
0.448031
0.483636
0.507163
0.467711
0.461209
0.452820
0.463879
0.433662
0.451491
0.329028
0.379409
0.384671
0.361101
0.245880
0.316650
0.294657
0.217288
0.267011
0.257503
0.169207
0.212333
0.152757
0.091493
0.153746
0.153290
0.052429
0.063060
0.071491
0.109521
0.028681
0.025041
0.038051
-0.026541
0.028261
0.067284
0.003802
0.073639
0.017886
0.041734
0.083802
0.025007
-0.080441
-0.089981
-0.009965
0.036039
-0.034260
0.022765
-0.060983
0.018635
-0.056971
0.053482
-0.026542
0.010815
-0.104914
-0.064029
-0.001729
0.039566
0.038347
0.015504
-0.022867
-0.061576
0.040590
-0.038188
-0.010455
0.052984
-0.029590
-0.077870
-0.051418
-0.050746
0.011054
-0.019405
-0.060243
-0.050507
-0.094656
-0.001898
-0.049278
-0.048797
-0.041081
0.018790
-0.088615
-0.057279
-0.016733
-0.102333
-0.121885
-0.001728
-0.017690
0.042618
-0.002872
-0.039781
-0.074668
-0.039753
-0.031223
-0.117257
-0.107221
-0.047929
-0.029249
-0.004941
-0.042450
0.001254
0.011344
0.009783
-0.038712
-0.061319
-0.077327
-0.013485
-0.016693
-0.029659
-0.019185
-0.033617
-0.061159
-0.010977
-0.003063
-0.092011
-0.051999
-0.100305
-0.074421
-0.044743
0.001090
-0.081906
-0.095466
-0.088294
-0.022926
0.011294
-0.133376
-0.004366
-0.059315
-0.060805
-0.089420
-0.151053
-0.046139
-0.065800
-0.134212
-0.017289
-0.123220
-0.017517
-0.100479
-0.060495
-0.152540
-0.076652
-0.004955
-0.109014
-0.059345
-0.088757
-0.030536
-0.021188
-0.074923
-0.050030
-0.006823
-0.019580
-0.027811
-0.011264
0.073193
0.027827
0.059909
0.066868
0.104980
0.014466
0.058231
0.021476
0.041217
0.076276
0.127022
0.098880
0.172677
0.124113
0.109615
0.043957
0.103578
0.115335
0.064138
0.098151
0.113343
0.117653
0.020770
0.010349
0.104803
0.068836
0.021740
-0.021585
-0.041741
-0.002052
-0.049401
-0.170425
-0.084724
-0.033578
-0.060181
-0.043484
-0.071430
-0.052948
-0.061593
-0.102860
-0.106421
-0.007170
-0.057870
-0.081781
-0.009715
-0.104147
-0.142022
-0.057626
-0.058738
-0.043924
-0.082069
-0.089912
-0.079013
-0.025852
-0.093019
-0.072865
-0.069963
-0.049883
-0.118622
-0.038099
-0.037013
-0.105052
-0.128334
-0.087253
-0.116023
-0.083398
-0.144494
-0.257010
-0.254933
-0.215285
-0.141468
0.164073
0.472551
0.671362
1.042586
1.298735
1.360496
1.331881
1.104281
0.728784
0.424203
0.217986
-0.076455
-0.133332
-0.425475
-0.453938
-0.458697
-0.346942
-0.290964
-0.223672
-0.097135
-0.002441
-0.067829
-0.109184
-0.079873
-0.078637
-0.063686
-0.108139
-0.147162
-0.113376
-0.065135
-0.046115
-0.108352
-0.090304
-0.087236
-0.151524
-0.094407
-0.014899
-0.092449
-0.077161
-0.089066
-0.105092
-0.029612
-0.038638
0.028037
-0.014658
0.005052
-0.107821
0.006300
-0.084415
0.019272
-0.138988
-0.028935
0.057963
0.045510
0.002813
0.048874
0.034678
0.019625
0.070203
0.001062
0.078223
0.061033
0.148880
0.149980
0.195676
0.295379
0.241075
0.287140
0.291239
0.189943
0.355641
0.352238
0.353744
0.279278
0.363821
0.432814
0.422313
0.436718
0.334904
0.409940
0.422337
0.437190
0.422479
0.390790
0.388103
0.485554
0.442393
0.439103
0.334758
0.352069
0.381189
0.351209
0.309587
0.362196
0.280869
0.160039
0.285480
0.222051
0.226691
0.160069
0.233934
0.130564
0.162177
0.118349
0.140675
0.125035
0.048578
-0.003828
0.004176
0.012959
0.005253
-0.120592
-0.034841
-0.014129
-0.034494
-0.026578
-0.011940
-0.073272
-0.022520
-0.009076
-0.000803
-0.087008
-0.036671
-0.075933
-0.073669
-0.014156
-0.005842
0.054724
-0.052889
-0.101856
-0.024775
-0.008539
-0.013771
-0.012521
-0.000536
-0.091347
-0.066706
-0.073762
-0.065049
0.037584
0.096736
-0.072339
-0.074176
-0.046209
-0.050678
0.007850
-0.056907
-0.067428
-0.070985
0.043469
0.022573
-0.025018
0.046074
-0.013915
-0.043202
-0.013491
-0.005823
-0.064935
0.030729
-0.079702
-0.048648
0.011421
-0.036848
-0.008179
-0.007058
-0.033894
0.018514
0.035741
-0.023062
-0.029513
-0.019900
-0.012358
-0.019037
-0.060167
0.008811
-0.118793
-0.124499
-0.009859
-0.021588
-0.029318
0.032422
0.022991
-0.060898
0.023825
-0.007996
-0.042768
-0.079269
0.013629
-0.020045
-0.026841
-0.094879
0.003590
-0.012954
0.023985
-0.032430
-0.013422
-0.043756
0.012601
-0.000265
0.019745
0.021152
-0.008905
0.017342
-0.002511
0.025257
-0.033080
-0.008022
0.072603
-0.023369
-0.009659
0.042516
0.071674
-0.013846
-0.040670
0.052381
0.008624
-0.064994
0.072720
0.041932
-0.039524
0.003780
-0.076965
0.105051
0.006201
-0.036476
0.036964
0.023314
-0.012395
0.040140
0.072697
-0.008439
0.006472
-0.004875
0.025707
0.059129
0.058162
0.099026
0.033894
0.127377
0.097788
0.141452
0.116751
0.187528
0.093785
0.128467
0.121024
0.221466
0.199464
0.141250
0.196300
0.230681
0.285209
0.196586
0.203013
0.169130
0.194310
0.150349
0.114140
0.145799
0.274740
0.087744
0.086887
0.153846
0.094181
0.073998
0.033234
0.028660
0.099012
0.092028
0.011089
0.018747
0.084184
0.073791
0.002332
0.069292
0.013826
0.006810
0.074074
0.091456
0.061105
0.045687
0.036165
0.106614
0.052249
-0.043228
-0.042660
0.020727
-0.018873
-0.015640
0.023010
-0.071404
0.013628
-0.020261
0.051357
0.013918
0.045957
0.037780
-0.061532
0.001432
-0.029757
-0.004106
-0.023611
-0.133274
-0.073778
-0.060301
0.011018
0.216713
0.497068
0.866757
1.133954
1.350735
1.500000
1.409998
1.182979
0.899677
0.558375
0.361384
0.150048
-0.148634
-0.224300
-0.239713
-0.260471
-0.151426
-0.210250
-0.002728
-0.026521
-0.043975
-0.005766
0.044382
0.023048
0.093721
0.069076
0.003968
0.058781
0.148982
0.068039
-0.026493
0.055553
0.017053
0.077484
-0.006674
0.031811
0.045746
0.013665
0.023771
0.024575
0.076817
0.072047
0.069982
0.044868
0.114040
0.059511
0.119902
0.008274
0.113788
0.057869
0.105952
0.048106
0.125123
0.139484
0.085943
0.191134
0.126038
0.174584
0.219851
0.257360
0.158580
0.253214
0.246358
0.310084
0.317808
0.268570
0.335076
0.394332
0.371080
0.318902
0.416502
0.373611
0.390913
0.500058
0.583520
0.522551
0.554902
0.539487
0.499156
0.577049
0.511194
0.601716
0.516784
0.479268
0.552601
0.494993
0.467592
0.574844
0.523243
0.519610
0.465509
0.504790
0.357488
0.412106
0.327466
0.334235
0.385740
0.292728
0.268068
0.320652
0.254288
0.329860
0.232584
0.262373
0.213714
0.167580
0.108090
0.155532
0.194297
0.206447
0.163788
0.154193
0.147076
0.090510
0.140381
0.123427
0.070584
0.134930
0.052533
0.087303
-0.020480
0.009248
0.082315
0.036219
0.041448
0.011010
0.011579
0.088247
0.012483
0.024074
0.018767
0.079008
0.065728
-0.018383
0.026085
0.121971
0.134842
0.079076
0.074230
0.023714
0.031679
-0.014534
-0.003750
0.141063
0.032952
0.047781
-0.034052
0.013907
-0.090666
0.025814
0.027617
0.040307
0.036969
0.000636
0.002849
0.070104
0.006084
0.068015
-0.008898
0.090986
0.068131
0.072555
0.038543
0.025826
-0.023742
0.041289
0.090857
-0.009145
0.081385
0.071714
-0.074483
0.001367
0.098174
0.045311
0.039458
0.059529
0.040865
0.037285
-0.053799
0.065565
-0.024195
-0.016367
0.050937
0.013277
-0.002036
0.149855
-0.000406
-0.006908
-0.041391
0.007366
-0.050494
-0.069886
-0.049656
0.024156
-0.040455
0.003103
0.007285
0.003433
0.011048
-0.043250
-0.004195
0.078521
-0.034227
-0.032050
-0.082161
-0.006831
0.005318
-0.009859
0.058406
-0.022751
-0.027518
0.012146
-0.008745
0.046940
-0.069661
0.010909
0.000735
0.044356
-0.055310
-0.022747
0.006716
0.020023
0.035558
0.016550
0.036228
-0.087022
-0.027234
-0.030969
-0.016767
0.003722
0.000328
-0.006787
0.044795
0.013395
0.039150
-0.053734
0.005626
0.095687
0.135584
0.079543
0.000607
0.135031
0.175716
0.097391
0.141717
0.129084
0.178720
0.167900
0.209345
0.098249
0.136380
0.104120
0.078843
0.095450
0.142788
0.187965
0.123216
0.128684
0.040815
0.138311
0.160035
0.131964
0.099853
0.052630
0.024452
0.060380
-0.063278
-0.050269
-0.089372
0.004851
-0.024961
-0.001000
-0.071361
-0.001589
-0.086539
-0.029035
-0.043018
-0.018677
-0.017689
-0.069009
-0.052835
-0.063854
-0.097676
-0.007727
-0.017409
-0.134142
-0.053834
-0.041237
-0.006169
-0.003722
-0.087576
-0.025565
-0.073497
-0.078647
-0.037674
-0.012376
-0.020056
-0.082317
-0.042149
-0.099669
-0.073778
-0.137163
-0.165627
-0.175257
-0.218248
-0.087450
0.079494
0.261753
0.658105
0.981719
1.251363
1.310299
1.377336
1.155933
0.794779
0.460782
0.246153
0.012992
-0.249960
-0.309497
-0.314125
-0.463552
-0.340668
-0.338475
-0.166358
-0.107495
-0.103268
-0.052777
-0.082351
-0.163504
-0.095595
-0.060494
-0.042294
-0.024390
-0.111270
-0.042567
-0.108953
-0.110153
-0.113467
-0.063567
-0.028693
-0.050265
-0.135689
-0.079983
-0.025788
-0.050882
-0.091652
-0.067016
-0.094106
-0.081721
-0.071779
-0.050497
-0.047485
-0.052187
-0.019587
-0.065420
-0.034683
-0.054035
-0.044598
-0.018288
0.056277
0.039432
-0.034037
-0.026010
0.011093
0.098421
0.110079
0.120313
0.055113
0.063409
0.162332
0.129638
0.155196
0.267088
0.290026
0.262587
0.323307
0.278390
0.374774
0.336723
0.396834
0.410927
0.351335
0.360508
0.433138
0.433350
0.492822
0.316193
0.343784
0.462932
0.474174
0.416698
0.423491
0.440044
0.327122
0.332654
0.418922
0.363143
0.286156
0.289400
0.319877
0.323987
0.308792
0.211965
0.230103
0.131274
0.136266
0.184937
0.051195
0.034341
0.073304
0.076310
0.106915
0.024181
-0.002248
-0.038226
-0.014962
-0.015269
-0.080989
-0.071103
-0.100573
-0.041813
-0.051259
-0.094248
-0.110850
-0.154111
-0.083709
-0.098528
-0.088778
-0.066340
-0.153964
-0.053168
-0.001139
-0.078535
-0.041486
-0.093531
-0.078998
-0.133274
-0.102604
-0.060044
-0.067469
-0.131441
-0.025419
-0.066681
-0.162657
0.003532
-0.115888
-0.098786
-0.160926
-0.172769
-0.093643
-0.081665
-0.083947
-0.078755
-0.136749
-0.074098
-0.061204
-0.039966
-0.104895
-0.050552
-0.124721
-0.005027
-0.118092
-0.154088
-0.095781
-0.129421
-0.082962
-0.117795
-0.111749
-0.091697
-0.134802
-0.091474
-0.124325
-0.073465
-0.060757
-0.099787
-0.054955
-0.098687
-0.105304
-0.122737
-0.144634
-0.038875
-0.129985
-0.118419
-0.090936
-0.027403
-0.112565
-0.081431
-0.033317
-0.079189
-0.139473
-0.024508
-0.134618
-0.044040
-0.103539
-0.113497
-0.047603
-0.104714
-0.038043
-0.051145
-0.089359
-0.097762
-0.045618
-0.035200
-0.082876
-0.092537
-0.082436
-0.100071
-0.026851
-0.112795
-0.135265
-0.042586
-0.088344
-0.087600
-0.011035
-0.079399
-0.066289
-0.007397
-0.073978
-0.098158
-0.041913
-0.105282
-0.051629
-0.134544
-0.017081
-0.056446
-0.042612
-0.219235
-0.086892
-0.052047
-0.056523
-0.018077
-0.031546
-0.126952
-0.126931
-0.051118
-0.075072
-0.048734
-0.010633
-0.132534
-0.046522
-0.066219
0.045993
0.057349
0.018990
0.021290
0.079577
0.007418
0.080198
0.004458
0.065716
0.078947
0.120149
0.089413
0.069372
0.126435
0.202845
0.123890
0.068220
0.148802
0.136872
0.075357
0.020310
0.125808
0.112017
0.099662
0.032448
0.062063
-0.062524
0.057543
0.029848
0.022586
0.008724
-0.030873
-0.069315
-0.051480
0.006534
-0.011451
-0.042501
-0.126848
-0.039820
-0.027777
-0.094804
-0.067759
-0.049991
-0.006316
-0.017584
-0.065499
-0.076041
0.031754
-0.008639
-0.082525
-0.008060
-0.122630
-0.061788
-0.051306
0.051289
-0.007331
0.008056
0.011018
-0.117526
-0.055027
-0.028261
-0.092896
-0.053719
-0.021173
-0.087782
-0.063115
-0.049897
-0.163360
-0.161504
-0.024882
0.035604
0.346742
0.683026
0.953236
1.294973
1.314537
1.374890
1.250420
0.946861
0.608626
0.338914
0.053934
-0.124548
-0.317331
-0.296169
-0.381932
-0.350777
-0.190532
-0.135840
-0.176858
-0.051668
-0.010135
0.004950
-0.017195
-0.069145
-0.025138
0.020033
-0.031085
0.002828
-0.018304
-0.015092
-0.001611
-0.119830
0.021024
0.001848
0.030184
0.002744
-0.031209
-0.103995
-0.077479
0.004475
0.000313
-0.040821
-0.036800
-0.011866
0.040272
0.065137
0.021925
-0.026339
0.082798
-0.031226
0.160336
0.106832
0.012615
0.083452
0.093583
0.177831
0.152663
0.123957
0.189747
0.147950
0.152831
0.299034
0.293176
0.286676
0.296210
0.353556
0.383848
0.371240
0.262339
0.406973
0.420170
0.446663
0.399030
0.405079
0.440090
0.486509
0.517412
0.566214
0.563489
0.516248
0.528590
0.488260
0.580619
0.595023
0.491533
0.500137
0.481240
0.486887
0.491915
0.411860
0.466474
0.484338
0.404245
0.364159
0.466698
0.352133
0.348055
0.322344
0.309608
0.292340
0.179492
0.248418
0.218334
0.180688
0.187115
0.182188
0.157797
0.135873
0.078835
0.114875
0.217576
0.110113
0.141973
0.021571
0.060259
0.015658
0.100821
0.110903
0.067126
0.042408
0.028602
0.089968
0.119333
0.089970
0.120532
0.020842
0.041115
0.011581
-0.004056
0.026418
0.058471
0.029974
0.087738
0.097966
0.063541
0.087987
0.063540
0.091415
0.070926
0.090025
0.009470
0.013851
-0.019768
0.043991
0.088742
0.037906
0.040721
0.037255
0.088950
0.029171
0.057141
0.050874
0.085729
0.038159
0.097767
0.078810
0.079321
0.023033
0.076521
0.094723
0.013519
-0.044397
0.050106
0.034529
0.148455
0.003164
0.132412
0.073687
0.070924
0.073437
0.127225
0.117769
0.010828
0.031953
0.120966
0.109103
0.037288
0.069956
0.056689
0.068256
0.065125
0.074765
0.058502
0.139778
0.087903
0.026456
0.020123
0.086783
0.107235
0.096713
0.057688
0.057609
0.036974
-0.027140
0.148849
0.058532
0.069633
0.037796
0.060095
0.092770
0.047637
-0.004748
0.077902
0.018101
0.112706
0.022282
0.030558
0.042552
0.104877
0.174528
0.071428
0.082622
0.116484
0.144077
0.122921
0.099152
-0.010663
0.096346
0.079600
0.146332
0.069070
0.069057
0.093864
0.126673
-0.001461
0.081513
0.062058
0.090710
0.029083
0.050015
0.013433
0.169727
0.127373
0.129216
0.172915
0.169832
0.192671
0.207418
0.131288
