0.051908
0.001651
0.033989
0.033922
-0.048585
-0.024410
0.011666
-0.037867
-0.012893
-0.044546
-0.059018
0.028017
0.022456
-0.034538
0.001493
-0.016800
0.026410
0.064873
-0.009574
0.081619
-0.015587
0.020120
0.065439
-0.016031
0.072622
-0.095087
0.038064
0.047976
0.046076
0.067140
-0.032085
-0.037538
0.027004
0.089511
0.021113
0.025283
0.085333
-0.074330
0.029198
0.050449
0.016452
-0.003820
0.092369
0.063799
0.019917
0.012367
0.043906
0.091529
0.091069
0.187391
0.056417
0.076233
0.147550
0.077740
0.247098
0.097069
0.149197
0.200361
0.279089
0.276934
0.166554
0.249090
0.201613
0.172806
0.147311
0.233403
0.200481
0.128045
0.192038
0.140272
0.144490
0.136701
0.169806
0.134499
0.056920
0.140035
0.144199
0.064810
0.132674
0.101858
0.120842
0.117533
0.098421
0.048998
0.111756
0.085104
0.032857
0.084266
0.032634
0.076553
0.028406
0.007414
0.104317
-0.000511
0.070179
-0.004763
0.127765
0.003635
0.016701
0.009343
0.042415
0.044234
0.124933
0.087437
-0.000807
0.133390
0.058433
0.067474
0.136523
0.098826
0.003462
0.069735
0.070584
0.028240
0.133380
0.064179
-0.008369
-0.076576
0.005412
-0.096319
-0.077939
-0.086538
-0.005158
0.330812
0.601233
1.025826
1.211973
1.443102
1.389298
1.331158
1.142534
0.851402
0.544491
0.245078
0.085923
-0.081397
-0.239973
-0.244801
-0.280827
-0.168621
-0.138987
-0.071185
0.024395
0.052362
0.077012
0.070165
0.077061
0.074902
0.068337
0.054628
0.052047
0.009678
0.072045
0.079535
0.083121
0.124910
0.045635
0.039892
0.035455
0.156150
0.130141
0.090729
0.061397
0.112660
-0.012138
0.009852
0.117953
0.076418
0.078298
0.081338
0.070743
0.168077
0.105593
0.105078
0.070763
0.162031
0.271697
0.131765
0.163264
0.241381
0.180246
0.185996
0.220847
0.196126
0.187701
0.264755
0.321012
0.314044
0.314839
0.381080
0.280374
0.328720
0.324660
0.414401
0.432380
0.425700
0.510324
0.518033
0.409929
0.559302
0.507268
0.451411
0.592875
0.580240
0.551004
0.584661
0.540284
0.613178
0.581415
0.618090
0.632497
0.661709
0.578284
0.559253
0.601302
0.467753
0.493425
0.502451
0.387016
0.495019
0.366765
0.394667
0.436824
0.328392
0.353898
0.377639
0.319374
0.292527
0.320339
0.299921
0.262471
0.203741
0.249136
0.201900
0.191992
0.222180
0.139257
0.189678
0.166443
0.157499
0.132450
0.135566
0.030501
0.096151
0.014687
0.076344
0.077938
0.175904
0.036327
0.052826
0.048675
0.041929
0.020591
0.001334
0.161484
0.104124
0.059775
0.139646
0.094293
0.093025
0.057234
0.155864
0.089105
0.170965
0.031886
0.119742
0.049961
0.047966
0.107415
0.123277
0.109673
0.070683
0.047397
0.086203
0.001081
0.065891
0.127116
0.033851
0.134034
0.115110
0.142917
0.024649
0.096610
0.054929
-0.011044
0.073916
0.048343
0.073081
0.030416
0.096391
0.026901
0.134489
0.020162
0.057129
0.061003
0.091845
0.123774
0.066094
0.053013
0.064257
0.096828
0.003589
-0.008915
0.002615
0.138172
0.033911
0.051983
0.037625
0.115892
0.101091
0.070093
0.008471
0.050085
0.079363
0.081550
-0.001160
0.018570
0.089311
0.023048
0.066794
0.082731
0.074195
0.015641
0.001913
0.041187
0.032795
0.084780
0.035085
0.080495
0.040725
0.039644
0.068388
0.137910
0.047679
-0.008202
-0.002765
0.038210
0.058053
-0.010859
0.066780
0.046330
0.087943
0.037344
0.058057
-0.006299
0.029055
0.071660
0.029792
-0.044009
-0.007632
0.000514
0.059097
0.023416
0.079605
0.062832
0.067458
-0.011251
0.021611
0.028638
0.062380
0.106604
0.124714
0.082019
-0.043945
0.107046
0.069718
0.062925
0.139677
0.075578
0.041039
0.127739
0.141538
0.083660
0.123955
0.141697
0.120954
0.188169
0.081274
0.161045
0.092351
0.180866
0.183153
0.178322
0.180516
0.229435
0.190044
0.251692
0.145966
0.174415
0.107821
0.160983
0.116746
0.156122
0.118242
0.126677
0.085066
0.127521
0.018568
0.133393
0.081380
0.031104
0.045709
0.063986
0.067805
-0.082611
-0.000706
0.008926
0.023501
-0.015296
0.033859
0.000404
-0.046655
0.026800
0.045052
-0.030481
-0.058057
0.037397
0.017419
-0.061272
-0.021852
0.086499
0.014439
0.040266
-0.056050
0.003490
0.019223
-0.085265
-0.064518
0.000161
-0.070131
-0.012609
0.012438
0.007394
-0.101841
-0.098614
-0.123072
-0.021822
-0.093759
-0.147812
-0.173260
-0.044403
0.010225
0.254337
0.509590
0.828799
1.117107
1.324401
1.456785
1.279405
1.010197
0.702523
0.384242
0.237898
0.038865
-0.252676
-0.272526
-0.355623
-0.338050
-0.309324
-0.209058
-0.166976
-0.096874
-0.132982
0.027804
-0.128958
-0.068362
-0.018120
-0.060577
-0.109447
0.000461
-0.052030
-0.046552
-0.030436
0.009691
-0.091285
-0.033091
0.001841
-0.053999
-0.060015
0.058927
-0.053749
-0.094136
-0.078943
0.074280
-0.048576
0.021350
-0.077839
-0.059028
-0.019422
0.033978
0.036350
-0.005517
0.028259
0.068284
-0.039932
0.034044
0.049027
-0.010407
0.030940
0.014063
0.047866
0.047441
0.156992
0.090994
0.075991
0.134701
0.124738
0.167016
0.227650
0.199452
0.213011
0.189185
0.260329
0.315925
0.335186
0.338846
0.339325
0.361308
0.361486
0.399405
0.429084
0.374836
0.488955
0.411381
0.494896
0.466892
0.440794
0.440237
0.402094
0.450953
0.408590
0.394478
0.473178
0.380734
0.370886
0.396286
0.370479
0.328728
0.255759
0.284054
0.271768
0.318216
0.309771
0.215862
0.224813
0.186968
0.212202
0.166399
0.165072
0.211452
0.100849
0.104020
0.044888
0.082626
0.079334
0.021172
-0.023468
-0.034264
0.026103
0.009759
-0.108181
0.032256
-0.052586
-0.026448
0.014620
0.014956
-0.003237
-0.052576
0.015313
0.064804
-0.031933
-0.032509
0.007206
0.008584
0.033956
-0.105738
-0.063186
-0.037125
-0.060996
0.009697
-0.012133
-0.038991
-0.012451
-0.041556
-0.071819
-0.008160
-0.076627
-0.014504
-0.067459
-0.085032
0.000688
-0.009156
-0.037281
-0.003849
-0.066436
-0.086166
0.020371
-0.151053
-0.014735
-0.061443
-0.072204
0.013083
-0.013867
0.028995
-0.039109
0.011210
-0.093905
-0.023279
-0.050681
-0.088636
-0.099709
-0.042639
-0.024704
-0.002820
-0.040295
-0.026044
-0.005537
0.032203
-0.009331
-0.108247
-0.089452
-0.052042
0.055127
0.044921
-0.058267
0.001581
-0.063326
-0.063433
-0.054422
-0.078788
-0.030053
0.029065
-0.033321
-0.044928
-0.065515
-0.083778
-0.063549
-0.100510
0.031383
-0.109921
-0.091901
-0.076479
-0.005135
0.046248
0.018128
-0.043856
-0.065399
-0.052395
-0.010832
-0.069349
0.036175
0.006448
0.023970
-0.089614
0.004248
-0.034357
-0.011626
-0.035037
-0.144148
-0.012004
-0.011745
-0.102564
-0.041936
0.035454
-0.076455
-0.040125
-0.016423
-0.071207
-0.067745
-0.032876
-0.063989
-0.050099
-0.071641
-0.081374
-0.028544
-0.032404
-0.026952
-0.070086
0.012649
-0.055760
0.067376
-0.052599
-0.024303
-0.070984
0.026216
0.103953
0.061707
0.081724
0.063164
0.039940
0.150115
0.117548
0.112977
0.094819
0.176351
0.065935
0.119071
0.157138
0.138463
0.192587
0.199686
0.172809
0.188745
0.095667
0.126145
0.102984
0.155417
0.059758
0.090322
0.176857
0.086356
0.081894
0.162841
0.119801
0.029916
0.056850
-0.010533
0.024961
0.053196
0.048765
0.031486
0.026744
0.055168
0.042871
0.125692
0.021423
0.051178
0.015345
-0.006517
0.008722
-0.011701
-0.038626
0.033296
0.014964
0.016036
-0.094205
-0.009936
0.036997
0.058277
0.005825
0.042845
0.008870
0.022695
0.065287
-0.013687
-0.043157
-0.017086
-0.002401
-0.011246
0.111630
0.051535
0.029343
0.011687
-0.048329
0.010864
0.072994
-0.050318
-0.053316
-0.026194
-0.121373
0.066346
0.206421
0.454882
0.727196
1.133836
1.363888
1.498874
1.328862
1.187247
0.888361
0.650766
0.195403
0.084675
-0.058007
-0.167077
-0.342805
-0.218779
-0.294401
-0.186732
-0.107794
0.018125
0.001830
0.000659
0.041445
0.021548
0.051023
0.004376
0.136780
0.053734
-0.001708
0.032765
0.118992
0.007046
0.104185
0.071237
0.045645
0.103868
0.042423
0.073856
0.059472
0.068979
0.107271
0.078762
0.006591
0.036779
0.075461
0.026050
0.194833
0.048526
0.025089
0.032159
0.061218
-0.004363
0.057652
0.160673
0.108198
0.125468
0.152191
0.118395
0.052971
0.152249
0.164343
0.168704
0.320236
0.212949
0.308650
0.319059
0.329212
0.342523
0.297256
0.316427
0.338934
0.388671
0.426660
0.374621
0.437852
0.509377
0.464263
0.483669
0.499562
0.554263
0.548738
0.541890
0.504794
0.481623
0.589826
0.511018
0.563835
0.555450
0.519660
0.591916
0.635747
0.518910
0.577238
0.494809
0.485877
0.468507
0.446049
0.360156
0.347618
0.330198
0.304387
0.331517
0.306052
0.228178
0.275389
0.288179
0.317055
0.240584
0.261867
0.182069
0.155104
0.249146
0.168764
0.139484
0.150526
0.145477
0.105014
0.138663
0.118325
0.111157
0.198592
0.150343
0.080094
0.137402
0.081809
0.148013
0.142384
0.136943
0.065528
0.139601
0.081091
0.089303
0.053570
0.089689
0.134791
0.076935
0.085525
0.049916
-0.005004
0.104392
0.052266
0.113312
0.067633
-0.024728
0.132475
0.075481
0.176412
0.054082
0.103495
0.140954
0.045873
0.083133
0.090327
0.137164
0.104570
0.086570
0.128563
0.076999
0.087482
0.143494
0.032435
0.054491
0.018976
0.066261
0.051686
0.119882
0.066410
0.144337
0.061812
0.067130
0.177003
0.087312
0.007902
0.069571
0.119870
0.112083
0.092702
0.075155
0.015751
0.085884
0.053897
0.075952
0.138949
0.114006
0.049521
0.116126
0.068413
0.024007
0.121295
0.040658
0.038900
0.119299
0.107659
0.117158
0.060192
0.123806
0.080279
0.099261
0.178214
0.139298
0.098340
0.109928
0.054937
0.147585
0.055972
0.121754
0.066598
0.064465
0.033747
0.006412
0.110291
0.137079
0.051721
0.062029
0.111942
0.030704
0.115758
0.072565
0.077151
0.091245
0.107832
0.098369
0.058601
0.109712
0.022268
0.125643
0.090761
0.033733
0.123426
0.085105
0.049230
0.186314
0.119861
0.025621
0.068732
0.036613
0.106464
0.055267
0.132324
0.089646
0.096698
0.074412
0.065832
0.153357
0.057514
0.162432
0.140149
0.118008
0.142183
0.114474
0.187863
0.138397
0.148577
0.171790
0.216122
0.178422
0.247839
0.291165
0.188907
0.226537
0.226373
0.152722
0.225535
0.255027
0.166407
0.179799
0.241996
0.222977
0.139061
0.218689
0.270038
0.188596
0.089994
0.129498
0.180212
0.136242
0.142281
0.061744
0.145863
0.059697
0.071702
0.085303
0.015952
0.012622
0.025279
0.070305
0.023127
0.068322
-0.002599
0.094002
0.033725
0.043870
0.007390
0.074764
0.028337
0.105125
0.104350
0.089256
0.094684
0.077537
0.086202
0.031434
0.089745
0.033805
0.026827
-0.012792
0.050775
0.077983
0.045099
0.086875
0.023995
0.022761
0.028986
0.031595
-0.051855
-0.102825
-0.147458
-0.202493
0.039680
0.239594
0.473058
0.774108
1.100063
1.301829
1.409695
1.386670
1.171600
0.938675
0.555084
0.317717
0.085217
-0.095261
-0.218112
-0.317352
-0.307441
-0.235369
-0.185523
-0.105502
-0.032906
-0.029241
0.125452
0.014150
0.033659
-0.023341
-0.065201
0.040268
-0.010684
-0.007237
0.028637
0.041595
-0.021364
-0.024979
0.008272
0.064698
0.077634
-0.011419
0.039779
-0.020298
0.036390
0.047752
0.097884
0.038224
0.047811
0.072821
0.003430
0.089306
0.036445
0.032674
0.104099
0.022268
0.000995
0.071298
0.058501
0.033666
0.029400
0.086910
0.146629
0.074332
0.084719
0.151569
0.119258
0.150247
0.144825
0.206477
0.211997
0.228070
0.191925
0.312916
0.296453
0.336275
0.384082
0.301248
0.312832
0.375068
0.404860
0.377334
0.493067
0.397584
0.395539
0.447548
0.468679
0.486435
0.509799
0.564039
0.477080
0.480219
0.477258
0.415714
0.425639
0.439492
0.410465
0.422593
0.404028
0.400462
0.326087
0.372399
0.330072
0.274901
0.288050
0.327224
0.267905
0.302065
0.185811
0.175127
0.195602
0.209413
0.056853
0.165817
0.016811
0.144195
0.073877
0.134389
0.009155
0.064171
0.045795
0.009219
-0.005196
0.021464
0.027830
0.037704
-0.009054
0.052482
-0.006823
-0.031300
-0.056409
-0.094976
-0.042591
0.045439
-0.048226
-0.036611
-0.023492
-0.103990
-0.105586
-0.052497
-0.016538
-0.086847
-0.050055
-0.129857
-0.070687
-0.057758
-0.025519
-0.067553
-0.041676
-0.040409
-0.086388
-0.037112
-0.090179
-0.059554
-0.033292
0.013900
-0.087156
-0.070651
-0.041484
-0.041611
-0.035775
-0.093515
-0.073791
-0.050280
-0.069479
-0.073989
-0.051134
0.012226
-0.137846
-0.087854
-0.044074
-0.111837
-0.051231
-0.035528
-0.039004
-0.168948
-0.033534
-0.049143
-0.036898
-0.088272
0.011120
-0.012699
-0.087412
-0.083616
0.012060
-0.033693
0.013590
-0.091969
-0.129869
-0.008540
-0.068503
-0.156876
0.004683
-0.070954
-0.068702
-0.103955
-0.073858
-0.170780
-0.048804
-0.141615
0.009990
-0.035678
-0.107640
0.002918
-0.070165
-0.078594
-0.038576
-0.019594
-0.125943
-0.064567
-0.120987
-0.147777
-0.092239
-0.063312
-0.080620
-0.054409
-0.112342
-0.116798
-0.077130
-0.090403
-0.154859
-0.056728
-0.068199
-0.082783
-0.013669
-0.162966
-0.002337
-0.048187
-0.120794
-0.142842
-0.055137
-0.077690
0.029438
0.003957
-0.068512
-0.078634
-0.113579
-0.106783
-0.048353
-0.077752
-0.037043
-0.074373
-0.063887
-0.129683
-0.081165
-0.071507
-0.088781
-0.046437
-0.017503
-0.022113
-0.035361
-0.027393
0.058276
0.039815
-0.016327
0.051262
0.041366
0.097572
0.024487
0.042403
0.108616
0.021604
0.099857
0.073522
0.053128
0.094552
0.148692
0.143195
0.075295
0.076378
0.050652
0.073336
0.027930
0.082291
0.078264
0.046937
0.068567
0.036953
0.004032
-0.113939
-0.016465
-0.010171
-0.021672
-0.089730
-0.050551
-0.042210
-0.007003
-0.032838
-0.038035
-0.063009
-0.039887
-0.045669
-0.049947
-0.015688
-0.128179
-0.076202
-0.115001
-0.066530
-0.051720
-0.141735
-0.060566
-0.091907
-0.138005
-0.111171
-0.099116
-0.102443
-0.132373
-0.078736
-0.083046
-0.120729
-0.017977
-0.112714
-0.025587
-0.133753
-0.081945
-0.150974
-0.006182
-0.112862
-0.089043
-0.147615
-0.180989
-0.245844
-0.193807
-0.064433
0.046752
0.273730
0.593217
0.980533
1.237761
1.433279
1.325851
1.092639
0.819082
0.597079
0.304473
0.098794
-0.131878
-0.213919
-0.390405
-0.448222
-0.338514
-0.326042
-0.207335
-0.098944
-0.055801
-0.078991
-0.068448
-0.063624
-0.059341
-0.078057
-0.043315
-0.122473
-0.051753
-0.054497
-0.049603
0.045818
-0.047489
-0.086082
0.036804
-0.057305
-0.115559
-0.037352
-0.069730
-0.043145
-0.113928
-0.070542
-0.048059
-0.012829
-0.007474
-0.012141
0.011549
-0.050664
0.005345
0.009715
0.005502
-0.005309
0.064950
-0.077682
-0.035692
0.021187
0.035444
0.061836
0.072527
0.041708
0.066145
0.093604
0.130599
0.098338
0.078956
0.179472
0.185297
0.196140
0.149796
0.196930
0.251449
0.326943
0.300170
0.326064
0.329948
0.392452
0.419930
0.374985
0.444425
0.446274
0.402355
0.449530
0.459665
0.502175
0.415319
0.473949
0.496648
0.450828
0.445443
0.425239
0.410570
0.422947
0.464218
0.440099
0.324641
0.310766
0.382216
0.407850
0.309327
0.315499
0.261749
0.244594
0.263223
0.222178
0.172394
0.125562
0.139124
0.222758
0.151523
0.071130
0.106577
0.027926
0.050458
0.081324
0.052705
-0.055416
-0.006708
0.061529
-0.038946
0.014176
0.036651
0.068380
0.031870
0.034270
-0.016298
-0.049711
0.011075
-0.011058
0.002787
-0.034959
-0.066753
-0.114996
0.013487
-0.028258
0.021189
0.057944
-0.001601
0.016215
-0.034810
-0.011092
0.028870
-0.006127
-0.030306
-0.010127
0.040567
-0.035752
0.031200
-0.062474
0.044241
-0.019200
0.013166
0.014313
-0.011806
-0.004188
0.009980
-0.077597
-0.034885
-0.038208
0.021393
-0.041290
0.086252
-0.026273
-0.043685
-0.105001
0.031659
-0.018033
0.026510
-0.060631
0.084063
-0.050141
0.072650
0.055567
-0.011143
-0.039809
-0.002316
0.038191
-0.027985
0.012988
0.046003
0.015949
0.037811
0.074601
-0.042019
-0.004195
0.016390
0.017712
-0.004350
-0.001048
0.051916
0.050197
-0.043263
-0.016193
0.103523
0.011252
0.076263
0.016278
0.068115
0.044651
0.046300
-0.003862
0.013768
0.103308
0.027705
-0.037925
0.005215
0.039130
0.037950
0.008902
0.040205
0.074948
-0.002998
0.059900
-0.021796
0.097595
-0.024514
0.078378
-0.006991
0.013526
-0.021787
0.091282
-0.001167
0.017544
0.028792
0.031436
0.082263
0.087087
0.049411
-0.004143
0.047768
0.038421
0.162087
0.030064
-0.013896
0.062243
0.065037
-0.015881
0.088260
0.090655
0.034839
-0.023144
0.039002
-0.005188
0.092485
0.099194
0.080973
0.006751
0.124463
0.072144
0.160783
0.090987
0.156760
0.120439
0.126457
0.211640
0.153236
0.280946
0.197886
0.221404
0.199422
0.214206
0.256702
0.226293
0.213805
0.232843
0.155945
0.213761
0.168879
0.180241
0.232377
0.169278
0.232638
0.186328
0.076450
0.116865
0.105977
0.075813
0.070591
0.035279
0.090394
0.076718
0.048359
0.031252
0.029678
0.021770
0.051369
-0.002591
-0.069800
0.080770
0.010221
0.114845
0.039191
0.058133
0.043889
0.069644
0.074156
0.067419
0.161680
0.073863
0.037043
0.084556
0.043172
0.050105
0.119127
-0.009697
0.017693
0.072149
-0.013884
0.059999
0.094854
-0.002686
0.011520
0.029533
0.027634
0.048338
0.007889
-0.017733
-0.102837
-0.087967
-0.082496
0.108396
0.385154
0.686487
1.054451
1.275730
1.500000
1.409686
1.233188
1.041771
0.636885
0.429976
0.083619
0.001246
-0.180481
-0.275175
-0.307297
-0.302339
-0.141221
-0.149010
-0.054614
0.042906
-0.018701
0.049822
0.019864
0.054455
0.052290
0.021992
0.084955
0.017619
-0.056066
0.026337
0.073696
0.059678
0.013119
0.075514
0.006282
0.079385
0.010801
0.107138
0.039125
0.066768
0.122586
0.055718
0.041582
0.074053
0.097199
0.021114
-0.017562
0.099675
0.118302
0.169530
0.105696
0.127333
0.014224
0.098943
0.068525
0.119556
0.184004
0.091260
0.132862
0.145885
0.141594
0.153738
0.198643
0.216751
0.300670
0.238701
0.288010
0.284517
0.221449
0.224301
0.287219
0.287608
0.324036
0.436263
0.482519
0.391076
0.363274
0.456463
0.451017
0.573880
0.492053
0.507700
0.427344
0.461876
0.472469
0.487796
0.521682
0.462218
0.494871
0.361334
0.460949
0.486733
0.381384
0.466124
0.465104
0.423901
0.416907
0.333658
0.449887
0.326017
0.240717
0.306390
0.216614
0.223699
0.213089
0.145321
0.263173
0.113888
0.199920
0.195461
0.108830
0.076936
0.135588
0.113292
0.097767
0.015295
0.008665
-0.009102
0.077069
0.007522
0.086849
-0.043545
0.037064
0.068929
0.024701
0.005942
0.040553
0.047232
0.027977
0.015062
-0.012776
0.090518
0.087449
-0.045207
0.060029
-0.056556
-0.016074
0.003533
0.004352
-0.024120
0.014607
0.059975
0.026043
0.031620
0.004779
0.033081
-0.027650
0.005908
-0.021682
0.059654
-0.059526
-0.000876
-0.049742
-0.006721
0.115943
-0.012696
0.011273
0.012658
-0.050761
-0.004196
0.016859
0.041027
-0.046735
-0.028043
0.007332
-0.101870
0.002267
0.043321
-0.036379
-0.046920
-0.065867
-0.012412
-0.074438
0.012569
-0.079471
-0.013473
0.064151
-0.004409
-0.025679
-0.027228
-0.054038
0.018926
-0.107302
-0.013479
-0.070555
-0.030475
-0.060067
0.009554
0.013779
-0.054341
-0.020410
0.033690
0.036161
-0.014369
-0.044550
-0.051129
-0.067367
-0.139305
-0.013070
0.018302
-0.000963
0.010920
-0.055944
-0.055171
-0.034126
-0.031636
-0.035612
-0.060732
-0.051918
0.032823
0.015093
-0.014707
-0.043879
-0.083654
-0.005759
-0.094849
-0.030906
-0.058871
-0.016954
-0.063450
-0.047475
0.008761
-0.017352
0.082484
-0.008816
-0.041735
-0.002589
-0.056743
-0.035697
-0.064714
0.049630
-0.027470
-0.011480
-0.012796
-0.044774
-0.023116
-0.044308
-0.019978
-0.057167
-0.034769
-0.023845
0.019477
0.027788
-0.002351
-0.035135
-0.006618
-0.134168
-0.054446
0.002859
-0.029288
0.094301
0.070323
0.103006
0.089213
0.107918
0.061310
0.091498
0.122335
0.064838
0.102615
0.133030
0.141950
0.159850
0.020215
0.051466
0.035454
-0.000376
0.053911
-0.031842
-0.009648
0.104073
0.076846
0.044679
-0.117277
0.037496
-0.064952
-0.048999
-0.062249
-0.067601
-0.054492
-0.063996
-0.087125
0.027406
-0.058425
-0.033707
-0.031231
-0.039204
-0.029712
-0.075748
-0.056414
-0.042056
-0.090050
-0.029817
-0.018462
-0.087024
-0.087928
-0.143068
-0.001917
-0.071208
-0.045894
-0.070133
-0.114225
-0.085998
-0.090531
-0.128757
-0.149187
-0.148161
-0.168952
-0.075135
-0.065738
-0.029860
-0.173252
-0.125323
-0.115248
-0.156961
-0.263766
-0.135366
-0.161058
-0.010154
0.179447
0.521859
0.868250
1.084891
1.282087
1.248274
1.161548
0.937129
0.604005
0.319516
0.133484
-0.108506
-0.326386
-0.392270
-0.426033
-0.462341
-0.289212
-0.322175
-0.227371
-0.170979
-0.117274
-0.078685
-0.079481
-0.084965
-0.102276
-0.033964
-0.068985
-0.122031
-0.123770
-0.062307
-0.101282
-0.067510
0.000742
-0.120820
-0.131671
-0.019862
-0.151807
-0.113503
-0.031252
-0.042381
-0.066621
-0.013236
-0.107902
-0.097343
-0.127023
-0.039146
-0.133524
-0.053069
-0.075536
-0.021192
-0.076289
-0.045993
-0.078537
-0.018808
-0.003887
-0.001748
-0.030273
0.020564
-0.026464
-0.012675
-0.010968
0.066419
0.032765
0.122579
0.054872
0.146426
0.139639
0.185139
0.152239
0.175816
0.221116
0.293120
0.321572
0.327627
0.378249
0.255035
0.401873
0.289352
0.330592
0.402811
0.447019
0.477164
0.367768
0.377347
0.384912
0.468631
0.440671
0.404761
0.302223
0.424043
0.425100
0.259654
0.374628
0.362319
0.334064
0.287700
0.278921
0.278537
0.236042
0.190249
0.301877
0.140070
0.143328
0.117993
0.167800
0.113177
0.032179
0.016612
0.062682
-0.005446
0.001036
-0.014895
-0.018840
0.071501
-0.022931
-0.056339
0.013636
-0.050600
-0.085054
-0.019351
-0.145330
-0.014128
-0.085901
-0.142539
-0.139634
-0.087101
-0.005886
-0.120934
-0.019451
-0.069082
-0.060570
0.046089
-0.081604
-0.073373
-0.015711
-0.151118
-0.061620
-0.072001
-0.090464
-0.025252
-0.096456
-0.131877
-0.082853
-0.024314
-0.059400
-0.071445
-0.066058
-0.118510
-0.100033
-0.062126
-0.055484
-0.096843
-0.066435
-0.063328
-0.035505
-0.075427
-0.019102
-0.086333
0.002148
-0.075777
-0.068673
-0.010818
-0.061090
-0.080421
-0.106617
-0.037054
-0.038663
-0.043173
0.033893
-0.033028
-0.102630
-0.071351
-0.023283
-0.144791
-0.067017
-0.072955
-0.092197
0.015135
-0.011320
-0.115707
-0.044878
-0.073514
-0.117419
-0.041602
-0.016588
-0.135439
-0.121226
-0.065300
-0.106029
-0.091960
-0.059237
-0.038000
-0.052329
-0.090599
-0.017540
-0.025001
-0.014829
-0.044413
-0.024496
0.004814
-0.001654
-0.094441
-0.085837
-0.064833
-0.076067
-0.033250
-0.068304
-0.071707
0.076117
0.000002
-0.067289
-0.041443
-0.034186
-0.008098
-0.020991
0.022448
0.020817
-0.095830
-0.029674
-0.026891
-0.023101
-0.060399
0.011214
-0.047933
-0.027202
0.014486
-0.043304
-0.010474
-0.018178
-0.038112
-0.085712
0.038696
0.035976
0.019210
-0.068493
-0.014011
-0.000949
-0.017113
0.048780
0.014146
-0.006881
-0.016478
-0.005125
-0.012636
0.068048
0.101049
0.060816
0.083725
0.165404
0.134740
0.107882
0.051321
0.064146
0.081797
0.204585
0.143084
0.181821
0.188543
0.197010
0.156754
0.177584
0.099262
0.100182
0.151135
0.201164
0.136292
0.193270
0.125249
0.123147
0.174073
0.049907
0.142279
0.099091
-0.016392
0.014772
0.066324
-0.015638
0.052658
-0.009750
0.032337
0.000182
0.027752
-0.034884
0.055821
0.051214
-0.005931
0.026847
0.023501
0.013335
-0.026489
0.066966
-0.038796
0.034175
0.000171
0.028612
-0.026586
0.074269
-0.003936
0.017088
0.023886
-0.005918
0.095283
-0.048442
0.012055
-0.027917
0.013897
0.155022
-0.051368
0.010889
0.019754
0.067148
0.063222
0.064751
-0.014983
-0.131945
-0.038236
-0.092935
-0.127507
0.095404
0.308472
0.499535
0.944866
1.179183
1.387962
1.489471
1.381061
1.003192
0.765462
0.442882
0.181621
-0.048504
-0.103371
-0.310572
-0.341883
-0.287977
-0.213923
-0.241742
-0.092658
-0.047499
0.032355
0.049989
0.116752
0.200742
0.077297
0.052388
0.031800
0.009836
0.058940
0.051481
0.055027
0.059688
-0.014954
0.013658
0.074384
0.076531
0.045355
0.029316
0.094168
0.115711
0.054394
0.006212
0.032230
0.092831
0.067213
0.056746
0.109301
0.073994
0.058405
0.113996
0.036374
0.093229
0.146445
0.065740
0.094508
0.086484
0.193721
0.201782
0.117919
0.170133
0.176702
0.166458
0.332627
0.178252
0.215650
0.328269
0.371924
0.325162
0.276108
0.350160
0.361592
0.363171
0.471731
0.329662
0.536422
0.517781
0.460895
0.455580
0.494595
0.522136
0.622723
0.552417
0.582730
0.585230
0.553958
0.638514
0.645752
0.588340
0.558428
0.527106
0.546370
0.507186
0.495034
0.561107
0.519433
0.439799
0.471705
0.425474
0.355268
0.318565
0.320583
0.375818
0.302550
0.334139
0.263550
0.220315
0.192634
0.274086
0.220863
0.221676
0.184878
0.185814
0.099195
0.161238
0.210659
0.079852
0.147493
0.075856
0.090440
0.034085
0.055885
0.054451
0.109179
0.052548
-0.000163
0.127952
0.065798
0.033839
0.029063
0.202810
0.074271
0.127505
0.084327
0.079948
0.071755
0.058077
0.060831
0.020666
0.095280
0.102111
0.076524
0.107049
0.118994
