0.025612
-0.064984
0.060519
-0.022789
-0.037402
-0.031332
-0.029847
-0.008264
-0.009032
0.008677
0.013542
0.030965
-0.015201
0.015336
-0.014819
0.047762
0.029699
0.050095
0.015185
-0.006325
0.088601
0.035481
0.028371
0.010249
0.050838
0.117244
0.115944
0.130346
0.094772
0.128136
0.115270
0.186773
-0.007301
0.196995
0.294832
0.146966
0.213922
0.303913
0.236487
0.239270
0.229591
0.236901
0.208436
0.168787
0.114277
0.157746
0.197745
0.210108
0.187143
0.105279
0.185357
0.179985
0.176590
0.133093
0.081369
0.165940
0.042538
0.045062
0.094022
0.101038
0.028013
0.021710
0.071491
0.098182
0.050036
-0.011998
0.092883
0.078409
0.040213
0.072444
-0.024798
0.086947
0.154697
0.242764
0.463477
0.749927
1.111883
1.454441
1.422862
1.354757
1.067612
0.728282
0.334716
0.091367
-0.185845
-0.159556
-0.125904
-0.080007
0.030307
0.097221
-0.005700
0.066070
0.147435
0.115131
0.079157
0.074988
0.119315
0.092198
0.054973
0.165509
0.189984
0.113534
0.207216
0.217488
0.291307
0.165837
0.229210
0.300598
0.250895
0.349701
0.324756
0.444028
0.391384
0.454474
0.411742
0.434473
0.369934
0.519514
0.497341
0.613756
0.551390
0.629253
0.531526
0.512939
0.567928
0.576568
0.569194
0.535851
0.543506
0.635080
0.644480
0.500774
0.566057
0.553112
0.541413
0.533454
0.505792
0.501298
0.450114
0.398698
0.416894
0.457656
0.350556
0.339284
0.339595
0.354449
0.259836
0.290228
0.310188
0.198326
0.258129
0.234314
0.152546
0.150516
0.128920
0.065788
0.109373
0.118156
0.129146
0.134539
0.069677
0.178167
0.208371
0.175529
0.080067
0.124343
0.156477
0.066895
0.052424
0.048106
0.068678
0.121897
0.009173
0.137635
0.132216
0.025770
0.072367
0.110479
0.094059
0.068720
0.141848
0.005250
0.126697
0.055304
0.128802
0.120463
0.162892
0.132058
0.146471
0.056861
0.059048
0.048899
0.085976
0.022410
0.091193
0.072409
0.218119
0.111013
0.092115
0.191850
0.083815
0.068296
-0.049759
0.096523
0.103471
0.130387
0.111404
0.035725
0.151409
0.082639
0.065259
0.133348
0.076327
0.062011
0.136737
0.220196
0.221360
0.141066
0.156252
0.148799
0.110978
0.120672
0.165858
0.179926
0.204789
0.171794
0.144068
0.186667
0.287446
0.258172
0.231831
0.197080
0.192748
0.236667
0.263856
0.227667
0.258874
0.302323
0.314100
0.270637
0.253656
0.228645
0.234184
0.170458
0.236204
0.198594
0.159971
0.231763
0.118518
0.106070
0.163377
0.051605
0.177464
0.080924
0.059647
0.025736
0.017672
0.022778
0.130452
0.119289
0.068420
0.034905
0.060823
0.146400
-0.019406
0.125626
0.147987
0.224575
0.303885
0.575264
0.845983
1.305953
1.396456
1.500000
1.358835
1.055408
0.701821
0.308110
0.054345
-0.136941
-0.192626
-0.061230
-0.059229
0.042724
0.043923
0.095395
0.120122
0.095581
0.079417
0.164607
0.103212
0.037002
0.182431
0.270834
0.180378
0.150905
0.182642
0.224671
0.112560
0.284967
0.262873
0.194594
0.259214
0.334103
0.269545
0.297392
0.379397
0.424811
0.345568
0.428864
0.459105
0.502999
0.404178
0.569972
0.495243
0.576935
0.562996
0.601724
0.520831
0.533980
0.480425
0.637856
0.537567
0.560220
0.551616
0.531279
0.622496
0.539855
0.474463
0.531982
0.452236
0.531917
0.422346
0.467126
0.467607
0.335053
0.437211
0.336368
0.320998
0.263642
0.294770
0.297920
0.227369
0.221830
0.212143
0.242774
0.160495
0.175607
0.143853
0.147057
0.109198
0.136882
0.059986
0.085983
0.062549
0.135766
0.046790
0.112106
0.033003
0.072863
0.003488
0.069084
0.050224
0.001293
0.038464
0.006459
0.036073
0.105053
0.053335
0.034791
0.085739
0.012752
0.028306
0.005771
0.012851
0.010013
-0.120844
0.026932
-0.005604
0.049187
-0.016598
0.037231
0.055689
0.052865
0.064521
0.031973
0.074134
0.065791
0.005400
0.020926
-0.009225
0.079296
0.002764
-0.021213
0.040878
-0.055405
-0.017622
0.012380
-0.014057
0.075450
-0.033369
0.022107
0.094061
0.014130
0.021752
0.024496
0.067734
-0.085081
0.025570
-0.011620
0.035844
-0.006025
0.058239
0.078516
0.111591
0.064423
0.164296
0.091037
0.194164
0.249735
0.229876
0.137367
0.175840
0.087707
0.224533
0.179773
0.183784
0.243412
0.141153
0.154400
0.243780
0.096228
0.205208
0.147042
0.129662
0.136468
0.165294
0.102756
0.108665
0.064678
0.018241
0.007783
0.052255
0.055898
0.055798
0.024019
-0.014150
-0.042860
-0.003367
0.022213
-0.015170
-0.033479
-0.011462
-0.041309
0.060549
0.109237
0.017794
-0.006164
-0.041172
-0.040823
0.032102
-0.043443
0.027850
0.281062
0.505785
0.853264
1.201836
1.269245
1.373456
1.197798
0.883536
0.550176
0.178362
-0.157429
-0.259917
-0.248024
-0.262556
-0.144400
-0.090952
-0.005439
0.016242
0.005605
0.034874
0.095836
0.055226
0.114356
0.095525
0.017439
0.071369
-0.000886
0.150170
0.035353
0.034585
0.119400
0.102364
0.126138
0.217579
0.161121
0.146289
0.240614
0.310134
0.289944
0.313033
0.314375
0.342404
0.309194
0.378772
0.380158
0.439180
0.420888
0.449696
0.480999
0.465615
0.567152
0.437618
0.520981
0.514181
0.538417
0.404007
0.445652
0.502875
0.426546
0.513454
0.493540
0.395499
0.397473
0.350930
0.395724
0.305476
0.238687
0.352117
0.231949
0.266177
0.332586
0.200038
0.211157
0.228701
0.159442
0.042714
0.082842
0.004639
0.178556
0.142134
0.067796
0.129080
0.033539
-0.007878
-0.012325
0.013345
-0.056825
0.034700
-0.018008
0.026669
-0.013687
0.032233
-0.056853
0.000904
-0.066797
0.009927
-0.099090
-0.090061
-0.011302
0.003319
-0.035078
-0.008962
-0.141031
-0.113816
-0.002939
0.027244
-0.042266
-0.058575
-0.092365
-0.055381
-0.022190
-0.102744
-0.062899
-0.103019
-0.085388
-0.001635
-0.022200
-0.104317
-0.042023
-0.050645
-0.039593
-0.055696
0.003883
-0.073221
0.011422
-0.093957
-0.011744
0.014029
-0.024146
-0.024673
-0.040876
-0.074030
-0.101621
-0.036112
-0.046070
-0.016635
-0.029985
0.068977
-0.011035
-0.097276
0.026545
0.008620
-0.018354
-0.010833
0.017479
0.066348
0.036488
0.042802
0.062384
0.027503
0.078104
0.069756
0.067887
0.131937
0.079577
0.060162
0.206331
0.065579
0.152053
0.114513
0.090982
0.112844
0.082361
0.053825
0.191258
0.160579
0.157198
0.030736
0.128674
0.060129
0.099918
-0.044406
0.036367
0.018048
-0.029652
0.038118
0.073937
-0.002439
0.026444
-0.028713
0.036634
-0.047449
-0.030573
-0.049794
-0.051736
-0.023015
-0.029938
0.008508
0.016813
-0.092374
-0.036306
-0.060802
-0.035592
-0.028565
0.070836
0.227917
0.679393
0.878700
1.259593
1.297562
1.403340
1.223191
0.832942
0.531812
0.128764
-0.043247
-0.251152
-0.244197
-0.174210
-0.131030
-0.031222
0.009024
0.024055
0.047891
-0.047959
0.023830
0.044276
0.082225
0.044211
0.061583
0.056155
0.071466
0.097937
0.169645
0.134448
0.077352
0.111291
0.176862
0.258377
0.240033
0.347683
0.279892
0.398190
0.262912
0.349039
0.353742
0.336391
0.459818
0.357602
0.441731
0.381468
0.431704
0.463694
0.448222
0.442664
0.534824
0.488857
0.521170
0.503223
0.531022
0.527495
0.576707
0.487136
0.517792
0.545068
0.521652
0.459463
0.422274
0.340433
0.446702
0.419328
0.406581
0.353787
0.386126
0.403564
0.263326
0.274957
0.225332
0.129335
0.258270
0.176193
0.120540
0.183129
0.193270
0.102429
0.135512
0.124301
0.159599
0.070909
0.091653
0.027776
0.059605
0.014412
0.006659
0.017717
0.071283
0.141090
-0.046135
0.015034
0.047280
0.021989
-0.023340
-0.051428
0.011461
0.085929
-0.046760
0.063354
0.075568
0.073043
0.045342
0.046224
0.009124
0.052375
0.043325
0.032894
0.071149
-0.034875
0.020076
0.026187
0.019958
0.100789
0.017802
0.000044
-0.037537
0.009388
0.025272
0.067531
0.065958
-0.002548
0.073475
0.022330
0.059755
0.032829
0.056362
0.013287
0.057809
0.060298
0.134449
0.021541
0.068285
0.077273
0.094476
0.038523
0.137166
0.123834
0.095175
0.093780
0.062924
0.148272
0.020718
0.136049
0.112128
0.155911
0.186651
0.119352
0.203543
0.177916
0.220012
0.149993
0.199731
0.194328
0.317776
0.200022
0.252985
0.209641
0.322623
0.234582
0.269325
0.226036
0.148244
0.165767
0.210163
0.221331
0.281007
0.199323
0.174489
0.134474
0.246235
0.171568
0.177112
0.119670
0.156296
0.113767
0.117927
0.095109
0.089963
0.067643
0.098816
0.131571
0.073790
0.105835
0.066941
0.099198
0.054918
0.020617
0.071867
0.055091
0.012952
0.125284
0.199616
0.473593
0.738092
1.103906
1.288632
1.477154
1.448312
1.249000
0.833079
0.469977
0.145696
-0.043198
-0.143684
-0.202445
-0.078318
0.028236
0.074030
0.041301
0.083171
0.135591
0.179499
0.242678
0.107550
0.175698
0.097317
0.176463
0.217445
0.253689
0.219478
0.273277
0.173144
0.260859
0.274505
0.285979
0.339088
0.367290
0.341242
0.424649
0.358593
0.387158
0.442022
0.401016
0.481707
0.526611
0.440090
0.594377
0.546054
0.507774
0.603879
0.585910
0.580796
0.626426
0.629669
0.717642
0.655612
0.626887
0.571860
0.610506
0.574335
0.572879
0.640581
0.539729
0.620954
0.567609
0.498245
0.551392
0.576794
0.443729
0.349787
0.391738
0.425124
0.426103
0.347905
0.312141
0.302927
0.245307
0.283950
0.198609
0.212999
0.172617
0.203513
0.216470
0.130653
0.102955
0.158874
0.135756
0.171522
0.123777
0.120840
0.151873
0.109052
0.062660
0.104258
0.088019
0.108226
0.099427
0.187904
0.085935
0.053370
0.113381
0.138647
0.059362
0.095470
0.039701
0.038480
0.085576
0.197824
0.174848
0.098624
0.077793
0.063028
0.065251
0.184763
0.112251
0.097342
0.063110
0.159172
0.055064
0.056612
0.129713
0.065684
0.096160
0.029460
0.076637
0.025392
0.059386
0.048422
0.139393
0.026237
0.130323
0.189427
0.157151
0.109683
0.101799
0.080843
0.084451
0.019853
0.100495
0.033725
0.038698
0.115943
0.128165
0.125307
0.097229
0.107920
0.056119
0.151589
0.104071
0.157125
0.182690
0.151337
0.097264
0.163066
0.221448
0.183089
0.204671
0.227350
0.200987
0.240020
0.321146
0.218337
0.243185
0.203350
0.159612
0.224912
0.310035
0.239782
0.263490
0.135636
0.191855
0.223443
0.325382
0.180314
0.164335
0.198481
0.154080
0.213200
0.172792
0.080733
0.111369
0.079673
0.153702
0.055462
0.105728
0.039702
0.062022
0.090929
0.122571
0.125441
0.069002
0.110036
0.077847
0.128241
0.106408
0.141395
0.270762
0.513122
0.774021
1.092061
1.294900
1.490937
1.371633
1.071561
0.681876
0.367780
0.091917
-0.123930
-0.197166
-0.121467
-0.060445
0.072438
0.007645
0.130145
0.014713
-0.068279
0.076870
0.087681
0.152601
0.100516
0.166020
0.135282
0.215044
0.120060
0.165293
0.141192
0.097774
0.193686
0.174827
0.265029
0.302174
0.363645
0.241004
0.370454
0.349871
0.363234
0.391216
0.341341
0.420305
0.545027
0.464666
0.492210
0.535976
0.532700
0.517286
0.551425
0.535035
0.492621
0.509749
0.509235
0.559492
0.509141
0.638667
0.550837
0.624916
0.518294
0.536793
0.510163
0.471165
0.522056
0.505270
0.392412
0.399157
0.414306
0.332407
0.253074
0.360895
0.310837
0.295146
0.305948
0.268680
0.212685
0.177333
0.108299
0.157576
0.199529
0.125265
0.133543
0.169196
0.088807
0.028462
0.078052
-0.019338
0.081096
0.049545
0.029099
-0.027121
0.036379
-0.008891
0.010907
0.036241
0.053614
-0.008256
0.020618
-0.037083
0.100245
-0.015535
-0.033381
0.066724
0.011056
0.059558
-0.046219
-0.009037
0.016911
-0.040025
-0.007854
0.068781
-0.050031
0.036643
0.033509
0.034807
-0.015468
-0.003252
0.042892
-0.002608
0.074027
-0.031864
-0.030061
-0.006772
-0.012749
0.008240
-0.085374
-0.046135
-0.007287
-0.089331
-0.039916
0.053979
-0.002726
0.006793
-0.073921
0.037010
-0.026984
-0.092147
0.023711
0.053462
-0.000943
0.031540
-0.005857
-0.026227
0.002074
-0.096546
0.002737
0.054301
0.027443
0.086060
0.077741
0.040327
0.061852
0.116200
0.106008
0.178921
0.086567
0.132283
0.058378
0.139579
0.176604
0.162682
0.162294
0.183593
0.134004
0.095115
0.080593
0.067394
0.219034
0.069052
0.109873
0.062284
0.081242
0.111969
-0.010484
0.074441
0.066740
0.031866
0.030115
0.042482
0.042066
-0.093892
-0.021895
-0.037831
-0.010702
-0.058740
-0.095015
-0.116383
-0.065331
-0.037966
-0.022891
0.046262
-0.053860
-0.008269
-0.041122
-0.025170
0.107972
0.413512
0.722715
1.027486
1.267573
1.362608
1.123800
0.892416
0.511554
0.244485
-0.082201
-0.246556
-0.364949
-0.285703
-0.423819
-0.131026
-0.110133
-0.046742
-0.021110
-0.033969
0.016172
0.012639
-0.060632
-0.050917
0.013819
-0.015704
0.083256
0.098936
0.085898
0.023446
-0.059462
0.154491
0.148502
0.062768
0.148870
0.247066
0.164036
0.125205
0.219023
0.234710
0.267810
0.274255
0.334856
0.339546
0.421265
0.427127
0.367833
0.452821
0.472238
0.395460
0.431519
0.500454
0.441338
0.482386
0.444279
0.393685
0.435994
0.501133
0.475023
0.394022
0.418779
0.439445
0.334389
0.370802
0.340511
0.330818
0.311920
0.242172
0.308065
0.175219
0.186083
0.142844
0.183363
0.160066
0.105703
0.122592
0.073698
0.016824
0.035671
0.015688
0.026457
-0.091820
0.032286
0.053822
-0.030318
0.046689
-0.012813
-0.015147
-0.055643
-0.086654
-0.058389
-0.115623
-0.117030
-0.088664
-0.071783
-0.124805
-0.059736
-0.061445
-0.023754
-0.055050
-0.028273
-0.058954
-0.022886
-0.092279
-0.150692
-0.068233
0.000822
-0.021560
-0.164858
-0.087376
-0.095258
-0.085554
-0.061233
-0.143552
-0.112168
-0.024592
-0.072099
-0.079790
-0.103942
-0.058797
-0.023389
-0.074998
-0.041256
-0.030019
-0.061844
-0.185343
-0.038548
-0.058085
-0.101826
-0.101826
-0.050663
-0.045010
-0.128195
-0.117898
-0.016380
-0.038398
-0.062089
-0.076310
-0.093993
-0.041502
-0.059671
0.000835
-0.073657
-0.038048
-0.039977
0.034561
-0.009004
0.027574
-0.001536
0.066606
-0.022699
0.032100
0.098027
0.045082
-0.002046
0.092452
0.125053
0.162339
0.135882
0.128877
0.083126
0.110341
0.139520
0.116007
0.059425
0.112723
0.076111
0.097289
0.123851
0.087638
0.020063
0.038239
-0.001140
0.037099
0.028503
-0.010764
0.040784
-0.061442
-0.065558
-0.019903
-0.060418
-0.008269
-0.077602
-0.080046
-0.128041
-0.090670
-0.101719
-0.105860
-0.014614
-0.138026
-0.041550
-0.077829
-0.080409
-0.059632
-0.005779
0.180558
0.553261
0.767436
1.090804
1.314473
1.413415
1.180266
0.879571
0.471688
0.234987
-0.099626
-0.232039
-0.312789
-0.199089
-0.146795
-0.096454
-0.058870
-0.053916
-0.071334
0.096896
0.015473
-0.011013
0.110502
0.049666
0.062830
0.010632
-0.010522
0.039928
0.102594
0.187729
0.111231
0.096058
0.078412
0.181833
0.230950
0.247500
0.242210
0.343550
0.279079
0.343810
0.251905
0.285387
0.401799
0.358450
0.423525
0.475055
0.411729
0.484919
0.451650
0.393491
0.514473
0.469544
0.430353
0.359161
0.519582
0.444262
0.508309
0.524028
0.421424
0.473237
0.445629
0.391975
0.436228
0.400406
0.335736
0.345830
0.366084
0.310613
0.347883
0.318788
0.231891
0.254306
0.233060
0.255014
0.128891
0.196891
0.182090
0.143815
0.157179
0.017959
0.142362
0.028130
0.107641
0.059026
-0.010034
0.110416
0.032815
-0.068847
0.039317
0.041329
-0.037228
-0.006151
0.032135
0.078155
0.053371
0.046265
0.086158
-0.014183
0.028695
-0.005498
-0.046005
0.005719
-0.022223
-0.012516
-0.009087
0.003454
-0.012569
0.018238
0.046236
0.025425
-0.011006
-0.085004
-0.007515
0.026801
-0.018327
-0.015866
-0.050732
0.019146
0.070345
-0.038232
0.058053
-0.025312
0.095921
-0.018160
0.061733
0.027723
-0.032329
0.045689
0.009559
0.010168
-0.026604
0.014889
0.022121
-0.003321
-0.056086
0.060143
0.007678
0.055319
-0.047955
0.035264
0.031714
0.038245
0.061102
-0.017301
0.103289
0.039851
-0.000812
0.158113
0.030476
0.075257
0.155826
0.084319
0.151436
0.139032
0.070512
0.228845
0.247106
0.238711
0.218999
0.190389
0.151319
0.228923
0.124808
0.163188
0.193175
0.138486
0.242968
0.189208
0.078167
0.185542
0.180760
0.168745
0.140153
0.172224
0.119069
0.108293
0.051223
0.113428
0.038490
0.097926
0.109331
0.049367
0.109625
0.130326
0.102747
0.044445
0.113632
0.065366
0.024976
0.011573
0.030078
0.008273
-0.063074
0.138050
0.214761
0.226729
0.630750
0.979690
1.207242
1.406844
1.460855
1.339525
0.947480
0.474230
0.166905
-0.056358
-0.107096
-0.126273
-0.157489
-0.083514
-0.017087
0.089012
0.036676
0.098994
0.096413
0.107834
0.222557
0.129070
0.098448
0.142694
0.136158
0.156276
0.154200
0.116868
0.202471
0.259818
0.283111
0.247925
0.237490
0.254573
0.192498
0.286612
0.301373
0.353190
0.339474
0.367280
0.426900
0.431891
0.561789
0.406346
0.507841
0.553737
0.512700
0.508441
0.585075
0.560327
0.503531
0.607710
0.519428
0.565867
0.577575
0.589455
0.614597
0.585292
0.488131
0.442330
0.575072
0.557000
0.436549
0.446656
0.535211
0.413615
0.435721
0.359692
0.313910
0.348346
0.239484
0.303276
0.311928
0.188529
0.214686
0.251538
0.271475
0.192280
0.134735
0.137741
0.145690
0.085734
0.119799
0.058377
0.117296
0.065446
0.062641
0.027894
0.042864
0.064172
0.136450
0.086230
0.004629
0.059251
0.140595
0.019233
0.146461
0.040477
0.065280
0.056635
0.049096
0.051319
0.094723
0.018676
-0.004916
0.015961
-0.048112
-0.025395
0.109542
0.060489
0.009718
0.031863
-0.029719
-0.017895
-0.005764
0.010621
-0.018714
0.036525
0.040957
0.063774
0.032638
-0.017844
0.105858
0.067108
-0.006630
0.048316
0.043281
0.020228
0.007216
0.021099
0.009816
0.074319
0.002875
0.097287
0.054441
0.014472
0.010289
0.045643
0.012125
0.085285
0.072595
0.060991
0.048435
0.131981
0.127846
0.200781
0.175727
0.167895
0.111907
0.106631
0.130257
0.171451
0.274266
0.266982
0.209640
0.229628
0.251452
0.249372
0.220859
0.189711
0.206074
0.231400
0.253931
0.140235
0.241247
0.170619
0.190623
0.133359
0.134752
0.164241
0.072581
0.178551
0.089265
0.034852
0.024604
0.073418
0.044960
0.064707
0.080436
0.006003
0.032636
0.024464
0.087786
-0.020442
0.025711
0.043407
-0.009351
0.058738
0.043159
-0.010566
0.028701
0.044791
0.023821
0.123612
0.407984
0.636371
0.997577
1.243057
1.408437
1.384572
1.185358
0.850257
0.401805
0.050817
-0.121279
-0.230163
-0.250895
-0.164589
-0.126359
0.004103
0.020195
-0.007046
0.012742
0.115959
0.076915
0.073638
0.135572
-0.007018
0.099132
0.144756
0.078119
0.076266
0.132919
0.164871
0.146418
0.245788
0.191893
0.235390
0.236536
0.236678
0.155329
0.250538
0.228598
0.297631
0.407500
0.371026
0.368377
0.366448
0.408194
0.440441
0.368690
0.569005
0.472656
0.501963
0.468284
0.442062
0.503688
0.464539
0.521384
0.559479
0.450696
0.507703
0.438454
0.383923
0.461849
0.382909
0.362621
0.364817
0.452888
0.400233
0.328199
0.281752
0.292800
0.231689
0.257021
0.213028
0.132611
0.100192
0.228699
0.250796
0.197147
0.116490
0.186394
0.082313
-0.054984
0.053617
-0.035347
0.025703
0.062478
0.017123
-0.001683
0.041644
0.013032
-0.077297
-0.068000
-0.027842
-0.086999
0.044480
-0.022727
-0.005763
-0.016578
-0.120855
-0.026178
0.051481
-0.054685
-0.028253
0.055752
0.004078
-0.075176
-0.029041
-0.027382
0.001102
-0.005193
-0.005275
0.017466
0.003951
-0.101733
-0.131768
-0.042374
-0.055832
-0.102244
-0.117122
0.011756
-0.068172
-0.039244
-0.084495
-0.001016
-0.130751
-0.071071
-0.010347
-0.112749
-0.051323
-0.004198
-0.099899
-0.071681
-0.022896
0.010534
-0.012188
-0.123736
-0.050874
-0.137716
-0.050526
-0.099095
-0.011657
0.029068
-0.083423
-0.050623
-0.047686
-0.054488
0.071626
0.035708
0.002209
0.060769
0.068862
0.001766
0.080388
-0.036191
0.054468
0.059923
0.123854
0.071600
0.086805
0.069902
0.116413
0.097545
0.126785
0.145083
0.125054
0.043921
0.066649
0.085718
-0.004422
0.121764
-0.055035
0.047819
-0.017458
-0.082204
-0.030270
-0.031671
-0.018508
0.015964
-0.056487
-0.096147
0.014212
-0.118099
-0.058597
-0.084481
-0.055143
-0.090035
-0.048843
-0.113409
0.006596
-0.071197
-0.152713
-0.150384
-0.184177
-0.027585
-0.008546
0.082270
0.276641
0.616812
0.945795
1.178110
1.337783
1.186336
0.985465
0.631036
0.255265
-0.035978
-0.290753
-0.370487
-0.263677
-0.223220
-0.164042
-0.171243
-0.123736
-0.091774
-0.001607
0.035915
-0.058680
-0.037993
-0.025749
0.054030
-0.035103
-0.076485
0.031864
-0.040664
0.056128
0.067702
0.086722
0.079461
0.064329
0.181508
0.137755
0.191229
0.191942
0.187217
0.267338
0.190636
0.260564
0.287104
0.328240
0.352115
0.414987
0.370995
0.418926
0.386331
0.437998
0.388963
0.440852
0.460158
0.495022
0.449875
0.325446
0.433380
0.426075
0.455970
0.350311
0.356980
0.399204
0.239521
0.374086
0.261142
0.297060
0.234820
0.291120
0.213858
0.235775
0.132209
0.130896
0.146885
0.122904
0.154294
0.116357
0.083635
0.046466
0.028151
0.054474
0.024778
-0.100834
-0.063500
-0.043625
0.015370
-0.047974
-0.013858
-0.063843
-0.030078
-0.138364
-0.096864
-0.188334
0.030092
-0.050911
-0.210001
-0.082036
-0.111299
-0.073799
-0.044875
-0.090477
-0.038475
-0.074644
-0.148489
-0.024754
-0.109913
-0.064333
-0.124657
-0.092538
-0.102504
-0.125802
-0.091295
-0.046556
-0.063080
-0.049214
-0.098396
-0.033557
-0.097853
-0.043425
-0.099494
-0.107643
-0.113495
0.001613
-0.157315
-0.085040
0.046704
-0.143682
-0.032094
-0.112869
-0.051096
-0.089002
-0.065842
-0.073080
-0.085272
-0.080829
-0.090120
-0.093236
0.013502
-0.013430
-0.073645
-0.048007
-0.061442
0.047567
-0.065325
-0.156151
0.029922
0.006150
-0.087233
-0.079050
0.006127
0.028377
0.173421
0.098406
0.132509
0.082450
0.136166
0.077927
0.059037
0.145547
0.094095
0.071631
0.050668
0.092383
0.165783
-0.000622
0.063902
0.048312
0.087403
0.098939
0.070874
0.072509
0.094801
0.049657
-0.068820
0.065748
0.072117
-0.047292
0.015811
-0.012866
-0.035531
-0.035239
-0.079800
-0.067539
-0.042133
-0.047750
0.003396
-0.076724
-0.035551
-0.016758
-0.099807
-0.086146
-0.081911
-0.108399
0.024988
-0.014453
-0.001510
0.223127
0.386029
0.658429
1.003874
1.300596
1.403355
1.303959
1.020644
0.622285
0.216793
-0.048792
-0.299082
-0.219281
-0.242609
-0.263319
-0.032338
-0.044805
-0.023929
-0.077641
0.007665
-0.026460
0.031524
0.023470
0.022538
0.054011
0.020815
0.113322
0.068567
0.098646
0.115299
0.088874
0.116965
0.153919
0.147628
0.197327
0.125664
0.211560
0.301735
0.274490
0.336928
0.286399
0.345999
0.346285
0.414270
0.446196
0.473214
0.394617
0.504128
0.494401
0.483183
0.526672
0.481240
0.435883
0.461686
0.502294
0.500176
0.559930
0.481542
0.512750
0.483648
0.485820
0.469228
0.420833
0.411630
0.359278
0.420898
0.395547
0.251306
0.311023
0.298817
0.243052
0.290395
0.286787
0.225635
0.116884
0.231704
0.152043
0.149958
0.219888
0.162375
0.004057
0.058896
0.056958
0.048422
0.026899
0.021252
0.042475
0.064088
0.035115
-0.034358
-0.019476
0.051199
0.060282
0.006973
-0.042347
-0.048338
0.024402
0.014148
0.006471
0.089776
0.075154
0.064271
0.022607
0.013119
-0.058256
-0.038887
-0.065385
0.033658
0.025317
0.071948
0.031098
0.057556
0.025500
0.021663
0.037209
0.042560
0.042889
0.071978
-0.024106
-0.010293
0.059236
-0.029745
0.049351
0.084236
-0.062075
-0.001552
0.020903
0.052961
-0.065982
0.034565
-0.003147
0.044259
-0.040537
0.023760
0.098611
0.075089
-0.013189
0.022240
0.028064
0.011316
0.006548
0.059329
0.101622
0.046388
0.159404
0.058165
0.166709
0.134795
0.078337
0.133837
0.060344
0.154149
0.200650
0.185676
0.203830
0.206422
0.136395
0.201991
0.253909
0.238007
0.280728
0.229061
0.192201
0.244494
0.199927
0.201564
0.199649
0.235288
0.134872
0.141395
0.234517
0.275984
0.187852
0.084604
0.091762
0.163100
0.131531
0.132714
0.047955
0.098013
0.062184
-0.008125
0.160749
0.132994
0.088687
0.165775
0.038477
0.065170
0.082521
0.101428
0.036653
0.031098
-0.011916
0.056215
0.133302
0.319436
0.588886
0.906684
1.240372
1.440875
1.401285
1.308922
0.983436
0.666302
0.200877
-0.007316
-0.163097
-0.174489
-0.149700
-0.066521
0.038823
0.081528
0.067109
0.106942
0.145770
0.097699
0.101132
0.099431
0.136552
0.124241
0.191307
0.179348
0.268189
0.223756
0.265217
0.156431
0.169606
0.271616
0.257368
0.239243
0.279524
0.328180
0.351067
0.389520
0.459141
0.341785
0.353219
0.406567
0.472779
0.515736
0.544021
0.489790
0.587491
0.542619
0.704904
0.643211
0.563884
0.607110
0.667538
0.614922
0.615356
0.537775
0.653076
0.627915
0.522901
0.489206
0.567575
0.506060
0.492759
0.450120
0.468730
0.480320
0.454093
0.431126
0.349117
0.375171
0.295568
0.329761
0.286030
0.326138
0.259840
0.238181
0.208859
0.220515
0.095879
0.149164
0.185494
0.183785
0.111053
0.215133
0.113052
0.114633
0.114721
0.102730
