0.023991
0.063972
-0.030456
-0.060509
-0.051197
-0.018565
0.047825
-0.141841
0.032125
0.010077
0.034377
-0.031297
0.009779
0.033982
0.035100
0.040248
0.011087
0.034829
-0.068737
0.000240
0.027706
-0.016110
0.107137
0.045621
0.031054
0.025819
0.035839
0.039225
0.060475
0.042152
0.045820
0.193541
0.097745
0.141474
0.173194
0.227560
0.133926
0.252868
0.106039
0.166671
0.214876
0.224404
0.188072
0.182640
0.195657
0.156570
0.150558
0.155111
0.123413
0.130204
0.124402
0.229002
0.201317
0.077433
0.144403
0.237926
0.071857
0.076982
0.027370
0.133626
0.027003
0.088559
0.127146
0.128686
0.009772
0.002794
0.005690
0.045281
0.042288
0.017078
0.035303
0.036418
0.012866
0.022680
0.098907
0.021374
0.061786
-0.064347
0.096499
0.052827
0.365331
0.616257
0.855544
1.110091
1.353814
1.429406
1.185404
0.933661
0.557799
0.287749
0.016566
-0.197782
-0.141642
-0.200288
-0.063931
-0.027361
-0.001200
0.087210
0.066029
0.133019
0.077798
0.119480
0.092812
0.191395
0.142718
0.114700
0.103235
0.134169
0.183361
0.115081
0.068302
0.205020
0.252859
0.225449
0.202705
0.194991
0.244419
0.272189
0.240843
0.235327
0.352912
0.418817
0.373210
0.377846
0.371313
0.349840
0.407293
0.496110
0.506912
0.492106
0.546968
0.605314
0.585825
0.499397
0.572018
0.590803
0.575061
0.573146
0.582158
0.540491
0.527786
0.545204
0.527811
0.526496
0.569951
0.431157
0.482128
0.413678
0.424234
0.416087
0.444664
0.438015
0.301520
0.403893
0.413347
0.229512
0.263621
0.260581
0.315797
0.229191
0.301948
0.216202
0.241231
0.189082
0.133998
0.169204
0.261574
0.068824
0.147422
0.083792
0.121978
0.151132
0.063881
0.170520
0.105743
0.117600
0.118319
0.064452
0.104761
0.086949
0.131045
0.109279
0.036423
0.088471
0.105838
0.081690
0.072970
0.151147
0.053390
0.129924
0.136782
0.098481
0.082682
0.088552
0.065705
0.069186
0.064045
0.142906
0.009470
0.139936
0.056441
0.127032
0.120271
0.094969
0.071285
0.133767
0.158949
0.076947
0.124730
0.130311
0.126889
0.012619
0.009507
0.128343
0.086007
0.035796
0.091417
0.120928
0.037753
0.089306
0.052342
0.089805
0.065130
0.078489
0.036199
0.099146
0.109099
0.071414
0.098233
0.121353
0.109122
0.056821
0.111031
0.119499
0.165593
0.118678
0.155416
0.124929
0.171581
0.189682
0.123189
0.060706
0.174844
0.188498
0.095043
0.231578
0.204654
0.269708
0.191756
0.229135
0.231572
0.104258
0.202703
0.300298
0.306776
0.316207
0.209405
0.197850
0.219293
0.247814
0.196956
0.299830
0.137403
0.151775
0.162723
0.174325
0.132751
0.109113
0.135556
0.130264
0.123225
0.141194
0.037991
0.112837
0.122301
0.056378
0.135864
0.057893
0.052779
0.028166
0.085738
0.081393
0.170066
0.063121
0.041281
0.103277
0.060278
0.005137
-0.006969
0.039287
0.128965
0.262215
0.495975
0.847220
1.094698
1.350562
1.500000
1.344152
1.012372
0.682043
0.352183
0.046962
-0.136364
-0.133620
-0.163332
-0.056711
-0.066734
0.016039
0.107113
0.072292
0.069430
0.065586
0.053137
0.125391
0.059253
0.079489
0.075690
0.099744
0.120852
0.164019
0.158668
0.136010
0.127916
0.193114
0.196842
0.186572
0.171257
0.290874
0.219054
0.197900
0.313159
0.262306
0.227078
0.288271
0.294852
0.413294
0.407762
0.454580
0.482141
0.417205
0.478627
0.505356
0.503052
0.469826
0.534782
0.502776
0.519434
0.534362
0.561162
0.530407
0.508274
0.506728
0.520420
0.481991
0.510307
0.498142
0.480688
0.389464
0.463989
0.447407
0.343964
0.378378
0.246708
0.313780
0.393084
0.266146
0.321835
0.242463
0.263694
0.210556
0.210171
0.191684
0.170804
0.137378
0.219423
0.112163
0.052359
0.099824
0.073141
0.071468
0.073859
0.042160
0.062647
0.099427
0.036083
0.099895
0.007364
0.089937
0.112321
0.071024
0.070771
0.052334
0.048446
0.093355
-0.018564
0.023442
0.019847
0.068549
-0.000604
-0.013213
-0.039318
0.049694
-0.016387
-0.025241
0.001844
0.039575
0.050313
-0.012123
-0.079490
0.042403
-0.012835
0.041471
0.005857
-0.055760
-0.075533
-0.028628
0.013858
0.005614
0.038994
-0.039012
0.045339
-0.004736
-0.060130
0.022778
-0.022597
-0.025758
0.020396
-0.042607
0.072257
0.053140
0.005644
0.023949
0.052075
-0.021047
0.057352
0.011817
-0.062968
0.002937
-0.064294
0.018638
0.018656
-0.074884
-0.000755
0.070531
0.032703
0.006922
0.022343
-0.029794
-0.052706
0.078079
0.009923
0.014310
0.027618
0.049676
0.099437
0.061959
0.059536
0.075179
0.085455
0.186601
0.157527
0.104125
0.106266
0.108779
0.139276
0.181920
0.198217
0.101415
0.124683
0.112978
0.102294
0.123241
0.121567
0.144801
0.088875
0.066243
0.051964
0.033579
0.027086
0.045417
0.037521
-0.001219
0.033203
0.049706
0.037666
-0.007500
-0.047861
0.067947
0.066874
0.012935
0.022941
0.042446
-0.018466
-0.007697
0.127109
-0.102833
-0.069168
-0.043388
-0.058262
-0.072286
-0.063612
-0.035261
0.087348
0.344979
0.556259
0.987855
1.211877
1.345917
1.193554
0.999732
0.680350
0.284784
0.025064
-0.160005
-0.265964
-0.307398
-0.168193
-0.093158
-0.077412
-0.041815
0.046734
-0.047039
-0.027084
0.031429
-0.023681
0.010437
0.062967
0.012173
-0.014943
0.002506
0.074156
0.049748
0.057350
0.022658
0.071555
0.207142
0.111656
0.110792
0.056934
0.100984
0.143943
0.099040
0.196758
0.178145
0.173406
0.230971
0.254660
0.238361
0.284723
0.292746
0.282151
0.382241
0.418629
0.441471
0.381111
0.391515
0.395616
0.427127
0.450742
0.468770
0.500364
0.367268
0.420043
0.386228
0.420641
0.418872
0.368229
0.392611
0.404079
0.478427
0.368859
0.342160
0.247323
0.301407
0.232552
0.310171
0.264156
0.212665
0.156577
0.138918
0.162424
0.126377
0.194343
0.108573
0.157795
0.122238
0.072912
0.129003
0.035529
-0.025623
-0.049343
0.102774
-0.089133
-0.050413
-0.030068
-0.013272
0.005716
-0.114536
0.011010
0.021150
-0.104265
-0.000331
-0.107276
-0.083258
0.035149
-0.025015
-0.019629
-0.079540
-0.039825
0.001190
-0.104684
-0.036418
-0.067445
-0.074352
-0.066868
-0.056558
-0.001836
0.004801
0.043656
0.000436
-0.038252
-0.141173
-0.023713
-0.015878
-0.003041
-0.070469
-0.035704
-0.019299
-0.066377
0.055024
-0.104000
-0.006213
-0.017424
-0.068797
-0.015378
-0.054407
0.033610
-0.050761
-0.080504
-0.025597
-0.056544
-0.033642
-0.048792
-0.048208
-0.071369
-0.090746
-0.016737
0.032201
-0.087685
0.023393
-0.013045
-0.037148
-0.024334
-0.013658
0.022094
0.000506
-0.004822
-0.019683
-0.024904
0.010537
0.031070
0.051891
0.089448
0.080382
0.024279
0.084112
0.121618
0.131704
0.105012
0.124871
0.140235
0.138820
0.244849
0.162940
0.066609
0.170963
0.142756
0.172766
0.107076
0.096088
0.079574
0.140525
0.170150
0.109951
0.002488
0.097739
0.115366
0.075254
0.103466
0.083139
0.057028
-0.009155
-0.011168
0.030328
-0.002484
0.066119
0.040901
-0.015649
0.048343
-0.017708
-0.010891
0.036842
0.019802
-0.101447
0.012887
-0.015735
0.012057
0.079756
-0.015898
0.009252
-0.137697
-0.047767
0.135081
0.053343
0.301274
0.639814
0.963504
1.184005
1.279390
1.292629
1.163130
0.872978
0.402648
0.046496
-0.039802
-0.213050
-0.275924
-0.145268
-0.051780
-0.058496
-0.072997
0.025523
0.068643
-0.002268
0.019768
0.040361
0.000873
0.060656
0.092074
0.047834
0.085923
0.117308
0.022726
0.122925
0.099341
0.117876
0.146048
0.192058
0.222671
0.186389
0.087357
0.156054
0.205928
0.312504
0.239030
0.280147
0.319603
0.376210
0.306179
0.358534
0.396201
0.432061
0.420683
0.488409
0.455093
0.428057
0.476470
0.493197
0.508105
0.529059
0.604757
0.589893
0.550171
0.577984
0.518591
0.533714
0.500067
0.489851
0.483980
0.466856
0.373345
0.425383
0.570140
0.366332
0.382927
0.283410
0.313441
0.260137
0.390311
0.290186
0.239823
0.233664
0.182677
0.265007
0.194120
0.194906
0.225923
0.148264
0.131311
0.224271
0.042201
0.128607
0.047042
0.099993
0.087594
0.015251
0.098626
0.104093
0.051708
0.111198
0.081067
0.133985
0.021114
0.037924
0.075851
0.025080
0.110120
0.013424
0.028247
-0.013332
0.043471
0.054966
0.058820
0.046505
0.011195
0.007740
0.069950
0.116760
0.082329
-0.000035
0.042674
0.008432
0.006242
0.016679
0.163143
0.120495
0.141947
0.029347
0.104117
0.099490
0.113260
0.081742
0.060080
0.151960
-0.009562
0.024969
0.095029
0.086920
0.101545
-0.000426
0.150135
0.088126
0.060771
0.036879
0.045412
0.160527
0.087618
0.061163
0.048700
0.066236
0.056207
-0.037265
0.138540
0.117505
0.101170
0.165027
0.172349
0.116811
0.157949
0.090806
0.109332
0.132502
0.121449
0.117712
0.138858
0.146227
0.190488
0.136492
0.214564
0.187678
0.155913
0.225077
0.251141
0.288604
0.187344
0.236348
0.234062
0.313660
0.262924
0.255635
0.181575
0.263245
0.251463
0.237564
0.216298
0.279017
0.205535
0.103002
0.201806
0.094501
0.263525
0.214785
0.158102
0.191653
0.177341
0.198214
0.127628
0.117107
0.122010
0.108966
0.030015
0.086374
0.093304
0.103078
0.033808
0.061785
0.094080
0.089570
0.157751
0.118690
0.068169
0.028980
0.083176
0.087893
0.154729
0.316627
0.561181
0.851594
1.176385
1.401921
1.463733
1.280759
1.032032
0.678245
0.254479
0.075230
-0.057677
-0.194517
-0.126305
-0.081356
-0.034235
0.094279
0.050273
0.074909
0.009418
0.037379
0.102301
0.037012
0.188143
0.127558
0.106968
0.169905
0.185468
0.131456
0.072247
0.113731
0.223587
0.223787
0.298444
0.209054
0.240471
0.287547
0.273315
0.316331
0.389515
0.302946
0.350387
0.380140
0.366835
0.444054
0.449885
0.417890
0.487065
0.523035
0.531896
0.430870
0.523415
0.568865
0.523756
0.536766
0.595638
0.634321
0.540146
0.524916
0.472180
0.572508
0.550426
0.521400
0.525524
0.575988
0.481726
0.447705
0.422177
0.453363
0.419530
0.411226
0.429774
0.347338
0.350830
0.328457
0.360443
0.233916
0.243117
0.287950
0.268392
0.218225
0.257143
0.172792
0.176072
0.146667
0.235029
0.150223
0.233832
0.114228
0.132984
0.131772
0.136483
0.062801
0.122881
-0.036264
0.094132
0.093979
0.015708
0.098464
0.042225
0.103360
0.045558
0.070513
0.065202
0.086865
0.116035
0.141099
0.035436
0.128650
0.054916
0.017070
-0.013797
0.118588
0.099053
0.056093
0.043912
0.016372
0.002596
0.081966
0.140673
-0.017105
0.023643
0.019738
0.117276
0.106715
0.042882
-0.079895
0.011425
0.039145
0.035244
0.031346
-0.045007
0.091897
0.094940
0.107064
0.066720
0.006990
-0.003388
0.035527
0.090343
0.059658
0.046960
0.009578
0.090692
0.070430
0.049856
0.050533
0.072338
0.056205
0.139626
0.110221
0.074644
0.077344
0.057261
0.121460
0.087271
0.090451
0.086493
0.088851
0.190871
0.115376
0.021574
0.110731
0.188853
0.205952
0.132333
0.094271
0.155723
0.198579
0.134315
0.216491
0.196832
0.121528
0.232781
0.231714
0.208311
0.270907
0.210864
0.116425
0.184255
0.175382
0.131421
0.243931
0.128445
0.088631
0.189673
0.084396
0.082729
0.079820
0.062009
0.029979
0.063764
0.051637
0.121126
0.038153
-0.006790
-0.035353
0.037071
0.021240
-0.012560
-0.024539
0.075253
0.010508
0.047893
-0.030982
0.082959
-0.051427
-0.084358
-0.012391
0.081595
0.053912
0.133383
0.406066
0.730032
1.039498
1.241245
1.288199
1.286604
1.111203
0.629486
0.275767
-0.021776
-0.195007
-0.156221
-0.244252
-0.168238
-0.130822
-0.070960
-0.052307
-0.057120
0.001354
-0.029145
0.021214
0.014642
0.017920
0.080070
0.050504
0.003063
0.032626
0.043696
0.080648
0.063869
0.113434
0.107764
0.090906
0.061026
0.163151
0.133446
0.175438
0.121824
0.254549
0.261819
0.229006
0.241007
0.267519
0.318322
0.369281
0.321143
0.282255
0.392571
0.343758
0.370210
0.474805
0.481919
0.475641
0.504295
0.385576
0.435246
0.471259
0.491512
0.407717
0.446577
0.478486
0.455790
0.400808
0.421946
0.402343
0.371695
0.428592
0.334735
0.311780
0.248589
0.333036
0.307043
0.255604
0.284330
0.255461
0.092702
0.152497
0.143965
0.165127
0.172939
0.052399
0.105080
0.054215
0.063807
0.093541
0.069815
0.013771
0.091657
0.016366
-0.042106
-0.080338
-0.002871
-0.029304
0.015335
-0.073443
0.024019
-0.063740
0.004919
-0.040981
-0.026108
-0.069261
-0.005223
-0.089499
-0.060184
-0.013579
-0.000835
-0.091223
-0.072577
-0.050659
-0.059902
-0.087953
-0.047107
-0.119783
-0.005612
-0.019652
0.011776
-0.042779
-0.104326
-0.135488
-0.062610
-0.124256
-0.021948
-0.071673
-0.013061
-0.035044
-0.122939
-0.070665
-0.031157
-0.083085
-0.068648
0.033521
-0.075607
-0.067663
-0.032669
-0.132455
-0.047251
-0.000649
0.019710
-0.021291
-0.097035
-0.021542
-0.028030
-0.097552
-0.096468
-0.033673
-0.088746
-0.154596
0.007665
-0.044358
-0.066772
-0.063444
-0.054487
-0.030479
-0.068708
-0.064477
0.003515
-0.019226
-0.043954
-0.053489
-0.021859
0.090613
-0.035613
0.038730
0.078543
0.035532
0.074275
0.047231
0.026719
0.063745
0.055083
0.129945
0.020416
0.141060
0.123356
0.053135
0.165520
0.051434
0.028869
0.153497
0.121903
0.028569
0.072546
0.062141
0.097930
0.029599
-0.058883
0.014482
0.089174
-0.024818
-0.024500
-0.031867
-0.092011
0.023131
-0.014574
-0.030864
-0.138805
-0.119193
-0.081443
-0.027966
-0.064351
-0.034390
-0.025118
-0.068788
-0.077776
-0.101501
-0.065354
-0.086679
-0.117935
-0.100709
-0.066271
0.123999
0.238780
0.558548
0.899279
1.142423
1.281391
1.204477
0.971780
0.640867
0.267501
0.021246
-0.161692
-0.319595
-0.312565
-0.247336
-0.086334
-0.121940
-0.091635
-0.084292
-0.105673
-0.019825
-0.033892
-0.040999
-0.068126
-0.036440
0.042332
-0.040999
-0.045031
0.032665
-0.016186
-0.029682
0.003822
0.073120
0.058816
0.044848
0.007565
0.102703
0.063562
0.144680
0.176927
0.265406
0.153145
0.144755
0.294384
0.261343
0.254485
0.318543
0.237730
0.273806
0.387889
0.353927
0.348228
0.424363
0.366339
0.383193
0.400871
0.496222
0.390863
0.452159
0.434998
0.390753
0.426266
0.409254
0.428202
0.388974
0.394672
0.381913
0.426511
0.220430
0.279964
0.314197
0.283006
0.269523
0.291358
0.198289
0.162602
0.144279
0.216116
0.088746
0.097035
0.088790
0.124366
0.041018
0.005764
0.055757
0.021055
0.114855
0.046231
-0.009897
-0.018314
0.062234
0.033784
0.022896
-0.051614
0.009242
-0.034697
-0.000873
-0.159191
-0.088419
-0.054960
-0.067261
-0.052436
-0.071259
-0.022873
0.006124
-0.028890
-0.053773
-0.133259
0.004050
-0.023963
-0.011696
-0.061152
-0.027129
-0.058661
-0.039603
-0.062078
-0.064063
-0.088590
-0.009923
-0.037845
0.001344
0.019244
-0.075400
0.004587
-0.066136
-0.078998
-0.010475
-0.014786
-0.107514
0.042765
-0.073237
-0.073334
-0.081021
-0.001414
0.000687
-0.042786
-0.080295
0.011170
-0.007348
-0.047769
-0.093510
-0.057801
0.041733
0.016029
-0.081481
-0.077533
-0.042020
-0.030056
0.059817
0.012348
-0.023242
0.011474
0.044794
-0.010834
-0.008482
-0.055272
0.037340
-0.014058
0.026748
0.006973
0.038261
0.062003
0.037377
0.074661
0.096469
0.071729
0.120073
0.141621
0.155268
0.155015
0.159070
0.138251
0.144225
0.226915
0.201178
0.156661
0.091185
0.180756
0.119517
0.078899
0.172188
0.206553
0.146068
0.069623
0.017212
0.094569
0.086255
0.145364
0.090017
0.032695
-0.003275
0.049348
0.004476
0.017229
-0.038582
-0.040653
-0.042401
0.037791
0.032380
-0.065698
-0.075461
-0.022151
0.049946
0.003132
0.053611
-0.007444
-0.024878
-0.047943
-0.004279
0.074057
0.007751
0.121970
0.329744
0.534875
0.921742
1.179984
1.305481
1.242539
1.100240
0.882336
0.486959
0.165377
-0.086896
-0.231430
-0.190776
-0.130768
-0.151653
-0.068312
-0.032592
0.028638
-0.007732
-0.050228
0.020670
0.031253
0.022525
0.044068
0.104602
0.057346
0.070468
0.063876
0.091258
0.111174
0.045926
0.124381
0.146014
0.142136
0.183404
0.264759
0.233326
0.230122
0.218368
0.246021
0.256903
0.310632
0.228961
0.321524
0.252719
0.331646
0.362562
0.401532
0.452551
0.433590
0.462463
0.464680
0.562321
0.480523
0.463141
0.575675
0.507010
0.563952
0.487134
0.570401
0.575245
0.556295
0.537368
0.478847
0.518948
0.472482
0.440664
0.443955
0.394550
0.446784
0.369507
0.317770
0.346155
0.316307
0.241320
0.272916
0.226572
0.210817
0.190687
0.202746
0.181293
0.176297
0.161299
0.171517
0.134120
0.216643
0.138996
0.090610
0.115746
0.086790
0.136737
0.086319
0.014790
0.115846
0.125514
0.037905
-0.009800
0.063171
-0.004635
-0.010604
0.086727
0.018093
-0.010640
0.050279
0.018653
0.106923
0.056090
0.048517
0.048472
0.133479
0.064917
0.070392
0.125274
-0.011296
0.032648
0.139008
0.033746
0.063494
0.048651
0.071373
0.008598
0.059236
0.051194
0.075119
0.086277
0.120669
0.078166
0.056671
-0.009768
0.042009
0.013331
0.065844
0.094056
0.108222
0.109024
0.043878
0.058520
0.000450
0.063164
0.061129
0.036381
0.061379
0.110720
0.082485
0.027110
0.020366
0.061115
0.017260
-0.013246
0.030079
0.112982
0.050254
0.053121
0.102754
0.070155
0.064853
0.083576
-0.031148
0.064839
0.091513
0.113493
0.043021
0.171835
0.128298
0.177899
0.136128
0.150550
0.120032
0.181850
0.217133
0.161368
0.261963
0.212348
0.293258
0.180127
0.191427
0.135085
0.221674
0.246658
0.214599
0.212151
0.178900
0.209543
0.221668
0.172474
0.123741
0.167763
0.105337
0.105278
0.183442
0.096102
0.091920
0.057940
0.086926
0.071209
0.099926
0.063924
0.057239
0.021939
0.066024
0.004362
0.063046
0.127984
-0.004453
0.014847
-0.010744
0.032632
0.015506
-0.012446
0.004346
0.070822
0.285941
0.507384
0.797834
1.086390
1.363034
1.361176
1.149641
0.977562
0.674168
0.296028
0.016956
-0.234458
-0.196943
-0.236172
-0.093049
-0.099752
0.049180
-0.060047
0.040618
0.083151
0.153852
0.021481
0.045280
0.053776
-0.000608
0.028883
0.052781
0.102311
0.141922
0.110692
0.140642
0.140146
0.199261
0.157751
0.259727
0.125290
0.158342
0.328256
0.266302
0.314161
0.270151
0.266168
0.355334
0.264150
0.373030
0.364919
0.401741
0.391514
0.388789
0.459940
0.392176
0.472056
0.564014
0.428220
0.557815
0.471064
0.501151
0.462414
0.553689
0.465338
0.440020
0.469431
0.511285
0.418132
0.473186
0.404054
0.472917
0.375806
0.394004
0.277438
0.405294
0.339179
0.301542
0.263647
0.266547
0.248296
0.249231
0.189123
0.214770
0.170880
0.117037
0.120646
0.119850
0.044862
0.103129
0.091895
0.047743
0.068197
0.108714
0.020850
0.025474
0.049722
0.022611
0.080125
0.133212
-0.047435
-0.009502
-0.040160
0.030815
-0.035391
0.035904
-0.026082
-0.041038
-0.032615
0.005166
-0.036955
-0.036536
0.026490
0.083313
-0.146261
-0.073341
-0.003138
0.006637
0.033891
-0.043085
-0.051867
-0.025027
0.016014
-0.026200
-0.027475
0.037814
-0.030945
-0.022123
-0.013635
-0.020473
-0.154805
-0.083941
-0.042048
-0.007512
-0.116153
-0.025534
-0.007878
-0.033487
-0.057387
-0.062099
-0.015364
0.026616
-0.061378
-0.049192
-0.013437
0.025559
-0.071697
-0.116319
-0.045174
-0.051985
-0.034378
-0.040495
-0.079956
-0.006529
-0.090827
-0.011567
-0.090446
-0.045361
-0.123171
0.032939
-0.005064
-0.028617
-0.031283
0.034574
-0.037443
0.026246
0.019021
-0.091465
-0.003113
0.011575
0.086833
0.084142
0.060152
0.088239
0.063484
0.111212
0.130686
0.119224
0.106315
0.115216
0.112828
0.182125
0.086072
0.028369
0.115063
0.105525
0.079117
0.013677
0.063867
0.067698
0.006980
-0.006065
-0.025250
-0.025106
-0.006229
-0.065114
-0.030065
-0.081552
-0.141810
-0.031182
-0.059809
-0.054584
-0.039792
-0.109156
-0.117039
-0.109678
-0.114508
-0.053707
0.001965
-0.027264
-0.056181
-0.012772
-0.111257
-0.177635
-0.082639
-0.028476
0.061425
0.327346
0.623302
0.923613
1.163639
1.247962
1.095023
0.889708
0.626638
0.291981
0.021785
-0.300391
-0.335952
-0.336067
-0.262882
-0.226877
-0.116772
-0.090605
-0.080574
-0.051019
-0.097911
-0.068954
-0.029128
-0.098530
-0.026906
-0.084832
-0.032782
-0.075272
0.025719
0.014003
0.036280
-0.034837
0.046220
0.047792
0.001318
0.035335
0.085114
0.104495
0.097978
0.213126
0.153272
0.104067
0.190412
0.126420
0.245675
0.295347
0.259536
0.344736
0.303403
0.355204
0.374054
0.350581
0.327160
0.354926
0.346599
0.417238
0.440321
0.475271
0.435994
0.359726
0.356003
0.433341
0.325459
0.433900
0.306897
0.380051
0.315197
0.332662
0.321267
0.345722
0.188393
0.241101
0.237253
0.227141
0.142042
0.189803
0.148835
0.115597
0.081298
0.108791
0.024764
-0.020372
-0.055425
-0.014923
0.034919
-0.034206
-0.041096
0.027464
0.002108
0.000371
-0.134048
-0.049120
-0.031153
-0.060584
-0.103832
-0.066422
-0.039110
-0.111371
-0.032698
-0.150903
-0.098302
-0.122702
-0.084975
-0.131397
-0.024791
-0.134364
-0.136474
-0.039296
-0.105448
-0.055831
-0.060686
-0.163924
-0.058314
-0.084458
-0.085631
-0.144667
-0.131253
-0.083184
-0.085604
-0.046427
-0.004443
-0.121021
-0.086268
-0.173665
-0.077803
-0.071034
-0.105773
-0.128786
-0.072857
-0.024294
-0.102888
-0.004994
-0.119125
0.023700
-0.082605
-0.084755
-0.075845
-0.129453
-0.162585
-0.122077
-0.025060
-0.112060
-0.060449
-0.155136
-0.077071
-0.040917
-0.129306
-0.070182
-0.057587
-0.134181
-0.072708
-0.172492
-0.021561
-0.043817
0.004028
-0.042573
-0.107205
-0.006863
-0.045398
-0.020704
-0.025379
0.013922
0.013093
-0.058923
0.013795
0.053050
0.029254
0.056992
0.030081
0.002853
0.095259
0.081133
0.142620
0.155193
0.078555
0.062994
0.025402
0.110426
0.038668
0.115247
0.016524
0.011523
0.095613
-0.009056
0.049288
0.029273
0.063433
0.010368
-0.031583
-0.028482
-0.015002
-0.046329
-0.068651
-0.014975
-0.049254
-0.108529
-0.025848
-0.072928
-0.185424
-0.032513
-0.085834
-0.059084
0.013563
-0.101760
-0.005158
-0.083261
-0.102731
-0.128383
-0.089027
-0.071828
-0.047293
0.043296
0.212140
0.596379
0.849793
1.171759
1.385092
1.304840
1.072644
0.703965
0.364136
0.130000
-0.216733
-0.287116
-0.282896
-0.294702
-0.166451
-0.051443
-0.087548
0.029399
0.069851
-0.076929
-0.013794
0.043509
-0.025578
0.000458
0.011318
0.004495
0.055538
-0.010553
-0.001570
0.051632
0.036853
0.053749
0.012539
0.085345
0.111890
0.070748
0.158346
0.137983
0.156180
0.190150
0.257575
0.183800
0.298539
0.217722
0.277144
0.312880
0.423296
0.338368
0.293903
0.434303
0.316305
0.509414
0.566058
0.460569
0.430509
0.432784
0.523289
0.555042
0.463687
0.512437
0.472698
0.501046
0.390628
0.375160
0.410451
0.373617
0.372893
0.417492
0.306052
0.338596
0.292642
0.297001
0.284098
0.255884
0.258153
0.234484
0.289399
0.208380
0.110719
0.061352
0.188460
0.170856
0.106308
0.074563
0.103779
0.085217
0.007832
0.022072
0.138187
0.021755
0.053318
0.023270
0.101652
0.028714
0.081505
-0.018202
-0.043841
0.027252
0.031627
0.028443
-0.036469
-0.005926
0.021534
0.053930
0.020711
0.032959
0.020493
0.033068
-0.032890
0.035402
-0.044939
0.020969
0.032472
0.012345
0.047312
0.039598
0.036961
0.058210
-0.002242
0.037364
0.080053
0.066525
0.061235
0.016195
-0.055709
-0.035985
0.018264
0.051546
0.013045
0.000124
0.080465
0.030511
0.027483
-0.030036
0.003524
0.053228
0.042404
-0.000586
0.066063
0.052002
0.077785
0.010026
0.009212
0.019469
0.035848
0.025301
-0.047808
0.077887
-0.008862
0.117999
0.037648
0.079191
0.075577
-0.020640
0.028649
0.019730
0.019868
0.148817
0.168557
0.144920
0.068165
0.109151
0.164040
0.185663
0.215730
0.144562
0.159501
0.165605
0.246887
0.222734
0.209280
0.216100
0.207255
0.184875
0.217026
0.199240
0.239649
0.223496
0.191872
0.168153
0.132547
0.140527
0.186337
0.169187
0.150313
0.148295
0.078722
0.131643
0.059904
0.098293
0.145081
0.068375
0.073600
0.088071
0.092784
0.079628
-0.004231
0.091313
0.061385
0.107916
0.093146
0.030665
0.070345
0.076717
0.068892
-0.002805
-0.001752
-0.000726
0.069679
0.123585
0.111153
0.291378
0.593995
0.939242
1.189268
1.358647
1.370075
1.244123
0.971923
0.598135
0.227541
-0.001202
-0.168498
-0.202804
-0.139291
-0.117383
0.020443
0.046143
0.071717
0.053336
0.044759
0.061379
0.080664
-0.035502
0.116679
0.097877
0.113580
0.171301
0.069523
0.132766
0.166308
0.198210
0.161880
0.247861
0.142753
0.184520
0.192465
0.267875
0.203505
0.315242
0.292247
0.375839
0.352625
0.368080
0.371994
0.402116
0.451954
0.480173
0.494225
0.487003
0.521194
0.496999
0.530832
0.480078
0.621303
0.557918
0.569720
0.570268
0.493843
0.623171
0.583079
0.555826
0.517255
0.522999
0.503065
0.540635
0.491102
0.456217
0.481742
0.417953
0.437728
0.377973
0.395892
0.372441
0.327351
0.352872
0.356414
0.308905
0.327519
0.219588
0.197361
0.179086
0.192423
0.132783
0.155050
0.088300
0.146825
0.165834
0.154367
0.187555
0.099898
0.114581
0.095552
0.170718
0.046161
0.052771
0.063183
