-0.067699
-0.033395
0.028367
-0.060671
-0.050823
0.044508
-0.013953
0.030538
-0.000578
0.020633
0.032885
0.020522
0.025252
0.068193
0.071597
0.054637
0.028832
0.071890
-0.026132
0.010157
0.039731
0.126041
0.052068
0.042788
0.174967
0.212803
0.103877
0.065641
0.142353
0.147411
0.178712
0.146177
0.166113
0.169552
0.194609
0.219108
0.230722
0.132566
0.209250
0.201990
0.194543
0.160803
0.134144
0.134101
0.192887
0.088240
0.134758
0.124042
0.031481
0.070407
0.113009
0.093521
0.115999
0.136515
0.125954
0.080304
0.022981
0.013224
0.117523
0.015086
0.092295
0.089803
0.043607
0.033784
0.018374
0.159624
0.293297
0.595081
0.800992
1.086637
1.332990
1.459095
1.242493
0.923504
0.497567
0.212171
-0.012391
-0.123314
-0.150203
-0.034690
0.062806
0.057574
0.091954
0.068279
0.110928
0.158838
0.050355
0.135715
0.189137
0.097894
0.134307
0.164526
0.223990
0.249197
0.199400
0.322251
0.335148
0.318820
0.396442
0.492819
0.405855
0.403702
0.424212
0.415817
0.479294
0.432061
0.482514
0.487761
0.425403
0.587339
0.639903
0.503628
0.559552
0.566656
0.660655
0.649610
0.655642
0.609335
0.500726
0.625692
0.645444
0.467425
0.527192
0.530277
0.504503
0.402436
0.470205
0.413444
0.441321
0.410479
0.360774
0.383294
0.282307
0.280483
0.378598
0.231330
0.284373
0.257066
0.191209
0.159138
0.264355
0.187620
0.186731
0.152086
0.147111
0.127209
0.149956
0.203937
0.119351
0.194066
0.121814
0.139853
0.073195
0.123935
0.114620
0.110824
0.106089
0.111770
0.150479
0.064584
0.089279
0.110930
0.061208
0.043471
0.127885
0.078097
0.010930
0.088201
0.031581
0.001071
0.070213
0.086432
0.138409
0.115702
0.051834
0.141336
0.096823
0.140936
0.178168
0.122086
0.114897
0.049238
0.101337
0.151562
0.063117
0.097599
0.096318
0.194062
0.060378
0.102546
0.092230
0.061293
0.107322
0.111872
0.171347
0.183450
0.091848
0.215741
0.108169
0.117946
0.175943
0.141662
0.215421
0.306190
0.274389
0.247395
0.282987
0.148696
0.191747
0.276314
0.287451
0.180945
0.364242
0.248701
0.250673
0.254877
0.294984
0.290262
0.213950
0.256116
0.239562
0.232245
0.214258
0.164640
0.119934
0.214746
0.244503
0.131366
0.195008
0.162435
0.146373
0.184072
0.094633
0.125059
0.072453
0.069525
0.014238
0.045682
0.077308
0.059129
0.164985
0.180956
0.333033
0.509386
0.665427
1.114189
1.277221
1.500000
1.368771
1.122781
0.709642
0.414297
0.122990
-0.010060
-0.079901
0.001638
0.071644
0.094463
0.069282
0.071143
0.095524
0.164790
0.196894
0.249040
0.192441
0.166405
0.181438
0.185337
0.201237
0.220586
0.314635
0.291486
0.218818
0.360552
0.288984
0.362587
0.316673
0.358030
0.427380
0.426645
0.494140
0.439124
0.478556
0.563704
0.556674
0.563912
0.508145
0.544533
0.501102
0.555000
0.564768
0.533563
0.496217
0.637312
0.599241
0.610662
0.493130
0.560450
0.480277
0.442033
0.461617
0.546106
0.479599
0.378403
0.446851
0.448406
0.372352
0.322515
0.279291
0.309050
0.361964
0.339984
0.267519
0.222784
0.245011
0.109038
0.079397
0.208471
0.102694
0.161565
0.167696
0.143076
0.067341
0.067057
0.150687
0.098959
0.038962
-0.037849
0.068772
0.092214
0.057059
0.066304
0.069090
0.100803
0.046763
-0.006864
0.009273
0.107436
0.022542
0.068493
-0.017963
-0.004873
0.046415
0.018184
0.077230
0.018308
-0.008670
0.098463
0.096411
0.008923
0.069154
-0.021581
0.024212
0.052670
0.074151
0.038000
0.021343
-0.006398
0.052010
0.116986
0.020925
0.075574
0.051672
0.095479
0.054865
0.001816
0.046096
0.072838
0.106391
0.081839
0.028518
0.029363
0.146509
0.109075
0.114446
0.080661
0.110170
0.067703
0.153102
0.172417
0.117061
0.070188
0.215172
0.148493
0.180327
0.214836
0.232786
0.184476
0.161932
0.205607
0.131736
0.125173
0.186176
0.185930
0.179310
0.153514
0.139027
0.130641
0.106990
0.147779
0.060764
0.169426
0.052976
0.117710
0.146632
-0.000852
0.090170
0.087841
-0.025939
0.050799
-0.000670
0.050758
0.005754
-0.042626
0.015657
0.081771
-0.005731
0.050104
0.122228
0.311386
0.508445
0.859760
1.146881
1.328559
1.356366
1.160821
0.808861
0.471183
0.190185
-0.047066
-0.228993
-0.156097
-0.092272
-0.051138
-0.048475
-0.023143
0.065676
0.134076
0.024744
0.082377
0.107386
0.026013
0.083568
0.111524
0.103327
0.139184
0.204887
0.189629
0.275330
0.253968
0.210733
0.257378
0.183099
0.265841
0.236664
0.320900
0.354864
0.290628
0.346216
0.496651
0.385716
0.396413
0.523037
0.522466
0.376679
0.518716
0.498772
0.443050
0.424639
0.424015
0.421286
0.444670
0.462583
0.434962
0.389288
0.434845
0.354002
0.319760
0.471395
0.390804
0.367513
0.328983
0.263552
0.307049
0.336720
0.238042
0.293044
0.260285
0.115899
0.124392
0.255071
0.124651
0.059378
0.015275
0.078615
0.030651
0.083695
0.060269
0.070064
0.063137
0.032039
-0.008093
0.039580
-0.026218
-0.002904
-0.023778
0.009917
0.061151
-0.016621
-0.046277
0.037946
-0.031852
-0.023744
-0.004829
0.019525
0.004922
-0.055174
-0.036379
-0.099515
0.017331
0.014035
-0.062858
-0.042809
-0.067522
0.036992
-0.103698
-0.034442
-0.043101
-0.094276
0.004802
0.001945
-0.001059
-0.106499
-0.082239
-0.087605
0.024189
0.010842
-0.005369
-0.014611
-0.041501
-0.026564
0.003500
-0.067308
-0.025946
-0.043072
-0.090437
-0.095820
0.012475
-0.045192
0.029885
-0.040113
-0.031322
0.020466
0.089394
0.031497
0.066525
0.107453
0.060477
0.029950
0.131145
0.129780
0.158147
0.158912
0.189893
0.069179
0.152080
0.118523
0.123982
0.196975
0.140105
0.108280
0.082576
-0.001691
0.009304
0.039770
0.028256
0.054858
0.010669
0.006339
0.069868
-0.003336
0.009253
0.031843
0.039895
0.032357
0.041048
-0.029723
0.004373
-0.068280
-0.043979
-0.050350
-0.032552
-0.031827
-0.009837
0.043408
0.165456
0.402240
0.661757
0.868239
1.195449
1.307338
1.310976
0.962005
0.588816
0.201843
-0.017424
-0.199840
-0.168183
-0.201339
-0.048472
-0.025654
0.021662
0.060767
0.049290
0.043545
0.112718
-0.018629
0.091207
0.118094
0.107876
0.071742
0.097040
0.174526
0.240485
0.110539
0.246380
0.193373
0.272101
0.218714
0.324402
0.277566
0.325271
0.365508
0.351361
0.353527
0.418123
0.356081
0.403499
0.356617
0.428789
0.505268
0.530050
0.449359
0.532357
0.429806
0.568212
0.479390
0.416606
0.467445
0.380543
0.456348
0.471957
0.382242
0.356210
0.447525
0.306825
0.317729
0.287836
0.326422
0.223554
0.346735
0.239343
0.280658
0.222994
0.201107
0.209338
0.111814
0.143010
0.155703
0.137192
0.085909
0.098363
0.138363
0.034553
-0.044743
-0.016427
0.041713
-0.003713
0.124591
-0.001348
0.091817
-0.014836
-0.003636
0.047738
0.049779
-0.025416
0.014752
0.001237
0.058825
-0.006901
0.014393
0.003793
-0.007196
-0.071251
-0.056799
0.000105
-0.055550
-0.053883
-0.023510
0.013959
-0.082712
-0.015933
0.014784
0.030814
-0.064980
-0.014236
0.018989
0.023016
0.015965
0.037120
0.045730
0.035065
0.107901
-0.012397
0.057526
0.034380
-0.091115
0.054905
0.000619
0.029161
-0.036684
0.075330
0.024732
0.003376
-0.044983
0.055752
0.103794
-0.017998
0.081109
0.106473
0.062696
0.033374
0.205751
0.150469
0.112498
0.143973
0.205206
0.173425
0.196206
0.169950
0.083229
0.220103
0.263447
0.179665
0.194940
0.202295
0.211373
0.165870
0.219379
0.158740
0.157582
0.149331
0.095935
0.141266
0.006482
0.078113
0.026360
0.062695
0.059111
0.014893
0.034786
-0.007848
0.037004
0.024336
-0.007684
0.060972
0.030402
0.145883
0.030202
0.090639
0.080773
0.227467
0.351791
0.529620
0.900683
1.099352
1.352576
1.317327
1.135773
0.894627
0.553479
0.137785
-0.017114
-0.085575
-0.036276
-0.107677
0.051690
0.102780
0.049828
0.183906
0.149117
0.010830
0.161585
0.166399
0.151793
0.197993
0.139653
0.204221
0.257216
0.298286
0.239683
0.297618
0.242511
0.319929
0.300191
0.405698
0.322028
0.445157
0.406506
0.403920
0.574912
0.465084
0.504599
0.544197
0.543081
0.627066
0.527686
0.525884
0.630613
0.599824
0.549436
0.542674
0.601381
0.594911
0.511636
0.511929
0.564616
0.510150
0.436149
0.450804
0.499975
0.429424
0.476062
0.435093
0.419000
0.315417
0.449738
0.373776
0.358854
0.260769
0.278890
0.327747
0.218233
0.253933
0.124385
0.181223
0.255429
0.166746
0.071687
0.112728
0.272289
0.211162
0.181429
0.154676
0.150188
0.096324
0.171221
0.103634
0.106215
0.055814
0.179777
0.225706
0.044679
0.076587
0.142633
0.086373
0.093698
0.076851
0.073613
0.026075
0.135835
0.067783
0.086848
0.072814
0.066338
0.026132
0.097674
0.029634
0.076576
0.085597
0.110591
0.001598
0.082300
0.069211
0.072031
0.073100
0.076063
0.078169
0.085527
0.049410
0.105964
0.076001
-0.015143
0.007674
0.073600
0.158518
0.128752
0.205009
0.035364
0.081906
0.147307
0.028284
0.159679
0.087501
0.167808
0.202570
0.222726
0.201369
0.221287
0.298041
0.173893
0.195341
0.156306
0.298382
0.234652
0.204442
0.282133
0.261804
0.232605
0.289434
0.260799
0.332906
0.218170
0.170030
0.293179
0.210193
0.248602
0.204005
0.267555
0.174120
0.185311
0.152147
0.106902
0.114278
0.194381
0.115939
0.138571
0.227696
0.090223
0.102756
0.102780
0.147051
0.095535
0.075596
0.183198
0.105289
0.072474
0.206179
0.283201
0.535688
0.770846
1.063068
1.369698
1.482518
1.312333
1.076755
0.818465
0.420337
0.137615
-0.019543
-0.091316
0.038973
-0.002261
0.079390
0.127973
0.182827
0.176419
0.159512
0.206497
0.190447
0.273006
0.162839
0.087622
0.318281
0.212990
0.279656
0.316203
0.280565
0.309165
0.202844
0.353186
0.395304
0.443966
0.362913
0.487869
0.538235
0.479085
0.534427
0.611103
0.547663
0.530520
0.594298
0.547723
0.625422
0.534775
0.624921
0.603124
0.635421
0.625612
0.497416
0.570587
0.616702
0.634129
0.580580
0.552880
0.514214
0.573895
0.514942
0.563505
0.399622
0.509763
0.335143
0.424458
0.384210
0.359952
0.326366
0.263033
0.234265
0.255226
0.263523
0.245259
0.255355
0.200201
0.259309
0.184359
0.156579
0.139110
0.165325
0.190168
0.146187
0.067445
0.115323
0.050738
0.134070
0.087835
0.087515
0.064132
0.155154
0.017870
0.199165
0.060913
0.155702
0.118497
0.087742
0.099393
0.041650
0.108187
0.035555
0.056306
0.042703
0.070107
0.144043
0.135360
0.061866
0.093217
0.017686
0.066699
0.011965
0.027127
0.081280
0.060743
0.097000
0.151624
0.029263
0.067618
0.024766
0.003357
0.004249
0.083068
-0.001163
0.005734
0.037368
0.088221
0.111224
0.077186
0.052960
0.076594
0.176561
0.174883
0.080213
0.181481
0.190427
0.192692
0.179388
0.079757
0.081983
0.159051
0.025599
0.202813
0.240909
0.163366
0.225635
0.215252
0.264786
0.319098
0.191143
0.187829
0.272978
0.157905
0.230438
0.100030
0.169705
0.090932
0.195687
0.166699
0.131246
0.141301
0.119786
0.037885
-0.000877
0.111924
0.090003
0.016788
-0.071969
0.036027
0.036517
0.051963
0.054134
0.026866
0.004940
-0.051003
0.017344
0.077849
0.011912
0.226006
0.284064
0.602181
0.859457
1.188367
1.293447
1.313034
1.176057
0.859406
0.440511
0.110640
-0.009190
-0.210084
-0.122454
-0.081465
-0.047233
0.128567
0.048496
0.025914
0.025237
0.030677
0.014563
0.090646
0.076200
0.178031
0.108527
0.142814
0.125235
0.212829
0.236233
0.178038
0.341560
0.221266
0.268713
0.286413
0.347159
0.319072
0.296123
0.405484
0.420738
0.399487
0.343907
0.498785
0.537320
0.452530
0.398457
0.467123
0.528198
0.550898
0.408158
0.432634
0.566154
0.431644
0.514259
0.442115
0.457395
0.396994
0.522513
0.418738
0.321586
0.380194
0.373671
0.368310
0.310448
0.441402
0.324532
0.291931
0.251076
0.262499
0.183897
0.152830
0.120970
0.195748
0.091329
0.094237
0.163982
-0.009850
0.046633
0.055648
0.021618
-0.075937
-0.016472
-0.001461
-0.081047
-0.000102
-0.086554
-0.012507
0.050506
-0.143243
0.047144
-0.098189
-0.007866
-0.028294
0.012979
-0.102255
-0.091613
-0.019625
-0.026719
0.024449
-0.015720
-0.073534
-0.036380
-0.091192
-0.071369
-0.045844
0.035237
-0.041053
-0.106376
-0.086348
-0.103097
-0.087330
-0.015092
-0.005489
-0.066390
0.020246
-0.034795
-0.094103
-0.042472
-0.052879
0.003190
-0.047820
-0.093529
-0.101899
-0.054286
0.030401
0.007410
-0.002464
0.014779
-0.029401
-0.086109
-0.075722
0.042950
-0.053773
0.053968
0.053797
-0.073629
0.118207
0.065577
0.060293
-0.061549
0.123596
0.120148
0.011494
0.067131
0.152313
0.111909
0.081135
0.193500
0.026751
0.084277
0.046951
0.072174
0.116116
0.101334
0.033311
0.094450
0.006242
0.050971
-0.007709
-0.074827
-0.077603
-0.070594
-0.073639
-0.045091
0.019187
0.012298
-0.035646
-0.013157
0.017618
-0.067798
-0.125988
-0.109104
-0.025828
-0.010028
-0.042201
0.041776
0.013092
0.159657
0.354568
0.656723
0.896423
1.249647
1.214467
1.246729
0.941204
0.582300
0.178702
-0.056077
-0.197044
-0.218487
-0.188394
-0.168977
-0.113184
-0.063276
-0.037682
0.009435
0.102320
0.000365
0.003157
0.085190
0.028789
0.051064
0.006632
0.132829
0.096629
0.170297
0.090941
0.178956
0.148490
0.164282
0.180985
0.255559
0.206263
0.221591
0.343215
0.314220
0.376846
0.288987
0.410328
0.286678
0.399516
0.322500
0.432121
0.465646
0.453192
0.407767
0.476886
0.450704
0.433476
0.421560
0.423372
0.382247
0.364412
0.301486
0.386688
0.324171
0.436289
0.332528
0.345502
0.294931
0.215701
0.160099
0.276519
0.147941
0.180383
0.126083
0.179116
0.171369
0.090866
0.072809
0.013537
0.133964
-0.023956
0.016358
0.043597
0.003346
-0.013423
-0.112339
-0.056785
-0.028900
0.059737
0.010418
-0.043616
-0.079937
-0.022693
-0.038677
-0.049146
-0.045174
-0.091016
-0.130154
-0.151472
-0.147077
0.008809
-0.058039
-0.099950
-0.090832
-0.007638
-0.000057
-0.000944
-0.068158
-0.136832
-0.069073
-0.117215
-0.106590
0.011226
-0.177113
-0.059878
-0.146381
-0.022781
-0.117861
-0.052212
-0.110949
0.066970
-0.121811
-0.032503
-0.001797
-0.062197
-0.087827
-0.112825
-0.176821
-0.032449
-0.049577
0.003474
-0.094464
0.040014
-0.003729
-0.066698
0.000826
0.045756
0.002660
0.047518
-0.003957
0.085318
0.096030
0.123741
0.099644
0.061879
0.124016
0.090273
0.117525
0.150250
0.132391
0.111474
0.087286
0.151552
0.134461
0.054535
0.158653
0.072293
0.022321
0.118712
0.087238
0.070073
0.025671
0.134086
0.035953
-0.021148
0.001670
0.027156
0.015042
0.079787
0.010361
0.006702
-0.076682
-0.092915
-0.082990
0.028682
0.045122
-0.146269
-0.015733
-0.075506
-0.021610
0.056985
0.109705
0.258495
0.570879
0.884363
1.167567
1.240279
1.272890
1.057130
0.730958
0.404601
0.111926
-0.130859
-0.188770
-0.159963
-0.160494
-0.046339
-0.065540
0.116481
0.019532
0.099765
0.076216
-0.020736
0.058551
0.087049
0.083821
0.139206
0.078913
0.095693
0.184321
0.184937
0.229117
0.267733
0.226589
0.251324
0.414359
0.281997
0.270601
0.356771
0.396740
0.414269
0.383803
0.444281
0.416648
0.471473
0.500400
0.507982
0.435779
0.468700
0.425795
0.441452
0.499039
0.564270
0.552541
0.474943
0.502079
0.461259
0.524826
0.468506
0.452966
0.403318
0.440808
0.364817
0.339028
0.432120
0.360456
0.203199
0.286765
0.282040
0.224292
0.324696
0.242405
0.197474
0.284399
0.117606
0.099762
0.113491
0.129792
0.068173
0.069742
0.162419
0.082598
0.056642
0.027430
0.077357
0.047357
-0.040198
0.032568
0.087496
-0.009076
0.031714
0.035157
0.062998
-0.021007
0.018594
0.049077
0.009572
0.058195
0.057164
-0.104883
0.033169
-0.091697
0.080785
0.015432
0.023191
0.011246
0.089784
0.062590
0.012244
-0.053567
-0.100618
-0.093183
-0.013701
0.078020
0.019183
-0.015455
-0.037140
-0.078685
-0.021253
0.032089
0.023790
-0.009712
0.056746
0.000477
-0.005010
0.058593
-0.011939
0.069188
0.088005
0.089325
0.064534
0.035503
0.027088
0.054329
0.026283
0.103755
0.133057
0.082387
0.137060
0.198024
0.164001
0.184305
0.134618
0.077599
0.171361
0.177169
0.149885
0.171840
0.121028
0.209529
0.209847
0.219544
0.178757
0.197218
0.156681
0.162393
0.235060
0.213256
0.174473
0.141674
0.162696
0.107652
0.059277
0.077329
0.110371
0.081001
0.047868
0.099511
0.154656
0.072666
0.025902
0.094625
0.101865
0.057678
0.052186
0.089475
0.091742
0.136419
0.240776
0.450813
0.885962
1.032057
1.330827
1.391359
1.289302
1.031870
0.584542
0.271835
0.105697
-0.134015
-0.099550
-0.158815
-0.045235
-0.004518
0.014867
0.087868
0.149546
0.139867
0.109734
0.208250
0.168893
0.158800
0.226969
0.266804
0.185161
0.174681
0.265511
0.292821
0.190319
0.372311
0.340925
0.293426
0.310578
0.349175
0.366073
0.523591
0.403523
0.495524
0.453439
0.430706
0.555932
0.515077
0.495377
0.441249
0.564633
0.493712
0.615031
0.555323
0.564280
0.552646
0.570027
0.595494
0.515818
0.562942
0.468060
0.531643
0.469106
0.523594
0.526285
0.415747
0.312929
0.377270
0.439261
0.338436
0.375989
0.234861
0.350666
0.234284
0.116843
0.155086
0.167993
0.238817
0.228170
0.139428
0.192082
0.147419
0.166134
0.120803
0.148529
0.108332
0.122479
-0.003950
0.106689
0.033703
0.075434
0.098805
0.045041
-0.012478
0.024189
0.136619
0.072970
0.044854
-0.038281
0.031673
0.089540
0.029076
0.104728
0.123256
-0.010588
-0.024796
0.057158
0.037820
0.054433
0.128592
0.051120
-0.012818
0.069161
0.095349
0.092278
-0.011466
0.074048
0.020698
-0.018451
0.085619
0.047996
0.114793
0.001293
0.024391
-0.023700
0.027690
0.035285
0.080808
-0.031554
0.092462
0.089749
0.060137
0.107627
0.154577
0.086748
0.081018
0.080513
0.172195
0.101834
0.048655
0.253958
0.133313
0.185876
0.207032
0.157033
0.186957
0.144881
0.275063
0.215941
0.208623
0.132406
0.226047
0.212484
0.208165
0.213958
0.074503
0.139254
0.196682
0.173638
0.157328
0.115021
0.209167
0.138316
0.111741
0.094645
0.094515
0.000395
0.066339
0.115088
0.044478
0.006730
-0.000915
0.033370
0.016412
-0.052711
0.007814
-0.024057
0.101445
-0.013976
0.025938
0.147173
0.263251
0.608648
0.950712
1.181771
1.367964
1.436547
1.072522
0.762631
0.413512
0.054466
-0.111828
-0.189296
-0.109032
-0.103710
-0.043941
0.044335
0.024353
0.044493
-0.003867
0.103823
0.092600
0.127294
0.081220
0.097349
0.140154
0.134870
0.171688
0.149948
0.107042
0.174981
0.210247
0.323739
0.238643
0.316856
0.236863
0.282200
0.321307
0.349236
0.283040
0.390947
0.448336
0.444457
0.528511
0.519111
0.429765
0.431581
0.530798
0.546924
0.488077
0.520417
0.575188
0.455953
0.510230
0.406349
0.531452
0.430905
0.447827
0.436734
0.445600
0.429479
0.381449
0.307445
0.314177
0.326485
0.271792
0.149134
0.292262
0.227124
0.207241
0.161168
0.207051
0.025332
0.030321
0.104343
0.193585
0.101475
0.078363
0.042250
0.019327
-0.002498
0.071957
0.028588
0.022424
0.033448
0.002473
-0.042476
-0.024603
-0.025845
-0.054181
0.008168
-0.009570
-0.093119
-0.020475
0.005245
-0.088240
-0.101916
-0.014085
-0.091159
0.017084
-0.002475
-0.124407
0.023326
-0.087240
-0.076027
-0.102023
-0.033605
-0.154218
-0.014839
-0.116494
-0.017227
-0.059442
-0.017447
-0.082988
-0.047341
-0.080852
-0.026241
-0.050244
-0.078142
-0.110906
-0.065157
-0.024034
-0.050356
0.022346
-0.045002
-0.080272
0.011239
-0.078462
-0.061084
-0.072101
-0.019612
-0.035275
-0.007819
-0.000966
-0.025254
-0.037889
0.027429
-0.038773
0.054863
0.058538
0.087770
0.091817
0.155307
0.119080
0.045295
0.130873
0.105704
0.122393
0.104867
0.014408
0.053228
0.049661
0.110775
0.007558
0.037810
0.075533
0.016024
0.049209
-0.055094
-0.012527
-0.082781
0.102638
-0.025716
-0.068494
-0.039187
-0.021438
-0.072646
-0.061623
-0.092848
-0.028397
-0.148545
-0.116001
-0.055136
-0.039521
-0.078722
-0.044150
-0.016417
0.134528
0.303135
0.671119
1.042132
1.218915
1.210468
1.131331
0.853641
0.584443
0.122017
-0.087195
-0.240162
-0.216613
-0.227273
-0.169989
-0.033511
-0.105239
-0.013947
-0.016751
-0.035271
0.025017
-0.067632
0.043022
0.006758
0.070941
-0.004561
0.032971
0.079920
0.156346
0.158276
0.098305
0.232997
0.198004
0.200361
0.177217
0.207820
0.212506
0.227613
0.272215
0.336633
0.305915
0.304939
0.366628
0.335007
0.414900
0.482792
0.427046
0.397847
0.439152
0.346191
0.386870
0.408780
0.437528
0.424678
0.391599
0.399531
0.435194
0.340404
0.298613
0.328937
0.304604
0.180542
0.140143
0.168831
0.203055
0.276382
0.146811
0.116537
0.173558
0.098485
0.062267
0.118163
0.049993
-0.005915
0.000568
0.010942
0.077617
-0.015543
0.030206
-0.050015
-0.010034
-0.016740
-0.106563
-0.140756
-0.056121
-0.130440
-0.025076
-0.098150
-0.074353
-0.039296
-0.025560
-0.141448
-0.120555
-0.131507
-0.027042
-0.168146
-0.055997
-0.096589
-0.125549
-0.065292
-0.130389
-0.134034
-0.141408
-0.189709
-0.106691
-0.128803
-0.059610
-0.106733
-0.118607
-0.114814
-0.135118
-0.163184
0.009126
-0.130467
-0.099949
-0.068335
-0.077089
-0.034227
-0.117782
-0.114477
-0.147878
-0.166761
-0.171401
-0.022243
-0.094514
-0.133652
-0.035215
-0.046419
-0.007903
-0.023015
0.020521
-0.015210
-0.077723
-0.057148
0.013069
0.050666
0.034908
0.052747
0.063757
0.115167
0.014779
-0.045647
0.048660
0.064513
0.163403
0.152628
0.093209
0.186953
0.054386
0.107656
0.022224
0.066588
0.106127
0.082983
-0.003828
0.129130
0.078551
0.056828
0.095003
-0.016611
-0.052233
-0.048635
-0.011370
-0.018323
0.014320
-0.091826
-0.082323
-0.050433
-0.078249
-0.000550
-0.052580
-0.072861
-0.057004
-0.073187
-0.058516
-0.002921
0.051204
0.298633
0.520470
0.903352
1.186942
1.248236
1.267302
1.024589
0.674215
0.314320
0.007505
-0.223108
-0.259689
-0.249975
-0.125183
-0.089858
-0.065509
-0.039774
-0.072857
0.049385
-0.018814
0.025307
0.088583
0.106624
0.047348
0.129402
0.111852
0.105223
0.182372
0.096617
0.126017
0.170550
0.168269
0.180147
0.259090
0.291183
0.279314
0.293717
0.311163
0.336019
0.397475
0.315206
0.396649
0.415476
0.460187
0.471218
0.474676
0.488781
0.488028
0.495407
0.529539
0.510715
0.425682
0.474233
0.412549
0.482666
0.401971
0.479636
0.416587
0.330067
0.353328
0.323728
0.272175
0.399986
0.272460
0.243688
0.247535
0.147310
0.217081
0.264524
0.179232
0.173306
0.194199
0.146676
0.116688
0.089860
0.097158
-0.037412
0.061581
0.038412
0.031493
0.070461
-0.010288
-0.014175
-0.027336
0.072287
0.038400
0.069943
0.049176
-0.008951
0.009265
0.047522
0.011480
-0.014475
-0.043419
-0.032121
-0.014857
-0.006469
-0.048525
0.037467
-0.044194
0.005102
-0.018425
0.003275
0.014640
-0.010195
-0.016656
-0.006428
-0.088419
0.013484
0.028216
-0.017415
-0.026762
-0.000408
0.034109
-0.029739
-0.008329
-0.037083
0.058647
-0.035267
0.044914
0.002942
-0.027278
0.013743
0.004966
0.098999
0.036837
0.075259
0.061029
0.092648
0.054169
0.024945
0.038496
0.105583
0.018433
0.144426
0.081786
0.096667
0.245382
0.105856
0.210945
0.166493
0.190178
0.168190
0.213428
0.248286
0.224225
0.143480
0.244867
0.109432
0.228320
0.125811
0.208119
0.097670
0.113205
0.107955
0.154444
0.171563
0.096935
0.148724
0.052254
0.142402
0.053452
0.091143
0.112265
0.005715
0.139275
-0.001391
0.083323
0.068897
-0.003179
0.007491
0.009892
0.089524
0.076812
0.036498
0.140148
0.267916
0.475326
0.781665
1.131494
1.287295
1.362959
1.261965
0.912438
0.585987
0.256949
0.001233
-0.091418
-0.205828
-0.082598
0.051170
-0.007358
0.102007
0.157924
0.095369
0.103388
0.167246
0.107425
0.117592
0.302183
0.210175
0.163859
0.201707
0.235180
0.269865
0.201486
0.245997
0.307904
0.316001
0.375069
0.416693
0.386101
0.467112
0.506519
0.511563
0.511853
0.413247
0.515801
0.567758
0.548655
0.536601
0.545796
0.528272
0.520144
0.582880
0.617128
0.638649
0.618148
0.504487
0.490727
0.455665
0.542799
0.502238
0.490871
0.451076
0.409967
0.436174
0.502648
0.422613
0.385261
0.411582
0.430856
0.363891
0.266910
0.287208
0.372725
0.212146
0.170034
0.185214
0.155857
0.131131
0.207435
0.196391
0.137019
0.124830
0.107404
0.093057
0.139761
0.206033
0.149431
0.066398
0.101910
0.071902
0.099355
0.096899
0.134558
-0.019955
0.093318
0.018152
0.085899
0.092540
0.081871
0.068965
0.091270
0.102286
0.062561
0.090123
0.051735
0.049900
0.069948
0.156624
0.049063
0.115135
0.112836
0.050458
0.072493
0.095065
0.055407
0.041344
0.118007
0.122535
0.091981
0.071906
0.150960
0.070529
0.122137
0.006842
0.056374
0.095761
0.101666
0.076974
0.142528
-0.008994
0.098306
0.076511
0.060409
0.083649
0.150308
0.050697
0.133159
0.094048
0.111169
0.220899
0.229678
0.290905
0.247200
