0.027342
-0.036219
-0.045149
0.057809
-0.081645
0.030167
0.021401
0.048119
-0.051578
0.046428
0.029052
0.065587
0.030359
0.082125
0.119626
0.005327
0.040071
0.032861
-0.006402
0.080387
0.037649
-0.021571
0.069581
0.034780
-0.030364
0.074880
0.069467
0.102880
0.137236
0.123849
0.157215
0.175653
0.187914
0.162586
0.240300
0.233915
0.249260
0.194498
0.202203
0.221179
0.304925
0.169336
0.204303
0.175537
0.225096
0.195028
0.209007
0.112213
0.187733
0.142152
0.148497
0.080006
0.084735
0.160834
0.105469
0.114110
0.095539
0.154825
0.103527
0.035064
0.089140
0.071931
0.071869
0.088573
-0.029788
0.046441
0.100482
0.052306
0.059898
0.039617
0.086858
0.103599
0.250138
0.502290
0.718692
1.071896
1.341168
1.368993
1.389748
1.095668
0.739958
0.332718
0.068414
-0.086290
-0.161580
-0.158627
-0.031772
0.032004
0.048565
0.071248
0.025433
0.152871
0.082875
0.170739
0.099499
0.165312
0.130754
0.144897
0.139791
0.152614
0.105524
0.199381
0.213087
0.327375
0.228388
0.312584
0.376939
0.333841
0.288885
0.386580
0.356624
0.389007
0.490299
0.475505
0.473558
0.493374
0.487113
0.535398
0.602674
0.647712
0.578944
0.606151
0.625845
0.602516
0.666495
0.573998
0.563923
0.583678
0.618406
0.593155
0.565775
0.542402
0.468059
0.485961
0.535683
0.524133
0.508567
0.388849
0.486636
0.469249
0.370433
0.458740
0.427642
0.286896
0.239845
0.362173
0.349358
0.324585
0.279420
0.090091
0.204109
0.209699
0.159651
0.233403
0.238879
0.068959
0.101606
0.141010
0.084410
0.138737
0.058006
0.149754
0.160893
0.057659
0.093892
0.079108
0.083807
0.079714
0.092203
0.034171
0.077138
0.086361
0.028183
0.086132
0.048500
0.180989
0.028969
0.061016
0.045167
0.106888
0.136340
0.118889
0.118444
-0.014188
0.072202
0.104614
0.105451
0.162958
0.168702
0.085427
0.024763
0.097074
0.058080
0.040960
0.056708
0.066999
0.064640
0.153859
0.176219
0.164730
0.133137
0.108987
0.140184
0.135807
0.091144
0.045589
0.088909
0.165385
0.174128
0.091127
0.137750
0.105844
0.089836
0.085580
0.134628
0.150440
0.215940
0.217554
0.120548
0.169101
0.184303
0.160915
0.199817
0.167294
0.304926
0.163330
0.281407
0.280238
0.361551
0.223696
0.246782
0.317715
0.257996
0.212720
0.182707
0.270791
0.219656
0.197937
0.303288
0.163892
0.243029
0.175964
0.205326
0.158416
0.159471
0.135027
0.172176
0.085156
0.089434
0.118651
0.143039
0.108627
0.147958
0.098172
0.125027
0.035688
0.102898
0.172440
0.124761
0.119989
0.118470
0.072748
0.089833
0.030917
0.294987
0.469619
0.712418
1.136344
1.293393
1.474303
1.482931
1.242333
0.911422
0.509459
0.157995
-0.054476
-0.127189
-0.175771
-0.058463
0.028289
0.109712
0.135260
0.093036
0.131897
0.104271
0.082611
0.163900
0.069123
0.123209
0.149759
0.210099
0.169010
0.125263
0.250830
0.239002
0.236841
0.263819
0.267142
0.287491
0.370956
0.356013
0.379763
0.395024
0.375269
0.461172
0.413954
0.527308
0.477821
0.462919
0.580818
0.490905
0.513139
0.572678
0.532629
0.560814
0.587548
0.546226
0.644867
0.507481
0.542678
0.595480
0.605370
0.594757
0.479977
0.522661
0.461605
0.508816
0.511394
0.517787
0.382732
0.415877
0.483886
0.407730
0.300323
0.323904
0.302702
0.285123
0.268553
0.214646
0.269524
0.196434
0.198609
0.222150
0.137110
0.170207
0.164236
0.173521
0.135746
0.164782
0.117687
0.108608
0.037559
0.069370
0.062810
-0.026544
0.043504
0.024432
-0.010317
0.094507
-0.004802
0.025404
-0.050951
0.024707
0.079054
0.011845
0.044755
0.104437
-0.027565
0.007747
0.116180
0.063044
-0.007639
-0.007909
0.082135
0.056578
0.015455
-0.018219
-0.019595
0.083893
-0.049169
-0.045781
0.014690
0.048897
-0.019837
0.021297
0.054022
0.032095
0.044399
0.036447
0.044334
0.121416
0.012839
-0.063732
0.058017
0.046799
0.048653
0.046264
0.062956
0.082518
-0.032686
-0.020314
0.102621
-0.023873
0.084764
0.131733
0.087965
0.084968
0.046749
0.066480
0.122883
0.210548
0.081294
0.072720
0.038694
0.133391
0.168100
0.169323
0.195337
0.125574
0.181938
0.185433
0.171469
0.224953
0.138257
0.139030
0.079168
0.200711
0.164281
0.160276
0.146016
0.173579
0.125918
0.117725
0.117936
0.159068
0.033903
-0.037202
-0.011034
0.029973
0.082823
0.091397
-0.002961
0.019645
-0.019140
-0.019545
0.078067
0.080794
-0.047211
0.058809
0.053091
0.026186
0.025107
0.010559
-0.041594
-0.058958
0.052228
0.113069
0.187930
0.527198
0.866833
1.165347
1.390163
1.430100
1.219757
0.938418
0.487800
0.064652
-0.019051
-0.218273
-0.295012
-0.163447
-0.191957
-0.027522
-0.000566
0.029934
-0.006782
0.085450
-0.113192
0.021328
0.115221
0.069703
0.118370
0.074856
0.035192
0.142712
0.045127
0.070777
0.129821
0.143281
0.164073
0.259793
0.206241
0.217624
0.338807
0.238033
0.314176
0.316252
0.377575
0.351950
0.381467
0.431138
0.473267
0.491955
0.387106
0.446165
0.528589
0.449353
0.438494
0.466272
0.509757
0.487004
0.551017
0.485038
0.479924
0.399685
0.559319
0.399642
0.360701
0.417807
0.394060
0.426329
0.400061
0.391039
0.380939
0.320163
0.217327
0.226063
0.232715
0.194872
0.138061
0.182468
0.146273
0.091313
0.064996
0.121145
0.135936
0.145379
0.052771
0.100705
0.108702
-0.015875
0.122544
-0.007131
0.057520
-0.007188
-0.014267
-0.083602
0.013458
-0.062650
0.012771
0.002093
-0.067535
-0.115106
-0.050022
0.035949
-0.029994
-0.023119
-0.131586
0.010411
-0.105117
-0.005907
0.019159
-0.105248
-0.113126
-0.019941
-0.012973
-0.033992
-0.042152
-0.042934
-0.117475
-0.073678
-0.040874
-0.075710
-0.073276
-0.023869
0.002642
-0.007971
0.003436
-0.046761
-0.060909
-0.027178
-0.082543
-0.032145
-0.040052
-0.100316
-0.104659
-0.095492
-0.019638
-0.048871
0.034715
-0.032150
-0.030807
-0.056702
0.037065
-0.029000
0.013210
-0.002729
-0.043945
0.065604
0.002491
-0.017351
0.089831
-0.012119
0.022844
0.027471
0.059831
0.102595
0.091430
0.129628
0.095009
0.086032
0.064518
0.122659
0.113791
0.132086
0.104039
0.151445
0.151409
0.168623
0.141848
0.150252
0.084631
0.108648
0.097845
0.085235
0.077179
0.027089
0.104412
0.048554
-0.001173
0.074623
0.060502
-0.031609
-0.025647
-0.006540
0.079316
-0.082828
-0.034147
-0.075038
-0.048092
0.006956
0.040092
-0.008441
0.003323
0.018359
-0.107000
-0.033424
-0.008950
-0.025526
0.139401
0.436522
0.817553
1.075323
1.350877
1.429425
1.281712
1.046566
0.634184
0.226381
-0.057372
-0.191840
-0.196275
-0.211320
-0.102202
-0.017265
-0.017797
-0.018847
0.000129
0.000652
0.095325
-0.021584
0.002443
0.090610
0.080910
0.157590
0.039720
0.087863
0.101297
0.223106
0.133354
0.125283
0.214506
0.190102
0.137226
0.253900
0.311673
0.256078
0.293683
0.366527
0.450644
0.466036
0.445880
0.499213
0.450412
0.353130
0.418390
0.543469
0.501849
0.499848
0.583065
0.524299
0.538657
0.529471
0.598094
0.534050
0.477091
0.433928
0.386803
0.486206
0.483871
0.479440
0.485697
0.378331
0.379904
0.429623
0.323711
0.289240
0.386534
0.285784
0.286578
0.260929
0.220732
0.234778
0.175822
0.109697
0.211249
0.056490
0.075056
0.149609
0.194767
0.153793
0.045856
0.087944
0.086373
0.079502
0.064851
0.096307
0.065612
0.025205
0.023465
0.045240
0.083623
0.089283
0.075618
0.075250
0.088618
0.021908
-0.093122
0.024529
-0.010101
-0.020234
-0.024780
0.073005
0.032456
-0.029963
0.074904
-0.037286
0.032127
0.030190
0.025729
0.063341
-0.014639
0.045774
0.021255
-0.065239
-0.044362
-0.091017
-0.043858
0.031881
-0.024750
0.059133
0.029613
-0.005721
-0.015044
0.092613
0.010082
0.043636
0.055629
-0.013366
0.083243
-0.004828
0.048631
0.047069
0.037426
0.098573
0.146215
0.052002
0.109474
0.091163
0.058580
0.048627
0.165931
0.137710
0.094127
0.217639
0.132770
0.221313
0.166979
0.150396
0.178619
0.161066
0.320309
0.284898
0.097362
0.268933
0.240874
0.278274
0.203832
0.228606
0.250704
0.295354
0.273494
0.281916
0.186885
0.164207
0.195715
0.148770
0.150235
0.219459
0.185693
0.153154
0.143764
0.163994
0.030564
0.162445
0.144447
0.084312
-0.002600
0.058642
0.088321
0.084119
0.062445
0.069122
0.024409
0.070374
0.067543
0.132072
0.091261
0.040578
0.111335
0.130267
0.251838
0.349697
0.783765
1.042637
1.380528
1.494998
1.448676
1.177862
0.845839
0.375330
0.255893
-0.033196
-0.137679
-0.028747
-0.019469
0.074838
0.062797
0.142592
0.132811
0.143249
0.146112
0.179557
0.108890
0.250156
0.208357
0.248808
0.290137
0.211945
0.260022
0.241130
0.192731
0.287379
0.287109
0.214565
0.379861
0.333280
0.357511
0.408714
0.464860
0.346972
0.499621
0.525390
0.458118
0.527780
0.553620
0.502905
0.474796
0.525218
0.613056
0.636927
0.535997
0.542811
0.633165
0.566726
0.665445
0.677904
0.660386
0.611995
0.667803
0.620370
0.666521
0.618369
0.506495
0.517875
0.487520
0.485259
0.460730
0.445279
0.432472
0.343007
0.304996
0.415185
0.344365
0.322985
0.326934
0.292999
0.287585
0.337512
0.146238
0.293411
0.204996
0.196687
0.230776
0.176892
0.207369
0.155327
0.222914
0.071933
0.125687
0.216940
0.051464
0.064909
0.200004
0.094296
0.189964
0.218546
0.142072
0.149075
0.146926
0.110839
0.185011
0.122385
0.079366
0.105195
0.099271
0.131710
-0.060930
0.069925
0.176839
0.202314
0.079704
0.107711
0.039954
0.057447
0.047915
0.074942
0.082241
0.076401
0.034817
0.094051
0.075254
0.126882
-0.021845
0.109362
0.072809
0.130150
0.072772
0.219019
0.071115
0.119176
0.146135
0.136042
0.165958
0.111313
0.105662
0.132549
-0.000129
0.141663
0.176243
0.150801
0.148318
0.089784
0.129130
0.192280
0.142837
0.216170
0.208899
0.161606
0.194901
0.217716
0.161148
0.161270
0.259731
0.240801
0.282633
0.234192
0.250856
0.252899
0.167212
0.322701
0.287989
0.261240
0.225040
0.258943
0.296239
0.205180
0.157804
0.173053
0.216702
0.134072
0.191601
0.170799
0.073796
0.158364
0.200223
0.127405
0.117263
0.131800
0.065565
0.196833
0.150375
0.086840
0.049073
0.078804
0.110680
0.121362
0.087090
0.095103
0.072529
0.012608
0.085078
0.149193
0.086564
0.361315
0.563689
0.968371
1.259967
1.500000
1.496437
1.238925
0.942609
0.614861
0.281066
-0.002071
-0.082496
-0.075353
-0.054079
-0.000559
0.021976
0.036491
0.134063
0.040575
0.146366
0.080025
0.185689
0.062782
0.207224
0.100894
0.037517
0.071118
0.222938
0.271745
0.242651
0.186342
0.208170
0.368640
0.294951
0.288570
0.304298
0.385296
0.334167
0.400763
0.441307
0.439061
0.408758
0.463030
0.469317
0.465014
0.446304
0.469642
0.515555
0.579213
0.631993
0.524190
0.499470
0.623134
0.588950
0.531754
0.635278
0.576892
0.546503
0.579621
0.556567
0.523103
0.509674
0.510239
0.470568
0.465159
0.428640
0.303791
0.379193
0.291698
0.262666
0.405143
0.313978
0.262778
0.203087
0.200260
0.176900
0.171010
0.089868
0.202294
0.180673
0.169708
0.093997
0.175393
0.130834
0.120758
0.051099
0.064930
0.030133
0.059465
0.045733
-0.003063
0.073514
0.040254
0.056805
0.074402
-0.020393
0.050376
0.017384
0.008248
-0.015514
-0.000585
0.111908
-0.008487
0.066884
-0.010429
0.021793
0.004441
0.036666
0.022292
0.015586
0.017137
0.070479
0.055408
0.017193
0.034284
0.113025
-0.031651
0.044898
-0.028610
0.003541
-0.051835
-0.041028
0.074477
-0.028038
0.012434
-0.007034
-0.004456
0.006158
0.054453
0.030986
-0.028376
0.043233
-0.000624
-0.100621
0.030710
-0.051697
0.014876
0.077714
0.072537
0.037684
0.087327
0.015342
-0.006689
0.123961
0.065151
0.143465
0.090734
0.055743
0.158018
0.125858
0.133017
0.127733
0.078227
0.084112
0.189213
0.122298
0.112059
0.087810
0.176522
0.175663
0.117542
0.101930
0.207470
0.093911
0.057569
0.098297
0.107715
0.130750
0.141210
0.010212
0.055968
0.089555
0.004410
0.098851
0.010748
-0.037720
-0.007247
-0.004802
-0.043149
-0.032666
-0.097195
0.058814
-0.085154
0.024216
-0.024151
-0.076383
0.043298
-0.069433
-0.153226
-0.094642
-0.035590
-0.037126
0.139024
0.413507
0.790655
1.137408
1.343845
1.413470
1.284219
0.957656
0.540120
0.219181
-0.100211
-0.177376
-0.234513
-0.173236
-0.145151
-0.142015
-0.047727
-0.037390
-0.052953
-0.058711
-0.021836
-0.032601
-0.057812
-0.020723
0.041943
0.025520
0.054326
0.006606
0.026112
0.084325
0.109963
0.180634
0.103015
0.192970
0.153079
0.089992
0.184171
0.232528
0.201147
0.185209
0.286376
0.343412
0.357348
0.357681
0.410997
0.443076
0.520876
0.383592
0.491591
0.352644
0.434465
0.479288
0.448550
0.417437
0.447945
0.478757
0.445509
0.471988
0.460885
0.357791
0.386535
0.463734
0.356412
0.359010
0.324072
0.312635
0.364443
0.213805
0.286972
0.247616
0.106242
0.181895
0.164199
0.175555
0.191230
0.187068
0.057987
0.106910
0.093847
-0.078819
0.011132
-0.015397
0.043348
0.060724
0.053212
0.004298
-0.007455
-0.133627
-0.089141
0.026605
-0.020887
-0.048428
-0.125089
-0.120285
-0.143081
-0.021562
-0.102281
-0.216704
-0.046854
-0.033306
-0.030200
-0.134556
-0.116454
-0.153472
-0.053380
-0.058421
-0.134014
-0.099868
-0.097882
-0.036795
-0.091292
-0.157451
-0.173611
-0.140242
-0.163935
-0.082458
-0.148924
-0.067406
-0.050077
-0.073099
-0.109074
-0.065572
-0.109821
-0.126398
-0.052351
-0.093499
-0.163157
-0.080680
-0.102588
-0.118022
-0.176772
-0.015466
-0.046403
-0.100657
0.021573
-0.037992
-0.056382
-0.118142
0.021063
-0.038848
-0.071124
-0.071395
0.005917
-0.036321
-0.008550
0.038592
0.080038
-0.051912
-0.044576
0.092106
-0.001820
0.061265
0.186851
-0.021903
0.044096
0.157664
0.152359
0.119336
0.171116
0.048734
0.040651
0.040659
0.082647
0.061866
0.098829
0.073526
-0.031715
-0.033213
0.013252
0.012398
0.011111
0.041700
-0.019387
-0.042227
-0.011236
-0.000847
-0.003567
-0.056243
-0.028390
-0.038655
-0.023444
-0.117825
-0.113628
-0.016790
-0.021771
-0.017382
-0.079219
-0.055699
-0.068439
-0.124406
-0.099715
-0.083621
0.139044
0.328673
0.636568
0.973468
1.182297
1.303818
1.313238
0.979856
0.728766
0.275297
-0.080464
-0.136706
-0.234152
-0.242577
-0.206123
-0.062920
-0.071431
-0.089616
-0.018097
-0.007442
-0.007513
-0.020431
-0.013437
0.072692
0.037877
0.107721
0.008783
0.109658
0.124811
0.099662
0.049958
0.146835
0.188148
0.218679
0.269942
0.168100
0.214994
0.227930
0.298943
0.268912
0.290617
0.327554
0.369101
0.365573
0.384550
0.425142
0.488788
0.491034
0.538186
0.525990
0.457999
0.540492
0.464913
0.417055
0.523887
0.457790
0.465482
0.482512
0.439414
0.374765
0.458730
0.445921
0.445443
0.341402
0.342583
0.349472
0.300745
0.265937
0.218562
0.282862
0.243069
0.292278
0.180981
0.201432
0.142268
0.169371
0.147314
0.147641
0.091216
0.056989
0.125920
0.016948
0.081538
0.058493
0.095994
0.035333
0.049391
0.087787
-0.002248
-0.012984
-0.028101
-0.045950
0.035512
0.027592
-0.053099
-0.035617
-0.030785
0.037352
-0.011684
-0.038500
-0.070381
-0.035755
-0.031921
-0.048898
0.075931
0.033934
0.001609
0.012035
-0.021347
0.041026
-0.070305
-0.021394
-0.090943
-0.015533
-0.042189
-0.021184
0.004283
-0.069385
0.007144
-0.096557
-0.026924
-0.039918
-0.028126
0.031006
-0.008359
-0.074405
-0.093279
0.034507
-0.014544
-0.025206
0.025938
-0.041333
-0.052077
-0.017479
0.066128
0.025174
-0.003754
0.072736
0.042852
0.108685
0.015041
0.056591
-0.017760
0.080633
0.089282
0.067286
0.133673
0.053599
0.061979
0.144447
0.107662
0.128920
0.102082
0.095203
0.093553
0.141763
0.178137
0.229223
0.157698
0.275239
0.204064
0.155454
0.180728
0.192420
0.174028
0.170073
0.124882
0.252285
0.154914
0.146865
0.097999
0.088603
-0.001449
0.081007
0.081807
0.020998
0.087734
-0.028588
0.036997
0.101926
0.064563
-0.037796
0.060478
0.109700
0.024556
0.092581
0.003745
0.047939
0.012319
-0.021718
-0.006548
0.016506
0.168995
0.357581
0.552250
1.023387
1.267375
1.411582
1.387502
1.263571
0.894572
0.428718
0.120794
-0.106944
-0.173971
-0.210211
-0.065894
-0.052029
0.089669
0.047497
0.087387
0.064181
0.100148
0.137633
0.091722
0.144343
0.139448
0.201979
0.133721
0.170836
0.179359
0.099931
0.165838
0.282951
0.300253
0.334512
0.217271
0.251820
0.288221
0.253757
0.288760
0.445103
0.417941
0.399402
0.441091
0.410383
0.508943
0.538127
0.517707
0.539182
0.489736
0.556094
0.534023
0.577224
0.614689
0.545417
0.537046
0.562495
0.699183
0.541750
0.518066
0.566916
0.555994
0.550935
0.596310
0.468198
0.466581
0.366707
0.412213
0.390357
0.446360
0.289334
0.324881
0.331344
0.240480
0.234412
0.240722
0.252732
0.318783
0.150065
0.203381
0.176138
0.097848
0.150773
0.140185
0.104691
0.119983
0.135798
0.097158
0.130798
0.072022
0.099067
0.130768
0.096210
0.154713
0.082025
0.036436
-0.018771
-0.015075
0.078887
-0.027980
0.103903
0.018480
0.153505
-0.065976
-0.023318
0.017510
0.080630
0.083054
0.094723
0.058082
0.118526
0.063749
0.040257
0.016242
0.022605
0.133973
0.024558
0.068948
0.081476
0.077013
0.049926
0.158315
0.006024
0.111159
0.057647
-0.029552
0.044159
0.090530
0.037069
0.026230
0.048195
-0.000100
0.043644
0.129212
0.008361
0.050473
0.088341
0.073587
0.057156
0.089691
-0.020723
0.102061
0.092062
0.136028
0.079974
0.045210
-0.001356
0.157435
0.174045
0.089403
0.119120
0.055836
0.147407
0.192186
0.251249
0.087617
0.218302
0.202462
0.139877
0.258869
0.279722
0.222256
0.228895
0.115596
0.254076
0.180502
0.242617
0.254537
0.115356
0.098070
0.092351
0.181777
0.135646
0.216288
0.115355
0.143669
0.079598
0.129032
0.072894
0.048836
0.054981
0.062044
0.042303
0.046223
0.056418
0.021517
0.006733
0.034593
0.004465
-0.050058
-0.036451
-0.057601
0.084651
0.155226
0.297214
0.448710
0.866425
1.093192
1.386790
1.386917
1.378540
1.027283
0.659903
0.222342
-0.040237
-0.165411
-0.158082
-0.192988
-0.083251
-0.007428
0.035701
0.037724
0.055984
0.018537
0.071425
0.119125
0.069489
0.170681
0.091073
0.074361
0.109036
0.096678
0.039884
0.151479
0.178448
0.142590
0.205622
0.190510
0.259699
0.224407
0.255202
0.347319
0.281632
0.408934
0.383595
0.362139
0.363743
0.499045
0.378132
0.514121
0.502738
0.470420
0.529078
0.541605
0.483275
0.527109
0.540729
0.591336
0.565380
0.501793
0.517411
0.517812
0.507810
0.499112
0.429849
0.401476
0.457403
0.364712
0.463102
0.417761
0.307449
0.371725
0.278736
0.238171
0.251808
0.170620
0.263814
0.154902
0.157871
0.106514
0.173666
0.073363
0.148684
0.092717
0.070542
0.127259
0.046328
-0.021359
0.138088
0.038116
-0.011944
-0.030416
-0.052347
0.018256
0.058974
-0.090693
0.014008
-0.014972
-0.060367
0.030177
0.083623
-0.016621
-0.063885
-0.053054
-0.050394
-0.098109
0.009961
-0.011639
-0.074061
-0.084534
-0.079892
-0.099287
-0.104176
0.029345
-0.007826
-0.044106
-0.028412
-0.060060
-0.067663
-0.005661
-0.029133
0.007665
0.001025
-0.055620
0.008921
-0.006540
-0.045522
-0.002772
-0.013692
-0.001479
-0.050689
-0.013675
-0.083434
-0.018389
-0.086538
-0.113805
-0.063025
-0.036454
-0.021940
0.000047
-0.096838
-0.076886
-0.050612
-0.057337
-0.049736
-0.014548
0.045630
0.008085
-0.003709
-0.019054
-0.066781
0.047108
0.001010
0.082342
-0.017569
0.106202
0.150116
0.102933
0.134372
0.125840
0.145901
0.105262
0.113077
0.068034
0.035404
0.091207
0.160079
0.131454
0.080978
0.008257
0.023986
0.089327
0.088436
0.057214
-0.038379
0.071373
0.015347
0.000595
-0.094243
-0.032556
0.008057
-0.124933
0.008464
-0.043753
-0.005459
-0.020346
-0.136236
-0.059803
-0.068946
-0.034574
-0.069957
-0.021850
-0.123633
-0.079161
-0.095709
-0.027736
0.074753
0.224704
0.672027
0.961056
1.278730
1.294736
1.218806
0.987185
0.625653
0.328382
-0.065500
-0.214742
-0.320619
-0.285635
-0.266311
-0.139386
-0.105197
-0.033735
-0.102182
-0.071189
-0.124070
0.017096
-0.034280
-0.019411
-0.056118
-0.003605
-0.071697
0.001941
0.030361
0.031304
0.010133
0.029387
0.171109
0.172525
0.138829
0.157105
0.229473
0.200881
0.220535
0.243367
0.251886
0.266321
0.244082
0.380455
0.300782
0.376656
0.388891
0.417221
0.428294
0.507858
0.405208
0.478562
0.499325
0.422654
0.335562
0.461348
0.516177
0.445605
0.372120
0.425840
0.349485
0.417469
0.374460
0.268388
0.366932
0.246797
0.325772
0.221827
0.162154
0.300140
0.205788
0.166154
0.202317
0.099267
0.039337
0.035857
0.153338
0.062230
-0.008006
0.066476
-0.040310
0.070417
-0.102502
-0.018693
0.007486
0.033127
-0.052932
-0.122808
-0.077848
-0.062341
-0.129403
-0.089917
-0.084473
-0.109814
-0.081350
-0.079704
-0.075875
-0.096115
-0.073410
-0.133154
-0.129263
-0.162615
-0.162866
-0.098526
-0.124765
-0.079430
-0.167635
-0.108969
-0.221192
-0.112956
-0.095408
-0.086504
-0.068169
-0.072093
-0.102475
-0.043657
-0.100636
-0.118566
-0.139363
-0.006775
-0.035217
-0.178183
-0.149935
-0.150921
-0.128920
-0.095390
-0.115728
-0.129831
-0.105091
-0.153513
-0.045448
-0.069380
-0.139325
-0.136031
-0.059876
-0.033247
-0.081051
-0.094208
-0.103847
-0.106775
-0.039570
-0.034281
-0.047336
-0.031467
0.047632
-0.002530
-0.079145
-0.096862
0.068746
0.029886
0.033480
-0.002562
0.052209
0.052446
0.088623
0.040375
0.063283
0.066504
0.106189
0.070468
0.087708
0.097351
0.119228
0.005098
0.083628
0.129121
0.150696
-0.006868
-0.019299
0.049610
0.069248
-0.049731
0.037265
-0.090177
-0.025228
-0.090919
-0.049885
-0.021195
-0.026120
0.039172
-0.019582
0.050139
-0.176647
-0.076566
-0.029281
-0.048349
-0.114824
-0.077355
-0.025245
-0.069620
-0.166682
-0.071566
0.131773
0.223131
0.628381
0.819253
1.133067
1.274564
1.284346
1.137470
0.761798
0.431178
-0.002630
-0.149436
-0.327888
-0.246870
-0.239081
-0.065349
-0.078997
-0.007441
-0.016207
0.006079
-0.052053
-0.088036
-0.089096
-0.031303
0.027481
0.052151
0.084219
0.061935
0.015670
0.079846
0.108960
0.129984
0.152936
0.113541
0.168778
0.171295
0.161439
0.337105
0.269046
0.292998
0.189289
0.317643
0.381113
0.403887
0.389740
0.378029
0.496338
0.378958
0.495409
0.433832
0.431481
0.520166
0.552052
0.448463
0.415993
0.578360
0.489318
0.399152
0.468534
0.477962
0.435355
0.383451
0.447188
0.503493
0.271841
0.302805
0.394648
0.365065
0.369496
0.279571
0.293340
0.215265
0.230320
0.198720
0.193200
0.168770
0.127301
0.157990
0.080364
0.137812
0.111765
0.070862
0.010642
0.014626
0.113930
0.063901
-0.025460
0.009496
0.031056
0.091215
0.046682
0.040436
-0.025378
0.068410
0.005597
0.032344
-0.022987
-0.010074
-0.051765
0.042305
-0.008927
0.045411
-0.011841
0.001928
0.040918
-0.026737
-0.009583
0.058805
0.060787
-0.043445
0.025025
0.002741
-0.042609
0.022897
-0.113994
-0.012770
-0.043833
-0.038428
0.020121
0.003058
-0.058786
0.012707
-0.008644
-0.003750
-0.013546
-0.000580
-0.028486
0.008123
0.021453
-0.007451
-0.097226
-0.037248
0.035194
0.072779
0.015263
0.093649
0.002367
-0.025441
-0.058376
0.034955
0.067877
0.052158
0.130807
0.153659
0.039546
0.144318
0.082026
0.004812
0.132531
0.110176
0.214105
0.136126
0.141825
0.206404
0.214371
0.275225
0.161162
0.209748
0.202111
0.278097
0.213606
0.155950
0.305174
0.195646
0.207380
0.203549
0.194993
0.133875
0.137652
0.051055
0.124459
0.147577
0.090054
0.043410
0.180172
0.032005
0.064877
0.037513
0.042803
0.082566
0.098598
0.126192
-0.031357
0.048639
0.104409
0.122064
0.041955
0.071959
-0.002516
0.047736
0.009110
0.115810
0.089708
0.340592
0.562131
0.866767
1.202566
1.391036
1.484373
1.296545
0.948493
0.651727
0.366234
0.043249
-0.213335
-0.162981
-0.117001
-0.139075
0.081457
0.098885
0.088457
0.075860
0.023003
0.116729
0.187472
0.082949
0.124256
0.178477
0.221265
0.167331
0.215103
0.123799
0.222117
0.282641
0.321397
0.273552
0.240168
0.283752
0.355569
0.390945
0.335182
0.328074
0.512334
0.421930
0.449193
0.460823
0.537857
0.436797
0.640124
0.573003
0.536655
0.591650
0.614744
0.542080
0.601628
0.523390
0.605740
0.636838
0.558919
0.569960
0.574419
0.600018
0.502524
0.501160
0.427230
0.531327
0.441221
0.514768
0.474517
0.455709
0.376135
0.418780
0.413839
0.363948
0.310716
0.313932
0.284036
0.235058
0.202090
0.209547
0.278109
0.210407
0.105111
0.213411
0.110465
0.099031
0.159427
0.192667
0.127398
0.138969
0.119589
0.112605
0.084830
-0.006088
0.055605
0.081831
0.087563
0.179127
0.079275
0.108408
0.102744
0.003078
0.035225
0.063666
0.113483
0.103003
0.056909
0.036169
0.069706
0.108342
0.145506
0.067586
0.040630
0.030608
0.051600
0.106186
0.140676
0.040404
0.019831
0.127598
-0.023143
0.113269
0.034471
