-0.009840
-0.016549
-0.005274
0.002082
-0.042268
-0.033083
0.055018
-0.009015
-0.016915
-0.024021
-0.008520
0.023549
-0.019780
-0.022797
0.072770
-0.018752
-0.020668
0.015346
-0.044508
0.108743
-0.028938
0.040410
-0.006733
0.071711
0.060187
0.012150
0.039159
0.081762
0.035516
0.097567
0.095973
0.037229
0.037805
0.046951
0.118616
0.047061
0.186471
0.182442
0.068627
0.223187
0.178127
0.174672
0.149284
0.126167
0.234921
0.282631
0.242872
0.225178
0.179047
0.265065
0.193177
0.210456
0.218228
0.145147
0.155830
0.100466
0.120648
0.130958
0.119147
0.120888
0.130461
0.042148
0.100279
0.057378
0.104566
0.038726
0.123708
0.043627
0.053087
0.055125
0.078099
0.129957
0.055566
-0.002387
0.051552
0.003829
0.093677
-0.003870
-0.024680
0.049542
0.073176
0.025622
0.059528
0.057709
0.045852
0.117242
0.214554
0.545006
0.720607
1.105706
1.424610
1.419748
1.381998
1.141299
0.703040
0.403867
0.127730
-0.055772
-0.272986
-0.193729
-0.219031
-0.054609
0.004614
0.014799
0.031211
0.062066
0.040424
0.040157
0.102346
0.103292
0.074781
0.104315
0.069606
0.129590
0.080290
0.164887
0.146135
0.113690
0.196894
0.108491
0.208866
0.208509
0.166787
0.117900
0.266724
0.275711
0.261466
0.286366
0.226371
0.243281
0.382174
0.357127
0.347308
0.408166
0.470301
0.427607
0.395397
0.429978
0.472411
0.508979
0.574535
0.545980
0.521069
0.658038
0.550352
0.546004
0.609542
0.570001
0.611158
0.600316
0.628892
0.515716
0.565214
0.452144
0.503671
0.525584
0.394058
0.382669
0.419729
0.444865
0.525438
0.349999
0.393181
0.385387
0.342367
0.327684
0.352885
0.331891
0.309896
0.304479
0.132123
0.212011
0.236965
0.283588
0.207228
0.128315
0.060805
0.160997
0.183648
0.196536
0.156232
0.104673
0.202075
0.058537
0.145717
0.148302
0.080905
0.074119
0.163818
0.146978
0.113987
0.050895
0.064182
0.072908
0.081648
0.171653
0.037735
0.129587
0.103900
0.046660
0.049286
0.095542
0.019410
0.027114
-0.002357
0.105808
0.087938
0.016776
0.060690
0.097552
0.060640
0.113650
0.082241
0.105202
0.140476
0.106355
0.101368
0.041312
0.097782
0.087362
0.105859
-0.042395
0.041717
0.102740
0.071238
0.074612
0.060292
0.132987
0.096512
0.062588
0.078363
0.075188
0.050703
0.044114
0.052638
0.115331
0.067321
0.158311
0.101336
0.097600
0.141655
0.049964
0.086047
0.122827
0.090500
0.058314
0.088463
0.023974
0.068007
0.075709
0.101282
0.127949
0.097237
0.141097
0.101456
0.121793
0.135928
0.095613
0.117610
0.187517
0.134633
0.112196
0.234451
0.166340
0.158034
0.205588
0.172682
0.211903
0.184739
0.243129
0.195025
0.229651
0.215599
0.276249
0.199817
0.225827
0.168830
0.284743
0.231992
0.220805
0.187035
0.238868
0.155740
0.141362
0.156836
0.088046
0.100613
0.066909
0.088235
0.066929
0.079233
0.165811
0.054887
0.018004
0.061049
0.071646
0.095899
0.022847
0.060964
0.055577
0.057907
0.130497
0.043990
0.072442
0.035755
0.040486
0.104407
0.046293
0.051035
0.036357
-0.065784
-0.032211
0.095487
0.185963
0.399726
0.688051
1.021161
1.258671
1.323594
1.500000
1.229138
0.850470
0.538310
0.136463
-0.045147
-0.223353
-0.168936
-0.209416
-0.107265
-0.045656
-0.038017
0.020619
0.105911
-0.017177
0.006896
0.107776
0.093997
0.111211
0.046494
0.054170
0.045204
0.086763
0.011399
0.086833
0.090058
0.121664
0.130103
0.071604
0.099627
0.156025
0.191234
0.195839
0.253074
0.235894
0.200895
0.169184
0.238667
0.296180
0.328624
0.281651
0.373391
0.334893
0.393727
0.382057
0.436368
0.438623
0.439479
0.445503
0.468527
0.473506
0.398988
0.588371
0.570699
0.552791
0.543650
0.520852
0.558489
0.553794
0.467540
0.499076
0.494699
0.486381
0.516335
0.473923
0.386904
0.335239
0.398020
0.399496
0.419281
0.375704
0.323803
0.294634
0.234230
0.311840
0.208060
0.233075
0.237738
0.265114
0.161395
0.148973
0.087226
0.038224
0.094401
0.115779
0.048362
0.135218
0.071177
0.006101
0.047373
0.017111
0.076229
-0.008371
-0.005049
0.047996
0.057541
0.004800
0.097899
-0.035270
0.031310
0.043764
0.012780
0.002887
0.001980
-0.015725
-0.063270
-0.044577
0.018100
-0.019336
0.003528
0.101198
-0.038558
0.014917
-0.027439
-0.045633
0.086737
-0.004483
-0.002647
-0.015511
0.041877
-0.053957
0.019638
-0.013278
-0.039173
-0.026621
-0.044973
0.000992
0.005331
-0.047360
0.028866
-0.059698
0.037482
0.034321
0.028631
-0.040280
-0.162069
-0.029924
-0.023190
0.022054
-0.032623
0.008117
-0.062548
0.016373
-0.013825
0.026566
0.033959
-0.030976
-0.001360
-0.025014
0.054982
0.002475
0.015541
0.010975
-0.085803
-0.047458
-0.031011
0.011950
-0.064259
-0.011817
-0.010529
-0.023041
-0.030358
0.057398
0.000902
0.045715
0.010298
0.054976
0.067468
0.119231
0.030206
0.120355
0.015261
0.121926
0.118340
0.120237
0.190109
0.080107
0.163422
0.120838
0.148669
0.139872
0.138438
0.179741
0.104744
0.143571
0.116594
0.129113
0.025861
0.110615
0.081797
0.033796
0.065973
0.127161
-0.001862
-0.022110
0.005251
-0.055264
-0.033886
0.029854
0.050045
0.052748
0.007945
-0.012383
-0.021299
-0.065818
-0.097758
0.064032
-0.011479
0.023057
-0.088592
0.017285
-0.044295
-0.006131
-0.071159
-0.056468
-0.067738
-0.018344
-0.064454
-0.073415
-0.141852
-0.055180
-0.019480
0.249468
0.463326
0.758840
1.138748
1.341400
1.285945
1.199023
0.845405
0.541041
0.208075
-0.111901
-0.251189
-0.259627
-0.361813
-0.182799
-0.111954
-0.153905
-0.008641
-0.025267
-0.061385
-0.086288
0.002049
0.029558
-0.011591
0.032004
-0.056228
-0.013036
-0.032808
0.030237
0.029159
0.029972
-0.059140
0.048498
0.061358
0.103851
0.066438
0.046204
0.052655
0.104884
0.173341
0.165632
0.131022
0.240762
0.249959
0.173253
0.175771
0.209580
0.282792
0.328844
0.285707
0.348994
0.339709
0.398467
0.452926
0.339651
0.372876
0.443572
0.427150
0.510217
0.477224
0.476611
0.481331
0.413906
0.476517
0.474880
0.350312
0.448870
0.427550
0.455425
0.372928
0.403383
0.332489
0.366255
0.301880
0.338948
0.226881
0.257389
0.220221
0.178246
0.188080
0.195048
0.147176
0.127294
0.119334
0.099556
0.189624
0.113367
0.154659
0.040570
0.072577
0.140031
-0.000282
0.021644
0.056825
-0.035966
-0.055583
-0.060463
-0.080680
-0.077588
0.046893
-0.049335
-0.024607
0.042053
0.009660
-0.019899
-0.007064
-0.001564
-0.034137
-0.040161
-0.003670
0.004874
-0.006235
-0.072082
0.039169
-0.035525
-0.062581
0.003939
-0.026004
0.028014
-0.091640
-0.003088
-0.072844
-0.078195
-0.072509
-0.049889
-0.073791
-0.053010
-0.013555
-0.070459
0.011589
-0.027968
0.092344
-0.041911
-0.050714
-0.012071
-0.065088
-0.075929
-0.009693
-0.043052
-0.027418
0.044714
0.027495
-0.042306
-0.045870
0.009825
-0.000857
0.022248
-0.062086
0.028305
-0.022389
-0.007979
0.048182
0.004055
0.067564
-0.044783
-0.024155
0.077124
-0.000616
-0.017457
0.103563
-0.040456
-0.089752
-0.023553
-0.059160
0.027932
-0.004268
-0.034486
0.073910
-0.006756
0.029900
0.051214
0.047432
-0.018926
0.098199
0.102640
0.070510
0.121454
0.192511
0.072912
0.065372
0.084898
0.081207
0.152632
0.106335
0.171516
0.150910
0.160924
0.206725
0.216951
0.195817
0.175598
0.030635
0.174174
0.189920
0.135536
0.122141
0.101150
0.090739
0.171233
0.083246
0.078631
0.091821
0.059237
0.019511
0.029235
0.065119
0.102322
-0.036814
0.122225
0.028876
0.017839
0.045926
-0.085147
0.029976
0.082672
0.036404
-0.002769
-0.036227
0.025340
0.077024
0.003175
0.079277
-0.014300
0.053734
0.003117
0.025777
0.105621
0.241846
0.441898
0.797266
1.115696
1.408561
1.384436
1.281257
1.039208
0.657516
0.304377
-0.018689
-0.161322
-0.179140
-0.247011
-0.184011
-0.138390
-0.019321
-0.013808
0.078491
0.112432
0.092477
0.091269
0.050706
0.078739
0.063078
0.074323
0.047323
0.056093
0.056679
0.092297
0.105411
0.141065
0.131730
0.127501
0.264330
0.120785
0.182265
0.237953
0.166819
0.187110
0.215191
0.235470
0.256549
0.308055
0.295467
0.392545
0.345563
0.287869
0.443664
0.404053
0.437413
0.450219
0.549185
0.499985
0.550111
0.527293
0.522973
0.462165
0.516079
0.546907
0.597037
0.537806
0.512219
0.609742
0.547827
0.606356
0.457399
0.568330
0.544652
0.516508
0.478285
0.527363
0.463309
0.404397
0.470863
0.423540
0.383344
0.355865
0.347954
0.343087
0.331457
0.304144
0.294736
0.355697
0.271278
0.210122
0.144438
0.244597
0.155672
0.198695
0.153710
0.077878
0.150258
0.074892
0.168698
0.075511
0.089609
0.014482
0.132684
0.200369
0.151106
0.058728
0.109903
0.100846
0.115609
0.147724
0.118875
0.134781
0.061037
0.147282
0.060970
0.059934
0.107246
0.124102
0.097897
0.090867
0.126769
0.029832
0.141358
0.082701
0.169165
0.066179
0.054428
0.083726
0.129482
0.048557
0.130298
0.110657
0.075726
0.101567
0.080311
0.111707
0.095541
0.160570
0.041503
0.169999
0.080016
0.112196
0.097047
0.024002
0.029915
0.049419
0.059294
0.127293
0.021481
0.087487
0.068695
0.102328
0.165642
0.144038
0.128854
0.052367
0.143331
0.115800
0.144382
0.104703
0.110226
0.146892
0.080245
0.039797
0.144943
0.139132
0.106791
0.114146
0.161952
0.128379
0.149371
0.111043
0.115782
0.188772
0.122225
0.170522
0.084125
0.111564
0.074478
0.126521
0.245806
0.233606
0.224058
0.166904
0.216832
0.168784
0.275555
0.273696
0.153981
0.347490
0.191494
0.268007
0.312855
0.291955
0.207449
0.241976
0.220488
0.207377
0.242858
0.220559
0.275717
0.232662
0.257342
0.208647
0.151383
0.176796
0.110672
0.090999
0.063736
0.128702
0.136983
0.181912
0.181318
0.097616
0.153353
0.102178
0.135798
0.161723
0.068709
0.129852
0.063696
0.068907
0.021667
0.101358
0.142827
0.001554
0.047844
0.097473
0.105770
0.016736
0.173082
0.175860
0.467809
0.771695
1.031621
1.385785
1.472090
1.422164
1.118868
0.812826
0.473195
0.141949
-0.033408
-0.159574
-0.239084
-0.116011
-0.102836
0.051839
-0.024368
0.079991
0.079602
0.089943
0.141224
0.121843
-0.009545
0.066535
0.099139
0.148038
0.063152
0.164258
0.120014
0.111214
0.226487
0.164928
0.206967
0.151414
0.169205
0.217010
0.275911
0.136559
0.248818
0.246087
0.257690
0.252765
0.274058
0.272162
0.380926
0.347804
0.405989
0.307637
0.374344
0.447409
0.442030
0.458783
0.493592
0.480353
0.492865
0.591655
0.516763
0.500980
0.539885
0.514808
0.534558
0.502919
0.512412
0.531696
0.596828
0.477251
0.544090
0.501850
0.436106
0.565266
0.434228
0.413050
0.374387
0.481531
0.405664
0.404170
0.350728
0.351263
0.311504
0.333296
0.231927
0.249218
0.212478
0.266732
0.226528
0.232480
0.139790
0.171357
0.096552
0.099289
0.088636
0.071172
0.147045
0.081578
0.064211
0.084837
0.065917
0.183781
0.071695
-0.008635
0.034123
0.011048
0.026673
0.047223
0.053470
0.011865
0.039692
0.006561
0.015037
-0.008378
0.034178
0.058650
0.038376
0.083311
0.019936
-0.057657
-0.015883
0.044497
0.066905
0.043723
0.031364
0.030512
-0.025743
-0.016991
0.018979
0.005687
-0.089070
-0.003407
0.016544
-0.034594
0.052720
-0.061643
0.015240
0.019989
0.069515
-0.001447
-0.017653
0.024944
-0.032258
0.002863
-0.002921
0.012128
0.013511
0.044565
0.007534
0.030488
-0.002859
0.015509
0.042944
0.039936
0.072733
0.018841
0.040575
0.026808
0.016353
-0.039913
-0.006868
-0.025554
-0.088964
0.028635
0.017344
-0.014255
-0.061152
0.049528
0.063086
0.018936
0.043137
0.032884
0.000327
0.126447
0.015006
0.100013
-0.005733
0.032792
0.016691
0.069446
0.060319
0.130568
0.128789
0.131341
0.147893
0.197614
0.068934
0.100125
0.099212
0.100657
0.187048
0.154884
0.128176
0.112987
0.158367
0.209492
0.115088
0.168175
0.108647
0.066844
0.075179
0.108340
0.035486
0.020254
0.042179
0.088172
-0.012195
0.034339
-0.056383
-0.047286
0.019488
-0.032581
0.013619
-0.065543
-0.010955
0.047610
-0.038121
0.040906
-0.068705
-0.082390
-0.075436
0.000943
-0.031050
-0.018151
0.008175
-0.061584
-0.115584
-0.088602
-0.068763
-0.001788
0.054550
0.229217
0.512259
0.809017
1.200650
1.287347
1.268484
1.076951
0.832063
0.419925
0.099881
-0.112579
-0.308727
-0.312330
-0.261325
-0.194689
-0.201705
-0.103842
-0.038626
-0.098685
-0.057252
-0.064272
-0.066580
-0.063749
0.063185
0.027135
-0.034863
0.047676
-0.116994
0.037298
0.018095
0.076180
0.013537
0.066963
0.040156
0.085642
0.026017
0.089027
0.084773
0.077758
0.119076
0.140067
0.192363
0.192087
0.179118
0.213530
0.168022
0.321827
0.334832
0.277510
0.369906
0.362040
0.335868
0.341076
0.361233
0.434263
0.388313
0.448216
0.415972
0.438496
0.420456
0.366758
0.451045
0.400700
0.456013
0.415663
0.450138
0.365964
0.405734
0.369249
0.425388
0.389582
0.309736
0.369075
0.223418
0.251998
0.305599
0.147174
0.286335
0.148254
0.187623
0.197378
0.107497
0.138802
0.049411
0.077285
0.052908
0.063410
-0.049022
0.005190
-0.016134
-0.028131
-0.007599
-0.081226
-0.047841
0.002361
-0.091923
-0.062022
-0.051245
-0.144577
-0.027188
-0.086042
-0.046466
-0.080644
-0.112697
-0.143238
-0.109476
-0.032361
-0.061084
-0.026393
-0.118715
-0.124735
-0.070162
-0.090806
-0.089537
-0.078926
-0.068071
-0.068289
-0.077277
-0.025417
-0.063565
-0.124210
-0.101511
-0.042608
-0.077187
-0.033135
-0.080327
-0.103470
-0.050653
-0.095028
-0.078821
-0.076781
-0.112862
-0.111276
-0.132172
-0.093784
-0.127643
-0.090524
-0.070142
-0.002233
-0.084154
-0.080936
-0.087438
-0.018440
-0.081945
-0.013942
-0.057964
-0.096960
-0.043904
-0.092539
-0.064795
-0.103426
-0.026707
-0.039465
-0.058080
-0.126915
-0.064171
-0.081230
-0.035432
-0.051040
-0.098345
-0.031853
-0.011506
-0.089826
-0.010694
-0.107417
-0.055441
-0.149640
0.004386
-0.107252
0.027651
0.009717
-0.064547
-0.051302
-0.053160
0.039608
0.047926
0.039270
0.086035
0.040935
0.047418
0.073855
0.104147
0.087732
0.122102
0.060241
0.066409
0.087695
0.165220
0.087176
0.125012
0.130621
0.072673
0.041621
0.114559
0.018891
0.091868
0.045777
0.041447
-0.037289
0.071580
0.077769
-0.051720
0.004954
-0.072711
0.000963
-0.081081
-0.042897
-0.009790
-0.106810
-0.080072
-0.080722
-0.004844
-0.181770
-0.102015
-0.031434
-0.065414
-0.006914
-0.016510
-0.080299
0.008971
0.005216
-0.047198
-0.018619
-0.094593
-0.093402
-0.007823
0.012224
0.283589
0.471148
0.777201
1.112480
1.304826
1.361820
1.106565
0.905244
0.558596
0.210523
-0.092758
-0.221683
-0.392844
-0.334222
-0.218834
-0.137077
-0.092448
-0.038848
-0.061741
-0.079037
-0.016623
0.004049
-0.021543
-0.025400
-0.062514
-0.025717
0.069771
0.044212
0.046264
0.037506
-0.009026
0.056426
0.001916
-0.007943
0.051999
0.045909
0.120066
0.075007
0.162536
0.149100
0.118145
0.137802
0.147357
0.245232
0.288807
0.226209
0.239843
0.263595
0.360546
0.380121
0.361998
0.342575
0.434741
0.424910
0.398620
0.410905
0.533849
0.488351
0.489363
0.480672
0.477813
0.418657
0.439677
0.533114
0.483737
0.507306
0.477174
0.444205
0.455960
0.444617
0.396080
0.437038
0.349495
0.372036
0.393793
0.312084
0.294369
0.256617
0.329033
0.190919
0.207025
0.126023
0.217317
0.226425
0.154387
0.132987
0.073891
0.045431
-0.009643
0.062065
0.101485
0.043688
0.110354
0.062903
-0.045249
0.080745
0.051489
0.100065
0.058663
-0.017307
-0.034507
-0.083913
0.023166
0.029972
-0.024194
-0.035791
-0.039149
0.020774
-0.003198
-0.030607
0.077330
-0.047109
-0.027008
-0.004778
0.021275
0.004682
0.074826
-0.049813
-0.119023
0.028741
0.088372
-0.024089
0.112177
0.010203
-0.034280
0.006941
0.070971
-0.029877
-0.030344
0.030446
-0.035352
0.082604
0.017843
0.096646
0.037946
0.059113
0.036345
-0.014661
-0.055528
0.043664
0.085303
0.023080
-0.008364
-0.020706
0.036520
-0.009861
0.000372
0.063574
-0.000737
0.004993
0.014405
0.076363
0.036348
0.097170
-0.037116
0.025162
-0.011056
0.109849
0.053855
0.014790
0.016066
0.024341
0.043024
0.057943
0.098788
0.131531
0.078469
0.031569
0.053166
0.064995
0.084698
0.101217
0.019136
0.026281
0.165446
0.130411
0.097132
0.167617
0.165790
0.142579
0.206911
0.240047
0.197131
0.162043
0.237057
0.154859
0.197258
0.229622
0.202517
0.214020
0.130068
0.122813
0.177287
0.190867
0.199141
0.189263
0.091128
0.117523
0.136725
0.045115
0.037933
0.117535
0.137153
0.042550
0.049639
0.116209
0.035915
0.082541
0.063614
0.062824
-0.002175
0.045356
0.053657
0.021188
0.054669
0.026317
0.065965
0.095622
0.048176
0.033079
0.016072
0.058486
0.047700
-0.025776
0.024936
0.021468
0.071231
0.249126
0.474306
0.916818
1.143183
1.420914
1.399379
1.293115
1.060620
0.723350
0.408381
0.105076
-0.191796
-0.218406
-0.228026
-0.166398
-0.089614
-0.112117
0.009236
0.029521
0.085548
0.031864
0.075765
0.027362
0.050472
0.070773
0.117231
0.052728
0.017691
0.150321
0.104001
0.048721
0.125312
0.067512
0.153051
0.133355
0.191964
0.090554
0.197154
0.203157
0.247554
0.247684
0.210581
0.268726
0.391970
0.349485
0.285340
0.294929
0.307265
0.396843
0.344761
0.360225
0.368282
0.418696
0.444443
0.455202
0.497954
0.453266
0.570883
0.485182
0.565776
0.536069
0.536729
0.637330
0.571610
0.498844
0.490802
0.397815
0.495847
0.538205
0.462166
0.374524
0.511522
0.442949
0.458117
0.461223
0.390027
0.331732
0.365084
0.263664
0.297664
0.206195
0.207499
0.216189
0.202097
0.254603
0.243671
0.223803
0.136210
0.151132
0.149407
0.194648
0.101386
0.100229
0.115545
0.102499
0.045426
0.010082
0.062554
-0.016854
0.037086
0.065820
0.040191
0.009646
-0.010071
0.124461
0.025150
0.044197
-0.017213
0.066673
-0.058671
-0.023415
0.084482
0.000198
0.019257
0.081496
0.003422
0.075256
0.043430
0.020701
0.003167
0.032230
0.067708
0.042544
0.071403
0.085330
0.043254
-0.020623
0.106537
0.032593
0.046740
0.006624
0.027446
-0.032547
-0.005171
0.027230
0.001808
0.014264
0.028495
0.032175
-0.017201
-0.035684
-0.000048
0.032930
0.052657
-0.035482
0.022108
0.037194
-0.010985
0.076158
-0.040311
0.016786
0.099000
0.010796
0.095306
-0.044149
0.045548
-0.005059
0.016128
0.037604
0.050421
-0.011153
-0.001585
0.017988
-0.050792
0.034749
0.014589
0.003751
0.074051
0.008250
0.028233
0.003212
0.098189
0.038148
0.049591
0.122386
-0.001610
0.070259
0.125667
0.110927
0.074145
0.233793
0.248844
0.168983
0.049451
0.229611
0.157010
0.169728
0.150796
0.227916
0.272080
0.131396
0.196103
0.057267
0.128125
0.080565
0.053431
0.120792
0.084395
0.069185
0.061864
0.024349
-0.038059
0.051054
0.066495
0.055891
-0.080017
-0.036669
-0.035121
0.023797
0.007309
0.000506
-0.098740
-0.009641
-0.005399
-0.016124
-0.066795
-0.060731
-0.059313
-0.030065
-0.094652
-0.088422
-0.037640
-0.096444
-0.002449
-0.042269
-0.114117
-0.022080
0.103176
0.337603
0.553617
0.949067
1.231552
1.327258
1.199097
1.093800
0.740891
0.339845
0.100128
-0.214152
-0.267910
-0.389273
-0.272730
-0.205364
-0.132511
-0.003482
-0.037619
-0.125049
-0.020583
-0.011569
0.064383
-0.080273
-0.098416
0.012372
-0.067011
-0.036187
-0.095004
-0.073704
0.008020
-0.063886
-0.008558
-0.041010
0.092235
0.057717
0.077511
0.106741
0.076060
0.040252
0.162298
0.158062
0.147958
0.179505
0.111315
0.227690
0.260963
0.281346
0.173711
0.321681
0.318266
0.322902
0.281945
0.445876
0.436266
0.354949
0.397438
0.433832
0.433701
0.398280
0.423388
0.420905
0.433052
0.440039
0.397713
0.438493
0.296566
0.407510
0.442559
0.359039
0.392267
0.354098
0.312236
0.290853
0.279812
0.247976
0.227976
0.219884
0.149183
0.144866
0.107720
0.070580
0.142297
0.080462
0.067353
0.095151
-0.001193
0.179346
-0.016301
-0.055587
-0.009446
0.038147
-0.048652
-0.033423
-0.032054
-0.069267
0.012767
-0.097031
-0.149736
-0.072076
-0.032712
-0.098405
-0.098173
-0.063060
-0.061878
-0.057778
-0.092360
-0.005615
-0.091200
-0.081203
-0.066074
-0.113729
-0.064463
-0.076889
-0.071836
-0.018897
-0.069296
0.023873
-0.104312
-0.033647
-0.087587
-0.161587
-0.128287
0.060595
-0.094960
-0.058415
-0.135822
-0.063111
-0.120151
-0.112766
-0.052582
-0.032307
-0.094974
-0.111515
-0.152867
-0.113355
-0.084545
-0.158864
-0.095016
-0.106134
-0.081025
-0.065573
-0.188001
-0.094800
-0.161704
-0.128377
-0.127989
-0.116691
-0.146326
-0.090070
-0.043430
-0.152204
-0.136913
-0.035137
-0.064040
-0.124023
-0.040308
-0.002765
-0.110792
-0.004019
-0.206782
-0.102088
-0.118193
-0.092891
-0.110927
-0.047733
-0.060981
0.001275
-0.063108
-0.109833
-0.030888
0.009145
-0.049159
-0.011785
-0.041139
0.002402
0.012367
0.011699
0.069333
0.015643
0.058307
0.006434
0.091198
0.038407
0.027196
0.079746
0.031938
-0.005701
0.077698
0.129115
0.046996
0.117728
0.068548
-0.060401
0.003397
0.078913
0.018573
0.024733
0.097982
0.015901
-0.031866
-0.005560
-0.004445
-0.001790
-0.103325
-0.015245
-0.049339
-0.054042
-0.068220
0.031496
-0.171144
-0.114874
-0.153464
-0.145992
-0.122045
-0.010482
-0.060297
-0.061737
-0.060938
-0.063845
-0.150395
-0.162288
-0.139718
-0.093763
-0.203826
-0.181799
-0.081945
0.056404
0.139582
0.515302
0.793396
1.036102
1.296834
1.284885
1.059629
0.779867
0.503800
0.138392
-0.143632
-0.306584
-0.312725
-0.328846
-0.261297
-0.226611
-0.172902
-0.153979
-0.119944
-0.044151
-0.029666
-0.133807
-0.024085
-0.109950
-0.103567
-0.047525
-0.045356
-0.066454
-0.028607
-0.047560
-0.079622
-0.003344
-0.028012
0.053619
-0.026942
0.000544
0.070547
0.068450
0.028578
0.065999
0.148857
0.104104
0.143013
0.196236
0.163354
0.215897
0.179376
0.253820
0.314849
0.217418
0.310082
0.345714
0.326307
0.373062
0.357815
0.395445
0.378101
0.422332
0.462387
0.482537
0.475745
0.386412
0.418647
0.451891
0.447606
0.498283
0.346843
0.410039
0.406988
0.413294
0.377988
0.370855
0.274073
0.356961
0.321267
0.307582
0.294317
0.269374
0.242147
0.180273
0.161585
0.084008
0.182985
0.125004
0.026426
0.052991
0.012870
0.095303
0.020469
0.039959
0.007089
0.009915
0.024166
0.031434
-0.006151
-0.011180
-0.026565
0.076713
-0.079589
-0.076166
-0.006082
-0.045221
0.056464
-0.053655
-0.040432
-0.012826
-0.067118
-0.079645
-0.035175
-0.043895
0.070939
0.015650
-0.015469
-0.011965
-0.074401
-0.051342
-0.050528
-0.033137
0.051679
-0.037381
-0.060621
0.004277
0.000933
-0.066593
-0.088343
0.049650
0.009519
-0.011173
-0.000198
-0.042197
-0.008149
-0.134060
-0.041431
-0.082502
0.060836
0.036106
-0.084731
-0.002603
-0.016930
0.003563
-0.011708
0.009723
-0.020353
0.002799
-0.067818
-0.014510
0.040107
-0.100602
-0.021044
-0.011890
-0.000501
-0.038408
-0.020063
0.017506
0.018665
-0.007446
0.039336
-0.134371
-0.018345
-0.048807
-0.044728
-0.059489
-0.008496
-0.054100
-0.023984
-0.050879
0.031626
0.048235
0.023117
0.016866
-0.008925
0.026712
0.121106
0.019912
0.083856
0.047924
0.131390
0.118797
0.084266
0.146456
0.230637
0.177681
0.231598
0.209391
0.151286
0.216221
0.188814
0.249188
0.170226
0.177831
0.134548
0.198182
0.178101
0.177183
0.169039
0.096747
0.131350
0.142833
0.137616
0.136210
0.135673
0.094655
0.030022
0.107018
0.111667
0.100933
0.098761
-0.003228
0.070184
0.094748
-0.012755
0.068508
0.106435
0.093662
0.028282
0.058524
-0.013923
0.093093
0.040193
0.092677
0.058070
0.040532
0.055475
-0.007839
-0.063765
0.022699
0.132672
0.267752
0.507211
0.842698
1.144004
1.380654
1.408868
1.243134
0.987546
0.693313
0.322398
0.040079
-0.136990
-0.250274
-0.226555
-0.076964
-0.088248
0.041053
0.062990
0.039470
-0.002812
0.012378
0.034238
0.011621
0.055542
0.070202
0.105251
0.033349
0.069087
0.082577
0.167981
0.173524
0.107830
0.145370
0.070409
0.082959
0.185410
0.190476
0.143299
0.192532
0.193553
0.186274
0.307388
0.354675
0.319985
0.216274
0.346048
0.305269
0.403072
0.382491
0.364628
0.423175
0.498741
0.558132
0.514204
0.608292
0.541946
0.482939
0.546839
0.551849
0.587099
0.590548
0.507654
0.587039
0.545590
0.568496
0.524463
0.562445
0.518348
0.513779
0.454752
0.415921
0.497238
0.451943
0.464967
0.419064
0.401954
0.379532
0.406063
0.308733
0.329149
0.316962
0.178025
0.287473
0.259374
0.218546
0.230115
0.244904
0.245686
0.159678
0.113335
0.177373
0.110081
0.100699
0.119888
0.134764
0.149192
0.119624
0.069414
0.163159
0.097751
0.084247
0.092462
0.145860
0.110900
0.121595
0.097534
0.143037
0.004067
0.118263
0.105685
-0.026389
0.123857
0.156935
0.044232
0.079289
0.044095
0.105545
0.017258
0.067737
0.144202
0.080447
0.091748
0.175895
0.044923
0.077717
0.141408
0.095523
0.083289
0.027456
0.116513
0.017850
0.018422
0.058626
0.087413
0.082572
0.036433
0.070095
0.064396
0.038274
0.017853
0.115793
