-0.029871
0.001596
-0.012524
-0.022983
-0.040373
0.007266
-0.028465
0.008369
0.098627
-0.026247
-0.010115
0.042972
-0.077801
-0.000318
0.049702
0.034571
-0.004836
0.056150
0.055253
-0.033931
0.049854
0.029900
0.051632
0.066780
0.137296
0.140257
0.114881
0.085489
0.162396
0.106263
0.135952
0.142777
0.139708
0.197353
0.251995
0.163659
0.170899
0.097120
0.237822
0.277894
0.147691
0.252530
0.166608
0.219751
0.124971
0.191885
0.213651
0.102665
0.143337
0.073124
0.106578
0.185512
0.087526
0.129692
0.048615
0.084670
0.164118
0.121390
0.058769
0.044345
-0.026275
-0.045282
0.064286
0.080991
0.094167
0.015470
0.082746
-0.037734
-0.021141
0.092911
0.245496
0.320646
0.806823
1.096514
1.202403
1.500000
1.360006
1.157320
0.756402
0.378172
0.055919
-0.100338
-0.117760
-0.005831
-0.106235
-0.003609
0.061872
0.071976
0.115488
0.141329
0.187184
0.022205
0.161250
0.126698
0.155051
0.208043
0.159718
0.219595
0.267503
0.279886
0.210959
0.346178
0.242535
0.327863
0.269919
0.373897
0.426661
0.450782
0.381539
0.411336
0.559547
0.469416
0.506108
0.501322
0.526277
0.528675
0.554007
0.535958
0.490973
0.599724
0.620381
0.617069
0.660739
0.633048
0.624532
0.542495
0.576934
0.643455
0.591580
0.433573
0.531246
0.433345
0.493186
0.416886
0.448450
0.511490
0.432662
0.396833
0.368286
0.389963
0.299174
0.314192
0.387894
0.226940
0.221443
0.223886
0.232539
0.158804
0.264908
0.205868
0.194895
0.264590
0.182319
0.106514
0.150660
0.076345
0.056927
0.104866
0.063725
0.058300
0.053171
0.134469
0.091271
0.132230
0.073392
0.130165
0.093569
0.092774
0.085149
0.106164
0.097404
0.117945
0.118959
0.098125
0.133815
0.101172
0.030943
0.073573
0.020178
0.050580
0.026747
0.043609
0.031481
0.084648
0.105874
0.082616
0.104956
0.117998
0.126274
0.152090
0.082647
0.028323
0.041677
0.084117
0.113245
0.124894
0.047474
0.071130
0.107673
0.018791
0.206244
0.223279
0.150110
0.051926
0.074991
0.035408
0.082630
0.059349
0.121142
0.208153
0.115228
0.139833
0.084679
0.118102
0.217537
0.136257
0.213867
0.173820
0.238377
0.255240
0.247752
0.170884
0.192042
0.214382
0.280171
0.289101
0.184192
0.180718
0.223834
0.278676
0.288030
0.210051
0.249656
0.184089
0.190611
0.140336
0.113574
0.208499
0.182141
0.188195
0.136857
0.168942
0.245310
0.138530
0.006772
0.159191
0.124957
0.147322
0.070879
0.050266
0.033365
0.059881
0.121732
0.072277
0.124681
0.147152
0.169187
0.175355
0.320583
0.568550
0.895215
1.334545
1.487287
1.430207
1.210120
1.006265
0.572494
0.231114
0.036943
-0.074017
-0.119542
-0.088991
0.010796
0.050981
0.058131
0.085494
0.078974
0.071574
0.083229
0.167969
0.131362
0.179178
0.234779
0.254394
0.175200
0.228430
0.160820
0.119234
0.329996
0.313366
0.281900
0.371763
0.377718
0.314456
0.368028
0.360683
0.484897
0.385356
0.524661
0.453819
0.500920
0.580166
0.540661
0.587952
0.607060
0.596295
0.581119
0.475285
0.526462
0.600245
0.704000
0.524678
0.643888
0.558422
0.550388
0.548565
0.548230
0.503621
0.541173
0.411749
0.426171
0.467959
0.508595
0.391407
0.416725
0.431580
0.371964
0.357712
0.342756
0.287284
0.203465
0.256146
0.262506
0.220826
0.158159
0.234288
0.129428
0.207172
0.150412
0.141170
0.123367
0.045094
0.050744
0.051731
0.059934
0.117045
-0.026766
0.061314
0.110907
0.152177
-0.037157
0.032799
0.148320
0.058265
0.064973
0.054982
-0.006037
-0.005964
0.056106
0.027368
0.019750
0.003168
0.041767
-0.034494
0.019237
0.073241
0.081423
0.053842
-0.033736
0.113038
-0.005680
0.022462
-0.006731
0.050246
0.025130
0.060894
-0.044591
0.073165
-0.018152
0.056315
-0.036225
0.026250
0.000151
0.015711
-0.045750
0.087533
-0.043751
0.017235
-0.043127
-0.012691
0.109549
0.088498
0.035660
0.022160
0.071234
-0.022819
0.037321
0.061889
0.058262
-0.017659
0.132255
0.146950
0.129714
0.055018
0.215684
0.127015
0.011056
0.105481
0.185562
0.186097
0.130188
0.147242
0.145253
0.196942
0.177800
0.084033
0.153946
0.150957
0.057961
0.140373
0.100117
0.169844
0.136825
0.163536
0.010325
0.130422
0.050501
0.048847
0.056232
0.156117
0.027660
0.009492
-0.036920
0.010100
-0.045540
-0.061620
-0.062987
-0.066354
-0.002097
-0.058258
0.086312
0.082262
-0.058950
0.039260
0.020239
0.155863
0.412669
0.671896
1.005332
1.332740
1.423957
1.359308
1.103705
0.614405
0.304801
-0.036154
-0.171110
-0.156645
-0.154774
-0.139445
-0.072921
0.059462
0.035999
0.056880
0.056164
0.030233
0.115638
0.033764
0.062298
0.032107
0.182717
0.040935
0.118673
0.072144
0.086607
0.082126
0.112540
0.203666
0.199310
0.256389
0.164262
0.250000
0.319752
0.359967
0.337364
0.410712
0.375222
0.447215
0.331317
0.457071
0.352315
0.420329
0.480200
0.489000
0.444330
0.516828
0.457195
0.506554
0.496597
0.510450
0.389801
0.420156
0.405752
0.421016
0.438274
0.469507
0.397660
0.387199
0.391359
0.284653
0.263382
0.253525
0.300298
0.295344
0.168227
0.195559
0.143754
0.185417
0.160196
0.050034
0.150829
0.053107
0.048944
0.095375
0.063584
0.060256
0.109419
-0.076392
0.030839
0.066338
0.028271
0.038824
-0.024279
0.011412
-0.025694
-0.092340
-0.118334
-0.048879
-0.052360
0.005209
-0.028302
-0.041633
-0.009101
0.042154
-0.048789
-0.092069
-0.023938
0.036964
-0.036301
0.037081
-0.024691
-0.079737
-0.112360
-0.065919
-0.062392
-0.006820
-0.014782
-0.107736
-0.024214
-0.064235
-0.082057
-0.009234
-0.011214
-0.058703
-0.093949
-0.012432
-0.087751
-0.083098
-0.014794
-0.080316
-0.040621
-0.084477
-0.070947
-0.103728
-0.034825
-0.043952
0.001494
0.022775
-0.029586
-0.095429
0.003761
0.050366
0.014291
-0.030492
0.056366
-0.037489
0.010334
-0.021992
0.056736
0.056152
0.016483
0.169525
0.146967
0.058995
0.085229
0.086387
0.140852
0.166372
0.156980
0.170190
0.178216
0.179179
0.148791
0.143907
0.096799
0.090187
0.073253
0.119381
0.151097
0.041651
0.061377
-0.020045
0.061885
-0.011295
0.043119
0.054354
0.071895
0.000127
0.004830
0.041862
-0.037806
-0.009742
-0.030115
-0.019234
0.011978
-0.039130
0.046422
-0.000993
0.042341
0.041513
-0.098547
-0.057085
0.083711
0.157753
0.463680
0.900807
1.150845
1.297633
1.286556
1.114808
0.875287
0.399760
0.112480
-0.188477
-0.168255
-0.243927
-0.172566
-0.149157
-0.091390
0.003819
0.067118
0.039071
0.003534
0.144269
0.075999
0.067099
0.119806
0.074711
0.133563
0.114492
0.177161
0.134219
0.094462
0.200846
0.237735
0.237426
0.274704
0.293166
0.222190
0.343725
0.312248
0.293023
0.373041
0.317049
0.363226
0.469806
0.341151
0.545179
0.487471
0.538698
0.506468
0.560364
0.445979
0.437177
0.568745
0.601088
0.491926
0.456656
0.476846
0.503978
0.495578
0.449579
0.461593
0.390964
0.439544
0.457082
0.407040
0.306202
0.340782
0.348444
0.325134
0.219647
0.311781
0.192118
0.249169
0.202443
0.096945
0.223757
0.167096
0.164564
0.209891
0.102014
0.079313
0.125507
-0.016977
0.021359
0.142415
0.068815
0.034292
0.066189
0.029256
0.014638
0.055357
-0.023016
-0.072590
-0.005414
0.006037
0.031312
-0.039136
0.077167
0.047771
0.020206
0.016884
-0.027694
0.063833
0.034956
0.005995
-0.026315
0.015959
-0.016231
0.045031
0.045753
-0.019717
0.012857
0.065159
0.098248
-0.010124
-0.080110
0.074422
0.043063
-0.016149
0.055247
0.031356
0.047556
0.060193
0.073370
0.004911
0.022884
0.060506
-0.013068
0.050829
-0.024227
0.005675
0.025814
0.094858
-0.028820
-0.033152
0.064365
0.054713
0.106709
0.131007
0.008559
0.057802
0.107931
0.122177
0.102883
0.070770
0.135394
0.165412
0.162501
0.215274
0.257992
0.219146
0.169323
0.167270
0.185848
0.253497
0.243386
0.304533
0.229982
0.230993
0.221886
0.190031
0.205056
0.148726
0.223059
0.232649
0.200552
0.120570
0.191893
0.104910
0.106688
0.035393
0.085623
0.053664
0.099017
0.084176
0.083614
0.158531
0.072897
0.147146
0.032107
-0.016044
0.057524
0.084659
0.016935
0.055169
0.135664
0.051815
0.085273
0.227826
0.464050
0.814001
1.109721
1.329788
1.486751
1.376279
1.148911
0.779287
0.354167
0.032552
-0.104591
-0.168102
-0.055295
-0.056289
0.106122
0.106943
0.109163
0.060956
0.168178
0.117135
0.149647
0.146285
0.220474
0.170472
0.268062
0.142425
0.194944
0.154443
0.215329
0.250100
0.273857
0.296079
0.277837
0.310063
0.405292
0.389164
0.358288
0.450165
0.438294
0.430866
0.454065
0.511774
0.467288
0.633181
0.573980
0.599668
0.581662
0.626853
0.594016
0.653108
0.646597
0.658357
0.644553
0.693321
0.581890
0.596359
0.599396
0.590557
0.514983
0.488497
0.586974
0.480985
0.486399
0.440022
0.356107
0.437640
0.459482
0.358686
0.341128
0.308687
0.376440
0.227790
0.360810
0.309830
0.229904
0.257574
0.264277
0.177363
0.116687
0.228100
0.126269
0.214743
0.272497
0.162105
0.107233
0.126553
0.136849
0.111996
0.094429
0.099912
0.112951
0.135697
0.054831
0.088102
0.137468
0.109531
0.088879
0.121092
0.079902
0.081042
0.040564
0.091966
0.061798
0.074582
0.011679
0.116391
0.079724
0.100428
0.073371
0.111302
0.035655
0.090992
0.173836
0.131379
0.095662
0.075589
0.029652
0.060285
0.097097
0.105013
0.124433
0.157151
0.032087
0.191068
0.192602
0.116050
0.077417
0.227843
0.082123
0.057135
0.077998
0.045799
0.111047
0.138250
0.033021
0.110563
0.165120
0.179686
0.204907
0.136553
0.211902
0.259400
0.112247
0.245416
0.286199
0.259939
0.161710
0.239642
0.172478
0.221913
0.212634
0.283788
0.251927
0.274523
0.253772
0.234801
0.262925
0.315726
0.281093
0.253913
0.180328
0.195658
0.258640
0.263248
0.238574
0.243990
0.231584
0.191852
0.152434
0.158360
0.162583
0.074216
0.082675
0.051330
0.216112
0.164209
0.036510
0.126836
0.075645
0.140446
0.170730
0.077524
0.084084
-0.002434
0.116065
0.123120
0.176571
0.279314
0.574984
0.996555
1.232932
1.395698
1.458568
1.241077
0.987339
0.585100
0.284052
0.023257
-0.172287
-0.134877
-0.122755
0.032251
0.033725
0.065782
0.161940
0.128394
0.097433
0.127833
0.151163
0.221136
0.191955
0.254155
0.152815
0.149376
0.181511
0.207140
0.239620
0.287124
0.294960
0.362877
0.332848
0.325203
0.388642
0.397666
0.344488
0.401338
0.376015
0.454276
0.451535
0.475383
0.457021
0.558374
0.554137
0.580084
0.590564
0.557522
0.548037
0.581766
0.515810
0.503572
0.563101
0.543339
0.461514
0.565835
0.533727
0.590587
0.477807
0.549423
0.433137
0.533821
0.451680
0.437985
0.395106
0.454401
0.368655
0.350880
0.267050
0.403054
0.215262
0.355626
0.205851
0.158517
0.206418
0.200446
0.094897
0.232857
0.138804
0.102525
0.054380
0.145442
0.100475
0.083352
0.150805
0.056167
0.029603
0.079734
0.044700
0.083047
-0.032478
-0.057332
-0.000631
0.011305
0.028138
0.099454
0.066178
0.019710
0.060575
-0.003667
0.045428
0.090020
0.045471
-0.013968
0.078499
-0.049426
0.063635
0.001204
-0.024924
-0.030413
0.023059
-0.036224
0.040756
0.019400
0.077824
-0.041099
-0.020231
0.037224
0.042006
-0.023232
0.068229
0.128474
0.021408
-0.005203
0.024330
0.066421
-0.001100
-0.013980
-0.050424
0.023508
0.016863
-0.066406
0.095179
0.019435
-0.089839
-0.021675
-0.000305
0.089132
0.104631
0.137820
0.141384
0.149066
0.051855
0.077495
0.192404
0.078241
0.133896
0.216888
0.148515
0.090077
0.193338
0.145154
0.157245
0.187449
0.121673
0.188847
0.255703
0.128612
0.194321
0.128601
0.118611
0.139718
0.046765
0.040740
0.091935
0.094742
0.066767
0.097486
0.152910
0.026036
0.075658
0.026246
-0.056722
0.008710
0.022873
-0.051989
0.033889
-0.005815
-0.049203
0.043420
0.038246
-0.066364
-0.062412
-0.025634
-0.003188
0.042179
0.110913
0.308966
0.704044
1.001748
1.266026
1.428652
1.313334
0.977874
0.633011
0.255331
0.023015
-0.089421
-0.205479
-0.175285
-0.184607
-0.055871
0.002808
-0.030167
-0.077324
-0.041713
-0.016388
0.003002
0.031431
-0.088396
0.055807
0.115084
0.076140
0.117929
0.057578
0.175019
0.123018
0.217307
0.235022
0.225245
0.192337
0.211027
0.210324
0.274691
0.322223
0.295060
0.321840
0.365722
0.315230
0.386218
0.452986
0.385429
0.469023
0.407184
0.494062
0.462304
0.424531
0.526862
0.432382
0.422338
0.437213
0.390220
0.451398
0.447197
0.453624
0.383047
0.331622
0.420221
0.357316
0.370440
0.309072
0.273018
0.293584
0.232220
0.276105
0.227170
0.223928
0.177499
0.108673
0.107306
0.104988
0.130269
0.111726
0.042346
-0.014706
0.000901
0.006509
0.044526
0.007766
-0.003786
0.010146
-0.094531
0.010217
0.019549
-0.048557
0.024096
-0.069554
-0.061474
-0.102036
-0.087560
-0.120131
-0.084211
-0.078952
0.023339
-0.062785
-0.148693
-0.033392
-0.008960
-0.056794
-0.017074
-0.077479
-0.051805
-0.051076
-0.083077
-0.070820
-0.101377
-0.082345
-0.069410
-0.027791
-0.173139
-0.132087
-0.127195
-0.075198
-0.131864
-0.116538
-0.118531
-0.037804
-0.114239
-0.139362
-0.144547
-0.084084
-0.074287
-0.117911
-0.133352
-0.094054
0.017723
-0.040674
-0.203220
0.003763
-0.027187
-0.124313
-0.073428
-0.054064
-0.073519
-0.061803
0.004615
-0.028108
-0.053660
0.023543
-0.012887
0.047461
0.020722
0.073028
0.010994
0.063247
0.023959
0.063085
0.061958
0.122223
0.044097
0.167977
0.080479
0.050969
0.086969
0.133453
0.124133
0.084910
0.054279
0.066292
0.105386
0.058205
0.088763
0.075910
0.061421
-0.002282
-0.087316
-0.089963
0.032256
-0.021262
-0.113801
-0.079487
-0.020950
-0.058013
-0.054923
0.021142
-0.089345
-0.093363
-0.068026
-0.079898
-0.084234
-0.086427
-0.039326
-0.136157
-0.040955
0.136090
0.466889
0.786403
1.220566
1.362100
1.303934
1.147427
0.666340
0.429944
0.037993
-0.139958
-0.151305
-0.358809
-0.220047
-0.128920
-0.169279
-0.064447
-0.057236
-0.070118
-0.019491
0.003556
0.033648
0.127612
0.037069
-0.026641
0.014155
0.093345
0.074757
0.114196
0.156488
0.074020
0.150351
0.251814
0.147205
0.199167
0.223143
0.257026
0.197337
0.242953
0.327371
0.383652
0.368494
0.370216
0.383130
0.328613
0.365119
0.424842
0.510538
0.440926
0.408150
0.402986
0.456563
0.468203
0.503657
0.480190
0.507706
0.552281
0.487425
0.350507
0.317458
0.449199
0.335874
0.375868
0.376430
0.301926
0.316629
0.214663
0.224973
0.239589
0.201940
0.149635
0.119480
0.133243
0.167921
0.145358
0.080099
0.083467
0.155779
0.052036
-0.003092
0.007807
0.163020
-0.005315
0.033563
-0.071269
0.001986
-0.106587
-0.008449
0.000349
-0.018268
-0.034872
-0.124699
0.024950
-0.085572
-0.111204
0.006212
0.012109
-0.016072
-0.019751
-0.018968
0.056187
-0.046556
0.000839
-0.016972
-0.029786
0.080764
0.008369
-0.055753
-0.006807
0.023246
-0.021145
0.071746
0.005811
-0.049323
-0.070023
-0.029673
-0.011518
0.032139
-0.105568
-0.009616
-0.069744
-0.037920
-0.049858
-0.061284
0.015891
0.089718
0.000775
-0.013781
0.029459
-0.023328
-0.004799
0.037716
-0.074394
-0.037715
0.049323
-0.010564
0.035683
0.019137
-0.056819
0.061270
0.067529
0.054541
0.095084
0.080872
0.073235
0.162149
0.051237
0.096112
0.119675
0.171946
0.151302
0.235446
0.129667
0.136849
0.167255
0.199094
0.125357
0.264101
0.186870
0.196667
0.148006
0.164501
0.150761
0.200749
0.155557
0.191179
0.084584
0.143652
0.059536
0.012751
0.098959
0.029619
0.079559
-0.012971
-0.007633
0.044455
0.020467
0.031899
0.034567
0.071578
0.016588
0.037725
0.034545
-0.040420
-0.026430
0.044243
0.135190
0.211893
0.424726
0.681133
1.076700
1.301732
1.422684
1.320230
1.138266
0.741639
0.330111
0.099387
-0.183815
-0.260745
-0.113486
-0.094225
0.014760
0.021508
0.058805
-0.004326
0.113470
0.117444
0.067964
0.098925
0.082126
0.137637
0.125575
0.203436
0.183925
0.248751
0.223001
0.156359
0.249732
0.317522
0.256277
0.280923
0.280852
0.358510
0.386414
0.343169
0.373853
0.488317
0.379385
0.474723
0.459306
0.441069
0.533145
0.538459
0.512203
0.527676
0.597881
0.535428
0.543807
0.605961
0.580622
0.553292
0.561889
0.534263
0.541518
0.559908
0.474876
0.510822
0.484948
0.431237
0.417563
0.388428
0.384852
0.341913
0.386666
0.373723
0.269214
0.288754
0.247658
0.318781
0.259001
0.227379
0.200722
0.125413
0.152804
0.242910
0.194454
0.188310
0.181286
0.143695
0.095876
0.097514
0.084669
0.100093
0.045982
0.104955
0.100630
0.046391
0.073652
0.064366
0.024772
0.096556
0.064361
-0.004857
0.004393
0.122798
0.135745
0.111567
0.056422
-0.046657
0.099906
0.040317
0.121533
-0.009643
0.040278
0.095297
0.044088
0.048490
0.029368
0.101179
0.088867
-0.004106
-0.065877
-0.009728
-0.068895
-0.051216
0.027932
0.005925
0.062294
-0.033224
0.061059
0.020107
0.115609
0.052754
-0.108269
0.152895
0.072269
0.109877
0.066541
0.074817
0.047557
0.055349
0.080908
0.073535
0.053979
0.051652
0.123673
0.123992
0.137386
0.156118
0.097024
0.069636
0.182021
0.133984
0.187113
0.171607
0.246266
0.207661
0.168978
0.265360
0.279019
0.283306
0.239545
0.201918
0.184248
0.215839
0.202996
0.148980
0.207671
0.213715
0.207216
0.160832
0.143524
0.180646
0.198821
0.140459
0.039334
0.120364
0.044575
-0.021736
0.111667
-0.000474
0.141483
0.111821
0.070062
0.027270
0.020844
0.022848
-0.039302
-0.001482
0.011552
0.040750
0.102341
0.094794
0.173186
0.263733
0.622785
0.957308
1.161785
1.415044
1.452089
1.256137
0.882490
0.552644
0.237027
-0.028359
-0.145317
-0.112604
-0.121552
-0.029432
0.044399
0.049705
0.090080
0.131715
-0.002485
-0.014350
0.130448
0.181276
0.100184
0.113493
0.178458
0.128447
0.224252
0.185513
0.237559
0.216366
0.288954
0.162386
0.331878
0.262346
0.314034
0.324412
0.390563
0.440979
0.379737
0.406757
0.434881
0.454813
0.504580
0.489852
0.627134
0.526843
0.487232
0.545678
0.559453
0.575349
0.517474
0.499720
0.595255
0.496829
0.577443
0.458100
0.583472
0.479461
0.448592
0.445713
0.396555
0.553200
0.404757
0.356550
0.372585
0.311861
0.299834
0.361330
0.275628
0.328533
0.167161
0.220109
0.179423
0.233202
0.170533
0.027903
0.179497
0.092957
0.095267
0.078888
0.035551
0.042730
0.140508
0.006774
0.133557
0.032365
-0.015945
0.005253
0.055668
-0.028941
-0.031281
0.034372
0.000088
-0.023209
-0.010638
0.011042
0.054830
-0.082222
0.014214
-0.060829
-0.005422
0.017893
0.012075
0.030961
0.003548
0.006081
-0.064192
0.023573
-0.011075
-0.060822
-0.052723
-0.076080
-0.017029
-0.060885
0.108191
0.003994
0.034188
0.024883
-0.024247
0.003017
0.046107
-0.015751
0.018393
-0.021792
0.044611
-0.099209
-0.021908
0.059416
0.028293
-0.035806
0.022172
-0.029308
0.036674
-0.023278
-0.068247
0.057648
0.049117
0.002726
-0.065007
0.143881
0.066805
0.146306
0.058620
0.109193
0.123762
0.117782
0.034883
0.120090
0.098347
0.090667
0.209753
0.164570
0.144366
0.119178
0.138870
0.150656
0.121728
0.127480
0.147984
0.045010
0.098342
0.128506
0.106461
0.058414
0.100598
0.015705
0.081256
0.011850
-0.058553
-0.072636
-0.066152
-0.050690
-0.043090
0.072254
-0.043580
-0.045309
-0.065508
0.004263
-0.089591
-0.085704
-0.107314
-0.072734
-0.064157
-0.000793
-0.069196
0.070417
0.180927
0.318481
0.620210
0.956295
1.253317
1.347267
1.267364
0.988018
0.648826
0.221829
-0.069300
-0.213908
-0.281290
-0.300455
-0.150013
-0.109651
-0.105373
-0.031613
-0.021586
0.025228
0.026432
-0.045087
0.027337
-0.002041
-0.014279
0.046084
0.014573
-0.060646
0.081394
0.084513
0.119130
0.090803
0.170921
0.144201
0.164530
0.111758
0.172348
0.228338
0.256843
0.270899
0.299671
0.391442
0.346643
0.332088
0.364175
0.336270
0.435664
0.494590
0.436931
0.437072
0.413541
0.431913
0.375606
0.458837
0.388040
0.413863
0.361958
0.409840
0.421345
0.338762
0.324883
0.309083
0.403642
0.400978
0.367731
0.182591
0.271735
0.182755
0.196794
0.123976
0.103508
0.121728
0.127976
0.088042
0.131277
0.005322
-0.004470
-0.017261
0.005512
-0.020974
-0.008689
-0.011539
0.017972
-0.060822
0.023306
-0.107653
-0.003536
0.003008
-0.036103
-0.111290
-0.057659
-0.049046
-0.156915
-0.084289
-0.117116
-0.024380
-0.072039
-0.022645
-0.088636
-0.148814
-0.049574
-0.037738
-0.078349
-0.102920
-0.082056
-0.221687
-0.101562
-0.106731
-0.094703
-0.115173
-0.015962
-0.080971
-0.113656
-0.041922
-0.059632
0.001412
-0.102149
-0.136848
-0.181744
-0.117639
-0.116148
-0.148699
-0.029912
-0.006023
-0.032444
-0.048551
-0.102512
-0.088633
-0.109249
-0.112322
-0.117755
-0.049620
-0.059123
-0.023768
-0.139235
-0.098962
-0.084431
-0.028351
-0.030984
-0.070466
-0.058298
-0.035207
-0.007872
-0.023361
0.003662
0.008569
-0.006478
-0.009401
0.012397
-0.011787
0.031863
0.038036
0.067174
0.103409
0.106872
0.104741
0.082063
0.105031
0.046140
0.075996
0.148693
0.071715
-0.017784
0.083411
0.080638
-0.030058
-0.004196
-0.048011
-0.099335
-0.032696
-0.014076
-0.025593
-0.032431
-0.064523
-0.021052
-0.035908
-0.018956
-0.119805
-0.027857
-0.071800
-0.087153
-0.092871
-0.053152
-0.087842
-0.155156
-0.132420
-0.092613
-0.026841
0.167167
0.429787
0.841539
1.159729
1.368222
1.189429
1.144461
0.784979
0.398293
0.018363
-0.170177
-0.325963
-0.271745
-0.204020
-0.154659
-0.124716
-0.158257
-0.018509
-0.025534
-0.016139
-0.004847
-0.028298
-0.042476
-0.016901
0.029403
0.011094
0.083246
0.041859
0.101640
0.061322
0.111595
0.162199
0.126933
0.198157
0.253960
0.201643
0.265297
0.260481
0.183885
0.338289
0.238861
0.322138
0.371427
0.443404
0.448883
0.484251
0.418997
0.511966
0.459570
0.475181
0.451793
0.447283
0.417252
0.628581
0.350876
0.406917
0.292495
0.416199
0.351293
0.377672
0.346239
0.322257
0.410607
0.325176
0.317668
0.249965
0.282700
0.200625
0.286254
0.162038
0.220032
0.146197
0.206984
0.195196
0.062318
0.084111
0.139636
0.153741
-0.016229
0.032284
0.072869
0.026844
0.090308
-0.042325
-0.049125
0.033505
-0.088100
-0.057708
-0.102850
-0.029916
0.002469
-0.052848
0.030861
-0.059454
-0.049642
-0.090631
-0.085899
-0.072750
-0.033818
-0.082833
-0.054571
-0.020971
0.013742
-0.088272
-0.057786
-0.076339
-0.082440
-0.015892
0.011299
-0.039413
-0.048937
0.019675
0.023971
0.008140
-0.075526
0.047143
-0.028440
-0.042109
-0.104486
0.001539
-0.041476
0.011001
0.001226
-0.071255
0.015254
0.028386
-0.009094
-0.002580
-0.041600
0.015716
-0.013524
0.001236
0.002147
-0.005901
-0.035009
-0.024306
0.056329
0.021922
0.024447
0.019373
-0.046651
0.075696
0.052503
0.066547
0.172911
0.052752
0.140007
0.043544
0.055256
0.122741
0.162997
0.188489
0.184774
0.219186
0.209373
0.166827
0.220262
0.184841
0.180701
0.184453
0.158720
0.169382
0.108304
0.190088
-0.011456
0.100542
0.127430
0.075849
0.017105
0.073289
0.045001
0.101304
0.087095
0.057208
0.029534
0.008996
-0.007993
0.048487
-0.040415
0.072089
0.007394
0.017913
-0.041101
0.089676
0.001429
0.023720
0.092712
0.202851
0.416667
0.872956
0.938019
1.367231
1.392252
1.341429
1.081172
0.738954
0.318812
0.047959
-0.178288
-0.173361
-0.147012
-0.113120
0.042566
-0.000022
0.127125
0.013003
0.058072
0.141354
0.048088
0.125888
0.220636
0.110580
0.110991
0.206551
0.150542
0.196817
0.207000
0.253979
0.225237
0.163680
0.264831
0.315058
0.252460
0.348730
0.354607
0.414696
0.379660
0.504518
0.472966
0.515074
0.554878
0.515833
0.487121
0.570286
0.624813
0.554138
0.571503
0.538891
0.542442
0.635692
0.513306
0.540363
0.627791
0.541583
0.528248
0.540418
0.614224
0.515649
0.527580
0.525624
0.482997
0.401044
0.372236
0.361634
0.354810
0.378913
0.289409
0.320201
0.233427
0.289719
0.256704
0.233516
0.202110
0.245627
0.123930
0.238125
0.182437
0.097596
0.059619
0.161531
0.166426
0.053242
0.088711
0.129951
0.086718
0.006124
0.075965
0.121707
0.061316
0.049214
0.064120
0.116144
0.109319
0.082250
0.078588
0.183234
0.037770
0.009493
0.028556
0.042117
0.126478
0.010477
0.041770
0.026203
0.074643
0.080273
0.029264
0.090999
0.104045
0.047412
0.117110
0.110201
0.012311
0.087327
0.043143
0.160838
0.092671
0.082288
0.038770
0.087083
0.074999
0.147405
0.080029
0.041087
0.069569
0.092400
0.123696
0.071573
0.021474
0.103080
0.134315
0.143845
0.109354
0.207812
0.088174
0.132017
0.126275
0.071044
0.093907
0.143272
0.239750
0.213493
0.125715
0.218832
0.250113
0.187671
0.221360
0.265020
0.221164
0.245208
0.240128
0.315044
0.233855
0.273136
0.312210
0.225168
0.160109
0.171380
0.271969
0.172093
0.213478
0.212570
0.120986
0.147626
0.176328
0.141845
0.125009
0.112214
0.013582
0.041215
0.075073
0.101510
0.048531
0.078796
0.118410
0.090098
0.087561
