-0.037140
0.047361
-0.050105
-0.001627
-0.016136
0.046939
-0.022774
-0.055452
0.011088
-0.031678
0.115642
0.008730
0.005595
0.000769
0.036241
0.056542
0.105596
-0.000314
0.128979
0.053056
0.050594
-0.019427
0.167557
0.026143
0.074581
0.099142
0.085637
0.171373
0.181345
0.152110
0.177846
0.172603
0.224295
0.192400
0.231623
0.173470
0.232034
0.165568
0.203802
0.165903
0.163818
0.171864
0.202346
0.175486
0.193883
0.222335
0.159599
0.149743
0.070332
0.113284
0.039242
0.024699
0.057983
0.120258
0.051807
0.048176
0.079531
0.074848
-0.016046
0.063285
-0.003188
0.042257
-0.030540
0.063045
0.042080
0.210290
0.438697
0.602009
0.882987
1.215928
1.395258
1.423873
1.298792
0.940802
0.596484
0.229076
0.002044
-0.083963
-0.129487
-0.030618
-0.015265
0.064692
0.082619
0.075143
0.077521
0.168418
0.141293
0.083850
0.168725
0.142354
0.214198
0.203883
0.198995
0.284567
0.298376
0.276875
0.364379
0.280679
0.332278
0.282381
0.452317
0.370937
0.422929
0.448668
0.520412
0.539944
0.515859
0.467005
0.613833
0.614070
0.552593
0.579342
0.587853
0.550313
0.601973
0.661950
0.576960
0.575060
0.674096
0.539737
0.662802
0.553192
0.563076
0.551793
0.554314
0.472734
0.473678
0.533539
0.429015
0.402678
0.342213
0.386863
0.377223
0.397989
0.283280
0.348157
0.212929
0.245869
0.307736
0.252391
0.191934
0.113502
0.116816
0.139730
0.139675
0.120859
0.138801
0.033130
0.150584
0.090428
0.140548
0.163073
0.065567
0.046195
0.106607
0.132854
0.057701
0.085694
0.143703
0.097000
0.058425
0.129350
0.097218
0.091992
0.147230
0.089660
0.084758
0.030922
0.164201
0.138940
0.160147
0.076179
0.106234
0.090989
0.096303
0.036199
0.128287
0.108975
0.109546
0.054826
0.031730
0.124495
0.120713
0.089795
0.066222
0.027500
0.115143
0.088968
0.113632
0.218709
0.058769
0.095236
0.047222
0.220623
0.111978
0.042425
0.135864
0.108037
0.156393
0.106433
0.178153
0.173465
0.172390
0.250628
0.291871
0.176938
0.273646
0.328160
0.245728
0.230682
0.221122
0.244380
0.392769
0.245111
0.175858
0.176537
0.353926
0.181155
0.167325
0.283018
0.234656
0.201949
0.124611
0.196782
0.119790
0.166709
0.193392
0.134929
0.133595
0.071722
0.040687
0.102460
0.071758
0.119927
0.081799
0.135716
0.090786
0.142055
0.040780
0.051612
0.097725
0.097064
0.198364
0.407317
0.828009
1.103963
1.371506
1.432519
1.500000
1.129321
0.741689
0.372744
0.130046
-0.083573
-0.082690
0.000345
0.047986
0.017088
0.088168
0.110421
0.188120
0.180577
0.203887
0.161969
0.171013
0.202029
0.159437
0.189907
0.182535
0.341174
0.230909
0.273472
0.377513
0.502956
0.296897
0.336229
0.410881
0.386225
0.435749
0.421163
0.431086
0.512854
0.573170
0.537783
0.495991
0.553931
0.601969
0.567691
0.556368
0.581651
0.541001
0.580503
0.594036
0.586639
0.573847
0.490490
0.510507
0.608786
0.478463
0.503352
0.486037
0.502648
0.491976
0.449595
0.292071
0.427434
0.377398
0.405879
0.409127
0.264429
0.366381
0.294788
0.255517
0.226483
0.273225
0.204812
0.136763
0.240157
0.170848
0.184355
0.151151
0.150610
0.039508
0.068029
0.153266
0.158453
0.104609
0.092828
0.053811
0.136320
0.127487
0.063512
0.088003
0.058807
0.085662
0.031417
0.002371
0.049355
0.092388
0.032831
0.090460
0.017714
0.020771
0.036030
-0.007298
0.062401
0.064016
0.092134
0.029913
0.025911
0.047607
0.039659
0.055881
0.079489
0.022107
-0.025974
-0.072928
0.003719
0.026959
0.072624
0.060907
-0.048288
0.059096
0.040383
0.074323
0.056522
0.048056
0.087528
0.075506
0.075782
0.029630
0.068928
0.099659
0.056217
0.149541
0.145712
0.069371
0.051160
0.076728
0.219722
0.219391
0.201091
0.183096
0.107123
0.210381
0.174885
0.156509
0.244330
0.181308
0.223773
0.176039
0.192839
0.226570
0.114951
0.195639
0.158692
0.123999
0.093403
-0.001343
0.114110
0.112801
0.140162
0.168520
0.074539
0.030068
0.055901
-0.006207
0.026358
0.047488
0.069274
-0.004801
0.069053
-0.032389
-0.028809
0.011003
0.004645
0.065579
0.089225
0.083248
0.280428
0.560998
0.734261
1.188859
1.317298
1.388092
1.225481
0.914525
0.477854
0.130080
-0.072795
-0.211624
-0.176196
-0.051922
-0.066358
-0.022194
0.079627
0.004230
0.146501
0.047903
0.148421
0.041132
0.100844
0.174092
0.089561
0.118240
0.181466
0.170856
0.146536
0.279753
0.258789
0.245985
0.312326
0.267851
0.246813
0.387956
0.291712
0.330204
0.410037
0.452043
0.352976
0.502703
0.450656
0.477093
0.526748
0.463092
0.480579
0.515235
0.533705
0.475198
0.565831
0.445583
0.520130
0.517730
0.520443
0.433779
0.477941
0.392942
0.432563
0.401453
0.334979
0.305962
0.320413
0.357693
0.303212
0.198592
0.278119
0.240484
0.154118
0.246962
0.144501
0.169566
0.091549
0.112409
0.086242
0.072745
0.041146
0.114239
0.042617
0.036238
0.043342
0.099781
-0.067190
-0.022176
0.081608
-0.068331
-0.097119
0.005892
0.051863
0.070532
0.014743
-0.034443
-0.003415
-0.007229
-0.015010
-0.048884
0.024844
-0.046364
-0.072911
-0.055243
-0.092477
-0.148947
-0.031362
-0.017201
0.073140
-0.003436
-0.023454
-0.133749
-0.088476
-0.060211
-0.037201
-0.073511
-0.031174
-0.103561
0.030908
-0.071635
-0.088473
-0.028841
-0.087188
-0.056083
-0.094700
-0.051363
0.047462
-0.066520
-0.126967
-0.019955
-0.048050
0.033322
-0.056547
0.051829
-0.014567
-0.042172
-0.003246
0.042189
0.046537
0.045333
0.073264
0.193034
0.065077
0.041629
0.147906
0.155296
0.155369
0.092279
0.045386
0.061346
0.068349
0.149697
0.111090
0.084859
0.113374
0.157971
0.165065
0.081931
0.075703
0.076842
0.042474
0.109706
0.047946
0.035959
-0.040698
-0.059172
0.006143
-0.043153
-0.083438
-0.037351
-0.079281
-0.040734
-0.057232
0.088409
-0.029890
-0.092484
-0.082615
-0.063894
0.015838
0.022893
0.088750
0.393195
0.656687
0.908444
1.231237
1.389395
1.225034
1.054958
0.703099
0.247965
0.015030
-0.180621
-0.188521
-0.151281
-0.072921
-0.088460
-0.049205
-0.061860
-0.026891
0.052903
0.003442
0.058049
0.030205
0.078141
0.125560
0.119810
0.011853
0.070902
0.206813
0.131359
0.164339
0.254034
0.287287
0.337942
0.264742
0.288910
0.396243
0.290479
0.386706
0.367062
0.384729
0.450820
0.472133
0.451769
0.499824
0.494318
0.557050
0.549985
0.454127
0.503788
0.541790
0.560213
0.561099
0.468282
0.472855
0.498191
0.483589
0.477202
0.426510
0.417428
0.362482
0.364964
0.354533
0.332210
0.243945
0.262453
0.210783
0.295762
0.276243
0.212674
0.137420
0.215072
0.141239
0.195778
0.116056
0.155160
0.144784
0.041156
-0.061152
-0.045236
0.002519
0.072130
0.118455
0.036907
-0.033227
-0.015944
-0.024589
-0.050838
0.111320
0.080746
0.004592
-0.013073
-0.055618
-0.028477
-0.050383
-0.039319
-0.016251
0.089956
-0.035733
0.018805
0.019160
0.085657
0.035171
0.072112
-0.047607
-0.002808
-0.093891
-0.013279
0.077390
0.038859
-0.025061
0.028738
-0.009288
0.011714
-0.030832
0.071640
0.015932
0.040974
-0.015010
-0.013890
0.083316
0.054042
0.007417
0.000821
0.006398
0.092230
-0.011893
0.069990
0.101029
0.016430
-0.001149
0.135457
0.035021
0.100317
0.113863
0.113053
0.154335
0.125879
0.108822
0.201865
0.182888
0.158086
0.205639
0.140097
0.189334
0.159531
0.284223
0.245679
0.155689
0.210180
0.154686
0.186325
0.194616
0.124463
0.101997
0.152058
0.149070
0.242632
0.147444
0.171293
0.131688
0.056132
0.113309
0.056108
0.151888
0.029173
0.051065
0.103110
0.061083
0.058531
0.032805
0.058500
0.107355
0.098839
-0.004376
-0.003910
0.184788
0.361425
0.575091
0.907974
1.216753
1.486987
1.430520
1.166248
0.846362
0.534585
0.119319
-0.042679
-0.091751
-0.130690
-0.048863
-0.085609
0.060681
0.140009
0.165177
0.127233
0.100042
0.168107
0.139808
0.112463
0.185920
0.126625
0.215580
0.183053
0.191127
0.316910
0.331428
0.368975
0.312136
0.271551
0.395875
0.352818
0.409608
0.460197
0.492881
0.457547
0.501142
0.437798
0.533679
0.572616
0.603237
0.606943
0.575035
0.485940
0.559182
0.634848
0.689319
0.629185
0.584115
0.633010
0.536275
0.642220
0.495908
0.521623
0.455018
0.506386
0.505895
0.492045
0.453130
0.394224
0.410969
0.303461
0.344681
0.384693
0.306309
0.321398
0.233400
0.307734
0.201631
0.239079
0.204012
0.137978
0.123414
0.168269
0.230466
0.141276
0.102753
0.117413
0.053143
0.137778
0.109375
0.100016
0.131374
0.141983
0.172384
0.186406
0.034634
0.081520
0.102118
0.097488
0.124136
0.173307
0.128790
0.167845
0.156301
0.059376
0.070470
0.070813
0.108459
0.040524
0.075322
0.131488
0.054387
0.093589
0.098054
0.034837
0.132211
0.119218
0.106335
0.090538
0.036849
0.162955
0.084179
0.116968
0.072973
0.082071
0.036089
0.104825
0.072957
0.036306
0.144391
0.064867
0.171616
0.115767
0.092803
0.181560
0.123139
0.163171
0.139358
0.066033
0.163141
0.179407
0.151350
0.295439
0.184557
0.282046
0.233827
0.226176
0.323780
0.298597
0.334351
0.267630
0.264017
0.352104
0.325212
0.252922
0.186719
0.340831
0.223028
0.212478
0.201502
0.201876
0.205938
0.214574
0.159738
0.222493
0.247984
0.085369
0.200418
0.050706
0.107633
0.147928
0.109226
0.093105
0.169248
0.143093
0.163057
0.084143
0.043290
0.078922
0.032177
0.181138
0.248935
0.256422
0.566989
0.824976
1.189716
1.356814
1.425390
1.453747
1.096477
0.701893
0.338906
0.089161
-0.005468
-0.030022
-0.133810
0.029535
0.065794
0.087320
0.140552
0.101453
0.061560
0.194380
0.199305
0.137885
0.287694
0.254803
0.237449
0.289639
0.238572
0.253766
0.314848
0.329789
0.384952
0.372177
0.412710
0.380603
0.399500
0.394108
0.460800
0.457970
0.527316
0.520782
0.501673
0.603044
0.484538
0.634318
0.571214
0.597738
0.663175
0.627770
0.703756
0.624044
0.633359
0.604270
0.580544
0.601879
0.533999
0.558309
0.572276
0.456096
0.524790
0.411701
0.423307
0.434863
0.426232
0.426318
0.356635
0.311898
0.374218
0.298735
0.237955
0.297269
0.215132
0.277081
0.216020
0.238751
0.207987
0.155576
0.187980
0.170629
0.068655
0.169332
0.106122
0.140984
0.097592
0.100437
0.071222
-0.001315
0.056218
0.062242
0.042717
0.032262
0.064095
0.014822
0.039750
0.061709
0.095056
0.082992
0.069339
0.069797
0.017595
0.076970
-0.002129
0.046758
0.102847
0.100867
0.096155
0.059054
0.137072
0.019471
0.018101
0.083909
0.066603
0.041214
0.039486
0.084374
0.033083
0.059863
-0.002002
0.083036
0.052851
0.098237
0.052103
0.088980
0.131111
0.069409
0.067130
0.092666
0.051761
0.168451
0.139476
0.113189
0.150080
0.152885
0.104195
0.131339
0.249981
0.193730
0.117410
0.184968
0.159192
0.189214
0.182319
0.141760
0.160994
0.212139
0.174572
0.092757
0.253750
0.270498
0.222650
0.234604
0.263323
0.155026
0.210140
0.153333
0.221788
0.108599
0.216037
0.115803
0.090050
0.035127
0.133898
0.132606
0.111295
0.054348
0.043520
0.067873
0.071462
0.086043
-0.008670
0.055578
-0.043112
-0.025879
0.026435
-0.020518
0.013711
0.186849
0.271697
0.558085
0.849203
1.201475
1.427187
1.431463
1.226201
0.871769
0.542888
0.153858
-0.068549
-0.174198
-0.087750
-0.088556
-0.051715
0.011683
0.086639
0.056854
0.124934
0.073371
0.155930
0.075361
0.064530
0.101720
0.157246
0.147156
0.139393
0.123791
0.220655
0.205061
0.230967
0.257729
0.167673
0.268508
0.384222
0.329755
0.337819
0.413232
0.461806
0.356212
0.455606
0.479093
0.508930
0.441643
0.483065
0.468345
0.537990
0.416837
0.562345
0.416692
0.470215
0.531488
0.436179
0.524742
0.461157
0.500954
0.369578
0.410092
0.410812
0.457997
0.365537
0.299738
0.245424
0.265994
0.338819
0.330742
0.222086
0.224998
0.192479
0.287256
0.170742
0.149453
0.160663
0.133930
0.080139
0.073341
0.048612
0.077634
-0.028672
0.003476
0.013137
-0.030004
0.080311
0.022065
-0.071252
0.015078
0.024868
0.022839
0.003365
-0.000146
-0.001674
-0.033474
0.014863
-0.103327
-0.230325
-0.045349
-0.041673
0.030504
-0.025701
-0.076245
0.002164
-0.053558
0.023444
-0.002215
-0.062614
-0.084248
0.033569
0.045292
-0.093452
-0.042350
-0.000188
-0.029059
-0.029479
-0.074920
-0.100945
-0.086249
-0.039631
-0.051140
-0.047744
-0.034184
-0.070865
0.070346
0.002969
0.005522
-0.025818
0.017219
-0.108928
-0.014275
-0.097777
-0.032255
0.033909
-0.054315
-0.071555
0.061914
0.097956
0.059174
-0.021773
0.103180
0.057844
0.138267
0.046380
0.113422
0.166248
0.178292
0.146090
0.129894
0.047466
0.168623
0.140169
0.081113
0.051691
0.117607
0.099633
0.077986
0.062111
0.070742
0.021164
-0.016208
0.014008
0.067635
0.049750
-0.018026
-0.020164
-0.052330
-0.137889
-0.042165
-0.060935
-0.079518
-0.156570
-0.082998
-0.057467
-0.001219
-0.154426
-0.107623
-0.105038
0.064137
0.170075
0.333176
0.557086
0.952743
1.290540
1.292255
1.209253
0.947919
0.580353
0.172912
-0.117815
-0.195612
-0.281543
-0.141916
-0.148890
-0.150072
-0.049314
-0.106251
-0.053379
-0.056557
-0.006111
0.003894
0.083545
0.064603
0.126290
0.110291
0.005377
0.136277
0.182237
0.160783
0.239685
0.181802
0.290424
0.220210
0.229018
0.273661
0.283133
0.314035
0.295214
0.258157
0.364511
0.414016
0.360755
0.427271
0.371666
0.374081
0.494010
0.384463
0.415444
0.455902
0.442762
0.532251
0.479273
0.429906
0.394985
0.388270
0.379190
0.399133
0.426724
0.412322
0.251303
0.328866
0.369190
0.195933
0.291036
0.271832
0.229453
0.236024
0.080879
0.200641
0.154039
0.105831
0.073464
0.085317
0.079881
0.045298
0.095015
0.056975
0.034344
0.033859
-0.047555
0.002527
-0.052182
-0.093298
-0.036028
0.017169
-0.085535
-0.058928
-0.067449
-0.034185
0.063586
-0.185470
-0.080997
-0.018764
-0.133086
-0.062388
-0.037838
-0.090284
-0.031836
-0.054302
-0.071496
-0.108036
-0.142312
-0.011886
-0.113038
-0.061403
-0.042544
-0.153922
-0.103206
-0.062766
-0.053890
-0.065393
-0.032229
-0.032180
-0.113124
-0.097184
-0.083588
-0.056925
-0.114847
-0.033659
-0.065513
-0.088747
-0.038441
0.009014
-0.089421
-0.028495
-0.050551
-0.108265
0.046204
0.025206
0.033563
-0.036044
-0.056874
-0.058807
0.070032
0.070507
0.155336
0.119206
0.082707
-0.011353
0.085346
0.195551
-0.003711
0.134083
0.067884
0.146074
0.150014
0.183505
0.039570
0.139842
0.143129
0.117562
0.105562
0.069512
0.048290
0.099951
0.108268
-0.014297
-0.004504
0.022821
0.114429
-0.090992
-0.014900
0.000061
0.026308
0.007671
-0.073418
-0.027181
-0.028009
0.001619
-0.004872
-0.090641
-0.048675
-0.047525
0.003854
-0.008839
0.089870
0.298605
0.561479
0.883878
1.203051
1.260651
1.318265
1.026814
0.774817
0.381371
0.053249
-0.084508
-0.222967
-0.145419
-0.091133
-0.117539
-0.026470
-0.161362
0.003204
0.171580
-0.011048
0.120863
0.133508
0.161277
0.084597
0.107284
0.135243
0.102122
0.046445
0.221265
0.216807
0.213051
0.247307
0.373414
0.310100
0.302655
0.251676
0.327793
0.418498
0.381440
0.340029
0.485636
0.394722
0.556368
0.479668
0.448778
0.516762
0.581478
0.415993
0.546698
0.505267
0.474616
0.535260
0.523351
0.511076
0.487033
0.414458
0.408668
0.461517
0.445957
0.359169
0.459910
0.323901
0.377261
0.308703
0.270478
0.184697
0.316289
0.169255
0.227719
0.214928
0.200323
0.132170
0.223377
0.113815
0.126675
0.168579
0.104188
-0.004293
0.112539
0.131946
0.080206
0.005676
0.082629
-0.009380
0.066211
0.017224
0.082769
0.034679
0.027975
0.041434
0.069815
-0.065643
0.034723
0.092866
-0.011320
-0.010900
-0.017848
-0.005556
0.047942
0.029780
0.015876
0.090235
0.082101
0.015742
-0.026463
0.065208
-0.013441
0.021609
-0.003468
0.035246
0.022426
0.078723
0.037368
0.077490
0.044341
0.009599
0.010412
0.077212
0.063183
-0.007929
-0.040324
0.007663
0.011823
0.152893
0.047843
0.082443
0.067774
0.094937
0.092897
0.086402
0.084031
0.122317
0.106687
0.141475
0.175036
0.063829
0.123552
0.142947
0.227190
0.165094
0.253089
0.202616
0.189080
0.277838
0.170307
0.170396
0.253941
0.211377
0.198855
0.141612
0.264880
0.148647
0.189580
0.202683
0.174772
0.159521
0.153781
0.221627
0.077264
0.139040
0.048062
0.133548
0.070716
0.092317
0.023489
0.070791
0.017676
0.095691
0.035816
0.077749
0.013523
0.076526
-0.046611
0.035737
0.095366
0.106890
0.198840
0.456573
1.008919
1.090827
1.321259
1.409154
1.363232
1.028686
0.627597
0.242394
0.002521
-0.061933
-0.186813
-0.094438
-0.004969
0.052425
0.118415
0.141682
0.140930
0.091661
0.173196
0.214312
0.211479
0.130254
0.271779
0.131042
0.325318
0.259993
0.211997
0.344687
0.316933
0.319238
0.336871
0.342392
0.418902
0.355488
0.475661
0.465453
0.431637
0.394541
0.492212
0.595296
0.518104
0.541935
0.640478
0.644613
0.537091
0.629613
0.630831
0.603696
0.594588
0.586153
0.609895
0.603469
0.453363
0.511184
0.570419
0.532906
0.468756
0.437728
0.532900
0.432059
0.379043
0.370154
0.383921
0.374674
0.370195
0.283118
0.233935
0.184873
0.310571
0.174462
0.236304
0.271652
0.185081
0.031955
0.102630
0.146468
0.105381
0.038104
0.183107
0.120021
0.141197
0.139028
0.074093
0.099795
0.092697
0.067641
-0.047153
0.066448
0.013818
0.081432
0.119390
0.057334
0.090372
0.055854
0.024695
-0.026901
0.040068
0.018348
0.025618
0.104975
0.104848
0.010720
0.042055
0.161287
0.010778
-0.007095
0.124840
0.086839
0.130144
-0.009711
0.075018
0.026578
-0.012649
-0.008500
0.052701
0.046539
-0.030955
0.073318
0.129488
0.039837
0.023605
0.030346
0.030235
0.119974
0.116534
0.046850
0.101087
0.007303
0.072118
0.102503
0.079333
0.113223
0.117060
0.169248
0.089550
0.200025
0.165331
0.168230
0.085762
0.212777
0.198070
0.177789
0.226313
0.252273
0.241632
0.198056
0.189056
0.213052
0.206722
0.138568
0.155141
0.175480
0.139541
0.195842
0.155511
0.078151
0.136783
0.072324
0.025083
0.096940
0.056775
0.076553
0.029611
0.071624
0.033914
0.034236
0.058401
0.047672
0.096022
-0.026032
0.034657
0.064180
-0.135703
0.010683
0.142072
0.291151
0.616617
0.940529
1.255243
1.353870
1.384662
1.138121
0.787761
0.345931
0.094909
-0.100951
-0.111049
-0.158422
-0.059794
-0.081762
-0.004980
0.089529
0.043370
0.063106
0.112749
0.106015
0.181625
0.074825
0.097573
0.218076
0.123213
0.046402
0.140081
0.288640
0.190628
0.254396
0.362757
0.298115
0.277079
0.336559
0.316658
0.387736
0.487383
0.397664
0.440434
0.466191
0.526383
0.480885
0.440365
0.501337
0.536960
0.561552
0.583961
0.517343
0.485957
0.470857
0.518053
0.486851
0.464953
0.518570
0.479063
0.452477
0.361207
0.397083
0.391346
0.361966
0.399993
0.259744
0.284229
0.272428
0.319427
0.190427
0.265330
0.176383
0.206126
0.116126
0.129531
0.152606
0.172601
-0.030612
0.085509
0.088815
0.063221
0.088560
0.070971
0.052087
0.037962
0.054935
0.023156
-0.026596
-0.137579
-0.005592
-0.150385
0.001263
-0.055655
-0.068400
-0.102260
-0.016918
0.019433
-0.026690
-0.016398
-0.098562
-0.048537
-0.037010
-0.033952
0.025827
-0.042101
-0.095286
-0.027561
-0.023099
-0.027358
0.032933
-0.032643
-0.109603
-0.010526
-0.040198
-0.078566
-0.068569
-0.016662
-0.099371
-0.055158
-0.022737
-0.126980
-0.023034
-0.093936
-0.114461
-0.044412
-0.033512
-0.005191
-0.025865
-0.127681
0.007972
-0.004264
-0.055884
-0.059045
-0.064208
0.018772
0.054351
0.061661
-0.058941
0.034825
0.093855
-0.006881
0.018038
0.074705
0.064272
0.079979
0.069727
0.149181
0.083218
0.027396
0.178513
0.139409
0.139049
0.157619
0.115021
0.144611
0.063498
0.067667
0.076917
-0.103093
0.043880
0.031740
0.009991
0.021473
0.036542
0.040713
-0.091970
-0.136042
-0.110284
-0.076184
-0.013943
-0.112270
0.005474
-0.079814
-0.058324
-0.035020
-0.062302
-0.070641
-0.092950
0.052813
0.196635
0.373277
0.671492
1.059384
1.355339
1.321648
1.179829
0.870513
0.454023
0.127471
-0.076592
-0.251134
-0.218121
-0.144921
-0.127431
-0.095878
-0.065076
0.005896
-0.033431
-0.083202
0.001268
-0.029002
-0.021091
0.072607
0.121930
-0.044403
0.042419
0.097667
0.063355
0.112428
0.164151
0.240047
0.229912
0.108369
0.186603
0.317517
0.183885
0.231762
0.277354
0.295826
0.405764
0.362548
0.339384
0.463004
0.416937
0.384354
0.457046
0.457810
0.359510
0.463783
0.441864
0.383917
0.461026
0.425481
0.366082
0.401884
0.290546
0.285727
0.368608
0.364585
0.345676
0.380037
0.224838
0.260848
0.181364
0.189420
0.119219
0.102819
0.078242
0.111648
0.186411
0.167948
0.045607
0.077706
0.089534
0.045859
0.021060
-0.025967
0.024746
-0.040979
0.032543
-0.004753
-0.063255
0.007552
-0.087781
-0.082905
-0.074209
0.010187
-0.118297
-0.060487
-0.185775
-0.121135
-0.199437
-0.099875
-0.081829
-0.083014
-0.084896
-0.081309
-0.110521
-0.067705
-0.109990
-0.057039
-0.120505
-0.021137
-0.051593
-0.114656
-0.152208
-0.167487
-0.044529
-0.093691
-0.045652
-0.162943
-0.132923
-0.150810
-0.026952
-0.145550
-0.084329
-0.065726
-0.020203
-0.114890
-0.041139
-0.107212
-0.099716
-0.054386
-0.099419
-0.072172
-0.159773
-0.148826
-0.125650
-0.049003
-0.051949
0.009185
-0.016991
0.030792
0.046629
-0.057682
0.056012
-0.054249
-0.022909
-0.078455
0.036068
0.091676
0.080065
0.100281
0.060469
0.111048
0.102336
0.064734
0.095458
0.157217
-0.042143
0.138494
0.010026
0.029018
0.082152
-0.013928
0.036040
0.010323
0.054663
0.000354
-0.019385
0.013645
-0.103460
-0.105369
-0.047047
0.002500
-0.010749
-0.148709
-0.065568
-0.112049
-0.082413
-0.006665
-0.072358
-0.084369
-0.060943
-0.035455
0.122399
0.210162
0.532939
0.850910
1.147814
1.330028
1.244979
1.083673
0.613899
0.330162
0.019371
-0.121810
-0.277489
-0.215910
-0.164338
-0.056251
-0.064633
0.018085
-0.003977
-0.025884
0.039652
0.028814
0.092532
0.051952
0.084644
0.076208
0.090010
0.059367
0.137610
0.098327
0.210910
0.134924
0.153288
0.237461
0.274704
0.349179
0.239895
0.306367
0.359269
0.437808
0.404373
0.423002
0.433973
0.459313
0.411776
0.439499
0.613519
0.493805
0.445777
0.395611
0.560266
0.503158
0.434220
0.461981
0.480041
0.520410
0.455196
0.430646
0.381046
0.374773
0.418971
0.343106
0.284512
0.363651
0.320386
0.320897
0.244169
0.152885
0.202993
0.170704
0.190102
0.186937
0.122684
0.162533
0.054661
0.089089
0.023829
0.025243
0.028269
0.028876
0.051260
0.019534
-0.046150
0.063651
-0.001183
0.035388
0.021770
0.026366
0.001603
-0.019547
-0.016921
-0.024721
0.000192
-0.013803
0.091451
0.036204
0.013738
0.052764
-0.014398
0.055155
0.008083
0.006097
0.039015
0.028460
-0.020779
0.066702
0.025794
-0.026463
-0.099780
-0.038421
0.054174
-0.040582
-0.041411
0.012986
0.074064
-0.000147
-0.023322
-0.017273
0.093281
0.034511
0.039814
-0.009902
-0.038787
0.039748
0.023567
0.044618
-0.043588
0.064988
0.021861
0.101019
0.080898
0.015409
0.003153
0.076390
0.059601
0.121759
0.157426
0.131957
0.150333
0.148782
0.154304
0.095409
0.154433
0.134671
0.264528
0.210017
0.129918
0.206403
0.176980
0.211973
0.214847
0.207677
0.214300
0.172319
0.158349
0.089564
0.159097
0.206524
0.068833
0.108821
0.154112
0.108524
0.044339
0.114264
0.084947
0.030227
0.072547
0.061486
0.049852
-0.006947
-0.005669
0.055281
-0.007712
0.026964
0.024061
0.076341
0.140132
0.309582
0.476403
0.893791
1.186532
1.366901
1.416656
1.255282
1.034358
0.554050
0.324533
0.020716
-0.070229
-0.069073
-0.114386
-0.002783
0.078707
0.027175
0.045300
0.127029
0.171076
0.163290
0.110923
0.169269
0.191637
0.241220
0.203676
0.239715
0.297529
0.173706
0.243581
0.277147
0.329795
0.294486
0.403346
0.302071
0.437682
0.423997
0.450176
0.516644
0.409056
0.511934
0.569371
0.571578
0.518379
0.591301
0.647059
0.573906
0.601891
0.579249
0.598872
0.552539
0.550084
0.645462
0.598219
0.551425
0.600971
0.503347
0.528876
0.519223
0.476637
0.400837
0.451362
0.441581
0.294578
0.423427
0.371272
0.389276
0.283258
0.312086
0.250892
0.189523
0.148564
0.194784
0.208595
0.136549
0.014157
0.070056
0.176051
0.268891
0.121027
0.159063
0.056219
0.089716
0.048253
0.114371
0.079609
0.068929
0.094971
0.101675
0.103952
0.014241
0.042684
0.185965
0.131312
0.120591
0.109246
-0.000752
0.060865
0.035500
0.156391
0.043967
0.076445
0.032120
0.040655
0.045190
0.055075
0.124459
0.100272
-0.052565
0.037463
0.102663
0.127466
0.046081
0.058474
0.159980
0.051155
-0.054064
0.031649
0.078797
0.094376
0.090957
0.055766
0.115558
0.062431
0.126553
0.129493
0.161382
0.113821
0.119514
0.211919
0.121288
0.119155
0.160149
0.231101
0.092818
0.127038
0.182345
0.120056
0.235192
0.238475
