0.003504
0.007075
0.009869
0.063415
-0.018815
-0.000607
0.040669
0.014129
0.036191
0.017718
-0.008385
-0.053702
-0.076715
0.039594
0.038469
0.064290
0.002745
0.016154
0.037122
0.055486
0.031932
-0.058670
0.006211
-0.056251
0.026361
0.036952
0.077054
0.048571
0.046609
0.059097
0.102641
0.175199
0.076341
0.130461
0.104387
0.057077
0.077247
0.090730
0.120804
0.214741
0.255014
0.253411
0.208692
0.272279
0.151658
0.192337
0.186450
0.271563
0.188383
0.241734
0.138349
0.229158
0.155769
0.118521
0.194519
0.123245
0.096227
0.157371
0.202526
0.155530
0.100866
0.063089
0.039813
0.018706
0.053282
-0.017843
0.052695
-0.028696
0.105768
0.035656
0.107307
0.077443
0.139552
0.092956
0.106288
0.032568
0.112344
0.083942
0.053515
0.053608
-0.059669
-0.008754
-0.028511
0.010480
0.156070
0.309982
0.556534
0.946355
1.156835
1.369648
1.411104
1.285324
0.963320
0.587968
0.313737
0.009726
-0.193579
-0.148310
-0.186560
-0.107361
-0.061381
0.029209
-0.010508
0.035255
0.080389
0.007844
0.095620
0.104735
0.038923
0.141770
0.092295
0.089260
0.038744
0.059729
0.086879
0.151175
0.114783
0.265030
0.148489
0.209815
0.253967
0.190229
0.249244
0.228775
0.318218
0.246532
0.355036
0.320637
0.351842
0.311877
0.389283
0.420571
0.457118
0.460047
0.499295
0.439709
0.551941
0.565467
0.497822
0.528576
0.581506
0.531287
0.547227
0.590554
0.630247
0.519497
0.608837
0.572606
0.563518
0.553236
0.492921
0.523183
0.588287
0.482512
0.515868
0.495702
0.465030
0.501886
0.370896
0.444647
0.404744
0.367938
0.323409
0.385786
0.263427
0.306547
0.315162
0.244374
0.229818
0.220302
0.213464
0.271320
0.079562
0.086175
0.247653
0.104773
0.202903
0.111485
0.087435
0.094745
0.135144
0.087139
0.044674
0.077169
0.078836
0.080070
0.039645
0.171169
0.083830
0.166523
0.094904
0.157212
0.058919
0.097103
0.092053
0.087055
0.017207
0.116772
0.029395
0.069562
0.081058
0.069542
0.109437
0.137297
0.069682
0.083821
0.027669
0.028929
0.019859
0.115680
0.093497
0.120551
0.095807
-0.042216
0.047093
0.039752
-0.018613
0.172965
0.070896
0.086271
-0.003258
0.048647
0.150723
0.072919
0.118911
0.010077
0.090554
0.134254
0.132325
0.130030
0.106882
0.099106
0.104521
0.006455
0.158358
0.108709
0.122385
0.131020
0.113470
0.032438
0.137422
0.104420
0.136229
0.022695
0.080709
0.125252
0.036286
0.033601
0.026722
0.136420
0.073682
0.089391
0.086902
0.095938
0.126281
0.136385
0.099812
0.178774
0.196488
0.258361
0.233283
0.133163
0.274600
0.216105
0.286630
0.267579
0.204757
0.224372
0.268538
0.287527
0.235864
0.176326
0.162091
0.222305
0.232528
0.255860
0.237870
0.205194
0.140110
0.244933
0.150066
0.134480
0.230334
0.169569
0.109538
0.121889
0.116035
0.016593
0.070034
0.051878
0.058615
0.082416
0.062313
0.052647
0.053266
0.041745
0.098192
0.130998
0.037710
0.094341
0.072128
0.123138
0.155717
0.056420
0.081356
-0.044692
0.007919
0.064507
0.154104
0.379552
0.619220
0.893854
1.258949
1.398992
1.407587
1.286841
0.990031
0.582084
0.268270
-0.105654
-0.195549
-0.178772
-0.234725
-0.193890
-0.073031
-0.008534
-0.022457
0.046522
0.087707
0.057556
0.053610
0.127611
0.088065
0.021662
0.107430
0.056993
0.126049
0.145506
0.066026
0.130860
0.128542
0.119824
0.151656
0.153098
0.159391
0.144662
0.197245
0.282994
0.241551
0.198329
0.291791
0.313662
0.375235
0.319137
0.310068
0.415138
0.433052
0.316093
0.472542
0.486621
0.448460
0.463478
0.488019
0.528942
0.532121
0.554460
0.485142
0.502271
0.649385
0.534825
0.570387
0.482444
0.483192
0.559184
0.530490
0.442989
0.478672
0.506031
0.481478
0.446272
0.400431
0.442986
0.406257
0.375619
0.339801
0.331991
0.271642
0.287303
0.200585
0.263177
0.219997
0.247328
0.191580
0.156790
0.169522
0.148370
0.081379
0.073674
0.001973
0.109956
0.094610
0.052862
0.084828
0.049502
0.034767
0.037058
0.021630
0.026923
-0.010319
-0.000855
0.016560
-0.004507
-0.059989
-0.054456
0.075615
0.070673
-0.005193
0.008951
-0.026908
0.025447
-0.006384
0.044472
-0.003361
0.051272
-0.084302
-0.084765
0.042735
0.045654
-0.030790
-0.006038
-0.030749
0.006147
-0.007568
0.050439
-0.053045
0.002922
0.083981
0.069899
-0.079231
0.030507
0.007287
0.023491
0.029061
-0.023086
-0.043943
0.042949
0.032267
0.029579
-0.007828
-0.015175
-0.018711
-0.056794
0.002335
-0.062818
-0.078746
0.045771
-0.024024
0.008954
0.008105
-0.038604
0.015951
0.007771
-0.029710
-0.044228
0.034159
-0.059779
-0.073802
-0.005357
-0.023733
0.006404
0.064914
0.048155
0.072531
-0.003000
-0.097819
-0.005857
-0.041981
0.112019
0.091337
-0.026772
0.062886
0.031286
0.072007
0.142213
0.094882
0.080007
0.121537
0.145155
0.146451
0.056819
0.155916
0.137352
0.110971
0.122437
0.086270
0.151542
0.139293
0.155299
0.062364
0.147806
-0.005403
0.079445
0.017732
0.054498
0.034695
0.046160
0.005994
0.032513
0.050330
0.041367
-0.025954
0.016620
0.009924
-0.014704
-0.002069
-0.042126
-0.002685
-0.005821
0.026728
0.034205
-0.088592
-0.015704
0.013493
-0.006707
-0.057855
-0.039674
0.094832
-0.071761
-0.038398
0.013393
-0.066722
-0.074713
0.024109
0.322724
0.535060
0.852999
1.230064
1.310594
1.313109
1.044204
0.762341
0.469531
0.144808
-0.120652
-0.207280
-0.283037
-0.217848
-0.165452
-0.176583
-0.084549
-0.072138
-0.007762
0.018903
-0.048831
-0.005556
-0.048052
0.079393
0.009366
-0.077492
0.035797
-0.038768
0.023932
-0.011975
0.064588
0.086566
0.046823
-0.015193
0.052707
0.029959
0.089125
0.089558
0.125694
0.103871
0.148313
0.175796
0.149626
0.217465
0.307267
0.307367
0.340667
0.261472
0.419150
0.328762
0.341468
0.398854
0.344272
0.409821
0.440578
0.467693
0.457537
0.492761
0.436961
0.509194
0.466172
0.460172
0.495233
0.480416
0.388778
0.432742
0.395845
0.364024
0.373887
0.422011
0.345109
0.401116
0.345975
0.317914
0.345642
0.247406
0.302594
0.229921
0.202579
0.116679
0.166137
0.209369
0.130814
0.143846
0.126928
0.095004
0.109140
0.117163
0.079606
0.003240
0.022845
0.024357
-0.026119
0.058387
0.071463
-0.018201
-0.005938
-0.019198
0.066319
-0.015721
-0.037357
-0.023524
-0.074427
-0.021557
-0.019525
0.033707
-0.034538
-0.027625
-0.069075
0.058414
0.018116
-0.072828
0.023816
-0.041039
0.073632
-0.108346
-0.037427
-0.046997
-0.009542
-0.004615
-0.017100
-0.043456
0.069882
-0.039526
-0.061866
-0.052531
0.050126
-0.024133
-0.030001
-0.025701
-0.059802
-0.030689
0.002794
0.051684
0.000000
0.000000
0.000000
0.000000
0.000000
0.000000
0.000000
0.000000
0.000000
0.000000
0.000000
0.000000
0.000000
0.000000
0.000000
0.000000
0.000000
0.000000
0.000000
0.000000
0.000000
0.000000
0.000000
0.000000
0.000000
0.000000
0.000000
0.000000
0.000000
0.000000
0.000000
0.000000
0.000000
0.000000
0.000000
0.000000
0.000000
0.000000
0.000000
0.000000
0.000000
0.000000
0.000000
0.000000
0.000000
0.000000
0.000000
0.000000
0.000000
0.000000
0.000000
0.000000
0.000000
0.000000
0.000000
0.000000
0.000000
0.000000
0.000000
0.000000
0.000000
0.000000
0.000000
0.000000
0.000000
0.000000
0.000000
0.000000
-0.007690
0.009405
0.044532
0.055165
0.058514
0.075927
0.061932
0.164431
0.007763
0.059494
0.030557
0.088656
0.024351
0.068117
0.022517
0.022885
0.030977
0.040034
0.004524
-0.045243
0.042548
0.147406
0.448608
0.635289
1.060456
1.198884
1.402407
1.368187
1.138067
0.879014
0.408594
0.166344
-0.027300
-0.206489
-0.228362
-0.243767
-0.103337
-0.043881
0.048842
0.084164
-0.033440
0.037288
0.057136
0.159222
0.052374
0.050482
0.064506
0.040894
0.015950
0.036584
0.093987
0.094821
0.052657
0.177884
0.097074
0.027351
0.151074
0.212203
0.234549
0.248520
0.244134
0.206416
0.271514
0.353781
0.333471
0.339438
0.356429
0.388987
0.338555
0.434018
0.442388
0.468155
0.419182
0.406784
0.495794
0.482011
0.514622
0.567743
0.543020
0.582646
0.594749
0.630777
0.559762
0.513839
0.570512
0.571635
0.634550
0.522017
0.584824
0.541467
0.425453
0.438951
0.443294
0.524731
0.365412
0.469846
0.426676
0.361799
0.361248
0.313428
0.317666
0.376986
0.230526
0.243348
0.306796
0.338887
0.236988
0.221264
0.178249
0.199023
0.204162
0.110411
0.079678
0.002501
0.198510
0.138200
0.178195
0.176791
0.064311
0.095724
0.112923
0.099787
0.141315
0.057866
0.093096
0.037765
-0.003892
0.118283
0.066607
-0.002612
0.046849
0.180641
0.083579
0.140163
0.105443
0.080633
0.094065
0.107500
0.062125
0.081722
0.034134
0.111626
0.077688
0.123180
0.084401
0.118220
0.065327
0.131616
0.081574
0.194258
0.033449
0.114929
0.065161
0.126302
0.072770
0.172927
0.140553
0.065011
0.123732
0.124121
0.092966
0.172389
0.008219
0.124264
0.082824
0.131205
0.095906
0.090827
0.114160
0.110991
0.066913
0.115415
0.122541
0.017586
0.123214
0.088799
0.049304
0.187142
0.115470
0.102262
0.090487
0.136229
0.187718
0.071060
0.053948
0.129637
0.076234
0.129917
0.093030
0.149020
0.144159
0.188802
0.094277
0.117117
0.242660
0.135407
0.211001
0.327025
0.214144
0.222613
0.219570
0.321345
0.228463
0.277844
0.284548
0.323640
0.212010
0.242542
0.310907
0.211771
0.234681
0.197603
0.185263
0.225157
0.284274
0.184716
0.140411
0.177210
0.168938
0.196032
0.036717
0.134257
0.088696
0.148108
0.159098
0.157667
0.032764
0.048419
0.103098
0.064596
0.004904
0.011275
0.145851
0.070692
0.106320
0.095865
0.124113
0.140757
0.045889
0.113128
0.038311
0.064589
0.066498
-0.001945
0.012367
0.166882
0.492863
0.747915
1.111465
1.368594
1.385094
1.386893
1.233608
0.889447
0.477360
0.244012
-0.016227
-0.172409
-0.133726
-0.176211
-0.078040
-0.049401
0.023242
0.121115
0.034493
0.129977
0.110503
0.126360
0.049858
0.143175
0.131093
0.146546
0.088570
0.070681
0.155378
0.164228
0.152284
0.166673
0.211400
0.147776
0.160001
0.235591
0.216211
0.201522
0.134081
0.367897
0.394444
0.395293
0.371022
0.349698
0.358599
0.342259
0.325961
0.391579
0.456948
0.412986
0.457004
0.541232
0.437227
0.457235
0.527928
0.601712
0.484404
0.539397
0.575839
0.575643
0.534074
0.558417
0.582173
0.563575
0.520714
0.561274
0.487761
0.511780
0.446868
0.443457
0.554397
0.454725
0.400266
0.459714
0.327092
0.449237
0.296271
0.308861
0.358193
0.269905
0.168591
0.219717
0.227863
0.277150
0.246228
0.165979
0.195765
0.174449
0.090450
0.194549
0.083361
0.090155
0.153915
0.129754
0.098995
0.022831
0.094050
0.137775
0.071636
0.065969
0.065699
0.107818
0.039944
0.068831
0.068411
0.062311
-0.003135
0.091432
0.039369
0.119949
0.020717
0.056712
0.100241
0.025056
0.066656
0.016793
0.015668
0.052120
0.012773
-0.055810
0.041272
0.005985
-0.065923
0.054193
0.019955
0.034084
0.000805
0.028987
0.058329
0.053120
-0.022163
0.047345
0.029624
0.034525
0.057064
0.074261
-0.064685
-0.032377
-0.027199
0.085660
-0.039315
0.077157
-0.056149
-0.013951
0.030183
-0.053175
-0.011219
0.027237
0.035207
0.012187
0.038052
0.018943
-0.010542
-0.020292
-0.021106
0.034926
-0.020210
0.003965
0.039868
0.008099
0.046626
-0.018695
0.062879
-0.020469
0.014021
0.091155
0.027797
-0.030215
0.022490
0.111776
0.097244
0.017858
0.128891
0.131632
0.077725
0.114082
0.224383
0.162544
0.128028
0.155009
0.153730
0.099410
0.224941
0.107806
0.166572
0.113183
0.081305
0.185033
0.178254
0.158007
0.098308
0.034593
0.140662
0.046590
0.069949
0.097951
-0.007631
0.013167
0.062103
0.041127
0.078094
0.007704
-0.014152
0.013310
-0.010078
-0.066719
0.034588
-0.062356
0.011134
0.060705
0.017014
-0.068105
-0.115048
-0.092775
0.001600
0.019804
-0.010162
-0.027517
-0.061744
-0.040092
-0.141902
-0.104013
-0.005192
0.121784
0.345884
0.619412
0.000000
0.000000
0.000000
0.000000
0.000000
0.000000
0.000000
0.000000
0.000000
0.000000
0.000000
0.000000
0.000000
0.000000
0.000000
0.000000
0.000000
0.000000
0.000000
0.000000
0.000000
0.000000
0.000000
0.000000
0.000000
0.000000
0.000000
0.000000
0.000000
0.000000
0.000000
0.000000
0.000000
0.000000
0.000000
0.000000
0.000000
0.000000
0.000000
0.000000
0.000000
0.000000
0.000000
0.000000
0.000000
0.000000
0.000000
0.000000
0.000000
0.000000
0.000000
0.000000
0.000000
0.000000
0.000000
0.000000
0.000000
0.000000
0.000000
0.000000
0.000000
0.000000
0.000000
0.000000
0.000000
0.000000
0.000000
0.000000
0.000000
0.000000
0.000000
0.000000
0.000000
0.255585
0.171933
0.150268
0.164883
0.174611
0.118721
0.115197
0.042514
0.074266
0.082846
-0.022832
0.017843
0.087093
0.000491
0.120393
-0.041100
0.080334
-0.071496
0.030608
-0.014165
-0.102787
-0.022754
-0.118935
-0.121813
-0.071506
0.003422
0.003509
-0.129586
-0.050484
-0.062894
-0.086435
-0.061453
-0.005866
-0.087198
-0.073469
-0.103175
-0.108652
-0.053780
-0.050576
-0.035338
-0.067917
-0.055160
-0.120251
-0.065238
-0.084167
-0.059167
0.018321
-0.129184
-0.123510
-0.165868
-0.119314
-0.056965
-0.012214
-0.078596
-0.092595
-0.103150
-0.183431
-0.165144
-0.053130
-0.132877
-0.132700
-0.028119
-0.118134
0.005391
-0.051428
-0.120456
-0.030245
-0.026989
-0.159526
-0.057756
-0.043576
0.002790
-0.057335
-0.089648
-0.077128
-0.020083
-0.124309
-0.000407
-0.113366
-0.057251
-0.074774
-0.060155
-0.121880
-0.102412
-0.046091
-0.100461
-0.011543
-0.040019
-0.114749
-0.055195
0.012712
-0.116233
-0.045292
-0.023125
0.012858
0.006476
-0.075627
0.096678
0.134547
0.038847
0.067005
0.040586
0.001208
0.093004
0.013358
0.177966
0.098763
0.112660
0.138521
0.016338
0.115211
0.128214
0.010651
0.026294
0.062000
0.159210
0.123246
0.016551
0.092794
0.029364
-0.013097
0.023006
-0.005764
-0.049919
0.020667
-0.051123
-0.089474
-0.114279
-0.019434
-0.026037
-0.053417
-0.015293
-0.102773
-0.038615
-0.031194
-0.055570
-0.099353
0.030178
-0.152690
-0.006541
-0.071295
-0.112968
-0.015122
-0.093323
-0.148476
-0.206428
-0.108409
-0.023104
0.117094
0.381508
0.673511
0.996308
1.202243
1.299168
1.304430
0.898139
0.691397
0.307485
0.015859
-0.251263
-0.345309
-0.375056
-0.283356
-0.247756
-0.155789
-0.083463
-0.056588
-0.008577
0.025513
0.004833
-0.048133
-0.047597
-0.007179
-0.046645
-0.018042
-0.042633
0.020179
-0.079747
-0.008290
0.085901
0.059310
0.040051
0.026472
0.056930
-0.002744
0.153053
0.102176
0.108033
0.180143
0.166239
0.189788
0.238099
0.233821
0.214895
0.283852
0.226143
0.358087
0.340908
0.334917
0.395225
0.449392
0.428256
0.446178
0.392897
0.469095
0.419264
0.575270
0.429483
0.465412
0.494474
0.417773
0.388735
0.428996
0.479136
0.387581
0.363227
0.436904
0.378356
0.316259
0.374401
0.344852
0.345711
0.335514
0.266434
0.335630
0.219590
0.260579
0.266305
0.177163
0.231478
0.165492
0.158135
0.118078
0.139537
0.071637
0.082382
0.042695
0.008485
-0.070919
0.035860
0.065283
0.160049
0.113669
0.036051
0.061397
-0.004827
0.032368
0.007445
-0.018547
0.031099
-0.031045
0.000191
-0.053797
-0.045595
-0.053022
0.025718
0.005325
0.001242
-0.030851
0.012135
0.040210
0.008550
-0.060237
-0.011342
-0.045069
0.009866
0.047856
0.027008
0.031372
0.025000
0.114746
0.031301
-0.006646
0.089427
0.030572
0.090067
0.074949
-0.047388
0.006423
-0.032373
-0.056954
0.039406
0.008661
0.043105
0.074378
0.060618
0.044931
-0.062062
-0.063525
0.010366
0.039407
-0.000374
-0.070176
-0.008429
-0.015205
0.038568
0.113174
-0.032686
0.069919
0.062181
-0.013951
0.003354
0.044709
-0.023712
-0.039059
0.079963
0.082225
0.033939
0.033756
-0.006093
0.025562
0.070745
0.010739
0.059431
0.038986
0.122274
0.053447
0.007865
0.154673
0.108299
0.124583
0.120611
0.173047
0.187414
0.185062
0.126977
0.155011
0.167416
0.235956
0.205098
0.163089
0.192390
0.173656
0.130047
0.153291
0.113452
0.213081
0.074952
0.101137
0.156567
0.149235
0.137960
0.171697
0.056702
0.052402
0.106393
0.087893
0.028128
0.054597
0.114602
-0.001891
0.077762
-0.025926
0.098280
0.022865
0.076145
0.058496
0.015732
0.037982
0.023192
0.063858
0.022565
0.052211
-0.009324
-0.009373
-0.051099
-0.030250
0.000248
-0.004613
-0.074231
0.021423
0.057276
0.317472
0.506732
0.804238
1.136735
1.446598
1.500000
1.295414
1.059204
0.663437
0.353511
0.081883
-0.168537
-0.195990
-0.280616
-0.164608
-0.023458
0.012262
-0.016177
-0.124030
0.049914
0.050270
0.076680
-0.006831
0.035392
0.080755
0.152349
0.116435
0.149423
0.096559
0.120746
0.099460
0.057988
0.094140
0.144265
0.125974
0.126221
0.119315
0.154741
0.159569
0.176590
0.161006
0.274776
0.349546
0.298986
0.262924
0.337319
0.394001
0.468347
0.415587
0.521298
0.492857
0.433386
0.415310
0.458383
0.549786
0.497763
0.586487
0.594937
0.583784
0.500365
0.583546
0.540141
0.479153
0.532758
0.547681
0.546174
0.544702
0.521587
0.572400
0.488913
0.430011
0.431369
0.410673
0.409462
0.357035
0.325021
0.290734
0.330317
0.239727
0.282855
0.238586
0.268174
0.175579
0.195145
0.120245
0.193291
0.182070
0.128399
0.147539
0.129200
0.079237
0.088384
0.101732
0.162442
0.040275
0.108363
0.059268
0.029023
0.064649
0.105544
0.141728
0.030392
0.132284
0.077052
-0.024732
0.002666
0.034820
0.070341
0.009683
0.029284
-0.000989
0.019694
0.088178
0.088620
0.080967
-0.029985
0.015208
0.061996
-0.043009
0.019061
0.017377
0.004883
0.025314
0.044781
-0.011417
-0.007062
0.051583
0.023508
0.021663
0.044504
0.054231
0.085157
-0.020142
0.020615
0.027645
-0.000826
-0.059853
0.015134
0.083641
0.019464
0.037904
0.048991
0.074119
0.041871
-0.045877
-0.017018
0.009709
0.000722
0.000000
0.000000
0.000000
0.000000
0.000000
0.000000
0.000000
0.000000
0.000000
0.000000
0.000000
0.000000
0.000000
0.000000
0.000000
0.000000
0.000000
0.000000
0.000000
0.000000
0.000000
0.000000
0.000000
0.000000
0.000000
0.000000
0.000000
0.000000
0.000000
0.000000
0.000000
0.000000
0.000000
0.000000
0.000000
0.000000
0.000000
0.000000
0.000000
0.000000
0.135629
0.168690
0.087675
0.135469
0.101497
0.022453
0.143903
0.159710
0.071126
0.018575
0.053146
0.054311
0.070198
0.009662
-0.000112
0.047109
-0.116149
0.000330
0.059749
0.019229
0.039497
0.010390
0.032275
-0.063504
-0.017467
0.026454
0.001017
-0.030366
-0.026850
0.030454
-0.055435
-0.077275
-0.031127
-0.075965
-0.077617
0.061064
0.199038
0.481031
0.778580
1.060853
1.342712
1.375244
1.233018
0.890538
0.612674
0.305168
-0.100494
-0.245164
-0.312742
-0.334569
-0.203531
-0.101624
-0.110050
-0.040064
-0.033696
-0.026954
0.008717
-0.041605
0.103586
0.030072
0.032412
0.015849
0.043946
-0.000007
-0.051811
0.096865
-0.084054
0.068345
-0.005148
0.035533
0.098121
0.053906
0.103316
0.090236
0.078043
0.152997
0.126183
0.253736
0.186467
0.186231
0.212424
0.189610
0.290991
0.302828
0.289435
0.333053
0.338570
0.367831
0.376448
0.471165
0.421275
0.507428
0.460800
0.471603
0.482490
0.441220
0.420406
0.479520
0.403320
0.445387
0.402500
0.433707
0.434297
0.388580
0.372157
0.367075
0.416525
0.405905
0.307187
0.320177
0.209558
0.187191
0.296592
0.173334
0.223755
0.166298
0.169621
0.098068
0.151501
0.114049
0.057959
0.096077
-0.001482
-0.022115
0.003359
0.045220
-0.002019
-0.026558
-0.035571
0.046581
-0.074784
-0.028449
-0.067156
-0.007834
-0.074927
-0.009321
-0.037827
-0.049670
-0.128294
-0.060145
-0.048376
-0.032426
-0.105439
-0.025268
-0.038539
-0.046544
-0.133213
-0.091797
-0.052244
-0.096282
-0.022450
-0.032583
-0.119139
-0.056473
-0.006344
-0.122141
0.016406
-0.112762
-0.084644
-0.154204
-0.069732
-0.140019
-0.060094
-0.090316
-0.154569
-0.111656
-0.039576
-0.149948
0.018271
-0.059937
-0.076265
-0.075627
-0.068992
-0.038251
-0.128298
-0.124254
-0.123918
-0.079653
-0.066215
-0.089098
-0.105139
-0.104887
-0.045322
-0.103951
-0.025957
-0.063475
-0.174329
-0.154194
-0.097073
-0.026245
-0.107346
-0.021892
0.020363
-0.073002
-0.085851
-0.113751
-0.054460
-0.162608
-0.078577
-0.050731
0.022761
-0.131348
-0.085438
0.008208
-0.065001
-0.049631
-0.035264
-0.116947
0.027707
0.072889
-0.000450
0.029541
0.000133
0.000133
0.089175
0.024828
0.073049
0.058677
-0.031733
0.032239
0.032066
0.044747
0.095955
0.078585
0.117293
0.053758
0.048862
0.052458
-0.023929
-0.004522
0.049304
-0.035795
-0.056869
-0.064356
-0.031937
-0.029444
-0.056962
-0.027012
-0.067959
-0.105231
-0.050535
-0.131580
-0.028109
-0.103328
-0.086818
-0.167604
-0.120892
-0.087709
-0.130611
-0.069983
-0.055982
-0.114998
-0.125833
-0.137397
-0.157597
-0.116393
-0.133905
-0.115409
-0.130261
-0.106811
0.141493
0.451459
0.843891
1.088289
1.279406
1.261801
1.038543
0.875449
0.449811
0.092047
-0.129625
-0.305949
-0.458306
-0.361069
-0.321469
-0.193813
-0.163323
-0.086521
-0.015365
-0.078414
-0.113913
-0.100914
0.009905
-0.064867
-0.063820
-0.141891
-0.058579
-0.056070
0.015012
-0.050313
-0.068981
-0.037796
0.034186
0.078537
0.007000
0.055866
0.044097
0.026109
0.078925
0.049467
0.057993
0.141850
0.168624
0.226998
0.210530
0.255876
0.279132
0.225118
0.264825
0.226298
0.353547
0.376234
0.343959
0.325514
0.357194
0.373878
0.435987
0.347154
0.387368
0.455390
0.481867
0.463276
0.531162
0.470329
0.493893
0.400846
0.382493
0.390558
0.304852
0.284873
0.388982
0.354655
0.342882
0.336428
0.292158
0.298950
0.220293
0.230176
0.209418
0.159863
0.172463
0.123647
0.056539
0.086582
0.046813
0.016573
-0.028126
0.034588
0.036779
0.023813
-0.018903
0.086451
0.073474
0.034634
-0.018664
-0.041332
-0.015922
-0.116469
-0.004181
-0.060974
-0.029712
-0.058834
0.025740
-0.106444
-0.050435
-0.037387
-0.098105
-0.104285
-0.029136
-0.019483
-0.038840
-0.063558
0.019062
-0.051334
0.021172
-0.037160
-0.091074
0.029103
-0.049239
-0.149036
-0.092073
-0.106506
-0.074846
-0.043280
-0.008777
-0.023783
0.002170
-0.049336
-0.104771
-0.022008
0.009030
-0.035463
-0.109802
-0.029474
-0.024693
-0.059719
-0.035798
-0.029374
0.008753
-0.100815
-0.003602
-0.073344
-0.067990
-0.110142
-0.026382
0.041124
-0.057678
-0.048817
-0.044871
0.005361
-0.020335
-0.080722
0.014193
-0.116276
-0.036452
0.015619
-0.103342
0.055323
-0.051183
-0.037894
-0.048097
-0.000877
0.004809
-0.067415
-0.064349
-0.002136
0.025349
0.047001
0.053069
0.088490
0.049579
0.092375
0.032769
0.067472
0.034165
0.050939
0.129130
0.055911
0.098891
0.122345
0.183272
0.234364
0.231368
0.141286
0.081690
0.121882
0.115161
0.177591
0.182427
0.189228
0.169267
0.174181
0.075376
0.125428
0.121965
0.063862
0.076347
0.012582
0.058743
-0.007485
0.054129
0.031911
0.028941
0.025311
-0.011375
0.044688
0.044910
0.002240
0.044049
0.019181
-0.031091
0.005116
-0.034481
0.069296
-0.068865
0.065556
0.016063
-0.015146
-0.002975
0.039811
-0.069622
-0.106564
0.071218
0.149977
0.282780
0.550786
0.890474
1.216249
1.389397
1.314451
1.206833
0.890458
0.638697
0.234400
-0.090099
-0.206128
-0.268230
-0.216362
-0.210373
-0.038637
-0.029940
-0.002026
0.038990
0.080442
0.024266
0.012351
0.075644
0.121410
0.141969
0.009525
0.064354
0.107249
0.130163
0.102122
0.115217
0.173676
0.212670
0.141690
0.100025
0.250063
0.250209
0.133341
0.215928
0.253939
0.294709
0.214967
0.330771
0.248460
0.391133
0.398652
0.390236
0.375225
0.472216
0.341379
0.418810
0.388269
0.406705
0.400730
0.540584
0.535525
0.524206
0.496575
0.535190
0.532436
0.576363
0.565159
0.588007
0.519811
0.587634
0.576375
0.541793
0.503895
0.507606
0.477638
0.514624
0.453264
0.456788
0.453651
0.356780
0.326126
0.379814
0.288328
0.292823
0.305471
0.254594
0.244115
0.287018
0.165349
0.185023
0.155963
0.198583
0.166276
0.191108
0.186828
0.066960
0.077546
0.103392
0.074552
0.166286
0.193736
0.107739
0.094945
0.164778
0.113827
0.115486
0.017103
0.128943
-0.003440
0.075865
0.002247
0.034814
0.115567
0.092152
0.073751
0.035734
0.036834
0.026877
0.095144
0.090489
0.079979
0.057213
0.092999
0.040270
0.117477
0.003364
0.012262
0.141537
0.110820
0.079261
0.074350
0.028965
0.040664
0.030373
-0.001774
0.098451
0.106662
-0.034316
0.100703
0.107283
0.120221
0.082906
0.056162
0.093291
0.044934
0.115393
0.140731
0.133839
0.048217
0.139200
0.106399
0.103908
0.025644
0.055567
0.006794
0.055550
0.055220
0.095721
0.126613
0.135678
0.064090
0.097861
0.109389
0.058572
0.104487
0.107109
0.098833
0.106562
0.043364
-0.026643
0.091294
0.164772
0.154757
0.081904
0.081103
0.125528
0.183737
0.144178
0.180015
0.136729
0.169275
