0.028578
0.014816
-0.072914
0.008434
-0.097636
-0.010340
0.060750
-0.007479
-0.079212
0.077563
0.095841
-0.033706
-0.022033
-0.024358
0.018204
-0.017384
0.031604
-0.032298
0.065905
-0.002044
-0.015231
0.097709
-0.035789
-0.004909
0.052790
0.016286
0.007626
0.034742
0.106817
0.105279
0.091598
0.122262
0.024780
0.036306
0.047171
0.110833
0.077559
0.154399
0.155633
0.163576
0.116923
0.212034
0.156054
0.146382
0.184490
0.227226
0.214252
0.285206
0.181140
0.204672
0.132131
0.102516
0.188084
0.211827
0.146821
0.150597
0.147136
0.131781
0.153836
0.081792
0.122601
0.133155
0.034010
0.056745
0.097689
0.083602
0.061792
0.021236
0.094645
0.095049
0.033830
0.123979
0.079463
0.091475
0.090213
0.049009
0.011606
0.034268
0.052637
0.049650
-0.009957
0.093020
0.014709
-0.076335
0.135754
0.055252
0.280917
0.520924
0.789018
1.046735
1.431069
1.453326
1.403813
1.089133
0.856344
0.437602
0.128317
0.003609
-0.184681
-0.272461
-0.238424
-0.089822
-0.040986
0.042746
0.099942
0.004762
0.079573
0.012957
0.083797
0.063340
0.055271
0.081124
0.023636
0.084210
0.084946
0.105606
0.065709
0.180714
0.167701
0.247583
0.040508
0.216270
0.258035
0.245112
0.218907
0.283350
0.273780
0.251423
0.291651
0.265516
0.298231
0.409863
0.327144
0.350816
0.435629
0.429280
0.505396
0.442041
0.459036
0.592116
0.593267
0.574415
0.548025
0.595238
0.520168
0.511282
0.581855
0.597372
0.644628
0.578243
0.626607
0.555751
0.505348
0.532737
0.555209
0.580326
0.601795
0.430900
0.480363
0.422885
0.538516
0.453536
0.337597
0.423328
0.341417
0.366407
0.301929
0.361616
0.268603
0.268640
0.289708
0.204455
0.154195
0.170612
0.150510
0.114812
0.185583
0.143555
0.259441
0.124337
0.133362
0.159120
0.186990
0.151040
0.209060
0.169919
0.158197
0.187103
0.034159
0.026564
0.114314
0.045983
0.053985
0.066602
0.010239
0.122164
0.084871
0.173153
0.138271
0.089913
0.099342
0.093545
0.079363
0.100082
0.104024
0.023822
0.161487
0.128890
0.107429
0.015278
0.079965
0.123214
0.044649
0.066229
0.109999
0.120358
0.010013
0.092716
0.097450
0.077347
0.095874
0.126727
0.089237
0.064287
0.060855
0.094502
0.040012
-0.007561
0.071624
0.067903
0.058416
0.108691
0.092175
0.092083
0.107502
0.029795
0.037195
0.041413
0.102869
0.108119
0.053464
0.118809
0.112815
0.108831
0.103160
0.091990
0.085335
0.034290
0.072425
0.079055
0.115756
0.050804
0.170459
0.118037
0.112459
0.226712
0.110975
0.161389
0.169573
0.188802
0.158672
0.184607
0.274545
0.106456
0.187935
0.190874
0.191033
0.210220
0.257564
0.292043
0.208368
0.197765
0.253376
0.264054
0.230523
0.222064
0.218354
0.191007
0.202131
0.293555
0.238882
0.161384
0.160751
0.142836
0.230741
0.116496
0.111041
0.094379
0.173311
0.156752
0.117692
0.203033
0.088992
0.002093
0.127280
0.067113
0.023388
0.037011
0.048143
0.012679
0.059104
0.047384
0.077576
0.042305
0.051500
0.080264
0.113426
0.038095
-0.011780
0.000584
0.091529
-0.016643
0.121207
0.131337
0.421170
0.668775
1.080192
1.384130
1.405295
1.436958
1.165016
0.886370
0.471895
0.235803
-0.063125
-0.230880
-0.231148
-0.179151
-0.199038
-0.045112
0.045575
0.058065
0.075270
0.054874
0.037404
-0.001137
0.037402
0.091523
0.020302
0.024463
0.083037
0.085659
-0.020060
0.132097
0.144828
0.196723
0.133227
0.132778
0.168152
0.110728
0.273194
0.200254
0.191984
0.267179
0.281180
0.235024
0.257452
0.214682
0.350531
0.306296
0.371500
0.392305
0.395320
0.393087
0.520474
0.458567
0.487982
0.431112
0.455224
0.501451
0.512338
0.603167
0.527134
0.597956
0.503160
0.564143
0.479563
0.568848
0.502128
0.510408
0.528552
0.444400
0.525240
0.406970
0.461089
0.461181
0.355805
0.357252
0.422331
0.327720
0.377559
0.289944
0.390354
0.246973
0.147835
0.246586
0.200558
0.263101
0.223185
0.189115
0.150790
0.172765
0.094566
0.178596
0.065297
0.077894
0.056713
0.061927
-0.025663
0.047518
0.034856
0.015232
0.003392
0.071370
-0.012173
0.031966
0.021372
0.013061
0.021793
0.122007
0.014143
0.007417
-0.094136
0.029168
-0.037605
0.012294
0.083002
0.017124
0.042035
-0.033578
0.013727
-0.037601
-0.078623
-0.001406
-0.033292
-0.056889
-0.040857
0.011173
-0.064828
0.061497
-0.036759
-0.011498
0.026216
0.036128
-0.029324
-0.027438
-0.062052
-0.004721
0.007088
0.023502
-0.019053
-0.017631
-0.083218
-0.026287
-0.099679
0.015944
-0.035390
-0.041554
-0.074871
0.006542
0.042468
-0.056619
-0.052006
-0.030065
0.027802
-0.068641
0.060467
-0.132816
0.018456
-0.014450
-0.042748
-0.017464
-0.012859
-0.006406
0.051792
0.024270
-0.005907
-0.016012
0.037153
-0.050388
-0.054774
0.004756
-0.090563
0.098846
-0.020132
0.008290
0.069794
-0.022037
0.092605
0.114172
-0.022489
0.145297
0.089920
0.196828
0.150182
0.153876
0.150241
0.064105
0.147414
0.169522
0.079570
0.056789
0.099145
0.163873
0.130787
0.090741
0.130823
0.061799
0.053206
0.113014
0.022605
0.096902
0.036350
0.103797
0.098494
-0.032304
0.084143
0.019887
-0.045563
0.004113
-0.008898
-0.044793
-0.008425
-0.037141
0.045557
-0.014674
-0.031939
-0.047321
-0.021781
-0.030367
0.005664
0.019397
-0.095555
-0.031572
-0.085218
-0.077396
-0.074060
-0.103676
-0.014806
-0.073371
0.095708
0.238440
0.487273
0.842826
1.100905
1.369358
1.379689
1.161937
0.908850
0.563181
0.228165
-0.149789
-0.285792
-0.337886
-0.295967
-0.289341
-0.224580
-0.136435
-0.087502
-0.055024
0.017184
-0.028797
-0.065631
0.004746
-0.049454
-0.049610
-0.012473
-0.030145
0.022515
0.017064
0.020926
-0.029844
0.045297
0.060997
-0.004073
0.045532
0.016341
0.106320
0.194106
0.064694
0.180592
0.229860
0.130172
0.136339
0.195748
0.209401
0.237992
0.285613
0.255920
0.276778
0.291234
0.386459
0.375052
0.415288
0.362749
0.401382
0.405060
0.461435
0.398048
0.438087
0.414449
0.450051
0.462662
0.472729
0.491033
0.528226
0.446648
0.419371
0.446845
0.410281
0.371216
0.336669
0.379343
0.360546
0.351072
0.266119
0.298712
0.332776
0.213637
0.221187
0.233826
0.189828
0.115349
0.127870
0.244830
0.139468
0.104841
0.082434
0.061367
0.020835
0.003159
0.032310
-0.000647
-0.035956
0.027804
0.019685
0.052817
-0.042409
0.011717
-0.048171
-0.008623
0.030332
0.021235
-0.022055
0.025147
-0.008643
-0.017387
-0.015439
0.058473
-0.016344
-0.061201
0.027006
-0.058502
-0.045416
-0.056798
-0.041935
-0.018224
-0.060467
-0.082155
-0.082048
-0.014452
-0.020240
-0.078109
-0.041624
-0.020162
-0.020289
-0.016194
0.009380
-0.028996
-0.007509
0.034507
-0.023971
-0.041432
-0.023058
-0.004769
0.003923
0.023081
-0.045456
-0.002571
-0.053089
0.006317
-0.020094
-0.129975
-0.006391
-0.087965
-0.013582
-0.044192
-0.075394
0.051791
-0.026478
0.013929
0.020100
0.011413
-0.020411
0.005240
-0.079831
-0.027664
-0.017385
-0.013748
0.069752
-0.078197
0.059333
0.048307
-0.000904
0.001715
-0.003810
0.012473
-0.035668
0.003958
0.024742
-0.035258
0.039839
0.111542
0.045207
0.130904
0.068857
0.065662
0.070544
0.086705
0.098986
0.091590
0.174574
0.105351
0.130473
0.248633
0.170771
0.181932
0.188886
0.153792
0.198767
0.247327
0.209100
0.173807
0.155565
0.167397
0.137174
0.129237
0.107344
0.119005
0.117277
0.059472
0.131645
0.106682
0.055612
0.045442
0.091087
0.078302
0.022618
0.026636
0.098557
0.013849
0.059489
0.021605
0.090441
0.005033
0.071200
-0.003697
0.009270
0.004757
-0.013099
0.066721
-0.026576
0.034895
-0.041577
-0.012675
-0.047140
-0.035724
0.117823
0.182723
0.480730
0.857601
1.201009
1.389709
1.433743
1.314253
1.041399
0.792523
0.262936
0.084123
-0.193844
-0.242460
-0.258100
-0.186729
-0.093491
-0.063868
0.082433
0.002749
0.046954
0.085886
0.096663
0.043258
0.047598
0.112355
0.031630
0.124191
0.128179
0.083202
0.110890
0.059454
0.146648
0.063580
0.106296
0.203508
0.259431
0.194146
0.239628
0.220245
0.188596
0.237303
0.235811
0.238559
0.310354
0.304298
0.283780
0.378806
0.428450
0.389407
0.406734
0.435265
0.538830
0.441907
0.492509
0.499749
0.483391
0.552444
0.629139
0.527353
0.660924
0.576838
0.570320
0.541587
0.595004
0.578771
0.579215
0.573137
0.617781
0.582565
0.490260
0.452960
0.547276
0.469629
0.437183
0.407331
0.433772
0.415764
0.363273
0.348377
0.345420
0.329889
0.326169
0.257075
0.235193
0.221742
0.277918
0.122307
0.261207
0.323128
0.195953
0.155598
0.132914
0.218589
0.132545
0.057541
0.144294
0.131974
0.129190
0.033456
0.092516
0.026349
0.114779
0.104370
0.057761
-0.004688
0.023949
0.172890
0.047778
0.182708
0.066206
0.103739
0.057278
0.189156
0.118905
0.152711
0.078953
0.034124
0.103445
0.109901
0.050168
0.102221
0.064422
0.108990
0.070501
0.158491
0.079019
0.048382
0.102088
0.130255
0.045722
0.003603
0.008346
0.122235
0.145375
0.145906
0.142439
-0.019494
0.117498
0.026437
-0.000525
0.069921
0.036114
0.088858
0.037196
0.109302
0.178029
0.167311
0.119288
0.061343
0.081011
0.033577
0.086785
0.055945
0.044123
0.118177
0.118747
0.085421
0.092346
0.103201
0.080894
0.116997
0.085429
0.154675
0.087222
0.160241
0.127385
0.130385
0.175942
0.144551
0.160526
0.126948
0.103292
0.161905
0.137365
0.115396
0.255303
0.180925
0.190417
0.240621
0.184241
0.224037
0.195326
0.238083
0.250329
0.258991
0.277873
0.195048
0.319426
0.225048
0.207669
0.287152
0.270120
0.274330
0.228540
0.193430
0.206731
0.239380
0.268679
0.131148
0.195502
0.192958
0.170902
0.125323
0.151919
0.167273
0.127197
0.078384
0.110134
0.107659
0.101258
0.123845
0.138009
0.163135
0.117294
0.144897
0.069003
0.074949
0.111848
0.083909
0.072875
0.064566
0.143521
0.120095
0.070197
0.084181
0.011523
0.114340
0.297349
0.484060
0.818628
1.065459
1.365963
1.500000
1.454390
1.215268
0.817662
0.449163
0.202406
-0.141082
-0.135204
-0.151474
-0.081436
-0.023282
0.074991
0.069365
0.051187
0.021647
0.125671
0.057517
0.066283
0.102132
0.128764
0.065668
0.122720
0.029322
0.118417
0.044244
0.126273
0.101804
0.203482
0.166928
0.183723
0.187984
0.211607
0.191506
0.268024
0.261145
0.216289
0.253889
0.302303
0.264875
0.309815
0.303784
0.408941
0.425903
0.340259
0.404640
0.486645
0.518535
0.478983
0.470672
0.498054
0.529793
0.472449
0.541248
0.607729
0.598454
0.575864
0.620856
0.588833
0.631188
0.592432
0.540661
0.538990
0.512193
0.443537
0.535062
0.509830
0.457887
0.493755
0.454890
0.399228
0.398472
0.456815
0.393563
0.346893
0.301981
0.233846
0.287815
0.293200
0.247821
0.176958
0.221384
0.085592
0.215852
0.147707
0.119973
0.098306
0.047601
0.057905
0.082548
0.126409
0.104797
0.093465
0.029920
0.081221
-0.052687
0.008076
0.061073
0.098264
0.068879
0.060963
0.047357
0.088182
-0.008285
0.068834
0.060860
-0.002681
0.094508
0.009524
-0.054320
-0.030094
0.056546
0.002942
0.040502
-0.058151
0.120446
-0.044517
-0.037000
0.044041
-0.013036
0.079172
0.006746
0.019289
0.017277
-0.038335
-0.036818
-0.049278
0.015829
0.034254
0.056413
0.001095
-0.006185
0.020938
0.040609
0.031930
0.026097
-0.001123
0.058328
0.105277
0.012766
0.019792
0.040263
0.154369
-0.052066
0.020014
-0.093790
-0.072893
0.004281
0.012591
-0.034639
-0.051283
0.034328
0.055103
0.037947
0.009841
0.042289
-0.012501
-0.009721
-0.023434
-0.080707
0.001556
0.017151
0.032676
-0.006828
0.003016
0.027867
0.073461
0.024914
0.002197
-0.048589
0.040436
0.126880
0.077909
0.123096
0.094534
0.140288
0.136843
0.132561
0.189792
0.118072
0.166059
0.233950
0.170982
0.092245
0.239237
0.150475
0.161776
0.161640
0.048370
0.117523
0.066939
0.087949
0.015789
0.082570
0.045633
0.034651
-0.006781
0.041277
0.099507
-0.098729
0.018051
0.023268
-0.015392
0.017731
0.011175
-0.038840
-0.021083
-0.036467
-0.010213
-0.029210
-0.011192
-0.019197
-0.130390
-0.033581
-0.045130
-0.073281
0.012185
-0.089053
-0.095785
-0.032066
-0.084693
-0.062598
-0.059043
-0.006798
0.339027
0.470662
0.861759
1.169537
1.289091
1.274173
1.165460
0.837877
0.468928
0.106379
-0.115135
-0.283391
-0.309689
-0.264778
-0.253479
-0.127624
-0.061326
-0.096222
-0.084572
-0.068059
-0.022200
-0.079523
-0.005670
-0.141517
-0.061091
-0.010102
-0.052323
0.064621
-0.058123
-0.011070
-0.101285
0.036563
-0.000782
0.033174
0.015325
0.037125
0.005332
0.052369
0.202911
0.127211
0.072640
0.109014
0.099188
0.206986
0.158230
0.203241
0.212936
0.324919
0.313156
0.322171
0.280866
0.349586
0.363840
0.433557
0.298414
0.351629
0.438470
0.301164
0.430286
0.407476
0.354165
0.435065
0.387338
0.488157
0.455829
0.373987
0.462654
0.399594
0.355850
0.418109
0.306820
0.309173
0.336898
0.329298
0.310216
0.225552
0.279588
0.173382
0.205448
0.193798
0.213116
0.130982
0.157943
0.105019
0.029015
0.062007
-0.051184
0.029867
0.008361
0.063331
0.045423
-0.020045
-0.030767
-0.149561
-0.091810
-0.116107
-0.038650
-0.039011
-0.010812
-0.029388
-0.017148
-0.064042
-0.093592
0.025504
-0.030210
-0.067952
-0.041852
0.019832
-0.007644
-0.095849
-0.085367
-0.121749
-0.070356
-0.016395
-0.023212
-0.183871
-0.075487
-0.038249
-0.005416
-0.086938
-0.061303
-0.043355
-0.111094
-0.196136
-0.007394
-0.065957
-0.082274
-0.004628
-0.050578
-0.143772
-0.100381
-0.037920
-0.075974
-0.035806
-0.143310
-0.110106
-0.131780
-0.118411
-0.047229
-0.038401
-0.147522
-0.070576
-0.024377
-0.044879
-0.038873
-0.177995
0.025536
-0.095033
-0.084127
-0.002949
-0.112743
-0.072614
-0.054731
-0.061920
-0.053176
-0.065823
-0.117857
-0.063930
0.002700
-0.059194
0.061279
-0.033147
-0.140429
-0.119939
-0.052031
-0.012071
-0.073502
-0.033371
-0.010181
-0.068278
-0.039358
-0.042746
-0.013309
0.032782
-0.007701
-0.026962
0.029197
0.040692
0.022858
0.050059
0.082637
0.095233
0.084494
0.024343
0.059547
0.093421
0.094240
0.104839
0.076782
0.198095
0.037113
0.020730
0.114432
0.050888
0.125739
0.134261
0.102674
0.009009
0.018163
-0.006085
0.002889
-0.003891
-0.033291
-0.052836
-0.043708
-0.012408
0.034622
-0.021960
-0.043294
-0.064939
-0.106294
-0.036361
-0.072857
0.050813
-0.036245
-0.065820
-0.066334
-0.010915
-0.060502
-0.009954
-0.077600
-0.031668
-0.019778
-0.114078
-0.049163
-0.021898
-0.008511
0.220898
0.459341
0.810903
1.130683
1.323122
1.378204
1.151940
0.895625
0.513415
0.293764
-0.092594
-0.328087
-0.317047
-0.296648
-0.323078
-0.154468
-0.096607
-0.092933
-0.014436
-0.025444
0.012820
-0.060606
-0.020669
-0.051403
-0.087110
-0.058889
0.009200
-0.001395
-0.086630
0.032306
0.011336
0.066431
0.120333
-0.006394
0.019584
0.127636
0.125003
0.085141
0.023293
0.113957
0.103094
0.088076
0.217053
0.229486
0.197512
0.312865
0.259729
0.184748
0.258007
0.347087
0.421553
0.418272
0.372097
0.396170
0.334951
0.425009
0.467814
0.460209
0.484477
0.521495
0.544612
0.543836
0.504016
0.464505
0.406597
0.463372
0.550476
0.486638
0.481922
0.391651
0.407073
0.442740
0.391477
0.419220
0.309364
0.316565
0.315561
0.183601
0.197538
0.243503
0.232239
0.149070
0.154378
0.254576
0.140859
0.135784
0.131211
0.055402
0.080657
0.084650
0.163057
0.113762
0.089282
0.068798
0.076625
0.009614
-0.053378
0.009088
-0.008558
0.010938
0.101513
0.051634
0.007345
0.110266
0.037286
0.005727
-0.018789
0.033334
-0.002415
-0.048591
-0.017764
0.032436
0.017286
-0.028087
0.024108
-0.016417
0.062004
0.065469
-0.044459
0.046974
-0.041822
-0.008195
-0.012929
0.028877
-0.025750
-0.031317
0.013510
0.036036
0.021687
-0.077475
0.131786
-0.004938
0.004178
0.011936
-0.045601
0.016418
-0.000682
-0.012952
0.010283
0.033687
0.011510
0.036184
0.029888
0.016072
-0.004379
-0.026456
0.005203
-0.057078
0.051900
-0.004813
0.073866
0.040936
-0.036312
0.057547
0.081142
0.052016
-0.002924
0.104327
-0.041932
0.042448
0.063406
0.081443
0.044503
-0.011949
0.049264
-0.009636
-0.004193
0.072661
0.015253
0.084928
0.136156
0.151185
0.044031
0.132636
0.103951
0.060438
0.109102
0.164073
0.140837
0.195994
0.155197
0.218225
0.100755
0.243594
0.238515
0.207190
0.171072
0.195491
0.187970
0.220953
0.192822
0.234735
0.200061
0.136911
0.156588
0.159910
0.132940
0.181654
0.084016
0.156191
0.098441
0.051778
0.163405
0.085699
0.098041
0.075237
0.007420
0.042752
0.125217
0.071117
-0.012215
0.061918
0.062877
0.112675
0.028429
0.044971
0.004020
-0.013766
0.076072
0.081861
0.044460
0.026777
0.028317
-0.099534
0.053101
-0.003154
0.060810
0.214983
0.452219
0.764811
1.143759
1.304131
1.417826
1.354076
1.061158
0.667078
0.411901
0.181026
-0.162722
-0.229918
-0.336832
-0.228552
-0.094910
-0.096497
-0.023759
0.093449
0.085124
0.047627
0.100720
0.073569
0.083452
0.106371
0.044802
0.037061
0.128126
0.129335
0.018981
0.085707
0.102380
0.104287
0.135605
0.124671
0.237358
0.164089
0.257481
0.184204
0.199396
0.243127
0.188778
0.238959
0.286487
0.296991
0.337791
0.380587
0.401940
0.452727
0.396034
0.472925
0.462091
0.420485
0.412959
0.587258
0.456180
0.560823
0.560896
0.593942
0.546345
0.575978
0.528340
0.526890
0.482436
0.569951
0.556713
0.501231
0.469320
0.451474
0.442815
0.407331
0.462877
0.479173
0.502468
0.502485
0.414476
0.296774
0.333866
0.333386
0.355491
0.257146
0.258865
0.163452
0.255479
0.250470
0.284186
0.219775
0.228473
0.171354
0.127320
0.087902
0.176424
0.036730
0.055213
0.079785
0.076685
0.054859
0.133334
0.007165
0.065297
-0.040573
-0.026893
-0.024477
0.017193
-0.001000
-0.023967
0.124593
0.047214
-0.016800
0.029782
0.094755
-0.026692
0.024300
-0.034278
0.106808
0.024261
0.005459
0.040412
0.030666
0.006361
0.071884
0.063523
-0.085115
0.085174
0.035475
0.079073
0.021013
-0.018526
0.044120
0.012851
-0.005675
0.019092
0.014282
0.024059
-0.026888
-0.058662
0.023412
0.100296
0.072854
0.043006
-0.030398
0.078717
-0.071305
-0.003401
-0.032747
0.011607
0.103031
0.023672
-0.020360
0.018815
-0.000942
0.015696
0.014391
-0.033289
0.050408
0.017618
-0.015111
0.110392
0.097722
0.123678
0.022637
0.041895
-0.015078
0.056338
0.023932
-0.005293
0.053853
0.079095
0.083825
-0.000004
0.036851
0.024606
0.064299
0.057619
0.065820
0.091010
0.109142
0.067566
0.056351
0.076247
0.220559
0.049877
0.103376
0.167969
0.116186
0.178427
0.154943
0.226779
0.195088
0.142003
0.176124
0.146003
0.113297
0.156027
0.077956
0.058047
0.058918
0.153163
0.093983
0.010508
0.076099
0.034802
0.089634
0.058642
-0.018661
-0.002413
0.023841
-0.017609
-0.002362
0.025357
-0.000945
-0.006550
-0.053049
-0.080490
-0.039822
0.002434
-0.045409
-0.020096
-0.048447
0.025800
-0.066736
-0.045326
-0.039981
-0.015786
-0.158046
-0.038467
-0.016914
0.172663
0.272687
0.734967
0.993702
1.233890
1.378145
1.356431
1.089702
0.787761
0.334688
0.065734
-0.223530
-0.341944
-0.285162
-0.285568
-0.251618
-0.121653
-0.112967
-0.064695
-0.058715
-0.047913
-0.053860
-0.008712
-0.028365
-0.003325
0.071087
-0.030499
0.011181
-0.020158
-0.068339
0.012181
0.067720
-0.005382
-0.002316
0.025607
0.003353
0.039464
0.106678
0.100435
0.082297
0.101820
0.063815
0.128297
0.141420
0.184707
0.191711
0.255182
0.249912
0.250858
0.240232
0.315763
0.286495
0.333307
0.315691
0.317763
0.441855
0.409635
0.382783
0.476745
0.328766
0.465750
0.398459
0.535524
0.389162
0.341033
0.338366
0.362384
0.386675
0.454032
0.368875
0.330960
0.345299
0.307153
0.325953
0.256319
0.258301
0.267438
0.168045
0.240752
0.165106
0.196444
0.155092
0.088011
0.127989
0.099706
0.129594
0.089048
0.074575
0.070989
-0.022326
0.027493
-0.005172
0.052930
-0.056126
-0.025113
-0.035506
0.003300
-0.066782
-0.029237
-0.031348
-0.102944
-0.041144
-0.043619
-0.070235
-0.082393
-0.093704
-0.095763
-0.088097
-0.105898
-0.121620
-0.008238
-0.042998
-0.082752
-0.198420
-0.084938
-0.129791
-0.001475
-0.026688
-0.176704
-0.073634
-0.077395
-0.089093
-0.052044
-0.091498
-0.107155
-0.076219
-0.072329
-0.129086
-0.138975
-0.109402
-0.074130
-0.127754
-0.122457
-0.125563
-0.092046
-0.074217
-0.072614
-0.097515
-0.084630
-0.055483
-0.116383
-0.116906
-0.118587
-0.064772
-0.145782
-0.012460
-0.127564
-0.092995
-0.140880
-0.078453
-0.076736
-0.142919
-0.103830
-0.131721
-0.106893
-0.049715
-0.139228
-0.088793
-0.046499
-0.095532
-0.107510
-0.095901
-0.080313
-0.090363
-0.117710
-0.076893
-0.038823
-0.051468
-0.052225
-0.075412
-0.081954
-0.103399
-0.005181
0.031299
-0.041447
0.004735
-0.006008
-0.054514
0.025493
0.037336
0.034710
0.029634
0.044406
0.023857
0.086395
0.062288
0.045058
0.091630
-0.018839
0.142696
0.105057
0.083133
0.113784
0.017650
0.107673
-0.020070
0.097596
-0.015994
0.007258
0.018469
-0.017303
-0.052006
-0.049356
-0.075345
0.037798
-0.019376
-0.078466
-0.063149
-0.105453
-0.058241
-0.065696
-0.066108
-0.192019
-0.097227
-0.064384
-0.115502
-0.050312
-0.083705
-0.033316
-0.095252
-0.085098
-0.088250
-0.109548
-0.115747
-0.102072
-0.120619
-0.131355
-0.030310
0.132683
0.446953
0.791361
1.135902
1.280231
1.304804
1.136397
0.845887
0.369478
0.053164
-0.136061
-0.321248
-0.301486
-0.317619
-0.292806
-0.123793
-0.084650
-0.105680
-0.117258
-0.024919
-0.142192
-0.096956
-0.121555
-0.103379
-0.060092
-0.119971
-0.102355
-0.058368
-0.094480
-0.137615
-0.036467
-0.078303
-0.006476
-0.032003
0.062764
-0.052144
0.005935
0.078782
0.152110
0.195804
0.133766
0.180848
0.176496
0.177255
0.159316
0.227986
0.229148
0.202412
0.261432
0.252181
0.293185
0.400635
0.269033
0.378998
0.329763
0.394881
0.395282
0.367365
0.527091
0.442756
0.561526
0.339176
0.349788
0.429909
0.442265
0.402216
0.418730
0.377937
0.434289
0.371785
0.364725
0.279950
0.261013
0.318124
0.284268
0.306183
0.173418
0.262633
0.256232
0.176354
0.129285
0.151999
0.131989
0.147093
0.134791
0.029148
0.094873
0.092989
0.100856
0.013684
0.113997
0.106868
0.081726
-0.021464
-0.026374
0.000249
-0.058098
-0.030700
0.009885
-0.067227
-0.036331
0.024752
-0.065763
-0.031052
-0.042505
0.016641
0.015534
0.003839
-0.004676
0.039798
-0.048099
-0.053313
-0.008322
0.088043
-0.022299
-0.032083
0.045655
-0.113797
0.017840
-0.109968
-0.042049
-0.063130
0.034108
-0.097325
-0.100063
-0.022350
-0.019282
-0.037615
-0.073111
-0.047205
-0.058558
-0.086466
0.017369
-0.044675
0.001871
-0.066348
0.033794
-0.054615
-0.078974
-0.098776
0.004801
-0.063991
-0.024937
0.088881
0.039314
0.090384
-0.016394
0.052905
-0.024963
-0.018693
-0.008296
0.013599
0.007828
-0.099974
-0.018965
-0.081642
0.009950
0.033567
-0.039972
-0.004404
0.007443
-0.060767
-0.005292
-0.039154
-0.107595
0.062831
-0.036807
0.028943
0.111279
0.015641
0.071604
-0.030579
0.028948
0.045923
0.013619
0.071461
0.131700
0.083975
0.163467
0.234254
0.219822
0.225082
0.178037
0.121824
0.168065
0.215327
0.211614
0.157841
0.116778
0.154715
0.133481
0.116042
0.126967
0.151819
0.161355
0.100339
0.204033
0.082693
0.169061
0.125797
0.164847
0.077005
0.120374
0.110249
0.089729
0.027555
0.091152
0.056782
0.065971
0.052106
-0.038114
0.110388
-0.034423
0.048540
-0.004689
0.033648
0.052481
0.054142
0.019895
0.054534
-0.014044
0.041194
0.007507
-0.000431
0.029664
0.011727
0.087024
0.293402
0.512923
0.777209
1.169108
1.332909
1.414428
1.329612
1.062503
0.699135
0.382637
0.020324
-0.139214
-0.223252
-0.215321
-0.174469
-0.030608
-0.024598
-0.048435
0.032803
0.058434
-0.011985
0.036993
0.161923
0.058607
0.129326
0.036552
0.125738
0.107198
0.079580
0.090848
0.091769
0.172561
0.068721
0.153535
0.166975
0.179457
0.246193
0.133219
0.185546
0.272032
0.184898
0.295018
0.267732
0.279175
0.263369
0.318256
0.320936
0.415925
0.405087
0.439018
0.444918
0.462673
0.524350
0.528103
0.493450
0.495833
0.525114
0.484166
0.526526
0.526298
0.591701
0.499397
0.670465
0.611900
0.515418
0.499346
0.520529
0.495354
0.545618
0.535853
0.518765
0.478872
0.480898
0.428277
0.475794
0.406622
0.425114
0.320697
0.344556
0.259611
0.261369
0.295632
0.340762
0.205634
0.330019
0.192429
0.203112
0.248483
0.128071
0.147802
0.183280
0.203960
0.152568
0.175909
0.070448
0.049071
0.116648
0.164083
0.061457
0.098048
0.048752
0.012750
0.103210
0.073895
0.075336
0.043849
0.002084
0.005570
0.016879
0.089818
0.103486
0.060171
0.062173
0.007408
0.050010
0.030785
0.056762
0.160606
0.108704
0.114966
0.039505
0.041033
0.093196
-0.026640
0.099737
0.079984
0.034534
0.061768
0.061508
0.059944
0.103985
0.046640
0.056074
0.018406
0.063200
0.127520
0.073639
0.146669
0.098461
0.077303
0.080202
