0.667522
0.877289
0.560140
-0.080065
-0.043887
0.417626
0.125409
0.293592
-0.234416
0.242951
0.211836
0.412042
-0.514822
-0.191289
-0.034857
0.653682
0.330394
0.195588
-0.092661
0.142920
-0.389333
0.099483
-0.154211
0.142430
0.582507
0.594434
0.051791
0.036783
0.511092
0.065496
-0.232280
-0.099935
-0.010186
-0.395386
0.110754
0.276042
0.176724
-0.100905
0.564823
-0.073371
-0.331178
-0.183201
0.216758
0.465850
0.563785
-0.400786
0.492387
-0.560168
-0.267791
-0.302930
-0.161897
0.211787
-0.044040
0.379157
0.054202
0.776807
-0.068842
-0.109826
0.216638
-0.358031
-1.110833
0.214313
0.498707
0.331615
-0.283898
-0.729215
-0.250130
-0.267663
0.295792
-0.013676
-0.002989
0.343787
-0.412180
-0.012258
0.050697
0.145684
0.344564
0.944720
-0.198703
0.851209
0.700816
0.135839
0.661284
0.529932
-0.205092
-0.190970
-0.382767
-0.301742
-0.543722
-0.260681
0.551556
-0.049622
0.244846
-0.732138
-0.769726
0.260473
0.543219
-0.264351
0.291691
0.057572
0.755388
0.378309
0.318189
0.272085
0.222962
-0.285876
0.292048
0.376768
0.384879
0.540229
-0.171084
0.891607
1.157166
-0.191083
-0.395019
0.506087
0.101405
0.449496
-0.139982
-0.091333
0.718629
0.040547
0.161965
0.659071
0.259898
-0.180398
-0.138870
0.739955
1.265329
-0.011036
0.644271
0.494849
0.313384
1.065751
-0.111735
-0.177045
0.425475
0.038547
-0.306621
0.433269
0.311030
0.381709
0.765774
-0.065062
0.540703
0.417620
0.245896
0.297146
-0.278167
0.559202
-0.216432
0.419107
0.124936
0.366396
0.409624
0.072757
0.381624
0.506852
0.448570
-0.318592
0.186823
-0.645426
-0.193445
-0.647131
-0.408063
-0.133487
0.103513
-0.172987
-0.661814
0.442806
0.337946
-0.380190
-0.015188
-0.560151
0.978134
0.076989
0.311732
-0.501246
-0.153558
0.570788
-0.208979
-0.275723
0.053946
0.800288
0.474729
-0.147620
0.217886
-0.681366
-0.228083
0.419722
0.200719
0.045280
-0.120546
0.252544
0.170949
-0.220107
0.732950
0.481675
-0.424527
0.119140
0.053815
-0.274988
-0.308703
-0.177560
0.355496
0.547267
-0.676190
0.435622
-0.642483
0.453533
0.245633
0.555031
0.042317
-0.089313
-0.067090
0.269846
-0.076710
0.406930
-0.148904
0.164810
-0.006169
-0.369832
-0.553099
-0.513236
0.061611
0.112046
0.479289
0.042469
0.274324
-0.070088
-0.390979
0.012914
0.554607
0.007059
-0.119210
0.019688
0.469026
0.130890
-0.119681
0.847579
0.183836
0.201657
0.019956
0.421493
0.433199
-0.061559
0.620334
0.153747
0.130372
0.267951
-0.311437
0.222835
0.092662
0.496693
0.391126
0.649704
-0.108724
0.152105
0.197831
-0.396908
0.019296
-0.703240
0.034959
0.208520
0.566588
0.212805
0.069471
0.515388
-0.401790
0.215388
0.703964
0.625675
0.035451
0.134357
0.162458
-0.265939
0.128872
0.235501
0.577309
0.775994
0.695531
1.236511
1.036234
-0.070663
-0.428845
0.141153
0.425819
-0.031830
-0.278751
-0.730930
-0.427323
0.469696
-0.135434
-0.430941
-0.109331
-0.288007
0.583162
0.364399
0.588868
0.021457
0.209925
0.233335
-0.270983
-0.118407
-0.285324
-0.238243
0.119240
0.462312
-0.350683
-0.176223
0.160605
0.169689
0.745219
0.291064
0.532197
0.206579
0.706100
0.306416
0.233508
0.475980
-0.362029
0.721253
0.163531
0.023596
0.312887
0.507532
0.266834
0.186387
0.055933
-0.433222
0.331175
0.445376
0.789373
0.134034
0.312123
-0.574405
-0.193387
0.016964
0.742790
0.066191
-0.007639
0.223774
0.088861
0.093546
0.070702
0.197351
0.129715
-0.309679
0.860104
-0.207775
0.465344
-0.377626
-0.081153
0.299097
0.027793
-0.114500
0.113219
0.259581
0.669441
0.188113
0.158425
-0.387194
-0.038605
0.491991
0.392417
-0.423695
-0.107975
-0.268307
0.041922
-0.611397
0.596919
-0.149391
-0.024799
0.076421
-0.567997
-0.335174
0.486667
-0.219384
0.070335
0.334364
-0.659740
0.016365
-0.114536
0.516517
0.502644
0.150292
0.659437
-0.069629
0.499780
-0.531781
-0.223904
0.724617
-0.159793
0.406373
0.291078
0.084520
-0.282081
-0.275356
-0.377628
-0.328779
0.103769
0.614532
0.102623
-0.063426
-0.203871
0.007085
-0.446667
0.465965
-0.062056
-0.851238
-0.549451
-0.161091
-0.335071
0.254162
0.539991
-0.062340
0.746918
0.176536
0.608025
0.343595
-0.208843
0.347266
0.022982
-0.679723
-0.411672
-0.145729
0.656187
-0.445671
0.332323
0.052106
0.215290
0.674312
-0.078098
-0.376918
0.197518
-0.261681
-0.163936
0.652734
-0.247842
0.171989
0.169384
-0.174015
0.264695
-0.077446
-0.574668
-0.162458
0.508223
-0.426096
0.036989
0.487364
-0.014050
-0.145753
0.221555
0.035471
0.098818
-0.606899
0.037034
-0.144723
0.137256
0.334448
-0.546973
-0.220958
-0.891486
0.011126
-0.147302
-0.388767
-0.482756
-0.041552
0.404232
-0.048275
-0.464447
0.047129
0.638446
0.094520
0.013102
0.143910
0.222649
0.350038
0.545264
0.597647
1.157144
1.243243
0.684602
0.679775
0.188194
0.514094
0.118331
0.050596
-0.557128
0.407564
0.279399
0.014909
0.262044
-0.073177
-0.034032
0.127655
0.541689
0.069213
0.135362
-0.256686
0.234673
0.007579
-0.752303
-0.110485
-0.080439
-0.686498
0.173936
-0.165940
0.668506
0.262476
0.233517
0.049666
0.445237
0.548368
0.130780
-0.395416
0.696537
0.232602
0.526225
-0.962768
-0.035934
0.612954
0.079304
0.075311
0.255330
0.391422
-0.136674
1.059286
0.127571
0.818394
0.242121
0.027749
0.206132
-0.113468
0.738664
0.325000
-0.414016
-0.190529
0.078822
0.461260
0.530840
0.026239
0.705973
0.417474
0.098611
-0.485490
-0.130396
0.323429
-0.200075
0.425855
-0.533401
-0.337423
0.351547
0.253947
0.553938
-0.553347
-0.405086
-0.529204
0.429808
-0.066898
0.831835
0.243737
0.316533
0.235345
0.672327
0.356209
0.099782
-0.023992
0.709308
0.441181
0.611550
-0.582775
0.869865
0.545161
-0.130599
0.254154
-0.328672
0.138608
-0.116678
0.088375
-0.026636
-0.276132
0.273009
-0.874568
-0.461574
-0.153011
0.317552
0.329488
0.280109
0.460817
0.547550
0.405216
-0.104701
-0.026281
0.019115
-0.551573
-0.287340
0.043340
0.172773
0.056530
-0.304812
-0.611606
0.330588
0.195992
-0.179441
-0.191648
0.028928
0.462604
0.471838
-0.315110
-0.430036
-0.852355
-0.243110
0.604491
-0.633654
-0.222725
0.770561
-0.367459
-0.128244
-0.512573
-0.262511
0.084107
0.216839
-0.157954
0.531564
-0.152835
-0.163224
0.726126
0.031674
0.194068
0.047089
0.216549
0.208966
0.049892
0.510959
0.223705
0.064010
-0.047885
-0.167695
-0.543319
0.481151
0.444522
0.362084
-0.333799
-0.104609
-0.619439
-0.371911
0.075116
0.954277
0.319925
-0.377091
-0.673364
-0.435737
-0.258686
0.412030
-0.252413
0.352441
-0.761777
-0.271437
-0.059979
-0.778608
0.546566
-0.579856
0.416104
-0.230874
-0.155893
0.016607
-0.440036
-0.229855
-0.113709
-0.184160
-0.100338
-0.046410
-0.435096
0.364705
-0.313264
1.234912
0.700198
0.278226
0.686586
1.254496
0.895493
0.576026
0.422072
-0.578236
0.262495
-0.078194
-0.500167
0.434082
0.230877
0.271126
0.123243
-0.197921
-0.146898
-0.035716
-0.832602
-0.126604
0.271124
0.835570
-0.723937
0.152123
-0.227570
-0.379376
-0.297295
0.684123
0.287885
-0.237317
-0.170629
0.430634
0.198852
0.720387
-0.475062
-0.356990
0.365051
0.488433
0.552221
0.401027
-0.043132
-0.103338
0.733819
0.455810
-0.107450
0.277589
0.719427
0.010957
0.725559
0.048397
-0.270047
-0.165456
-0.131319
0.697114
0.428148
-0.218674
0.779865
0.281911
0.355696
-0.244519
0.243348
0.099497
0.236745
0.095482
0.555965
-0.025029
0.719057
0.550791
0.215431
1.208296
-0.074536
0.196714
0.093758
0.205302
0.734118
0.007918
0.334721
0.057353
0.354409
-0.197519
0.399913
0.790580
-0.238894
0.092567
0.911549
0.339617
-0.129338
0.546209
0.572858
-0.541548
0.428550
0.430504
-0.522785
-0.385840
0.216938
-0.190589
0.549306
0.326390
0.005900
-0.262094
0.316844
-0.240010
0.229616
0.603252
-0.316384
0.120177
0.556327
0.169478
0.322836
-0.391171
-0.085818
-0.364613
-0.552752
0.429137
0.294707
0.542162
-0.548446
0.307322
0.486060
0.483244
0.146372
-0.500485
0.483101
0.064973
-0.051865
0.208824
0.168323
-0.142484
0.296909
-0.098748
-0.337998
0.192628
-0.326402
1.114559
-0.226328
0.314418
0.676577
0.467250
0.020641
-0.059277
-0.726756
-0.012645
0.341374
-0.023308
0.289747
0.121607
-0.563313
0.354137
0.494565
0.525652
0.169752
-0.069012
0.820471
0.768540
0.084550
-0.334328
0.548375
-0.257765
-0.090733
0.266480
-0.495317
0.207761
0.266245
0.213213
0.081080
1.062531
0.489952
0.056573
-0.113191
-0.254147
0.096234
0.708687
0.140127
0.103970
0.588758
-0.309467
0.450791
0.072406
0.293780
-0.009518
-0.610876
0.230584
-0.085259
0.078612
0.122733
0.162345
0.387634
0.530531
0.152975
0.186262
-0.240285
0.238116
-0.695185
-0.580238
1.048777
-0.137676
0.057537
0.445215
1.367238
0.401282
0.758802
0.637278
0.354430
1.114763
0.877229
0.223232
-0.754469
0.567518
0.418427
-0.065944
-0.547945
0.327252
-0.314822
0.416084
0.064616
-0.095236
-0.326225
0.005124
0.259231
0.064969
-0.136421
-0.087337
0.782179
0.515396
-0.238570
0.699721
-0.153836
0.115335
-0.233389
0.304836
-0.615662
0.105960
-0.588990
0.220143
0.144790
0.036379
0.377068
0.305362
0.502012
0.029683
0.812477
0.044277
0.738068
0.512079
0.401860
0.897727
0.539474
0.695603
0.775771
-0.105443
0.762834
0.679047
0.755626
0.233658
0.512453
0.260571
-0.235750
0.844070
0.002465
-0.271657
0.532932
0.007902
0.152219
0.480426
0.062446
-0.053983
-0.474115
0.020562
-0.577209
0.136688
0.486435
0.208991
0.387801
0.200791
-0.186330
0.476752
0.043504
-0.243551
0.009671
-0.346373
-0.317457
0.709462
0.405669
0.868153
-0.457416
-0.035003
-0.146776
-0.289709
-0.849289
-0.930099
0.113027
-0.447981
0.605351
-0.100791
-0.575761
-0.470023
0.027457
0.409655
-0.390395
0.058433
0.706735
0.221861
0.099425
0.522507
0.045055
-0.240162
-0.099073
-0.117144
-0.174622
-0.171920
0.443652
0.497880
-0.313451
0.422752
-0.379823
0.789434
0.960472
-0.174361
0.369712
-0.029425
-0.758964
0.597420
0.246432
0.420346
0.307855
-0.479503
-0.617263
0.338897
-0.402386
-0.245405
-0.288016
0.575039
0.662178
-0.530256
0.017479
0.738039
-0.407595
-0.305530
0.450757
-0.444020
0.431845
0.209993
0.244023
0.198740
-0.048201
-0.322719
0.108073
0.803397
0.532827
0.072480
0.272408
-0.208928
-0.706616
0.524207
-0.544761
0.581999
-0.259184
0.104990
0.641408
0.068497
0.479341
-0.076195
0.604593
0.385318
-0.011297
0.617875
-0.408701
-0.067422
-0.415202
0.571529
-0.488605
0.124094
0.425636
-0.143321
0.345321
-0.247684
-0.388842
0.248767
0.535460
0.086836
0.155450
-0.272759
-0.093985
0.203559
-0.437075
-1.061397
-0.217219
0.113370
-0.611844
0.283764
-0.000087
0.459298
0.002805
0.137977
0.024838
0.245159
-0.251389
0.184827
0.186668
0.542674
0.557493
0.277409
0.807354
1.076215
0.732686
0.812068
0.485486
-0.002667
0.513113
-0.385231
-0.401375
-0.673238
0.895572
0.101803
-0.361997
0.915341
-0.031722
0.097339
0.042778
-0.326243
-0.009531
-0.061009
-0.262662
-0.552956
0.247286
-0.684185
0.221304
-0.402589
-0.001429
-0.151172
-0.562356
-0.678599
0.092932
0.154223
-0.215617
0.351950
0.418714
0.099308
-0.385274
-0.046620
0.552015
0.583558
0.538433
-0.065828
-0.376272
-0.112503
-0.075840
0.306668
-0.136044
0.612775
-0.050049
-0.113117
0.189868
0.565243
0.152992
0.285775
0.837908
0.741121
0.305638
-0.004820
0.250659
-0.248281
-0.217494
-0.265475
0.337087
0.310551
0.433624
0.361102
0.789522
0.492241
-0.096227
0.309627
0.341309
0.605631
-0.022906
0.137654
0.160039
0.172789
-0.651705
0.036499
-0.004132
-0.083834
0.016966
0.071517
0.094083
-0.506508
-0.170906
-0.115001
0.255839
-0.327226
0.037857
0.162469
0.098470
0.624596
0.308815
-0.017419
-0.533921
-0.140579
-0.487303
0.455714
0.500313
0.079816
0.447952
0.253759
0.103464
0.272313
-0.066444
-0.124863
-0.482511
-0.122574
0.100129
-0.570807
-0.659098
-0.318543
0.355803
-0.209828
0.322992
0.719893
0.897328
-0.580505
0.067208
0.532436
0.366969
-0.031473
0.087444
-0.110168
0.413769
-0.341983
0.093462
-0.214044
-0.257596
-0.846709
-0.145262
0.953110
0.062802
0.077601
-0.390384
-0.546411
-0.220569
-0.380558
0.583239
0.582513
0.201908
0.704639
-0.044952
0.470456
-0.758461
0.171129
-0.069623
0.676778
0.256823
0.075477
0.249519
-0.760651
-0.211956
0.127686
0.048366
0.450450
-0.094820
0.108615
-0.020218
0.136380
0.872723
-0.069320
0.384799
0.069512
-0.227563
-0.179231
-0.268620
-0.413499
-0.243468
0.500764
0.300616
-0.767410
0.332599
0.432397
-0.504297
-0.405671
0.001335
0.434601
-0.269705
0.777503
0.476711
0.286294
0.048938
-0.011648
0.010364
0.235222
-0.366272
-0.378645
0.162304
-0.461542
-0.292816
0.550757
-0.390173
-0.630748
-0.348251
0.277117
0.279765
-0.060546
-0.054779
0.640410
1.036430
1.180575
1.085643
0.910855
-0.322921
-0.358319
-0.000127
-0.481193
0.150738
-0.355706
-0.596811
-1.112145
0.056444
0.308304
0.134263
-0.116225
0.178199
-0.235443
-0.539633
0.270488
-0.103086
-0.454422
0.684831
0.653589
-0.062480
0.055794
-0.155513
0.064923
-0.451483
-0.130385
-0.234040
0.824538
0.622481
-0.173226
-0.015861
0.333742
-0.465418
0.247993
0.352016
0.597616
0.148304
0.565856
-0.034712
0.193234
0.223552
0.353118
-0.143375
-0.159198
0.245336
-0.040496
1.026764
0.147170
0.164988
0.675094
0.344336
0.254293
-0.340872
-0.122517
-0.314053
0.642276
0.565791
0.301714
0.248405
0.198756
0.277516
-0.364774
-0.389585
0.415683
-0.010644
0.471946
0.263189
0.460725
0.660638
0.141242
0.350144
0.392392
0.284077
0.565608
-0.088653
0.359703
-0.123998
-0.150852
-0.154934
-0.054617
0.078426
-0.161009
-0.179159
-0.318072
-0.644540
0.082511
0.013806
-0.595645
-0.446670
-0.314827
0.000791
-0.570459
0.002373
0.469718
-0.418061
-0.184688
0.239799
-0.166114
0.127580
-0.347815
0.037554
0.267508
0.285935
0.711502
-0.119791
-0.410547
-0.898414
0.270789
0.033890
-0.178705
0.053062
-0.042633
-0.206038
0.821853
0.636030
0.092527
-0.176719
0.563059
1.148349
-0.270863
-0.111879
-0.345436
0.125495
0.148146
0.070000
-0.181390
0.484796
0.137973
0.009421
0.334852
-0.248635
-0.071204
-0.507498
0.756961
0.241613
-0.168123
0.471627
0.309825
-0.252563
0.303068
-0.529233
0.442908
0.172106
0.452965
0.149176
0.326772
0.157363
0.559969
0.222506
-0.323722
-0.240384
0.375535
0.172330
0.367302
0.456738
0.034366
-0.179523
0.089578
-0.674337
0.055296
0.069367
0.082136
0.371630
-0.138789
-0.098496
0.058030
-0.288706
0.035700
0.576485
0.328411
-0.229990
0.022089
-0.521675
-0.212974
-0.433066
0.887830
-0.137683
-0.543588
-0.458683
-0.576010
0.149447
0.338526
0.205331
-0.254720
0.407232
0.632180
0.085805
0.350226
-0.183754
0.074399
0.701784
-0.095023
0.764441
-0.285610
0.874509
0.065882
0.369991
1.019616
0.537308
0.447198
0.704839
0.079123
0.436929
-0.273816
-0.753588
-0.063775
-0.479992
0.491694
-0.505815
-0.379520
0.675089
0.579889
0.455572
-0.239466
0.514849
0.447993
-0.090119
0.172031
0.276085
-0.121079
0.576780
-0.400613
0.358536
-0.215165
-0.160868
0.250472
0.359524
-0.791199
0.159042
0.014246
-0.128699
-0.356644
-0.329445
0.313895
-0.286526
0.128196
0.363359
0.166416
0.387402
0.390421
0.325601
0.841281
0.495132
-0.220214
0.408603
0.625676
-0.080972
0.840691
-0.086622
0.104574
-0.335037
0.900814
0.346863
-0.179411
0.711917
0.636444
-0.103817
0.669484
0.272933
0.301215
0.014632
0.465348
0.056435
0.877524
0.550436
0.308627
0.617135
-0.715221
0.039139
-0.164771
0.325627
-0.351617
0.682147
0.371957
-0.743823
0.203179
-0.530840
0.475718
-0.088191
-0.323265
0.366241
-0.175782
0.953877
0.232354
0.081730
-0.395941
0.108070
0.566731
-0.136450
-0.339090
0.056237
0.184537
-0.706983
-0.409540
0.024628
-0.001060
0.430089
0.044697
-0.527489
-0.153896
-0.174440
0.199010
0.807690
0.295221
0.367657
-0.086718
-0.164240
-0.069808
0.134164
-0.312278
-0.155738
-0.382084
0.232406
0.643432
0.239969
0.145516
-0.058611
-0.061369
-0.123129
-0.072086
0.437685
-0.330879
-0.172461
0.224511
-0.535009
-0.404483
0.492697
-0.098990
-0.132338
0.463646
-0.053175
-0.036749
0.057218
0.042657
-0.110860
0.839711
-0.187631
-0.102895
-0.584796
-0.068693
-0.127061
0.138455
-0.495613
-0.171465
0.371056
-0.031198
-0.036074
-0.315290
0.617230
0.198684
0.554845
0.256602
-0.138538
0.162489
-0.128582
0.068901
0.585607
0.371119
-0.393978
0.601047
-0.074077
-0.374123
-0.399100
-0.132082
-0.267121
0.911496
-0.477818
0.493088
-0.136758
-0.003915
0.094886
0.201670
0.668072
0.093289
0.462797
-0.259207
-0.037242
-0.519201
0.079491
-0.598274
-0.162359
0.052734
-0.497464
-0.238175
0.670634
-0.606795
0.461688
-0.010003
0.101501
-0.145822
0.194515
0.383478
-0.104633
0.531810
0.556253
1.500000
0.861134
0.377917
0.338005
0.414011
0.293631
0.711178
0.610347
0.120446
-0.119541
0.504603
-0.960850
-0.020164
0.047326
0.460204
-0.131921
-0.886880
0.224127
0.120443
0.239191
0.495804
-0.450574
-0.060318
-0.040105
0.209995
0.673482
0.387098
-0.347102
0.122834
0.179685
0.379406
0.382977
0.001852
0.115139
0.360968
0.518222
-0.313374
0.270485
0.625480
0.208696
-0.007140
0.514762
-0.308859
0.823593
0.224059
-0.358947
1.043253
0.335293
0.191020
0.710264
-0.269272
0.332462
0.291621
0.507507
-0.183878
0.250621
0.181498
0.513156
-0.031174
1.066196
-0.067486
-0.077060
0.073172
0.287316
0.246432
0.251618
0.305511
-0.236382
0.643598
0.911055
0.454839
-0.188707
0.249111
0.509731
-0.104468
0.345901
-0.025970
-0.409665
-0.122238
-0.285194
-0.021607
0.336096
0.266946
0.328999
-0.467719
-0.500794
-0.219457
0.358766
0.414785
0.248521
-0.267907
-0.186735
-0.003349
0.359212
0.001635
0.043339
0.829355
-0.369793
0.151834
-0.246441
-0.329369
-0.409887
-0.706337
0.386718
0.445540
0.202025
-0.177372
0.225095
-0.158761
0.040070
-0.084164
-0.593397
-0.101058
0.267078
-1.111379
-0.936838
0.546409
0.065055
-0.513857
0.330695
0.361526
-0.170411
-0.210553
-0.252850
-0.073620
-1.182644
-0.316735
0.116443
-0.281914
-0.252633
-0.361381
0.715358
0.107786
-0.068088
-0.366313
-0.268591
-0.275312
-0.334003
0.293610
0.139704
-0.411318
0.492835
-0.304787
-0.048075
-0.160287
0.160966
-0.763677
-0.937209
-0.085091
0.711419
0.805259
0.286287
0.010600
-0.160907
-0.465485
-0.078861
-0.238507
0.149941
0.025892
0.178160
0.577555
-0.136752
0.159290
0.915047
0.169292
0.286914
0.381443
-0.393461
-0.411283
-1.175568
0.568321
-0.540217
-0.344758
-0.243367
0.204812
0.315789
0.114342
0.051897
0.027617
0.365609
0.111497
-0.252382
0.312702
-0.277897
-0.876974
0.039307
0.513332
-0.013754
-0.507879
-0.638295
-0.144615
0.604582
-0.264387
-0.639460
-0.199302
0.345557
0.152133
0.017449
0.241157
0.009037
1.454435
0.438142
0.430778
0.750431
0.417273
0.445462
0.246399
0.057352
-0.883301
-0.115439
0.187333
0.199466
-0.060361
-0.044982
0.066459
-0.141466
-1.095682
-0.273615
-0.135298
0.288179
0.310588
-0.240208
-0.198005
0.288281
-0.586088
0.334534
0.554793
0.573467
-0.146358
-0.659137
0.067657
-0.371809
0.347112
0.535899
0.483531
0.307050
0.168882
0.015860
-0.548256
-0.325189
-0.820222
0.719002
0.583251
0.429769
-0.403429
0.505079
0.199608
0.403000
0.372998
-0.271919
0.736083
0.517872
0.141301
-0.182382
0.580042
-0.181483
0.089396
0.626238
0.508167
0.390812
0.191052
0.110430
-0.238263
-0.018774
0.003609
-0.068864
0.330744
0.979085
0.355253
-0.086982
-0.270059
0.047206
-0.190563
-0.485549
0.026164
-0.125380
-0.389203
0.365047
0.162494
0.518172
-0.090127
0.102544
0.025198
-0.250627
-0.272205
0.347429
0.466851
0.562800
-0.223674
-0.164826
0.066798
-0.542776
0.191945
-0.010789
-0.445741
0.095057
0.079859
0.256151
-0.294041
-0.142395
-0.308540
-0.377024
0.548084
0.515371
-0.200862
-0.271990
0.095210
-0.708181
0.038326
0.752013
-0.424772
-0.813536
0.334494
-0.009366
-0.194371
0.159105
-0.257459
0.102706
-0.078315
0.245122
-0.623839
0.224772
-0.554525
0.036849
0.184437
0.473302
0.578660
0.384996
0.141410
0.160229
0.642818
0.039746
-0.105060
0.016528
0.344004
0.097773
-0.166748
0.674497
-0.148408
-0.002978
0.567161
0.371460
-0.224101
0.071097
0.451415
0.373018
0.825270
0.373364
0.415593
0.221058
0.228984
0.529984
0.127740
-1.328243
0.280711
-0.427329
-0.642627
0.190706
0.382573
-0.419276
-0.062126
0.126255
0.221557
0.115529
-0.057233
-0.268058
0.390077
-0.252414
0.605133
-0.495144
-0.526826
0.252894
-0.162956
-0.453051
-0.218069
0.536383
-0.043812
-0.043079
0.056222
-0.045155
0.243057
0.097343
-0.455765
-0.414951
-0.505577
-0.144802
0.123301
0.608683
-0.478257
0.347061
0.084757
-0.200243
0.751480
-0.076258
-0.492961
0.050069
-0.027286
-0.417891
-0.233948
0.644345
0.613995
0.693336
0.386083
1.051487
0.724474
0.376478
-0.267269
-0.407563
-0.413293
-0.583921
-0.187287
-0.083595
0.315524
-0.247641
-0.227652
0.667892
0.577877
0.620592
-0.757062
0.027385
-0.081338
-0.596467
0.653912
-0.402554
0.042470
0.345297
-0.111739
-0.240183
0.033568
0.065046
0.532927
-0.212615
0.080043
-0.589403
0.349764
-0.436797
0.112723
-0.018162
-0.111579
-0.246906
0.335460
-0.412366
0.404228
-0.154968
0.573884
0.346583
0.536332
0.634085
-0.389134
0.378719
0.096913
0.018211
0.217138
-0.087004
-0.561746
1.380315
0.245525
0.301248
-0.330161
-0.396957
0.432303
0.449247
0.222645
-0.049006
-0.376267
0.045955
0.183676
0.037469
-0.937368
0.555323
-0.473231
0.365029
0.009170
-0.391775
0.141084
-0.584690
0.289436
-0.115574
-0.093751
-0.201220
0.254260
0.427143
0.224860
0.308912
-0.011604
0.139619
0.614571
-0.420698
-0.077228
-0.608703
0.046157
0.212622
0.035257
0.060622
-0.093526
0.373677
-0.492668
-0.044298
0.757812
-0.209826
-0.109034
0.126775
-0.315197
-0.089951
-0.265031
0.339379
0.017506
-0.152109
-0.109216
0.356658
-0.137336
-0.169106
0.191295
-0.443191
-0.440691
-0.216018
-0.212764
-0.452780
-0.708845
-0.485437
0.194217
0.363683
-0.235889
0.570260
-0.225160
-0.286109
-0.098284
0.051173
0.397888
-0.558144
-0.228002
-0.760878
-0.287830
-0.372805
-0.249134
0.250990
-0.379475
0.379480
-0.349944
-0.597081
0.028014
0.308516
0.570342
-0.228776
0.391268
-0.430992
-0.364430
0.252485
0.628471
1.018636
-0.677480
-0.443954
0.409578
-0.355907
0.290265
0.299330
-0.260819
0.508020
-0.452392
-0.104900
0.614416
-0.093856
0.082731
0.289005
-0.330760
-0.173160
0.209129
0.334807
-0.483617
0.565209
0.114387
-0.179820
-0.849545
-0.079874
-0.492239
-0.036702
-0.178979
-0.149348
-0.416582
0.650521
0.191199
0.060762
-1.111987
-0.550349
0.544811
-0.328667
-0.438899
-0.150247
-0.008408
-0.321760
0.520319
-0.416441
-0.455817
-0.287984
-0.151737
-0.195586
0.179218
0.419962
0.470893
0.981858
0.595080
0.937397
1.207434
0.295718
0.551638
0.018030
0.271341
0.360067
-0.363808
0.137753
-0.655682
-0.697781
0.145806
0.515447
0.377941
-0.297049
0.161319
0.052666
0.010446
-0.197747
0.824798
0.069024
-0.455701
0.404637
0.559568
-0.289015
0.277376
0.582895
0.197587
0.468136
0.365809
0.089794
0.388846
-0.354761
0.289881
-0.050704
-0.342875
0.073689
0.314302
0.489680
0.367741
1.141068
-0.074131
-0.224830
0.338423
-0.010254
0.124473
1.045337
0.374674
0.591139
0.801600
0.739498
0.517092
0.285610
0.573033
-0.036684
0.013314
-0.147624
0.128264
0.351082
0.135772
-0.232841
-0.298457
-0.092994
-0.120369
0.230955
0.383165
0.139822
0.055406
-0.283092
-0.138159
-0.315920
0.288464
-0.317783
-0.351270
0.930642
0.012355
-0.515962
0.481301
0.241836
0.635247
0.435407
-0.338801
0.711287
-0.853947
0.219468
-0.104364
0.524902
0.674230
0.091216
0.506580
-0.384482
-0.102966
-0.427180
-0.526045
-0.149723
-0.283778
-0.277555
0.328057
-0.476120
0.032739
-0.495894
-0.570711
0.280439
-0.043777
-0.906627
-0.360485
-0.149431
-0.071455
0.263992
0.037428
0.408233
-0.210596
1.114127
-0.180099
0.181134
-0.672723
0.220549
-0.582697
0.353286
-0.172172
-0.533966
0.533476
-0.414959
-0.484499
-0.130027
-0.279330
0.324062
-0.217494
0.048723
0.322070
0.048534
0.282970
-0.144733
0.311919
-0.065364
0.172020
0.044053
-0.422919
0.103726
-0.381290
-0.326936
0.233823
-0.739210
0.140248
0.118970
-0.850461
-0.435322
0.552547
-0.271722
0.046596
-0.488136
0.160114
-0.158485
0.593464
0.484001
0.632266
0.851665
-0.242572
-0.050139
0.046006
0.616812
0.298981
-0.450068
0.292418
0.039217
0.179766
0.009407
0.178972
0.139483
-0.219272
0.052949
-0.031036
-0.090487
-0.174126
-0.382959
0.247405
-0.436898
0.472322
0.334326
0.668045
0.051991
0.162811
0.300525
0.044289
-0.179086
-0.224349
0.346578
-0.052652
-0.366552
-0.062161
0.431214
0.118473
0.349172
-0.449178
0.919485
0.079301
0.337918
0.258931
-0.154006
0.254262
0.759643
1.471040
0.687615
0.327692
0.321776
0.018798
0.170251
-0.222937
-0.158089
-0.143979
-0.187202
0.341793
-0.328800
-0.127846
0.434050
0.150698
-0.225765
-0.632114
0.374611
0.066152
0.343053
