-0.041081
-0.026237
-0.077927
0.013326
-0.002026
0.037557
0.024874
0.038620
0.040573
-0.039782
-0.000308
0.032816
0.001545
0.019365
0.001519
-0.016609
-0.001539
0.006106
0.016542
-0.011779
-0.008577
-0.021352
0.021397
0.050571
-0.013989
0.091236
0.008705
-0.017047
0.033278
0.013638
0.021279
0.048311
0.085071
0.140575
0.092588
0.062229
0.023494
0.187169
0.147877
0.115049
0.082199
0.182108
0.087999
0.062708
0.213678
0.170560
0.206342
0.267871
0.227655
0.187671
0.112644
0.124603
0.131008
0.213266
0.190402
0.135538
0.135481
0.129090
0.141995
0.107880
0.131399
0.101509
0.118868
0.064672
0.124811
0.081581
0.095137
0.072356
0.019867
0.059644
0.080878
0.097911
0.094529
0.072055
0.067830
0.089283
0.032259
0.039890
0.085334
0.093246
0.054628
0.096295
0.069068
0.026015
0.043610
0.063891
0.053301
0.050143
0.051603
-0.013380
0.040849
0.041136
0.241748
0.436183
0.745771
1.056149
1.271566
1.259084
1.142965
0.987451
0.706371
0.434045
0.105705
-0.040523
-0.148833
-0.260050
-0.112669
-0.053472
-0.069145
-0.025312
0.075753
0.052068
0.087525
0.079112
0.103057
0.064618
0.068438
0.142726
0.139821
0.128511
0.087633
0.102639
0.073200
0.121682
0.127822
0.157937
0.065997
0.120686
0.109520
0.193953
0.117491
0.133192
0.159009
0.227810
0.231599
0.206282
0.232487
0.323876
0.301224
0.196038
0.345775
0.297682
0.328405
0.355416
0.345486
0.401798
0.458662
0.404680
0.481461
0.448508
0.484200
0.441256
0.440384
0.499136
0.497077
0.502972
0.497939
0.610411
0.472626
0.501581
0.490520
0.445937
0.501006
0.411542
0.524393
0.378518
0.456952
0.501907
0.442256
0.391824
0.340463
0.450540
0.379850
0.341905
0.289078
0.255859
0.303418
0.242528
0.369239
0.216142
0.244035
0.227496
0.274597
0.199177
0.247163
0.226048
0.205097
0.154872
0.220712
0.140746
0.101372
0.162387
0.186636
0.092604
0.112205
0.130024
0.148655
0.058908
0.092689
0.162310
0.149454
0.098713
0.120089
0.111591
0.023844
0.073801
0.115524
0.037748
0.150958
0.099593
0.168518
0.131886
0.156329
0.141371
0.100001
0.192970
0.101263
0.035872
0.067652
0.043000
0.155211
0.161695
0.105686
0.128992
0.133642
0.062184
0.077432
0.132410
0.138989
0.102001
0.169991
0.067080
0.026873
0.110658
0.113819
0.144080
0.087297
0.113230
0.077968
0.075409
0.085661
0.144564
0.126940
0.121294
0.113106
0.094578
0.082944
0.133718
0.063009
0.092825
0.099456
0.138330
0.186138
0.121635
0.117304
0.039827
0.081058
0.131605
0.128037
0.048672
0.077837
0.073653
0.136137
0.113314
0.140044
0.086530
0.132767
0.123963
0.089685
0.138517
0.102433
0.206652
0.079869
0.064547
0.216658
0.197158
0.215797
0.175007
0.190728
0.196047
0.149095
0.226352
0.289484
0.245495
0.234817
0.264732
0.172374
0.294214
0.313742
0.296805
0.242401
0.296421
0.256935
0.229087
0.258328
0.272791
0.173887
0.212692
0.245092
0.207899
0.220240
0.210950
0.207216
0.189600
0.167214
0.174171
0.193944
0.197126
0.104211
0.109521
0.099360
0.122140
0.154232
0.116686
0.134862
0.094249
0.152947
0.203892
0.029083
0.061748
0.107311
0.085759
0.136824
0.087367
0.044332
0.145258
0.127317
0.063942
0.096859
0.098683
0.064248
0.071469
0.023471
0.186794
0.303705
0.432990
0.728773
1.142386
1.256787
1.245288
1.249795
0.970418
0.703698
0.470963
0.143064
-0.092226
-0.178166
-0.123044
-0.149081
-0.066498
0.063021
0.063071
0.116401
0.060047
0.065919
0.159572
0.113686
0.135772
0.131943
0.126482
0.069031
0.096975
0.124393
0.141581
0.161886
0.161274
0.144227
0.190563
0.197645
0.112212
0.147086
0.130703
0.191890
0.212463
0.144708
0.146393
0.208551
0.237871
0.235468
0.214013
0.283692
0.321541
0.302158
0.321432
0.389411
0.348317
0.379372
0.439700
0.440140
0.408649
0.396478
0.395851
0.492663
0.497703
0.469229
0.514464
0.491647
0.498345
0.401390
0.576256
0.509895
0.614861
0.518261
0.496353
0.472232
0.486738
0.466442
0.392554
0.448755
0.416095
0.448169
0.370802
0.395933
0.351828
0.339105
0.379143
0.323372
0.272108
0.298828
0.251603
0.257119
0.209398
0.166240
0.197839
0.182867
0.232152
0.155578
0.139190
0.139981
0.098242
0.182538
0.156935
0.154666
0.094028
0.099599
0.109679
0.071243
0.141749
0.179259
0.076945
0.081478
0.035404
0.035642
0.065230
0.110342
0.129170
0.020924
0.068414
0.052596
0.081407
0.036282
0.053483
0.052306
0.021156
0.085730
0.099156
0.082682
0.100272
0.094778
0.095126
0.049233
0.065559
0.014617
0.027541
0.047417
0.021358
0.067208
0.087083
0.101796
0.105119
0.009808
0.053933
0.046205
0.163499
0.062172
0.084981
0.016648
0.067343
0.059213
0.025330
0.129711
0.068703
0.056832
0.116816
0.061747
0.080566
0.115635
0.129485
0.011753
0.068247
0.056147
0.058035
0.109556
0.102008
0.033376
0.098500
0.060004
0.098322
0.049628
0.011343
0.047272
0.066816
0.099228
0.098281
0.030519
0.039494
0.073987
0.094659
0.051964
0.045339
0.067570
0.050495
0.104499
0.096645
0.151087
0.037359
0.079457
0.143514
0.084629
0.110152
0.171290
0.110172
0.156694
0.053455
0.228025
0.174327
0.149552
0.184359
0.230214
0.165578
0.157555
0.216024
0.121239
0.253264
0.135773
0.168769
0.197633
0.174809
0.155196
0.141230
0.143558
0.128809
0.118643
0.144518
0.152062
0.077738
0.115408
0.115540
0.139363
0.039865
0.087793
0.066237
0.130293
0.082100
0.071777
0.034142
0.154627
0.025294
0.077663
0.085360
-0.012419
0.115747
0.097841
0.102753
0.092155
0.076148
0.060427
0.113651
0.014466
0.142148
0.010762
0.100965
0.010160
-0.034651
-0.017764
0.107003
0.237495
0.519906
0.751506
1.032784
1.155075
1.282652
1.088446
0.974742
0.672102
0.304004
0.071250
-0.062244
-0.187424
-0.221581
-0.129701
-0.025474
0.006493
0.048432
0.054606
0.066427
0.074002
0.055327
0.047622
0.045631
0.012594
0.114270
0.156009
0.098083
0.086566
0.134159
0.129510
0.040885
0.086066
0.167856
0.114088
0.114314
0.130068
0.104029
0.126190
0.231359
0.214879
0.240165
0.226611
0.202007
0.272489
0.277393
0.300667
0.297235
0.323487
0.367347
0.327718
0.374157
0.316007
0.356657
0.440025
0.445258
0.427688
0.442601
0.458407
0.485406
0.494926
0.501197
0.513041
0.518761
0.518252
0.490087
0.536715
0.484600
0.510943
0.542224
0.532598
0.457007
0.412221
0.488263
0.435779
0.394189
0.415813
0.366551
0.374316
0.353384
0.362793
0.317664
0.318079
0.266736
0.299268
0.242710
0.262508
0.270569
0.286646
0.197074
0.162999
0.153170
0.155682
0.220239
0.155040
0.147706
0.178871
0.128368
0.165923
0.127006
0.169173
0.145390
0.073939
0.054360
0.062841
0.133004
0.051718
0.106262
0.140765
0.136230
0.155613
0.196269
0.105127
0.096959
0.122725
0.136364
0.104100
0.076099
0.120900
0.160985
0.118983
0.046139
0.095329
0.085612
0.121515
0.151328
0.117208
0.146114
0.124130
0.215033
0.077773
0.133152
0.139871
0.094768
0.074447
0.084940
0.077590
0.153990
0.052254
0.097301
0.091716
0.121952
0.108807
0.122530
0.133637
0.099037
0.166803
0.123054
0.201472
0.138322
0.155593
0.216396
0.132567
0.141401
0.176031
0.147444
0.113580
0.147536
0.145752
0.241388
0.195706
0.186945
0.151266
0.109210
0.115284
0.093493
0.159244
0.097975
0.184394
0.138476
0.174842
0.177468
0.179260
0.100912
0.200406
0.223364
0.224993
0.223361
0.213382
0.162387
0.162307
0.151866
0.188496
0.192367
0.316186
0.227545
0.181179
0.216935
0.242809
0.204239
0.209051
0.260877
0.257136
0.250438
0.346830
0.280468
0.363863
0.316352
0.296010
0.243400
0.292988
0.297772
0.336066
0.294822
0.352403
0.245683
0.341839
0.292737
0.276838
0.264423
0.297342
0.164553
0.284678
0.234208
0.205030
0.235571
0.244221
0.209531
0.142930
0.207615
0.191808
0.215044
0.146326
0.169755
0.185011
0.184263
0.178650
0.240690
0.154576
0.182558
0.127699
0.224734
0.231004
0.142466
0.173642
0.187456
0.069970
0.212195
0.135216
0.140649
0.121648
0.178278
0.371386
0.612612
0.942202
1.190565
1.409395
1.350930
1.205452
1.034923
0.731604
0.420562
0.266434
0.042895
-0.009408
-0.018606
-0.044213
-0.007922
0.135946
0.118986
0.187540
0.188573
0.187485
0.230371
0.175439
0.188492
0.206319
0.205750
0.232656
0.248302
0.236836
0.281318
0.183459
0.301816
0.243065
0.285745
0.213566
0.280324
0.320481
0.313713
0.264703
0.278117
0.330903
0.368944
0.376067
0.351541
0.321610
0.430104
0.387120
0.415070
0.455502
0.460088
0.489377
0.434280
0.537538
0.544488
0.520696
0.524071
0.541280
0.644584
0.592269
0.655868
0.592137
0.613177
0.710103
0.629284
0.687512
0.668423
0.607417
0.580852
0.754695
0.672812
0.661638
0.644175
0.594440
0.594970
0.592995
0.603775
0.557869
0.577400
0.503223
0.460033
0.457989
0.443691
0.353550
0.447816
0.401166
0.453782
0.408635
0.308812
0.375631
0.312666
0.294442
0.422447
0.320478
0.331343
0.331801
0.321165
0.231455
0.257685
0.284881
0.277539
0.306269
0.310497
0.294298
0.253694
0.267274
0.239218
0.204433
0.234284
0.190087
0.210939
0.249191
0.223359
0.242756
0.226016
0.301431
0.181861
0.274172
0.257132
0.237699
0.262031
0.239183
0.271670
0.252839
0.193011
0.279313
0.257716
0.286358
0.236106
0.225555
0.193077
0.288755
0.275957
0.202143
0.274047
0.204935
0.266765
0.253708
0.165218
0.178219
0.279619
0.221531
0.178793
0.277316
0.220710
0.276482
0.257277
0.165343
0.248229
0.231135
0.260206
0.214310
0.212513
0.217900
0.307542
0.265805
0.222882
0.229774
0.261070
0.227116
0.212011
0.250978
0.239462
0.230152
0.231529
0.242588
0.178799
0.293153
0.294560
0.175425
0.200781
0.210454
0.200529
0.223741
0.219380
0.271137
0.245543
0.261882
0.307443
0.223010
0.260236
0.254944
0.248468
0.240643
0.323439
0.284169
0.282587
0.383419
0.289097
0.370044
0.339134
0.327975
0.304966
0.396128
0.363187
0.280163
0.342488
0.374993
0.377137
0.398849
0.429035
0.376032
0.373831
0.405710
0.328506
0.345139
0.356273
0.316897
0.383505
0.303059
0.277273
0.359126
0.259292
0.307895
0.277035
0.296188
0.238559
0.252225
0.270146
0.270819
0.313071
0.249894
0.279121
0.221113
0.235803
0.239583
0.247357
0.247326
0.223224
0.192414
0.169397
0.174211
0.203627
0.257367
0.204206
0.201314
0.266616
0.245712
0.217000
0.184069
0.188995
0.203763
0.309071
0.417434
0.704768
0.992015
1.196137
1.387852
1.352727
1.310241
0.997294
0.727493
0.426067
0.186566
0.025966
-0.113499
-0.034643
0.027377
0.116309
0.156120
0.154092
0.258880
0.254070
0.298942
0.268344
0.221922
0.268486
0.197409
0.203574
0.176286
0.187345
0.222934
0.249841
0.241041
0.230961
0.217910
0.256656
0.282959
0.263062
0.286942
0.267553
0.280488
0.301280
0.334228
0.266165
0.385298
0.451860
0.396549
0.388489
0.362175
0.354466
0.366129
0.431790
0.490562
0.425146
0.484757
0.489071
0.539504
0.473141
0.584871
0.587677
0.607327
0.568178
0.617288
0.574692
0.612161
0.599021
0.633388
0.684613
0.652929
0.632691
0.581193
0.586224
0.672829
0.623259
0.627139
0.511114
0.638819
0.449035
0.506615
0.471505
0.464874
0.434078
0.421386
0.459283
0.397529
0.365379
0.413852
0.339713
0.340225
0.323918
0.291670
0.336749
0.303117
0.375896
0.264296
0.212065
0.271104
0.199102
0.278683
0.190254
0.192848
0.281828
0.163669
0.152573
0.125856
0.225379
0.191549
0.228106
0.220716
0.233944
0.174488
0.149486
0.161406
0.101100
0.272253
0.196140
0.182555
0.211144
0.169198
0.188110
0.198331
0.178775
0.205381
0.152598
0.193269
0.214428
0.172761
0.145627
0.186127
0.159291
0.199627
0.205569
0.155289
0.105305
0.219569
0.132635
0.206256
0.183090
0.124194
0.142362
0.113336
0.180532
0.147838
0.163623
0.187068
0.178533
0.159598
0.135168
0.176671
0.199775
0.185227
0.144413
0.161403
0.088335
0.260782
0.127103
0.136924
0.096702
0.114865
0.196194
0.167574
0.113643
0.140315
0.225571
0.204508
0.144504
0.150644
0.247007
0.160086
0.109173
0.146953
0.115952
0.150073
0.134163
0.146294
0.231888
0.176534
0.194010
0.208588
0.184442
0.201327
0.188880
0.201148
0.202513
0.241365
0.270429
0.205061
0.210032
0.221126
0.241188
0.243089
0.282446
0.276816
0.302582
0.256841
0.278618
0.177853
0.287858
0.289103
0.223654
0.311703
0.268574
0.280351
0.311223
0.308337
0.332270
0.298146
0.298448
0.186493
0.254261
0.255436
0.172967
0.232689
0.241639
0.172389
0.178879
0.160426
0.192590
0.189499
0.131048
0.142641
0.100476
0.054670
0.150008
0.138687
0.094250
0.098751
0.125113
0.121425
0.170146
0.148031
0.109049
0.145113
0.078707
0.126984
0.076963
0.167934
0.153548
0.136540
0.143380
0.115198
0.150079
0.150601
0.169620
0.351462
0.546792
1.000307
1.149136
1.280708
1.296649
1.139348
0.999096
0.606450
0.394098
0.161658
-0.013409
0.005776
-0.130765
-0.018393
0.010284
0.193356
0.076990
0.135897
0.166979
0.122771
0.114967
0.180794
0.174215
0.131248
0.158497
0.178891
0.138589
0.112304
0.137014
0.155959
0.190577
0.164003
0.133698
0.181133
0.228074
0.187757
0.206589
0.202070
0.265921
0.206316
0.248182
0.243573
0.287928
0.304430
0.297919
0.373908
0.274798
0.410995
0.429224
0.410941
0.433572
0.584524
0.460043
0.503825
0.490043
0.468836
0.466958
0.545307
0.550473
0.497956
0.613074
0.568031
0.524964
0.578353
0.582720
0.574941
0.553861
0.590028
0.598874
0.535990
0.637905
0.448230
0.524581
0.491120
0.500977
0.438071
0.446007
0.417401
0.458676
0.458535
0.418932
0.410957
0.272622
0.364356
0.323073
0.315681
0.284057
0.217135
0.285193
0.258600
0.239811
0.300113
0.176707
0.237059
0.239010
0.253188
0.238470
0.205597
0.205442
0.197067
0.218112
0.206582
0.165584
0.221973
0.223159
0.165471
0.176541
0.124195
0.127745
0.215529
0.176041
0.106876
0.168751
0.182401
0.157400
0.215551
0.161546
0.194397
0.187758
0.212806
0.175295
0.167764
0.134762
0.149908
0.150202
0.158369
0.117487
0.126075
0.174349
0.191381
0.205644
0.186432
0.134464
0.142509
0.174831
0.114644
0.140888
0.238068
0.144191
0.187349
0.159049
0.150140
0.225516
0.157360
0.149121
0.172214
0.174591
0.083100
0.184304
0.156820
0.243172
0.183575
0.125172
0.197214
0.153883
0.163820
0.173681
0.231202
0.159576
0.184108
0.195951
0.180053
0.193024
0.177633
0.220975
0.241512
0.174896
0.150343
0.228085
0.182902
0.156854
0.170178
0.142039
0.152189
0.206847
0.255663
0.215925
0.160849
0.288485
0.247956
0.286561
0.315092
0.237500
0.246932
0.250692
0.238349
0.235252
0.248958
0.356710
0.254661
0.238891
0.332008
0.311144
0.218368
0.312760
0.387762
0.374746
0.323594
0.348077
0.307393
0.316036
0.324148
0.375728
0.337088
0.305222
0.325756
0.335028
0.264237
0.372755
0.259252
0.334791
0.243690
0.226926
0.207452
0.232149
0.219602
0.269860
0.188433
0.331163
0.245766
0.148678
0.107812
0.264970
0.240215
0.215980
0.138466
0.206372
0.189188
0.244874
0.231187
0.272172
0.226458
0.222120
0.202112
0.189970
0.216764
0.249910
0.119624
0.235734
0.194631
0.245193
0.529972
0.693964
0.963951
1.253619
1.414796
1.421207
1.304686
0.946542
0.663673
0.455084
0.214784
0.070307
-0.011216
-0.007006
0.037809
0.128442
0.229114
0.181368
0.237229
0.268140
0.218989
0.246316
0.265880
0.242918
0.279413
0.249541
0.257173
0.270433
0.258935
0.303892
0.264682
0.306159
0.229714
0.278390
0.328744
0.301206
0.362241
0.326605
0.293494
0.336380
0.415856
0.409304
0.384626
0.419560
0.372322
0.373696
0.452907
0.473492
0.523510
0.470687
0.389747
0.521719
0.587830
0.523348
0.539885
0.605355
0.671350
0.622628
0.625030
0.685131
0.644896
0.622729
0.659653
0.694938
0.623659
0.672889
0.637395
0.678231
0.638519
0.641529
0.622684
0.642417
0.666072
0.590500
0.594479
0.593212
0.568758
0.562288
0.515562
0.562520
0.511688
0.489587
0.442233
0.489394
0.487182
0.476279
0.364200
0.419862
0.400089
0.397553
0.388705
0.372461
0.341571
0.318221
0.274273
0.308952
0.315619
0.345800
0.273566
0.302353
0.274108
0.168114
0.278208
0.275163
0.232085
0.321046
0.292793
0.262692
0.306486
0.237998
0.241053
0.278794
0.246960
0.236287
0.236724
0.289044
0.258727
0.213710
0.264948
0.251355
0.326947
0.211897
0.230956
0.292869
0.274474
0.260119
0.256445
0.257066
0.268534
0.223721
0.232790
0.270260
0.256520
0.204770
0.287446
0.305298
0.215899
0.305056
0.280778
0.212225
0.235786
0.208481
0.303781
0.236544
0.256481
0.261750
0.288451
0.295797
0.330715
0.258599
0.247829
0.292237
0.254711
0.240234
0.246694
0.282178
0.296684
0.187695
0.311016
0.323838
0.339058
0.276215
0.252436
0.275250
0.164938
0.311916
0.271511
0.316379
0.281256
0.270817
0.288056
0.288799
0.283990
0.265370
0.288417
0.272377
0.290096
0.299496
0.280060
0.311519
0.298973
0.318134
0.284016
0.331962
0.348772
0.301313
0.291299
0.352209
0.374476
0.393213
0.382358
0.390351
0.389942
0.388586
0.444517
0.371576
0.495842
0.332863
0.377127
0.435661
0.447482
0.412845
0.428284
0.390943
0.417976
0.379956
0.329517
0.380003
0.312666
0.345388
0.351003
0.323092
0.264912
0.350186
0.260399
0.354524
0.200584
0.234456
0.241830
0.301540
0.301311
0.218156
0.307953
0.288548
0.200124
0.272864
0.299045
0.241268
0.343981
0.308619
0.194149
0.261572
0.236167
0.302633
0.266751
0.229986
0.247612
0.259231
0.229958
0.138150
0.294619
0.330537
0.562393
0.730493
1.076677
1.317917
1.430043
1.500000
1.248610
1.032896
0.711003
0.487211
0.157576
0.093656
0.009694
0.011878
0.096339
0.127902
0.180073
0.265035
0.211565
0.287267
0.223030
0.234169
0.306252
0.252584
0.217783
0.264807
0.323284
0.268865
0.287590
0.315465
0.253682
0.271128
0.285731
0.327037
0.296500
0.347341
0.297526
0.307630
0.327157
0.405179
0.395683
0.388664
0.369655
0.379180
0.392412
0.324895
0.390244
0.477932
0.435149
0.481675
0.562688
0.525491
0.528131
0.530342
0.580485
0.658022
0.551182
0.600065
0.566242
0.630122
0.620926
0.613136
0.643163
0.624784
0.702771
0.691243
0.708139
0.702172
0.735671
0.764161
0.635015
0.588837
0.520806
0.686863
0.616793
0.597048
0.589941
0.587882
0.590076
0.503584
0.433406
0.475313
0.441499
0.460034
0.441529
0.382387
0.392870
0.366756
0.360769
0.338770
0.314675
0.367309
0.340851
0.330612
0.258908
0.284265
0.272962
0.256257
0.315909
0.265422
0.259705
0.211747
0.209505
0.156740
0.223899
0.261352
0.271327
0.223991
0.241189
0.239928
0.148884
0.214537
0.252567
0.234900
0.245612
0.185003
0.229437
0.140858
0.277443
0.172366
0.218344
0.301892
0.274720
0.142630
0.243286
0.218463
0.239026
0.168005
0.247557
0.216545
0.235426
0.234042
0.195293
0.302363
0.220724
0.270111
0.201135
0.190352
0.167914
0.178177
0.237816
0.230101
0.228304
0.183266
0.260618
0.235438
0.269913
0.190207
0.277386
0.125368
0.151377
0.184080
0.188946
0.170499
0.202287
0.252953
0.159936
0.199165
0.179576
0.200703
0.227035
0.228086
0.151686
0.160102
0.147871
0.140362
0.200136
0.208288
0.226045
0.180337
0.202478
0.180380
0.131064
0.203974
0.168301
0.140622
0.212636
0.243324
0.175478
0.203645
0.244013
0.224831
0.176035
0.222699
0.303232
0.280041
0.252070
0.176246
0.235533
0.337463
0.247740
0.276278
0.283064
0.243002
0.315334
0.289076
0.360465
0.309387
0.384219
0.343371
0.281093
0.403521
0.284983
0.292233
0.268299
0.236948
0.313685
0.212954
0.220008
0.313957
0.225789
0.307705
0.223350
0.241300
0.211697
0.244615
0.201047
0.181113
0.179457
0.155187
0.102665
0.238244
0.194472
0.089390
0.156430
0.093577
0.155810
0.137398
0.175795
0.162229
0.106858
0.192548
0.151024
0.114192
0.176756
0.174497
0.140475
0.174194
0.160434
0.124390
0.173929
0.185877
0.544706
0.686034
1.005135
1.224025
1.301987
1.333765
1.142599
0.945116
0.544624
0.313247
0.135956
-0.092222
-0.095486
-0.054549
-0.040881
0.071611
0.131028
0.107968
0.149479
0.102849
0.160275
0.184110
0.193493
0.177371
0.179693
0.254545
0.221262
0.161613
0.195380
0.226662
0.208582
0.209808
0.231418
0.201900
0.209784
0.231410
0.230803
0.286399
0.246453
0.216130
0.340290
0.322767
0.352711
0.224056
0.355433
0.374925
0.349692
0.357423
0.398777
0.414124
0.430562
0.491058
0.421139
0.491341
0.509351
0.496192
0.492714
0.455196
0.585410
0.547850
0.541602
0.486166
0.512322
0.556858
0.593524
0.620819
0.612563
0.602926
0.595535
0.566877
0.567187
0.537901
0.580765
0.590227
0.521177
0.454132
0.476665
0.459739
0.421764
0.423042
0.441046
0.361737
0.362531
0.358216
0.336012
0.303822
0.274502
0.291067
0.264687
0.319002
0.245410
0.254504
0.215356
0.172614
0.141929
0.221321
0.224391
0.171322
0.182490
0.180701
0.238866
0.145394
0.241662
0.196283
0.140105
0.113293
0.193637
0.159370
0.156667
0.184975
0.140716
0.206495
0.139630
0.161778
0.112431
0.237248
0.132145
0.158207
0.202634
0.179103
0.190910
0.164821
0.278824
0.196598
0.169310
0.157883
0.115714
0.181037
0.141346
0.159039
0.209922
0.165551
0.254269
0.171244
0.196218
0.150343
0.177973
0.211694
0.179243
0.128750
0.207744
0.129387
0.211901
0.197302
0.195251
0.185176
0.204974
0.180991
0.123340
0.195259
0.224192
0.190672
0.162297
0.224849
0.146939
0.246558
0.179692
0.195102
0.194492
0.119327
0.127878
0.178752
0.122963
0.194429
0.223993
0.162564
0.190572
0.288483
0.184040
0.208383
0.210976
0.243099
0.186778
0.256619
0.190097
0.221769
0.236581
0.156078
0.196948
0.242866
0.212318
0.148295
0.224981
0.201632
0.282284
0.257467
0.250453
0.299581
0.312918
0.281253
0.287365
0.393730
0.292950
0.366950
0.322183
0.371735
0.340832
0.364200
0.308572
0.369389
0.339509
0.345864
0.351820
0.361719
0.294858
0.318466
0.282000
0.341267
0.297854
0.298437
0.285644
0.288504
0.309471
0.300865
0.283834
0.259920
0.262342
0.265983
0.197826
0.240448
0.220836
0.225232
0.235496
0.214655
0.236246
0.196674
0.225335
0.190669
0.239568
0.257419
0.218307
0.216373
0.187222
0.176193
0.247515
0.199267
0.209984
0.173977
0.110569
0.143915
0.181099
0.342260
0.561136
0.767972
1.074946
1.314904
1.386736
1.390402
1.197706
0.966373
0.680912
0.315727
0.149870
-0.004922
0.011817
-0.047487
0.033934
0.107603
0.127079
0.210598
0.206705
0.301696
0.265964
0.224300
0.187774
0.292356
0.229240
0.280352
0.244999
0.266041
0.273990
0.281321
0.295509
0.314908
0.138704
0.244304
0.311272
0.301696
0.333160
0.370571
0.402338
0.361431
0.388766
0.423673
0.369090
0.447580
0.357188
0.428122
0.490938
0.499382
0.539426
0.536653
0.533169
0.546312
0.468072
0.522860
0.577276
0.584513
0.581713
0.612973
0.681159
0.626031
0.657144
0.667639
0.675112
0.678939
0.694676
0.701116
0.686587
0.734242
0.683798
0.708211
0.656191
0.630723
0.691468
0.726234
0.640731
0.593437
0.527144
0.595617
0.510890
0.604278
0.559266
0.528349
0.507802
0.492999
0.357800
0.506180
0.405472
0.391154
0.401831
0.356870
0.407620
0.401735
0.342575
0.387446
0.318470
0.314261
0.337843
0.311908
0.281490
0.300990
0.351214
0.344314
0.189699
0.279460
0.304848
0.247222
0.301672
0.285195
0.253221
0.353225
0.271233
0.345255
0.322691
0.222418
0.335923
0.375050
0.300156
0.245541
0.310325
0.182868
0.243491
0.297322
0.240484
0.244368
0.334661
0.269840
0.322010
0.264779
0.261637
0.213951
0.309333
0.279854
0.352627
0.355096
0.198445
0.225305
0.246513
0.244446
0.326785
0.320841
0.319461
0.266193
0.260713
0.256104
0.313723
0.239401
0.305614
0.283895
0.245870
0.273749
0.254376
0.294183
0.344587
0.241706
0.295600
0.263107
0.229150
0.283293
0.281636
0.297435
0.265612
0.315533
0.338954
0.312830
0.373221
0.352912
0.258993
0.363509
0.339645
0.306729
0.253840
0.263713
0.293885
0.218119
0.366542
0.302915
0.337223
0.248035
0.352790
0.324433
0.312300
0.268127
0.348872
0.347090
0.350253
0.336546
0.386136
0.432864
0.383969
0.456234
0.437747
0.455575
0.411420
0.476236
0.478649
0.377407
0.473048
0.432323
0.373414
0.419871
0.436054
0.415335
0.441780
0.367301
0.412110
0.422970
0.373340
0.389720
0.374293
0.272955
0.357755
0.302481
0.374896
0.408793
0.298250
0.309522
0.352771
0.281582
0.340365
0.269137
0.310669
0.298664
0.277749
0.293871
0.423293
0.252391
0.240028
0.241640
0.307360
0.317454
