-0.083293
-0.004675
0.079138
-0.018157
-0.069667
-0.013531
-0.033435
0.000666
0.109416
-0.006320
0.076944
-0.018825
-0.039699
0.047488
0.021685
-0.027117
-0.050210
0.152061
-0.021524
-0.016470
0.059976
0.012366
0.057635
-0.073203
0.022056
0.025305
0.051602
0.053132
0.012161
0.064410
0.068424
-0.003523
0.016537
0.097575
0.072446
0.069209
0.016331
0.051629
0.155346
0.158796
0.120371
0.116794
0.166066
0.086907
0.225147
0.169896
0.232835
0.148205
0.154100
0.277923
0.172246
0.112822
0.171342
0.231977
0.218623
0.140237
0.153162
0.227436
0.136903
0.226821
0.119883
0.071027
0.156131
0.142499
0.163530
0.152572
0.144892
0.061467
0.062249
0.136323
0.032407
0.064321
0.098249
0.090870
0.008334
0.017913
0.009224
0.060571
-0.011809
0.025763
0.042371
-0.018461
0.054090
0.080357
0.127217
0.074787
0.066731
-0.036462
0.009573
0.022194
-0.001938
0.018654
0.037764
0.119987
-0.016877
0.038304
-0.001739
-0.040786
0.186364
0.334059
0.644838
0.978668
1.280123
1.387030
1.409151
1.334502
0.950147
0.728869
0.378858
0.161905
-0.151915
-0.250702
-0.270726
-0.172198
-0.129214
-0.024003
0.120229
0.086263
0.073682
0.084608
0.041781
0.031139
0.061166
0.063414
0.034799
0.079028
0.116640
0.105273
0.076446
0.049647
0.089101
0.153034
0.044394
0.114732
0.118057
0.088740
0.119760
0.150166
0.187071
0.165296
0.220082
0.118400
0.150321
0.180206
0.200438
0.142703
0.244503
0.219056
0.273774
0.325190
0.324796
0.403199
0.399296
0.439304
0.383813
0.433044
0.494319
0.443419
0.462663
0.552833
0.492261
0.563515
0.543199
0.461314
0.543491
0.568349
0.649158
0.670474
0.522332
0.590853
0.533589
0.488294
0.555845
0.509033
0.542424
0.478067
0.573768
0.494863
0.466570
0.478838
0.413226
0.482235
0.450869
0.406851
0.375358
0.388975
0.234115
0.335437
0.259819
0.258892
0.242355
0.132246
0.223250
0.194724
0.248289
0.236480
0.141512
0.134566
0.093648
0.106922
0.106642
0.094408
0.139881
0.135355
0.068586
0.112214
0.104359
0.151833
0.055859
0.067260
0.073026
0.039317
0.054325
0.024871
0.143937
0.131749
0.068195
0.005299
0.004128
0.064372
0.124490
0.098080
0.101377
0.110096
0.082486
0.072498
0.062900
0.123323
0.151174
0.141787
0.104427
0.099099
0.040967
0.133001
0.090584
0.058743
0.018998
0.121139
0.094157
-0.013888
0.151652
0.078845
0.038703
0.069963
0.114182
0.100848
0.134194
-0.024847
0.075691
0.014534
0.061974
0.116078
0.077621
0.045692
0.125212
0.079922
0.053157
0.057547
0.095695
0.100222
0.046381
0.097748
0.085539
0.080872
0.074231
0.042421
-0.014272
0.154230
0.073189
0.041522
0.086102
0.039115
0.028058
0.056743
0.032969
0.131424
0.070337
0.035755
0.045302
0.024760
0.071687
0.010335
0.105391
0.151249
0.074321
0.117697
0.055290
0.099132
0.080999
0.130937
0.104120
0.183714
0.110376
0.075386
0.096113
0.085262
0.181618
0.091002
0.229970
0.134938
0.147844
0.235954
0.169687
0.207417
0.177338
0.236342
0.192657
0.264848
0.236394
0.249637
0.202083
0.161654
0.233127
0.143497
0.203130
0.221662
0.169350
0.199721
0.209779
0.255539
0.072490
0.128416
0.172089
0.120094
0.117463
0.056186
0.092903
0.132171
0.067208
0.094264
0.134553
0.054654
0.145732
0.057247
0.088882
0.026303
0.053686
0.054007
-0.009947
0.094804
0.132095
-0.006083
-0.000588
0.047739
0.056549
-0.001037
0.030614
-0.033302
-0.025295
0.056900
0.080811
0.082846
-0.052033
-0.010060
-0.092804
0.029242
-0.030467
0.152742
0.387862
0.763880
1.017761
1.396534
1.500000
1.356742
1.178212
0.803791
0.483626
0.171942
-0.019204
-0.127960
-0.256229
-0.280625
-0.218333
-0.094249
-0.051528
0.012138
-0.040906
0.004042
0.012719
0.065322
0.023892
0.129811
0.059215
0.052929
-0.000104
0.085453
0.061236
0.084324
0.077848
-0.007855
0.020687
0.005596
-0.040055
0.014968
0.071282
0.029936
0.102512
0.058373
0.152166
0.078008
0.120700
0.134060
0.089302
0.074581
0.172143
0.094447
0.183878
0.197725
0.339501
0.170048
0.301455
0.263628
0.206328
0.270541
0.268956
0.385376
0.409213
0.357123
0.402351
0.453556
0.417705
0.496896
0.410844
0.424459
0.456030
0.432325
0.514998
0.547332
0.475614
0.502472
0.555152
0.488855
0.427373
0.440593
0.396788
0.411074
0.384996
0.465475
0.323232
0.323356
0.407644
0.290277
0.234536
0.277866
0.292884
0.205245
0.262982
0.161297
0.159789
0.219517
0.182006
0.119983
0.177469
0.071563
0.064841
0.060509
0.017653
-0.020658
0.067304
-0.025248
-0.002259
0.006102
0.037183
-0.006941
0.016690
0.046333
-0.002833
0.052245
-0.005233
-0.050675
-0.040130
-0.004266
-0.055444
-0.067999
0.021559
-0.076447
0.010105
-0.011546
0.012963
-0.063413
0.007726
-0.058396
-0.054652
0.013992
-0.059644
0.017660
-0.078833
-0.028829
0.034399
0.005646
-0.083484
0.005904
-0.024209
-0.111516
0.063223
-0.015836
0.047263
0.006883
-0.053034
0.011384
-0.035845
-0.051246
-0.086596
-0.027664
-0.084050
-0.016254
-0.044037
-0.184929
-0.043046
0.019422
0.029470
0.005211
-0.044821
-0.023058
-0.033734
0.023666
0.026441
-0.029941
-0.035520
0.040680
-0.084542
-0.097026
-0.016133
0.020949
-0.074396
-0.017206
-0.110955
-0.024329
-0.006217
-0.055938
-0.010510
-0.064741
-0.059356
-0.109898
-0.019805
-0.056272
-0.056488
-0.078998
0.005987
-0.132821
0.013625
-0.031633
0.045162
-0.044151
0.012598
-0.040555
-0.031605
-0.118671
-0.007140
0.011522
-0.001892
0.066900
-0.017759
0.027145
0.030088
0.036069
0.128900
0.095696
0.057189
0.060273
0.114268
0.052077
0.174476
0.131547
0.043352
0.120792
0.121806
0.189772
0.136849
0.159616
0.187147
0.119866
0.132516
0.128487
0.144692
0.061907
0.181133
0.036933
0.118115
0.069835
0.068380
0.013071
0.017448
0.051089
0.003299
0.081191
-0.051949
-0.033693
-0.033027
-0.047816
0.026380
-0.016015
0.019923
0.013778
0.002841
-0.055092
-0.058357
-0.113384
-0.016921
-0.006082
-0.050844
-0.037360
-0.055924
-0.017370
-0.006287
-0.035742
-0.074174
0.017843
0.023370
-0.055827
-0.046806
-0.028908
-0.125027
-0.123857
-0.105867
-0.007394
0.203004
0.472819
0.762732
1.148260
1.346757
1.313825
1.306502
0.915755
0.720064
0.417554
0.027004
-0.147021
-0.357176
-0.288216
-0.345123
-0.235689
-0.172389
-0.017708
-0.124874
-0.049269
-0.007418
-0.037878
-0.033095
0.006154
0.065444
0.032176
0.075423
-0.001129
-0.010844
-0.052990
-0.005263
-0.089806
-0.005037
-0.060290
0.011892
0.010672
-0.028315
-0.031035
-0.010667
0.050657
0.071504
0.065591
0.068965
0.137978
0.097970
0.177156
0.159315
0.072831
0.195888
0.216557
0.224225
0.212802
0.262868
0.294227
0.271127
0.419012
0.341533
0.266171
0.360325
0.267015
0.372354
0.406759
0.415641
0.503122
0.465594
0.434033
0.495457
0.460110
0.502953
0.511140
0.522762
0.532556
0.535105
0.473377
0.500792
0.460711
0.454458
0.404025
0.392415
0.449132
0.393377
0.380209
0.407482
0.332853
0.245254
0.346223
0.228037
0.261829
0.248982
0.212004
0.169630
0.169224
0.186275
0.132908
0.186412
0.127667
0.106690
0.087844
0.047333
0.010471
0.130287
0.126002
0.009988
0.038480
0.001332
-0.010836
0.023483
-0.055645
0.009471
0.045484
0.015065
0.040625
0.051590
-0.023507
0.042454
0.001836
-0.009658
0.004089
0.045095
0.078299
0.032631
0.033820
0.011311
-0.032476
0.024646
-0.070397
-0.006345
-0.011040
0.000617
0.036827
0.004387
0.023777
0.038416
0.033155
-0.041413
0.016020
0.050067
0.066488
0.001597
0.045581
0.036547
0.061464
0.023410
0.025222
0.090155
0.028217
0.071176
0.004308
-0.040764
0.018240
0.031366
0.052952
0.043948
0.011856
0.041731
0.038746
0.116548
0.080211
0.093164
-0.006186
0.033110
-0.022220
0.019183
0.056441
0.046294
0.022060
0.090665
0.016547
0.031687
-0.033974
0.081211
0.024444
0.041707
0.056193
0.053267
0.076032
0.068170
0.027200
0.021569
0.096785
-0.030488
0.082074
0.010521
0.058553
0.134440
0.050643
0.084420
0.108523
0.060088
0.035246
0.112313
0.079173
0.131122
0.073066
0.103487
0.124634
0.080206
0.218701
0.141089
0.128401
0.182211
0.164200
0.170242
0.237543
0.224079
0.195684
0.213438
0.250581
0.160814
0.225598
0.278986
0.137320
0.193241
0.279883
0.227605
0.234412
0.229850
0.235689
0.175076
0.221391
0.103463
0.151872
0.231545
0.178918
0.184283
0.127289
0.201283
0.112099
0.118754
0.051681
0.131672
0.105175
0.114684
0.130035
0.087288
0.101433
0.047011
0.146556
0.065707
0.035350
0.109735
0.104646
0.108841
0.184220
0.106663
0.082522
0.032625
0.008622
0.019144
0.019113
0.158351
0.033737
0.105575
0.039024
0.085905
0.060162
-0.019666
0.018171
0.140112
0.396596
0.766411
1.024887
1.222269
1.441081
1.450918
1.361825
1.022070
0.653456
0.368160
0.060377
-0.087585
-0.239204
-0.225648
-0.223676
-0.124701
0.045646
0.050389
0.064177
0.068313
0.081963
0.011688
0.080887
0.129993
0.129346
0.034769
0.048951
0.138719
0.082641
0.140950
0.047477
0.037486
0.152889
0.108879
0.089307
0.129005
0.082066
0.158902
0.243288
0.242813
0.186383
0.221991
0.184318
0.164379
0.222956
0.176685
0.269569
0.244416
0.236834
0.276403
0.239397
0.349814
0.347403
0.363144
0.318507
0.484990
0.385275
0.377573
0.456863
0.482179
0.524810
0.535633
0.539269
0.513598
0.629402
0.616666
0.610580
0.607319
0.642945
0.550580
0.577608
0.530379
0.521797
0.511402
0.548385
0.496220
0.533903
0.495083
0.551506
0.511259
0.465202
0.378953
0.544225
0.398035
0.332469
0.288131
0.388564
0.307059
0.296429
0.359405
0.237976
0.261354
0.217109
0.178771
0.216287
0.213632
0.189023
0.173482
0.207420
0.130234
0.056466
0.197678
0.077558
0.138608
0.110836
0.188061
0.137087
0.084360
0.118873
0.132237
0.099260
0.175640
0.130745
0.134348
0.076730
0.098829
0.101943
0.110610
0.123951
0.055615
0.064749
0.077245
0.067676
0.072168
0.005001
0.121387
0.152467
0.075875
0.071600
0.121531
0.071031
0.071408
0.085561
0.097034
0.054884
0.071714
0.089023
0.128602
0.102171
0.049790
0.143105
0.125044
0.152354
0.100765
0.088805
0.088194
-0.028876
0.095146
0.140506
0.120801
0.122281
0.106889
0.083849
0.001801
0.131624
0.071883
0.130155
0.085398
-0.038115
0.056936
0.078573
0.145021
0.038562
0.072545
-0.013970
0.074970
0.088993
0.131311
0.021003
0.043794
0.022451
-0.010727
0.008127
-0.067694
0.041018
0.035641
0.077360
0.028068
0.041523
0.009465
0.072219
0.077923
0.031819
0.082530
0.066908
0.045436
0.035393
0.017245
0.064023
-0.028002
0.082721
0.117275
0.030267
0.143317
0.042448
0.101227
0.210115
0.059337
0.232249
0.065710
0.108318
0.173708
0.206071
0.191584
0.097093
0.141736
0.173006
0.214645
0.279442
0.196964
0.249764
0.254052
0.161097
0.266367
0.182726
0.158999
0.176324
0.183372
0.194841
0.164922
0.103018
0.157210
0.120917
0.161530
0.128693
0.054514
0.117060
0.096778
0.134296
0.173976
0.089964
-0.006137
0.039615
0.008210
0.090259
-0.030104
0.042083
-0.003963
0.082831
-0.008148
0.024910
0.010448
0.029265
-0.030606
0.066282
0.002978
0.058854
0.047190
-0.018821
-0.030807
-0.003889
-0.011118
-0.018979
0.012489
-0.058167
0.043455
-0.107117
0.019182
0.241612
0.432205
0.783226
1.078525
1.244000
1.433354
1.299171
1.116448
0.827591
0.461967
0.126955
-0.130671
-0.244848
-0.285049
-0.296422
-0.289303
-0.182759
-0.173910
-0.036503
-0.040859
0.013374
0.063411
-0.046247
-0.031148
-0.047771
0.028450
0.048504
0.008078
0.001791
0.043589
0.025227
0.044538
0.022090
0.002964
-0.004979
-0.010127
0.015432
0.035234
0.063267
0.017649
0.029636
0.083967
0.108008
0.058376
0.170250
0.079022
0.141163
0.174299
0.055346
0.174676
0.252496
0.226058
0.192084
0.267537
0.217344
0.264676
0.293247
0.343617
0.381951
0.388882
0.431262
0.405631
0.530244
0.473814
0.490227
0.428120
0.389627
0.445845
0.454474
0.425996
0.416824
0.468069
0.417607
0.486328
0.478614
0.480727
0.456324
0.509805
0.424199
0.422291
0.395687
0.335950
0.243651
0.332878
0.306372
0.253374
0.209536
0.185942
0.205207
0.195644
0.096151
0.181201
0.097440
0.129764
0.068106
0.056554
0.054187
0.016446
0.027732
-0.009510
0.052207
0.050747
-0.030889
0.030946
-0.030066
0.052530
-0.072966
-0.112661
-0.070915
0.047935
-0.011958
-0.080569
-0.012244
-0.090341
-0.038595
0.027425
-0.042302
0.013048
0.006766
0.010060
-0.002662
-0.041521
-0.062748
0.013216
-0.075899
-0.129803
-0.070182
-0.078770
-0.078097
-0.115817
-0.123344
-0.023283
-0.080456
0.011055
-0.078123
-0.102138
-0.119760
-0.020271
-0.072098
-0.094404
-0.036854
-0.088902
-0.081858
-0.165042
-0.061998
-0.092566
-0.095235
-0.075909
-0.052291
-0.086132
-0.031728
-0.033613
-0.133461
-0.107096
-0.048317
-0.098770
-0.009697
-0.095254
-0.018632
-0.113002
-0.095168
-0.159801
-0.064066
-0.201009
-0.009446
-0.196045
-0.071721
-0.057654
-0.046586
-0.060932
-0.070560
0.011539
-0.069522
-0.130023
-0.062908
-0.084031
-0.111175
-0.085913
-0.052813
-0.028274
-0.107615
-0.098234
-0.118588
-0.055266
-0.019547
-0.059186
-0.072315
-0.056057
-0.029011
-0.113184
-0.127911
-0.045676
-0.049759
-0.011151
-0.021600
-0.014722
0.006511
-0.081248
-0.048070
-0.045016
-0.020761
0.030094
0.034012
0.101295
0.055340
0.018261
-0.000523
0.008881
0.130738
0.112138
0.106703
0.131045
0.029787
0.145585
0.017362
0.074453
0.116223
0.075491
0.114082
-0.025017
0.045088
0.099860
0.067915
0.081999
0.032043
0.016494
-0.010038
0.063203
-0.069501
-0.097065
-0.097536
-0.064771
-0.042400
-0.054262
-0.049712
-0.096517
-0.097096
-0.052532
0.000618
-0.139174
-0.061320
-0.030196
-0.093074
-0.045897
-0.059908
-0.059168
-0.093356
-0.123529
-0.061305
-0.107929
-0.148268
-0.044429
-0.114046
-0.084464
-0.093666
-0.211739
-0.129497
-0.108783
-0.125414
0.277855
0.482469
0.796376
1.132190
1.225756
1.304350
1.172262
0.910523
0.683314
0.260471
0.026075
-0.251000
-0.316298
-0.357808
-0.346069
-0.181853
-0.213804
-0.075195
-0.080567
-0.154009
-0.008641
-0.055969
-0.078698
-0.053475
-0.083242
-0.058606
-0.049768
-0.048357
0.005486
-0.072511
0.024170
0.000973
-0.050860
-0.090795
-0.040606
0.018372
-0.063391
0.068215
0.016610
-0.013005
-0.028279
0.036659
0.057557
0.062618
0.128612
0.027842
0.050503
0.151889
0.174723
0.107075
0.249241
0.232114
0.192136
0.242400
0.227669
0.249829
0.321479
0.277967
0.323463
0.287088
0.301941
0.362475
0.395835
0.409318
0.386144
0.429039
0.459128
0.411313
0.412242
0.447125
0.470939
0.453664
0.506445
0.537150
0.439208
0.414796
0.367015
0.371858
0.377877
0.438974
0.297448
0.401884
0.372720
0.232870
0.299257
0.282445
0.252593
0.208194
0.191687
0.096236
0.202605
0.167689
0.109342
0.043793
0.048568
0.075153
0.047295
0.040983
-0.009652
0.080905
-0.030230
-0.018221
0.024778
-0.070118
0.020501
0.051462
-0.017001
-0.025607
-0.041173
-0.033699
0.046268
0.032838
-0.033795
-0.021513
0.011982
-0.073403
0.095215
-0.065743
-0.079757
0.030684
0.061546
0.037945
0.078538
0.012119
0.033107
0.092845
0.018686
0.029932
-0.066387
0.021153
0.028861
-0.051932
-0.062323
0.049266
-0.004233
-0.059258
0.031341
-0.069199
0.005230
-0.009235
-0.017942
-0.047016
-0.029642
-0.032425
0.038883
0.024649
0.000462
0.063015
0.023138
0.052282
-0.007423
-0.030184
-0.035444
-0.046077
0.013548
0.036168
-0.041948
0.009771
0.014068
-0.025907
-0.025328
-0.092933
-0.046612
-0.014116
0.079569
0.008746
0.031136
0.005032
-0.004081
0.011199
0.054552
0.039151
-0.040377
0.048914
-0.007904
0.015778
-0.018197
0.052422
0.034603
0.048363
0.018003
-0.047362
-0.100795
0.034965
0.026896
-0.081475
-0.016335
0.005525
0.007323
0.033133
0.087028
0.046667
0.040628
0.022542
0.052412
0.048336
0.089947
0.062640
0.039604
0.085404
0.162461
0.102235
0.116014
0.139012
0.110250
0.110893
0.197107
0.206851
0.194567
0.218674
0.226545
0.182894
0.258757
0.211812
0.153454
0.116508
0.240406
0.210877
0.211507
0.162578
0.087321
0.159243
0.171211
0.140659
0.116442
0.107393
0.088315
0.115791
0.168306
0.050664
0.071451
-0.001512
0.050415
0.039414
0.024433
0.000992
0.044282
0.046607
-0.014730
0.077899
-0.018996
-0.015409
0.074523
0.047385
0.039489
0.044762
-0.016201
0.014593
0.099105
0.016569
0.060831
0.026785
-0.031441
-0.042418
0.004277
0.008786
-0.089099
0.053570
0.154382
0.393317
0.691761
1.050036
1.256114
1.441495
1.407195
1.169668
0.926495
0.601395
0.316367
0.023946
-0.185947
-0.343174
-0.314105
-0.206307
-0.203585
-0.130376
0.066836
-0.027988
0.079193
0.005479
0.035834
0.084334
0.039483
0.030237
0.088953
0.022979
0.077463
0.073225
0.066924
0.016188
0.045848
0.081282
0.094413
0.062324
0.102737
0.153040
0.145524
0.130771
0.118637
0.204247
0.161367
0.119499
0.195385
0.106018
0.168549
0.138517
0.240382
0.170989
0.226604
0.317831
0.243579
0.291430
0.344963
0.308440
0.379739
0.383852
0.373658
0.416868
0.386059
0.530885
0.473596
0.525119
0.517205
0.427283
0.468780
0.523858
0.550709
0.508046
0.512595
0.531529
0.482993
0.517046
0.512998
0.549059
0.500668
0.438927
0.457128
0.450273
0.501667
0.477771
0.342352
0.341386
0.434575
0.303464
0.290057
0.281911
0.291334
0.360591
0.273426
0.238031
0.248328
0.183580
0.190242
0.179464
0.125191
0.079019
0.070044
0.136585
0.061521
0.161757
0.164622
0.131456
0.060691
0.039839
0.042183
0.070173
0.011636
0.082590
0.083304
-0.035474
0.122329
0.069402
0.041314
0.070704
0.053360
0.067947
0.111397
0.046708
0.059115
0.013400
0.020232
0.002680
0.141526
0.010270
-0.010006
0.090898
0.044539
0.055091
-0.021671
0.006875
-0.025605
0.035806
0.030455
0.025342
0.034281
0.093843
0.083859
0.035277
0.031131
0.020041
0.028987
-0.059192
-0.026732
0.006174
0.032483
0.013276
-0.091043
-0.010066
-0.008624
0.010867
0.101101
-0.021308
-0.014336
0.009711
0.052152
0.092068
0.107397
0.043238
0.044476
-0.018797
0.077927
0.075676
0.140506
-0.014223
-0.013803
0.083369
0.063457
-0.013355
0.106161
0.008274
0.021654
0.001215
-0.011548
0.033353
-0.061242
-0.047972
-0.064951
0.001818
-0.018138
-0.012774
-0.001482
0.064953
0.010319
0.023888
0.092349
0.013676
0.008899
0.089283
0.066820
0.027406
0.093008
0.064464
0.029734
0.027540
0.097669
0.109396
0.050397
0.033093
0.089393
0.110886
0.072389
0.085938
0.120486
0.052065
0.169103
0.095021
0.106298
0.130949
0.237828
0.084216
0.191195
0.145768
0.168988
0.158820
0.216189
0.118858
0.103180
0.131971
0.141696
0.149564
0.074167
0.127196
0.054067
0.091112
0.103793
-0.059366
0.023307
0.054544
-0.017100
0.008376
-0.044004
-0.116011
0.078302
-0.020373
-0.017226
0.019529
0.004219
0.017869
-0.100043
-0.067140
0.017061
-0.063493
-0.076262
-0.016201
-0.027830
-0.094305
-0.002161
-0.026417
-0.026381
-0.052941
-0.101859
-0.067559
-0.004645
-0.047909
-0.168497
-0.149878
-0.031034
0.164668
0.396017
0.653166
1.075586
1.300193
1.374927
1.253511
0.972587
0.677224
0.364542
-0.000980
-0.186969
-0.269235
-0.338311
-0.326624
-0.219600
-0.119322
-0.141844
-0.041213
-0.108936
-0.018309
0.045574
-0.058503
-0.076936
-0.054325
-0.026396
-0.041704
-0.044228
-0.024349
-0.100428
-0.069356
-0.009409
-0.071885
-0.039403
0.044090
0.091410
-0.063526
0.032571
0.044683
0.078009
0.004715
0.123723
0.071692
0.061160
0.067216
0.096288
0.095126
0.097475
0.158651
0.207008
0.122641
0.118951
0.150227
0.184404
0.216291
0.242903
0.262944
0.305263
0.281105
0.306388
0.286610
0.302320
0.358782
0.400492
0.355939
0.490996
0.472667
0.408262
0.409844
0.379715
0.466819
0.344140
0.439630
0.390615
0.372436
0.409358
0.384454
0.314653
0.435483
0.348217
0.334957
0.323420
0.248124
0.213833
0.309368
0.253110
0.207630
0.143600
0.071755
0.097251
0.112387
0.110865
0.039203
0.082424
0.153975
0.052490
0.048122
-0.025754
0.061908
-0.010079
-0.025475
-0.001033
0.025863
-0.086086
-0.111950
-0.052661
-0.046279
-0.080961
-0.039897
-0.106651
-0.092074
-0.085594
-0.090242
-0.074885
-0.173212
-0.123422
-0.107562
-0.042653
-0.142678
-0.053019
-0.041718
-0.017419
-0.020212
-0.132254
-0.088160
-0.086117
-0.148586
-0.068512
-0.160081
-0.101169
-0.064924
-0.064743
-0.092915
-0.112388
-0.038015
-0.085014
-0.076138
-0.087028
-0.215418
-0.138086
-0.048072
-0.050875
-0.129913
-0.094276
-0.027995
-0.135306
-0.050836
-0.011472
-0.142551
-0.151875
-0.101628
-0.077621
-0.060117
-0.052165
-0.097924
-0.134633
-0.061237
-0.093160
-0.150564
-0.147729
-0.064291
-0.097430
-0.144288
-0.055047
0.001036
-0.120832
-0.073230
-0.115074
-0.113720
-0.110025
-0.063318
-0.003690
-0.102201
-0.109141
-0.072328
-0.099885
-0.169269
-0.149630
-0.133947
-0.024318
-0.059269
-0.070891
-0.099511
-0.164820
-0.139081
-0.092959
-0.061016
-0.060180
-0.153155
-0.123584
-0.093550
-0.108559
0.017433
-0.117284
-0.036049
-0.103785
-0.078790
-0.042150
-0.086201
-0.127282
-0.052137
0.019928
0.011637
0.003795
0.061365
0.029158
0.109701
0.016017
0.043500
0.111349
0.097920
0.169425
0.044154
0.079881
0.163492
0.117102
0.057342
0.121521
-0.023201
0.062964
0.007976
0.027099
0.114456
-0.013618
-0.117107
0.005065
-0.064519
-0.071137
-0.007120
-0.051336
-0.072258
-0.083620
-0.090483
-0.098509
-0.123844
-0.017166
-0.039676
-0.054436
-0.068222
-0.081371
-0.146747
-0.097494
-0.003299
-0.041017
-0.048882
-0.145717
-0.012219
-0.065144
-0.076463
-0.064642
-0.113080
-0.028397
-0.098147
-0.044840
-0.099012
-0.069712
-0.105170
-0.099171
0.001355
0.135656
0.546374
0.854692
1.175466
1.361965
1.336580
1.135131
0.920223
0.502394
0.262641
-0.152688
-0.291345
-0.363681
-0.330055
-0.363045
-0.312681
-0.229190
-0.117748
-0.095516
-0.032073
-0.136171
-0.160766
-0.096503
-0.180969
-0.002665
-0.110919
-0.044334
0.016419
-0.149950
-0.069699
-0.082048
-0.023179
-0.068130
-0.059606
-0.013560
0.015209
-0.058132
-0.020013
-0.006876
0.039267
0.025700
0.016494
0.074347
0.117993
0.040191
0.086216
0.139431
0.096862
0.139104
0.167388
0.150206
0.223095
0.168946
0.264242
0.249600
0.235433
0.372879
0.316203
0.277928
0.312947
0.333333
0.420691
0.334061
0.491427
0.475197
0.448643
0.398650
0.477630
0.404414
0.455124
0.523478
0.433478
0.498608
0.361607
0.399128
0.448041
0.435315
0.345046
0.407118
0.316164
0.351540
0.375744
0.290194
0.369136
0.306679
0.175316
0.200537
0.247164
0.237119
0.230799
0.182016
0.151092
0.139628
0.163271
0.112296
0.049442
0.030668
0.061314
0.023688
0.038491
0.044278
0.031184
0.080791
0.016298
-0.002334
0.062759
0.002495
0.069272
0.006115
0.044338
-0.056583
-0.013030
0.039607
-0.075097
-0.017424
-0.049265
0.050699
-0.035615
-0.022895
-0.045745
-0.052210
-0.000748
-0.050578
0.078774
-0.106062
0.035995
0.002545
0.043969
0.061727
-0.030268
-0.001661
0.010231
-0.009468
-0.001087
0.056868
0.078535
0.056289
-0.003481
-0.008695
-0.038582
-0.005084
0.010644
0.021592
0.062480
-0.038861
-0.000279
-0.019675
0.029564
-0.010727
0.065307
-0.006997
0.051223
0.073616
-0.019661
0.049995
0.060039
0.072568
-0.001564
-0.015201
0.029997
0.028381
0.052894
-0.003223
0.058420
-0.034976
0.040255
-0.002269
0.045685
0.054234
0.078523
0.009979
-0.011489
0.068738
0.045425
0.022711
0.018080
0.039074
-0.015701
-0.074020
-0.002351
0.097814
-0.081265
0.121568
-0.006040
0.037209
0.026196
0.078334
0.109233
0.028685
0.040409
-0.007829
0.033289
0.036172
0.046434
0.086024
0.057855
0.155114
0.111915
0.069317
0.062950
0.158179
0.202111
0.277424
0.154558
0.164498
0.184541
0.152318
0.131875
0.247111
0.109200
0.227909
0.226921
0.180157
0.199150
0.184887
0.237819
0.143319
0.160620
0.197820
0.212112
0.193452
0.219795
0.184470
0.169181
0.090516
0.114863
0.166348
0.068905
0.086407
0.074403
0.119042
0.136129
0.087834
0.068740
0.036638
0.061792
0.027851
0.097208
0.062754
0.069382
0.089284
0.075450
0.021534
-0.023177
-0.019501
0.070647
0.039404
0.067476
0.086120
0.025712
0.067589
0.066117
0.057080
0.013321
-0.005669
-0.077413
0.048740
0.056987
0.200843
0.400168
0.871572
1.150993
1.327469
1.497715
1.424520
1.168227
0.840154
0.523816
0.189901
-0.030396
-0.176536
-0.189866
-0.236824
-0.155797
-0.110202
-0.029049
0.045125
0.075552
0.097749
0.136214
0.014102
0.074890
0.095400
0.066957
0.024479
0.136382
0.065020
0.074183
0.081456
0.041125
0.090841
0.096534
0.186182
0.118047
0.121277
0.017123
0.130632
0.040573
0.101500
0.159388
0.131206
0.107632
0.191142
0.115272
0.260166
0.208412
0.190668
0.266526
0.364796
0.307280
0.290981
0.369628
0.300404
0.377994
0.344193
0.399443
0.433891
0.469111
0.502583
0.509261
0.512921
0.566894
0.489264
0.593802
0.537145
0.596522
0.547786
0.534679
0.614959
0.613074
0.536835
0.623342
