0.029874
-0.003302
-0.012441
-0.021098
-0.003344
0.038739
-0.010989
0.030759
0.013125
-0.027302
-0.057644
0.030331
0.026268
-0.030681
-0.047662
0.032239
0.074111
-0.007989
-0.056670
-0.029618
-0.052716
0.063190
0.087509
-0.011967
0.029246
-0.031495
-0.004466
0.071611
0.018098
-0.009617
0.039488
0.003058
-0.002007
0.046681
0.056750
0.062224
0.082757
0.049842
0.009853
0.080535
0.018968
0.006333
0.086712
0.127668
0.022412
0.146552
0.164924
0.136576
0.202154
0.204801
0.131321
0.135271
0.238056
0.236543
0.182338
0.242182
0.283773
0.187668
0.177374
0.226564
0.190918
0.167347
0.237554
0.210618
0.191115
0.180317
0.179085
0.098874
0.156388
0.100104
0.103586
0.120512
0.069933
-0.006005
0.085385
0.052693
0.037251
0.057128
0.021677
0.052718
0.043564
0.056867
0.032353
0.006288
0.047334
-0.025724
0.013678
0.009816
0.082304
0.022472
0.056141
0.021329
0.047693
0.015257
0.018179
0.077082
0.095750
0.056279
-0.061474
0.097425
0.091739
0.041518
-0.099991
0.011223
0.237051
0.465433
0.735879
1.058256
1.344216
1.434477
1.373804
1.142149
0.924102
0.509141
0.275157
0.063131
-0.114528
-0.328542
-0.235435
-0.221210
-0.078709
0.014124
0.071265
0.013680
0.065304
0.081456
0.085241
0.134669
0.065912
0.134493
0.011578
0.118880
0.055053
0.058522
0.071571
0.056859
0.029348
0.085420
0.050300
0.071998
0.163902
0.110197
0.073665
0.047647
0.089245
0.108725
0.171124
0.031988
0.193835
0.110348
0.124511
0.147134
0.150204
0.159797
0.235349
0.244095
0.314703
0.307543
0.282024
0.301363
0.378840
0.370753
0.374578
0.407518
0.370111
0.464326
0.440804
0.448446
0.517287
0.529674
0.520197
0.491736
0.523776
0.578722
0.606684
0.548409
0.545614
0.614053
0.584474
0.466551
0.562970
0.507632
0.629554
0.611185
0.521142
0.450471
0.449185
0.459617
0.506801
0.472394
0.487239
0.409495
0.377811
0.405430
0.357256
0.362408
0.306032
0.302264
0.273445
0.282347
0.181771
0.246769
0.288957
0.183222
0.203311
0.115454
0.161692
0.228140
0.165642
0.159710
0.153928
0.088766
0.078036
0.077938
0.163496
0.127074
0.072830
0.022048
0.026579
0.013933
0.158597
0.048187
0.066135
0.060009
0.152889
0.001298
0.037140
0.099200
0.009779
0.057158
0.081181
0.111349
0.112169
0.144198
0.083476
-0.002046
0.056935
0.104351
0.030582
0.097649
0.106390
0.049291
0.099817
0.025260
0.026744
0.124229
0.024134
0.048200
0.070706
-0.012492
0.123300
0.104109
0.034736
0.035838
0.074531
0.052923
0.051555
0.109062
0.015281
0.046682
0.153136
0.094174
0.068233
0.068161
0.119995
0.071571
0.087127
0.084562
0.061742
0.061733
0.068113
0.082170
0.124568
0.037834
0.099716
0.074171
-0.017537
0.104047
0.081376
0.064872
0.115172
0.085468
0.107891
0.021572
0.098840
0.070439
0.073710
0.097109
0.028799
0.099119
0.122088
0.023913
-0.004173
0.022290
0.081992
0.070855
0.056612
0.027562
0.109411
0.074304
-0.005510
0.034513
0.067924
0.080754
-0.014058
0.058870
0.046792
0.102808
0.155983
0.068170
0.069996
0.100027
0.144097
0.057351
0.190637
0.134000
0.156969
0.123424
0.226414
0.224095
0.215411
0.162812
0.162397
0.171977
0.258166
0.226707
0.260086
0.208787
0.253256
0.196855
0.180531
0.226185
0.197009
0.176464
0.080525
0.214910
0.158361
0.078017
0.149140
0.090577
0.172943
0.091450
0.145958
0.132241
0.091044
0.072258
0.051756
0.069183
0.080621
0.036109
-0.016142
0.016840
0.039982
0.016589
0.000881
0.129518
0.059501
0.044704
0.049266
0.046947
0.029422
-0.005756
0.012587
0.015674
-0.002007
-0.006110
0.065645
0.059474
0.039771
0.029188
0.010520
-0.015520
0.011064
-0.086866
0.010866
-0.084212
0.066343
0.230977
0.524756
0.806996
1.122105
1.367032
1.396593
1.231538
1.051227
0.692633
0.454196
0.157000
-0.115796
-0.190073
-0.279544
-0.247556
-0.281018
-0.131018
-0.045077
0.042327
-0.034408
-0.056973
-0.017174
0.058082
0.013509
0.012234
0.062487
-0.053172
-0.002920
-0.039177
-0.019267
0.053771
-0.024984
-0.015838
-0.084851
0.049560
-0.057121
0.037872
0.033024
-0.033641
0.062923
0.013333
0.019842
0.151523
0.040790
0.127805
0.080354
0.076903
0.041128
0.089288
0.108619
0.231588
0.161220
0.174969
0.168753
0.223132
0.260929
0.225516
0.253719
0.260718
0.362517
0.265289
0.396654
0.420715
0.372924
0.457326
0.495892
0.404161
0.423935
0.426145
0.444894
0.451326
0.441917
0.458462
0.542640
0.384818
0.455115
0.477303
0.359303
0.429836
0.497639
0.458916
0.417394
0.421833
0.384024
0.309338
0.382307
0.406701
0.254633
0.265151
0.305020
0.223426
0.230276
0.208206
0.180637
0.119653
0.170964
0.093732
0.107585
0.083061
0.062790
0.069166
0.041300
0.087028
0.062301
0.026687
0.026738
-0.024378
-0.021736
-0.090783
-0.025813
0.008700
-0.042656
-0.065638
-0.019685
0.001062
0.001217
-0.088822
-0.086422
0.006411
0.040444
-0.074059
-0.069479
-0.075323
-0.021731
-0.075886
-0.026516
0.023656
-0.026662
0.032052
-0.015023
-0.072921
-0.011317
-0.077128
0.008968
-0.080220
-0.084375
0.017641
-0.084744
-0.000193
-0.102033
-0.011767
-0.065144
-0.036497
-0.014156
-0.060544
-0.047225
-0.079945
-0.102448
-0.053207
-0.036465
-0.042757
-0.019601
0.024882
-0.110053
-0.082199
-0.003231
-0.071336
-0.032377
-0.030322
0.052325
-0.045313
-0.008399
0.033901
-0.054585
-0.117768
-0.011928
-0.023099
0.000242
-0.042262
-0.017003
-0.015496
-0.052824
-0.057281
-0.099921
-0.142234
-0.017450
-0.088595
-0.005256
-0.013930
-0.065017
-0.037809
-0.047568
-0.081645
-0.009257
0.004137
-0.001735
0.021109
-0.022242
0.028715
-0.118994
0.007004
-0.008140
-0.030758
-0.024325
-0.141651
-0.101530
-0.053446
-0.070347
-0.016635
-0.023477
-0.038842
-0.094284
-0.046953
-0.065807
-0.007483
-0.068814
-0.062422
-0.024050
-0.017702
0.030678
0.115808
-0.003889
-0.010147
0.024175
0.062252
0.127203
0.030343
0.067077
0.068193
0.140164
0.101013
0.152012
0.114980
0.074798
0.107105
0.136114
0.168457
0.129445
0.112495
0.089801
0.110686
0.058385
0.026386
0.055537
0.141910
0.017590
0.055753
0.018772
-0.006614
0.059608
-0.009981
0.007456
0.030175
-0.012403
0.019575
-0.039238
-0.002854
-0.041751
-0.026544
-0.016238
-0.023290
0.006533
-0.094356
-0.119907
-0.062158
-0.051840
0.012071
-0.017591
-0.041756
-0.079531
-0.082010
-0.103897
-0.096217
-0.009724
-0.038721
-0.048028
0.038317
-0.076840
-0.038589
-0.094661
-0.085497
-0.151843
0.057769
0.225453
0.441535
0.771252
1.136407
1.310879
1.379899
1.162069
0.990269
0.616918
0.373455
0.069829
-0.129932
-0.269889
-0.344702
-0.361195
-0.238679
-0.225033
-0.042887
-0.081557
-0.009654
-0.015430
0.033527
-0.014376
0.008204
-0.020816
-0.079358
-0.080501
0.005345
0.039473
0.001138
0.064204
-0.021856
-0.092937
-0.035164
0.045943
-0.025435
0.087264
0.007865
0.125665
-0.074062
0.052219
0.041862
0.043043
0.060948
0.087379
0.059647
0.121253
0.136525
0.144361
0.137443
0.189911
0.169147
0.193371
0.156295
0.281758
0.186768
0.312887
0.272774
0.254511
0.394193
0.342494
0.286740
0.464713
0.429220
0.400582
0.479595
0.478022
0.477932
0.503793
0.481062
0.526326
0.567885
0.523933
0.415148
0.584835
0.514156
0.485733
0.493144
0.361565
0.454098
0.381882
0.443921
0.446487
0.366856
0.281151
0.374141
0.346232
0.377148
0.344202
0.296381
0.244743
0.324213
0.252585
0.180681
0.238584
0.141396
0.177365
0.108073
0.156071
0.163217
0.094968
0.087284
0.158206
0.063311
-0.037669
0.050216
0.062882
0.047763
0.098369
0.090783
0.000032
0.046320
0.025602
0.085456
0.044347
0.005502
0.016685
0.058117
0.064180
0.038994
0.029958
0.053675
0.000764
0.067995
0.129519
0.006074
0.090486
0.079878
0.040445
-0.017314
0.039508
0.040145
0.080589
0.053986
0.036764
0.115111
0.022019
0.098374
0.013799
0.062864
-0.044536
0.078846
-0.043561
-0.063280
-0.009229
0.038957
0.051154
0.116981
-0.032857
0.042553
0.093106
0.074202
0.069148
0.005964
0.055519
0.053778
-0.000162
0.058798
0.067579
0.027286
0.101739
0.058579
0.073377
-0.019983
-0.040290
0.061335
0.056463
0.048216
0.059512
0.000729
0.074869
-0.016096
0.066976
0.032719
0.058335
0.076660
0.081803
0.117934
0.073651
0.093809
0.102430
0.033959
0.055189
0.070660
0.102695
0.111621
0.120563
0.077923
0.063445
0.062215
-0.013067
0.024071
0.095380
0.075700
0.084482
0.078702
0.024691
0.079124
0.191103
0.155520
0.104838
0.075331
0.086684
0.060511
0.133005
0.077203
0.131541
0.094217
0.111763
0.118182
0.175736
0.108046
0.155178
0.200049
0.241607
0.214364
0.186676
0.238345
0.141471
0.219412
0.259414
0.209881
0.313076
0.258559
0.169359
0.228330
0.242537
0.227138
0.285678
0.147370
0.230595
0.196250
0.128932
0.099645
0.223723
0.157095
0.141546
0.248274
0.090036
0.109000
0.116490
0.132980
0.053083
0.189343
0.117917
0.081839
0.098126
0.131494
0.102792
0.147305
0.061815
0.080736
0.082321
0.119544
0.084206
0.212028
0.140592
0.063032
0.094051
0.020868
0.096094
0.165890
0.010162
0.165241
0.038681
0.042849
0.116654
0.130942
0.006160
-0.043936
-0.000751
0.098094
0.096103
0.421025
0.770360
1.045782
1.261608
1.500000
1.415917
1.281823
1.010076
0.612111
0.341051
0.069839
-0.103171
-0.205790
-0.217440
-0.212028
-0.079808
-0.002670
-0.055786
0.020445
0.071894
0.094685
0.166122
0.017927
0.065680
0.033218
0.106054
0.082572
0.104539
0.055209
0.083086
0.137438
0.067840
0.036263
0.072513
0.175324
0.119975
0.093735
0.098921
0.168837
0.040265
0.140398
0.179700
0.140794
0.189745
0.158844
0.185738
0.245160
0.179754
0.202578
0.238489
0.211068
0.215361
0.245755
0.292688
0.297402
0.314349
0.333119
0.345164
0.369904
0.432503
0.466169
0.437191
0.477368
0.401092
0.487213
0.504832
0.473262
0.567317
0.489300
0.542744
0.574710
0.533921
0.664827
0.563168
0.545441
0.526331
0.542846
0.555113
0.560350
0.501265
0.493055
0.530984
0.382715
0.508645
0.401426
0.528089
0.407998
0.313524
0.426434
0.416118
0.306807
0.389272
0.311373
0.212075
0.192600
0.172564
0.181885
0.166937
0.179250
0.209727
0.159143
0.107106
0.160817
0.129815
0.153043
0.099429
0.205398
0.163926
0.076868
0.038007
0.141229
0.059920
0.106490
0.132657
0.070686
0.006326
0.107196
0.063483
0.041706
0.128755
0.122232
0.037075
0.066390
0.042847
0.148114
0.138245
0.146119
0.065502
0.100712
0.101747
0.070087
0.139910
0.056017
0.040980
0.062442
0.007830
0.055274
0.043150
0.068100
0.085405
0.067463
-0.053393
0.067863
-0.028475
0.041891
-0.001238
0.023146
0.025395
-0.008296
0.020384
0.036223
0.098634
0.054744
0.051502
0.094142
0.061666
0.033324
-0.043224
0.030731
0.025960
0.038972
0.007810
0.076084
0.087730
0.056816
0.021653
0.065212
0.030097
0.085769
0.032992
0.072212
0.088971
0.012128
0.034157
0.096254
0.002436
0.045088
-0.005422
0.054089
-0.003366
-0.033573
0.158757
-0.028595
0.009150
0.023527
0.082357
0.004853
0.089214
0.131545
0.001461
0.006892
0.009115
0.048925
0.088510
-0.009898
-0.034044
0.081885
-0.024987
0.026787
0.067569
0.060016
-0.013049
0.097011
0.018879
0.034596
0.072836
-0.023736
0.051701
0.048329
0.083543
0.092608
0.127985
0.098456
0.122760
0.165439
0.152538
0.207388
0.200318
0.172398
0.169219
0.116778
0.148708
0.173224
0.177907
0.218105
0.161382
0.171427
0.120215
0.189268
0.160831
0.053081
0.140877
0.095552
0.065081
0.059623
0.053787
0.045720
0.065823
0.042200
0.084316
0.040787
0.055347
0.073355
-0.017613
0.012394
-0.025541
-0.000664
0.043358
-0.034337
-0.042885
-0.038169
-0.014291
-0.052099
0.033604
0.000479
-0.000935
-0.027150
-0.057719
-0.034557
-0.080751
-0.025399
-0.038059
-0.013415
-0.052871
-0.080328
-0.030823
0.029049
-0.069882
-0.079961
-0.084114
-0.126114
-0.104393
0.071764
0.426178
0.683611
0.933658
1.210891
1.425574
1.220471
1.132641
0.757318
0.462639
0.165746
-0.060948
-0.205436
-0.356288
-0.297796
-0.299560
-0.262465
-0.165080
-0.023325
-0.052255
0.020849
-0.012664
-0.014987
0.033115
-0.031542
-0.013131
-0.002597
-0.078132
0.044576
-0.138911
-0.047744
-0.044605
-0.048712
0.019917
0.006489
-0.025243
-0.007713
-0.073409
-0.054957
0.003898
0.059129
0.001007
0.076829
0.037296
0.007029
0.010566
-0.037737
0.014388
0.001937
0.055731
0.154931
0.120266
0.181573
0.101736
0.171209
0.188472
0.188875
0.140501
0.192034
0.203562
0.307662
0.362021
0.246767
0.396832
0.323731
0.337634
0.376606
0.424741
0.366141
0.418744
0.412246
0.456108
0.513994
0.484838
0.298730
0.403233
0.432832
0.415941
0.360754
0.303674
0.322110
0.404544
0.344989
0.369573
0.319328
0.261495
0.315158
0.266407
0.278458
0.242580
0.183109
0.178055
0.145018
0.067840
0.116365
0.152393
0.080302
0.104681
0.034943
0.086769
0.121669
0.038290
0.040710
-0.026576
0.020298
-0.044311
-0.157145
-0.004861
-0.065309
-0.014513
-0.055819
-0.033942
0.047590
-0.070235
-0.051311
-0.110923
-0.064246
-0.117288
-0.071296
-0.122156
0.029649
-0.052910
-0.101575
-0.131324
-0.104520
-0.036080
-0.047591
-0.014286
-0.038094
-0.044261
-0.077986
-0.122499
-0.032048
-0.111218
-0.199163
-0.134418
-0.108213
-0.119391
-0.047524
-0.066251
-0.049462
-0.131348
-0.090245
-0.066028
-0.097379
-0.139041
-0.049009
-0.091430
-0.106796
-0.067533
-0.107059
-0.091245
-0.060676
-0.054651
-0.071837
-0.072449
-0.114240
-0.045886
-0.088094
-0.057150
-0.057582
-0.058362
-0.086563
-0.061892
-0.055917
-0.115635
-0.076018
-0.103026
-0.057022
-0.072809
-0.077331
-0.196964
-0.027232
-0.114402
-0.105739
-0.028911
-0.058408
-0.102541
-0.041950
-0.061654
-0.142107
-0.054936
-0.118881
0.005492
-0.044846
-0.012659
-0.092106
0.016319
-0.046816
-0.079863
0.015597
-0.074627
-0.089196
-0.032031
-0.045185
-0.049601
-0.058874
-0.029909
-0.016800
-0.032551
0.020579
0.017772
-0.124151
-0.012301
-0.055669
-0.035991
-0.057310
-0.052759
0.035235
0.019783
-0.025201
0.055830
0.032632
0.031237
0.020656
0.061440
0.092111
0.030179
0.097792
0.211553
0.118334
0.084250
0.083549
0.047771
0.031802
0.160270
0.110946
0.047693
0.056108
0.033034
0.103239
0.063996
0.023017
0.083463
0.082188
-0.004780
0.071132
0.067021
-0.052675
-0.038379
-0.017416
-0.023626
-0.035198
-0.057833
-0.054157
-0.059248
-0.097006
-0.015360
-0.046457
-0.040894
-0.161047
-0.056696
0.013244
0.017411
-0.014167
-0.118395
0.016902
-0.061943
-0.060330
-0.062281
-0.009561
-0.103792
-0.020559
-0.038436
-0.037586
0.026715
-0.122927
-0.086877
-0.108346
-0.097947
-0.142418
-0.086206
-0.077949
0.202421
0.452696
0.766364
1.054635
1.298667
1.294996
1.150141
0.977260
0.707114
0.304241
0.085659
-0.178929
-0.297717
-0.336087
-0.379208
-0.288113
-0.244304
-0.082994
-0.052929
-0.124251
-0.054710
-0.003228
-0.073709
-0.089758
0.036886
-0.021550
-0.065940
0.053994
-0.017305
-0.029894
-0.016095
-0.031843
-0.020788
-0.026599
0.014177
0.054578
0.073411
0.044390
0.046169
0.047903
0.003670
0.050302
0.033181
-0.006431
0.071641
0.059327
0.086740
0.142976
0.106118
0.125764
0.119179
0.207140
0.138883
0.155024
0.249885
0.234756
0.232186
0.352929
0.272113
0.304009
0.367082
0.356263
0.370501
0.378375
0.391293
0.466338
0.459680
0.480837
0.482709
0.485469
0.385002
0.478475
0.509624
0.504130
0.463262
0.511067
0.452327
0.482793
0.337822
0.470769
0.352806
0.418649
0.460680
0.301350
0.361694
0.331060
0.279137
0.322139
0.255681
0.218336
0.261005
0.273561
0.266992
0.167605
0.208055
0.150150
0.143604
0.127003
0.025764
0.131856
0.085042
0.072571
0.065689
0.086103
-0.001495
0.096086
0.101058
-0.047746
0.033821
0.027729
0.061669
0.005441
0.053909
0.113986
0.049501
0.058176
0.021674
0.059892
0.079809
0.059817
0.021570
0.031467
0.014246
0.051578
-0.026512
0.041117
0.017092
0.016420
-0.051542
0.007099
0.143419
0.111734
-0.042113
-0.012981
0.012409
-0.001785
0.094470
0.026025
-0.043032
0.022298
0.018257
0.078037
0.054426
0.026168
0.004466
0.039728
0.066222
0.085134
-0.002465
-0.017084
0.040212
0.019949
0.109302
0.058832
0.011486
0.035689
-0.023241
0.020786
-0.000479
0.055084
0.011203
-0.004660
-0.012016
0.014549
0.088656
0.038778
0.074895
-0.003791
-0.021468
0.032282
0.052891
-0.010007
-0.000009
0.013235
0.058496
0.034756
-0.019792
0.029367
0.071495
0.086181
0.097615
-0.011429
0.034041
-0.053303
0.076778
0.177126
0.083387
-0.032837
0.070606
-0.037720
0.115905
0.031032
0.052102
0.013850
0.029171
0.099431
0.027144
0.060600
0.067242
0.030037
0.007448
0.021580
0.043594
0.067874
0.014874
0.087565
0.053400
0.124841
0.140065
0.006849
0.153128
0.192731
0.125546
0.111703
0.208590
0.130170
0.212892
0.184586
0.163893
0.160979
0.223933
0.245253
0.178515
0.192648
0.228117
0.224353
0.101789
0.177903
0.140062
0.177260
0.225725
0.103000
0.194438
0.188381
0.180600
0.120708
0.054767
0.159645
0.080188
0.048042
0.105717
0.030873
0.093163
0.073067
0.092053
0.092253
0.047283
0.072465
-0.003537
0.066333
0.039283
0.041218
0.037187
0.065071
0.049205
-0.049013
0.052009
-0.069511
-0.009081
-0.038270
0.007446
0.051569
0.025720
0.028873
-0.042275
-0.016177
-0.017331
0.042459
-0.036753
0.001816
-0.055604
0.015888
0.112853
0.358183
0.649171
0.861403
1.182829
1.393710
1.324967
1.243113
0.992845
0.667830
0.332521
0.078758
-0.088268
-0.264911
-0.295645
-0.243221
-0.181035
-0.086620
-0.046502
0.017009
-0.086134
0.047349
0.061120
0.060898
0.050081
-0.002515
0.032334
0.038414
-0.036479
-0.045071
0.067361
0.044134
0.059492
0.083652
0.043060
0.067288
0.058756
0.038961
0.107460
0.028574
0.016492
0.107284
0.120284
0.101971
0.113301
0.095071
0.154863
0.169259
0.083045
0.144517
0.202727
0.141968
0.127814
0.135803
0.236146
0.264653
0.272706
0.285174
0.336169
0.362966
0.378806
0.331243
0.375560
0.411968
0.437191
0.418285
0.380282
0.423837
0.462531
0.559661
0.489679
0.551979
0.479906
0.505550
0.495603
0.483275
0.495271
0.547598
0.538277
0.474719
0.443458
0.401144
0.437882
0.419032
0.417526
0.354646
0.320005
0.350973
0.400493
0.258383
0.254243
0.332794
0.236843
0.181951
0.207590
0.194933
0.077874
0.124697
0.091797
0.128750
0.102180
0.084486
0.042248
0.001108
0.069055
0.051511
0.047191
0.003782
-0.010967
-0.008835
0.043840
-0.045996
0.053737
0.005147
0.049221
-0.040982
-0.094843
0.001047
-0.017244
-0.065542
0.060443
-0.016911
-0.010881
-0.056137
0.048989
0.005494
-0.002200
0.041610
-0.055334
-0.002904
0.006230
0.008209
0.018788
-0.092042
-0.077924
-0.051635
-0.079239
-0.035456
-0.042893
-0.081549
0.011203
-0.056322
0.028579
0.051583
-0.016830
-0.045142
-0.024755
-0.003294
-0.031665
-0.038998
0.014485
-0.021656
-0.069955
-0.041099
-0.093247
0.016594
0.051882
-0.053513
0.022151
-0.047483
-0.052155
-0.018349
-0.014872
-0.005471
-0.055487
-0.040323
-0.056760
-0.013789
-0.080749
-0.067505
-0.054273
-0.028616
-0.085956
-0.036110
-0.068860
-0.044524
-0.050233
0.018534
-0.017978
-0.047272
-0.049835
-0.027724
-0.041967
-0.003322
-0.031546
-0.001818
-0.044879
-0.074561
-0.048058
-0.035556
-0.030295
-0.073184
-0.072638
-0.078629
-0.014307
-0.179167
-0.075995
-0.036295
-0.085634
-0.040479
-0.060994
-0.046136
-0.022074
-0.115913
-0.052076
0.033512
-0.038111
-0.035232
0.015955
-0.038317
-0.012268
0.053004
0.033735
0.045932
0.079384
0.035396
0.056637
0.080922
0.054721
0.066391
0.097439
0.125716
0.050741
0.109514
0.092154
0.074492
0.105454
0.094429
0.136383
0.038857
0.090223
0.066634
0.094163
0.004169
0.020913
-0.057725
-0.016391
0.000594
-0.041062
0.018585
-0.066782
-0.036823
-0.068392
-0.033898
-0.081062
-0.113382
-0.131965
-0.103911
-0.044138
-0.140485
-0.068359
-0.055853
-0.037112
-0.081702
-0.100851
-0.072174
-0.076463
-0.146580
-0.089625
-0.079647
-0.040419
-0.065841
-0.100954
-0.115875
-0.039460
-0.090464
-0.070471
-0.100567
-0.115230
-0.172298
-0.138105
-0.197009
-0.132666
0.048886
0.275416
0.474987
0.926740
1.164736
1.235753
1.235261
1.053861
0.800946
0.442662
0.184881
-0.045671
-0.329737
-0.362198
-0.374603
-0.407334
-0.256559
-0.231321
-0.119399
-0.104018
-0.091565
-0.115464
-0.047207
-0.022978
-0.105765
-0.121367
-0.128638
-0.006196
-0.085011
-0.040712
-0.032106
-0.084410
-0.070752
-0.087931
-0.129566
-0.070484
-0.017908
-0.062706
0.015699
-0.061655
-0.010512
0.020509
-0.052143
0.049352
-0.089718
-0.084219
0.043186
0.030263
0.007859
0.059764
0.101649
0.071390
0.072507
0.139654
0.154776
0.095851
0.205124
0.147125
0.150228
0.199654
0.240823
0.301506
0.249001
0.270414
0.285444
0.248559
0.362474
0.346002
0.267993
0.453836
0.378220
0.359917
0.533460
0.372033
0.400728
0.375122
0.418848
0.397768
0.419729
0.335638
0.401180
0.316213
0.296765
0.264952
0.333770
0.263281
0.213024
0.204443
0.159412
0.188217
0.167979
0.127416
0.096963
0.084476
0.132813
0.109434
0.086175
0.020980
-0.011036
0.034333
-0.016455
0.031493
-0.008249
-0.044541
-0.040037
-0.025366
-0.125656
-0.071744
-0.052967
-0.022282
-0.038573
-0.024433
-0.037164
-0.078192
-0.037943
-0.125024
-0.093609
-0.082326
-0.030652
-0.088793
-0.095676
-0.068716
-0.153472
-0.117529
-0.051696
-0.054626
-0.140122
-0.183049
-0.127579
-0.080378
-0.140947
-0.042967
-0.041326
-0.143332
-0.084315
-0.022610
-0.161355
-0.130565
-0.089748
-0.114997
-0.045173
-0.070008
-0.096466
-0.110999
-0.078155
-0.117396
-0.075549
-0.134912
-0.061832
-0.103038
-0.112533
-0.156187
-0.094723
-0.106041
-0.067501
-0.151546
-0.118897
-0.054973
-0.078688
-0.090051
-0.089226
-0.038313
-0.094929
-0.104035
-0.093619
-0.053556
-0.067860
-0.045379
-0.026755
-0.173629
-0.064613
-0.056184
-0.123982
-0.048734
-0.091526
-0.047607
-0.027621
-0.129105
-0.056630
0.059874
-0.043217
-0.034102
-0.107458
-0.016415
-0.152062
0.055642
-0.019454
-0.052427
-0.038716
-0.046138
-0.002994
-0.023210
-0.050265
-0.026984
0.007778
-0.051291
-0.097033
-0.042982
-0.013634
-0.112478
-0.173942
-0.067819
-0.019164
-0.083678
0.021544
-0.070404
-0.053205
-0.030391
0.044438
0.016706
0.056786
0.026879
0.033453
0.033950
0.113888
0.136364
0.109608
0.112465
0.132251
0.123402
0.057891
0.061134
0.137665
0.128944
0.169956
0.130619
0.074329
0.113327
0.133173
0.072810
0.120009
0.048561
0.043294
0.089942
0.069518
0.079466
0.013560
0.030560
0.068845
-0.005235
-0.041809
0.056308
-0.052926
-0.056690
-0.018496
-0.028183
-0.042351
-0.054405
-0.034840
-0.044983
-0.038315
0.016976
0.012879
-0.078709
-0.035763
-0.008053
-0.004878
-0.092797
-0.019740
0.051622
0.031329
-0.039275
-0.020591
-0.023237
-0.089881
-0.016719
-0.030310
-0.096251
-0.028679
-0.114184
-0.111140
-0.123359
0.057075
0.187509
0.416733
0.754190
1.106078
1.327528
1.398916
1.382596
1.135638
0.757527
0.440938
0.106215
-0.074826
-0.226137
-0.331708
-0.305671
-0.290427
-0.158484
-0.059594
-0.134417
0.038704
-0.060314
-0.062447
0.002034
-0.001151
-0.034090
-0.001305
0.014264
0.043568
-0.001143
0.033820
0.070597
0.003074
-0.036379
0.052338
-0.026226
0.054777
0.020291
0.036073
0.031361
0.088141
-0.007721
0.056222
0.102977
0.120747
0.093169
0.124059
0.102211
0.106607
0.206039
0.180440
0.122377
0.152133
0.083131
0.192538
0.185747
0.322966
0.297294
0.311160
0.339380
0.329149
0.408672
0.381615
0.357735
0.425921
0.508938
0.507065
0.430921
0.436479
0.530208
0.489375
0.594414
0.588592
0.471471
0.546255
0.473217
0.515509
0.540905
0.516980
0.470339
0.423147
0.507016
0.433656
0.408712
0.408554
0.460617
0.312993
0.456291
0.369367
0.298423
0.364353
0.316591
0.301316
0.262582
0.201745
0.250513
0.156404
0.222998
0.225276
0.212749
0.186620
0.129615
0.115324
0.143306
0.141099
0.108932
0.066098
0.047931
0.067804
0.023374
0.041684
0.010517
0.078707
0.080134
0.035120
0.090591
-0.009273
0.041935
0.040932
0.041430
0.106442
0.014586
0.041107
0.104830
0.050831
-0.003121
0.029067
0.073119
0.084966
0.097048
0.043499
0.027167
0.067440
0.087634
0.084719
0.022407
0.096176
0.051981
0.049385
0.171445
0.044934
-0.000895
0.101194
0.073596
0.100872
0.077904
0.048137
0.037030
0.014504
0.038315
0.084560
0.066882
0.060035
0.087440
0.040093
0.049785
0.014110
0.045743
0.106273
0.014257
0.052579
0.072048
0.095506
0.080027
0.106392
0.156079
0.025251
0.045981
0.083227
0.026431
0.057899
0.078616
0.011880
0.069771
0.014617
0.084061
0.116911
0.101231
0.032896
0.098324
0.050819
0.078763
0.140223
0.068741
0.071452
0.118585
0.110276
0.042104
0.076412
0.034404
0.060724
0.047564
0.072692
0.030433
0.102184
0.039730
-0.046782
0.072008
0.061058
0.081685
0.071254
0.049148
0.024850
0.140421
0.088516
0.104641
0.187711
0.069554
0.083597
0.152464
0.104629
0.118019
0.094025
0.139323
0.204446
