-0.014801
-0.011539
0.019426
0.016448
-0.083101
-0.060442
-0.086209
0.053850
0.064930
-0.008384
0.074239
-0.122371
-0.013858
0.045661
-0.031058
0.035017
0.023740
-0.010033
0.027565
0.000405
0.025336
0.015131
-0.023717
0.125241
0.045222
-0.015189
0.057869
0.083023
0.110784
0.008906
0.067872
0.063198
0.152318
0.099904
0.118862
0.101734
0.190729
0.122422
0.141321
0.220444
0.235815
0.194383
0.194991
0.120110
0.221463
0.223037
0.240792
0.181773
0.226576
0.163774
0.152225
0.189908
0.137919
0.171953
0.116614
0.150718
0.119077
0.100180
0.112601
0.058875
0.135104
0.050422
0.110542
0.131700
-0.039641
0.043563
0.094115
0.039235
0.067009
0.000250
0.030156
0.070967
-0.025165
0.051123
0.052379
0.019827
0.056616
0.075205
0.048256
0.067920
0.011015
0.165907
0.212363
0.380163
0.784279
1.115782
1.428287
1.477905
1.388845
1.119959
0.821204
0.437614
0.131358
-0.057779
-0.222721
-0.213750
-0.156564
-0.051794
-0.084294
0.090194
0.043773
0.096927
0.088771
0.084595
0.022904
0.117393
0.088265
0.097542
0.167936
0.041567
0.065801
0.006779
0.035396
0.212750
0.187970
0.095938
0.109147
0.063627
0.246966
0.205390
0.236440
0.307279
0.266706
0.343194
0.360856
0.340301
0.294565
0.326340
0.376072
0.431664
0.462769
0.405649
0.415284
0.503007
0.515994
0.528961
0.504328
0.569729
0.556621
0.592470
0.574534
0.572902
0.601264
0.587958
0.536229
0.578327
0.533979
0.620718
0.577751
0.546964
0.451156
0.486613
0.393767
0.359891
0.399437
0.366665
0.421330
0.330997
0.296392
0.322399
0.251000
0.310511
0.309563
0.237456
0.270218
0.274992
0.191004
0.223593
0.147519
0.216782
0.119880
0.118168
0.253218
0.144902
0.093852
0.177282
0.087016
0.152065
0.100720
0.070169
0.040316
0.112881
0.062662
0.150042
0.034274
0.142123
0.120836
0.009192
0.102679
0.032744
0.086453
0.141184
0.104112
0.034950
0.045018
0.024106
0.109122
0.072600
0.086186
0.116922
0.050984
0.108099
0.097346
0.101647
0.083025
0.200971
0.129286
0.038241
0.101910
0.095607
0.068461
-0.018567
0.147446
-0.005072
0.062072
0.109143
0.098996
0.063956
0.097459
0.092560
-0.037858
0.092508
0.092847
0.183826
0.067617
0.103247
0.112899
0.072092
0.141170
0.027587
0.044523
0.093084
0.136623
0.059181
0.109201
0.168018
0.136528
-0.034964
0.111318
0.109041
0.130894
0.094656
0.078776
0.047929
0.201755
0.141014
0.142677
0.189745
0.153167
0.107052
0.144379
0.252540
0.261396
0.201472
0.228886
0.260193
0.173807
0.232857
0.200605
0.222750
0.313307
0.188977
0.086348
0.278298
0.196418
0.217371
0.266524
0.228210
0.185170
0.191541
0.193241
0.152918
0.081240
0.134320
0.156167
0.069487
0.156064
0.308666
0.093338
0.178035
0.093933
0.098494
0.094206
0.027565
0.144949
0.056764
0.067074
0.102017
0.064733
0.032033
0.061955
0.046039
0.061416
0.054941
0.033615
0.066169
0.016833
-0.004026
0.041929
0.150401
0.311475
0.653350
0.886303
1.231885
1.478407
1.445437
1.205269
0.959807
0.524402
0.207003
-0.017980
-0.140488
-0.270784
-0.175571
-0.106086
-0.078456
0.116820
0.065808
0.146360
0.026604
0.050521
0.077214
0.102495
0.047169
0.116725
0.075699
0.130564
0.058857
0.126049
0.057680
0.189208
0.156188
0.201626
0.119205
0.138544
0.189621
0.106851
0.207109
0.259308
0.228952
0.286853
0.324252
0.208705
0.382187
0.329370
0.393755
0.382675
0.326419
0.418693
0.376279
0.497155
0.520874
0.528262
0.588344
0.550128
0.526526
0.585668
0.487163
0.613617
0.541382
0.539572
0.554375
0.630026
0.555317
0.531827
0.471417
0.502176
0.527191
0.459668
0.446942
0.416974
0.415921
0.338048
0.404760
0.274977
0.278740
0.302481
0.324808
0.234380
0.248451
0.194770
0.172677
0.105311
0.087083
0.138622
0.158708
0.109348
0.143612
0.054407
0.062030
0.171857
0.175972
0.145344
0.056806
0.042331
0.088258
-0.051185
0.034922
0.033247
0.057225
0.004797
0.060057
0.019042
-0.016197
0.029461
0.076771
0.016334
-0.039188
-0.013490
-0.021126
-0.006050
-0.023065
-0.049685
0.009863
-0.032312
-0.014938
0.020725
-0.001756
-0.004330
0.015531
-0.019903
0.037175
0.011575
-0.009723
-0.044157
-0.016244
-0.058842
0.057517
0.035416
-0.000026
0.024336
-0.025605
-0.080812
-0.036090
0.016778
0.032543
-0.040244
-0.011360
0.018408
-0.035013
0.035369
-0.043125
-0.002206
-0.075828
-0.007940
0.014916
0.028299
-0.039888
-0.020467
-0.025035
0.029186
-0.021661
-0.129764
-0.068130
-0.026854
0.029721
0.000599
0.027371
0.057532
-0.025004
-0.002394
0.077418
0.047615
0.057937
0.105543
-0.015099
0.045748
0.139548
0.109944
0.012715
0.083387
0.121797
0.180309
0.169466
0.146332
0.096445
0.132796
0.142082
0.108582
0.131343
0.085047
0.200097
0.107017
0.073296
0.062472
0.060603
0.067471
0.082349
0.052330
0.042085
0.002136
0.062544
0.009941
0.046643
0.043192
0.039702
-0.050598
-0.003816
-0.005395
-0.035989
-0.044475
0.010222
-0.032858
0.069219
-0.047031
-0.063542
0.081356
-0.055863
-0.037302
-0.011075
-0.064623
-0.005770
-0.027330
-0.049154
-0.015782
-0.121000
0.004605
0.158894
0.469586
0.751828
1.090500
1.343070
1.332614
1.168406
0.961952
0.549537
0.345692
-0.003066
-0.326596
-0.357050
-0.350476
-0.341596
-0.196824
-0.055726
-0.018599
-0.067951
0.041250
-0.053609
0.041614
0.006524
-0.090005
0.003890
0.026338
0.024638
0.005009
-0.019358
0.084891
0.052179
0.036366
0.031492
0.084810
0.109639
0.126466
0.069126
0.126457
0.143177
0.093018
0.227819
0.212981
0.269879
0.240209
0.259246
0.308748
0.365844
0.274112
0.347944
0.308883
0.364713
0.501154
0.397584
0.415121
0.393251
0.385676
0.531563
0.498452
0.480817
0.463797
0.478810
0.476032
0.447421
0.466690
0.404941
0.337250
0.461478
0.457545
0.453676
0.348260
0.364658
0.323252
0.288349
0.311604
0.373902
0.193231
0.238566
0.299138
0.100252
0.150002
0.195202
0.190672
0.099856
0.113069
0.085912
0.051536
0.103627
-0.017784
0.009337
0.063517
0.068190
0.010769
0.083607
-0.009544
-0.070673
-0.058755
0.047851
0.034518
-0.034323
-0.020231
-0.133673
-0.021598
-0.030425
-0.030203
-0.015471
-0.018874
-0.088331
0.013180
-0.000201
-0.069208
-0.046515
-0.086404
-0.038068
-0.038655
-0.049923
0.059334
-0.044814
-0.008249
0.066347
-0.043099
-0.078118
-0.025563
-0.022418
0.078064
-0.029720
0.016242
-0.122070
-0.065475
-0.013424
-0.079476
0.000399
0.041247
-0.048624
-0.016653
0.031803
-0.004693
-0.122495
0.003729
-0.055362
0.016301
-0.068375
-0.067072
-0.099952
0.000212
-0.051568
-0.004661
-0.015958
0.013101
0.068555
-0.027223
0.044467
-0.049982
0.041239
-0.008981
0.006664
0.082523
0.010315
-0.010474
-0.034496
0.024929
0.011881
-0.019108
0.057805
-0.035401
-0.040762
0.080808
0.053521
0.083825
0.113193
0.029113
0.047596
0.144493
0.121615
0.124488
0.037227
0.210975
0.098409
0.137671
0.161071
0.183042
0.219319
0.218965
0.147481
0.115178
0.204811
0.225739
0.153982
0.162762
0.208682
0.100440
0.085613
0.100850
0.063380
0.066660
0.001720
0.103202
-0.005417
-0.085129
0.033279
0.010896
0.078929
-0.004131
-0.019799
0.014448
0.038114
0.049870
0.081181
0.079933
0.044698
-0.084829
0.041851
0.032278
0.001176
-0.041773
0.023471
0.048953
0.089383
0.106301
0.357040
0.624718
1.076320
1.283507
1.398671
1.278957
1.187079
0.805000
0.448130
0.125213
-0.055612
-0.189601
-0.220230
-0.159210
-0.106721
-0.002192
0.002811
0.054909
0.067492
0.040559
0.095648
0.127823
0.032881
0.010361
0.055109
0.091696
-0.006133
0.073246
0.144557
0.080007
0.117384
0.126102
0.138211
0.141106
0.201505
0.200317
0.234408
0.259205
0.294523
0.237550
0.276020
0.229044
0.327732
0.291624
0.401865
0.280971
0.458342
0.447217
0.456704
0.448250
0.514110
0.539088
0.563935
0.543435
0.608873
0.537425
0.606744
0.528087
0.562513
0.526675
0.628791
0.569333
0.572254
0.546010
0.482584
0.517467
0.358479
0.534179
0.498742
0.482652
0.441759
0.422901
0.340994
0.319776
0.395754
0.276319
0.356476
0.281925
0.224810
0.264562
0.207649
0.223410
0.211296
0.173956
0.156647
0.084204
0.123836
0.197766
0.116597
0.129696
0.132592
0.037939
0.130810
0.061716
0.104002
0.012072
0.089272
0.087200
0.063148
0.096548
0.087403
0.065008
0.061449
0.041154
0.100246
0.072240
0.111254
0.090112
0.076581
0.128855
0.074005
0.066755
0.098988
0.128793
0.161484
0.047503
0.105476
0.073306
0.038827
-0.001379
0.076214
0.070990
0.125059
0.053127
0.135382
0.055361
0.071926
0.108625
0.073454
0.086024
0.043372
0.056899
0.124601
0.086672
0.090180
0.108049
0.082782
0.063195
0.147779
0.091041
0.091171
0.077666
0.123263
0.063577
0.077083
0.171826
0.023072
0.033641
0.091898
0.065312
0.039608
0.105657
0.087607
0.077521
0.103525
0.098500
0.108768
0.171666
0.069279
0.150244
0.171817
0.140330
0.133774
0.107017
0.196061
0.114532
0.193349
0.187135
0.188051
0.251523
0.292330
0.186612
0.242179
0.268763
0.256816
0.224787
0.274948
0.245221
0.302373
0.203764
0.245627
0.275977
0.216323
0.249796
0.258141
0.182054
0.162587
0.125326
0.133826
0.256213
0.165622
0.038525
0.145024
0.096987
0.208517
0.107391
0.120938
0.089398
0.070508
0.085508
0.204398
0.038753
0.183661
0.125761
0.036653
0.204001
0.080619
0.125713
0.154650
0.211172
0.024265
0.138658
0.112648
0.095462
0.043489
0.099291
0.174477
0.313895
0.591134
0.933190
1.286053
1.424011
1.482846
1.290129
1.017553
0.619097
0.305722
0.059092
-0.158377
-0.120094
-0.173960
-0.075517
-0.066905
0.031490
0.142552
0.092586
0.098578
0.150342
0.138565
0.122716
0.151268
0.124508
0.128536
0.051207
0.205424
0.141017
0.198459
0.181798
0.243989
0.142838
0.212361
0.279881
0.216643
0.264046
0.217908
0.324857
0.284181
0.340288
0.281168
0.358565
0.383005
0.428825
0.453122
0.427062
0.448660
0.374464
0.503926
0.461674
0.526965
0.474920
0.620831
0.476108
0.591519
0.563223
0.629330
0.646067
0.591182
0.625149
0.526519
0.582194
0.604791
0.587218
0.552678
0.584994
0.562584
0.527300
0.376335
0.377928
0.468416
0.420186
0.415227
0.373959
0.361350
0.342604
0.284060
0.382454
0.255666
0.168747
0.271058
0.226896
0.139395
0.227303
0.211078
0.147668
0.150971
0.145447
0.058724
0.208842
0.131901
0.134962
0.093890
0.182196
0.083938
0.204521
0.033868
0.030198
0.065991
0.059155
0.103876
0.149108
0.150180
0.047765
0.098751
0.093045
0.079836
0.019016
0.059149
0.019364
0.046929
0.067846
0.046753
0.030704
0.124233
0.067372
0.056213
-0.041322
0.043728
0.043345
0.037510
0.055820
0.048924
0.059198
-0.009463
0.022971
0.050733
0.070308
-0.043332
0.037519
0.039514
0.086075
0.053548
-0.010985
0.084585
0.018771
0.122388
0.060446
0.080720
0.062180
0.095080
-0.016736
0.052772
-0.100760
0.070125
0.072986
-0.040957
0.054085
0.038139
0.074011
0.031738
0.106965
-0.013776
0.109134
0.023262
0.004599
0.086587
0.058382
0.010764
0.035151
0.070394
0.052242
0.050162
0.045332
0.077344
0.111411
0.142525
0.143464
0.109497
0.197529
0.202643
0.205971
0.185774
0.224632
0.180583
0.139897
0.170801
0.052442
0.170259
0.190402
0.242252
0.138464
0.108059
0.102674
0.089846
0.176610
0.085215
0.126310
0.073268
0.101062
0.018653
0.029966
0.092691
0.013815
0.042598
0.023281
0.035874
-0.005974
0.019921
-0.013429
0.052631
0.026570
-0.016801
0.002000
-0.018517
-0.065884
-0.054724
-0.049013
0.000420
0.013304
-0.048698
0.014872
0.000884
-0.048510
0.014522
-0.018906
0.156185
0.381478
0.794790
0.988051
1.325969
1.405371
1.289893
1.105038
0.681987
0.317553
-0.026271
-0.175330
-0.273221
-0.305056
-0.208142
-0.095671
-0.089730
-0.107996
-0.005801
-0.062149
-0.052445
-0.052087
-0.026111
-0.019184
-0.063298
0.073509
-0.092323
0.014347
0.071785
0.012240
-0.011894
0.098583
-0.014809
0.048955
0.042942
0.028046
0.142899
0.138885
0.180600
0.161050
0.222245
0.210605
0.227015
0.180417
0.316313
0.297619
0.315352
0.369120
0.386155
0.399113
0.374148
0.249269
0.369909
0.488276
0.406464
0.433976
0.538539
0.433285
0.480381
0.517059
0.361377
0.433447
0.485578
0.469426
0.441570
0.452791
0.441630
0.358322
0.347176
0.286291
0.389286
0.323064
0.374585
0.259545
0.184866
0.135529
0.248512
0.175505
0.189702
0.163229
0.045583
0.152992
0.113639
0.086633
0.106945
0.173666
0.051798
-0.028051
0.102680
0.048347
-0.046954
-0.037351
0.007045
-0.031388
-0.031355
-0.049186
-0.088885
-0.062069
-0.057131
-0.159292
-0.050540
-0.004297
-0.143396
-0.096493
-0.098259
0.050294
-0.118851
-0.098315
-0.130943
-0.051944
-0.039692
-0.079256
-0.146109
-0.042530
-0.066766
-0.036039
-0.076940
-0.082609
-0.014533
-0.159641
-0.067490
-0.043053
-0.060161
-0.131474
-0.088813
-0.040000
-0.100059
-0.049444
0.010760
-0.070639
-0.067873
-0.046273
-0.116417
-0.075484
-0.052781
-0.129391
-0.077229
-0.167141
-0.062320
-0.040753
-0.108236
-0.019214
0.002193
-0.004483
-0.100657
-0.035279
-0.040863
-0.124043
-0.006199
-0.076312
-0.102843
-0.125583
-0.053128
-0.043934
-0.071161
-0.102358
-0.092984
-0.024061
-0.062477
0.006821
-0.014488
-0.061840
-0.035899
-0.026461
0.020059
0.078837
-0.037852
0.085049
0.102042
-0.004157
0.027426
0.001810
0.092696
0.125645
0.121265
0.122501
0.109745
0.086926
0.139457
0.183905
0.089698
0.057536
0.099980
0.101411
0.020455
0.132613
0.029330
0.037235
0.051312
0.042240
0.025354
0.015808
0.050687
-0.019960
-0.024702
-0.038202
-0.023957
-0.046237
-0.012386
-0.095359
-0.055702
-0.022834
-0.116805
-0.033673
-0.060894
-0.109611
-0.071979
-0.128005
-0.012793
-0.123562
-0.047438
-0.071752
-0.053036
-0.061935
-0.085182
-0.090413
-0.081016
0.111062
0.146465
0.605082
0.818933
1.173393
1.266917
1.321148
1.130837
0.785804
0.416059
0.047828
-0.184348
-0.287289
-0.303379
-0.337293
-0.232501
-0.176773
-0.094743
0.009699
-0.144840
-0.094407
-0.032239
-0.083614
-0.001275
0.000596
-0.002889
-0.057676
-0.050116
0.044924
-0.028592
-0.003684
-0.039885
0.084986
0.061333
0.080606
0.110798
0.063923
0.052060
0.114688
0.204513
0.181467
0.175980
0.151265
0.254439
0.313869
0.267791
0.290384
0.341351
0.294263
0.359572
0.329838
0.404305
0.418729
0.390263
0.412640
0.448884
0.485391
0.437251
0.443933
0.449698
0.523983
0.396999
0.544072
0.420476
0.376557
0.457592
0.428321
0.422954
0.385639
0.435023
0.376439
0.377425
0.272717
0.313573
0.280663
0.211073
0.246077
0.251048
0.258462
0.177990
0.200285
0.146513
0.159008
0.173680
0.102057
0.064198
0.122339
0.116036
0.032652
0.006805
0.134939
0.002852
-0.014281
0.034319
-0.013284
-0.020208
-0.001456
-0.045884
-0.053015
0.008811
-0.048220
-0.097274
-0.053304
0.022175
-0.022354
0.011115
-0.008999
-0.022769
0.076035
-0.040873
-0.001286
-0.007097
-0.076902
0.009146
-0.024562
-0.026470
0.067207
-0.092431
-0.007706
-0.031166
-0.016668
0.017383
-0.006506
-0.031882
0.022638
-0.012806
0.035547
0.070460
-0.033094
-0.084124
-0.078348
-0.119576
-0.083716
-0.061494
0.033498
-0.058662
-0.010241
0.064104
-0.019808
-0.026539
-0.009901
-0.025067
0.000556
-0.064551
-0.013044
-0.083097
0.024564
0.017730
-0.063837
0.017422
0.087222
-0.059988
-0.064306
-0.002182
-0.082043
-0.059358
0.037780
0.033077
0.052104
0.093881
0.008991
0.036585
0.002607
0.091849
0.042039
0.020747
0.063358
0.072875
0.167446
0.115774
0.115320
0.171683
0.171585
0.160964
0.101788
0.152907
0.142542
0.113493
0.157228
0.221408
0.158792
0.256296
0.179861
0.189110
0.105452
0.086941
0.162517
0.104113
0.110945
0.148055
0.150831
0.146738
0.084974
0.086220
0.056478
0.046990
0.075617
0.012731
-0.003687
0.055369
0.088480
0.074848
0.097665
0.007896
-0.057469
-0.031543
0.046385
-0.033432
0.013412
0.042712
0.005965
0.017628
0.141906
-0.058281
0.003539
0.016069
-0.030030
0.072746
0.190581
0.425845
0.840926
1.176508
1.380176
1.500000
1.263245
0.978458
0.653277
0.290786
-0.061148
-0.134570
-0.255218
-0.121312
-0.206319
-0.076219
0.069686
0.011604
0.058150
0.006759
0.078298
0.004013
0.014066
0.025220
0.070994
0.116200
0.128175
0.097462
0.118767
0.062807
0.110462
0.126517
0.180215
0.142140
0.153711
0.176604
0.211737
0.194809
0.094118
0.209456
0.236201
0.311011
0.249775
0.286369
0.415116
0.363673
0.381336
0.429854
0.422837
0.445403
0.469299
0.434799
0.534512
0.454865
0.562744
0.498122
0.456785
0.568942
0.466716
0.572764
0.543459
0.522969
0.534202
0.509968
0.526126
0.548164
0.541092
0.520347
0.493921
0.486508
0.378680
0.386196
0.384880
0.392916
0.361466
0.316830
0.338236
0.324082
0.286892
0.316918
0.217571
0.227561
0.199447
0.152744
0.190188
0.060147
0.169562
0.017939
0.120535
0.115009
0.163412
0.105189
0.037569
0.097244
0.127746
0.106290
0.115594
0.123483
0.096604
0.120832
0.091649
0.013689
0.130483
0.098485
0.040528
0.007489
0.087043
0.012145
0.067252
-0.017211
-0.007168
0.046235
0.078954
-0.001498
0.103159
0.017544
0.088306
0.064268
0.004456
0.058901
0.005366
0.042499
0.101659
-0.028279
0.056454
-0.031825
0.062266
0.036548
0.047223
0.078464
0.115561
0.018589
0.059376
0.043637
0.126044
-0.025871
0.048961
0.039738
0.068367
0.045948
-0.019137
0.126905
0.084660
0.093000
0.060671
-0.005454
0.023552
0.003967
0.110346
0.011275
0.084542
0.116068
0.062441
0.074171
-0.012419
-0.062683
0.115418
0.068808
0.103084
-0.018651
0.096503
0.061699
0.133078
0.049781
0.094245
0.082416
0.065668
0.135031
0.147027
0.135925
0.108270
0.193120
0.124571
0.152555
0.172601
0.133032
0.171983
0.226940
0.248469
0.269995
0.253022
0.207248
0.165116
0.188935
0.120178
0.117365
0.197349
0.154418
0.161992
0.055808
0.124361
0.109699
0.129269
0.033059
0.122133
0.104886
0.059095
0.087972
0.017667
0.008497
0.107221
0.003096
0.041348
0.039801
0.050802
-0.020163
0.013202
0.028742
0.049023
0.001492
0.030997
0.044753
0.024595
-0.015741
-0.051653
-0.051289
0.033917
0.133295
0.380857
0.685685
1.058710
1.282031
1.392717
1.306156
1.128074
0.816623
0.467501
0.113797
-0.143773
-0.191940
-0.259073
-0.129921
-0.129572
-0.013313
0.003479
0.061330
-0.061927
0.065277
0.018079
0.095433
-0.024403
0.056372
0.148052
-0.037999
0.017901
0.101357
0.093799
0.072753
0.102752
0.075293
0.077253
0.216996
0.072928
0.218271
0.229949
0.166303
0.221542
0.232863
0.275620
0.311273
0.210328
0.341542
0.270380
0.283161
0.433407
0.403231
0.421267
0.411243
0.405455
0.451396
0.431764
0.523207
0.533069
0.524043
0.503293
0.546682
0.510025
0.493135
0.493016
0.520969
0.402774
0.446743
0.504882
0.489745
0.375303
0.392199
0.367062
0.367977
0.350728
0.281081
0.276220
0.275498
0.304156
0.235021
0.166522
0.188027
0.154660
0.168208
0.143287
0.114305
0.061488
0.196450
0.063696
0.077973
0.072282
0.088555
0.044735
-0.022993
0.031880
0.087424
-0.056891
0.029311
-0.006749
-0.006836
-0.029470
0.050899
-0.014735
-0.050092
-0.038719
-0.028416
-0.028575
0.004130
-0.071360
-0.052719
-0.052577
-0.050626
0.052234
-0.089164
-0.031802
0.000118
-0.022539
-0.032982
-0.052929
0.056838
-0.085201
-0.150097
-0.019952
-0.096266
-0.113250
-0.102479
-0.134818
-0.027517
-0.001101
-0.044899
-0.102297
-0.149629
-0.041956
-0.048120
-0.038624
-0.085608
-0.001740
-0.053714
-0.157695
-0.033277
-0.091253
-0.031709
-0.015719
-0.052436
-0.041192
-0.023533
-0.021710
0.001631
-0.063855
-0.048115
-0.081538
-0.063611
-0.017258
-0.027543
-0.014946
-0.083254
-0.026266
-0.103743
-0.069629
-0.084886
-0.043255
-0.081036
-0.000315
-0.125620
-0.078309
-0.059688
0.016411
-0.101055
-0.062976
-0.074355
0.039670
-0.043198
0.114982
0.076121
0.021098
0.076387
0.034506
0.079627
0.128309
0.106197
0.127941
0.112022
0.019539
0.015606
0.040118
0.014037
0.039944
0.106021
0.045593
0.058036
0.089773
0.097105
-0.022184
0.003655
-0.031196
-0.042914
0.067818
0.040534
-0.063202
-0.055922
-0.015552
-0.098423
-0.077988
-0.059191
-0.067634
-0.067549
-0.081176
-0.121713
-0.060157
-0.076367
-0.120057
-0.144467
-0.113361
-0.050195
-0.187623
-0.123572
-0.118357
-0.166014
-0.095548
-0.125898
0.002182
0.176936
0.490291
0.748850
1.060616
1.268915
1.335599
1.197268
0.815650
0.462893
0.175961
-0.088419
-0.280713
-0.375266
-0.334158
-0.267511
-0.164438
-0.210650
-0.101665
-0.131730
-0.132014
-0.149189
-0.071104
-0.030502
-0.060721
-0.043515
-0.063057
-0.169723
-0.081788
-0.139097
-0.145466
-0.051489
-0.055606
0.025931
0.075057
0.015541
0.041924
0.009915
0.133038
0.068407
0.072145
0.032770
0.157750
0.131914
0.186922
0.284510
0.201059
0.236548
0.349879
0.257853
0.281694
0.264209
0.392383
0.379076
0.377963
0.415961
0.390556
0.465743
0.403855
0.441091
0.377339
0.413142
0.479095
0.400517
0.358138
0.493445
0.284287
0.344192
0.405061
0.330323
0.374062
0.238171
0.288380
0.248462
0.224072
0.190948
0.160536
0.163679
0.151108
0.100401
0.108700
-0.056588
0.135697
0.097621
0.028591
-0.014954
0.035253
0.003106
0.042645
0.015699
-0.012516
-0.125197
-0.034957
-0.062163
-0.098111
-0.104764
-0.093923
-0.031739
-0.096251
-0.018936
-0.096486
-0.008457
-0.048884
-0.097703
-0.029446
-0.144783
-0.123168
-0.085536
-0.090925
-0.087570
-0.174890
-0.028447
-0.043850
-0.042408
-0.126912
-0.014000
-0.022504
-0.073176
-0.140088
-0.056141
-0.108163
0.025375
-0.046240
-0.013314
-0.063877
-0.057541
-0.118746
-0.060398
-0.170601
-0.130380
-0.104661
-0.062884
-0.097824
-0.003410
-0.111993
-0.122085
-0.098295
-0.057505
-0.063752
-0.123497
-0.162155
-0.108120
-0.080006
-0.124023
-0.076684
-0.051862
-0.106012
-0.081346
-0.059154
0.038365
-0.102874
-0.066793
-0.040981
-0.118093
-0.052091
-0.038307
-0.039092
-0.083550
-0.126146
-0.018432
-0.076422
-0.113942
-0.050264
0.050099
-0.073325
-0.080971
0.018428
-0.052428
-0.075407
0.034205
0.086981
-0.005577
0.090927
0.118906
0.106173
0.054248
0.131051
0.146704
0.166698
0.114477
0.084226
0.190512
0.166921
0.114644
0.156960
0.068099
0.043868
0.041353
0.101385
0.118134
0.059582
0.036784
-0.018164
0.054178
0.013695
0.007077
-0.006626
-0.064566
0.025514
0.006454
0.030697
-0.103013
0.042493
-0.093413
0.046528
0.107627
-0.091089
-0.064874
-0.082909
-0.096818
0.024495
0.041393
-0.005452
-0.007210
-0.098353
-0.108640
-0.101770
0.015520
0.053471
0.334935
0.701333
1.051256
1.277341
1.383418
1.308496
0.955930
0.704348
0.277296
0.038465
-0.186411
-0.272818
-0.297687
-0.279106
-0.148903
-0.073584
-0.025145
0.089696
0.076972
-0.017410
0.002155
-0.027090
0.059945
-0.012127
0.115250
0.043805
0.118311
0.038678
-0.058629
0.074233
0.152369
0.040609
0.185048
0.091907
0.215664
0.183923
0.172892
0.166258
0.180982
0.174804
0.249465
0.309469
0.338453
0.356064
0.328990
0.371489
0.381767
0.368900
0.464527
0.436676
0.442825
0.515408
0.463692
0.448294
0.509404
0.538296
0.530780
0.555921
0.519935
0.507968
0.512150
0.487672
0.484410
0.477709
0.575248
0.420172
0.458847
0.452234
0.457286
0.357817
0.350844
0.324474
0.369435
0.296618
0.278976
0.319342
0.320494
0.246150
0.230321
0.248768
0.238950
0.166138
0.217784
0.180883
0.121369
0.145597
0.089669
0.044190
0.149622
0.189269
0.094814
0.075730
0.082430
0.046516
0.071308
0.082458
0.041918
0.035593
0.044019
0.026250
0.062024
0.044572
0.106653
0.007730
0.096013
0.052078
0.020713
0.070696
0.060441
0.006833
-0.064786
0.004517
0.080012
0.087478
0.059944
0.099741
-0.004264
0.094439
0.041587
0.033333
0.062162
0.089471
0.045472
0.060337
0.072634
0.103398
0.090783
0.071797
0.023375
-0.017521
0.035896
0.065293
0.080483
0.048919
0.076725
0.047574
0.089732
-0.004142
0.089786
0.083575
-0.017093
-0.000344
-0.006249
0.029412
0.070192
0.068967
0.103084
0.028605
0.053284
0.070514
0.088866
-0.044415
0.007414
0.126029
0.092286
0.084407
0.116667
0.082547
0.107495
0.013161
0.064072
0.165369
0.180534
0.104796
0.104354
0.078755
0.105507
0.154027
0.251672
0.166381
0.164796
0.234983
0.220747
0.238039
0.281561
0.196653
0.175236
0.224932
0.237965
0.269698
0.219843
0.256838
0.188652
0.205666
0.258431
0.113370
0.122629
0.139166
0.241673
0.148285
0.182874
0.144327
0.101903
0.138155
0.140077
0.067368
0.133471
0.084400
0.025038
0.199118
0.069090
0.035830
0.087576
0.020140
0.038206
0.073969
0.061149
0.028240
0.082456
0.107497
0.059329
0.022478
0.024982
0.057930
0.066526
-0.037545
0.124255
0.382626
0.653233
0.976679
1.307814
1.446577
1.345736
1.322701
0.924322
0.541801
0.257872
-0.040725
-0.201440
-0.161003
-0.126908
-0.085091
0.023905
0.085365
0.114873
0.081006
0.069628
-0.003542
0.088456
0.091606
0.166690
0.027924
0.048153
