-0.000060
0.052826
0.037859
0.023904
0.074058
0.025115
-0.050298
-0.019456
-0.070345
-0.032979
-0.065330
0.070269
-0.005227
0.111477
0.044564
0.030545
0.089235
0.056324
-0.003025
0.006322
0.081577
0.134673
0.044370
0.097516
0.147810
0.178868
0.207227
0.077521
0.091674
0.164820
0.090928
0.214018
0.169812
0.134003
0.219181
0.188761
0.278780
0.289004
0.193594
0.183364
0.143780
0.162995
0.177506
0.154808
0.130960
0.175679
0.162092
0.119052
0.111774
0.096305
0.100715
0.040737
0.030092
0.092989
0.067233
-0.001556
0.075794
0.012319
0.020269
-0.045716
0.013628
0.036049
0.169167
0.127671
0.202605
0.388960
0.811840
1.038423
1.337230
1.396854
1.306692
0.966757
0.716528
0.337872
-0.036463
-0.147621
-0.078330
-0.016258
-0.041043
-0.003028
0.088447
0.173510
0.150012
0.051298
0.133806
0.126888
0.168142
0.109771
0.210267
0.226740
0.267501
0.187982
0.289136
0.314432
0.346364
0.415858
0.372945
0.409092
0.419167
0.410770
0.450142
0.470694
0.442689
0.523327
0.643706
0.534307
0.557568
0.543880
0.604214
0.557740
0.602219
0.600734
0.573631
0.612658
0.651868
0.506399
0.600355
0.591629
0.582219
0.523271
0.549411
0.529713
0.477288
0.484368
0.511854
0.430386
0.430411
0.363274
0.438693
0.353065
0.324806
0.313400
0.246079
0.280380
0.264202
0.262461
0.224658
0.215608
0.211122
0.084185
0.130448
0.193812
0.142723
0.085766
0.160088
0.139976
0.055351
0.061646
0.103598
0.046262
0.119652
0.087344
0.038517
0.041404
0.156278
0.074877
0.062369
0.122138
0.052315
0.068728
0.070427
0.109857
-0.026555
0.170711
0.077698
0.088658
0.051102
0.009574
0.047622
0.047070
0.047092
0.076486
-0.034801
0.059093
0.164526
0.145524
0.097154
0.138031
0.053395
0.080822
0.148093
0.157714
0.089605
0.093631
0.050059
0.158271
0.110319
0.056658
0.140477
0.140590
0.132064
0.119857
0.138577
0.132971
0.213157
0.145712
0.233717
0.243706
0.204989
0.201899
0.180681
0.269503
0.271300
0.252239
0.225609
0.317350
0.270300
0.219081
0.302972
0.275975
0.263334
0.222772
0.192846
0.250697
0.289987
0.156522
0.198128
0.257481
0.239737
0.198948
0.188455
0.288692
0.208008
0.094679
0.157123
0.233173
0.146595
0.092508
0.004189
0.161476
0.126088
0.044032
0.089931
0.092527
0.055800
0.142489
0.203297
0.334504
0.699289
0.959018
1.293471
1.411217
1.405687
1.180478
0.857891
0.491569
0.248693
-0.044676
-0.070262
-0.023569
-0.071961
0.111618
0.074360
0.144085
0.198350
0.123216
0.199371
0.218202
0.183117
0.265919
0.171230
0.187703
0.184901
0.247332
0.323067
0.268505
0.319530
0.261649
0.404011
0.391703
0.364375
0.420182
0.447711
0.473145
0.596465
0.504739
0.501160
0.497829
0.544588
0.604778
0.569557
0.605900
0.570413
0.613608
0.639513
0.545721
0.630572
0.485979
0.568440
0.617434
0.490362
0.487697
0.497060
0.515174
0.457992
0.461698
0.450525
0.448873
0.296745
0.391474
0.365442
0.355395
0.370514
0.288690
0.306750
0.217621
0.238533
0.193500
0.278394
0.249794
0.136099
0.128821
0.131096
0.127372
0.182816
0.141554
0.044790
0.105291
0.100798
0.106464
0.094988
0.107803
0.021126
-0.020959
0.024246
0.059481
0.046716
-0.006440
0.065221
0.013030
0.043228
0.021849
0.142083
-0.082902
0.053867
0.069370
0.006415
0.055375
0.016379
-0.058335
-0.012940
0.027075
0.024754
0.075747
0.057258
0.058573
0.014522
0.119706
0.093694
0.053912
0.044517
0.009317
0.093225
0.029885
0.094185
0.089187
0.102925
0.129241
0.093528
0.027909
0.066172
0.114349
0.148329
-0.017806
0.128099
0.119923
-0.008468
0.075984
0.040968
0.105724
0.188272
0.144982
0.219835
0.150876
0.121964
0.161846
0.213598
0.194900
0.127285
0.134604
0.209076
0.145815
0.180647
0.195374
0.228566
0.154557
0.204928
0.244551
0.087294
0.141511
0.069126
0.116320
0.086635
0.158122
0.073262
0.052116
0.059576
0.157533
0.065044
-0.001216
0.045431
0.038281
0.126768
-0.069156
0.065911
0.038860
-0.036080
0.025227
0.075784
0.223697
0.481126
0.780609
1.149034
1.212661
1.346905
1.292134
0.957782
0.541717
0.182177
-0.031859
-0.185601
-0.151477
-0.168304
-0.028778
0.012523
0.064285
0.020499
0.056895
0.168016
0.101837
0.016816
0.066422
0.073660
0.101127
0.212742
0.143805
0.243243
0.256038
0.290598
0.290812
0.266188
0.380102
0.305610
0.341120
0.424874
0.350404
0.451276
0.328393
0.326355
0.488025
0.416212
0.432297
0.468865
0.514968
0.514411
0.569692
0.556002
0.475248
0.486514
0.508830
0.556750
0.466527
0.430178
0.471174
0.480826
0.490231
0.371663
0.424099
0.350168
0.354019
0.391735
0.287607
0.292472
0.321985
0.216449
0.311222
0.291442
0.165511
0.226183
0.189351
0.173441
0.126895
0.063163
0.045378
0.013622
0.013681
0.047230
0.059212
0.049565
0.067902
0.095375
-0.027621
-0.066671
0.084746
-0.027560
-0.106025
0.027858
-0.036548
-0.096706
-0.062576
-0.062108
0.019379
-0.073523
-0.059514
-0.005078
-0.027000
-0.013230
-0.023915
0.015603
-0.018806
-0.066777
-0.037504
-0.087761
0.027858
-0.026769
-0.009811
-0.023991
-0.035027
-0.072390
-0.035055
0.010803
-0.100277
-0.023668
-0.008945
-0.001583
-0.078833
-0.033644
0.031169
-0.075952
-0.002163
-0.055284
-0.049770
-0.013337
-0.111939
0.066090
-0.067145
-0.010736
-0.000806
0.081912
0.014773
0.062093
0.090072
0.075790
0.112344
0.183241
0.045362
0.167096
0.102651
0.167524
0.156023
0.140581
0.136861
0.072017
0.206525
0.068316
0.115190
0.094937
0.195760
0.063671
0.072173
0.050616
0.135144
0.027490
0.091021
0.052139
0.042811
0.042946
0.028805
-0.090941
-0.092136
0.011404
0.058935
-0.072527
-0.010956
-0.110755
0.047853
-0.105936
-0.001478
-0.056908
0.052661
0.056715
0.155258
0.298737
0.636341
0.963465
1.138735
1.345032
1.318768
1.075327
0.654969
0.284599
0.030658
-0.129777
-0.189635
-0.157339
-0.085439
-0.049234
-0.106958
0.021854
-0.029552
0.024420
0.054309
-0.008429
0.033096
0.126348
0.141683
0.065892
0.078801
0.212434
0.138858
0.220832
0.174888
0.189984
0.244039
0.160071
0.261053
0.355020
0.369901
0.229607
0.365317
0.428955
0.456799
0.357051
0.384456
0.467835
0.500027
0.466890
0.556085
0.521354
0.514096
0.471714
0.544165
0.509271
0.484210
0.485601
0.447489
0.427910
0.427701
0.401134
0.349529
0.380985
0.293043
0.405908
0.316261
0.355690
0.299240
0.357335
0.306762
0.138451
0.176138
0.212704
0.133016
0.121529
0.140099
0.106121
0.016502
0.140098
0.044765
0.081835
-0.020877
0.028778
0.068276
0.058017
0.011135
0.019520
0.012091
0.042568
0.034089
-0.026674
0.001728
-0.038786
0.036325
0.027903
-0.098316
0.018927
-0.016939
-0.058711
0.007172
-0.010574
-0.076395
-0.033270
-0.021693
-0.073425
-0.006361
-0.056832
-0.053987
-0.058211
0.017604
0.015683
-0.010425
0.016646
0.003118
0.034640
-0.016731
0.001429
-0.023191
-0.067721
-0.080487
0.002233
0.041321
0.010827
-0.067923
0.066981
0.007549
-0.027535
0.043008
0.008271
0.074763
0.029614
0.140194
0.090506
0.139222
0.098999
0.064011
0.102443
0.032886
0.096462
0.130670
0.204123
0.151303
0.200836
0.154792
0.293584
0.244159
0.205795
0.195573
0.177518
0.115946
0.251351
0.298891
0.161776
0.057877
0.230074
0.174337
0.249835
0.147039
0.115196
0.118705
0.077718
0.055824
0.124106
0.003300
0.044751
0.131338
-0.003619
-0.009947
0.038220
-0.029637
-0.078258
0.007310
0.021593
0.040072
0.055624
0.083558
0.285373
0.562630
0.821944
1.154702
1.415521
1.355025
1.232145
0.926793
0.623983
0.253672
-0.057829
-0.090491
-0.095275
-0.015823
0.029387
0.041787
0.049284
0.068070
0.111100
0.055121
0.100077
0.164602
0.177096
0.178193
0.119816
0.261993
0.232545
0.273285
0.299143
0.266428
0.300434
0.378869
0.339478
0.423448
0.402254
0.373639
0.479844
0.381000
0.499269
0.519444
0.406096
0.476189
0.475141
0.608383
0.596993
0.529908
0.553422
0.539659
0.572991
0.642483
0.623220
0.591866
0.501951
0.606829
0.519824
0.512194
0.540385
0.446139
0.561365
0.491820
0.420947
0.443578
0.412938
0.378025
0.259886
0.241249
0.323319
0.336604
0.328631
0.260241
0.150954
0.226874
0.210270
0.117308
0.282193
0.165957
0.241911
0.166783
0.087440
0.139875
0.054284
0.081831
0.100790
0.081577
0.076371
0.095358
0.031972
0.125074
0.057107
0.091926
0.163357
0.113553
0.021168
0.047723
0.098170
0.098648
0.065540
0.126572
0.010742
0.157260
0.097754
0.091987
0.048508
0.113052
0.109790
0.024715
0.074151
0.141721
0.028507
0.101679
0.055376
0.078106
0.160073
0.053510
0.108827
0.188744
0.119993
0.065391
0.105623
0.071383
0.074743
0.127710
0.108894
0.127684
0.128380
0.147198
0.153297
0.156354
0.081300
0.159254
0.230696
0.142109
0.202502
0.232278
0.208453
0.215240
0.239821
0.305384
0.277158
0.322265
0.283785
0.233063
0.179699
0.234817
0.272688
0.281076
0.208884
0.251402
0.250003
0.249964
0.263165
0.239082
0.074843
0.229201
0.233912
0.174224
0.138990
0.236250
0.100395
0.207016
0.123417
0.058075
0.127250
0.168904
0.102212
0.146445
0.118378
0.135562
0.085282
0.161270
0.115646
0.223712
0.262888
0.441976
0.684225
1.111469
1.408474
1.500000
1.368501
1.140239
0.732916
0.408007
0.093000
-0.096959
-0.069659
-0.012166
0.048653
0.138890
0.143839
0.119667
0.138640
0.142356
0.181296
0.136487
0.233864
0.234154
0.151976
0.224630
0.267429
0.293033
0.261748
0.343970
0.291116
0.333337
0.382185
0.469671
0.507945
0.439294
0.480420
0.557309
0.470219
0.555413
0.515902
0.652205
0.617168
0.639127
0.589199
0.638235
0.680290
0.593914
0.596945
0.600356
0.631577
0.538186
0.561742
0.607404
0.520372
0.557900
0.588066
0.528932
0.564385
0.484846
0.411902
0.494526
0.409945
0.396322
0.325603
0.360171
0.339328
0.337822
0.347292
0.319677
0.253694
0.213945
0.255571
0.227165
0.161802
0.150041
0.205041
0.162682
0.254962
0.134428
0.197259
0.132308
0.152949
0.163605
0.044361
0.146581
0.119320
0.157285
0.014823
0.081099
0.048006
0.125649
0.085692
0.148936
0.141379
0.084031
0.110382
0.005742
0.083867
0.105135
0.112776
0.049933
0.024105
0.049765
0.076590
0.003982
0.135079
0.112429
0.073928
0.088577
0.088615
0.075135
0.093222
0.093190
0.052057
0.076636
0.046863
0.111139
0.113350
0.027297
0.070833
0.082561
0.104925
0.070969
0.120997
0.090795
0.109719
0.181031
0.092893
0.153814
0.131778
0.155644
0.063731
0.127629
0.168616
0.224161
0.240012
0.229916
0.165683
0.194854
0.267427
0.301023
0.191487
0.219749
0.261242
0.188785
0.268300
0.185973
0.216374
0.204264
0.112082
0.109271
0.217542
0.136269
0.188780
0.155393
0.056752
0.111715
0.014704
0.108403
0.092198
0.131596
0.123738
0.023368
0.151236
0.058556
-0.066879
0.012833
0.074303
-0.026771
0.030901
0.034081
0.109556
0.277180
0.636325
0.942064
1.188413
1.445484
1.388175
1.283615
0.774703
0.469852
0.142421
-0.003340
-0.101862
-0.158402
-0.161782
-0.070338
0.033003
0.120962
0.078644
0.081187
0.052430
0.182312
0.128441
0.134257
0.139022
0.261332
0.174503
0.301011
0.195896
0.282559
0.283625
0.244055
0.337731
0.303883
0.354861
0.309854
0.394241
0.392383
0.412169
0.452305
0.470484
0.468973
0.615613
0.490820
0.506334
0.512757
0.509160
0.566923
0.527179
0.463026
0.521166
0.552412
0.533833
0.509963
0.486401
0.373388
0.459517
0.391016
0.561096
0.351969
0.394328
0.355286
0.255258
0.397289
0.305938
0.365452
0.174654
0.248523
0.175446
0.247015
0.087527
0.162199
0.167696
0.140183
0.090750
0.096223
0.121455
0.087517
0.159591
-0.025039
0.028130
0.028856
0.032969
-0.000862
0.034812
0.066671
-0.092431
-0.008776
-0.035858
-0.023035
0.083951
-0.129482
0.015861
-0.043720
-0.020589
-0.046384
-0.046585
-0.015540
-0.048560
-0.102861
0.029989
-0.044078
0.013853
0.003938
-0.010083
-0.062588
-0.138635
-0.030413
-0.006064
-0.062526
0.032219
-0.061137
-0.044222
-0.043733
-0.147292
-0.031992
-0.060876
-0.071364
-0.042082
-0.090924
0.006162
0.011496
0.007408
-0.021961
-0.010904
-0.022177
-0.036403
0.055076
0.039816
0.000855
0.007103
0.078879
0.036668
0.063268
0.045671
0.160011
0.129166
0.062312
0.156913
0.107084
0.108560
0.143072
0.163121
0.159952
0.136421
0.049429
0.095542
0.061298
0.105704
0.074677
0.134532
0.075026
0.170548
0.091214
-0.006360
0.072290
0.045633
0.140479
-0.051994
-0.090393
0.028734
-0.063118
-0.050147
-0.033599
-0.126113
-0.051046
-0.111793
-0.115421
-0.028153
-0.056069
-0.133355
-0.025949
-0.046937
0.218547
0.365399
0.609019
1.063105
1.185243
1.284146
1.254468
0.941294
0.540994
0.174098
-0.085997
-0.205758
-0.227740
-0.185289
-0.135398
-0.135539
-0.007456
0.047183
0.029223
-0.053391
0.010986
-0.015504
-0.007574
0.001585
0.019520
0.109971
0.018667
0.092564
0.131044
0.127994
0.153882
0.176454
0.276718
0.149181
0.302059
0.232350
0.254923
0.297150
0.310126
0.305118
0.326688
0.392420
0.363135
0.493238
0.490250
0.450404
0.534691
0.438984
0.383441
0.436882
0.427631
0.520225
0.489767
0.484273
0.376280
0.385983
0.332123
0.319877
0.368416
0.296410
0.246905
0.327738
0.217976
0.129959
0.178619
0.202430
0.138657
0.144757
0.115958
0.034744
0.028723
-0.002700
0.090583
0.043787
0.005524
0.042720
-0.034648
0.008185
0.004864
-0.009998
-0.002989
0.093075
-0.054382
-0.047908
-0.094259
-0.071866
-0.044412
-0.099829
-0.137791
-0.057993
-0.050405
-0.090651
-0.051142
-0.051090
-0.031391
-0.103326
-0.067981
-0.046090
-0.140512
-0.129314
-0.098732
-0.062802
-0.065580
-0.096460
-0.010305
-0.054842
-0.272929
-0.093607
-0.115528
-0.075023
-0.027248
0.011747
-0.095333
-0.103624
-0.052763
-0.004204
-0.019099
-0.074386
-0.100969
-0.039765
-0.049027
-0.029606
-0.050485
-0.084851
-0.045040
0.053773
-0.016072
-0.069534
-0.013018
-0.059468
0.077976
-0.002344
0.047453
-0.007482
0.115321
-0.034700
0.076270
0.052042
0.099233
0.129502
0.164777
0.093131
0.129808
0.089781
0.118028
0.089339
0.078473
0.156566
0.079973
0.072978
-0.003573
0.057451
0.121849
0.107419
0.057659
0.032747
-0.059963
0.126947
0.015885
-0.008973
-0.092143
-0.045109
-0.104388
-0.044783
-0.064746
-0.018043
-0.041438
0.025985
-0.035847
-0.137600
-0.050952
-0.058513
0.136580
0.237302
0.473876
0.847778
1.139587
1.391779
1.276439
0.944930
0.777418
0.352276
-0.025427
-0.128863
-0.224170
-0.213623
-0.182982
-0.043243
-0.031933
0.028740
0.031329
0.032544
0.002303
-0.013773
0.096619
0.114434
0.106287
0.175963
0.078038
0.087809
0.169968
0.193712
0.199044
0.201710
0.219392
0.286615
0.310902
0.331158
0.338813
0.327742
0.287456
0.469715
0.437552
0.425874
0.346615
0.471508
0.456321
0.506931
0.544532
0.522614
0.462502
0.551679
0.613316
0.430681
0.468271
0.492221
0.448080
0.479050
0.386637
0.414620
0.339347
0.421048
0.393386
0.309158
0.345791
0.280918
0.311557
0.291291
0.274609
0.179140
0.199285
0.122825
0.169095
0.090463
0.167422
0.118181
0.075458
0.003545
0.037687
0.091873
0.101827
-0.027959
0.015513
0.031913
-0.025446
0.124672
0.048374
-0.060877
0.075557
0.052961
0.063101
-0.062074
-0.014250
-0.051588
0.018427
-0.111853
-0.033330
-0.015768
-0.029727
-0.034842
0.069099
0.066098
-0.060007
0.026422
0.070799
-0.036345
-0.021897
-0.054128
-0.017330
-0.045156
0.040969
-0.016095
0.025240
0.012982
-0.028060
-0.009661
0.021779
-0.046140
-0.087241
0.008680
0.015993
0.006465
0.010831
-0.014674
-0.000733
0.023304
0.046760
0.124496
0.065627
0.080228
0.050911
0.054318
0.114781
0.054039
0.076671
0.166864
0.160104
0.115850
0.205175
0.142170
0.198071
0.161864
0.238390
0.254668
0.269429
0.175001
0.217751
0.183637
0.233047
0.246590
0.241413
0.150341
0.192090
0.055887
0.125423
0.129422
0.012847
0.139939
0.117116
0.034349
0.053613
0.007477
0.078700
0.013278
0.091495
0.079893
0.098078
0.090876
0.048458
0.049954
0.046688
0.041225
0.073396
0.029374
0.113058
0.351630
0.597913
0.854616
1.045306
1.379332
1.394196
1.223312
0.892474
0.604178
0.301702
-0.057582
-0.187489
-0.090146
-0.082495
-0.071617
0.062665
0.111346
0.062042
0.111004
0.161644
0.122843
0.165669
0.220260
0.171520
0.196418
0.176332
0.317636
0.317614
0.288704
0.319850
0.251059
0.349161
0.339121
0.417549
0.374696
0.472088
0.410239
0.445628
0.471095
0.421042
0.486423
0.442289
0.470010
0.547843
0.653712
0.655917
0.533350
0.610630
0.544388
0.636518
0.626811
0.587368
0.448430
0.562098
0.519827
0.504049
0.491625
0.556748
0.431155
0.429909
0.431589
0.412171
0.412671
0.365291
0.322392
0.280536
0.288134
0.330407
0.262711
0.242588
0.226947
0.186625
0.229933
0.205572
0.184453
0.161680
0.066964
0.146691
0.086323
0.221559
0.077829
0.075784
0.026935
0.131613
0.063990
0.066586
0.117525
0.073576
-0.009663
0.111766
0.074661
0.071274
0.043705
0.051602
-0.008734
0.129263
0.130556
0.038363
0.028487
-0.020136
0.071903
0.052695
0.011761
0.111177
0.002968
0.082467
0.085120
-0.006452
-0.012129
0.068814
0.007406
0.123137
0.043129
-0.031068
0.026488
0.055734
0.014749
0.122517
0.082393
0.013607
0.095386
0.078778
0.022592
0.089808
0.025534
0.085309
0.160032
0.124934
0.146573
0.031471
0.183346
0.136385
0.174096
0.167160
0.257583
0.132014
0.211801
0.228834
0.166429
0.257469
0.193545
0.283199
0.186151
0.225873
0.190855
0.262841
0.186292
0.162967
0.168505
0.144416
0.099182
0.155357
0.178972
0.149047
0.116773
0.058805
0.052550
0.101298
0.065508
0.155018
0.027626
0.163358
0.100383
0.003595
0.099475
0.067098
-0.007606
0.031599
0.034802
-0.007494
-0.015768
0.033633
0.291684
0.436986
0.698131
1.117088
1.231157
1.415479
1.339323
1.079719
0.721815
0.281234
0.088344
-0.034206
-0.129075
-0.086006
-0.024594
0.030770
0.033893
0.045653
0.063602
0.087834
0.066151
0.208169
0.086219
0.096201
0.203737
0.142282
0.224296
0.242868
0.131781
0.253217
0.222567
0.223906
0.195459
0.327592
0.263278
0.428619
0.457237
0.431069
0.455832
0.394767
0.426400
0.351074
0.500814
0.554217
0.477401
0.488955
0.543275
0.528908
0.553485
0.479978
0.480524
0.542399
0.473237
0.402950
0.509878
0.492526
0.402077
0.410569
0.518884
0.389994
0.389292
0.370586
0.347070
0.350518
0.262749
0.324559
0.237445
0.292667
0.235131
0.236835
0.243241
0.136250
0.108768
0.115806
0.127711
0.049671
0.192069
0.164051
0.151890
0.024850
0.069794
0.112306
-0.039337
0.014835
0.013100
0.004990
-0.010798
0.002747
0.070994
0.084100
0.014292
0.018004
-0.022834
-0.011232
-0.000452
-0.081202
-0.050883
-0.037459
-0.045721
-0.037873
0.037803
0.001171
-0.021160
0.019605
-0.094546
-0.006329
-0.050866
-0.046436
0.001535
0.036331
-0.035287
-0.004839
-0.064317
-0.002494
-0.048342
-0.102239
-0.045832
-0.100041
-0.070190
0.008653
-0.139737
-0.031128
-0.042415
-0.072418
0.006439
0.092562
-0.059666
-0.055195
0.032515
0.001556
0.060839
-0.005226
0.085476
-0.034178
0.089715
0.112739
0.094367
0.158385
0.093960
0.150070
0.072880
0.155037
0.129194
0.151806
0.156458
0.136084
0.094069
0.151908
0.150941
0.081862
0.196570
-0.009090
0.042339
0.055922
0.121555
-0.102263
0.041186
0.040490
0.015291
0.015613
-0.019230
0.010439
-0.009919
-0.036080
-0.039068
-0.038963
-0.062221
-0.118187
-0.035836
-0.049973
-0.083000
-0.049925
0.078437
0.187140
0.443314
0.735885
1.083864
1.339637
1.331550
1.132131
0.801997
0.419675
0.103583
-0.238841
-0.232207
-0.276069
-0.142254
-0.101317
-0.045504
-0.020694
0.011574
-0.006507
0.017048
0.063215
0.005001
-0.017685
0.015758
0.141613
0.130845
0.126728
0.109077
0.157334
0.204552
0.116688
0.219784
0.289628
0.242862
0.269397
0.384028
0.316144
0.335159
0.371274
0.257979
0.368813
0.409574
0.423717
0.435726
0.477658
0.458139
0.422832
0.419834
0.387265
0.469133
0.391742
0.347336
0.362543
0.424833
0.374151
0.355014
0.322823
0.320008
0.287076
0.315883
0.269865
0.259353
0.250498
0.266699
0.186538
0.163631
0.147945
0.216250
0.045595
0.008651
0.121597
0.042330
0.125644
0.159791
0.000733
0.079325
0.000203
-0.049672
-0.061058
-0.018912
-0.023873
-0.088428
-0.049155
-0.040876
-0.001846
-0.056655
-0.056888
-0.033854
-0.025059
-0.091914
-0.070982
-0.150082
-0.197759
-0.127426
-0.000073
-0.098334
-0.125060
-0.028818
-0.092442
-0.027151
-0.066263
-0.114804
-0.069737
-0.112511
-0.004189
-0.149451
-0.081265
-0.152256
-0.070225
-0.224703
-0.136554
-0.045914
-0.101784
-0.073815
-0.136924
-0.086664
-0.112743
-0.150660
-0.112776
-0.089512
-0.119251
-0.114530
-0.115036
0.001411
-0.060223
-0.136845
-0.014190
-0.077627
-0.046710
-0.019330
-0.144888
0.033639
-0.016706
-0.058416
0.053011
0.054220
0.042944
0.120505
-0.008710
-0.033616
0.022205
0.100083
0.051643
0.030658
0.052213
0.053210
0.050362
0.071808
0.079503
0.036332
0.033904
0.098296
0.006468
0.089987
0.065177
-0.029287
0.005174
-0.043243
-0.034057
0.016382
-0.090405
-0.003557
-0.103841
-0.028680
-0.090960
-0.066807
-0.056699
-0.095565
-0.077008
-0.082006
-0.018557
-0.014768
0.148427
0.336629
0.689573
0.914893
1.116065
1.209970
1.214347
0.942331
0.467559
0.078248
-0.141783
-0.206117
-0.283788
-0.146590
-0.183594
-0.130898
-0.056103
-0.018952
-0.038778
-0.024387
0.065451
-0.002713
-0.028950
0.031424
-0.011049
0.038889
0.111238
0.120448
0.164143
0.190568
0.200493
0.192070
0.122468
0.208794
0.254590
0.287962
0.277078
0.293797
0.378432
0.352356
0.339091
0.377570
0.445840
0.451079
0.412477
0.462196
0.460667
0.419912
0.387527
0.458127
0.491895
0.433588
0.418732
0.459475
0.552097
0.513175
0.335676
0.325243
0.307765
0.329233
0.352141
0.274615
0.251918
0.229446
0.300766
0.240313
0.235265
0.170669
0.223706
0.169321
0.075317
0.095082
0.016281
0.061503
0.050583
0.086657
0.005189
0.017805
0.034512
-0.010339
-0.021277
0.023235
-0.022032
-0.081453
-0.042946
-0.040060
-0.046040
0.046758
-0.089589
-0.074673
-0.038096
-0.048124
-0.016007
-0.007700
0.035834
-0.074449
-0.024821
0.083517
-0.092265
-0.057022
-0.014164
-0.030012
0.017715
0.004743
0.003932
-0.109373
-0.056605
-0.051622
0.004641
0.028345
-0.051947
-0.116297
-0.037973
-0.052799
-0.095832
-0.079469
-0.006699
-0.046457
-0.022577
-0.040847
-0.057588
-0.044299
-0.052516
0.015520
0.041359
0.127224
0.011707
0.094542
0.096096
0.085176
0.079105
0.091408
0.109381
0.078017
0.181141
0.138879
0.119451
0.134722
0.249652
0.123184
0.157933
0.112364
0.172353
0.182544
0.136330
0.076384
0.193361
0.107950
0.141012
0.186485
0.161592
0.124186
0.028613
0.102208
0.089963
0.091755
0.110872
0.018977
0.003813
0.012855
0.012869
0.082710
0.000608
0.038350
-0.008360
0.003606
-0.106724
0.049564
-0.013060
0.083765
-0.023472
0.138667
0.103800
0.295116
0.585958
0.957526
1.228802
1.323396
1.357936
1.145460
0.769728
0.443959
0.124571
-0.048792
-0.067417
-0.171945
-0.087204
-0.036224
0.059464
0.098706
0.086365
0.131097
0.111934
0.128921
0.110786
0.110498
0.163599
0.122903
0.203957
0.286541
0.230096
0.228314
0.230160
0.248509
0.322009
0.371273
0.268067
0.412785
0.368076
0.341353
0.410942
0.473602
0.535339
0.508025
0.561444
0.551803
0.525526
0.473378
0.593768
0.616661
0.583128
0.507051
0.573304
0.489981
0.589625
0.548152
0.502621
0.518050
0.535604
0.561630
0.513753
0.524758
0.417357
0.394697
0.424180
0.423116
0.441190
0.332381
0.311978
0.278791
0.276899
0.396152
0.171851
0.226868
0.233112
0.204066
0.191677
0.148659
0.118849
0.110027
0.122716
0.145902
0.121099
0.052160
0.070236
0.144650
0.067800
0.022356
-0.017005
0.134294
0.108716
0.049608
0.107063
0.068437
0.053295
0.077719
0.075553
0.066852
0.081015
-0.022069
0.089089
0.122042
0.062335
0.036637
0.094958
-0.052872
-0.032632
0.064727
0.049697
0.094060
0.073579
0.043290
0.062669
0.068466
0.038780
0.097354
0.149533
0.058002
0.062148
0.073169
0.081094
0.153884
0.007606
0.186096
0.019523
0.135527
0.025597
0.044149
0.113752
0.103541
0.093287
0.068853
0.050271
0.149985
0.231575
0.184423
0.181262
0.127443
0.182868
0.183326
0.296388
0.192509
0.321896
0.237164
0.254974
0.270411
0.263762
0.277822
0.272493
0.255352
0.217841
0.195187
0.226221
0.150380
0.176544
0.157667
0.198559
0.163266
0.124957
0.084425
0.161771
0.124755
0.120483
0.066843
0.017762
0.001866
0.103414
0.053568
0.035704
0.040117
-0.016640
0.094978
0.131339
0.113955
0.155439
0.216153
0.508910
0.823621
1.190905
1.418065
1.417401
1.306642
1.087326
0.584003
0.234467
0.042710
-0.078450
-0.020036
0.015808
0.016658
0.016633
0.055471
0.184433
0.167185
0.104947
0.199662
0.089170
