-0.018681
-0.016137
0.034185
-0.032362
0.027040
0.053852
-0.005292
0.043449
0.024703
0.037739
-0.017455
0.085581
-0.044907
0.034529
-0.020313
0.039238
0.024248
-0.014710
-0.003938
0.080018
0.002348
0.035697
0.029200
0.019111
-0.020135
0.028325
-0.082706
-0.044270
0.074345
-0.017590
0.031352
0.046730
0.020467
0.010227
0.141340
0.032512
0.047175
0.064302
0.027138
0.053044
0.074308
0.100749
0.065450
0.080137
0.046268
0.144824
0.082570
0.046307
0.128707
0.114639
0.141812
0.104638
0.160346
0.187394
0.243583
0.120474
0.145099
0.221550
0.168579
0.239019
0.202676
0.248212
0.210437
0.225222
0.176270
0.134988
0.229614
0.159652
0.112203
0.169489
0.166266
0.123660
0.123873
0.111231
0.075983
0.084830
0.079207
0.066069
0.156098
0.062524
0.054365
0.071335
0.090515
0.065404
-0.003733
0.059649
0.029516
0.046048
0.082147
0.044135
0.014863
0.126786
0.112786
0.092049
0.053669
0.073696
0.031059
0.090897
0.058941
0.090999
0.068619
0.063662
0.088898
0.091705
0.128410
-0.013544
0.019770
0.055445
-0.054862
0.075341
-0.014979
-0.044105
-0.022796
0.002629
0.040868
0.226992
0.466587
0.834110
1.177279
1.350364
1.460114
1.465485
1.182836
0.891514
0.602048
0.344512
0.095353
-0.047760
-0.235790
-0.330231
-0.158411
-0.125521
-0.154078
-0.049010
-0.039529
-0.024839
0.045102
0.038306
0.101486
0.131747
0.114630
0.020926
0.066193
0.061190
0.090832
0.094538
0.017001
0.072919
0.120813
0.062857
0.012987
0.106501
0.179445
0.117548
0.151242
0.028161
0.100933
0.051478
0.185928
0.109576
0.115484
0.178498
0.108444
0.048939
0.189556
0.053894
0.144232
0.154434
0.266705
0.183966
0.208147
0.164013
0.175084
0.272776
0.233843
0.302872
0.296290
0.337044
0.369715
0.303109
0.378771
0.448754
0.443986
0.444454
0.466346
0.484391
0.450958
0.524425
0.551748
0.517057
0.597613
0.619718
0.577537
0.569327
0.589202
0.544126
0.571376
0.624184
0.552535
0.617557
0.623573
0.528188
0.517023
0.510238
0.429736
0.490650
0.546309
0.382114
0.365210
0.443317
0.369489
0.346369
0.362379
0.396183
0.351966
0.252149
0.273817
0.291375
0.268719
0.258068
0.202799
0.205855
0.226587
0.127392
0.128030
0.140082
0.135553
0.104698
0.116424
0.113029
0.175223
0.087780
0.149570
0.124973
0.098563
0.097987
0.194663
0.080024
0.104904
0.005910
0.163386
0.090431
0.123177
0.225115
0.072117
0.107381
0.058184
0.132428
0.060809
0.139811
0.054377
-0.012823
0.002169
0.078054
0.085238
0.106134
0.113378
0.115033
0.116846
0.020355
0.080666
0.104906
0.088982
0.135261
0.063431
0.069338
0.086743
0.061356
0.129769
0.036525
0.053749
-0.026295
0.039725
0.064930
-0.028815
-0.021697
0.099647
0.136441
0.090318
0.098292
0.027104
0.014158
0.067054
0.067721
-0.045211
0.037156
0.098215
0.076050
0.159777
0.085304
0.022092
0.085317
0.036397
0.085250
0.080020
0.023837
-0.010739
-0.003811
0.042016
0.062690
0.029626
0.085061
0.044706
0.102369
-0.001672
0.112110
-0.063568
0.138570
-0.003405
-0.015296
0.083633
0.029743
0.015826
0.016743
0.040882
0.090937
0.070529
0.104927
-0.018393
0.067048
0.126630
0.026027
0.022778
0.058519
0.041769
-0.021909
0.048090
0.076286
0.079927
0.068824
0.102478
0.067922
-0.007139
0.068977
0.025311
0.062826
0.049921
0.001428
-0.010922
0.030520
0.024353
0.096361
0.090149
0.046721
0.125760
0.106939
0.064221
0.107855
0.155987
0.171059
0.114811
0.203475
0.124781
0.128540
0.202817
0.195346
0.195717
0.252918
0.278289
0.205370
0.251892
0.183147
0.181125
0.212686
0.243422
0.207719
0.160143
0.207058
0.165550
0.211886
0.224147
0.104275
0.146676
0.126626
0.094100
0.125952
0.026848
0.030862
-0.020297
0.122347
0.073639
0.104498
0.116462
0.057062
-0.008935
0.038761
-0.022707
-0.047412
-0.028932
0.012667
0.001329
0.020779
0.022041
-0.014763
0.003498
0.031647
0.027169
0.072820
-0.008180
-0.042347
-0.093264
0.017865
0.082402
-0.067521
0.018017
0.020063
0.066422
-0.009474
-0.017854
-0.013716
-0.128128
-0.111348
-0.058659
-0.134162
-0.024908
0.101076
0.390195
0.757283
1.058423
1.289584
1.405251
1.322800
1.129231
0.841441
0.498486
0.223919
0.059588
-0.224578
-0.249153
-0.345659
-0.267627
-0.243615
-0.174817
-0.009438
-0.062608
-0.016552
-0.069763
0.032858
0.058149
0.046758
0.012408
0.031944
-0.063215
0.072088
-0.054133
0.012746
-0.104888
0.012890
0.022344
-0.021786
0.001258
0.021708
-0.004135
-0.043933
0.031048
-0.025181
0.054680
0.010174
-0.074565
-0.055747
0.041729
0.042789
0.108379
-0.011096
-0.006416
0.052853
0.072826
0.079098
0.003865
0.147377
0.117426
0.143926
0.168612
0.151960
0.162966
0.128822
0.207956
0.222606
0.201903
0.311307
0.237195
0.302848
0.321960
0.285869
0.361192
0.447357
0.378807
0.405847
0.482123
0.430802
0.450235
0.393190
0.402054
0.480576
0.492438
0.547302
0.498522
0.479881
0.474186
0.538846
0.456532
0.397784
0.436714
0.398552
0.394640
0.372353
0.348518
0.285399
0.314531
0.290172
0.260161
0.325497
0.255379
0.198621
0.169818
0.178664
0.190982
0.110720
0.130198
0.133285
0.090296
0.028386
0.084910
0.049211
-0.044401
0.106323
0.002895
0.014193
-0.009803
0.006241
-0.107656
-0.023275
-0.041697
0.029190
-0.039890
-0.034980
-0.015180
0.018300
-0.076371
-0.014080
-0.043960
-0.002116
-0.052589
0.016590
0.002004
0.016770
-0.044510
-0.014877
-0.028574
-0.058030
-0.066107
-0.023147
-0.025432
-0.011421
-0.066992
-0.082020
0.002431
-0.036366
0.008330
-0.031413
-0.091928
-0.112925
-0.072325
0.026920
-0.085889
-0.032303
-0.017965
-0.008811
0.042860
-0.036252
-0.045957
-0.030391
0.046230
-0.090421
-0.065068
0.063666
-0.056572
0.010482
-0.055381
-0.041577
0.019175
0.045105
-0.066235
-0.027571
-0.013378
-0.126060
-0.093234
-0.066616
0.012366
0.005621
-0.090033
-0.014682
0.021239
-0.060189
-0.037903
-0.052781
-0.054701
-0.034436
-0.029362
0.023720
-0.097373
-0.081939
-0.110407
-0.005456
-0.021604
-0.072737
-0.043079
-0.076944
-0.063630
0.014085
-0.058948
-0.042212
0.015318
-0.009807
-0.023417
-0.052482
-0.063007
-0.042886
-0.037727
-0.035928
0.023646
-0.014533
-0.057405
-0.018004
-0.015725
-0.112525
-0.119716
-0.089723
0.050204
-0.031770
-0.016449
-0.082300
-0.094092
0.005302
-0.072200
-0.002965
-0.030338
-0.025118
0.036855
-0.068109
0.054822
-0.058203
-0.033989
0.020653
0.002630
0.106358
0.013123
0.030303
0.037007
0.116777
0.037552
0.097079
0.074729
0.034296
0.028849
0.212516
0.151378
0.174819
0.183115
0.114708
0.109466
0.167338
0.285885
0.181502
0.154164
0.135907
0.158297
0.068773
0.068608
0.069673
0.032546
0.075581
0.026960
0.102822
-0.026749
-0.020020
0.016090
0.044799
0.045343
-0.058809
-0.051176
-0.010926
0.042919
-0.039791
0.015830
-0.008540
-0.059227
-0.017883
0.094968
-0.007277
-0.043744
0.033235
-0.027998
-0.021532
0.021123
-0.057906
0.014974
0.024250
-0.066887
0.055259
0.059111
0.092830
0.008572
0.113807
-0.030829
0.029678
-0.021994
0.014028
-0.075483
0.009662
-0.058550
-0.108659
-0.041680
-0.145024
-0.036761
0.163243
0.464346
0.808082
1.103563
1.348193
1.405203
1.407692
1.126165
0.822490
0.627689
0.304605
-0.011063
-0.128031
-0.290823
-0.353610
-0.278819
-0.143459
-0.145195
0.005309
-0.077969
0.034449
-0.033062
0.002125
-0.015276
0.023948
-0.025596
-0.021590
0.020254
0.108816
-0.020205
0.049227
0.014134
-0.003221
0.018898
0.073508
-0.019528
0.032683
0.048995
-0.014860
0.107665
0.078994
0.038247
0.125516
0.065844
0.009375
0.101035
0.057840
0.211065
0.060436
0.177790
0.098376
0.130800
0.157248
0.156484
0.161480
0.132180
0.254374
0.181673
0.156881
0.126503
0.210859
0.308369
0.270511
0.279816
0.321220
0.429534
0.351054
0.376593
0.363212
0.371521
0.420136
0.457874
0.431745
0.526506
0.562375
0.478223
0.509899
0.463267
0.579960
0.614636
0.526112
0.531655
0.525650
0.515511
0.548724
0.554942
0.559582
0.498137
0.562426
0.485124
0.506354
0.330809
0.422447
0.445414
0.423306
0.310345
0.318311
0.256118
0.299227
0.269730
0.310707
0.180227
0.249940
0.256522
0.228348
0.227005
0.149524
0.162916
0.136008
0.122229
0.156297
0.087956
0.070306
0.050385
0.050998
0.109002
0.168093
0.171889
0.105396
0.093345
0.124059
0.130722
0.034555
0.082773
0.093818
0.051128
0.072422
0.144681
0.074451
0.084978
0.126844
0.024974
0.083601
0.067832
0.052121
0.096181
0.044133
0.049390
0.038998
0.088641
0.100773
0.060872
0.109025
0.133334
0.149962
0.070131
-0.004808
0.076498
0.059975
0.036951
0.108790
0.114169
0.082462
0.031052
0.099339
0.075632
0.024027
0.094127
0.046309
0.054453
-0.001903
0.098618
0.068966
0.090506
0.075595
0.041363
0.020466
0.033065
0.006398
0.091315
0.001029
0.113960
0.101051
0.068812
0.091403
0.022766
0.112384
0.070233
0.052985
0.060445
0.042453
0.110579
0.053925
0.091637
0.176110
0.090910
0.045412
0.083094
0.144202
0.100875
0.134757
0.139240
0.104275
0.057096
0.097754
0.094916
0.090870
0.126437
0.110184
0.100314
0.115667
0.066219
0.056199
0.075602
0.109579
0.130578
0.058715
0.111170
0.113294
0.108115
0.069881
0.045117
0.023325
0.131116
0.067777
0.064736
0.100580
0.165920
0.091651
0.087339
0.097257
0.082120
0.106473
0.081790
0.082132
0.100920
0.082765
0.144980
0.079508
0.149818
0.059213
0.175785
0.162729
0.128311
0.215546
0.193137
0.161381
0.211397
0.214734
0.251925
0.275190
0.226853
0.226604
0.274317
0.299031
0.239150
0.256204
0.252159
0.257754
0.215338
0.158098
0.221409
0.172185
0.243769
0.258920
0.205639
0.167549
0.124817
0.186865
0.141923
0.106667
0.126640
0.169074
0.141163
0.104706
0.197022
0.165917
0.117800
0.109360
0.160003
0.050051
0.065335
0.131881
0.019886
0.046440
0.087181
0.033872
0.084873
0.028856
0.110597
0.045313
0.172735
0.026453
0.119514
0.040248
0.081621
0.091009
0.024639
0.080724
0.134426
0.138008
0.162299
0.091515
0.044600
0.044917
0.002485
-0.062728
-0.163520
-0.098963
0.023219
0.243392
0.544187
0.826787
1.064282
1.324956
1.500000
1.470404
1.229841
0.959793
0.668492
0.261352
0.061855
-0.021883
-0.283493
-0.248388
-0.209379
-0.116602
-0.105353
-0.009317
0.036145
0.045935
-0.007447
0.056177
0.115035
0.059612
0.075074
0.060752
0.096132
0.063275
0.072186
0.112617
0.089620
0.001699
0.034753
0.144268
0.141838
0.100138
0.077728
0.085470
0.104983
0.144166
0.066438
0.107647
0.101312
0.130627
0.133743
0.124118
0.168261
0.094103
0.112207
0.087103
0.135514
0.064226
0.143086
0.120217
0.138350
0.215955
0.225106
0.172342
0.312921
0.271216
0.278346
0.259237
0.308711
0.282765
0.342695
0.364759
0.421203
0.364268
0.434309
0.394410
0.486017
0.476641
0.520549
0.465626
0.491464
0.533043
0.516838
0.516412
0.442762
0.546255
0.544423
0.530643
0.472304
0.537973
0.527645
0.514362
0.410580
0.395786
0.452803
0.432905
0.365189
0.418203
0.366489
0.305611
0.318102
0.274937
0.320903
0.229155
0.261893
0.213265
0.210416
0.234713
0.163115
0.222095
0.210808
0.243328
0.139922
0.041111
0.043625
0.103659
0.030037
0.104673
0.018795
0.050348
0.085033
-0.023653
0.012630
0.076576
0.010399
0.018970
0.034599
0.007830
0.000293
0.063264
-0.045533
0.022030
0.000181
-0.013105
-0.047442
0.027361
0.097026
0.055555
0.048022
0.038582
-0.007673
0.019030
0.037733
-0.014649
0.019385
-0.015798
-0.028067
-0.095312
-0.015629
-0.016848
0.037314
-0.030075
-0.048744
0.039998
-0.000684
-0.045045
-0.080454
0.004798
0.003872
-0.031020
-0.006142
0.046868
-0.036982
-0.092891
-0.054400
-0.056043
-0.052035
-0.044387
-0.027964
0.028298
-0.051495
-0.011403
-0.008109
0.043492
-0.143871
-0.082266
0.013076
0.002222
-0.011519
-0.064543
0.002596
0.004998
0.009088
-0.020499
-0.003330
-0.028236
-0.088268
0.037311
0.013422
-0.047091
-0.050920
0.015136
-0.110024
-0.013282
-0.035002
-0.031027
-0.020253
-0.090763
-0.013497
-0.076850
-0.005972
-0.067060
-0.055537
0.008050
-0.010745
-0.025209
-0.011426
-0.019625
-0.105935
-0.109376
-0.051358
-0.049624
-0.091164
-0.047162
-0.069885
-0.040947
0.034933
-0.056336
0.083072
-0.085406
-0.012184
-0.072558
-0.068771
-0.008445
0.022743
-0.020744
-0.048936
-0.015890
-0.044830
-0.094015
0.069413
-0.057594
-0.041105
-0.093823
0.088466
-0.000563
0.024272
-0.005075
0.007432
0.084691
0.093972
0.144025
0.082803
0.113166
0.149675
0.060127
0.043715
0.048098
0.167035
0.055897
0.135708
0.149209
0.043681
0.106735
0.063987
0.114709
0.080093
-0.011455
0.089481
0.089019
0.100186
0.008738
0.033315
0.012716
-0.061608
-0.043972
-0.031108
-0.065329
-0.040791
-0.024604
-0.059053
-0.037021
-0.100874
0.036874
-0.007284
-0.145396
-0.094029
-0.059189
-0.067206
-0.025753
-0.094039
-0.023676
-0.071629
-0.035462
-0.080834
-0.048349
-0.172025
-0.024158
0.006246
-0.150885
-0.123693
-0.089487
-0.135685
-0.082753
-0.133374
-0.030647
-0.058040
-0.058340
-0.118977
-0.065737
-0.131652
-0.185667
-0.219891
-0.228110
-0.178381
0.032632
0.355414
0.678064
1.012643
1.196832
1.325037
1.283894
0.989618
0.863418
0.472970
0.116927
-0.126435
-0.303054
-0.269308
-0.356749
-0.351776
-0.391344
-0.208638
-0.206742
-0.136698
-0.039522
-0.117311
-0.110000
-0.032473
-0.058732
-0.117090
-0.076322
-0.088080
-0.118981
-0.028783
0.004292
-0.049043
-0.104330
-0.029522
-0.090135
-0.028901
-0.173448
-0.096214
-0.092086
-0.045622
-0.075085
-0.119258
-0.040151
-0.000361
-0.029197
-0.045890
-0.082791
0.073324
-0.064444
-0.030090
-0.036500
-0.083768
-0.019436
-0.018897
0.074558
0.105632
0.017502
0.077161
0.033476
0.153455
0.103538
0.126428
0.210776
0.216967
0.106600
0.256044
0.170539
0.278524
0.250035
0.281506
0.398688
0.300216
0.356637
0.339595
0.422071
0.355116
0.428440
0.414587
0.450767
0.456145
0.343536
0.394581
0.421081
0.430589
0.439836
0.379710
0.261282
0.341628
0.360748
0.291295
0.317592
0.360296
0.250975
0.260973
0.212770
0.278718
0.225864
0.161659
0.206680
0.107508
0.112915
0.100244
0.131814
0.055465
0.051305
0.011487
0.012246
0.000140
0.106201
0.002154
-0.002621
0.037190
0.004186
-0.046781
-0.022377
0.047093
-0.013303
0.034879
-0.078231
-0.053244
-0.013325
-0.009127
-0.049232
-0.073371
-0.083456
-0.112321
-0.073590
-0.056887
-0.080683
-0.089276
-0.098411
-0.054851
-0.055448
-0.011889
-0.044819
-0.003818
-0.117931
-0.033742
0.006317
-0.097049
-0.043155
-0.035526
-0.078149
-0.056397
-0.134665
-0.016538
0.007875
-0.021187
-0.075917
-0.042710
-0.040956
-0.060745
-0.027154
-0.104142
-0.103589
-0.134796
-0.058458
-0.069342
0.007319
0.010264
-0.081892
-0.071607
-0.045274
-0.059172
0.055442
0.066447
0.032877
-0.075572
-0.045184
-0.110383
-0.019035
-0.022425
0.036918
-0.073010
-0.035162
0.003770
-0.087909
-0.035399
0.011268
-0.012451
0.016128
0.009290
-0.051295
-0.068896
0.004568
0.006075
0.078334
0.038577
-0.036897
-0.013550
-0.064065
-0.090783
-0.094504
-0.018564
0.045234
-0.099908
0.038043
0.010463
-0.025803
-0.051343
0.002765
-0.018584
-0.041028
-0.038010
-0.039012
-0.007391
-0.019584
0.014345
-0.089455
0.056338
-0.072874
0.006760
0.003359
0.035262
0.065971
-0.010595
-0.008732
0.023074
-0.055399
0.046757
0.109913
0.028811
0.049697
-0.027037
-0.012777
-0.009128
0.020634
0.069985
-0.027892
0.076162
0.039968
0.172209
0.039215
0.155074
0.095490
0.097062
0.063777
0.076667
0.057810
0.145748
0.091470
0.164379
0.211930
0.212425
0.091031
0.158291
0.157573
0.204049
0.200305
0.177626
0.218204
0.220277
0.166898
0.154631
0.143917
0.138848
0.087080
0.091744
0.123564
0.042131
0.105180
0.037578
0.122556
0.077824
0.073801
0.003056
0.046930
0.003434
0.029076
-0.010013
0.012259
0.061801
-0.038481
-0.049016
-0.004652
0.020749
0.035245
0.074773
0.030491
0.025815
0.031662
0.003927
0.008856
-0.025547
0.067894
-0.008971
0.007870
0.046150
0.027407
0.102946
0.043434
0.021995
0.096761
0.016843
0.001144
0.011039
-0.026777
-0.087617
-0.095109
-0.034396
0.142935
0.413994
0.742362
1.117079
1.370366
1.433287
1.361769
1.159028
0.827669
0.560579
0.238840
0.073857
-0.040829
-0.285568
-0.277002
-0.353213
-0.279512
-0.107599
-0.093095
-0.012437
-0.032614
-0.039978
0.021439
0.031361
0.003975
0.049887
0.062610
0.093135
-0.031641
0.080114
0.039093
0.040394
-0.007688
0.022730
-0.000717
0.079921
-0.016400
0.034848
-0.012566
-0.031282
0.032043
0.006839
0.044617
0.011141
0.089589
0.101863
0.017303
0.000095
0.000434
0.110896
0.127641
0.122587
0.172232
0.166363
0.120322
0.173604
0.143952
0.254210
0.144415
0.224013
0.247244
0.240931
0.280689
0.312088
0.315238
0.322091
0.368838
0.382868
0.371502
0.401711
0.453651
0.453075
0.535647
0.498485
0.546554
0.506050
0.567429
0.583373
0.549520
0.550831
0.571179
0.520847
0.506049
0.481224
0.527651
0.566278
0.532778
0.524838
0.482581
0.463342
0.498082
0.356571
0.374610
0.455496
0.325293
0.382390
0.411731
0.268060
0.290807
0.324593
0.285541
0.279955
0.144667
0.179781
0.242929
0.260189
0.118299
0.139450
0.115754
0.126925
0.101758
0.178529
0.053316
0.033141
0.070677
0.026917
0.100322
0.024368
0.073773
0.095144
0.088311
0.055977
0.015970
0.124922
0.028164
0.070150
0.095778
0.070298
0.011653
0.061521
0.068390
0.098313
0.050449
0.043690
0.023208
0.047534
0.059522
0.030826
0.046677
0.014732
0.044272
0.055142
0.007157
0.067940
0.006865
0.059040
-0.019350
-0.017823
-0.006311
-0.000002
-0.008562
0.090417
0.044196
0.025058
0.008399
0.172302
0.042645
0.033275
0.019111
0.037857
0.057117
-0.010358
0.001862
0.051728
0.051507
0.027381
-0.019298
0.037140
0.035092
-0.027049
-0.041562
0.068535
0.104059
-0.036023
0.028940
0.029603
0.101298
-0.000740
0.032232
-0.033057
-0.003292
-0.004102
0.083009
0.077202
0.026393
0.076401
0.073924
0.001376
0.052060
-0.003453
0.046359
-0.029131
0.058522
0.007164
-0.043888
0.023307
0.062328
0.045620
0.011495
0.022751
-0.000992
-0.032492
0.012713
0.012927
-0.019461
0.000201
-0.028493
0.029109
-0.019436
0.013249
0.001790
-0.016954
0.081525
-0.022586
0.007974
0.043802
-0.050172
0.107293
0.002896
-0.016694
-0.044847
-0.029495
-0.017048
0.038249
0.091983
0.008616
0.069310
0.056291
0.029402
0.002938
0.068959
0.046699
0.043094
0.078869
0.105706
0.180711
0.095485
0.111703
0.130761
0.185219
0.114145
0.114566
0.144262
0.189303
0.180574
0.146329
0.120291
0.173373
0.153815
0.154974
0.131478
0.087003
0.135386
0.090948
0.073726
0.098705
0.071680
0.061445
0.119844
0.053328
0.060204
0.048782
0.011576
0.002294
-0.065722
-0.066528
0.026589
-0.009310
0.069458
0.072177
0.004744
-0.003978
-0.129966
-0.022501
-0.058133
-0.058284
-0.044711
-0.034953
-0.037874
-0.053219
0.056856
-0.077678
-0.004279
-0.082369
0.064279
0.003355
-0.045918
0.013758
-0.056387
-0.088407
-0.028249
-0.015254
-0.077602
-0.030619
0.010968
-0.175063
-0.196068
-0.188612
-0.164474
-0.043433
0.150011
0.456977
0.737973
1.079385
1.354261
1.360447
1.288211
1.084046
0.794216
0.471305
0.207182
-0.067350
-0.210940
-0.322166
-0.375967
-0.347436
-0.279047
-0.210387
-0.212020
-0.034720
-0.083836
-0.073636
-0.034246
-0.053669
-0.063549
-0.010472
-0.064084
-0.058214
-0.085250
-0.040750
-0.064287
-0.070419
-0.088619
-0.021087
-0.071656
-0.093461
-0.035437
0.031313
-0.113752
-0.012495
-0.085693
0.050136
0.014749
-0.048947
-0.038087
0.035651
-0.050342
-0.062435
-0.062322
-0.046840
0.005998
0.022882
0.111943
-0.030132
0.025583
0.070613
0.053889
0.097262
0.071526
0.063363
0.041615
0.110191
0.160091
0.212105
0.214401
0.186807
0.220824
0.274370
0.223247
0.273413
0.317337
0.314385
0.308572
0.348527
0.262759
0.430555
0.457586
0.444780
0.417884
0.477749
0.432822
0.417573
0.435651
0.330297
0.382837
0.361071
0.467044
0.375184
0.315037
0.294505
0.293078
0.365780
0.241992
0.242815
0.216297
0.229314
0.209058
0.242836
0.120518
0.176116
0.136224
0.082678
0.101381
0.091399
0.136723
0.029194
0.029977
-0.017728
0.022025
-0.043998
-0.018733
-0.073183
-0.014097
-0.075236
-0.024711
-0.012526
-0.035173
-0.067728
-0.065213
-0.068208
-0.098432
-0.093162
-0.099151
-0.123495
-0.047139
-0.151124
-0.185368
-0.068120
-0.102265
-0.107616
-0.074961
-0.007759
-0.107336
-0.099635
-0.050054
-0.169515
-0.163547
-0.129978
-0.090919
-0.095304
-0.153883
-0.130992
-0.015716
-0.013962
-0.125529
-0.123885
-0.040254
-0.141540
-0.093603
-0.098925
-0.115509
-0.159711
-0.098410
-0.085381
-0.072054
-0.124622
-0.135952
-0.145165
-0.138157
-0.098616
-0.135293
-0.067292
-0.071074
-0.126701
-0.106454
-0.113154
-0.022307
-0.053485
-0.111658
-0.129971
-0.017342
-0.135886
-0.026474
-0.090816
-0.071887
-0.127632
-0.099686
-0.088995
-0.139675
-0.017351
-0.106870
-0.134854
-0.079067
-0.098101
-0.102054
-0.157392
-0.024666
-0.139163
-0.062359
-0.004341
-0.125827
-0.114135
-0.126680
-0.101604
-0.075358
-0.083973
-0.192080
-0.053221
-0.054277
-0.093368
-0.117516
-0.072425
-0.090385
-0.113294
-0.047522
-0.047146
-0.088051
-0.123050
-0.155828
-0.104799
-0.018089
-0.127592
-0.037936
-0.123073
-0.060436
-0.058064
-0.101171
-0.093904
-0.105332
-0.092902
-0.047125
-0.023837
-0.084034
-0.037720
-0.083159
-0.059289
-0.143234
-0.011678
0.098901
-0.113893
-0.073323
-0.016402
-0.021779
0.007603
-0.050154
0.074186
0.034689
0.104016
0.089065
-0.030595
-0.002541
0.053940
0.113385
0.026972
0.077764
0.096016
0.104835
-0.046761
0.066026
0.087680
0.110716
0.162833
0.053602
0.009402
-0.016596
0.089362
-0.039425
-0.024408
0.009806
0.022088
-0.029797
-0.025958
0.011994
0.042285
-0.022212
0.016577
-0.022912
-0.089970
0.016895
-0.047932
-0.114185
-0.098085
-0.060191
-0.026873
-0.131352
-0.149895
0.025145
-0.028225
-0.021684
-0.064395
-0.087271
-0.077704
-0.038909
-0.034562
-0.117453
-0.102290
-0.124844
-0.033485
0.012707
-0.036136
-0.053145
-0.070704
-0.045477
-0.100241
-0.057987
-0.114381
-0.192788
-0.154802
-0.187520
-0.015715
0.085882
0.427966
0.662933
1.016197
1.212760
1.380227
1.308585
1.135831
0.756214
0.565142
0.231461
-0.017493
-0.181020
-0.391376
-0.368364
-0.410457
-0.297847
-0.191962
-0.133619
-0.071832
-0.054834
-0.075110
-0.099209
-0.018367
-0.089188
-0.071812
0.001139
-0.022349
-0.069909
-0.040209
-0.085792
-0.046170
0.024344
-0.019082
-0.091387
-0.050065
0.033982
-0.007554
-0.012050
-0.021455
0.003485
0.015530
0.085874
-0.021974
0.060309
-0.093370
0.017287
0.008159
0.069842
0.057019
0.050412
-0.000235
0.141040
0.096313
0.079107
0.024473
0.077833
0.197835
0.176003
0.207648
0.215925
0.325406
0.270854
0.256319
0.253022
0.325764
0.336403
0.351444
0.337662
0.347557
0.377998
0.343479
0.472711
0.431059
0.500336
0.573903
0.493602
0.558815
0.527630
0.472586
0.532489
0.543418
0.500290
0.557935
0.450069
0.428727
0.474104
0.493886
0.506007
0.418255
0.474040
0.252987
0.423877
0.322838
0.392784
0.304490
0.303022
0.291099
0.226028
0.165741
0.244990
0.199530
0.197355
0.235570
0.161743
0.206212
0.109277
0.168549
0.075675
0.055855
0.145807
0.066636
0.078239
0.041688
0.001755
0.099540
0.086195
0.040783
0.033927
0.072738
0.071086
0.054922
0.001264
-0.035108
-0.008436
0.065916
0.043606
-0.005085
0.046026
0.078964
0.005861
0.078390
0.016470
-0.067933
-0.004434
-0.032975
-0.001354
0.017132
0.071516
0.126765
-0.044840
0.067051
0.008976
0.051093
-0.001498
-0.016834
0.090815
0.063087
0.056304
0.026261
0.067885
0.046533
0.053713
0.082401
0.059880
0.029753
-0.034288
-0.023287
-0.003022
0.071676
0.102347
0.018805
0.042564
0.052747
0.010100
0.027846
0.080115
0.015981
0.018188
0.006686
-0.004159
0.008079
0.024714
0.095624
0.033305
0.029282
0.098100
0.014041
0.015383
0.084551
-0.031353
0.024003
0.005970
0.034307
0.097804
0.078014
0.003325
0.135702
0.065923
0.014686
0.084720
0.066309
0.009332
0.074194
0.021457
0.001344
0.106169
0.026255
0.029484
0.031452
0.012995
-0.006116
0.062943
0.096731
0.027778
0.053612
0.033845
0.091569
0.023418
0.020601
0.035697
0.042182
0.136747
0.074430
0.035449
0.115498
0.078848
0.076204
0.067032
0.054233
0.066048
0.051338
0.057010
0.023095
0.082238
0.062440
0.176001
0.099200
0.052381
0.118666
0.113295
0.221719
0.039425
0.200806
0.178443
0.222384
0.154719
0.120447
0.169577
0.176144
0.197622
0.186833
0.136633
0.215938
0.233120
0.198333
0.150173
0.281872
0.190397
0.242553
0.216507
0.212214
0.182660
0.137451
0.216148
0.156275
0.166991
0.119855
0.109482
0.198552
0.120428
0.115770
0.058096
0.127971
0.108159
0.064161
0.113101
0.041464
0.087993
0.137100
0.048391
0.150729
0.056556
-0.035845
0.104985
0.109199
0.070654
0.069095
0.080360
0.078676
0.179355
0.087686
0.067862
-0.003500
-0.060361
