-0.027481
0.015660
0.001283
-0.041183
-0.115560
0.022713
0.095086
0.109517
-0.041476
0.044016
0.021515
0.018204
0.043617
-0.111899
0.066489
0.083341
0.111264
0.002061
0.011592
0.084881
0.140328
0.128072
0.060349
0.136958
0.204810
0.134862
0.200904
0.172898
0.202358
0.153263
0.196806
0.178041
0.242047
0.228074
0.244845
0.158940
0.222717
0.108381
0.188852
0.189937
0.147164
0.211956
0.210261
0.154467
0.198939
0.175272
0.095354
0.127331
0.147517
0.133947
0.078961
0.054732
0.088007
0.140463
0.025536
0.011697
-0.018149
0.010746
0.101272
0.117838
0.096827
0.123138
0.126785
0.351026
0.608518
0.993218
1.208093
1.389035
1.482982
1.231708
0.887844
0.498066
0.204518
0.038015
-0.080967
-0.180248
-0.040132
0.135564
0.070837
0.137347
0.086823
0.124251
0.055510
0.207240
0.113995
0.117076
0.248284
0.258021
0.328552
0.200920
0.293725
0.303550
0.227911
0.363835
0.406719
0.441793
0.382034
0.434376
0.432110
0.453007
0.461775
0.570703
0.510622
0.549797
0.632810
0.694895
0.556185
0.579342
0.650041
0.524435
0.658697
0.570993
0.569290
0.626371
0.584340
0.534127
0.562734
0.599337
0.586490
0.521633
0.516066
0.403343
0.455214
0.431696
0.440236
0.353068
0.402445
0.338918
0.326910
0.297238
0.246674
0.370402
0.268017
0.179729
0.280275
0.124311
0.194782
0.162519
0.167070
0.186044
0.073130
0.164162
0.114341
0.100276
0.119618
0.080564
0.103565
0.180885
0.089957
0.026230
0.117124
0.161959
0.098749
0.078965
0.061913
0.115128
0.006848
0.073225
0.099019
0.021035
0.071831
0.125759
0.214837
0.096909
0.110029
0.068274
0.100684
0.063531
0.060033
0.085177
0.032281
0.088300
0.138999
0.082306
0.101988
0.066234
0.149679
0.058443
0.058654
0.072585
0.005275
0.118246
0.186792
0.133425
0.078050
0.154678
0.095497
0.107061
0.125894
0.149855
0.221794
0.176251
0.181983
0.233216
0.208518
0.272270
0.142595
0.298155
0.225338
0.287301
0.193682
0.278380
0.283759
0.266816
0.254405
0.345570
0.309065
0.257812
0.319158
0.316008
0.186502
0.207361
0.158565
0.151656
0.168465
0.167040
0.238735
0.148661
0.177098
0.042606
0.146777
0.052681
0.160510
0.152709
0.117467
0.132188
0.094379
0.054045
0.040251
0.274597
0.161209
0.310136
0.553886
0.779885
1.160926
1.325408
1.492605
1.376452
1.131842
0.677627
0.458139
0.152243
0.001727
-0.085796
-0.041196
0.091146
0.198259
0.077439
0.179298
0.233081
0.125815
0.154088
0.174920
0.172270
0.291474
0.095573
0.183551
0.306513
0.284737
0.343014
0.335078
0.297247
0.373663
0.382358
0.417438
0.423547
0.435219
0.544813
0.566792
0.496155
0.520479
0.542807
0.537726
0.649009
0.599433
0.630747
0.677313
0.552733
0.640250
0.607442
0.558075
0.608964
0.666463
0.642411
0.562578
0.556685
0.556967
0.574274
0.501938
0.493824
0.493475
0.444277
0.426443
0.467911
0.421557
0.289717
0.340707
0.305970
0.247511
0.254487
0.165781
0.107420
0.246499
0.215896
0.214614
0.148699
0.210771
0.228542
0.138636
0.167633
-0.020936
0.056481
0.147229
0.107496
0.126831
0.115083
0.116301
0.137468
0.050199
0.126530
0.122256
0.064773
0.059541
0.058986
0.096068
0.026590
-0.022762
0.070907
0.048358
0.016179
0.046968
0.151210
0.111896
0.067925
0.056100
-0.018139
0.043480
0.037895
0.027606
0.038766
0.062467
0.098613
0.032255
0.044264
0.057716
0.075851
0.094948
0.036063
0.097530
0.109620
0.160701
0.069625
0.063028
0.022986
0.191903
0.170720
0.107790
0.113794
0.040380
0.133632
0.140279
0.134516
0.158827
0.152691
0.153130
0.151750
0.224914
0.207318
0.195533
0.063322
0.173094
0.188485
0.281952
0.167120
0.213298
0.193664
0.221519
0.213610
0.239144
0.134502
0.208269
0.123773
0.097120
0.028356
0.120395
0.032638
0.062223
0.076532
0.065109
-0.021918
0.077019
0.042569
-0.017029
0.077677
0.008660
0.074094
0.056179
0.125219
0.023203
0.124930
0.369606
0.584632
0.827333
1.166902
1.425431
1.387637
1.131015
0.850835
0.498413
0.089841
0.001034
-0.093591
-0.110701
-0.127648
0.016038
0.100243
0.038351
0.025048
0.100483
0.134066
0.184650
0.073026
0.199591
0.164149
0.155576
0.132124
0.160786
0.309004
0.126243
0.290460
0.284001
0.230457
0.279064
0.375681
0.410902
0.443916
0.376975
0.466460
0.442966
0.426301
0.476810
0.432812
0.523918
0.558582
0.463230
0.579270
0.520297
0.569255
0.608864
0.456510
0.459212
0.443470
0.394437
0.479570
0.447054
0.444491
0.430622
0.364604
0.325575
0.357399
0.391344
0.263808
0.298307
0.354850
0.241429
0.242755
0.197747
0.178098
0.101553
0.214836
0.056010
0.046528
0.035150
0.004053
0.081509
0.070854
0.090898
0.088562
0.038426
0.001143
0.099442
0.043501
0.016643
0.008661
-0.003778
-0.090763
-0.022309
0.013568
0.047342
-0.026822
0.044651
0.024818
-0.040678
-0.083361
-0.015656
-0.018584
-0.071195
0.026910
-0.006844
-0.034499
-0.104322
-0.032994
-0.003392
-0.022202
0.009717
0.012178
-0.016287
-0.029734
0.078856
0.028165
-0.044839
0.013544
0.005270
-0.045199
0.001194
0.026650
0.017748
-0.033452
-0.025614
0.002805
-0.029433
0.026590
-0.109910
0.058100
0.020695
-0.027054
0.024784
0.068705
0.037507
0.131375
0.081039
0.085761
0.137268
0.119047
0.072277
0.089077
0.179980
0.134983
0.147174
0.200955
0.061636
0.115366
0.101473
0.190466
0.146938
0.108801
0.100816
0.103003
0.016585
0.090691
0.185248
0.083009
-0.035003
0.035355
-0.065544
0.006697
0.054498
0.052991
0.057037
0.087628
0.003027
-0.013377
0.041128
0.020246
-0.049425
-0.060498
0.064268
0.014261
0.147874
0.315155
0.596816
0.961873
1.299107
1.341627
1.287139
1.148628
0.648096
0.318195
0.033520
-0.165095
-0.170766
-0.084064
-0.077866
-0.104842
0.086797
0.131895
0.125166
0.051262
0.063227
0.103655
0.019013
0.150903
0.098331
0.074330
0.098743
0.179096
0.196323
0.140181
0.229833
0.241828
0.292982
0.252475
0.318562
0.342244
0.346076
0.370107
0.412006
0.432986
0.456722
0.539387
0.454438
0.484086
0.477485
0.577216
0.447184
0.500255
0.483222
0.509859
0.395195
0.473340
0.516998
0.484664
0.454593
0.394936
0.474125
0.457806
0.334650
0.267785
0.398994
0.258003
0.342038
0.270932
0.220360
0.302005
0.111399
0.227200
0.158471
0.157665
0.127446
0.176051
0.021446
0.099687
0.119064
0.066451
0.027984
0.052632
0.068420
0.000293
-0.008711
-0.031579
0.005011
0.016397
-0.020239
-0.068501
-0.079958
-0.081109
-0.113578
-0.056046
0.039489
0.023968
0.013048
-0.096956
-0.052128
0.003863
0.021024
0.028097
0.004649
-0.043877
-0.024712
-0.006172
-0.002833
0.058805
-0.065627
-0.004723
-0.065286
-0.076683
0.005293
0.010739
-0.065488
-0.083768
-0.021166
-0.047175
-0.024079
0.098447
-0.091302
0.015552
-0.105852
0.039284
-0.026419
0.060999
0.002700
0.067418
-0.042502
0.002583
0.029571
0.098303
0.103795
0.126163
0.121747
0.162144
0.103172
0.091091
0.176525
0.126296
0.246367
0.181812
0.204892
0.191144
0.111554
0.188950
0.213565
0.166119
0.163104
0.218369
0.156983
0.108432
0.124199
0.122112
0.111772
0.056743
0.142449
0.073217
0.039696
0.033561
-0.040131
0.129626
0.097592
0.034689
0.049189
0.002334
0.027449
-0.007571
0.018852
0.028091
0.062578
0.101194
0.234426
0.327762
0.617797
0.745941
1.157935
1.428221
1.409334
1.216782
0.997607
0.607064
0.161792
0.018726
-0.140996
-0.208849
-0.053955
-0.001796
0.029681
0.033661
0.177692
0.127659
0.130878
0.167958
0.156280
0.225642
0.142798
0.219168
0.200379
0.114657
0.237484
0.296677
0.248464
0.290142
0.307484
0.346428
0.388825
0.472776
0.445419
0.460471
0.447866
0.498893
0.402057
0.576518
0.522385
0.462965
0.611330
0.586167
0.604552
0.560391
0.601405
0.593228
0.537214
0.531406
0.545374
0.529036
0.612714
0.495522
0.524428
0.452162
0.436890
0.441346
0.442689
0.350266
0.383421
0.396881
0.325968
0.258242
0.263523
0.302127
0.234914
0.266485
0.241205
0.190502
0.188908
0.171729
0.099922
0.113811
0.120279
0.156693
0.126712
0.051657
0.168378
0.169206
0.040328
0.091189
0.060345
0.085819
0.033574
-0.000520
-0.018017
0.084432
0.060655
0.150833
0.059493
-0.008505
0.101578
0.079775
0.019166
0.071068
0.014558
0.124353
0.089228
0.122498
0.027478
0.027263
0.097602
0.069205
0.065197
0.136892
0.142044
0.131189
0.029343
0.122540
0.076877
0.126102
-0.047584
0.084361
0.111464
0.069984
0.092080
0.048930
0.043766
0.154729
0.047810
0.049909
0.074998
0.132923
0.180251
0.050756
0.224215
0.205010
0.163260
0.266096
0.261442
0.306751
0.256786
0.251241
0.280339
0.274008
0.379207
0.201040
0.254614
0.342893
0.302753
0.230148
0.325659
0.229994
0.233785
0.301918
0.194568
0.286891
0.194849
0.255787
0.213107
0.130114
0.179356
0.140384
0.057335
0.141197
0.096751
0.157412
0.104927
0.099311
0.120614
0.085642
0.102924
0.159976
0.194958
0.119717
0.093896
0.278939
0.478368
0.784474
0.987070
1.359849
1.500000
1.479170
1.238893
0.820634
0.337995
0.154112
-0.021440
-0.073955
-0.002694
0.062840
0.154193
0.062737
0.188814
0.248783
0.110083
0.253717
0.268540
0.264549
0.253054
0.284743
0.292347
0.253196
0.311312
0.374364
0.336201
0.349402
0.365521
0.380895
0.341505
0.430670
0.511648
0.510335
0.540501
0.533990
0.617864
0.599086
0.616851
0.621778
0.603235
0.581381
0.601314
0.612661
0.580828
0.651806
0.573256
0.591700
0.687494
0.648604
0.611940
0.637566
0.552719
0.635612
0.554474
0.552087
0.452100
0.424634
0.406300
0.402898
0.469329
0.397165
0.330844
0.372563
0.344511
0.308255
0.294365
0.364393
0.303664
0.170500
0.194637
0.153496
0.151717
0.179355
0.188837
0.200237
0.123145
0.143748
0.199462
0.124230
0.126910
0.122585
0.124857
0.159005
0.027214
0.188027
0.113391
0.039317
0.108481
0.060480
0.118545
0.065643
0.130982
-0.050574
0.094457
0.126075
0.118969
0.079188
0.043549
0.057215
0.056706
0.101013
0.146216
0.010154
0.036202
0.097737
0.100708
0.177532
0.024772
0.078726
-0.003867
0.112403
0.080324
0.109822
0.046060
0.062738
0.085634
0.096495
0.018519
0.239509
0.110786
0.091746
0.148044
0.197139
0.085631
0.123808
0.150237
0.201481
0.150173
0.233797
0.215030
0.294896
0.216917
0.202563
0.209341
0.205098
0.278196
0.280736
0.165293
0.216996
0.265107
0.238598
0.259253
0.185250
0.166931
0.279990
0.175403
0.134123
0.100549
0.092487
0.147818
0.185721
0.116352
0.098349
0.115359
0.141433
0.079168
0.097138
0.066926
0.022988
0.103077
0.098469
0.009513
0.113777
-0.026085
0.138304
0.339705
0.529235
0.822883
1.277152
1.426453
1.444775
1.330168
1.017540
0.569744
0.246851
-0.014918
-0.092935
-0.093671
-0.082793
-0.030066
0.083656
0.036669
0.081695
0.031116
0.125133
0.173547
0.145857
0.253415
0.147169
0.254292
0.235936
0.183388
0.274789
0.285196
0.359005
0.333941
0.263042
0.351996
0.335182
0.483786
0.330834
0.431458
0.438900
0.522057
0.535772
0.522139
0.567351
0.601984
0.542954
0.514959
0.485038
0.597681
0.609227
0.592003
0.569492
0.554197
0.486324
0.500154
0.543276
0.504481
0.467217
0.489623
0.424668
0.456938
0.349003
0.468355
0.311386
0.348967
0.275839
0.297189
0.224085
0.281608
0.204832
0.286081
0.136052
0.216337
0.152463
0.093890
0.163503
0.054701
0.079272
0.053229
0.066870
0.016482
0.028912
0.070577
0.106704
0.051874
0.057261
0.104239
-0.010507
-0.031926
0.041272
0.009216
-0.027835
0.018727
-0.049900
-0.009033
-0.001836
0.052075
-0.039999
-0.064025
-0.023282
0.104270
-0.023237
-0.014577
-0.034854
0.037434
-0.071017
-0.081406
-0.089612
-0.072135
-0.111804
-0.105034
0.056102
0.023857
0.036595
-0.049942
-0.016444
-0.123807
-0.049962
0.007384
-0.059826
0.016791
0.007793
0.107630
-0.020097
-0.002629
-0.027168
-0.043098
-0.012762
0.033577
0.037235
0.063501
0.067250
0.108294
0.154007
0.105293
0.176131
0.212768
0.101313
0.062680
0.124229
0.086598
0.162968
0.119442
0.054738
0.185598
0.166560
0.024649
0.133862
0.085561
0.061417
0.109262
0.055607
0.058211
0.069998
0.059015
0.020439
-0.015462
0.047010
0.011862
-0.001661
-0.064088
0.059126
-0.005831
-0.076593
-0.049176
-0.073887
-0.107856
-0.093394
-0.001566
-0.054244
0.100354
0.313087
0.546529
0.951510
1.118859
1.349745
1.308356
1.005027
0.656048
0.362963
0.044642
-0.195178
-0.227155
-0.297228
-0.106426
-0.032625
-0.001200
-0.056100
-0.013051
0.065382
0.072469
0.046037
0.078782
0.120665
0.126376
0.163585
0.111217
0.187241
0.177291
0.139617
0.159664
0.215463
0.285624
0.262965
0.241821
0.317650
0.360132
0.380686
0.322220
0.367433
0.423905
0.497346
0.474895
0.482031
0.484239
0.523528
0.385492
0.500720
0.418298
0.470634
0.406910
0.337673
0.410636
0.473870
0.419928
0.411611
0.350447
0.440563
0.352894
0.340957
0.284426
0.334659
0.195161
0.148607
0.120608
0.200709
0.120255
0.048017
0.115864
0.099258
0.127576
0.116624
0.122300
0.065061
0.027386
0.034690
-0.072558
-0.013200
-0.097654
-0.025654
-0.025102
-0.097651
0.012419
-0.007289
-0.048861
-0.045225
-0.041112
-0.075494
-0.085618
-0.063642
-0.062093
-0.007637
-0.103424
-0.120306
-0.017136
-0.071140
-0.032429
-0.050922
-0.076086
-0.139649
-0.062152
-0.134614
-0.033011
-0.133158
-0.120350
-0.146752
-0.034744
-0.166745
-0.089231
-0.140411
-0.084276
-0.058724
-0.057844
-0.047545
-0.039033
-0.061550
-0.057030
-0.053580
-0.108625
-0.124757
-0.090448
-0.049799
0.065847
-0.120715
-0.041907
-0.051726
0.006657
0.103158
0.104137
0.039012
0.027817
0.069232
0.065757
0.003725
-0.006860
0.038158
0.126798
0.149880
0.232546
0.191599
0.068171
0.053481
0.061736
0.017955
0.130406
0.084697
0.146080
0.111417
0.107351
0.032217
-0.020164
0.052804
0.011631
0.007963
0.009202
-0.006250
-0.016292
-0.006597
-0.058157
-0.144994
-0.071684
-0.017676
-0.061425
-0.136950
-0.022135
-0.060875
-0.117115
-0.061881
0.050178
0.159952
0.507664
0.769442
1.046328
1.199940
1.305301
1.208698
0.833944
0.541093
0.178674
-0.152787
-0.203008
-0.235312
-0.166307
-0.050976
-0.031395
-0.022001
0.039416
0.031034
0.004912
-0.018254
0.114788
0.138066
0.022207
0.118425
0.154110
0.168241
0.143663
0.153864
0.161146
0.230525
0.268600
0.295473
0.295754
0.332602
0.203315
0.441490
0.422975
0.456208
0.343042
0.415478
0.503460
0.587599
0.431058
0.575788
0.431709
0.489891
0.481811
0.436595
0.507520
0.399838
0.415059
0.465450
0.406742
0.370332
0.437432
0.460935
0.370580
0.311890
0.333842
0.271619
0.349467
0.284883
0.209095
0.282167
0.238909
0.143959
0.177345
0.193988
0.185824
0.141210
0.075317
0.171204
0.038998
0.008151
0.126406
0.078854
-0.001810
-0.076767
0.029487
0.034263
-0.025766
-0.025727
0.008658
0.117264
0.035544
-0.077635
0.047510
0.012672
-0.039543
0.010431
0.000995
0.012963
-0.044182
0.033237
-0.090978
-0.039563
-0.042162
-0.023705
-0.003009
-0.030570
-0.042855
-0.048690
-0.072672
-0.027446
-0.039107
-0.015205
-0.130686
0.028488
-0.028318
-0.019509
0.025530
-0.032164
-0.000445
0.017138
0.088599
0.006934
0.084165
-0.000468
-0.021290
-0.036507
0.018904
0.131725
0.002257
0.097445
0.061537
0.110390
0.087891
0.101628
0.031541
0.091290
0.172132
0.106444
0.103363
0.133116
0.225571
0.152016
0.199955
0.131508
0.196817
0.170626
0.266630
0.152758
0.281984
0.107418
0.248515
0.117443
0.142890
0.119672
0.064421
0.153127
0.071392
0.059956
0.051745
0.071224
0.056883
0.001220
0.068522
0.028522
0.086675
-0.031134
0.064285
-0.009617
0.018635
0.086443
0.011376
0.057682
0.094663
0.106034
0.345640
0.626918
0.877233
1.324990
1.429827
1.400197
1.181008
0.877959
0.462269
0.145713
-0.023339
-0.148999
-0.098995
-0.029179
0.066352
0.018298
0.049412
0.063796
0.141488
0.159523
0.131861
0.122885
0.132262
0.211192
0.205065
0.221623
0.203921
0.256998
0.278570
0.287868
0.260717
0.358845
0.352717
0.438109
0.428370
0.451177
0.464007
0.514203
0.498565
0.533063
0.624106
0.501048
0.572274
0.517257
0.556791
0.625050
0.567542
0.551699
0.584121
0.602497
0.616835
0.501137
0.581248
0.492279
0.524532
0.504005
0.588586
0.447776
0.499996
0.469864
0.413340
0.384553
0.437639
0.418431
0.286988
0.225311
0.264236
0.243572
0.155733
0.252633
0.195140
0.252233
0.193832
0.138421
0.087515
0.130212
0.135644
0.137490
0.175426
0.148914
0.116755
0.058516
0.123798
0.013325
0.129865
0.028462
0.047883
0.072539
-0.015846
0.012393
0.133657
0.141352
0.055621
0.023281
0.082204
0.068263
0.077942
0.067439
-0.007344
0.033761
-0.045780
-0.023073
0.029365
0.027360
0.039651
0.005958
0.009889
0.024316
-0.022016
-0.054870
0.071581
0.126157
0.149741
0.130490
0.059578
0.064154
0.069006
0.077168
0.078088
0.070988
0.156669
0.088344
0.034675
0.093780
0.156777
0.077083
0.095488
0.101063
0.089377
0.192004
0.215441
0.159429
0.216289
0.260345
0.222194
0.196952
0.239222
0.216764
0.202042
0.249130
0.246208
0.233510
0.266906
0.151436
0.223058
0.268370
0.095431
0.227543
0.155811
0.071085
0.211508
0.100193
0.138515
0.129687
0.100455
0.132352
0.044708
0.047418
0.068816
0.092271
0.109161
0.072167
0.053734
0.115996
0.154021
0.006305
0.061069
0.155635
0.250191
0.585872
0.851839
1.202202
1.348223
1.448089
1.301368
1.024260
0.623861
0.297349
0.022797
-0.082781
-0.034469
-0.035986
0.008123
0.000884
0.114965
0.051358
0.155369
0.141523
0.134153
0.134282
0.089414
0.201186
0.267145
0.190400
0.296772
0.276016
0.333213
0.289748
0.382983
0.393812
0.417659
0.265647
0.455944
0.429440
0.507911
0.402843
0.464147
0.540405
0.570307
0.506556
0.548338
0.491899
0.518617
0.539739
0.590997
0.540405
0.619005
0.620702
0.584850
0.580719
0.595037
0.501582
0.457738
0.461395
0.444212
0.447350
0.425486
0.414012
0.448816
0.405279
0.290248
0.304897
0.318232
0.298527
0.135574
0.282344
0.317581
0.201882
0.205060
0.223048
0.090040
0.118080
0.121410
0.163341
0.119702
0.153260
0.098835
0.068450
0.160195
0.006049
0.067391
0.054784
0.039092
0.100207
0.081923
-0.048227
0.015186
-0.036247
-0.046583
0.074842
-0.001704
-0.047241
0.115823
0.044142
0.007739
0.017563
-0.050868
0.048260
-0.078238
-0.046990
0.049086
-0.016959
0.045223
0.006133
-0.023070
-0.082476
0.045735
-0.042322
0.011270
0.037497
-0.002773
-0.012626
0.004486
-0.054768
0.081104
-0.024673
0.012314
0.042424
-0.032999
-0.018593
0.060625
0.007822
0.052576
0.047740
0.075888
0.065475
0.060671
0.132795
0.043332
0.142600
0.141041
0.175595
0.110493
0.159816
0.102291
0.159370
0.097320
0.187562
0.095871
0.196285
0.121703
0.161903
0.217788
0.119972
0.233027
0.122852
0.100793
0.069800
0.150705
-0.008609
0.023955
0.067600
0.077129
-0.030950
0.003430
0.006196
0.043388
-0.039263
-0.043687
0.001094
-0.020738
-0.066951
-0.056165
-0.150958
0.013438
0.010654
0.005170
0.249536
0.550645
0.902598
1.134509
1.348661
1.325314
1.141431
0.743045
0.344546
0.063201
-0.039589
-0.232461
-0.121663
-0.172078
-0.048871
0.017921
-0.024908
0.022736
0.025618
0.043756
0.046515
0.061789
0.130314
0.078711
0.157525
0.226623
0.095091
0.178580
0.256255
0.265890
0.228573
0.222530
0.259039
0.400767
0.301009
0.308834
0.344448
0.351498
0.375366
0.412401
0.396608
0.447262
0.425961
0.418909
0.489183
0.425305
0.528791
0.461416
0.443042
0.493058
0.464747
0.456086
0.471529
0.456004
0.359380
0.367291
0.367723
0.416096
0.432884
0.290373
0.349604
0.277687
0.213885
0.259101
0.234712
0.134484
0.174062
0.130344
0.074303
0.140416
-0.034893
0.083794
0.026104
0.002694
-0.016473
-0.064487
0.024578
-0.036961
-0.077511
-0.060648
-0.134243
-0.116748
-0.080822
-0.074942
-0.046217
-0.077665
-0.044543
-0.068935
-0.122536
-0.038719
-0.084204
-0.081534
-0.092705
-0.071533
-0.049138
-0.116853
0.001897
-0.066966
-0.174033
-0.068918
-0.113951
-0.081178
-0.049652
-0.125329
-0.141882
-0.096383
-0.101342
-0.148558
-0.156739
-0.129195
-0.059025
-0.073245
0.012841
-0.080799
-0.112932
-0.083221
-0.089929
-0.022438
-0.097635
-0.101673
-0.028466
-0.030243
-0.060503
-0.063869
-0.043546
-0.049194
-0.036340
0.007053
-0.015608
0.004564
0.044509
-0.046873
-0.009065
0.012634
0.076943
0.067125
-0.005485
0.106547
0.064163
0.136586
0.050295
-0.047105
0.076403
0.079485
0.049642
0.050734
0.039672
-0.029961
0.107555
0.077539
0.029624
0.062634
-0.013864
0.015120
-0.051310
-0.142560
-0.028879
-0.063794
-0.075046
-0.078289
-0.061444
-0.142477
-0.107540
-0.141515
-0.069667
-0.129650
-0.080472
-0.055017
0.154369
0.258183
0.674847
0.908982
1.127040
1.307439
1.167450
0.901650
0.484193
0.131086
-0.104050
-0.202236
-0.168053
-0.167402
-0.035568
-0.102784
-0.002936
-0.018279
0.005972
0.051791
-0.009071
-0.012848
0.063496
-0.009631
0.058698
0.034589
0.028085
0.156329
0.173490
0.172372
0.169561
0.166740
0.183854
0.257484
0.334257
0.264578
0.336578
0.376024
0.352095
0.386632
0.373703
0.337872
0.398715
0.393197
0.411193
0.392557
0.539502
0.404008
0.425561
0.545730
0.447777
0.443993
0.405474
0.426494
0.344573
0.294967
0.364355
0.381982
0.369158
0.279171
0.439083
0.179735
0.228560
0.265863
0.234748
0.213267
0.086166
0.169903
0.211356
0.071054
0.014090
0.062817
0.056259
0.002077
0.061216
0.048941
-0.054816
-0.063760
-0.028751
-0.058613
-0.063160
-0.063180
0.007683
-0.060258
-0.107167
-0.060793
-0.025042
-0.121573
-0.157576
-0.072712
-0.115530
-0.038690
-0.144512
-0.097075
-0.068700
-0.090741
-0.013133
-0.005168
-0.018507
-0.040645
-0.151850
0.002537
-0.090943
-0.082199
-0.120616
-0.058117
-0.028476
-0.068961
-0.053163
-0.017144
-0.108443
-0.001314
-0.087579
-0.032137
0.020670
-0.057933
-0.116581
-0.071381
-0.111259
-0.084337
0.003232
-0.026405
-0.028507
-0.124689
0.004847
0.052169
0.115943
0.082837
-0.020852
0.081714
0.007520
-0.020113
0.054037
0.129239
0.055475
0.117988
0.048678
0.186323
0.163949
0.076591
0.087166
0.099863
0.280964
0.129343
0.121295
0.194836
0.099961
0.028378
0.131331
-0.042952
0.043274
0.065490
0.039297
0.049129
0.077268
0.112050
-0.073964
0.024489
0.024508
0.023179
-0.088994
-0.043942
-0.108119
-0.092995
0.025904
-0.045042
-0.134082
0.013273
0.121536
0.273993
0.572191
0.913748
1.126834
1.413946
1.374804
1.184138
0.853013
0.371408
0.083046
-0.159408
-0.212094
-0.222534
-0.084863
-0.003138
-0.004709
0.109627
0.039751
0.083772
0.105525
0.092482
0.084408
0.155228
0.160431
0.049571
0.220309
0.081606
0.270907
0.309763
0.272899
0.221022
0.304000
0.373329
0.351411
0.411373
0.471197
0.414026
0.520518
0.421437
0.473091
0.518028
0.449684
0.437157
0.531153
0.554455
0.505004
0.500116
0.650467
0.493463
0.612289
0.491981
0.538796
0.558171
0.496351
0.499920
0.456444
0.441479
0.470487
0.315642
0.406078
0.376394
0.399797
0.327600
0.365374
0.357621
0.190620
0.305585
0.204867
0.253304
0.131742
0.096422
0.241517
0.224060
0.169844
0.140527
0.103891
0.043474
0.122278
0.061720
0.077871
0.014738
0.112606
0.026109
0.000638
0.002877
0.067222
0.045686
-0.039259
0.073787
0.001292
-0.013588
0.024305
0.088177
0.108175
-0.040871
0.030317
-0.089019
0.097345
0.055623
0.004217
0.000337
0.081402
-0.066802
0.060471
0.048402
0.034064
0.001303
0.191242
0.050648
0.032167
0.066107
0.017722
0.087489
0.089143
0.106136
0.059929
-0.044418
0.005123
0.091420
0.042268
0.124377
0.162239
0.021342
0.080713
0.092876
0.175817
0.245843
0.127711
0.172586
0.173157
0.186736
0.173346
0.226664
0.123967
0.172388
0.206490
0.200126
0.156086
0.256557
0.235243
0.198260
0.310794
0.291914
0.276567
0.200065
0.201908
0.164839
0.219300
0.160545
0.134408
0.126546
0.163948
0.183155
0.115257
0.179744
0.075670
0.129444
0.168079
0.072659
0.125146
0.116783
0.164806
0.105248
0.067432
0.091690
0.041105
0.055791
0.052613
0.297194
0.468612
0.707663
1.151151
1.313926
1.484708
1.314106
1.150869
0.746543
0.307033
-0.007863
-0.048492
-0.117981
-0.071750
0.059380
0.173708
0.050715
0.105263
0.207047
0.126662
0.151316
0.120248
0.115164
0.108191
0.207219
0.197321
0.244287
0.248481
0.217443
0.259829
0.388111
0.341226
0.514630
0.365297
0.366949
0.481609
0.451263
0.480362
0.519546
0.599455
0.586903
0.638314
0.499816
0.581440
0.579654
0.636553
0.539424
0.582728
0.622435
0.683973
0.616847
0.584369
0.604632
0.574094
0.611491
0.488558
0.551994
0.517512
0.437604
0.438049
0.403343
0.346700
0.337450
0.486848
0.352372
0.327413
0.344039
0.266540
0.376548
0.311132
0.235517
0.296100
0.238190
0.225126
0.137583
0.186766
0.132705
0.106605
