0.062409
0.003822
-0.012207
0.022248
0.008221
-0.010093
0.001027
-0.021775
0.042764
-0.016510
0.029920
0.068626
0.054169
0.069119
-0.041304
0.015042
-0.066585
0.044472
-0.067530
0.032697
-0.011806
0.046723
0.081864
0.100952
0.079773
0.052018
0.098725
0.075054
0.060599
0.077097
0.095832
0.134603
0.116702
0.085079
0.026927
0.159587
0.182000
0.140098
0.124712
0.189425
0.164547
0.147162
0.077654
0.182282
0.153426
0.196083
0.270881
0.166539
0.224459
0.179095
0.193128
0.155507
0.121646
0.114925
0.202062
0.104057
0.114424
0.095151
0.123075
0.121242
0.084619
0.039338
0.109427
0.132192
0.018226
0.156385
0.082819
0.129661
0.057869
-0.014710
0.032501
0.098460
-0.006407
-0.006033
0.078262
0.046381
0.092480
0.095323
0.011647
0.066656
0.019713
0.031374
0.078587
0.185881
0.393039
0.679158
1.015427
1.232298
1.320274
1.383702
1.124235
0.866587
0.437896
0.188272
-0.025512
-0.195376
-0.177952
-0.191678
-0.138898
-0.064614
0.067524
0.102843
0.133445
0.091910
0.047155
0.063469
0.096786
-0.033800
0.052775
0.103755
0.141793
0.078394
0.116443
0.100712
0.157105
0.167599
0.135509
0.110392
0.201202
0.198998
0.257742
0.195223
0.202241
0.285047
0.177753
0.235783
0.297211
0.318506
0.386701
0.371478
0.307869
0.449167
0.414665
0.488341
0.375210
0.447524
0.514637
0.478356
0.498789
0.602442
0.572296
0.557076
0.552712
0.626028
0.620886
0.570666
0.579912
0.619316
0.626934
0.460991
0.540702
0.516895
0.491286
0.453807
0.485125
0.408781
0.379545
0.460079
0.354144
0.411812
0.356496
0.376679
0.307157
0.340476
0.322343
0.242432
0.249886
0.198281
0.234679
0.293056
0.210243
0.209513
0.169051
0.096156
0.147667
0.156143
0.132483
0.084567
0.132046
0.184099
0.065222
0.071120
0.088744
0.074365
0.150223
0.111160
0.034267
0.101981
0.061841
0.113511
0.092355
0.025435
0.100003
0.090864
0.069321
0.073113
0.054462
0.152637
0.097857
0.123622
0.042255
0.113188
0.129994
0.129566
0.044515
0.113655
0.089114
0.087418
0.068116
0.114002
0.061996
0.025039
0.036584
0.171728
0.185479
-0.003678
0.142899
0.074960
0.131584
0.154068
0.158439
0.097579
0.068318
0.102757
0.087252
0.143824
0.076997
0.085740
0.086966
0.124512
0.043565
0.066287
0.132537
0.042130
0.041412
0.059710
0.143887
0.154244
0.082303
0.090671
0.077172
0.017067
0.106313
0.081437
0.077437
0.065885
0.081036
0.195777
0.040486
0.206156
0.102179
0.200822
0.152472
0.158349
0.230245
0.135256
0.146576
0.239734
0.185058
0.250757
0.277150
0.214447
0.278955
0.267838
0.239835
0.200246
0.213767
0.334654
0.286031
0.157301
0.282728
0.326724
0.261685
0.187482
0.153294
0.138693
0.159610
0.168110
0.140939
0.177865
0.133405
0.100238
0.068805
0.082355
0.133689
0.200526
0.128354
0.047366
0.081925
0.036539
0.029944
0.093683
0.116773
0.073784
0.097804
0.131774
0.028430
-0.048026
0.079085
0.038174
0.020038
0.006656
0.099433
0.120287
0.257839
0.490568
0.862563
1.086679
1.490733
1.382803
1.321953
1.059287
0.657563
0.405744
0.040574
-0.160798
-0.242993
-0.191493
-0.146423
-0.076395
0.003116
0.004507
0.026396
0.019377
0.099619
0.107578
0.046686
0.098038
-0.009618
0.104674
0.082046
0.117882
0.080232
0.165430
0.150831
0.168486
0.095904
0.182213
0.190494
0.232888
0.165107
0.231828
0.287018
0.213557
0.242148
0.243892
0.217943
0.216573
0.328294
0.305370
0.315517
0.343572
0.428491
0.443188
0.405474
0.429938
0.500234
0.428667
0.545619
0.507443
0.497132
0.464097
0.469575
0.502783
0.508146
0.478395
0.528223
0.515454
0.487732
0.541541
0.404885
0.549276
0.491922
0.439557
0.443318
0.388812
0.352653
0.375060
0.301830
0.333283
0.291021
0.311811
0.287303
0.280850
0.161299
0.212232
0.249216
0.192614
0.110189
0.175587
0.111839
0.085379
0.149187
0.098745
0.032046
0.050423
0.098891
0.062388
0.074109
0.038759
0.022639
0.050299
0.014971
0.021922
0.036584
-0.045948
0.037582
-0.005120
-0.022586
0.023503
0.016755
-0.043613
-0.043000
-0.028585
-0.017503
-0.023379
-0.077247
-0.052543
-0.018427
-0.040933
-0.091153
0.060650
0.008911
0.021654
0.026111
-0.040099
0.003622
-0.024439
-0.103865
0.048702
0.041603
0.001977
0.033425
-0.066794
0.035499
-0.010875
-0.011264
0.054020
0.001223
-0.047156
0.001084
-0.050218
-0.044344
-0.020453
0.012100
-0.108165
-0.001119
-0.001878
-0.001397
-0.054972
-0.019915
-0.030748
0.038360
-0.089348
-0.013409
0.017883
-0.008536
0.014777
-0.053648
-0.003442
0.020012
-0.056152
0.020879
-0.014039
0.042631
-0.039294
0.020126
0.069395
0.018172
-0.021610
-0.101171
-0.005987
0.004218
0.167512
0.038506
0.081118
0.025012
0.082291
0.151920
0.130165
0.097549
0.143904
0.067579
0.138235
0.234772
0.228457
0.127158
0.079896
0.114967
0.106959
0.164993
0.166788
0.038078
-0.002386
0.061976
0.071697
0.057660
-0.033788
0.035662
0.006594
-0.019131
0.045280
0.025148
0.046665
0.032012
-0.003061
-0.049146
-0.049109
0.013965
-0.073166
-0.089896
-0.050499
-0.030775
-0.071213
-0.006591
-0.098292
0.000176
-0.075963
-0.014630
-0.154266
-0.016633
-0.052471
-0.110264
-0.099103
0.046095
0.201052
0.578936
0.839962
1.133015
1.268264
1.275085
1.055866
0.823301
0.435760
0.119842
-0.081492
-0.233658
-0.309643
-0.328544
-0.151998
-0.133939
-0.108960
-0.061656
-0.051608
-0.058172
0.000125
-0.051703
-0.041251
-0.042647
-0.001282
0.020307
-0.002794
-0.006682
0.073671
0.079230
-0.031824
0.063275
0.023466
0.033160
-0.023907
0.125928
0.062142
0.109224
0.104944
0.152145
0.180439
0.174471
0.151702
0.308739
0.260789
0.290213
0.272109
0.280002
0.350300
0.309448
0.361965
0.457407
0.413139
0.367116
0.384775
0.401164
0.461381
0.400616
0.413213
0.471786
0.456784
0.470295
0.461050
0.510716
0.460910
0.408657
0.450279
0.391642
0.309196
0.335834
0.268280
0.346906
0.286110
0.300160
0.316043
0.320721
0.195745
0.221766
0.203829
0.235000
0.132113
0.125123
0.157132
0.089235
0.013759
0.080029
0.096035
0.084279
0.025937
-0.019624
0.128746
0.028385
-0.021284
-0.000199
-0.083576
-0.129758
0.058309
-0.047231
-0.036823
-0.065592
0.029531
-0.085185
-0.057141
-0.031415
-0.039128
-0.028161
-0.029128
0.015053
0.013515
-0.005859
0.008126
-0.053357
-0.096433
-0.074003
-0.067062
-0.017957
-0.028937
-0.042710
0.034814
-0.089327
-0.073552
-0.046565
-0.043820
-0.066465
-0.035287
0.012347
-0.040567
-0.095062
-0.015069
-0.029455
-0.047065
-0.065907
-0.026185
-0.035720
-0.054918
-0.054942
0.020421
0.021509
-0.051833
-0.001299
0.055457
-0.095828
-0.009235
0.018228
-0.043685
-0.119889
-0.139864
0.018844
-0.008415
-0.042329
-0.053167
-0.126804
-0.022705
0.013114
-0.033545
-0.075199
-0.001007
-0.020654
0.034860
0.073706
-0.060342
0.039910
0.024525
0.006177
0.012232
0.038428
0.016090
0.060198
0.076566
0.090870
0.111535
0.024773
0.205533
0.052209
0.208373
0.154636
0.151449
0.207904
0.123899
0.138703
0.235953
0.149055
0.135404
0.128360
0.172426
0.143572
0.127304
0.168063
0.160768
0.134775
0.039838
0.148767
0.170753
0.110641
0.092101
0.135342
0.057786
0.059365
0.019059
0.073343
-0.002478
0.013867
0.092701
0.007048
-0.020795
-0.002813
-0.035974
0.035657
-0.004459
0.066980
0.111027
0.047104
0.040946
0.054916
0.003370
-0.023483
-0.067623
-0.019006
-0.034896
-0.027754
0.156644
0.327418
0.737211
1.043122
1.188353
1.401346
1.353001
1.120728
0.722493
0.415582
0.059889
-0.074347
-0.225996
-0.285034
-0.221794
-0.064647
0.005374
-0.048987
-0.016599
-0.015873
0.033167
0.058625
0.108265
0.101924
0.070734
0.048578
0.091859
0.022448
-0.020008
0.130506
0.073411
0.061260
0.090260
0.181545
0.209951
0.213116
0.230622
0.220836
0.252961
0.230580
0.170258
0.289396
0.297353
0.372769
0.306718
0.351865
0.411659
0.388390
0.381127
0.370541
0.456898
0.365945
0.438886
0.491526
0.533602
0.508921
0.498378
0.526625
0.632736
0.531721
0.556773
0.466638
0.568630
0.498638
0.477548
0.471911
0.522544
0.528736
0.492601
0.454185
0.448894
0.432213
0.435462
0.392748
0.421423
0.297923
0.336097
0.319426
0.277723
0.269760
0.339359
0.122333
0.252928
0.195107
0.173404
0.232991
0.172687
0.082790
0.180253
0.135526
0.160534
0.139672
0.097223
0.117597
0.104758
0.098115
0.098777
0.135404
0.134921
0.101696
0.132283
0.057891
0.006167
0.086283
0.056888
0.098788
0.060017
0.116637
0.038193
0.092361
0.062293
0.111897
0.086006
0.117876
0.073040
0.152057
0.054525
0.087283
0.106734
0.073028
0.082818
0.113755
0.074886
0.119346
0.166509
0.096536
0.150532
0.045741
0.138240
0.045788
0.101240
0.106097
0.123926
0.038574
0.080448
0.104286
0.093847
0.137686
0.072323
0.083609
0.112212
0.088720
0.117086
0.118927
0.052792
0.113706
0.100431
0.131730
0.095428
0.074070
0.027285
0.194284
0.127056
0.037956
0.077040
0.088214
0.096721
0.121422
0.204224
0.081513
0.087451
0.089982
0.140015
0.153137
0.139541
0.108109
0.105070
0.141075
0.140773
0.141444
0.151686
0.227757
0.194097
0.235767
0.205818
0.261269
0.263168
0.199976
0.312680
0.321474
0.286748
0.394142
0.196430
0.265762
0.206266
0.279350
0.261542
0.224879
0.207890
0.232290
0.239913
0.178045
0.295432
0.220078
0.186458
0.133967
0.104223
0.168990
0.150353
0.123752
0.092197
0.130948
0.085533
0.100920
0.085533
0.095126
-0.011101
0.126477
0.140987
0.105451
0.066907
0.128441
0.117993
0.183229
0.049237
0.051706
0.035669
0.014960
0.032181
0.052434
0.141407
0.418047
0.570320
0.845519
1.190143
1.465620
1.500000
1.195473
1.007488
0.663777
0.338111
0.100762
-0.133761
-0.152539
-0.098983
-0.049021
0.049696
0.055009
0.080583
0.166755
0.054341
0.140065
0.135274
0.078409
0.110301
0.125415
0.114939
0.143585
0.146329
0.080388
0.087736
0.142808
0.150427
0.164950
0.189827
0.248824
0.270926
0.235033
0.279335
0.300266
0.264832
0.336682
0.334253
0.317380
0.359662
0.355509
0.371772
0.418081
0.388207
0.477656
0.469675
0.522752
0.480804
0.519980
0.527000
0.597290
0.507284
0.497117
0.516035
0.486432
0.618365
0.553657
0.549967
0.572656
0.507005
0.556541
0.477242
0.525588
0.497727
0.425477
0.401909
0.462586
0.470469
0.402281
0.391411
0.347434
0.410930
0.390845
0.277287
0.275620
0.284027
0.228616
0.183362
0.239159
0.138429
0.105376
0.155911
0.173085
0.111256
0.119658
0.158335
0.185771
0.039981
0.069561
0.201939
0.092804
0.110779
0.119230
-0.013696
0.052333
0.038045
0.024225
-0.001035
0.026189
0.093477
0.022892
0.052696
0.039119
0.035446
0.069967
0.035759
0.113099
0.033490
0.055395
0.058549
0.034171
0.016654
0.101938
0.016953
0.084414
0.007157
0.041924
0.067625
0.018371
0.008248
0.038480
0.029311
-0.049228
-0.005665
0.013209
0.110220
0.099420
-0.008520
0.004219
-0.012673
0.121631
0.089438
0.067798
0.066849
0.019392
0.055800
0.087332
0.019173
-0.003251
-0.017029
0.018559
0.047037
-0.048023
0.092915
-0.002081
0.028795
-0.003766
0.032815
0.040224
0.057827
-0.000322
0.076374
0.028749
0.080911
0.036988
0.015562
0.106598
0.056647
0.071834
0.045768
0.100220
0.012814
0.087098
0.097285
0.098549
0.130734
0.099207
0.143744
0.083329
0.174860
0.182687
0.161142
0.190362
0.160099
0.163633
0.193504
0.186332
0.124204
0.190371
0.163577
0.241552
0.139895
0.121570
0.112617
0.209691
0.188591
0.106955
0.019293
0.126223
0.071716
0.088655
0.001955
-0.044393
0.024223
0.051268
0.025160
-0.007372
0.041921
0.003310
0.051810
0.009270
0.010622
0.011200
0.006356
-0.001806
-0.009816
-0.071903
-0.013425
-0.048087
-0.033452
0.027711
0.000794
-0.054274
-0.102547
-0.049978
-0.029606
0.143231
0.341985
0.625551
0.981108
1.226137
1.318593
1.299455
1.171599
0.712761
0.394249
0.047973
-0.185596
-0.273246
-0.349357
-0.261687
-0.168212
-0.120459
-0.152533
-0.048053
-0.010903
0.023941
-0.001883
-0.020982
0.038599
0.015922
0.023382
0.013393
-0.032143
-0.027942
-0.014196
0.097698
-0.014197
0.099920
0.114957
0.013563
0.072491
0.068982
0.084768
0.084468
0.179794
0.180124
0.206453
0.248976
0.171160
0.238376
0.203043
0.282004
0.266860
0.400048
0.366055
0.348004
0.280776
0.382682
0.331982
0.437465
0.460689
0.374336
0.374087
0.410331
0.417749
0.580638
0.376917
0.378394
0.441264
0.414358
0.442915
0.389258
0.362217
0.356503
0.354810
0.326097
0.265688
0.303632
0.307937
0.222262
0.303303
0.235968
0.236614
0.227545
0.121733
0.146291
0.148977
0.092804
0.091961
0.063841
0.083944
0.054913
0.065068
-0.001022
0.066658
-0.020467
-0.029998
-0.073080
-0.003945
-0.038193
-0.015959
-0.095985
-0.036951
-0.031258
-0.014617
-0.063554
-0.078061
-0.129952
-0.094275
-0.066396
-0.072255
-0.104278
-0.094074
-0.003321
0.001998
-0.051899
-0.012460
-0.105043
-0.043504
-0.106097
-0.155621
-0.051221
-0.033551
-0.096024
-0.135705
-0.099660
-0.079368
-0.008868
0.016155
-0.110562
0.003220
-0.118856
-0.074369
-0.030945
-0.059488
-0.078071
-0.087539
-0.074237
-0.080418
-0.117861
-0.040777
-0.097888
-0.070795
-0.096073
-0.026487
-0.081563
-0.133114
0.012269
-0.099247
-0.071431
-0.171614
-0.059162
0.022692
-0.010147
-0.075580
-0.010310
-0.079313
-0.076825
-0.063070
-0.093036
-0.101213
-0.088913
0.011308
-0.162899
-0.046214
-0.071237
-0.038224
-0.053484
-0.073742
-0.035038
-0.048294
0.015475
-0.069823
0.052375
0.023833
-0.050171
0.020225
0.004205
-0.008527
0.072165
0.016615
0.086567
0.132345
0.098614
0.108842
0.082169
0.144552
0.080176
0.153087
0.148597
0.043217
0.138601
0.138460
0.100905
0.018820
0.059063
0.033579
-0.002904
0.067623
0.022017
-0.005161
-0.053588
-0.047526
0.006992
-0.079529
0.050148
-0.031855
-0.115901
-0.065024
-0.117979
-0.111008
-0.082090
-0.063407
-0.052913
-0.025233
-0.151171
-0.085086
-0.083124
-0.065357
-0.091012
-0.099267
-0.059679
-0.113267
-0.103286
-0.144530
-0.071714
0.180622
0.434378
0.640071
0.986408
1.198231
1.246216
1.190262
0.945239
0.566027
0.245402
-0.008703
-0.319976
-0.354555
-0.217850
-0.198356
-0.227131
-0.162178
-0.014019
-0.098204
-0.051518
0.038214
-0.032914
-0.052060
0.030266
-0.047851
0.021780
0.027649
-0.019355
0.000594
-0.041554
0.056578
0.075943
0.004266
0.035802
0.018956
0.038488
0.100514
0.101977
0.108477
0.108926
0.086081
0.232183
0.232195
0.279420
0.259149
0.248800
0.293125
0.301255
0.267205
0.393376
0.312673
0.386806
0.405171
0.327211
0.385159
0.388617
0.409726
0.420038
0.483913
0.381359
0.434717
0.389726
0.484389
0.397768
0.437083
0.447361
0.423035
0.379125
0.480929
0.330059
0.333073
0.300256
0.359890
0.364267
0.319597
0.229309
0.207664
0.214598
0.190579
0.151662
0.206704
0.147337
0.113572
0.134172
0.172799
0.078481
0.051606
0.062709
0.021572
0.065006
0.039959
0.021001
-0.009691
0.055707
-0.005997
0.072635
0.053672
0.010520
0.002791
-0.018653
-0.016965
-0.085985
-0.046797
0.029796
-0.012305
-0.009469
-0.046617
-0.057633
0.024084
0.046896
-0.041373
-0.047039
-0.023075
-0.043316
-0.056044
0.026286
-0.023738
-0.048814
-0.014932
-0.007364
-0.041222
-0.015242
-0.112128
-0.039276
-0.032530
0.018383
-0.030005
0.029529
0.066358
-0.074165
0.020856
-0.034832
-0.059567
-0.072209
0.000237
0.002424
0.037698
-0.013957
-0.061279
-0.003712
0.004142
-0.011424
0.079441
0.039673
-0.016202
-0.002019
0.045353
-0.024460
0.008338
0.086454
0.011146
0.061838
0.000425
-0.021952
0.024127
0.071801
-0.060520
-0.056168
-0.051503
-0.034408
0.053024
0.069375
-0.046043
0.093854
0.058144
0.106979
0.038851
0.034398
0.102421
0.117555
0.025816
0.165154
0.163122
0.160165
0.148872
0.203803
0.106208
0.215368
0.250116
0.252042
0.092442
0.197825
0.228038
0.229948
0.180671
0.103402
0.174174
0.224029
0.027490
0.205920
0.107914
0.130880
0.103462
0.076492
0.097830
0.115613
0.057491
0.168935
0.031382
0.020303
0.040240
0.052296
0.004042
0.074517
0.084770
0.049518
0.062297
0.052677
0.105962
-0.063135
0.068776
0.087965
0.035837
0.021937
0.011345
0.020953
0.000986
0.022648
-0.037247
0.115285
0.087554
0.289499
0.537374
0.934603
1.239119
1.351578
1.377676
1.209889
0.877793
0.540639
0.166015
-0.067815
-0.174996
-0.273884
-0.177386
-0.099568
-0.116391
0.004511
0.041172
0.029945
-0.000491
0.095528
0.054840
0.035859
0.065360
0.070654
0.070834
0.042563
0.058474
0.138062
0.076772
0.134615
0.095192
0.156990
0.159546
0.084517
0.176429
0.240454
0.163231
0.211101
0.199087
0.278201
0.265852
0.305302
0.332031
0.329192
0.353231
0.388239
0.388121
0.403455
0.449932
0.417437
0.488097
0.508355
0.489180
0.498549
0.545872
0.559311
0.508538
0.559140
0.454018
0.482674
0.525855
0.505150
0.578489
0.459875
0.534727
0.538360
0.457718
0.472515
0.408909
0.391308
0.468974
0.419233
0.395107
0.327769
0.336765
0.337705
0.262365
0.199481
0.291569
0.239762
0.210748
0.304420
0.209652
0.128149
0.090842
0.162755
0.106146
0.131838
0.121173
0.093263
0.056192
0.068663
0.080742
0.067998
-0.066488
0.037238
0.009792
0.130585
0.047799
0.023377
-0.016726
-0.003597
0.076111
-0.061210
0.013227
-0.017048
-0.021241
0.093506
0.073688
0.053221
0.054774
0.092732
0.081813
0.036351
0.050620
0.083588
0.035234
0.098717
0.052361
0.016887
0.059585
-0.019822
0.029853
0.032518
0.041254
-0.015900
0.015730
-0.035356
0.043974
0.082647
0.013650
0.000800
0.012374
0.053011
0.030721
-0.004408
0.009587
0.059008
0.038230
0.023136
0.065621
0.071335
0.015242
0.003088
0.063155
-0.050967
0.054183
0.016256
-0.054662
0.021530
-0.002325
-0.003695
0.037761
0.086996
0.050588
0.050660
-0.036764
0.087100
0.064372
0.031404
0.001500
0.036225
-0.048297
0.062179
0.106684
0.085670
0.089229
0.054680
0.123733
0.177688
0.149774
0.162133
0.159963
0.147220
0.187791
0.180809
0.246366
0.203671
0.151753
0.224672
0.125223
0.135910
0.127557
0.148843
0.193909
0.180683
0.128976
0.163499
0.122013
0.142527
0.107148
0.073336
0.082042
0.087558
0.065253
0.032066
0.081227
0.022778
0.037936
0.076210
0.073538
0.098984
-0.008032
0.076221
-0.007418
-0.006337
-0.035293
-0.004259
-0.071292
0.006163
-0.001066
0.064948
-0.027195
-0.046541
0.043445
0.055568
-0.075425
-0.041817
-0.017797
0.141928
0.375922
0.765193
0.965802
1.271284
1.393550
1.276724
1.059890
0.693563
0.357545
0.108181
-0.160272
-0.225542
-0.268515
-0.151013
-0.156683
-0.110975
-0.069896
-0.072305
0.037503
-0.006312
-0.044665
-0.020110
0.006356
-0.032279
0.012872
0.100622
0.091657
-0.011964
-0.001966
-0.003026
0.057082
0.014304
0.130800
0.057998
0.124367
0.088272
0.097986
0.122709
0.126868
0.129130
0.297943
0.221146
0.239060
0.316913
0.179138
0.187099
0.301347
0.326203
0.371060
0.318276
0.377696
0.369217
0.398926
0.426268
0.419051
0.328324
0.428249
0.428020
0.519817
0.480747
0.524765
0.482281
0.414479
0.445327
0.425260
0.429223
0.376943
0.363712
0.383696
0.408376
0.294908
0.287890
0.330277
0.275798
0.163637
0.234340
0.179503
0.233312
0.205728
0.122983
0.051221
0.076317
0.092892
0.085164
0.070839
0.048128
0.035070
-0.010833
-0.036960
-0.026887
0.015107
0.059778
-0.014836
-0.033278
-0.124008
-0.025012
0.036350
-0.017930
-0.021019
-0.092365
-0.058146
-0.072592
-0.030105
-0.055166
-0.079498
-0.097533
-0.062655
-0.054753
-0.056674
-0.017797
-0.089205
-0.047178
-0.106949
-0.080980
0.056239
-0.141981
-0.089987
-0.046672
-0.137091
-0.044689
-0.075804
-0.040438
-0.032855
-0.099683
-0.068710
-0.002506
-0.065713
-0.106195
-0.055146
-0.056625
-0.044847
-0.100851
-0.155896
-0.054558
-0.030403
-0.070074
-0.090652
-0.085028
-0.037148
-0.011310
-0.097668
-0.073697
-0.098908
-0.062099
-0.043254
-0.053338
-0.102430
-0.108947
-0.064983
-0.087947
-0.043241
-0.024134
-0.083023
-0.031069
-0.013326
-0.077732
-0.061480
-0.030642
-0.110739
-0.138824
-0.054417
-0.009252
-0.130955
-0.064313
-0.105750
-0.023094
-0.003845
0.035681
-0.030353
-0.008963
-0.013721
-0.047993
0.047458
0.014606
0.120560
0.040353
0.051352
0.025457
0.132854
0.097136
0.107931
0.094894
0.029206
0.041303
-0.009653
0.037984
0.084334
0.083483
0.064060
0.006096
0.011279
0.030295
0.011716
-0.053623
0.023918
-0.105516
0.016981
-0.110297
-0.072371
-0.034883
0.011343
-0.041146
-0.019328
-0.148144
-0.086589
-0.039494
-0.142651
-0.117076
-0.084640
-0.027840
-0.119619
-0.029613
-0.089756
-0.093487
-0.067394
-0.122110
-0.072669
-0.142305
-0.127270
-0.061350
0.146165
0.452263
0.784826
0.974806
1.203212
1.177514
1.099492
0.767168
0.391340
0.187774
-0.065461
-0.337923
-0.255312
-0.319663
-0.270055
-0.180108
-0.097408
-0.041629
-0.055417
-0.085906
-0.066042
0.004555
-0.053858
-0.025425
-0.028910
-0.037095
-0.093592
-0.086848
-0.073875
-0.094377
-0.047993
-0.048059
0.020063
-0.026624
0.078449
-0.018541
0.073269
0.038752
0.013427
0.073659
0.108148
0.150324
0.148566
0.147759
0.216347
0.188195
0.248218
0.204547
0.304368
0.303683
0.304839
0.326960
0.335768
0.363049
0.450561
0.415400
0.374984
0.394091
0.419234
0.440449
0.329488
0.386411
0.389744
0.417196
0.379617
0.347338
0.296216
0.281178
0.319584
0.312018
0.253708
0.285616
0.268731
0.237068
0.198606
0.143932
0.191515
0.151536
0.155645
0.069385
0.065468
0.097694
0.115111
0.077526
-0.026986
0.042779
0.042259
-0.007856
0.002257
0.036726
-0.056302
0.007558
-0.021435
-0.069275
-0.115862
-0.101279
-0.069140
-0.025376
-0.057333
-0.058268
-0.073575
-0.021793
-0.115249
-0.117587
0.022233
-0.028450
-0.049237
-0.131995
-0.117418
-0.127547
-0.072840
0.005077
-0.071492
0.038362
-0.079803
0.002227
-0.093052
-0.059608
-0.044200
-0.048626
-0.031313
-0.067268
-0.081305
-0.022591
-0.082008
-0.115512
-0.097429
-0.077267
-0.130169
-0.063429
-0.086151
-0.192669
-0.035057
-0.043947
-0.099262
-0.129740
-0.112188
-0.072499
-0.025322
-0.099184
-0.040467
-0.059503
-0.062919
-0.019466
-0.021176
-0.070738
0.025364
-0.085020
-0.028826
0.026378
-0.045300
0.048470
-0.081032
-0.044902
-0.033834
-0.062307
0.001061
-0.051099
-0.056806
-0.052771
-0.020889
-0.050075
-0.058279
0.063085
-0.045106
0.068137
0.045130
0.018422
0.002069
0.045849
0.098758
-0.016515
0.101408
0.153254
0.119158
0.072551
0.146143
0.061317
0.088237
0.139331
0.157033
0.129214
0.125158
0.124533
0.130498
0.031818
0.114003
0.181602
0.122311
0.145279
0.116088
-0.007413
0.023408
-0.023984
0.141798
0.035770
0.004412
0.013378
0.036875
-0.034469
-0.029517
0.004528
-0.028278
-0.004906
-0.026662
-0.004262
-0.041933
0.002591
-0.084293
-0.142457
0.024234
0.037626
0.011680
0.006336
0.009166
-0.003569
-0.016620
-0.091089
0.010216
-0.009828
0.095279
0.316303
0.686352
0.945975
1.158401
1.286672
1.306655
1.031028
0.778000
0.430210
0.138715
-0.100038
-0.254228
-0.257486
-0.179587
-0.076622
-0.070183
-0.026732
-0.006358
-0.044500
-0.044314
0.029753
0.001281
0.014608
0.106271
0.116788
0.094764
0.068544
0.106167
0.147329
0.085710
0.152941
0.108246
0.087955
0.137680
0.111435
0.131400
0.138615
0.195768
0.066579
0.208143
0.147247
0.247724
0.288454
0.244153
0.329777
0.341226
0.310030
0.416047
0.421448
0.436687
0.425090
0.361702
0.404730
0.472648
0.499146
0.529645
0.523856
0.600820
0.557851
0.547577
0.473347
0.553541
0.510152
0.479169
0.570318
0.520803
0.471659
0.436510
0.476532
0.442711
0.427179
0.385836
0.448350
0.336263
0.343554
0.210957
0.278195
0.264206
0.220672
0.194241
0.156275
0.187777
0.144055
0.201910
0.198962
0.114962
0.090671
0.055072
0.164436
0.128071
0.031891
0.065574
0.163667
0.052495
0.089722
0.022909
0.101715
0.142501
0.094704
0.016864
0.083339
0.024839
0.101072
0.087909
0.034350
0.013027
0.077827
0.108527
0.058913
0.027380
0.110108
0.038378
0.023386
0.037145
0.079523
0.030100
0.143072
0.070819
0.110672
0.061375
0.037841
0.145053
0.103438
0.054475
0.028261
0.062176
0.034364
0.062177
0.040718
0.088192
0.036495
0.019430
0.036021
0.127222
0.080087
0.026008
0.046808
0.013301
0.027234
0.024133
0.174926
-0.012709
0.083071
0.061982
0.066555
0.049388
0.069556
-0.030327
0.126030
0.118471
0.118761
0.062955
0.044467
0.099649
0.055945
0.063436
0.024094
0.014420
0.036936
0.056331
0.085621
0.027332
0.087648
0.177568
0.109288
0.096653
0.142797
0.133436
0.159633
0.128027
0.257444
0.231672
0.228042
0.224445
0.278689
0.215142
0.169118
0.192806
0.304679
0.280870
0.269855
0.250216
0.225941
0.218174
0.173046
0.158195
0.188844
0.223598
0.168839
0.227453
0.214597
0.168803
0.091153
0.139719
0.124773
0.101806
0.180110
0.118656
0.135512
0.132452
0.149989
0.145332
0.189091
0.071397
0.076129
0.095418
0.137882
0.141443
0.080379
0.114250
