0.218270
-0.056273
-0.135011
0.157973
-0.182821
-0.066428
0.455259
-0.537010
-0.077881
0.676014
-0.088908
0.098772
-0.583527
0.653701
-0.273515
0.174358
-0.531568
0.229134
0.132187
-0.154182
0.477608
-0.478383
-0.056597
-0.278066
-0.644958
-0.311564
0.249198
0.082721
-0.267706
0.878431
0.164111
0.232400
-0.016344
0.269375
0.351277
-0.173457
-0.466670
-0.442099
0.645893
-0.080014
-0.783864
-0.609992
-0.427014
0.155207
0.020397
-0.351737
0.145995
0.609156
0.001296
0.510128
-0.028474
-0.040888
0.901340
0.001692
0.262192
-0.067807
0.320330
0.325632
-0.356670
-0.459004
0.001835
0.136955
-0.367530
-0.419615
0.229304
-0.092423
0.033629
-0.372795
-0.245458
-0.355105
0.220101
-0.625226
0.225569
0.289674
-0.206977
0.033243
0.513450
0.347732
-0.259300
0.771621
-0.032373
-0.712914
0.038137
-0.010908
0.286034
0.144761
-0.083862
-0.428241
0.189022
-0.341505
0.428139
0.840377
0.852203
0.347753
1.186810
0.135660
0.448977
-0.161140
-0.484919
-0.012057
-0.115034
0.068995
-0.225156
-0.104184
-0.170238
-0.275323
0.794428
-0.042488
-0.502350
1.328200
0.044950
0.393595
0.324048
-0.195936
0.596453
0.069503
-0.608267
-0.342710
0.576417
0.122668
0.079650
0.042299
0.283748
-0.371147
0.027492
0.268406
0.349776
0.322414
0.183859
0.267063
-0.304929
-0.164544
0.114962
0.080808
-0.400952
0.232311
0.488590
-0.086209
-0.760453
0.789214
-0.336911
0.045309
-0.472217
1.050183
-0.101789
0.108075
0.411077
-0.161001
0.404004
-0.366273
0.105344
0.542339
0.575050
-0.116718
0.306629
-0.096287
0.193592
-0.449800
0.522243
-0.295425
0.003685
-0.494920
0.421430
0.136219
-0.047442
1.272565
0.196288
0.148064
0.619289
-0.674725
0.076176
-0.073087
-0.103491
0.183841
0.057034
0.782182
-0.103293
-0.285286
0.550002
0.403241
-0.057733
0.185326
0.094162
-0.145080
-0.415547
0.433655
-0.714628
0.632132
0.316493
-0.068889
0.297767
0.343331
-0.879209
-0.073935
0.234887
0.231263
0.377144
-0.237894
0.391034
-0.089052
0.365560
-0.350349
-0.114282
-0.095892
0.628041
-0.424266
-0.108369
-0.293104
-0.036164
0.161587
0.070861
-0.211058
-0.102772
0.560230
-0.322804
-0.604248
-0.508567
0.178013
-0.459799
0.094962
0.175612
-0.049650
0.308349
0.152350
0.082945
0.449520
-0.560135
0.753690
0.479268
0.093616
-0.084755
0.476734
0.037468
0.036194
-0.669436
0.462046
0.748864
-0.231781
0.626737
0.022349
0.345436
-0.128624
0.041418
0.485402
-0.164713
0.245114
0.090929
-0.500661
0.097693
0.163451
-0.083845
-0.022903
-0.191546
0.017365
0.069535
0.126318
-0.347188
-0.455403
0.806835
0.834568
-0.253963
-0.199011
-0.500760
-0.038068
-0.037072
0.234353
0.350809
-0.309338
-0.200901
0.173241
-0.007331
-0.387061
-0.078746
-0.096545
0.630383
0.258149
0.379477
-0.108103
0.079612
-0.577154
-0.099719
-0.300818
-0.453017
-0.138434
0.088433
0.012506
0.162288
-0.266877
0.470259
0.579553
0.680366
0.186796
0.308044
0.239142
-0.019483
0.512613
0.365861
-0.182717
-0.193317
-0.551999
0.917828
-0.040900
0.439585
-0.156597
-0.027437
0.204796
-0.384444
-0.148625
-0.068268
0.537728
-0.130803
-0.081133
0.371520
0.187654
-0.096676
-0.227795
-0.382139
-0.760552
-0.446170
0.367701
0.221924
0.300803
0.546698
1.370537
0.464627
0.033240
0.427494
0.943916
0.379956
-0.322286
-0.599768
0.191555
0.359472
0.013848
-0.303628
0.292183
-0.316371
-0.235315
0.308901
-0.244940
-0.239484
0.070507
-0.364322
0.086095
0.085595
-0.016102
0.116326
-0.222254
-0.149782
0.710157
0.597808
-0.010531
0.415294
0.349861
0.026509
0.244469
0.602181
0.022548
0.615570
0.635800
0.182364
0.338319
-0.457421
0.337022
-0.377132
0.396290
-0.241715
0.302661
0.629889
-0.227052
0.540436
0.569414
-0.660135
0.008137
0.736660
0.555366
0.837686
0.870473
0.920478
0.580440
-0.006187
0.179385
0.719511
0.231191
0.418322
-0.289433
0.337160
0.852505
-0.003712
0.756826
-0.048211
0.418551
0.824070
0.804119
-0.056813
0.741425
0.348155
0.595901
0.454538
0.109142
-0.027873
-0.508661
-0.246063
0.234304
0.673675
0.124573
-0.245912
-0.263398
0.171522
-0.679739
-0.708069
0.007587
-0.247737
0.218505
-0.342775
-0.096302
-0.071486
-0.483501
-0.250929
1.156663
0.361449
-0.372973
-0.250359
0.302961
-0.504672
-0.026294
0.395614
-0.533728
-0.464505
-0.265101
-0.596906
-0.097786
0.033355
-0.376170
0.074273
0.365787
0.207688
0.677548
-0.574188
0.089530
-0.090434
-0.042436
0.050150
-0.187460
-0.074764
0.371477
0.419516
0.367563
-0.772568
-0.209034
0.327923
0.587341
-0.059409
0.572907
-0.280641
-0.009402
0.061019
-0.449270
-0.064326
-0.792546
0.611643
0.286415
-0.270980
-0.335986
0.518772
-0.037551
-0.035896
-0.296034
-0.244232
-0.230013
0.490867
0.167624
-0.034228
-0.565763
0.067673
0.179905
0.669553
0.160169
0.943055
-0.184288
0.103103
0.682447
-0.795448
0.370857
-0.130314
-0.134200
-0.463885
0.082116
-0.038535
0.232389
-0.055190
-0.341746
0.848416
-0.577999
0.254820
-0.032237
0.295209
-0.116376
0.042045
0.317169
0.350190
-0.029950
0.259920
-0.300830
-0.280138
0.209556
0.269371
-0.085082
0.563348
0.074595
0.997962
-0.223207
0.106987
0.502870
-0.185449
0.343243
-0.456129
-0.132531
0.016901
0.299722
0.107307
-0.203110
0.388600
-0.369732
-0.067470
-0.130307
0.319868
-0.338143
-0.388835
0.643358
0.136878
-0.014336
-0.025485
-0.346043
0.038833
0.297983
-0.385101
-0.447534
0.109489
-0.284170
0.046733
0.047054
-0.207875
-0.251104
0.074653
-0.247477
0.355952
-0.049091
0.362224
-0.055760
-0.301945
0.613488
0.082524
1.041528
0.540251
0.945918
0.188289
0.520283
0.169173
-0.377456
-0.536201
-0.770901
-0.232794
0.237829
-0.130887
0.342119
1.008275
0.234326
-0.700591
-0.502276
-0.066856
0.310575
0.504444
-0.292460
0.809628
0.309744
0.317512
-0.107613
0.007524
-0.123428
0.185283
0.332637
-0.262652
0.182410
0.622439
-0.382370
0.083317
-0.119559
-0.231313
-0.435099
-0.121295
-0.289469
0.106032
-0.072728
0.150057
0.165967
-0.669107
0.347556
0.418463
-0.552797
-0.100132
0.026670
0.057849
0.624922
-0.003022
-0.231778
0.314745
0.808840
-0.066394
0.753227
-0.510546
0.103554
-0.397906
0.310774
-0.094875
0.976870
0.407165
0.063591
-0.126880
0.432204
-0.170546
-0.267588
-0.112494
0.238535
0.911641
-0.183993
-0.229872
-0.543920
0.413274
0.612556
1.078087
-0.855216
0.115157
-0.305515
-0.219264
-0.133308
-0.888151
-0.457617
-0.110922
0.740107
0.105075
0.432375
0.605292
-0.000168
0.560350
-0.651508
0.392017
-0.214037
-0.165877
-0.479396
-0.356584
-0.135782
0.207924
-0.295828
-0.017065
1.350747
0.454506
0.160373
-0.415139
-1.036823
0.439572
0.476191
-0.279529
-0.022308
0.091668
0.495851
-0.045873
0.223094
-0.274610
0.212159
0.138835
0.536885
0.041636
-0.265972
0.229435
0.268264
-0.367930
-0.470159
0.005424
0.281738
-0.239767
-0.006713
-0.333677
0.019725
0.808455
0.111893
-0.424953
0.429023
-0.132750
0.159037
0.479530
0.441767
-0.527627
-0.331933
0.208077
0.159936
-0.241281
-0.232922
0.645385
0.164373
0.117295
0.444077
0.743664
-0.429849
-0.761285
0.469549
0.356160
-0.194724
0.142177
0.264839
-1.145664
-0.692114
0.176900
0.057019
0.551248
-0.471051
-0.198132
0.146986
0.046407
0.575846
0.365563
-0.074572
-0.138369
0.111904
0.364364
0.219807
0.153727
-0.516258
0.025527
-0.235611
0.060910
0.023379
0.598437
0.478486
-0.051670
-0.071942
0.047394
-1.159744
-0.865016
0.967148
0.125444
0.409788
-0.070301
-0.206217
-0.497854
0.305186
0.217510
-0.341393
-0.021893
-0.233429
-0.004806
-0.319373
0.200156
0.066617
0.140142
-0.216573
-0.423699
-0.365348
-0.131416
-0.513977
0.625726
0.738166
-0.243231
0.936590
-0.282685
0.239397
0.355616
0.200758
0.158259
0.131781
-0.637403
-0.226481
-0.503205
-0.230721
0.263802
0.064544
-0.643186
-0.564198
-0.620837
-0.353643
0.381648
0.402079
0.491495
-0.040718
0.650480
1.074463
0.969951
0.493072
0.361751
0.420352
-0.174423
-0.090841
-0.045517
0.249832
-0.063250
0.200505
0.540349
-0.009078
-0.365002
-0.103803
0.623786
-0.051027
0.783638
0.645291
0.344190
-0.276556
0.620462
0.005150
0.297780
0.331763
-0.420428
-0.812079
-0.017488
0.439585
-0.182390
-0.221019
-0.077761
-0.035756
0.051339
0.308151
-0.458673
-0.897456
0.139293
-0.056006
0.786880
-0.011220
0.693461
0.554192
-0.015689
0.245540
-0.416223
-0.235185
-0.265942
-0.491895
-0.328523
0.482041
0.943138
-0.222438
-0.045002
0.529241
-0.280810
-0.281070
0.201651
0.605474
0.298080
0.537242
0.378213
0.571714
0.514548
0.909210
0.518793
0.472863
-0.352038
0.278191
0.411141
0.056927
0.180023
0.829180
0.069061
0.408078
0.516439
-0.337212
0.484804
-0.291306
0.277647
0.050882
0.563222
0.057592
0.830289
0.291874
0.250167
0.416201
0.462462
0.113832
-0.218111
-0.685953
0.016434
-0.734192
0.178253
0.284518
0.454897
-0.128533
0.092933
0.001267
0.488341
-0.274073
1.074966
-0.259005
0.103260
-0.295352
0.200492
-0.277108
-0.103522
-1.301611
0.066659
-0.367074
-0.752340
-0.462741
0.137809
0.022100
0.167332
0.040615
0.189132
-0.187416
0.126534
-0.070269
-0.053656
0.095150
0.196761
-0.035809
0.296031
-0.323622
0.728765
-0.169473
-0.268116
-0.036153
0.431109
0.214386
0.703224
-0.557562
0.125765
-0.240706
0.163475
-0.380800
0.213644
0.030777
0.017278
0.322064
0.505013
-0.172002
0.026160
-0.101054
0.408763
0.054876
0.329461
-0.336054
1.028687
-0.704013
0.026109
0.270997
0.635713
0.370566
-0.595677
0.749839
0.027011
0.301886
0.088685
0.145097
-0.239306
-0.478581
0.681716
-0.079281
-0.767801
0.636210
-0.315534
-0.063504
0.423981
-0.269332
0.656805
-0.471678
0.086929
0.036112
-0.331174
-0.051893
0.477170
0.103491
-0.771721
0.161528
0.090596
0.665517
0.100745
0.244544
-0.513222
0.092632
-0.184045
-0.119139
-0.199159
0.299929
0.152005
0.403492
-0.097493
0.723364
-0.354198
0.669856
-0.125675
-0.017820
-0.286662
0.186797
0.970280
-0.912646
0.035248
0.508153
0.092951
-0.025413
-0.211030
0.104987
0.052757
-0.075303
0.014571
-0.004265
0.214124
0.144468
-0.133299
0.149533
-0.505002
0.631826
0.499294
-0.224935
0.779338
0.453118
0.232233
-0.418505
0.735128
0.953675
0.906716
0.761254
0.620294
0.412842
1.316677
0.658877
-0.103736
0.234966
-0.210040
-0.014241
0.462893
-0.731005
-0.193148
0.051764
-0.117745
0.172932
-0.083488
-0.073786
-0.140737
0.339452
-0.411919
-0.084076
0.359463
0.893745
0.317551
0.347695
0.356405
0.634623
0.033848
0.293719
-0.075278
-0.100116
-0.376079
0.273719
0.216317
-0.073213
-0.034194
-0.096080
0.367315
0.781906
-0.015178
0.109374
-0.105007
0.257759
0.163778
-0.518545
0.871869
0.166248
0.765777
-0.160778
0.537098
0.219639
0.190673
0.512896
0.494715
-0.443470
0.391048
-0.025511
0.296569
1.228007
-0.085524
0.459593
0.192545
-0.070894
0.452336
0.232295
1.273985
-0.230700
0.591163
-0.106537
-0.219272
0.395689
0.659849
0.157842
-0.950643
0.058724
0.715558
0.363828
-0.861697
0.467739
-0.309242
-0.072137
-0.192042
0.569196
-0.227119
-0.358670
-0.189680
-1.027799
0.114077
0.167319
0.361641
0.672089
-0.347843
0.447710
-0.200840
0.336234
-0.203860
0.012950
-0.226439
0.199990
0.333068
0.101490
0.001384
-0.593995
-0.236915
-0.140383
0.440525
0.650609
-0.393244
0.223636
0.561194
0.317324
-0.046864
-0.113150
0.841852
0.009980
-0.132444
-0.208421
0.181577
0.236845
0.447878
0.023169
-1.052016
-0.047108
0.039355
-1.019235
-0.244850
-0.185759
0.008094
0.750530
0.340133
-0.967182
0.773249
-0.089388
-0.191599
1.125019
0.075679
-0.147532
-0.018081
-0.140534
0.464454
-0.361591
1.173614
-0.345035
-0.090995
0.529728
-0.524613
0.009451
0.361633
-0.025316
-0.157298
-0.210789
0.053658
0.487151
0.681176
-0.333888
0.103187
0.298207
0.103427
0.202979
-0.241562
-0.024107
-0.347414
0.145697
-0.535400
0.672473
-0.073788
-0.196587
-0.252482
-0.148634
0.272056
-0.636440
-0.356166
0.378810
0.130463
0.117221
0.577358
0.076849
-0.060215
-0.264791
0.333465
0.070713
0.162194
0.349385
-0.243562
0.072762
-0.112292
0.652725
0.217226
0.348686
0.761788
0.722828
0.442889
0.078576
0.004554
-0.439646
0.298616
-0.206347
0.691425
-0.028127
0.026355
0.001243
-0.271923
0.503476
0.269483
0.288178
-0.125602
-0.053277
-0.429088
-0.571119
0.299047
0.011574
0.827582
0.100565
0.281016
0.193412
-0.080891
-0.204861
0.299046
0.477624
0.064964
-0.075981
0.098421
-0.962596
0.292953
-0.532147
0.348001
0.361023
-0.285133
-0.399069
0.404148
0.499133
0.542366
0.744816
0.731093
0.820287
-0.695839
-0.032943
-0.399119
-0.300323
-0.059635
-0.743341
0.764876
-0.577999
0.674359
0.078875
0.058192
-0.943237
-0.043349
-0.599274
-0.474329
0.633893
-0.111126
-0.133129
-0.285726
-0.373471
-0.199990
-0.739423
-0.189215
0.334966
0.383151
0.033620
0.748239
-0.782676
-0.091822
0.863089
-0.090643
-0.124839
-0.072393
0.350392
0.261435
0.389098
0.454521
0.124960
0.602131
-0.043992
0.045822
0.053196
0.773066
-0.055441
0.566881
-0.166154
0.992857
0.586197
0.518640
0.597373
0.245144
-0.016457
0.520591
-0.051216
-0.149752
0.627014
-0.412732
0.208222
-0.270140
0.605773
0.314640
-0.212872
0.153850
0.398072
-0.428360
0.176744
-0.701962
0.494325
0.003052
0.055376
-0.138141
0.960522
0.986570
-0.198146
-0.278126
0.207419
0.174804
0.143484
-0.220364
0.736657
0.301970
0.238237
-0.071836
-0.223109
0.356730
-0.451771
-0.468611
0.924096
0.056466
0.150808
0.624990
0.207046
-0.221201
-0.169551
-0.572192
-0.327851
-0.204983
-0.608764
-0.348849
-0.104181
0.115864
0.047321
-0.479700
0.251746
-0.037231
-0.702349
-0.226792
-0.341201
0.237945
-0.114628
0.742157
-0.203184
-0.218660
0.130446
-0.448867
-0.246950
-0.115025
-0.186239
-0.820651
-0.493176
0.622031
-0.277834
-0.380626
-0.443561
0.033892
0.794819
0.374402
0.314501
-0.675830
-0.267254
-0.373923
0.226210
-1.032123
-0.846619
-0.814251
-0.163316
-0.242972
-0.043423
0.720680
-0.073431
1.016410
-0.382385
0.195056
-0.178077
-0.200415
-0.537782
-0.866244
0.021411
-0.210896
-0.252641
0.352334
0.661873
-0.265500
0.408760
-0.501689
-0.671278
-0.072012
-0.016229
-0.462046
-0.609924
-0.216954
-0.079212
0.571548
-0.390838
-0.008185
0.236184
-0.384134
-0.374035
0.436396
-0.236918
0.397172
-0.506252
0.430656
0.492107
-0.321599
0.717005
-0.572193
0.583116
0.589094
0.111374
0.113511
-0.485156
0.170504
-0.036076
-0.071143
-0.118978
0.679823
-0.125760
-0.445883
-0.385013
0.588520
-0.480091
-0.019206
-0.124218
0.297899
0.591319
0.613680
-0.569666
-0.233663
-0.890429
-0.423902
0.202123
0.323030
-0.143432
0.087391
-0.137957
-0.184405
-0.269582
-0.354111
-0.035285
-0.313108
-0.534982
0.287515
-0.874222
0.056138
-0.456550
-0.421484
0.409060
-0.394871
-0.351124
0.614745
0.062792
-0.077286
0.989951
-0.135221
0.722551
0.542080
0.397144
1.465986
0.440185
0.418403
0.298517
0.435180
0.231238
-0.243785
0.358190
0.071671
-0.056299
-0.064593
-0.382890
0.318495
0.135552
0.121912
0.018076
0.032507
-0.071007
-0.326916
0.040187
0.762671
-0.377216
0.103601
-0.185658
-0.190588
-0.047468
0.668016
0.423120
-0.127314
-0.733454
0.630334
-0.601724
-0.339844
0.257433
-0.751468
0.283913
0.694957
0.110348
-0.637868
0.134010
0.797168
0.527587
0.045387
0.441174
-0.139538
-0.130375
-0.673503
-0.304583
-0.223576
-0.004043
0.124288
0.217369
0.522118
0.073869
0.887577
-0.263629
0.150954
0.918160
0.465246
-0.028175
1.032044
-0.063914
0.231005
0.541739
-0.030456
0.059892
0.361306
0.053847
-0.388615
0.398692
-0.352960
-0.187854
0.562929
-0.198845
-0.329810
0.874426
0.374070
0.232678
0.484455
-0.020347
0.193583
0.721572
0.180447
-0.152847
0.124625
-0.354880
-0.184101
-1.043604
0.266072
-0.000226
0.537434
0.094957
-0.859967
-0.439507
0.063922
0.296637
-0.342973
-0.779904
-0.321880
0.374713
0.144395
-0.682827
0.300889
0.269531
-0.623682
-0.401652
-0.022349
-0.045259
-0.016402
-0.349041
-0.601183
0.167386
0.325293
-0.021935
-0.612365
-0.159841
0.364891
0.666096
0.216099
0.344948
-0.058436
-0.566444
0.221883
-0.091779
0.553087
0.165337
0.145611
0.231055
0.561843
-0.509290
-0.138984
-0.128899
1.086098
-0.152661
-0.304567
-0.198295
-0.011305
-0.295556
-0.276492
0.285864
-0.554887
-0.077974
0.051171
0.011652
0.090562
0.458090
-0.667162
-1.034726
-0.440822
0.602221
-0.049545
-0.145728
-0.503117
0.059871
-0.012053
-0.512056
-0.335277
-0.241243
-0.135506
0.540351
0.132254
0.236086
0.018678
0.097502
0.509417
0.239251
-0.235244
0.037979
-0.195344
0.282688
0.704871
0.200436
-0.864261
0.384511
0.578750
0.883936
0.352860
-0.169631
0.211331
0.061868
-0.292969
-0.262912
0.662437
0.406938
0.320352
-0.764921
-0.311082
0.238073
0.260194
0.553155
-0.285121
0.108931
0.369203
0.069425
0.079243
-0.229273
-0.614036
0.604793
-0.457663
0.036806
0.198114
-0.393640
-0.085110
-0.581467
-0.172854
0.508593
0.204302
0.818522
-0.338664
-0.225442
0.185033
0.753520
0.102936
0.642899
0.854033
0.247264
0.039891
-0.041900
0.592992
-0.020572
0.322625
-0.021076
-0.504087
-0.391097
0.368271
-0.248513
0.235501
0.605609
0.426753
0.639039
0.925663
1.500000
1.212717
0.067137
-0.010520
-0.677254
0.030325
0.055264
-0.735610
0.354713
-0.610929
-0.028611
0.093277
-0.817440
-0.296037
0.373731
0.575239
-0.270215
0.101740
0.201907
0.312143
-0.022897
-0.258695
-0.188763
0.066268
-0.185449
1.229995
0.065276
0.328475
0.537522
-0.202038
-0.272517
0.411879
0.029196
-0.229674
0.052914
-0.049022
-0.024647
0.181183
-0.316823
-0.135161
-0.466575
0.241837
-0.024616
-0.028157
0.549638
0.514501
0.133239
0.172680
0.830557
0.314327
0.553296
0.209336
0.278711
0.807292
0.086378
0.280038
0.091148
-0.441654
0.286776
0.827408
0.217674
0.756111
1.050712
0.202795
0.246391
-0.051205
0.841152
-0.427344
-0.351861
0.421381
0.196061
-0.016590
0.602881
0.274984
0.918442
-0.192721
0.202984
-0.375566
-0.121771
0.173820
-0.159428
-0.703859
-0.209299
0.171718
-0.137718
0.585630
-0.191401
-0.059260
0.299204
0.344918
0.251817
0.121872
-0.808932
-0.672444
0.092801
-0.153364
0.032743
0.974687
0.297386
0.342636
-0.004894
0.117988
0.898453
0.616223
0.507868
-0.135418
-0.364646
-0.381703
0.191441
-0.356877
0.133502
0.312664
0.355709
-0.090146
0.065864
-0.406190
0.054513
-0.099091
-0.215120
0.109880
-0.603104
-0.517567
-0.143637
-0.499035
0.550300
0.435823
-0.526226
0.380796
0.009241
-0.104123
-0.231960
-0.828781
0.670434
0.173731
0.077483
0.149892
-0.052626
0.085658
0.027066
-0.012036
-0.659025
-0.317064
0.230890
-0.288154
-0.237222
-0.291794
1.006239
-0.804540
-0.043661
0.146367
-0.302345
-0.366244
0.433390
-0.067323
0.449064
-0.294065
-0.168125
-0.244650
0.041139
-0.920795
-0.295812
-0.109886
0.328409
-0.095218
-0.038787
-0.178092
0.122901
0.361847
0.655156
-0.686005
0.629052
0.095042
0.734282
-0.134652
-0.418915
0.248331
0.175205
0.719104
-0.441301
0.661378
0.412661
-0.337821
0.469708
0.212556
-0.401842
0.635934
0.297714
0.289170
-0.376908
-0.175618
0.348582
0.881364
0.902932
-0.235506
-0.423716
0.007822
0.624593
-0.456333
0.722312
-0.548382
-0.322035
-0.081747
-0.238218
0.247864
-0.043717
-0.418594
0.025447
-0.124464
0.738110
0.453051
0.505523
-0.585466
-0.827993
-0.103947
-0.021026
-0.210260
-0.668076
-0.251943
-0.222456
0.005657
-0.286831
-0.468396
0.159802
-0.265864
-0.629920
0.597193
0.721065
-0.143964
1.308773
0.331387
0.867068
0.448542
0.254287
0.142948
0.650337
0.246817
-0.260891
0.432048
-0.163164
-0.594896
-0.596977
0.158831
0.035030
0.183306
-0.416535
1.104795
-0.747745
0.518820
0.620820
-0.395540
-0.125759
-0.914526
-0.360337
-0.362807
-0.317906
-0.034240
0.263712
0.125956
0.081434
0.319477
0.573955
0.073745
0.156650
0.223125
0.459507
0.384726
-0.013146
0.147370
-0.082607
0.497966
-0.017939
0.149438
-0.264284
-0.384178
0.244087
0.165357
-0.039027
0.320308
-0.135328
-0.370139
0.472978
-0.480203
0.275076
-0.079670
0.555913
-0.154757
-0.026611
0.029951
-0.042158
-0.362142
0.072853
0.943071
0.312066
-0.015650
0.549058
0.551225
0.274525
0.919436
0.533777
0.298363
-0.742673
0.134513
-0.616110
0.659008
0.270740
0.888490
0.458819
0.264164
-0.011000
-0.244551
-0.453469
-0.137564
-0.031330
-0.426462
-0.048783
0.020811
-0.521157
0.518141
-0.297421
0.130420
0.062891
-0.143698
0.140103
-0.395916
0.253298
-0.275999
0.224863
0.122523
0.040660
0.104860
0.027320
-0.162598
0.249037
0.294131
-0.256859
-0.103603
-0.587144
-0.299408
0.882806
-0.057804
-0.102311
-0.246650
0.240223
-0.082496
-0.082448
-0.534020
0.640660
0.444933
0.029743
-0.062385
-0.421471
0.586724
0.096625
-0.352442
0.277912
-0.008868
-0.337736
-0.409509
0.172658
0.664704
-0.549078
-0.578629
-0.403939
-0.770565
0.068806
0.188962
-0.687882
-0.400167
0.099427
0.297448
0.522021
0.360999
-0.508419
-0.584548
-0.020676
0.218192
0.082367
-0.170077
-1.130344
-0.134954
-0.017736
-0.097690
-0.506616
-0.208823
0.633452
-0.012742
-0.074130
-0.139505
-0.041778
0.147917
0.109444
-0.186439
0.931777
0.654140
0.063966
-0.301348
-0.644770
-0.038495
-0.009608
0.279931
0.143178
0.727657
0.002482
0.057734
0.029615
-0.090766
0.594551
0.484277
-0.358637
-0.201153
0.411846
-0.168546
-0.098193
0.414445
0.421440
-0.290861
0.198132
-0.056987
0.480430
0.038266
-0.090853
-0.186088
-0.136805
-0.298141
0.068107
0.301334
0.093632
0.885244
-0.422012
-0.599913
0.295805
0.064839
-0.186825
0.259257
-0.073319
0.378097
0.251154
0.252700
0.570349
0.453399
-0.327518
-0.378240
-0.047395
-0.037097
0.694239
-0.484608
0.020805
-0.533170
-0.510635
0.226068
-0.030227
0.390919
-0.312129
-0.522864
-0.815185
-0.404500
0.763058
-0.325132
-0.077529
0.734545
1.016614
1.006327
0.335882
-0.261568
-0.054569
1.014273
0.161462
0.060572
-0.222476
-0.238199
-0.280777
-0.156810
-0.216232
-0.028383
-0.092379
-0.028268
-0.510273
0.071437
-0.113213
0.236557
0.378549
-0.149956
-0.517941
0.090442
-0.295378
-0.263047
-0.320287
-0.416093
-0.184407
-0.814943
-0.153592
-0.200161
-0.493487
0.348619
-0.156521
0.493329
-0.443744
0.408984
-0.120255
0.120475
-0.137811
0.218621
0.308897
0.099398
0.685925
0.783855
0.516317
0.318207
0.034859
0.103651
-0.233974
-0.008280
0.822225
-0.244364
1.058972
0.810529
0.845173
0.577721
0.973380
0.015255
-0.098522
0.242893
-0.489614
1.280492
0.228080
0.146950
0.237578
-0.193177
-0.228573
0.254216
0.540111
0.220442
0.707782
0.078558
0.147397
-0.377321
0.847553
-0.208390
-0.253156
-0.318346
0.229027
0.126026
0.690324
0.603868
0.843207
-0.056861
0.258415
-0.861169
-0.235887
0.417725
-0.194735
0.479715
0.309058
0.462675
0.125780
-0.362873
0.737582
-0.005357
-0.318336
0.325681
0.070437
0.344382
0.027482
-0.031633
-0.120167
0.029493
-0.177053
0.209705
0.111104
0.424067
0.482535
-0.507646
0.645167
-0.275837
0.086554
0.441836
-0.244410
0.827336
0.066104
0.258359
0.724723
0.860240
0.789571
0.008969
-0.478800
-0.039130
0.200037
0.320573
-0.434012
0.588048
-0.051813
0.399659
0.124100
0.288537
-0.809904
0.291246
-0.243528
-0.018170
-0.214524
-0.041972
0.145095
0.104467
0.804022
0.126853
-0.111285
-0.362561
0.118495
-0.527476
-0.294469
0.273656
0.066592
-0.467810
0.460864
0.414102
0.768600
-0.589950
-0.632113
-0.163480
-0.392109
0.031336
-0.021047
-0.180682
0.295559
0.253382
0.003804
0.142257
0.056643
-0.513361
-0.275557
-0.570935
0.033401
-0.494945
0.262973
-0.106063
-0.710039
0.367202
-0.851141
0.412005
0.420269
-0.117450
-0.239544
-0.270460
0.657460
0.271884
-0.167936
-0.046732
0.828068
-0.320513
1.129633
0.412287
0.335623
-0.468672
0.496144
0.134510
0.594580
-0.261238
-0.049500
0.581622
0.050973
0.102020
0.062456
-0.449372
-0.302187
-0.174450
0.349006
0.013152
-0.010569
0.674326
-0.055856
0.020294
0.614177
-0.105338
0.438091
-0.744709
0.064206
0.252323
-0.599765
-0.045354
-0.140060
-0.009657
-0.235965
0.000835
-0.409900
0.215390
-0.075268
0.110100
0.086605
-0.340997
0.482192
0.159336
0.545322
0.597370
0.556085
0.166375
-0.104105
0.577028
0.843680
-0.029595
-0.171391
-0.280462
-0.348941
-0.711211
-0.266872
0.110974
0.157209
0.086623
-0.212646
-0.527532
0.200405
0.186761
0.169657
0.689264
0.400520
0.143939
0.439710
-0.435495
0.043674
-0.127829
0.275345
-0.459417
-0.870961
-0.237386
-0.542011
0.271966
-0.143758
0.315095
1.062651
0.211982
0.018068
-0.649318
0.180549
0.700632
-0.085545
0.675694
-0.401478
0.203425
0.095739
0.369553
0.036837
-0.273026
0.494027
-0.232416
0.229132
0.008280
-0.407545
0.416681
0.017402
0.413546
0.383093
0.515212
0.048928
0.125407
0.973737
0.098205
0.187140
0.118947
-0.007952
0.563793
0.231043
0.616921
0.361627
-0.256191
0.401903
0.278828
-0.040664
0.392921
0.212005
0.799615
-0.559727
-0.608605
0.192172
0.331357
0.237283
0.014278
0.118095
-0.374278
0.245209
-0.110762
0.301276
0.145525
-0.556999
1.279530
-0.271481
-0.919998
-0.326203
0.583709
-0.669826
0.158102
0.054783
0.610201
0.554218
