0.049132
0.079284
-0.013787
0.066297
0.077848
0.055277
0.041206
-0.037866
0.001989
-0.022617
-0.006291
-0.069781
0.061110
0.098343
-0.000610
-0.029342
0.019486
-0.022132
0.044876
0.112615
0.087622
0.053530
0.132285
0.086106
0.105396
0.103609
0.158608
0.178069
0.186629
0.205346
0.227124
0.225931
0.315711
0.225848
0.185423
0.211874
0.230434
0.218577
0.222161
0.121516
0.204696
0.133115
0.194814
0.147069
0.145938
0.109534
0.133763
0.086320
0.074552
0.058412
0.089593
0.139453
0.088022
0.034201
0.127928
0.029432
0.047368
-0.010763
0.036440
-0.021108
0.034244
0.003563
0.043001
0.114904
0.270397
0.411301
0.776322
1.101271
1.255528
1.438013
1.319647
1.000508
0.707399
0.344662
0.079034
-0.074325
-0.150844
0.021074
-0.049630
0.009119
0.161511
0.121123
0.141761
0.153391
0.128431
0.174765
0.244050
0.132382
0.182786
0.165995
0.313786
0.277831
0.291721
0.310607
0.308971
0.331719
0.293696
0.385379
0.381039
0.428915
0.451368
0.485299
0.470363
0.479704
0.509428
0.559253
0.596681
0.659009
0.638068
0.470472
0.575667
0.644446
0.607895
0.622234
0.593524
0.533300
0.603226
0.574415
0.514400
0.585190
0.383179
0.560381
0.500186
0.491612
0.530688
0.397137
0.334991
0.443249
0.468573
0.348821
0.236072
0.351771
0.271675
0.264536
0.310793
0.204590
0.178060
0.224278
0.186562
0.220916
0.156073
0.191948
0.155150
0.154958
0.131830
0.177100
0.097613
0.099938
0.062824
0.123963
0.036683
0.166497
0.087024
0.042270
0.200796
0.157881
0.149290
0.049999
0.150222
0.054404
0.195696
0.081557
0.081682
0.103915
0.171309
-0.019679
0.104042
0.102167
0.083781
0.053077
0.119018
0.114825
0.060854
0.042999
0.010629
0.099440
0.072919
0.091804
0.058248
0.123283
0.114882
0.118904
0.137236
0.085638
0.088693
0.078404
0.131198
0.070860
0.121435
0.126823
0.183177
0.085012
0.145202
0.153611
0.099535
0.141241
0.180157
0.166141
0.160920
0.169647
0.186339
0.268555
0.182959
0.253859
0.315331
0.276916
0.254519
0.235468
0.250055
0.241496
0.278410
0.306275
0.206441
0.221778
0.226508
0.174353
0.244326
0.269327
0.194890
0.202966
0.116419
0.126415
0.232528
0.106295
0.110878
0.067277
0.200329
0.126501
0.041883
0.121517
0.152647
0.097104
0.117352
0.092206
0.095547
0.217119
0.232414
0.424959
0.640233
0.978540
1.302586
1.466322
1.437419
1.235230
0.820797
0.461364
0.237444
0.012756
-0.008290
-0.045971
0.005810
0.023094
0.158031
0.164857
0.127674
0.164646
0.101027
0.149135
0.214078
0.157693
0.181569
0.221297
0.214160
0.268898
0.379838
0.242446
0.306826
0.297291
0.426019
0.381484
0.437656
0.498136
0.501331
0.491675
0.467304
0.518066
0.545194
0.514428
0.598650
0.571345
0.553410
0.543598
0.583889
0.526194
0.662301
0.561358
0.647665
0.643696
0.611960
0.553557
0.632145
0.596426
0.462517
0.556746
0.519030
0.462823
0.455434
0.532077
0.385933
0.375673
0.426676
0.330831
0.367011
0.262867
0.310036
0.335798
0.232338
0.232453
0.189674
0.171609
0.203117
0.155397
0.223908
0.120362
0.042040
0.054945
0.108120
0.178559
0.064821
0.088332
0.132324
0.065579
0.062210
0.086203
0.081842
0.085763
0.055459
0.030662
0.130000
0.042647
0.046345
0.079309
0.014243
0.098685
0.169020
0.043893
0.061599
0.099088
0.109764
0.028503
0.038589
-0.014033
0.055681
0.040474
-0.010096
0.096417
0.081660
0.033287
0.091301
0.084473
0.074150
0.054933
0.117884
0.111890
0.051932
0.020500
0.039695
0.128460
0.081410
0.084560
-0.015131
0.073647
0.010546
0.113079
0.075693
0.083833
0.128032
0.116322
0.153508
0.104707
0.154285
0.091192
0.110126
0.112636
0.122381
0.215739
0.227348
0.150420
0.177711
0.105085
0.206129
0.191936
0.203762
0.193956
0.188278
0.204987
0.080513
0.076990
0.144848
0.194311
0.125189
0.067676
0.065287
0.084662
0.101803
0.037494
0.013910
0.073095
0.113269
0.044781
0.025421
-0.010983
0.006029
-0.001657
0.027574
-0.019387
0.016032
-0.018967
0.114340
0.209488
0.427185
0.763096
1.195424
1.371876
1.340941
1.243899
0.917164
0.599382
0.312135
-0.029515
-0.152096
-0.158661
-0.024588
-0.024045
-0.004609
0.062216
-0.016968
0.104530
0.061082
0.062548
0.104009
0.144411
0.131960
0.138638
0.105517
0.159298
0.222434
0.241027
0.215008
0.223546
0.334139
0.303895
0.352102
0.412608
0.315771
0.356045
0.447355
0.383553
0.506032
0.400977
0.489079
0.487590
0.497762
0.484791
0.480138
0.538684
0.540760
0.493797
0.539504
0.514290
0.498008
0.501768
0.431032
0.413995
0.503364
0.397040
0.445875
0.438219
0.364348
0.266165
0.270988
0.308257
0.322204
0.232581
0.257440
0.234574
0.250290
0.166603
0.151956
0.176550
0.099378
0.112645
0.138960
0.131839
0.005413
0.113532
0.050217
-0.006817
0.011676
0.043030
-0.030544
-0.037441
0.067078
-0.036762
-0.053525
0.007567
0.026038
-0.007503
-0.035033
-0.048303
0.000761
0.009907
-0.003092
-0.018050
-0.021728
-0.029447
0.030560
0.000095
-0.101427
-0.005462
0.049624
-0.020280
0.008731
-0.074283
-0.068492
-0.036285
-0.105778
-0.005750
-0.061183
-0.055616
-0.037202
-0.100607
-0.078647
-0.065883
-0.051629
-0.017054
-0.081306
-0.037501
-0.030013
-0.059390
0.084733
-0.017526
-0.011292
-0.138903
0.082259
0.115631
-0.012997
0.078971
0.058435
0.093324
0.047069
0.040340
0.044830
0.110192
0.074274
0.091158
0.128916
0.138509
0.148132
0.108242
0.130615
0.157180
0.171569
0.167845
0.097190
0.110804
0.135334
0.098327
0.148442
0.053225
0.069035
0.075530
0.051715
0.037484
0.050969
0.096169
0.033679
0.031245
0.052107
0.009708
-0.045126
-0.113825
-0.058901
-0.033159
-0.055225
-0.085475
-0.122564
-0.081654
-0.097727
0.042573
-0.060474
0.077125
0.322017
0.504493
0.917321
1.224901
1.352147
1.336291
1.106719
0.747498
0.351466
0.011836
-0.155075
-0.157601
-0.160760
-0.091451
-0.068291
-0.001628
0.060196
0.044450
0.032357
0.066537
0.037536
0.012911
0.073063
0.097120
0.097941
0.143172
0.214490
0.116069
0.176539
0.172177
0.252813
0.232151
0.286480
0.256655
0.379587
0.349823
0.327102
0.309708
0.413167
0.471506
0.395303
0.438149
0.508679
0.449212
0.433210
0.447710
0.451640
0.474242
0.507935
0.478608
0.455577
0.395254
0.588006
0.509676
0.447199
0.460820
0.446057
0.363178
0.436877
0.333787
0.329238
0.302553
0.324450
0.329232
0.288976
0.244772
0.201237
0.269619
0.159050
0.273418
0.147415
0.126178
0.061460
0.168726
0.091694
0.154743
0.100115
0.179892
0.036889
0.060330
0.090681
0.007033
0.052009
0.021961
0.047761
-0.039440
-0.015727
-0.037504
0.019979
-0.072044
-0.035144
-0.019152
-0.045827
0.011570
-0.009459
-0.089691
-0.065762
-0.045936
0.024329
0.015811
-0.068872
-0.023523
0.033521
0.022410
0.017471
-0.069125
-0.024241
0.103330
-0.014778
0.056473
0.022338
0.021838
0.114568
0.022769
-0.030842
-0.008359
-0.074983
-0.058988
-0.026185
-0.087800
-0.015105
0.060303
0.035896
0.039382
0.065908
-0.027677
0.037307
0.060084
0.047221
0.104118
0.127796
0.141208
0.119375
0.157764
0.200071
0.216116
0.136181
0.173286
0.192052
0.156109
0.193218
0.192370
0.262338
0.180357
0.144130
0.182088
0.135219
0.152889
0.175360
0.220310
0.195223
0.123238
0.105508
0.196813
0.047991
0.099560
0.083133
0.079208
0.118824
-0.012554
0.001812
-0.008114
0.047276
0.097822
0.067720
-0.006012
0.071193
0.060335
0.071479
0.006804
0.088949
0.195451
0.275731
0.567510
0.840269
1.168504
1.475344
1.374602
1.226352
0.954731
0.562594
0.199007
-0.046544
-0.100498
-0.094862
-0.062737
0.043736
0.103113
0.071914
0.086261
0.069185
0.054542
0.111929
0.200585
0.142682
0.161763
0.229616
0.257068
0.238611
0.267090
0.357811
0.264249
0.351379
0.310120
0.330842
0.390085
0.373494
0.435610
0.387327
0.435151
0.433108
0.506184
0.465570
0.500521
0.526183
0.542841
0.593457
0.546518
0.557341
0.505325
0.552095
0.578347
0.593690
0.574820
0.615875
0.584967
0.549078
0.546720
0.493336
0.589841
0.463136
0.455547
0.414054
0.395146
0.461748
0.426051
0.330974
0.371014
0.295638
0.329897
0.226435
0.308056
0.241418
0.290476
0.200937
0.112670
0.248889
0.202894
0.109569
0.163959
0.111705
0.119276
0.112300
0.085314
0.047181
0.102215
0.057939
0.101946
0.167353
0.226436
0.135961
0.107267
0.017458
0.097533
0.149193
0.109642
0.073903
0.013912
0.082689
0.065272
0.006161
0.079239
0.093498
0.085949
0.021331
0.050612
0.127507
0.057894
0.131348
0.016331
0.065709
0.143997
0.133544
0.185844
0.124004
0.051279
0.120219
0.062312
0.127132
0.068268
0.107575
0.059050
0.162065
0.072962
0.132247
0.158693
0.183141
0.096423
0.095268
0.138493
0.118947
0.172356
0.214371
0.238056
0.229116
0.187485
0.174466
0.233605
0.219336
0.251477
0.223262
0.249927
0.253503
0.316946
0.264616
0.282499
0.233245
0.280332
0.296507
0.177988
0.299437
0.191242
0.241492
0.210663
0.237766
0.144752
0.172555
0.171066
0.233916
0.115253
0.103236
0.207613
0.175989
0.171023
0.064930
0.038674
0.130686
0.070545
0.116644
0.102816
0.088252
0.020844
0.143185
0.120225
0.305957
0.540985
0.868664
1.139383
1.239210
1.500000
1.437940
1.179569
0.840226
0.465108
0.051973
0.035247
-0.104136
-0.120505
0.007207
0.113376
0.194902
0.140958
0.126639
0.179653
0.200424
0.247911
0.305563
0.289616
0.230330
0.278158
0.286194
0.313375
0.279664
0.288313
0.292536
0.401242
0.364137
0.440129
0.423242
0.435101
0.438936
0.441622
0.532597
0.576589
0.494447
0.634102
0.600620
0.576971
0.621978
0.640717
0.646355
0.617541
0.572415
0.637911
0.550189
0.580813
0.629107
0.679711
0.530721
0.576530
0.538139
0.520104
0.530322
0.549055
0.463138
0.529615
0.352316
0.512371
0.420421
0.459244
0.379372
0.384183
0.424481
0.312392
0.237160
0.355840
0.175160
0.258306
0.174914
0.250931
0.251009
0.144179
0.250080
0.197230
0.098739
0.069057
0.088945
0.118437
0.046735
-0.047951
0.107971
0.082885
0.116486
0.129943
0.064080
0.001194
0.095660
0.081486
0.061097
0.055796
0.032570
0.041010
0.023050
0.055749
0.150857
0.113883
0.118360
0.063738
0.114661
0.082813
0.003348
-0.005781
0.068058
-0.024944
0.084339
0.035583
0.085638
0.067512
0.040493
0.068058
0.029262
0.062956
0.074267
0.137463
0.061586
0.071500
-0.001767
0.183447
0.073915
0.090705
-0.001854
0.104560
0.037130
0.118524
0.062477
0.074584
0.205193
0.201824
0.230711
0.253155
0.269206
0.195397
0.162280
0.237556
0.226433
0.076785
0.230338
0.244996
0.307313
0.269058
0.273162
0.215980
0.175141
0.209731
0.154943
0.148825
0.131476
0.125348
0.098166
0.168893
0.075935
0.066528
0.134840
0.114440
0.091480
0.048115
0.137655
0.045293
0.049526
0.011560
0.047770
0.040830
0.063284
0.046628
0.106573
0.048962
0.233654
0.365754
0.531363
0.971083
1.278843
1.422176
1.473154
1.175470
0.899248
0.467238
0.153353
-0.107123
-0.155751
-0.074328
-0.090796
-0.020494
0.053788
0.011498
0.041938
0.164174
0.096772
0.096227
0.156023
0.169815
0.108889
0.221776
0.172655
0.203901
0.262179
0.229667
0.295685
0.268861
0.302522
0.286881
0.376433
0.380395
0.369080
0.381298
0.359146
0.475339
0.440631
0.467151
0.474951
0.527281
0.525931
0.555486
0.556266
0.618138
0.518846
0.511282
0.550178
0.474424
0.517703
0.502181
0.465658
0.456064
0.455346
0.481208
0.453745
0.331138
0.400240
0.299751
0.394600
0.316688
0.264214
0.242016
0.290915
0.253830
0.317243
0.202766
0.157827
0.096187
0.113739
0.122541
0.134794
0.115131
0.029831
0.081714
0.009126
0.017800
0.044609
-0.007153
0.027578
-0.036659
0.038459
0.035632
-0.018761
0.030946
0.082675
0.018953
-0.008334
-0.025480
-0.036038
0.003330
-0.035094
-0.036737
-0.017558
-0.130793
0.009576
-0.029115
-0.043580
-0.082640
-0.041165
-0.101690
-0.040447
-0.068169
-0.078409
-0.113732
-0.057461
-0.032252
-0.026415
-0.038050
-0.049680
-0.017417
-0.049502
-0.065759
-0.014329
0.022366
-0.037144
0.019818
-0.167291
-0.040240
-0.087579
0.039523
-0.021539
0.014994
0.021489
0.042392
0.091131
0.110278
0.150059
0.035687
0.013897
0.086469
0.031857
0.008466
0.056503
0.155524
0.155153
0.149828
0.073633
0.087039
0.132458
0.119243
0.064117
0.080242
0.068518
0.158857
0.075875
0.058310
0.104417
0.050484
0.136323
0.091121
0.060424
0.101491
0.057320
0.040669
-0.001210
-0.075241
-0.023956
0.000046
-0.106826
-0.004967
-0.005665
-0.094020
0.005622
-0.042839
-0.020432
-0.056978
-0.057640
-0.054978
0.024364
0.164251
0.430887
0.629189
1.037281
1.211153
1.340465
1.168538
0.962066
0.530334
0.238323
-0.054731
-0.287607
-0.276808
-0.289895
-0.081809
-0.050741
-0.073152
-0.027265
0.003897
-0.018870
0.064175
-0.047245
0.048597
-0.050392
0.082960
0.062995
0.108245
0.104552
0.128112
0.138983
0.142367
0.248528
0.240298
0.139602
0.310438
0.213509
0.322044
0.306422
0.377226
0.446286
0.460870
0.485923
0.421096
0.431461
0.436705
0.356460
0.428757
0.388357
0.430999
0.468250
0.445717
0.406285
0.409610
0.474668
0.378721
0.350325
0.288474
0.365131
0.291576
0.335721
0.314142
0.296023
0.239257
0.256431
0.140207
0.052626
0.101727
0.232698
0.190365
0.133810
0.070983
0.060788
-0.025156
0.037529
-0.007074
-0.097225
0.014919
0.082845
-0.039057
-0.055885
0.002802
-0.054580
-0.024758
-0.006712
-0.090967
-0.080170
-0.046898
-0.090567
-0.055389
-0.150832
-0.062970
-0.102369
-0.068121
-0.040666
0.030683
-0.085350
-0.105158
-0.112440
-0.109961
-0.107899
-0.140147
-0.083613
-0.088553
-0.126753
-0.126072
-0.025419
-0.067888
-0.071467
-0.035238
-0.157476
-0.092104
-0.068320
-0.008939
-0.072184
-0.073607
0.018774
-0.064229
-0.066536
-0.117880
-0.058239
-0.026442
-0.027907
-0.022792
-0.080628
-0.036274
-0.024542
-0.044489
-0.003745
0.013561
0.017958
0.044601
0.032263
-0.017715
0.092498
0.001049
0.081170
0.130442
0.010508
0.072113
0.152726
0.111969
0.081783
0.135664
0.103598
0.118107
0.110574
0.138917
0.062577
0.041907
0.008178
0.039540
0.067176
0.045260
0.093449
0.054649
0.107276
0.044468
-0.009572
-0.023595
-0.038708
-0.107535
0.034435
0.038488
-0.035245
-0.062106
-0.096509
-0.090153
-0.083433
-0.054056
-0.040370
-0.056495
0.024453
0.071982
0.288508
0.602532
0.824095
1.099381
1.329768
1.315194
1.092074
0.757110
0.312050
-0.034833
-0.160581
-0.216689
-0.249692
-0.113903
-0.071877
-0.072156
0.050734
-0.035548
0.041794
-0.013212
0.042858
0.053979
0.094240
-0.009264
0.157192
0.189227
0.193129
0.078661
0.078890
0.202428
0.261263
0.242808
0.218686
0.319997
0.324515
0.325671
0.262397
0.397141
0.353987
0.298349
0.552451
0.437809
0.468644
0.463982
0.508346
0.499333
0.542443
0.598622
0.466495
0.501817
0.524692
0.496766
0.517013
0.492195
0.377481
0.473306
0.404228
0.361631
0.410329
0.360411
0.378178
0.313483
0.334277
0.209613
0.242703
0.172814
0.230585
0.221497
0.202234
0.222466
0.228508
0.131195
0.057010
0.071447
0.085513
0.051238
0.088384
-0.011544
0.137659
0.086046
0.015147
-0.037671
0.067823
0.054532
0.006582
-0.010430
0.019179
0.023485
0.093528
0.038677
-0.028735
-0.014495
0.037513
-0.087878
-0.011478
0.030219
-0.007028
0.056364
-0.085801
0.057469
-0.038728
-0.088046
0.022010
0.102458
0.072778
0.002507
-0.010452
-0.022866
0.028978
0.098019
0.045361
-0.029793
-0.021455
-0.072425
-0.029899
0.034768
0.038474
0.063655
-0.044055
0.069319
-0.006666
0.051778
-0.015924
0.051358
0.018865
0.051124
0.054510
0.111762
0.121950
0.046732
0.073160
0.174086
0.056245
0.152924
0.068431
0.112135
0.233201
0.140957
0.176803
0.130999
0.193039
0.196322
0.227455
0.200905
0.185786
0.228763
0.106188
0.198128
0.115308
0.164697
0.135620
0.152714
0.043134
0.065239
0.051369
0.190290
0.076968
0.106707
0.119337
0.022647
0.128625
0.028576
0.049367
0.081994
0.022662
-0.002328
0.010215
0.020401
-0.004462
0.056484
0.100461
0.190570
0.313605
0.528932
0.896319
1.188496
1.385220
1.419860
1.278859
0.918369
0.589208
0.205168
0.014430
-0.078133
-0.033417
-0.002603
-0.062882
-0.045758
0.021116
0.127952
0.145105
0.076509
0.161745
0.134255
0.033091
0.151380
0.256373
0.264991
0.175597
0.336134
0.224822
0.201830
0.327386
0.285735
0.390968
0.377825
0.490302
0.424116
0.484312
0.464614
0.534014
0.414929
0.499546
0.483331
0.545391
0.493799
0.534664
0.597252
0.592340
0.576609
0.535666
0.647552
0.592408
0.616188
0.617387
0.491399
0.479221
0.457098
0.571082
0.567650
0.531443
0.492222
0.347164
0.529520
0.366231
0.332950
0.309852
0.204451
0.309135
0.325141
0.324723
0.264501
0.253943
0.103333
0.239790
0.268229
0.112176
0.146469
0.176500
0.162973
0.067232
0.112859
0.100285
0.136891
0.132292
0.089234
0.028807
0.113371
0.060438
0.087542
0.161134
0.055699
0.028055
-0.022437
0.041335
0.088595
0.049788
0.030518
0.080503
0.062811
-0.006898
0.080178
-0.017032
0.011442
0.057423
0.060634
0.057066
0.013537
0.091871
0.009841
0.067889
0.020873
0.067972
0.041630
-0.019742
0.040604
0.012567
0.070128
0.007621
0.050018
0.059463
0.083680
0.064952
0.121470
0.058745
0.091221
0.129783
0.087717
0.089482
0.097806
0.163015
0.043407
0.132696
0.171125
0.168275
0.181118
0.052256
0.203552
0.130544
0.172876
0.202377
0.216868
0.220594
0.249150
0.204565
0.254060
0.273713
0.158249
0.190166
0.240400
0.243765
0.203615
0.194222
0.253305
0.208989
0.182453
0.113518
0.113853
0.027621
0.127345
0.157945
0.112943
0.062429
0.044682
0.134019
0.103581
0.096738
-0.073915
0.134799
0.075851
-0.010793
0.036873
0.058645
0.081884
0.167545
0.371402
0.625493
0.999738
1.235838
1.420289
1.439418
1.063546
0.725532
0.329451
0.059439
-0.123478
-0.186216
-0.081086
-0.090335
-0.048983
0.112669
0.044989
0.164782
0.015535
0.062369
0.110899
0.122701
0.114951
0.212000
0.193513
0.196897
0.329452
0.184117
0.210634
0.199341
0.266336
0.315684
0.356683
0.322377
0.325233
0.420402
0.380835
0.400865
0.504062
0.485808
0.520516
0.464396
0.437244
0.541746
0.463565
0.531450
0.586014
0.506458
0.514116
0.496046
0.575000
0.525712
0.480452
0.539533
0.504858
0.504156
0.393433
0.404767
0.432923
0.368480
0.317422
0.336429
0.269079
0.326276
0.254403
0.217535
0.168096
0.155819
0.097732
0.150042
0.114828
0.127567
0.050640
0.055277
0.137281
0.059643
0.005158
0.154582
0.011031
0.003122
0.110452
-0.015513
0.009420
0.014148
0.031519
0.006288
0.055308
-0.001549
-0.066307
-0.009209
0.019993
-0.008956
-0.007703
-0.015997
-0.029361
0.048820
-0.049964
-0.024852
0.020702
-0.009797
-0.027717
0.029170
-0.069236
-0.037298
-0.110652
0.008932
-0.005088
-0.017932
-0.075633
-0.093330
-0.043016
-0.099176
-0.050916
-0.073917
0.010505
-0.040326
0.011557
-0.036729
-0.003326
-0.048111
0.027138
-0.059575
-0.018288
0.006937
0.016681
-0.091372
-0.064085
0.040218
-0.002164
0.054527
0.089743
0.073499
0.039630
0.093723
0.025843
0.162503
0.046405
0.127242
0.087614
0.113045
0.180392
0.055317
0.123018
0.114731
0.057193
0.151564
0.147974
0.093269
0.120777
0.102967
0.098638
-0.004592
0.048799
0.088765
-0.103732
0.052139
0.084022
-0.073840
-0.049017
0.022113
0.007125
-0.035711
-0.033473
-0.058804
-0.039592
-0.016447
-0.013031
-0.055199
-0.003958
-0.100667
-0.161176
0.039680
0.210972
0.373702
0.751877
1.109215
1.268074
1.271921
1.059717
0.738902
0.378849
0.147314
-0.108163
-0.167292
-0.236641
-0.202340
-0.040479
0.011182
-0.038101
-0.011849
0.112365
-0.041027
0.034104
0.037157
0.059332
0.076817
0.179616
0.084206
0.082518
0.198228
0.191737
0.210068
0.289215
0.132107
0.286014
0.239532
0.264696
0.246270
0.379829
0.374266
0.267059
0.415258
0.383690
0.399829
0.347493
0.464396
0.432656
0.406896
0.519007
0.438264
0.460433
0.426446
0.364294
0.468012
0.406856
0.384277
0.379012
0.338431
0.346428
0.313490
0.385339
0.359042
0.231408
0.237929
0.224504
0.139624
0.144987
0.126308
0.107009
0.081871
0.162057
0.102367
0.107864
0.029097
0.037012
-0.041473
0.067159
0.073313
0.035005
-0.107745
-0.025922
0.012611
-0.105751
-0.080991
-0.051012
-0.060825
-0.077402
0.001626
-0.089495
-0.123108
-0.033064
-0.106274
-0.069138
-0.142273
-0.078310
-0.118947
-0.159218
-0.105800
-0.038707
-0.115533
-0.083694
-0.182066
-0.135597
-0.113634
-0.047501
-0.146216
-0.011079
-0.121946
-0.114169
-0.001409
-0.106156
-0.120782
-0.076411
-0.096458
-0.135940
-0.104155
-0.147016
-0.083672
-0.128663
-0.044381
-0.005857
-0.177121
-0.050937
-0.055001
-0.068264
-0.101108
-0.113539
-0.010592
-0.045314
-0.103083
-0.037720
-0.077304
-0.026480
-0.001402
-0.059091
0.093455
0.050283
0.047589
0.131659
-0.008477
0.074288
0.029776
0.041292
0.041589
0.132450
0.055936
0.040014
0.040931
-0.004490
0.056049
0.080166
0.048818
-0.001196
0.090012
-0.024598
0.086528
-0.066329
-0.034668
-0.065126
-0.031085
0.018532
-0.085728
-0.082207
-0.024322
-0.000329
-0.089895
-0.124451
-0.055869
-0.115445
-0.115839
-0.051722
-0.094404
-0.090002
-0.045024
0.136098
0.218011
0.592711
0.949237
1.160349
1.351219
1.251535
1.007167
0.484930
0.113763
-0.073332
-0.185405
-0.266479
-0.214209
-0.232083
-0.051664
-0.043347
-0.047265
-0.080770
0.035687
-0.017094
0.066004
0.033623
0.083865
-0.020748
0.106990
0.145971
0.155597
0.109541
0.171867
0.076423
0.205568
0.151481
0.188454
0.213615
0.279846
0.325136
0.350977
0.297036
0.384430
0.332236
0.409451
0.378442
0.410289
0.467948
0.517691
0.514666
0.451732
0.486113
0.367172
0.479245
0.406959
0.457621
0.454645
0.370707
0.405192
0.443343
0.381661
0.357278
0.288746
0.330418
0.282171
0.243697
0.291114
0.201350
0.248856
0.215203
0.152389
0.210299
0.157560
0.198377
0.065651
0.084779
0.071740
0.057261
0.048447
-0.064325
-0.000805
-0.010458
-0.059468
-0.089072
0.040674
-0.044654
-0.127009
-0.037357
-0.019323
-0.096217
-0.046958
0.014629
-0.032380
-0.092514
-0.034903
-0.041730
-0.075923
-0.038976
0.010262
-0.074739
-0.110693
-0.048195
-0.037219
-0.000281
0.012918
0.027205
0.013465
-0.069496
-0.077677
-0.069882
-0.026835
-0.116467
-0.075637
0.034404
-0.036568
-0.036487
-0.011766
-0.007250
0.034544
-0.029902
-0.027095
-0.049007
0.066325
0.013953
-0.084183
-0.016884
-0.057006
0.022137
0.017088
0.080721
0.068864
-0.020912
0.077485
0.014837
0.056222
0.113923
0.167866
0.245101
0.164368
0.159691
0.198164
0.191100
0.137017
0.149633
0.144821
0.222523
0.202699
0.098818
0.153784
0.124937
0.146058
0.108483
0.088375
0.171333
0.121486
0.078056
0.126843
0.052423
0.050437
0.011577
0.037188
0.068156
0.020706
0.081380
0.024978
0.028773
-0.079127
0.034461
0.035904
-0.031380
-0.057064
0.086470
0.027368
-0.076115
0.111632
0.198961
0.401576
0.601432
0.865244
1.115767
1.386693
1.385319
1.211139
0.774886
0.386467
0.213207
-0.101558
-0.097163
-0.176022
-0.036695
-0.045295
0.052298
0.117276
0.100210
0.068648
0.174540
0.086041
0.124325
0.225953
0.107053
0.156494
0.238723
0.206772
0.303665
0.247135
0.219135
0.275109
0.256436
0.369292
0.428685
0.445289
0.400702
0.470869
0.395694
0.432859
0.559413
0.506715
0.517432
0.499034
0.494639
0.525102
0.562841
0.514088
0.488925
0.580208
0.545365
0.579335
0.575239
0.571461
0.410482
0.517322
0.381798
0.465149
0.459503
0.443950
0.416505
0.476074
0.441637
0.358495
0.393005
0.284435
0.310271
0.284442
0.284298
0.272665
0.238380
0.201917
0.257682
0.169390
0.134509
0.115660
0.133041
0.196462
0.129733
0.180223
0.021092
0.139670
0.116538
0.216776
0.053670
0.155582
0.013422
0.132908
0.028442
0.071982
0.148520
0.014709
0.042295
0.071657
0.125996
0.088441
-0.015333
0.029434
0.060844
0.088397
0.050236
0.152662
0.047729
0.119471
0.097909
0.068626
0.127355
0.089663
0.103170
0.028263
0.074984
0.080668
0.068083
0.111413
0.056760
0.053852
0.056658
0.103393
0.038156
0.032343
0.024513
0.000179
0.132555
0.055192
0.137479
0.071003
0.069987
0.065400
0.099184
0.119755
0.061103
0.179237
0.130109
0.183391
0.194052
0.247136
0.203428
0.263671
0.288517
0.324710
0.259005
0.298325
0.225071
0.312778
0.227781
0.278470
0.256524
0.277587
0.226511
0.370742
0.263973
0.302264
0.278130
0.198225
0.141475
0.187767
0.186751
0.088139
0.082039
0.085992
0.021626
0.110168
0.134919
0.072640
0.001702
0.165216
0.069881
0.053639
0.047921
0.007867
-0.012275
0.193999
0.200506
0.344900
0.524763
0.784387
1.165430
1.358989
1.479227
1.317449
1.003332
0.614093
0.273422
0.038867
-0.066566
-0.047889
-0.060798
0.098362
0.018886
0.100591
0.177113
0.183597
0.163626
0.161613
0.214141
