-0.062117
0.041207
-0.079298
-0.005998
-0.018982
0.036102
-0.050569
0.054125
0.023010
0.075085
-0.036984
-0.018327
-0.067992
0.025924
0.110719
0.029801
0.004082
0.124391
0.069732
0.006980
0.083461
0.104369
0.120142
0.055169
0.100699
0.100656
0.132546
0.210353
0.222658
0.189290
0.102878
0.303962
0.177980
0.247833
0.215867
0.264708
0.209076
0.222655
0.150422
0.185755
0.205864
0.288784
0.203306
0.243086
0.223538
0.143508
0.193843
0.207450
0.099880
0.105402
0.057120
0.022232
0.083269
0.045636
0.071680
0.067868
0.127642
0.098143
0.006716
0.026415
-0.029795
0.056104
0.064187
0.015799
0.087855
-0.050891
0.043185
0.158595
0.393847
0.640117
0.991320
1.258594
1.410882
1.434296
1.213726
0.922810
0.513287
0.119220
0.011708
-0.116681
-0.191361
-0.029906
0.000468
0.058730
0.157620
0.060315
0.132011
0.157316
0.134184
0.097558
0.146016
0.256798
0.126854
0.186619
0.246729
0.247345
0.223147
0.285506
0.252718
0.329288
0.381880
0.328855
0.394817
0.442348
0.410183
0.463221
0.482006
0.554126
0.409819
0.438146
0.518156
0.589387
0.634819
0.564162
0.572886
0.617984
0.621806
0.562899
0.597131
0.610725
0.580832
0.594792
0.614786
0.568978
0.663639
0.463956
0.488014
0.479257
0.554241
0.440812
0.408027
0.371836
0.435275
0.407796
0.324986
0.381488
0.294333
0.333538
0.335324
0.237394
0.275649
0.161190
0.142174
0.195084
0.187432
0.193739
0.231561
0.149166
0.190608
0.118013
0.072043
0.155636
0.190359
0.096241
0.126192
0.131085
0.112783
0.128857
0.102564
0.085164
0.165524
0.082712
0.089488
0.154338
0.066300
0.146269
0.196428
0.085289
0.016008
0.083486
0.004291
0.009510
0.075738
0.015777
0.196646
0.083955
0.140449
0.078114
0.060796
-0.010509
0.046026
0.064352
0.110735
0.051570
0.038375
0.170012
0.165425
0.098099
0.102610
0.068667
0.105745
0.036874
0.101865
0.124102
0.104613
0.076708
0.214220
0.137914
0.148763
0.098818
0.075837
0.107863
0.121122
0.151075
0.208685
0.122260
0.192296
0.147855
0.221303
0.190864
0.169611
0.299722
0.255494
0.214387
0.261194
0.235573
0.254974
0.235724
0.230372
0.239942
0.288256
0.230267
0.224356
0.183947
0.249920
0.217637
0.191249
0.204356
0.160707
0.211290
0.217031
0.225336
0.191112
0.230964
0.038413
0.148327
0.112543
0.107142
0.128498
0.075281
0.139068
0.130014
0.117778
0.135222
0.131128
0.088098
0.115570
0.122184
0.286559
0.498506
0.726367
1.060236
1.491139
1.447102
1.356051
1.156948
0.643883
0.383864
0.139940
-0.063386
-0.085669
-0.085916
0.038394
0.025395
0.083464
0.189581
0.172994
0.124556
0.141717
0.183223
0.145456
0.280915
0.186367
0.298347
0.278960
0.199528
0.304908
0.273679
0.189542
0.286309
0.351860
0.282263
0.424074
0.419496
0.365733
0.469473
0.447014
0.427665
0.478371
0.473320
0.582986
0.539058
0.589743
0.557306
0.554345
0.587179
0.521028
0.617617
0.574590
0.609363
0.576746
0.608528
0.663305
0.547122
0.564411
0.534941
0.536042
0.494439
0.468140
0.542056
0.440058
0.509899
0.349980
0.389960
0.459446
0.312123
0.297631
0.296277
0.265586
0.230169
0.299030
0.192099
0.169905
0.243024
0.137830
0.143605
0.192676
0.084129
0.041232
0.129800
0.161919
0.129819
0.017093
0.017862
0.062712
0.004481
0.011854
0.095528
0.100233
0.075029
-0.005817
0.071433
0.019650
-0.005543
0.060259
-0.033936
0.075046
0.103155
0.118414
-0.006563
0.080680
-0.006959
0.061858
0.020692
-0.022801
-0.014632
0.075260
0.096424
0.069653
-0.024535
0.085901
0.074673
-0.069971
0.002337
0.047451
0.056764
-0.057962
0.058455
-0.020880
-0.005723
-0.034726
-0.018197
0.055310
0.055724
0.084991
-0.035756
0.007866
0.031257
-0.028639
0.076498
0.122475
-0.036347
0.132624
0.069367
0.020564
0.104530
0.077418
0.126231
0.145732
0.138000
0.115955
0.048118
0.191170
0.159684
0.130931
0.240675
0.056763
0.179282
0.163201
0.131045
0.190035
0.207083
0.220676
0.163705
0.201490
0.098884
0.199166
0.145803
0.207464
0.104090
0.097733
0.190553
0.059724
0.057049
0.116959
0.034817
0.090893
0.049472
0.091853
0.005573
0.038455
0.011238
-0.070667
-0.021091
0.048678
-0.010475
-0.028992
0.027360
0.148226
0.188647
0.483786
0.749329
1.115081
1.344445
1.324134
1.288105
0.950485
0.630354
0.231996
-0.031529
-0.210218
-0.232543
-0.214294
-0.018571
-0.035257
0.061284
-0.012021
0.016343
-0.033095
0.090993
0.161600
0.156133
-0.003470
0.181543
0.110579
0.154473
0.121289
0.204020
0.183408
0.165440
0.217576
0.217062
0.289195
0.305086
0.362635
0.338929
0.339942
0.295273
0.457668
0.369313
0.380486
0.463814
0.489819
0.463752
0.429759
0.532185
0.424589
0.494203
0.476774
0.502513
0.489158
0.525121
0.517808
0.465465
0.496401
0.480569
0.503832
0.334652
0.464076
0.448272
0.365911
0.265080
0.290163
0.275049
0.207579
0.264090
0.309439
0.199449
0.085372
0.186986
0.194326
0.112870
0.155401
0.104337
0.077979
-0.006715
0.116634
0.075851
0.023171
-0.042841
-0.020168
0.047592
0.081937
-0.049410
0.011340
-0.022574
0.049843
-0.011883
-0.034897
0.027947
0.002718
0.053082
-0.052144
-0.042963
-0.120465
-0.028023
-0.054720
-0.030099
-0.094255
-0.068107
-0.095999
0.013123
-0.004811
-0.053264
-0.014088
-0.061110
-0.118842
-0.073033
-0.081274
0.010331
-0.096875
-0.135702
-0.059362
-0.072894
-0.071211
-0.001440
-0.030844
-0.076368
-0.030640
-0.113575
-0.024727
-0.022744
-0.058042
-0.049453
-0.017004
0.032934
0.036977
-0.006922
-0.034827
0.002415
0.075973
0.040971
0.029632
-0.055233
0.078571
0.055335
-0.011947
0.030035
0.063644
0.148561
0.041512
0.146833
0.105805
0.115644
0.073861
0.132227
0.144863
0.126584
0.159487
0.124665
0.133317
0.097120
0.196925
0.152629
0.087877
0.112556
0.122044
0.140949
0.052796
0.047458
0.066197
0.103196
0.016529
0.027141
0.032083
0.007044
0.026578
-0.036350
0.042155
-0.061470
0.037661
-0.006457
0.015262
-0.041874
-0.089005
-0.053903
-0.092351
-0.054572
0.019853
0.043545
0.201035
0.428011
0.907272
1.208687
1.292748
1.398461
1.169182
0.861504
0.365139
0.128001
-0.178219
-0.305651
-0.200378
-0.182507
-0.129412
-0.089552
0.023282
-0.010014
-0.018861
0.004183
0.002213
0.074391
-0.033254
0.055811
0.102883
0.017186
0.057941
0.122858
0.280945
0.218288
0.258457
0.205611
0.201204
0.196180
0.307910
0.233686
0.269737
0.286980
0.336477
0.330702
0.499842
0.451251
0.444038
0.475960
0.604887
0.470473
0.463053
0.447571
0.447545
0.481815
0.582180
0.568957
0.480855
0.477852
0.525812
0.389164
0.346214
0.473016
0.390650
0.383421
0.447153
0.436008
0.409457
0.377101
0.325566
0.307792
0.198903
0.346356
0.219981
0.176158
0.132237
0.256901
0.246206
0.120232
0.160413
0.127628
0.088079
0.085777
0.003990
-0.030667
0.062879
0.075330
0.042282
0.078786
-0.040487
-0.029265
0.006243
0.003328
0.037267
0.018188
-0.036576
0.044394
0.029861
-0.090527
-0.022622
0.087928
0.005068
0.046151
-0.038701
0.005409
0.060981
-0.007787
0.060025
0.022622
0.062845
0.071017
-0.070654
-0.002003
0.000921
-0.051626
-0.019746
-0.010745
-0.052096
0.008133
0.004513
0.050150
0.030989
0.010926
0.009801
0.015455
0.103598
-0.004694
0.041549
0.033709
-0.001366
0.065602
0.057075
0.049245
0.055441
0.093500
0.083272
0.031377
0.021262
0.004554
0.083447
0.078646
0.090585
0.107185
0.086114
0.057570
0.116184
0.205667
0.135601
0.176968
0.108795
0.181813
0.092966
0.200329
0.197695
0.186110
0.182977
0.227814
0.177939
0.242322
0.254899
0.167650
0.174314
0.129765
0.180666
0.116474
0.174490
0.113457
0.114177
0.086950
0.039963
0.142575
0.148651
0.099334
0.017566
0.123938
0.024305
0.047192
0.080115
0.119051
-0.050560
0.070561
0.090568
0.012796
0.070314
0.185765
0.234460
0.430558
0.638251
1.057378
1.249936
1.472983
1.421800
1.125466
0.749744
0.398884
0.074498
0.004055
-0.168817
-0.141466
-0.061349
-0.009226
0.180970
0.082827
0.094074
0.100042
0.132372
0.146773
0.118725
0.119382
0.152618
0.193403
0.227769
0.229342
0.213469
0.266656
0.304952
0.242229
0.303852
0.310544
0.292898
0.404906
0.430529
0.427209
0.425583
0.440732
0.485339
0.421799
0.503179
0.585631
0.654275
0.459533
0.614104
0.583858
0.609382
0.636231
0.598824
0.591065
0.562456
0.656541
0.590561
0.629979
0.607543
0.555690
0.608060
0.534892
0.511527
0.447217
0.506619
0.482541
0.452385
0.473900
0.336247
0.307682
0.315614
0.330354
0.293586
0.269483
0.306889
0.293662
0.136541
0.158409
0.168066
0.216600
0.204511
0.167321
0.114501
0.098291
0.115762
0.132595
0.163602
0.003983
0.065388
0.157010
0.074093
0.189272
0.106337
0.036850
0.057230
0.134790
0.104146
0.049657
0.146179
0.167553
0.123732
0.128903
0.049142
0.133697
0.178215
0.076656
0.047950
0.183574
0.089759
0.106907
0.036332
0.219578
0.118752
0.024497
0.119202
0.058512
0.084142
0.112765
0.104159
0.142271
0.115888
0.116281
0.139241
0.136942
0.072491
0.082161
0.071521
0.105604
0.072708
0.093540
0.071062
0.108866
0.119781
0.182970
0.173923
0.123753
0.214087
0.190180
0.141169
0.196990
0.197603
0.207615
0.091719
0.192530
0.248584
0.298509
0.276257
0.347658
0.278752
0.329696
0.321878
0.327821
0.307973
0.249339
0.298302
0.278512
0.269555
0.176255
0.270282
0.193616
0.233166
0.186011
0.178910
0.205779
0.136241
0.191429
0.127678
0.172519
0.126062
0.170223
0.172124
0.089557
0.095706
0.036897
0.170853
0.054620
0.106289
0.006939
0.012680
0.098446
0.096353
0.117627
0.125681
0.271512
0.482711
0.828678
1.179635
1.321739
1.490584
1.365294
1.107685
0.629066
0.375332
0.134197
-0.035863
-0.121488
-0.084127
0.027393
0.010468
0.121810
0.050298
0.144977
0.199450
0.149460
0.151709
0.183519
0.238130
0.172367
0.229912
0.156950
0.307623
0.284095
0.415914
0.321500
0.330291
0.303835
0.423020
0.417327
0.452662
0.516993
0.370181
0.494256
0.510187
0.580796
0.492393
0.504217
0.549713
0.634698
0.670122
0.601105
0.562566
0.610731
0.622042
0.568506
0.617953
0.681905
0.578667
0.520451
0.561351
0.549193
0.603492
0.506733
0.562365
0.539210
0.474391
0.479213
0.437419
0.454094
0.369508
0.335966
0.386760
0.373509
0.321889
0.252743
0.254573
0.231507
0.200727
0.180873
0.204063
0.189466
0.178201
0.095287
0.163035
0.146081
0.056021
0.111422
0.035353
0.022447
0.043859
0.093922
0.042697
0.066192
0.067568
0.049069
0.020342
0.079531
0.065169
0.033545
0.054827
0.091870
0.033846
0.117252
0.077905
0.047169
0.047315
0.062753
0.076083
0.019987
0.011695
-0.039755
0.075908
0.033290
0.038044
-0.027505
-0.019822
0.100597
0.059564
-0.003722
0.032179
0.002775
0.032424
0.114561
-0.008868
0.033414
0.012817
0.117067
0.023767
-0.015535
0.127247
-0.000828
-0.025744
0.084484
0.010654
0.081301
0.128768
0.040821
0.049054
0.063995
0.020331
0.067103
0.105856
0.122232
0.104205
0.108245
0.167968
0.158577
0.192822
0.232357
0.172661
0.153830
0.198213
0.246219
0.171849
0.212044
0.238801
0.206513
0.189971
0.191650
0.165268
0.193458
0.201333
0.079845
0.171221
0.112831
0.165839
0.231516
0.080198
0.118717
-0.050628
0.051102
0.029255
0.051490
0.032222
0.025280
0.008049
0.117335
0.005669
0.033925
-0.039055
0.031365
0.020273
-0.009497
0.092788
0.095015
0.289580
0.469531
0.829186
1.122586
1.401682
1.378543
1.260880
0.979193
0.523560
0.195557
-0.031871
-0.186657
-0.095117
-0.235800
-0.018361
-0.062674
0.049743
0.046685
0.002917
0.053511
0.038175
0.051722
0.016649
0.035384
0.072042
0.083120
0.087003
0.158191
0.131664
0.161929
0.151737
0.277137
0.257445
0.254507
0.293102
0.272308
0.268072
0.404309
0.345813
0.407650
0.394283
0.475806
0.460064
0.401713
0.368825
0.425813
0.541107
0.493972
0.532728
0.410055
0.480904
0.500655
0.466738
0.546026
0.474007
0.416525
0.470364
0.445340
0.450986
0.396496
0.411200
0.393011
0.378529
0.264528
0.389152
0.333002
0.250700
0.233303
0.186878
0.197672
0.194450
0.108482
0.090869
0.136689
0.058564
0.083588
0.071197
0.011149
0.018070
0.003676
-0.053620
-0.053573
0.025535
-0.013180
0.017673
-0.001497
0.007691
0.032873
-0.106267
-0.030814
-0.027915
-0.098462
-0.073593
0.017369
-0.036588
-0.030581
-0.065505
-0.004478
-0.140477
-0.077982
-0.120583
-0.100595
-0.052108
-0.043678
-0.052721
-0.133286
-0.103840
-0.157047
0.005920
-0.072407
-0.063290
-0.050903
-0.137518
-0.095548
-0.052359
-0.077831
-0.044676
0.005968
-0.043893
-0.086656
-0.064369
-0.036230
-0.064481
-0.047682
-0.119389
-0.053576
-0.091952
0.016792
-0.094577
-0.107953
-0.033138
-0.077957
0.004473
-0.019291
0.083429
-0.027507
0.040973
0.016511
-0.010240
0.026996
0.130273
0.097342
0.109398
0.140494
0.071250
0.078685
-0.002960
0.158944
0.137952
0.135828
0.101948
0.096710
0.188134
0.022179
0.067054
0.131070
0.107245
-0.028817
0.035686
0.024569
0.022008
0.073258
-0.034882
-0.035918
0.046551
0.001427
-0.039372
-0.104077
-0.126597
-0.066522
-0.145368
-0.074505
-0.067976
-0.067260
0.017192
-0.012844
-0.074849
-0.065651
-0.039154
0.026654
0.020358
0.276359
0.531225
0.843336
1.098126
1.249568
1.297832
1.154453
0.700725
0.425062
0.018394
-0.146812
-0.271190
-0.244406
-0.178842
-0.101425
-0.043969
-0.069682
-0.099192
-0.087521
-0.044050
-0.102044
-0.005091
0.051138
0.023279
0.006880
0.011689
0.095464
0.198897
0.078857
0.101777
0.179257
0.186357
0.139104
0.278786
0.242960
0.269283
0.292772
0.351127
0.303932
0.327892
0.319497
0.419283
0.407734
0.403228
0.421620
0.446788
0.442076
0.503230
0.475953
0.467345
0.489774
0.409987
0.505600
0.444245
0.444260
0.441281
0.382122
0.319299
0.445858
0.413622
0.395530
0.364952
0.272920
0.272627
0.202970
0.188544
0.274810
0.231203
0.193325
0.125031
0.102336
0.171290
0.140899
0.110967
0.107670
0.025972
0.098815
0.048238
0.064262
-0.034291
0.006772
-0.162070
-0.014879
-0.017735
-0.067596
-0.044336
-0.111866
-0.061851
-0.061525
-0.080071
-0.065263
-0.020194
-0.082767
-0.074796
0.043813
-0.131017
-0.025770
-0.143338
-0.089915
-0.090704
-0.030626
-0.102880
-0.019457
-0.092748
-0.026368
-0.063192
-0.054593
-0.114034
-0.004031
-0.079981
0.025500
0.002924
-0.074608
-0.059936
-0.016908
-0.134513
-0.018715
-0.092489
-0.017798
-0.042388
-0.069433
-0.110195
-0.113688
-0.076024
0.003720
-0.041955
-0.046197
-0.024282
-0.036443
-0.052928
0.002958
-0.008537
0.023584
-0.037681
-0.021532
-0.025087
0.065213
0.044888
0.073701
0.070683
0.091757
0.041323
0.138071
0.163243
0.165073
0.141216
0.208457
0.110400
0.208145
0.165610
0.083249
0.142241
0.204991
0.127107
0.111244
0.147358
0.132915
0.075659
0.088761
-0.004624
0.036715
-0.027616
0.119725
0.021506
0.085028
-0.018415
-0.035408
0.031088
-0.036450
-0.080653
-0.025053
-0.028471
-0.067212
-0.016418
-0.004217
-0.012302
0.042691
0.019875
-0.055744
0.073581
0.111883
0.381690
0.630386
0.968156
1.282691
1.393998
1.329969
0.984347
0.770714
0.276776
0.000567
-0.117369
-0.237665
-0.233376
-0.073634
0.010573
0.030042
-0.025962
-0.006329
0.067385
0.116736
0.096827
0.120071
0.106096
0.166762
0.104619
0.159570
0.127018
0.147154
0.200169
0.210202
0.218664
0.289715
0.307554
0.365516
0.398745
0.330318
0.364594
0.326173
0.428454
0.532147
0.415510
0.489488
0.483418
0.464524
0.508253
0.494591
0.515510
0.503204
0.465319
0.490956
0.547669
0.509113
0.496091
0.551268
0.484360
0.463783
0.406902
0.498927
0.398155
0.440940
0.441231
0.424700
0.336281
0.346139
0.344142
0.322397
0.314619
0.286338
0.188511
0.251661
0.110649
0.246795
0.149728
0.284498
0.075923
0.093137
0.131050
0.068702
0.140179
0.076134
0.127310
0.088277
0.012019
0.095796
0.011819
-0.003486
-0.001238
0.098427
0.098934
-0.037267
0.049783
0.106764
0.079301
0.069897
0.040861
-0.056167
0.023661
0.031009
0.032210
0.043591
0.045411
-0.007761
0.058189
0.058839
0.113814
0.087993
0.132266
0.025146
0.012029
0.021639
0.079895
0.019203
0.019923
0.058149
0.103460
-0.021274
-0.032524
0.023344
0.075455
-0.037614
0.000359
0.098016
0.111622
0.087152
0.002757
0.071040
0.039126
0.083865
0.080314
0.025442
0.111574
0.120634
0.145753
0.110126
0.171247
0.097793
0.143255
0.053966
0.161069
0.137930
0.197197
0.201582
0.162420
0.180582
0.250694
0.237105
0.253512
0.262754
0.205081
0.208755
0.239682
0.150195
0.245739
0.148210
0.175513
0.148349
0.219765
0.218376
0.188130
0.169488
0.166119
0.200353
0.103597
0.065233
0.068242
0.066751
0.040202
0.003163
0.054708
0.068286
0.022269
0.110355
0.000808
0.109111
0.114959
0.054292
0.098538
0.068493
0.054661
0.153148
0.247286
0.396324
0.856816
1.130855
1.354543
1.413223
1.317277
1.023270
0.698277
0.282281
0.031376
-0.223509
-0.112718
-0.096481
-0.016049
-0.023017
0.039185
-0.049907
0.095197
0.064856
0.125186
0.118808
0.199486
0.221569
0.087719
0.191462
0.186100
0.166190
0.220595
0.399081
0.263794
0.174182
0.332537
0.351832
0.398664
0.331943
0.390190
0.392212
0.417623
0.361974
0.505275
0.493779
0.441883
0.517447
0.542962
0.541144
0.589202
0.492436
0.574511
0.592328
0.545735
0.617417
0.561259
0.589252
0.555231
0.475363
0.532334
0.534101
0.387356
0.529491
0.393388
0.437535
0.431300
0.366440
0.353334
0.416023
0.331214
0.297989
0.335036
0.301512
0.224282
0.317255
0.247065
0.216745
0.159698
0.157815
0.213207
0.176840
0.085958
0.169591
0.115017
-0.013292
0.098912
0.004572
0.211750
0.027919
0.031141
0.071058
0.034816
0.051545
0.076736
0.040913
0.080899
0.071174
-0.009604
0.014013
-0.060101
0.054257
0.091378
-0.006730
0.054704
-0.020766
-0.087611
0.048126
-0.048690
-0.011035
0.055535
0.030367
0.016660
0.034163
0.038539
0.117224
0.024010
0.058336
0.066162
-0.024354
0.007615
0.013360
0.050911
0.104582
-0.011089
-0.035639
-0.013876
0.044103
0.032125
-0.050347
0.091688
-0.006467
-0.010328
0.042973
-0.019248
0.101841
0.088105
0.030553
0.016028
0.063023
0.078535
0.042170
0.189527
0.171140
0.136156
0.188747
0.130949
0.204785
0.209926
0.209974
0.204792
0.090565
0.180606
0.216609
0.161418
0.211941
0.220867
0.192553
0.154169
0.071079
0.068728
0.081866
0.108004
0.128729
0.096572
0.059790
-0.036865
0.082936
0.074414
-0.006115
0.094760
0.104748
-0.012218
-0.088824
0.063364
0.004974
-0.066398
-0.005542
-0.063307
-0.110702
0.051971
0.013890
-0.012718
0.035365
0.115579
0.223451
0.473439
0.874525
1.130836
1.251182
1.446695
1.245870
0.799523
0.545321
0.204961
-0.064823
-0.090908
-0.345652
-0.191726
-0.052628
-0.048993
0.071674
-0.038483
-0.027019
-0.003872
0.062131
0.082181
0.037800
0.077055
0.073993
0.074936
0.084199
0.150630
0.153594
0.215449
0.230806
0.223866
0.130439
0.239646
0.275535
0.276139
0.286532
0.307058
0.315109
0.370892
0.412031
0.392467
0.387282
0.398480
0.468322
0.465449
0.515004
0.494604
0.447620
0.528762
0.500088
0.486980
0.433319
0.388675
0.442914
0.528396
0.436217
0.437810
0.467532
0.316847
0.395296
0.341773
0.301363
0.345204
0.189092
0.239465
0.194688
0.225530
0.230810
0.174215
0.115132
0.153909
0.086632
0.049613
0.075154
-0.007634
0.028362
-0.036065
0.068094
0.046342
0.039774
-0.058152
0.014654
-0.030006
-0.021262
-0.073825
-0.121432
-0.102152
-0.078260
-0.011747
-0.054506
-0.078223
-0.102195
-0.084583
-0.092775
-0.070598
-0.034955
-0.033656
-0.128389
-0.090274
-0.046655
-0.053351
-0.093915
-0.141096
-0.108206
-0.065666
-0.085427
-0.186807
-0.120527
-0.105241
-0.058771
-0.100659
-0.174655
-0.030432
-0.105499
-0.094446
-0.043312
-0.082493
-0.099594
-0.105679
-0.128840
-0.024840
-0.060545
-0.059557
-0.033837
-0.088964
-0.080496
-0.071316
0.013690
-0.024125
-0.041143
-0.119212
-0.088915
-0.011261
0.010481
0.045121
-0.145327
-0.023441
-0.006795
-0.002802
-0.049462
0.071041
0.076045
-0.001516
0.067670
0.054468
0.016734
0.064951
0.062021
0.087543
0.088797
0.093683
0.105381
0.025229
0.068862
0.093300
-0.017839
-0.057086
0.017910
0.000983
0.033574
0.023107
-0.028318
-0.031055
-0.003857
-0.001831
-0.071773
-0.023888
-0.085037
-0.072197
-0.008821
-0.103881
-0.139167
-0.069434
-0.157256
-0.037304
-0.141193
-0.079706
-0.136387
-0.052307
-0.032258
0.154653
0.527533
0.891260
1.131725
1.266724
1.287657
0.945647
0.674484
0.305579
-0.067325
-0.223083
-0.257588
-0.303784
-0.238267
-0.181157
0.036294
-0.144275
-0.050712
-0.060575
-0.059967
-0.046949
-0.052855
-0.066917
-0.015003
0.033971
0.059358
0.042860
0.035138
0.060337
0.125427
0.103566
0.180135
0.130118
0.158501
0.197286
0.206532
0.256537
0.359528
0.269247
0.324102
0.313416
0.318035
0.399348
0.303768
0.391379
0.371417
0.465984
0.402387
0.459559
0.358526
0.387307
0.378642
0.400743
0.432401
0.426578
0.495387
0.340543
0.363800
0.411927
0.425862
0.278686
0.256579
0.202252
0.192574
0.232200
0.146619
0.192605
0.183881
0.232645
0.160257
0.036908
0.090782
0.127539
-0.000108
0.085222
-0.019383
0.000625
0.011854
-0.005961
-0.090868
-0.036573
-0.040351
0.062334
-0.011962
-0.018144
-0.045357
-0.013167
-0.107167
-0.073769
-0.064582
-0.064802
-0.060167
-0.054983
-0.060508
-0.096867
-0.083982
-0.044481
-0.006753
-0.124060
-0.167788
-0.054673
-0.047571
-0.111278
-0.109061
-0.097531
-0.127985
-0.091071
-0.108370
-0.111298
-0.115713
-0.131288
-0.048033
-0.147306
-0.120153
-0.071138
-0.034526
-0.106904
-0.028956
-0.098162
-0.077876
-0.064861
0.000845
-0.023529
-0.054252
-0.050366
-0.069551
-0.109142
0.057547
-0.050709
-0.045379
-0.028475
-0.058805
-0.022217
-0.016295
0.018421
-0.051099
-0.015664
0.019432
0.086280
0.069177
-0.003032
0.116968
0.087831
0.114971
0.081023
0.110581
0.103088
0.132803
0.140843
0.082344
0.142467
0.164824
0.075082
0.136611
0.130871
0.143469
0.146663
0.028405
0.099497
0.078015
0.072231
0.048340
0.076518
-0.012031
-0.061276
0.020798
-0.027686
-0.039688
0.012390
-0.015841
0.020585
0.002372
0.004427
-0.010848
-0.037216
-0.019703
-0.140340
-0.033589
-0.008272
0.096506
0.117686
0.229730
0.738450
1.004092
1.312892
1.386776
1.383537
1.003398
0.517974
0.285852
-0.010893
-0.139898
-0.259658
-0.232985
-0.171850
-0.034159
-0.081096
-0.006247
-0.001776
-0.027724
0.034515
0.039669
0.090736
0.099182
0.125745
0.073368
0.191710
0.057186
0.122247
0.219601
0.210056
0.203089
0.249814
0.318926
0.334543
0.354753
0.284668
0.311224
0.262616
0.376171
0.439774
0.444833
0.460612
0.434345
0.425234
0.547622
0.591679
0.502468
0.463974
0.505506
0.427924
0.504623
0.604491
0.550858
0.586531
0.438029
0.532561
0.519702
0.526356
0.513905
0.405140
0.352215
0.423806
0.403363
0.238608
0.379021
0.278867
0.272535
0.241090
0.309423
0.204943
0.107779
0.186094
0.126693
0.155492
0.137661
0.128468
0.163676
0.019537
0.150446
0.131205
0.099913
0.127847
0.097707
0.039004
0.070052
0.116594
0.059646
0.106278
0.075461
0.055924
-0.041498
0.025128
0.053008
0.038371
-0.113412
0.033234
0.018866
-0.017190
0.097845
0.039083
0.014442
0.074021
0.015274
0.084812
0.004476
0.077568
0.092649
0.019003
0.063773
0.095051
0.057910
-0.008790
0.110301
0.013912
0.046052
0.038177
0.022932
0.026683
0.022718
0.024209
-0.019240
0.092806
0.038208
0.132425
0.044637
0.075930
0.101816
0.112241
-0.049650
0.029876
0.135091
0.041782
0.112244
0.075700
0.048250
0.125103
0.131026
0.080988
0.181692
0.169126
0.149415
0.228965
0.136072
0.139352
0.211539
0.247887
0.275494
0.216433
0.181147
0.230675
0.241914
0.198083
0.244278
0.158083
0.157638
0.221327
0.121124
0.178822
0.203280
0.151428
0.123709
0.161213
0.215220
0.126511
0.105742
0.078180
0.168533
0.141906
0.129969
0.051674
0.093623
0.032334
0.033360
0.065622
0.093432
0.120718
0.093568
0.083735
0.002851
0.139080
0.307049
0.539413
0.793697
1.152894
1.486097
1.500000
1.282757
1.063599
0.676315
0.285917
0.032014
-0.082735
-0.103339
-0.057194
-0.060503
0.013299
-0.002319
0.106998
0.121082
0.127924
0.132359
0.218175
0.172204
0.212476
0.203790
0.166685
0.238464
0.260370
0.209721
0.255163
0.346317
0.322959
0.295930
0.379414
0.385148
0.439309
0.413819
0.377814
0.539907
0.491245
0.487580
0.594276
0.561644
0.598242
0.600610
0.599547
0.583952
0.593199
0.646851
0.619216
0.585690
0.672356
0.506360
0.539316
0.604063
0.553820
0.470804
0.533885
0.525756
0.590317
0.535597
0.484450
0.430095
0.416507
0.424944
0.384631
0.308325
0.328365
0.345680
0.357180
0.357968
0.255313
0.288068
0.225225
0.280858
0.169872
0.186524
0.234101
0.167487
0.109570
0.086375
0.118052
0.101655
