-0.051769
-0.130023
-0.060756
-0.031689
0.064068
0.012449
0.014672
-0.020724
0.018303
0.020468
0.062224
-0.025412
0.010784
0.068257
0.014668
0.027063
0.036162
0.032062
0.017003
-0.011506
0.060897
0.042986
0.023829
-0.002942
0.051188
0.096573
0.015000
0.099099
0.086144
0.116253
0.060011
0.149809
0.113928
0.163128
0.126237
0.116638
0.145176
0.194828
0.095989
0.177526
0.250990
0.239795
0.144204
0.104931
0.258940
0.121029
0.215820
0.228816
0.201855
0.145586
0.224957
0.128854
0.089455
0.198913
0.094337
0.225199
0.057276
0.044898
0.106223
0.134288
0.133625
0.122595
0.057208
0.070631
0.139910
0.108670
0.072162
0.030234
0.077269
0.025539
0.086816
0.039984
0.062863
0.058608
0.036391
-0.046198
0.067460
0.011895
0.011410
0.039130
-0.042674
0.013217
-0.038290
0.127642
0.371908
0.594085
0.929419
1.263388
1.398229
1.314983
1.154916
0.843550
0.468068
0.236801
-0.093692
-0.154668
-0.207526
-0.101731
-0.186819
-0.026092
-0.025892
0.073068
0.038646
0.071481
0.017899
0.060867
0.140063
0.174655
0.146513
0.114460
0.079989
0.113208
0.091156
0.153049
0.116717
0.118878
0.156095
0.220203
0.196756
0.220181
0.180243
0.241964
0.260144
0.233755
0.329091
0.327631
0.322306
0.381231
0.402274
0.375027
0.465386
0.388505
0.453760
0.437329
0.469921
0.483558
0.493433
0.511592
0.546926
0.561701
0.583454
0.526706
0.610666
0.543708
0.552427
0.487420
0.551690
0.505699
0.629887
0.522863
0.504800
0.503211
0.624709
0.531122
0.421785
0.421135
0.433910
0.363375
0.413259
0.363163
0.436315
0.342258
0.227565
0.334619
0.289907
0.150211
0.262703
0.246323
0.232163
0.272407
0.253795
0.226025
0.214924
0.079730
0.122870
0.146941
0.120076
0.140093
0.160762
0.104124
0.053538
0.132115
0.060457
0.046022
0.092103
0.112398
0.001701
0.139168
0.069137
0.099337
0.143559
0.104058
0.082854
0.115798
0.052961
0.045034
0.059973
0.086467
0.061916
0.101894
0.097925
0.014660
0.012849
0.053225
0.025946
0.162600
0.058528
0.161395
0.037759
0.025817
0.049635
0.128802
0.087394
0.137169
0.082259
0.047057
0.112670
0.080813
0.165698
0.124416
0.039408
0.060351
0.076486
0.051102
0.078748
0.038291
-0.000507
0.105159
0.030520
0.035690
0.111387
0.089120
0.122632
-0.047764
0.119156
0.051357
0.029331
0.118046
0.040265
0.145173
0.058167
0.119974
0.123504
0.058795
0.097588
0.140421
0.154323
0.164793
0.119738
0.146054
0.154239
0.125782
0.139196
0.195962
0.149101
0.163889
0.105710
0.191382
0.219116
0.272870
0.196068
0.169691
0.247690
0.222777
0.235597
0.177559
0.213829
0.293517
0.208726
0.264427
0.227730
0.296632
0.212740
0.261410
0.150888
0.129388
0.167188
0.187187
0.172063
0.075846
0.054256
0.174388
0.063269
0.044694
0.155140
0.095508
0.073743
0.033233
0.142222
0.001614
-0.001213
0.096548
0.066060
0.070579
0.026660
0.036589
0.086572
-0.007755
0.044476
0.028572
0.073565
0.023070
0.079306
0.129392
0.199700
0.522805
0.764616
1.139388
1.370190
1.363899
1.309050
1.033795
0.722324
0.379765
0.047936
-0.126114
-0.234955
-0.175541
-0.106158
-0.070940
-0.005249
0.028765
0.059342
0.078139
0.123262
0.067955
0.079578
0.014978
0.131072
0.076112
0.010323
0.143457
0.170344
0.108211
0.030155
0.113774
0.073241
0.130573
0.219399
0.230858
0.148415
0.235693
0.245816
0.234789
0.353655
0.253244
0.309709
0.243342
0.344217
0.348310
0.368990
0.368052
0.503308
0.323028
0.418302
0.559760
0.480060
0.485397
0.503704
0.595810
0.527135
0.547623
0.515374
0.481027
0.556704
0.586065
0.530240
0.543181
0.493721
0.430439
0.470543
0.389113
0.539493
0.383640
0.419473
0.382647
0.325757
0.351080
0.455296
0.314373
0.295385
0.255881
0.250946
0.218487
0.155903
0.200885
0.205033
0.150447
0.120435
0.103552
0.117464
0.153874
0.088940
0.091635
0.004224
0.091472
0.022661
0.017758
0.012479
-0.018943
0.091991
-0.021375
-0.009564
0.046548
-0.023992
0.000326
0.027279
0.003419
0.054024
-0.005459
-0.041177
-0.010268
0.045054
-0.016270
-0.006738
-0.063635
-0.011209
-0.014298
0.047144
0.022009
-0.033330
-0.056245
0.021421
-0.079826
0.042811
-0.049043
-0.007496
0.088485
0.034208
-0.047901
-0.036820
0.047212
-0.019993
0.078642
0.001875
-0.011693
0.065355
0.009293
-0.013502
-0.051923
-0.055324
-0.053967
0.034510
-0.045795
0.068311
-0.086201
-0.090623
0.038645
0.063578
0.036478
0.007142
0.021357
-0.006871
-0.112865
0.017755
-0.106030
-0.004938
-0.025868
-0.087837
0.068662
-0.027054
-0.024289
0.009004
0.037513
0.036679
0.004533
0.090325
-0.036793
0.004128
0.031703
0.071238
0.006240
0.065231
0.021534
0.075513
0.081732
0.088724
0.151976
0.072444
0.105706
0.163440
0.109141
0.109085
0.128998
0.086152
0.159930
0.133211
0.146558
0.155037
0.141744
0.199967
0.141279
0.104041
0.131452
0.035511
0.108043
0.050525
0.068045
0.004408
0.013513
0.027178
-0.024537
-0.004121
0.078702
0.042841
-0.042098
0.020977
0.010790
-0.079296
0.013340
-0.020893
-0.061026
-0.036938
-0.055116
0.011822
-0.110893
-0.042252
-0.010007
-0.038539
-0.029315
-0.046668
-0.086608
-0.030331
-0.054995
0.050411
0.233764
0.556622
0.863690
1.155056
1.237155
1.279058
1.090005
0.834040
0.438452
0.204227
-0.027196
-0.234108
-0.255619
-0.311660
-0.243194
-0.191609
-0.105657
-0.039962
-0.016813
-0.018996
-0.025707
-0.055160
0.041499
-0.053042
-0.043616
-0.023059
-0.001473
0.019061
0.019081
0.013280
0.000918
0.036358
0.014705
0.106548
0.000278
0.155558
0.129212
0.074791
0.102721
0.167449
0.179223
0.105230
0.198731
0.194527
0.237200
0.292631
0.341016
0.250106
0.359870
0.309019
0.410166
0.377159
0.367656
0.435425
0.475475
0.474150
0.398810
0.435179
0.461019
0.374290
0.510766
0.452773
0.492002
0.395892
0.390121
0.411218
0.363403
0.499251
0.394854
0.284629
0.343954
0.309982
0.313523
0.278392
0.272484
0.223660
0.153797
0.258324
0.193274
0.211425
0.168049
0.156774
0.100559
0.062885
0.103963
0.043550
0.071081
0.049451
0.066290
0.066339
0.056245
0.011134
-0.030950
0.016326
0.030606
-0.022746
-0.003333
-0.118310
0.005596
-0.004627
-0.084317
-0.004700
-0.058198
-0.016882
-0.046749
-0.011551
-0.005359
-0.027394
-0.054478
-0.001430
-0.015365
-0.000424
-0.024673
-0.089514
-0.047894
-0.021319
-0.007653
0.008798
-0.077331
-0.029550
-0.048964
-0.093096
-0.023806
-0.049834
-0.019521
0.004463
-0.018949
-0.043231
0.053660
0.020776
-0.038002
-0.097800
-0.018555
-0.085283
0.000884
-0.003531
-0.004098
-0.046661
0.077843
-0.063635
-0.004648
0.058655
-0.037485
-0.056664
-0.028147
-0.016771
-0.024412
-0.034838
0.023160
-0.048544
-0.081809
-0.012438
-0.026235
-0.057846
0.046965
-0.067533
-0.025596
-0.034211
-0.043179
0.068151
0.064648
-0.015587
0.053224
0.042431
0.026687
0.032530
0.033396
0.070671
-0.032440
0.138851
0.072472
0.008938
0.028493
0.116569
0.124869
0.128173
0.071257
0.116119
0.143998
0.173222
0.174825
0.134205
0.074141
0.231650
0.144722
0.112058
0.138641
0.113776
0.141929
0.085919
0.146469
0.106299
0.176900
0.061660
0.056309
0.159463
0.075533
0.087395
0.046830
0.041189
0.014530
0.027799
0.050859
0.032193
0.077268
-0.007034
0.069414
0.011379
-0.062882
-0.087421
0.047225
-0.004096
-0.026339
-0.036838
-0.026718
-0.053959
0.091602
-0.014178
-0.060079
0.109355
0.163193
0.418822
0.675989
0.998381
1.302771
1.280111
1.288142
1.047369
0.744610
0.376740
0.202496
-0.194327
-0.266214
-0.318235
-0.209104
-0.064962
-0.081430
0.007870
0.019514
0.066697
0.094845
0.035237
0.036795
0.051510
0.097518
0.026294
0.009731
0.153751
0.099452
0.099341
0.058854
0.083069
0.136236
0.079089
0.168510
0.163252
0.171415
0.225687
0.243323
0.245782
0.255702
0.235887
0.235733
0.349845
0.312005
0.331741
0.367341
0.412228
0.383631
0.414803
0.435583
0.419650
0.486139
0.531008
0.550045
0.510991
0.494154
0.461219
0.547779
0.575163
0.613821
0.489677
0.478049
0.485172
0.559656
0.521232
0.546645
0.451136
0.466805
0.415500
0.491256
0.534341
0.365975
0.459808
0.350437
0.351657
0.351876
0.334754
0.279078
0.315124
0.362198
0.281924
0.244083
0.239748
0.282252
0.204767
0.255026
0.176574
0.128029
0.161999
0.136907
0.077156
0.052190
0.160385
0.150156
0.083370
0.169939
0.084171
0.031713
0.101868
0.192701
0.096177
0.047666
0.104278
0.131618
0.070368
0.043873
0.071581
0.055353
0.099260
0.035538
0.051878
0.086869
0.046172
0.110779
0.042471
0.058331
0.096525
0.020248
0.038615
-0.016890
0.121397
0.061627
0.081749
0.061860
0.032944
0.006039
0.082062
0.117472
0.059404
0.081904
0.004040
0.132695
0.071780
0.093297
0.087308
0.064108
0.094670
0.069286
0.124076
0.050043
0.054004
0.068419
0.058302
0.103290
0.108043
0.031747
0.062854
0.076610
0.039608
0.063638
-0.001932
0.123597
0.081461
0.079961
0.173986
0.047063
0.118549
0.125683
0.117025
0.172704
0.129458
0.133473
0.113390
0.123729
0.174109
0.115660
0.171378
0.159200
0.236800
0.152483
0.222522
0.207387
0.170897
0.144889
0.216442
0.248349
0.209259
0.181542
0.215650
0.229778
0.278611
0.308264
0.227589
0.337291
0.213365
0.236850
0.153970
0.273216
0.327735
0.199232
0.184276
0.137014
0.194808
0.183330
0.183320
0.087757
0.101391
0.098643
0.135434
0.127736
0.216140
0.084205
0.129735
0.070883
0.152998
0.143394
0.183219
0.145008
0.157524
0.098451
0.028778
0.120903
0.038138
0.070765
0.064476
0.079669
-0.012250
0.088477
0.108348
0.142167
0.218198
0.581133
0.935299
1.226307
1.378162
1.500000
1.312719
1.033074
0.640173
0.421586
0.131569
-0.100200
-0.098780
-0.102065
-0.128390
-0.037847
0.137268
0.077122
0.057096
0.120109
0.039727
0.135379
0.076944
0.026319
0.169684
0.150645
0.128703
0.136321
0.127514
0.134781
0.166767
0.081583
0.231332
0.175507
0.160462
0.139473
0.241206
0.160816
0.235113
0.284593
0.340647
0.328222
0.389875
0.433363
0.279110
0.411493
0.360190
0.393234
0.425980
0.425812
0.506588
0.427938
0.463284
0.472620
0.452604
0.549246
0.529397
0.565166
0.590822
0.589515
0.564568
0.570924
0.595949
0.528940
0.446218
0.563368
0.483626
0.484915
0.560538
0.417559
0.493647
0.453737
0.406659
0.354604
0.287196
0.374647
0.303641
0.297502
0.340306
0.244239
0.201526
0.199002
0.110354
0.190337
0.160696
0.219622
0.153361
0.156469
0.148215
0.223785
0.101784
0.104203
-0.025196
0.078419
0.105624
0.135741
0.063477
0.082993
0.099855
0.043724
0.093517
0.058302
0.053144
0.052069
0.071415
0.126940
0.128343
0.020134
0.008031
0.084493
0.099326
-0.037843
0.054088
0.105820
0.096319
-0.028879
0.020486
0.110874
0.084650
-0.050793
0.036816
-0.010658
0.059131
0.036574
-0.000501
0.064071
0.106735
0.017704
0.082181
-0.017106
0.000028
0.048799
0.044656
0.032693
-0.009369
0.024151
0.006908
0.101674
0.049452
0.029601
0.002183
0.044468
0.103399
-0.027765
0.010573
0.042154
-0.021917
0.006740
0.006616
-0.000439
0.061618
0.009570
0.102934
-0.014342
0.039320
-0.070510
0.029946
0.052023
0.077483
0.073623
0.027359
-0.006423
-0.052256
0.124707
0.088339
-0.008973
0.123129
0.127964
0.125228
0.139325
0.052402
0.058259
0.150828
0.166083
0.058816
0.155392
0.103960
0.131339
0.139070
0.207641
0.148812
0.176404
0.162628
0.220093
0.165800
0.062308
0.110233
0.084749
0.087348
0.069817
0.102231
0.150066
0.080076
0.085850
0.105342
0.063008
0.079471
0.041626
0.043117
-0.112306
0.023032
0.021961
0.052631
-0.030712
-0.069157
-0.018853
0.030015
-0.025908
0.057915
-0.110612
-0.037506
-0.032964
-0.052196
-0.053486
-0.069803
0.033460
-0.019746
-0.109827
-0.046340
-0.041652
0.089972
0.283843
0.565854
0.902611
1.149777
1.379439
1.255790
1.115136
0.725095
0.450779
0.037236
-0.133519
-0.205783
-0.301727
-0.210672
-0.240931
-0.026784
-0.076738
0.037040
0.015477
0.004111
0.019440
0.000609
-0.010596
-0.066435
0.067685
-0.039764
0.009752
-0.012923
0.037465
0.011870
-0.026181
-0.018038
-0.057377
-0.014177
0.073373
0.091741
0.017620
0.209578
0.128819
0.169551
0.196974
0.242187
0.133728
0.268676
0.256034
0.256555
0.287070
0.281932
0.321110
0.275480
0.296296
0.300972
0.450378
0.418744
0.403285
0.405405
0.363508
0.522806
0.421142
0.437605
0.451415
0.453249
0.379514
0.476085
0.374518
0.415982
0.363396
0.329730
0.421602
0.353026
0.368871
0.316291
0.319189
0.257468
0.261004
0.172169
0.246121
0.197651
0.154438
0.226601
0.114922
0.001352
0.104910
0.060742
0.096851
0.024916
0.002427
0.000570
0.013963
-0.033574
0.012405
0.003167
-0.013880
0.009348
-0.017919
-0.093715
-0.048281
-0.096819
-0.117797
-0.004727
-0.177149
-0.056493
-0.075356
-0.111700
-0.147325
-0.121042
-0.113097
-0.083833
-0.002530
-0.047310
-0.102261
-0.071089
-0.108725
-0.131495
-0.113058
-0.112579
-0.076986
-0.064540
-0.020984
-0.115254
-0.056885
-0.059224
-0.013703
-0.025068
-0.096205
0.032197
-0.050375
-0.015857
-0.071883
-0.145225
-0.045435
-0.039047
-0.076405
-0.132723
-0.140758
-0.169829
0.018086
-0.114079
-0.037482
-0.056872
-0.093609
-0.113695
0.009522
-0.142343
-0.096473
-0.066654
-0.128410
-0.152476
-0.039807
-0.040144
-0.074199
-0.122085
-0.025924
-0.079695
-0.121533
-0.056856
-0.078443
-0.117878
-0.068079
-0.125237
-0.060358
-0.052650
-0.090803
-0.066373
-0.033959
0.010821
-0.014660
-0.003952
-0.029760
-0.010118
0.035759
0.046399
0.021239
0.064560
0.017707
0.108135
0.027803
0.063015
0.065427
0.078325
0.186251
0.089315
0.070198
0.097054
0.099363
0.117449
0.074335
-0.010754
0.083033
0.082617
0.075822
0.029890
0.056145
-0.013074
0.076087
0.008155
-0.057731
-0.033641
-0.132054
-0.040902
-0.055211
-0.133853
-0.031829
-0.002655
-0.042288
0.009806
-0.080091
-0.071703
-0.036719
-0.171145
-0.106712
0.032108
-0.086678
-0.034147
-0.083092
-0.081041
-0.048361
-0.140017
-0.066513
-0.050785
0.179342
0.383375
0.637546
0.998402
1.273091
1.336912
1.150439
0.980250
0.567387
0.145994
-0.030373
-0.267824
-0.330867
-0.313249
-0.285450
-0.110281
-0.143258
-0.051050
-0.108510
-0.072108
-0.044296
-0.063572
-0.099769
-0.049925
-0.084538
-0.026778
-0.052733
0.058825
-0.002453
0.003674
0.050611
0.087000
-0.052785
-0.044603
0.124386
0.041101
0.080578
0.202041
0.138509
0.178295
0.139599
0.199898
0.128170
0.243489
0.252280
0.195169
0.305930
0.210301
0.258886
0.260254
0.391220
0.350480
0.384414
0.373182
0.400633
0.399256
0.481514
0.419275
0.444487
0.393624
0.364865
0.473900
0.374019
0.453297
0.472689
0.410664
0.517875
0.377624
0.431130
0.362456
0.315307
0.327636
0.310371
0.287305
0.235314
0.242043
0.199062
0.217941
0.190733
0.192059
0.152382
0.158523
0.126185
0.116362
0.112476
0.096249
0.080557
0.081323
0.029633
0.038989
0.012567
-0.026468
0.024702
0.018283
-0.024253
0.018211
0.033229
0.002096
-0.029020
0.068856
0.033945
-0.002765
-0.026258
0.018272
0.017134
-0.063098
-0.023179
-0.023837
0.056080
-0.059497
0.046198
0.002647
0.044036
-0.130206
-0.024974
-0.054652
0.020757
-0.094882
-0.027032
-0.044425
0.016271
0.057158
-0.111513
0.021705
0.008037
-0.064105
0.044330
-0.028450
-0.014263
0.055004
-0.002237
0.056364
-0.004339
0.044153
0.026422
-0.040827
0.013731
0.035210
0.045538
0.002025
-0.057646
0.031233
0.003709
-0.027020
-0.031527
0.055801
0.026433
0.014180
0.038791
-0.011246
0.009625
0.009125
-0.057098
-0.023822
0.004437
0.079322
-0.020291
0.005594
0.040046
-0.024245
0.013700
-0.000654
0.049681
0.039207
0.000029
0.040261
0.121292
0.040909
0.067686
0.067819
0.148611
0.092636
0.189603
0.152532
0.155645
0.167558
0.155667
0.212036
0.283282
0.171189
0.220125
0.243415
0.152863
0.120091
0.169482
0.212464
0.263131
0.079829
0.174276
0.118223
0.142852
0.169930
0.101244
0.065245
0.078484
0.066856
0.078350
0.144223
0.033310
0.071973
0.080700
0.048878
0.053766
0.036940
0.048650
0.023386
0.064304
-0.044149
0.065828
0.017776
0.018189
0.090114
0.048709
0.103685
-0.010612
0.013071
-0.017492
0.016485
0.052525
0.156782
0.163697
0.379677
0.667144
0.919666
1.160476
1.350068
1.401869
1.243868
0.885927
0.478202
0.153061
-0.037168
-0.193385
-0.261396
-0.096659
-0.120136
0.008918
0.023648
-0.015242
0.106523
0.079511
0.069183
0.049031
0.037846
0.074097
0.043160
0.097452
0.110517
0.093038
0.035287
0.060199
0.117943
0.142463
0.155209
0.155474
0.142383
0.129540
0.226009
0.143079
0.149595
0.234313
0.250447
0.317697
0.229310
0.297587
0.273644
0.341645
0.387440
0.367417
0.408581
0.432829
0.427022
0.511113
0.500582
0.528700
0.427176
0.586676
0.480756
0.467413
0.581306
0.674033
0.571314
0.510669
0.514958
0.418833
0.530384
0.480487
0.505583
0.439699
0.469815
0.457847
0.453431
0.462914
0.410314
0.440809
0.333336
0.348791
0.230729
0.331260
0.317294
0.245963
0.231540
0.170111
0.197716
0.178332
0.128986
0.186161
0.192257
0.156623
0.092312
0.122978
0.137195
0.071756
0.091633
0.030646
0.117817
0.094069
0.117309
0.080914
0.057446
0.074002
0.067193
0.033963
0.078088
0.074322
0.052027
0.095411
0.014327
0.047151
0.033957
0.054781
0.017600
0.061774
0.077433
0.055774
0.035187
0.087645
0.041299
0.044237
0.082168
0.066610
0.043030
-0.027740
0.036338
0.039594
-0.019419
0.041638
0.003613
0.058793
0.073542
-0.001638
0.042418
0.037508
0.101149
0.116678
0.031135
0.062429
0.047021
0.053736
0.029566
0.063875
0.061771
0.012338
0.047109
0.067049
0.007927
0.092264
0.071419
-0.054137
0.106084
0.084025
0.038971
0.050468
0.018432
0.054039
0.043955
0.078031
-0.025044
0.022845
0.103026
0.114690
0.128662
0.019194
-0.010654
0.089910
0.023916
0.033118
0.024593
0.074855
0.116449
0.024286
0.076713
0.050188
0.074883
0.124569
0.160452
0.165382
0.128019
0.248987
0.197710
0.125148
0.225544
0.181685
0.176767
0.156874
0.169278
0.163376
0.189599
0.134934
0.202732
0.107292
0.113831
0.125337
0.143556
0.117098
0.093343
0.029795
0.029149
0.050632
-0.032057
-0.003737
0.013195
0.067698
0.034215
-0.055413
-0.022925
-0.013710
-0.055520
0.062977
0.061475
0.037621
-0.032642
-0.009915
0.009304
-0.004010
-0.024166
-0.103883
0.007237
-0.106924
-0.109633
-0.000204
0.207047
0.352936
0.689926
1.075650
1.303383
1.383620
1.283163
1.041060
0.745544
0.398734
0.046897
-0.213269
-0.248504
-0.311316
-0.239789
-0.183784
-0.046979
-0.092285
-0.048866
0.091103
-0.058273
0.023688
0.030422
-0.043487
-0.016899
0.093682
0.007131
0.015782
0.022227
0.010123
0.040594
0.028175
0.104754
0.127419
0.081743
0.151247
0.104016
0.115543
0.140820
0.110385
0.166402
0.240494
0.239954
0.220202
0.277342
0.205506
0.213532
0.359776
0.300209
0.340700
0.222822
0.372941
0.334261
0.436998
0.424856
0.463332
0.512272
0.397269
0.421277
0.347082
0.529026
0.443822
0.429144
0.416277
0.426109
0.438419
0.444026
0.374980
0.447587
0.449055
0.294942
0.387502
0.383509
0.257017
0.383973
0.239805
0.240988
0.141675
0.095916
0.148548
0.206951
0.105243
0.152713
0.137749
0.040660
0.128609
0.103974
0.077220
0.053405
-0.075869
0.060427
0.050631
0.024898
-0.045494
-0.065399
0.019119
-0.041355
0.009399
-0.091663
-0.020625
-0.072001
-0.094447
-0.051027
-0.031621
-0.058136
-0.036975
-0.011657
-0.007561
-0.121292
0.004450
-0.114430
-0.086075
-0.037335
-0.088222
-0.076726
-0.158688
-0.007532
-0.043617
-0.054822
-0.110093
-0.067373
-0.089199
-0.072718
-0.111639
-0.101638
-0.060822
-0.028315
-0.044762
0.006361
-0.071296
-0.085088
-0.098440
-0.056862
-0.079431
-0.042601
-0.031302
-0.093612
-0.036948
-0.023326
-0.152759
-0.055947
-0.062255
0.013075
-0.110080
-0.031793
-0.056922
-0.034847
-0.091721
-0.104285
-0.014824
-0.117154
-0.040039
-0.094246
-0.115982
-0.108320
0.017196
-0.033938
-0.093495
-0.081145
-0.096374
-0.127031
-0.068525
-0.035403
-0.009934
-0.084320
-0.056258
0.026983
-0.037905
-0.031622
0.005947
-0.036350
0.030990
-0.038449
0.075126
0.079711
0.023953
0.051262
0.050774
0.038099
0.064884
0.057273
0.015091
0.092023
0.052080
0.066691
0.072777
0.080087
0.093606
0.053541
0.108604
0.046910
0.050930
-0.010861
-0.048974
-0.004640
-0.025963
-0.041935
-0.056627
-0.065946
-0.069141
-0.024842
-0.059145
-0.110971
-0.018841
-0.021898
-0.090570
-0.077256
-0.127977
-0.089302
-0.102348
-0.092926
-0.156793
-0.170061
-0.073245
-0.027297
-0.075736
-0.176712
-0.115254
-0.146933
-0.157625
-0.061613
0.210620
0.403528
0.717108
1.026025
1.218755
1.249733
1.088273
0.785451
0.444936
0.200502
-0.193232
-0.228364
-0.313222
-0.284880
-0.241167
-0.203367
-0.181096
-0.082946
-0.000838
-0.035989
-0.093366
-0.060534
-0.021509
-0.094273
-0.068993
-0.137216
-0.062102
-0.059302
0.017539
0.006577
0.004650
0.007263
0.020511
0.035508
-0.077439
0.040631
0.070519
0.101166
0.077838
0.076646
0.093797
0.102694
0.182399
0.168063
0.169074
0.198268
0.231448
0.281800
0.222055
0.280314
0.281923
0.298287
0.333108
0.357039
0.386678
0.430560
0.461588
0.386570
0.387668
0.342739
0.364900
0.443693
0.378361
0.464789
0.414657
0.351152
0.422201
0.293756
0.380841
0.325427
0.341559
0.242368
0.286515
0.245581
0.231742
0.144738
0.162956
0.232213
0.166098
0.123891
0.113141
0.063015
0.074789
0.059321
0.036037
0.066209
0.066103
0.084553
0.021556
0.031719
0.015993
-0.133351
-0.086895
-0.035760
0.019956
0.026345
-0.103223
-0.114610
-0.024064
-0.073882
-0.000856
-0.085910
-0.077460
-0.037146
0.006022
-0.062339
-0.071455
-0.051862
-0.020896
-0.019748
0.007785
-0.045470
-0.053896
-0.062187
-0.067114
-0.104161
-0.097293
-0.127196
-0.033990
-0.047991
-0.011090
-0.001749
-0.044532
-0.058915
0.004602
-0.020864
-0.088481
-0.157486
-0.056008
-0.077958
-0.046384
0.016720
-0.054927
-0.066748
-0.038418
-0.027375
-0.059961
-0.014081
0.007764
-0.066989
0.005730
0.001178
-0.033701
0.008630
-0.101241
-0.020191
-0.060103
-0.034387
-0.147293
-0.066590
-0.056674
-0.038780
-0.047215
-0.013663
-0.034457
0.001137
-0.052134
-0.020832
-0.074823
-0.015677
-0.047301
-0.003114
-0.012810
0.008547
0.055051
-0.015380
0.035539
-0.015182
0.029156
0.061519
0.037866
0.121101
0.039934
0.097587
0.059215
0.148943
0.122225
0.104158
0.174142
0.200281
0.116175
0.139336
0.107438
0.111055
0.162387
0.072301
0.103630
0.118589
-0.012694
0.124497
0.036630
0.003804
0.077071
0.035724
0.068955
0.065783
0.039278
0.002934
-0.023596
0.025748
-0.058927
0.042723
0.017803
0.021926
-0.098669
0.033914
-0.008096
-0.022853
-0.011097
-0.021552
0.013497
-0.000419
-0.027082
-0.018233
-0.045459
-0.062110
-0.004194
-0.029090
0.019621
0.043304
0.105708
0.345447
0.627500
0.933360
1.182658
1.330775
1.318316
1.083982
0.778631
0.438010
0.061221
-0.027487
-0.271569
-0.293343
-0.303115
-0.127469
-0.057101
-0.034761
0.036822
-0.001509
0.072968
0.054129
-0.076461
-0.036172
0.065428
0.036000
0.047944
0.077246
-0.017348
0.019566
0.043508
0.003311
0.091928
0.111383
0.182266
0.117238
0.150310
0.157624
0.213111
0.193110
0.237919
0.198888
0.221583
0.223655
0.303241
0.297430
0.304710
0.390772
0.393476
0.430428
0.408055
0.469299
0.519726
0.528152
0.495616
0.514923
0.505701
0.533164
0.561360
0.575390
0.463347
0.539814
0.557156
0.494425
0.485925
0.466274
0.554467
0.525725
0.460996
0.504370
0.370737
0.364704
0.376081
0.378550
0.291113
0.320295
0.404518
0.323013
0.303783
0.300116
0.273733
0.254662
0.204374
0.244811
0.145661
0.205357
0.197869
0.182445
0.170892
0.161989
0.151381
0.070295
0.048848
0.057877
0.122161
0.088795
0.086546
0.068263
0.084444
0.027484
0.001830
0.041192
0.067977
0.023445
-0.009514
-0.007377
0.038192
0.088922
0.084846
0.022538
0.064747
0.036135
0.090286
0.031513
0.064664
0.029781
0.027736
0.098378
0.098774
0.007813
0.033373
0.071081
0.103157
0.011874
0.088878
0.103818
0.007143
0.043705
0.049081
0.152453
0.042282
0.091758
0.090423
0.161555
0.056683
0.033993
0.066179
0.019265
0.054332
0.055800
0.082854
0.079309
0.003515
0.096234
0.089439
0.128643
0.021386
0.063435
0.045421
0.108957
0.103537
0.090625
0.069994
0.087960
0.084573
0.058916
0.100755
0.052171
0.142307
0.092891
0.112594
0.048620
0.043918
0.186602
0.006983
0.188312
0.127119
0.071747
0.150504
0.038906
0.163086
0.258587
0.174260
0.207128
0.159666
0.186498
0.227894
0.192515
0.242880
0.247518
0.246016
0.225654
0.252537
0.186206
0.251407
0.190503
0.280005
0.159372
0.185813
0.175385
0.228853
0.193546
0.157031
0.089584
0.096393
0.137634
0.063421
0.097084
0.076364
0.104740
0.067985
0.104421
0.112263
0.092924
0.079684
0.060213
0.035677
0.201460
0.092975
0.030380
0.064144
