0.000216
0.052926
-0.010914
0.003522
0.043740
0.049852
0.051761
-0.017028
0.018143
-0.015817
0.063103
-0.002633
0.030359
0.021544
-0.013472
0.055529
0.001384
-0.001007
0.072658
-0.007589
-0.001876
0.018167
0.014812
0.103592
0.021410
0.097017
0.057357
0.097845
0.028213
0.019400
0.128797
0.040058
0.119433
0.075324
0.152115
0.109649
0.121461
0.152458
0.229336
0.161558
0.125503
0.148460
0.226618
0.190703
0.127109
0.156581
0.138093
0.209662
0.128471
0.147790
0.168439
0.126856
0.193939
0.138093
0.119550
0.178768
0.120886
0.137348
0.058334
0.093149
0.065923
0.045018
0.065755
0.048424
0.107233
0.115651
0.057672
-0.025503
0.059714
0.035911
-0.011729
0.001913
0.076395
-0.019812
0.072178
0.041136
0.065717
0.047502
-0.007897
0.031885
0.013326
0.011523
-0.087990
0.062406
0.063114
0.311583
0.613686
0.814280
1.166924
1.265416
1.285356
1.272780
0.932335
0.523563
0.201057
0.008324
-0.120820
-0.234130
-0.151800
-0.166800
-0.093168
0.011924
0.017169
0.044485
0.009392
0.107155
0.002112
0.070522
-0.025718
0.090843
0.154435
0.077103
0.078762
0.087469
0.140118
0.095934
0.151161
0.199521
0.107026
0.194571
0.200879
0.151096
0.213790
0.227412
0.246724
0.225783
0.342552
0.253480
0.302075
0.318763
0.339987
0.362001
0.410749
0.378376
0.391158
0.491016
0.534459
0.579783
0.497018
0.521265
0.503413
0.461186
0.455812
0.479504
0.485126
0.504174
0.503661
0.504170
0.618912
0.566196
0.500617
0.492600
0.522642
0.475863
0.497787
0.447781
0.434537
0.444947
0.481979
0.380526
0.309832
0.361088
0.195636
0.267023
0.274688
0.326865
0.232893
0.228787
0.232482
0.198886
0.187826
0.160723
0.207032
0.233320
0.206608
0.121758
0.120981
0.135165
0.129308
0.053399
0.116958
0.144898
0.066100
0.140133
0.075492
0.150396
0.188284
0.096689
0.077232
0.117866
0.081903
0.050152
0.071631
0.020831
0.082985
0.135525
0.153647
0.068237
0.142610
0.062878
0.007859
0.037071
0.052330
0.043569
0.083418
0.057512
0.095810
0.144592
0.063231
0.050269
0.105753
0.128922
0.070805
0.051921
0.008182
0.167910
0.119446
0.080819
0.017823
0.086090
0.053521
0.191976
0.038982
0.059571
0.058771
0.019210
0.163983
0.097866
0.090775
0.105051
0.102978
0.030732
0.085632
0.077085
0.036655
-0.049034
0.117269
0.101450
0.108688
0.038108
0.129142
0.071608
0.062674
0.048546
0.058811
0.139875
0.077704
0.041976
0.055903
0.105742
0.050925
0.077767
0.118222
0.144377
0.143511
0.170631
0.129608
0.109307
0.200350
0.169721
0.221546
0.159885
0.163330
0.220721
0.174570
0.305950
0.235350
0.259769
0.227106
0.204767
0.285070
0.350625
0.226707
0.176742
0.245209
0.207856
0.171307
0.223426
0.158871
0.119975
0.224879
0.181699
0.115796
0.127335
0.122171
0.099899
0.074385
0.093679
0.047880
0.088594
0.073284
0.145226
0.084220
0.020879
0.112461
0.028116
0.083350
0.088118
0.009805
0.059511
0.051983
0.120377
0.088918
0.009177
0.041697
0.009236
0.025676
0.064584
0.094711
0.350843
0.586751
0.898304
1.168195
1.407310
1.278370
1.144017
0.901116
0.650465
0.258890
-0.064777
-0.163721
-0.206313
-0.177200
-0.188387
-0.125976
-0.037048
0.038017
0.074712
0.051248
0.055156
0.147385
0.069286
0.101412
0.035575
0.070718
0.054297
0.046838
0.112081
0.101598
0.090076
0.096759
0.075205
0.124695
0.103370
0.152515
0.123708
0.164622
0.199973
0.281360
0.205108
0.186224
0.226416
0.238521
0.262422
0.367806
0.377956
0.371861
0.379755
0.356265
0.431850
0.438913
0.353515
0.404158
0.479314
0.463256
0.568323
0.514536
0.497622
0.507168
0.516568
0.545527
0.479510
0.454888
0.493461
0.483835
0.480003
0.470241
0.480237
0.516038
0.443228
0.383044
0.359258
0.389911
0.330916
0.359374
0.293413
0.352913
0.181975
0.275887
0.278697
0.143876
0.240497
0.156165
0.190054
0.121406
0.150197
0.106056
0.104793
0.135548
0.049556
0.096444
0.146999
0.038925
0.105274
0.013180
0.103121
0.034436
0.062535
0.036169
0.079568
0.060292
0.093774
-0.015464
-0.037119
0.047705
0.001131
-0.079556
0.057037
0.054323
-0.002553
-0.015854
-0.025271
0.033788
-0.005311
0.083327
-0.065289
0.036062
0.001930
-0.070724
-0.008669
0.035530
-0.001037
0.063700
0.049907
0.079279
-0.001754
0.086748
0.003285
0.004838
-0.081265
-0.040784
0.019377
-0.005185
0.031195
0.007610
0.087039
0.006608
-0.075787
0.003292
-0.018287
0.022825
0.007641
-0.039437
0.005847
0.022990
0.059074
-0.071205
-0.092028
0.002539
0.017838
-0.099923
-0.056308
0.047526
0.003693
0.030857
-0.060060
-0.048185
-0.070773
0.017884
-0.031315
0.082042
-0.066300
-0.027835
-0.005562
-0.003240
0.031329
0.079908
0.003855
-0.007944
0.060530
0.060853
0.040399
0.057896
0.068913
0.111245
0.081140
0.070863
0.102285
0.042733
0.162840
0.211901
0.194761
0.179477
0.108961
0.199243
0.167808
0.121566
0.142383
0.130585
0.071123
0.126948
0.160490
0.062316
0.025037
0.034441
-0.008779
0.034131
0.069732
0.024098
0.023099
-0.001848
-0.006725
0.039303
-0.010258
0.040937
-0.012722
-0.024773
-0.042734
0.065399
-0.161641
-0.089994
-0.030019
-0.051458
0.015364
-0.009540
-0.061019
-0.034718
-0.015362
-0.103807
-0.011488
-0.148690
0.046257
-0.016936
0.299458
0.531196
0.737203
1.144372
1.280907
1.260123
1.054788
0.791067
0.437075
0.122427
-0.182343
-0.299991
-0.297345
-0.282637
-0.192030
-0.195591
-0.097684
-0.055914
-0.054023
-0.042813
-0.008026
-0.018608
-0.025474
0.072732
-0.030772
0.055298
0.009859
0.012047
-0.003969
-0.017519
0.062077
0.016743
0.010316
-0.012857
0.106983
0.146567
0.107297
0.038604
0.083889
0.091258
0.105214
0.168286
0.212487
0.208686
0.183680
0.271248
0.272619
0.325844
0.310743
0.263673
0.338223
0.315986
0.410221
0.368118
0.430359
0.441141
0.433403
0.497981
0.431855
0.436129
0.496978
0.402182
0.428625
0.378736
0.471023
0.497497
0.414749
0.375979
0.337295
0.363091
0.343498
0.268534
0.315280
0.332421
0.267151
0.227145
0.203637
0.234140
0.221606
0.141299
0.170559
0.064802
0.124094
0.167756
0.065854
0.086531
0.038077
0.032015
0.125912
0.028043
-0.014058
0.112127
0.024260
-0.024890
0.021365
-0.032282
0.009506
0.080295
-0.048264
0.030261
0.026806
-0.071943
-0.018628
-0.009549
-0.073080
-0.029568
-0.067034
0.033019
0.006520
0.051210
0.079242
-0.025958
-0.024520
0.076594
-0.083876
-0.029587
-0.037240
-0.096768
-0.026271
0.002497
-0.046407
-0.061618
0.057140
-0.019174
-0.052968
-0.026037
-0.031935
-0.029764
-0.022130
0.007839
0.015034
-0.137031
0.021140
0.009352
0.061487
-0.063689
-0.067904
0.049764
-0.062964
0.016575
-0.042322
0.005545
-0.075596
-0.020495
-0.011871
-0.053782
-0.064971
0.027587
0.047773
-0.048148
0.042925
0.073608
-0.019227
-0.054464
-0.000384
-0.002928
0.022662
0.027725
-0.061796
-0.017832
0.047244
0.022957
0.018864
0.052169
0.011603
0.032503
0.056387
0.052878
0.079628
0.129147
-0.011858
0.008915
0.026990
0.124057
0.082378
0.220634
0.138816
0.112352
0.122007
0.211635
0.228077
0.155411
0.241638
0.184240
0.137688
0.172172
0.175761
0.153419
0.168511
0.113536
0.151618
0.133029
0.001078
0.101624
0.182911
-0.010039
0.056424
0.040331
0.031119
0.079321
0.091631
0.033338
0.048317
0.017131
0.010762
-0.000107
0.039083
0.024670
0.037867
0.095334
-0.003853
-0.022408
0.035453
-0.004690
0.032191
0.022453
0.023036
0.053190
-0.016952
-0.087035
-0.017171
-0.026200
-0.009831
0.129642
0.280063
0.601207
0.954697
1.238326
1.340776
1.319537
1.064811
0.858988
0.481648
0.144312
-0.037846
-0.189387
-0.215074
-0.142351
-0.098160
-0.021057
-0.009229
-0.008581
0.122002
0.111088
0.081592
-0.008993
0.044058
0.096475
0.068321
0.069267
0.067657
0.131804
0.089326
0.206590
0.091504
0.154902
0.141203
0.140254
0.182061
0.140047
0.134454
0.213468
0.260068
0.183580
0.247669
0.242859
0.342508
0.336568
0.323085
0.345748
0.370734
0.440291
0.403595
0.415426
0.427255
0.400087
0.397799
0.514535
0.518258
0.429425
0.512010
0.482754
0.539423
0.516675
0.550351
0.571827
0.467912
0.424846
0.496969
0.500555
0.481098
0.479902
0.436640
0.478330
0.411007
0.390303
0.453211
0.387436
0.376316
0.374097
0.351750
0.298204
0.198457
0.261623
0.327492
0.205636
0.257103
0.284839
0.231379
0.271145
0.174314
0.167921
0.150305
0.186777
0.049819
0.111909
0.164970
0.086258
0.074925
0.048702
0.082938
0.107063
0.087969
0.070635
0.107734
0.080003
0.096790
0.077491
0.092728
0.116806
0.054185
0.099517
0.017100
0.149115
0.057131
0.028163
0.086498
0.109284
0.069154
0.126991
0.130076
0.093649
0.062509
0.064173
0.015819
0.053648
0.079900
0.094740
0.078987
0.027107
0.026533
0.120542
0.157467
0.097621
0.048714
0.113648
0.092850
0.163465
0.125040
0.092778
0.046672
0.112154
0.065779
0.090721
0.076165
-0.006142
0.110252
0.058380
0.099907
0.100239
0.008347
0.081408
0.014520
0.067687
0.090357
0.092410
0.139980
0.142515
0.170924
0.079761
0.042663
0.075096
0.098862
0.054980
0.172403
0.206164
0.014756
0.080489
0.137255
0.224579
0.143064
0.138074
0.071372
0.137596
0.216290
0.167679
0.117648
0.201388
0.233860
0.204450
0.264381
0.197978
0.153677
0.248206
0.288442
0.303457
0.154308
0.262506
0.285504
0.261036
0.220139
0.331851
0.289162
0.276671
0.220486
0.222197
0.251397
0.236051
0.170816
0.141062
0.129199
0.193164
0.226024
0.096150
0.166543
0.082593
0.140699
0.061828
0.035027
0.110804
0.067504
0.126722
0.066694
0.057401
0.144791
0.074875
0.129150
0.044430
0.042835
0.041641
0.026149
0.030291
0.066375
0.068289
0.075717
0.027826
0.092543
0.175580
0.505372
0.710509
0.982295
1.327636
1.500000
1.348229
1.117794
0.833098
0.487385
0.184821
-0.085497
-0.167701
-0.202729
-0.103717
-0.007647
0.027105
-0.004335
0.089724
0.109535
0.210196
0.042218
0.082905
0.037617
0.140615
0.096259
0.126179
0.134895
0.139048
0.111602
0.121504
0.136035
0.145142
0.096735
0.139741
0.135342
0.223239
0.251017
0.250734
0.212923
0.279058
0.279737
0.342557
0.322894
0.320237
0.373103
0.424808
0.292551
0.418907
0.414341
0.470800
0.372871
0.451180
0.434566
0.448794
0.494278
0.483315
0.553949
0.515924
0.526131
0.491299
0.589933
0.492030
0.536023
0.561556
0.503276
0.530391
0.442514
0.555841
0.516406
0.478152
0.459480
0.515595
0.390545
0.321454
0.298094
0.373639
0.324071
0.255322
0.220144
0.313604
0.225494
0.173071
0.249824
0.169908
0.162122
0.095572
0.179186
0.088198
0.076103
0.213286
0.068865
0.103287
0.061597
0.169500
0.171298
0.133893
0.084194
-0.004634
0.041281
0.135219
0.097593
0.103178
0.073897
0.104995
0.111104
0.047780
0.026237
0.001091
0.020746
0.031836
0.030829
0.057842
0.013135
0.021539
-0.023873
0.001954
0.046525
0.030147
0.048841
0.003569
-0.002370
-0.033436
-0.026279
0.032388
0.054495
0.066575
0.029483
0.036482
-0.021538
-0.009892
-0.005851
0.058728
0.040005
0.038633
-0.034563
0.035964
0.088557
-0.001469
-0.023894
-0.004077
-0.014759
0.024414
0.022528
0.025417
-0.014742
0.038807
0.001628
0.017516
0.043530
0.036966
0.035395
-0.017384
-0.057748
-0.027911
-0.003204
-0.010208
-0.044380
0.039378
-0.013879
0.040512
0.002458
-0.036690
-0.031364
-0.008651
-0.005099
0.013711
0.026978
0.033981
0.018468
0.121718
0.110421
0.072865
0.130343
0.024896
0.048210
0.139654
0.083316
0.099907
0.134933
0.117546
0.175197
0.151936
0.099063
0.183656
0.056189
0.227111
0.159799
0.149201
0.121613
0.036227
0.121138
0.089956
0.101340
0.019305
-0.013855
0.057778
0.044904
0.100449
-0.004093
-0.033031
-0.035970
0.059973
-0.047808
0.038556
-0.108387
-0.009780
0.035602
-0.038675
0.046169
0.043836
-0.050190
-0.051032
-0.085733
0.072661
-0.135014
-0.014591
-0.046581
-0.092570
0.025379
0.012102
-0.059312
-0.109704
-0.001427
0.157884
0.322365
0.621295
0.984848
1.196679
1.297591
1.234317
1.000245
0.700403
0.301795
0.006029
-0.201435
-0.272658
-0.286582
-0.310785
-0.132516
-0.108727
-0.058804
-0.078294
-0.019095
0.008514
-0.045117
0.000867
-0.025537
-0.102978
-0.035976
-0.086620
0.001244
0.000113
0.013893
-0.026985
-0.003909
0.036963
0.021959
0.028095
0.073968
0.039730
0.110016
0.069606
0.152213
0.066289
0.110317
0.160362
0.195819
0.110256
0.190816
0.216405
0.254012
0.235131
0.357324
0.354705
0.357260
0.345693
0.410770
0.290265
0.427058
0.399357
0.441709
0.403717
0.405431
0.416910
0.315447
0.378235
0.425714
0.400929
0.366050
0.387995
0.334117
0.338537
0.413823
0.351796
0.270797
0.290372
0.257938
0.266755
0.251326
0.221515
0.149177
0.210960
0.279441
0.114330
0.174274
0.186611
0.109845
0.163465
0.028541
0.078025
0.076447
0.028943
-0.028014
-0.032312
-0.079779
-0.065853
-0.018178
0.013797
-0.099733
-0.078491
-0.038035
-0.035639
-0.002475
-0.032852
-0.063308
-0.070026
-0.092696
0.003916
-0.130290
-0.033570
-0.097102
-0.040374
-0.076773
-0.128765
-0.062883
-0.070065
-0.007382
-0.026106
-0.020156
-0.132992
-0.047706
-0.093810
-0.047233
-0.093551
-0.101334
-0.114852
-0.088103
-0.062051
-0.059958
-0.075244
-0.066870
-0.073363
-0.080870
-0.081504
-0.138668
-0.143718
-0.092093
-0.053617
-0.039744
-0.024922
-0.074810
-0.123833
-0.069019
-0.039704
-0.120071
-0.152501
-0.090391
-0.094657
-0.031622
-0.055220
-0.065545
-0.046927
-0.071263
-0.030831
-0.123505
-0.037208
-0.101734
-0.185054
-0.013413
-0.094000
-0.019868
-0.055394
-0.100817
-0.053063
-0.137795
-0.060130
0.012360
-0.049126
-0.064797
-0.110084
-0.004074
-0.014974
-0.026913
0.034021
0.001657
0.043558
0.079439
-0.018238
-0.002887
0.079446
-0.007179
0.048153
-0.036572
0.114702
0.151869
0.133695
0.096229
0.043796
0.079410
0.056235
0.122209
0.086050
0.092083
0.058388
0.213254
0.123370
0.097267
0.075845
0.022448
-0.025607
0.039044
0.012332
0.014213
0.024340
-0.022594
0.013568
-0.078348
0.037826
-0.053121
-0.099106
-0.033761
-0.020088
-0.116555
0.010927
-0.003370
-0.016826
-0.059483
-0.044809
0.027351
-0.034766
-0.037359
-0.116599
-0.017044
-0.068797
-0.184518
-0.106858
0.006511
0.125359
0.355469
0.630729
0.889026
1.158876
1.271418
1.133988
0.978561
0.641897
0.275473
0.067654
-0.188955
-0.291131
-0.290231
-0.273633
-0.207064
-0.043822
-0.145511
-0.044115
-0.089984
0.017456
-0.039674
0.030499
-0.004016
-0.029594
0.025845
0.009080
-0.073467
0.038397
-0.016244
0.003570
0.042756
0.036572
0.149324
-0.015684
0.061682
0.136850
0.101982
0.124535
0.081758
0.169174
0.176752
0.172524
0.253789
0.215894
0.193020
0.312203
0.260901
0.304367
0.365562
0.353963
0.347687
0.338644
0.412577
0.391867
0.453001
0.420413
0.418821
0.393531
0.480769
0.382795
0.416606
0.514734
0.448433
0.353524
0.505140
0.424818
0.439426
0.431321
0.348873
0.409892
0.326576
0.376462
0.273774
0.349552
0.369660
0.256150
0.240566
0.209888
0.191942
0.209812
0.146244
0.126703
0.133056
0.133756
0.050647
0.082287
0.083651
0.067408
0.042239
0.037173
0.063433
-0.041661
0.019494
-0.007953
0.006802
0.007567
0.028258
0.038800
0.058340
-0.015165
0.051561
0.065461
-0.018836
-0.036098
0.016434
-0.010948
0.057935
-0.007960
-0.059486
-0.009235
0.087146
-0.018733
0.031649
0.004973
-0.021889
0.008696
0.081567
-0.025635
-0.048627
0.013692
-0.009463
-0.103924
0.077055
-0.023564
0.069109
0.021784
0.043876
-0.019018
0.011099
0.007445
0.038086
-0.023293
-0.049688
0.044934
0.026099
0.031235
0.037386
-0.008970
-0.042201
0.042011
0.054334
-0.051567
0.022785
0.082310
-0.019838
-0.014463
0.035671
-0.001616
0.040780
0.027175
0.071102
0.014859
0.080281
-0.020084
-0.064567
-0.011377
0.050379
-0.033267
0.059221
0.000143
0.046581
0.035307
-0.012391
0.047928
0.053715
0.012197
0.078745
0.001447
0.122950
0.068106
0.077235
0.132831
0.147403
0.207608
0.140882
0.153674
0.223497
0.124273
0.168316
0.234211
0.225006
0.198195
0.166884
0.245402
0.187599
0.199561
0.185411
0.115399
0.135738
0.232575
0.163487
0.143737
0.165767
0.101131
0.068967
0.224941
0.078645
0.100085
0.014618
0.112040
0.009602
0.100849
0.028548
0.009352
0.025707
0.043698
0.027199
0.025801
0.050191
-0.013626
0.098215
0.101819
0.026661
-0.017760
0.080595
0.041492
0.058112
0.042355
0.016176
0.021322
-0.000944
0.019786
0.099652
0.259342
0.504796
0.789593
1.074151
1.305571
1.371967
1.218070
0.997102
0.731711
0.408641
0.019063
-0.105326
-0.223004
-0.213969
-0.112573
-0.050121
-0.071584
-0.009650
-0.018457
0.073835
0.042936
0.056548
0.113330
0.070783
0.054155
0.029559
0.041275
-0.007811
0.156757
0.078483
0.095930
0.099685
0.084331
0.109876
0.198934
0.218352
0.176379
0.226847
0.169035
0.219638
0.233221
0.181132
0.225737
0.282695
0.295163
0.381873
0.397461
0.450994
0.362193
0.388418
0.387953
0.417129
0.400097
0.492268
0.437287
0.444583
0.502527
0.418764
0.421058
0.526760
0.469344
0.452736
0.524661
0.500540
0.492195
0.444108
0.471500
0.456417
0.508114
0.367177
0.438099
0.411106
0.311918
0.389882
0.365123
0.325073
0.269169
0.352600
0.264748
0.358724
0.270608
0.282507
0.270901
0.242304
0.197992
0.147165
0.091125
0.168934
0.103009
0.143192
0.127560
0.063572
0.030470
0.085822
0.171916
0.111995
0.043706
0.108889
0.120749
0.024777
-0.000283
0.083550
0.060823
0.068248
0.071008
0.022220
0.081284
0.058685
0.111643
0.027256
0.071351
0.003923
-0.017493
0.023874
0.004149
0.029428
0.048010
0.044942
-0.030482
0.034889
0.044110
-0.004066
0.104645
-0.019338
0.067202
0.015402
-0.027682
-0.016219
0.035510
0.028772
0.001856
0.002324
0.078035
0.063889
0.015689
-0.019905
-0.023452
-0.010018
-0.011723
0.054507
-0.056905
0.070726
0.024208
0.046976
-0.000776
-0.008311
0.028265
0.031090
0.058284
0.079664
0.046206
0.086485
0.039467
-0.020659
0.077881
-0.016852
0.086332
0.036835
0.003381
0.121259
0.045756
0.025588
-0.032319
0.042314
0.039186
0.091723
0.114802
0.027028
0.045509
0.104699
0.086296
0.143691
0.052579
0.107355
0.125659
0.088902
0.181822
0.097898
0.289694
0.257978
0.175778
0.147363
0.175033
0.225774
0.261311
0.080372
0.249848
0.189058
0.112466
0.138509
0.152061
0.098675
0.077100
0.113247
0.119294
0.037353
0.096276
0.021960
0.083062
0.041622
-0.030314
0.062810
0.086547
-0.032927
-0.004308
-0.052852
0.015058
-0.022791
-0.033793
-0.092251
0.008369
0.019974
-0.034376
-0.004334
0.022193
-0.034398
-0.018515
0.037527
-0.056443
0.021390
-0.099426
-0.089730
-0.023974
-0.008172
0.218694
0.501273
0.822972
1.080841
1.270041
1.251545
1.176532
0.879658
0.474747
0.200471
-0.049822
-0.197632
-0.295452
-0.266342
-0.145799
-0.158374
-0.119620
-0.116255
-0.040547
-0.029185
-0.022885
0.029529
-0.028939
0.039512
-0.069542
0.023886
0.009149
0.025075
0.044626
0.075020
-0.021727
-0.006766
0.031576
0.075616
0.093486
0.069337
0.179919
0.120734
0.189463
0.081482
0.185754
0.168011
0.132015
0.221649
0.235143
0.228468
0.197109
0.314752
0.268263
0.333145
0.214678
0.231613
0.318776
0.353263
0.394100
0.376683
0.405028
0.336145
0.483406
0.456756
0.382803
0.461107
0.500907
0.431671
0.416904
0.391022
0.377096
0.399812
0.367639
0.357768
0.295399
0.368938
0.346259
0.326107
0.215622
0.227799
0.216627
0.173677
0.153471
0.137543
0.176217
0.117340
0.096580
0.122613
0.076360
0.024404
0.054341
0.031414
0.029423
-0.039078
0.077332
0.007185
0.014561
-0.028276
0.025056
0.020649
-0.029240
-0.042028
-0.032641
-0.065321
0.067417
-0.012001
-0.127314
-0.006727
-0.069035
-0.075362
-0.066447
-0.054601
-0.064998
-0.035935
-0.115507
-0.098889
-0.057306
-0.166134
-0.112474
-0.018623
-0.137998
-0.100701
-0.133809
-0.079920
-0.100420
-0.054441
-0.107919
-0.045966
-0.102856
-0.116691
-0.029447
-0.036872
-0.047881
0.003955
-0.097351
-0.080689
-0.039559
-0.078120
-0.007251
-0.124593
-0.073765
-0.064768
0.000660
0.005341
-0.085201
-0.091860
-0.033145
-0.077224
-0.061811
-0.067157
-0.114117
-0.079879
-0.097164
-0.067155
-0.020604
-0.076116
-0.066976
-0.123536
-0.077631
-0.051646
-0.108413
-0.053980
-0.134907
-0.093542
-0.094748
-0.073977
-0.112840
-0.042295
-0.065227
-0.044603
-0.080327
-0.122709
-0.069471
-0.014479
-0.064650
-0.027197
-0.035593
-0.033743
0.033712
0.065805
0.033522
0.097978
0.083229
0.044638
0.099969
0.002393
0.040769
0.087572
0.081337
0.100872
0.116489
0.027771
0.077224
0.026005
0.081190
0.011878
0.038092
0.031233
0.000611
-0.003024
-0.008741
0.008153
-0.066440
-0.042820
0.018051
-0.112368
-0.038313
-0.086348
-0.062313
-0.067304
-0.059644
-0.142708
-0.102683
-0.106507
-0.085797
-0.015136
-0.017041
-0.036722
-0.096868
-0.115198
-0.087324
-0.079886
-0.113393
-0.141617
-0.159004
-0.093575
-0.080885
-0.021088
0.125592
0.317870
0.781724
1.083671
1.198600
1.222635
1.040401
0.823555
0.472903
0.093726
-0.183276
-0.353348
-0.383884
-0.285476
-0.317933
-0.179269
-0.093364
-0.058775
-0.069184
-0.074504
-0.103250
-0.077937
-0.072289
-0.100631
-0.039303
-0.040605
-0.042907
-0.074581
-0.060293
-0.046952
0.003936
-0.032674
-0.034152
-0.066131
0.026501
0.093349
0.028262
0.099907
0.072106
0.048477
0.107935
0.149897
0.120893
0.120414
0.148364
0.177515
0.180647
0.285303
0.227420
0.306039
0.350180
0.274846
0.290902
0.364764
0.364987
0.302900
0.359058
0.389562
0.380284
0.324983
0.372633
0.407477
0.444080
0.358954
0.397368
0.408268
0.308585
0.349618
0.354847
0.316987
0.341029
0.290131
0.289939
0.254823
0.246046
0.175778
0.236225
0.218502
0.155284
0.143643
0.101122
0.105697
0.101537
0.142993
0.028299
0.106366
0.044113
0.077852
0.073837
0.018870
-0.014815
0.041891
-0.027504
0.066156
-0.046356
-0.102266
-0.074415
0.033490
-0.025425
-0.016319
-0.056674
-0.038055
-0.066141
-0.023568
-0.023635
-0.053464
-0.084114
-0.095499
-0.046878
-0.047288
-0.002014
-0.102596
-0.028845
-0.051413
-0.085793
-0.017262
-0.036507
-0.032136
0.002093
-0.054606
-0.031463
-0.071012
-0.035572
-0.010874
-0.022109
0.013118
0.029266
-0.104391
-0.086450
-0.085278
-0.030908
-0.063048
-0.108107
-0.013662
0.012303
-0.034574
-0.067734
-0.040162
-0.023984
-0.073500
-0.019289
0.000954
-0.035237
-0.156823
-0.080891
-0.011206
-0.015263
-0.019064
-0.045905
-0.002546
-0.014586
-0.076377
-0.061155
0.007154
-0.116925
0.044648
-0.082905
-0.053704
-0.057781
0.050355
0.060714
-0.008254
-0.047726
0.048749
0.038248
0.003321
-0.026965
-0.059326
0.023074
0.009185
0.031154
-0.009052
0.139368
0.038805
0.146510
0.087068
0.138421
0.155095
0.077408
0.087774
0.196516
0.106682
0.086636
0.180903
0.205906
0.116709
0.169834
0.203443
0.169263
0.221861
0.135980
0.130265
0.097264
0.095345
0.077364
0.183056
-0.008869
0.010704
0.085808
0.005874
-0.067135
0.095722
0.097988
0.034742
0.007876
0.097655
0.049990
0.083714
0.001444
0.079480
-0.048854
0.061413
-0.000701
0.004486
0.023583
-0.036232
0.002017
0.045657
-0.022317
-0.022273
0.059926
-0.040456
-0.020131
0.137559
0.294351
0.555817
0.877063
1.137061
1.339708
1.230215
1.204431
0.862864
0.455355
0.242722
-0.030583
-0.236892
-0.212633
-0.269481
-0.114328
-0.099651
-0.069873
-0.070568
0.093156
0.098227
0.094952
0.019396
0.055129
0.016278
0.088316
0.052447
0.109891
0.107948
0.130581
0.150965
0.109853
0.153235
0.085560
0.118559
0.158437
0.066182
0.111249
0.230354
0.231808
0.215339
0.265630
0.215783
0.196797
0.331655
0.333425
0.263250
0.305507
0.444500
0.448284
0.329185
0.430693
0.421296
0.453311
0.512635
0.427703
0.447993
0.541688
0.421927
0.514466
0.513000
0.564708
0.500971
0.541682
0.507044
0.549978
0.471347
0.471990
0.466651
0.513545
0.433683
0.451309
0.431700
0.344822
0.329512
0.381392
0.305755
0.305197
0.265683
0.292620
0.233587
0.200094
0.268419
0.288736
0.221650
0.205972
0.157875
0.168412
0.143549
0.195228
0.169586
0.194349
0.109864
0.102283
0.142925
0.046826
0.139297
0.071113
0.046877
0.145913
0.058850
0.081840
0.083441
0.066840
-0.031381
0.109826
0.097688
0.012248
0.025841
0.106013
0.020544
0.025543
0.087041
0.064563
0.066236
0.058833
0.012935
-0.017112
0.092404
0.035016
0.066065
0.033959
0.045875
0.066735
0.052551
0.059032
0.141245
0.096617
0.017819
0.102126
0.027335
0.096996
0.090498
0.040037
0.071756
0.076705
0.030558
0.075956
0.063408
0.011919
0.000859
0.067042
0.079740
0.008269
0.058295
0.086226
0.033592
-0.017671
0.028791
0.039262
0.036906
0.090999
0.145485
0.063333
-0.021701
0.068760
0.024802
0.021644
0.033223
0.096000
0.103034
0.031437
0.033000
0.109548
0.067043
0.046947
0.106971
0.012549
0.161148
0.089205
0.157520
0.119780
0.129461
0.192841
0.165596
0.224750
0.182812
