-0.070467
-0.021756
0.005087
-0.010179
0.054162
-0.000081
-0.011481
-0.004444
-0.001607
0.051131
-0.028934
-0.035779
0.001124
0.036588
0.044516
-0.005525
0.014314
0.050531
0.053315
0.002895
-0.006076
-0.023164
0.092582
0.022374
0.042908
0.045969
-0.013580
0.163630
0.075197
0.103597
0.112438
0.073920
0.155624
0.135379
0.085254
0.069363
0.071258
0.190693
0.195574
0.225667
0.138964
0.149954
0.172593
0.163482
0.200767
0.224372
0.125807
0.111353
0.150801
0.181388
0.170846
0.156273
0.138713
0.164588
0.112228
0.074583
0.079269
0.105373
-0.002712
0.061483
0.109722
0.116673
0.061824
0.030833
0.120691
0.033185
0.033019
0.020115
0.075294
0.083065
0.079681
0.083821
0.036284
0.009393
0.073755
0.007521
0.057092
0.061462
0.085389
0.053824
0.063645
0.183321
0.515284
0.705010
1.045636
1.190545
1.289225
1.218802
0.939121
0.614017
0.260276
0.037646
-0.064377
-0.202342
-0.094545
-0.021399
-0.026422
0.037182
0.035956
0.108478
0.041046
0.124118
0.105741
0.132960
0.145197
0.099986
0.131771
0.065459
0.181682
0.086099
0.127716
0.183063
0.154671
0.181858
0.157225
0.185329
0.179298
0.226853
0.313004
0.310579
0.267440
0.328169
0.299380
0.342015
0.383474
0.313688
0.427928
0.435291
0.402973
0.418923
0.471978
0.499909
0.504116
0.479381
0.471867
0.468668
0.560640
0.547217
0.561472
0.526509
0.532131
0.569320
0.509549
0.541935
0.487283
0.568178
0.462457
0.553989
0.448995
0.506927
0.402306
0.455225
0.395460
0.452628
0.343995
0.388137
0.293514
0.293746
0.291785
0.275044
0.255763
0.265203
0.162910
0.224151
0.237052
0.222965
0.242682
0.243501
0.173214
0.172529
0.133862
0.120796
0.153706
0.112166
0.193806
0.040529
0.085090
0.123047
0.092318
0.136507
0.114316
0.166504
0.125191
0.113908
0.108682
0.086268
0.097175
0.134691
0.212339
0.116879
0.050889
0.149538
0.040149
0.086200
0.201649
0.110757
0.067585
0.146530
0.055293
0.105673
0.112654
0.128296
0.088760
0.116912
0.146366
0.171268
0.144086
0.063590
0.024626
0.116136
0.106570
0.206530
0.077212
0.099844
0.204104
0.156178
0.097407
0.154318
0.134120
0.109017
0.106829
0.124600
0.096908
0.066259
0.149280
0.148442
0.154697
0.109386
0.140735
0.148578
0.086061
0.121532
0.138295
0.089176
0.097115
0.106237
0.115573
0.193513
0.143051
0.121248
0.116577
0.119658
0.167021
0.123214
0.172118
0.196793
0.229374
0.246097
0.217670
0.260317
0.269506
0.292323
0.247960
0.218011
0.258695
0.260099
0.207010
0.271172
0.274384
0.297563
0.216552
0.298196
0.253617
0.236921
0.234146
0.208227
0.150096
0.262836
0.205577
0.229592
0.155836
0.144110
0.192997
0.184105
0.149500
0.215547
0.168721
0.106087
0.120192
0.135292
0.128304
0.198384
0.090510
0.145502
0.121095
0.129240
0.111410
0.181281
0.143372
0.090804
0.106713
0.083004
0.015158
0.098381
0.127432
0.245635
0.407533
0.710864
1.037739
1.279003
1.324175
1.302702
1.032797
0.799023
0.500866
0.189407
-0.041291
-0.159392
-0.147845
-0.065911
0.034842
0.088712
0.102334
0.080566
0.118488
0.051474
0.065736
0.076058
0.178622
0.217028
0.162378
0.110098
0.075552
0.148958
0.165086
0.206935
0.220646
0.194589
0.241973
0.242918
0.259746
0.308663
0.302368
0.295758
0.315501
0.324107
0.311221
0.317015
0.329556
0.376605
0.387783
0.445613
0.456216
0.465924
0.500411
0.471411
0.544099
0.546745
0.514643
0.580157
0.569071
0.540824
0.504517
0.602927
0.515620
0.587203
0.498151
0.579252
0.488298
0.501337
0.535456
0.478305
0.461941
0.476477
0.444619
0.390525
0.497550
0.331706
0.338350
0.402806
0.353250
0.364444
0.212381
0.307269
0.242132
0.226683
0.207531
0.177292
0.243345
0.190837
0.192954
0.208624
0.138116
0.162195
0.152149
0.143331
0.128630
0.188461
0.141050
0.048841
0.121983
0.109771
0.068105
0.080982
0.117983
0.137245
0.015607
0.072196
0.038778
0.111108
0.094277
0.036957
0.067103
0.158557
0.072319
0.070682
0.006998
0.114576
0.090398
0.004473
0.056436
0.056149
0.119716
0.126157
0.075049
0.080105
0.060073
0.115704
0.058687
0.095159
0.038943
0.071472
0.054922
0.082569
0.091879
0.156900
0.120569
0.071510
0.116426
0.066486
0.021079
0.063305
0.041405
0.048657
0.071408
0.076197
0.088083
0.119411
0.136511
0.136652
0.110646
0.057688
0.069417
0.024580
0.107606
0.091624
-0.007560
0.065383
0.053793
0.083383
0.087679
0.186249
0.099426
0.100225
0.137716
0.142465
0.131471
0.139993
0.074557
0.122778
0.166949
0.116706
0.150019
0.165508
0.162183
0.159561
0.249624
0.219933
0.207366
0.242022
0.246970
0.219344
0.210040
0.166510
0.129774
0.169131
0.242739
0.210382
0.154157
0.178072
0.201963
0.130342
0.148943
0.196386
0.169050
0.063466
0.099993
0.133091
0.144927
0.156536
0.060694
0.090355
0.123393
0.139206
0.085594
0.074198
0.120306
0.006749
0.093537
0.102906
0.101861
0.071121
0.058760
0.078717
0.010564
0.081022
0.073636
0.044275
0.079450
0.099964
0.309370
0.586658
0.821763
1.211662
1.300551
1.268112
1.069156
0.787077
0.435755
0.176021
-0.034065
-0.129422
-0.131997
-0.039813
-0.092512
0.003382
0.041660
0.042789
0.063803
0.015715
0.068496
0.087732
0.023332
0.122221
0.114194
0.153506
0.119465
0.085005
0.113309
0.152599
0.162294
0.193837
0.109584
0.216705
0.249935
0.175414
0.253192
0.220628
0.246421
0.207639
0.273517
0.329206
0.339975
0.368631
0.360033
0.427618
0.411689
0.414000
0.454705
0.435199
0.501467
0.444185
0.473535
0.545505
0.510131
0.505127
0.485757
0.480122
0.556007
0.519983
0.454616
0.523737
0.518974
0.503605
0.489747
0.447767
0.387884
0.442240
0.430105
0.361010
0.357210
0.458505
0.350140
0.314565
0.350434
0.253830
0.324392
0.228637
0.396686
0.256836
0.171109
0.210877
0.218336
0.225572
0.159935
0.172937
0.252121
0.129827
0.122517
0.158457
0.096540
0.078459
0.166094
0.035572
0.143017
0.075792
0.024008
0.013154
0.065721
0.131148
0.074333
0.097910
0.109341
0.045362
0.117133
0.045910
0.092730
0.129886
0.060255
0.142084
0.120926
0.089126
0.116693
0.111162
0.133434
0.139450
0.077199
0.068718
0.068063
0.015887
0.060592
0.180266
0.022466
0.115378
0.119948
0.110390
0.131839
0.118617
0.059309
0.131182
0.088133
0.085429
0.122431
0.096906
0.087379
0.078800
0.124859
0.031113
0.083630
0.063109
0.114739
0.080902
0.035121
0.127762
0.099367
0.168524
0.115354
0.074702
0.072709
0.062589
0.144548
0.099444
0.144713
0.154187
0.120560
0.137869
0.172287
0.116498
0.152223
0.070023
0.121780
0.175016
0.103703
0.185180
0.179516
0.232697
0.155629
0.157973
0.235111
0.223886
0.245644
0.253956
0.251232
0.240237
0.214588
0.324258
0.291583
0.203376
0.251327
0.254088
0.172501
0.238477
0.183578
0.224921
0.123030
0.225064
0.209667
0.222114
0.140376
0.186294
0.199872
0.091076
0.150112
0.126049
0.123826
0.120956
0.218934
0.172552
0.095530
0.101422
0.159143
0.148136
0.169499
0.147142
0.075356
0.149156
0.102023
0.053097
0.145691
0.033829
0.164924
0.160976
0.085154
0.206064
0.290750
0.536421
0.970428
1.121225
1.310720
1.306624
1.265821
0.939668
0.647279
0.319020
0.186407
-0.018260
-0.106062
-0.065156
-0.001437
0.106433
0.172665
0.180653
0.134332
0.126893
0.126517
0.214438
0.136887
0.177206
0.113291
0.171260
0.152056
0.223151
0.226471
0.257486
0.232319
0.185494
0.267195
0.291320
0.284880
0.302849
0.315831
0.321408
0.342434
0.401077
0.368073
0.373173
0.400424
0.434549
0.428491
0.498391
0.475354
0.513500
0.516050
0.489158
0.606757
0.591622
0.598818
0.559929
0.657531
0.622505
0.660519
0.556695
0.702834
0.564712
0.716778
0.566692
0.616158
0.635643
0.583795
0.661569
0.582488
0.557973
0.544577
0.549835
0.494837
0.493376
0.430339
0.529887
0.393761
0.453126
0.371868
0.369728
0.420605
0.323499
0.280456
0.371251
0.334534
0.327662
0.282269
0.266601
0.230860
0.332126
0.306736
0.205459
0.237382
0.353728
0.191651
0.142456
0.247846
0.252617
0.269401
0.180767
0.150485
0.258675
0.199528
0.243366
0.212595
0.190010
0.183888
0.215436
0.166611
0.162840
0.213018
0.236937
0.212453
0.121577
0.217082
0.204241
0.268471
0.243398
0.221267
0.251957
0.225446
0.218333
0.308206
0.174914
0.277905
0.182322
0.187006
0.238904
0.156330
0.236527
0.214160
0.219798
0.211935
0.189849
0.199183
0.244915
0.221822
0.212239
0.241639
0.193737
0.241170
0.224325
0.197537
0.161851
0.194730
0.215236
0.234140
0.225019
0.173709
0.207273
0.221484
0.256935
0.227003
0.237295
0.218010
0.293747
0.291028
0.204334
0.258041
0.247120
0.308630
0.235423
0.241370
0.221808
0.406717
0.394091
0.319603
0.297390
0.269645
0.358502
0.383662
0.385529
0.327097
0.363463
0.399615
0.376652
0.398927
0.371771
0.435619
0.290768
0.362309
0.389227
0.404378
0.336802
0.316233
0.346608
0.372619
0.293812
0.367411
0.356002
0.304541
0.317801
0.356686
0.420032
0.284151
0.328261
0.274291
0.264345
0.245903
0.307218
0.295858
0.322852
0.230818
0.305400
0.266400
0.301168
0.359720
0.284280
0.232654
0.254216
0.203629
0.215908
0.260776
0.170789
0.181207
0.314218
0.287595
0.595265
0.876693
1.081133
1.374643
1.478987
1.404893
1.181591
0.772214
0.555537
0.292828
0.126266
-0.001049
0.063399
0.044309
0.135038
0.240234
0.271642
0.198809
0.289548
0.196828
0.227385
0.252690
0.147190
0.326774
0.340591
0.337006
0.269787
0.337577
0.269599
0.303797
0.326849
0.379433
0.396739
0.421517
0.301489
0.421475
0.409681
0.424029
0.458061
0.489241
0.487403
0.516638
0.486568
0.494743
0.605026
0.597998
0.622600
0.617474
0.596143
0.570371
0.636724
0.652017
0.575453
0.670063
0.658975
0.686530
0.654951
0.729663
0.721758
0.691221
0.645329
0.697004
0.744231
0.670163
0.680652
0.612780
0.591036
0.609200
0.627339
0.600403
0.534521
0.553542
0.532368
0.522428
0.495767
0.478229
0.420041
0.422618
0.369493
0.401651
0.370632
0.375486
0.391134
0.299927
0.401231
0.298939
0.350931
0.367288
0.294276
0.302694
0.293702
0.267484
0.237579
0.235269
0.275810
0.215919
0.223034
0.202150
0.282428
0.228188
0.359938
0.116982
0.156200
0.309782
0.176190
0.247360
0.267839
0.264443
0.300575
0.249080
0.279068
0.211348
0.210603
0.233222
0.223165
0.233624
0.242460
0.185665
0.286358
0.211272
0.206114
0.164626
0.120354
0.283181
0.215909
0.210543
0.217144
0.211198
0.216558
0.190716
0.277919
0.227952
0.262946
0.251439
0.123769
0.240279
0.199532
0.212733
0.270312
0.206581
0.161629
0.184138
0.214227
0.264564
0.177335
0.212441
0.229780
0.147308
0.242191
0.179072
0.244050
0.188644
0.245962
0.332023
0.216308
0.247832
0.208389
0.195195
0.251209
0.248214
0.249682
0.331395
0.233950
0.314802
0.264676
0.359964
0.353329
0.316001
0.323412
0.325324
0.339277
0.377664
0.357948
0.379954
0.366236
0.436973
0.429084
0.387391
0.349924
0.324189
0.401730
0.326475
0.352588
0.247682
0.317160
0.303340
0.271243
0.287231
0.236741
0.301359
0.250784
0.193031
0.267045
0.136773
0.226572
0.287081
0.165288
0.270202
0.233113
0.150506
0.158609
0.154608
0.207119
0.184480
0.230981
0.189309
0.263371
0.237026
0.228390
0.162422
0.172923
0.182315
0.159638
0.372009
0.542508
0.727011
1.088648
1.266375
1.401329
1.351312
1.188226
0.868565
0.496658
0.213227
0.036816
0.024830
-0.059753
0.023273
0.038316
0.184581
0.195185
0.230693
0.266235
0.193650
0.196489
0.196514
0.116679
0.198802
0.197785
0.202235
0.232808
0.245282
0.221268
0.258725
0.182938
0.254485
0.254742
0.260023
0.281771
0.391222
0.335153
0.360386
0.399411
0.405036
0.362811
0.480579
0.490276
0.439964
0.466621
0.403760
0.482590
0.633410
0.578439
0.495460
0.580278
0.619134
0.505362
0.677759
0.586326
0.615132
0.589031
0.667145
0.676231
0.592007
0.616075
0.600032
0.580483
0.537769
0.526159
0.510594
0.478650
0.520256
0.502305
0.420779
0.494596
0.449458
0.421967
0.419319
0.352114
0.429648
0.267223
0.330793
0.298916
0.352258
0.302523
0.217123
0.307714
0.278230
0.214905
0.250125
0.248995
0.216462
0.225565
0.241654
0.231600
0.167207
0.181340
0.162694
0.146728
0.137602
0.161472
0.160339
0.168839
0.124769
0.135042
0.146264
0.125724
0.099321
0.214167
0.175763
0.244842
0.157232
0.151512
0.150875
0.165611
0.167754
0.149586
0.176645
0.164905
0.105168
0.188164
0.221611
0.117400
0.101970
0.166851
0.199665
0.189893
0.103812
0.152879
0.259132
0.153307
0.193961
0.145636
0.086931
0.130262
0.144040
0.146416
0.183587
0.196723
0.139538
0.146053
0.159597
0.152204
0.171552
0.169839
0.122220
0.134205
0.094663
0.145014
0.216241
0.157345
0.163620
0.157978
0.149216
0.160069
0.158991
0.125601
0.180030
0.193521
0.126215
0.161326
0.210906
0.138865
0.194861
0.238036
0.115987
0.245718
0.165203
0.283393
0.180937
0.236328
0.259131
0.248226
0.242031
0.303517
0.290017
0.360994
0.290989
0.263854
0.384228
0.290091
0.243241
0.258359
0.331409
0.345301
0.207605
0.245138
0.232347
0.209515
0.221269
0.294212
0.190961
0.239359
0.200722
0.190271
0.203929
0.280317
0.195318
0.205725
0.143693
0.144155
0.244670
0.135493
0.189775
0.189146
0.178782
0.215670
0.142155
0.121516
0.200862
0.138299
0.087481
0.125793
0.112171
0.162831
0.103949
0.145002
0.178033
0.399199
0.674613
0.959606
1.226012
1.370600
1.400986
1.214497
0.923983
0.645080
0.313478
0.026521
-0.039259
-0.045431
-0.045269
-0.046258
0.110152
0.131104
0.166215
0.128027
0.176188
0.221294
0.139811
0.174592
0.251109
0.183198
0.225936
0.216378
0.237740
0.244044
0.242864
0.239957
0.138820
0.291346
0.263515
0.303770
0.295467
0.262256
0.322847
0.360613
0.302066
0.323262
0.322537
0.327569
0.392596
0.451451
0.472563
0.452559
0.500855
0.575680
0.535550
0.544223
0.536337
0.529443
0.557955
0.581254
0.616159
0.550327
0.618444
0.615155
0.603682
0.592399
0.624584
0.574416
0.600941
0.593271
0.628103
0.588433
0.470094
0.518818
0.491985
0.522994
0.433597
0.486254
0.418489
0.498083
0.418506
0.375905
0.353159
0.347610
0.379293
0.297453
0.375560
0.397208
0.304237
0.298075
0.261706
0.276644
0.289339
0.313296
0.234880
0.189996
0.199007
0.202519
0.273374
0.170640
0.187941
0.248457
0.253088
0.236923
0.233747
0.249804
0.165303
0.176185
0.204057
0.153674
0.165367
0.221917
0.178057
0.203238
0.129670
0.230582
0.128690
0.251944
0.268843
0.227808
0.240313
0.165276
0.210947
0.247538
0.240100
0.249964
0.232000
0.186807
0.152445
0.280088
0.253350
0.190095
0.197456
0.198184
0.210709
0.207421
0.243495
0.132015
0.204082
0.176527
0.260010
0.163384
0.255455
0.147232
0.201447
0.206449
0.184140
0.260762
0.253580
0.214184
0.205929
0.207438
0.197865
0.201061
0.241015
0.211135
0.248886
0.200874
0.213508
0.217610
0.291127
0.302185
0.219537
0.284286
0.257995
0.266398
0.299035
0.324821
0.318145
0.369445
0.318954
0.348672
0.268022
0.344850
0.373436
0.401855
0.343188
0.393637
0.329421
0.344196
0.411601
0.408328
0.378682
0.395949
0.451915
0.413602
0.422026
0.368620
0.384265
0.362262
0.367291
0.340286
0.357723
0.350150
0.306036
0.315109
0.246406
0.326772
0.379007
0.254562
0.278682
0.258532
0.313634
0.251902
0.206866
0.265765
0.306349
0.298406
0.194922
0.232218
0.283698
0.198910
0.156655
0.189152
0.247507
0.185591
0.203388
0.194353
0.258708
0.393097
0.698752
0.893975
1.140730
1.424044
1.468891
1.309744
1.081412
0.807527
0.512507
0.275438
0.068491
0.013158
0.071536
0.118965
0.179945
0.187239
0.230279
0.279954
0.255400
0.343258
0.280536
0.316736
0.288076
0.267794
0.243186
0.228084
0.260919
0.407409
0.341245
0.362965
0.385106
0.333587
0.334484
0.429088
0.413131
0.495011
0.413717
0.393280
0.435245
0.469859
0.469530
0.576447
0.531746
0.515000
0.572158
0.565082
0.514923
0.589597
0.624953
0.728003
0.693360
0.690055
0.635406
0.695277
0.665378
0.688690
0.710663
0.652859
0.688903
0.723976
0.733601
0.708929
0.712921
0.689462
0.738145
0.617589
0.589898
0.630844
0.590315
0.567251
0.561081
0.570166
0.614681
0.503824
0.515499
0.480940
0.559481
0.448975
0.487045
0.441114
0.394689
0.365363
0.385848
0.303777
0.432154
0.371536
0.271879
0.369797
0.330014
0.363847
0.306450
0.295755
0.346426
0.321354
0.255028
0.345379
0.319801
0.310620
0.278375
0.256309
0.283036
0.264077
0.352929
0.290979
0.307814
0.285229
0.324563
0.245829
0.240669
0.256920
0.239768
0.299201
0.269097
0.269570
0.281499
0.219322
0.253070
0.204514
0.368015
0.252728
0.286240
0.312036
0.328453
0.227742
0.257922
0.292927
0.218456
0.279156
0.272888
0.318880
0.313940
0.267906
0.268008
0.292509
0.320291
0.253213
0.299288
0.287005
0.263933
0.330041
0.253253
0.225592
0.204647
0.318956
0.292253
0.223405
0.306346
0.239227
0.259188
0.273376
0.297789
0.309342
0.263529
0.307043
0.325234
0.250193
0.287479
0.339979
0.324039
0.291092
0.342116
0.313978
0.339419
0.373232
0.334781
0.352916
0.363722
0.369169
0.339687
0.406182
0.360840
0.393009
0.480534
0.448247
0.473443
0.429429
0.461591
0.416877
0.418000
0.436881
0.432582
0.410820
0.391066
0.345310
0.360293
0.386856
0.414207
0.411205
0.369778
0.358087
0.291605
0.337439
0.318577
0.333149
0.311873
0.264788
0.295581
0.198519
0.331140
0.215757
0.259671
0.261459
0.283458
0.275999
0.222064
0.327832
0.221062
0.237447
0.244299
0.247508
0.281311
0.168659
0.257889
0.341313
0.630190
0.933451
1.155598
1.361213
1.488898
1.435029
1.188193
0.926216
0.564481
0.392866
0.140310
0.030929
0.062591
0.168333
0.162333
0.263350
0.200145
0.261878
0.296729
0.325686
0.230907
0.277433
0.350097
0.251813
0.334995
0.302363
0.372345
0.360896
0.356676
0.380732
0.366578
0.393398
0.401677
0.383959
0.376379
0.337359
0.401392
0.411704
0.450382
0.418351
0.536057
0.507244
0.629231
0.531327
0.490798
0.509991
0.605989
0.600527
0.636584
0.679720
0.625882
0.656014
0.649846
0.708611
0.685079
0.639384
0.680979
0.675776
0.675481
0.824739
0.660540
0.688462
0.650486
0.656230
0.653308
0.642267
0.636950
0.614612
0.535799
0.553753
0.577147
0.557524
0.516277
0.478533
0.454573
0.403887
0.460061
0.407636
0.439036
0.391333
0.305380
0.335421
0.398348
0.261497
0.305976
0.287399
0.307612
0.275476
0.210877
0.249417
0.228298
0.270353
0.321304
0.215823
0.184188
0.208739
0.262660
0.293126
0.185225
0.261149
0.202952
0.199639
0.280446
0.201222
0.198521
0.209903
0.274064
0.158969
0.213068
0.220288
0.219244
0.142718
0.228520
0.223751
0.176444
0.201591
0.178642
0.225933
0.219589
0.223267
0.211100
0.206853
0.172206
0.186414
0.227379
0.210037
0.150855
0.150980
0.180151
0.255794
0.175111
0.210742
0.206166
0.208713
0.141884
0.269090
0.195369
0.260736
0.209062
0.167593
0.198423
0.239639
0.204209
0.214879
0.196301
0.208537
0.133300
0.245680
0.241475
0.177479
0.192806
0.156767
0.273709
0.206721
0.153118
0.193198
0.242610
0.226687
0.176830
0.249071
0.205223
0.278891
0.250374
0.227825
0.275386
0.253176
0.329747
0.312863
0.330631
0.276446
0.324923
0.290270
0.341979
0.269636
0.306735
0.283008
0.329457
0.353547
0.376967
0.356985
0.347414
0.250845
0.262072
0.240737
0.287174
0.324778
0.304890
0.214652
0.295876
0.248704
0.208826
0.214836
0.216061
0.217614
0.261027
0.272152
0.202990
0.220225
0.177949
0.188852
0.234312
0.147777
0.198173
0.192383
0.191308
0.178886
0.236201
0.174346
0.150486
0.162177
0.185285
0.128450
0.124938
0.243123
0.448862
0.745435
1.026824
1.215121
1.426996
1.360514
1.200096
0.921257
0.602856
0.400651
0.081324
0.011053
-0.039665
0.008590
0.041366
0.111477
0.172225
0.170114
0.166430
0.151061
0.228866
0.159457
0.193337
0.221928
0.208863
0.148245
0.172818
0.214051
0.248128
0.266295
0.251292
0.304281
0.238774
0.288903
0.262780
0.331714
0.437259
0.308062
0.323654
0.400838
0.420887
0.412034
0.505724
0.494345
0.449041
0.487010
0.454309
0.538531
0.553107
0.522731
0.581280
0.509255
0.572801
0.552701
0.560369
0.651625
0.559764
0.675476
0.608014
0.633164
0.601858
0.584248
0.583702
0.550818
0.580338
0.531813
0.618793
0.547228
0.499438
0.496092
0.560790
0.468889
0.488583
0.463937
0.369738
0.344356
0.323600
0.372147
0.377106
0.330166
0.374288
0.285458
0.291905
0.303473
0.310074
0.213085
0.229127
0.228747
0.200808
0.228037
0.232117
0.213907
0.192943
0.223953
0.145572
0.215235
0.134012
0.185968
0.171751
0.257574
0.158593
0.151943
0.127530
0.201006
0.217169
0.154251
0.106310
0.146961
0.137835
0.169474
0.174889
0.170836
0.236427
0.207893
0.175267
0.176661
0.150296
0.157683
0.192448
0.266768
0.240602
0.179197
0.112873
0.165169
0.120818
0.161201
0.170510
0.145038
0.095904
0.150751
0.181091
0.183137
0.154436
0.186869
0.171319
0.148499
0.162454
0.200828
0.169997
0.131130
0.161986
0.157754
0.164254
0.149185
0.197153
0.171415
0.213301
0.221074
0.212692
0.178568
0.194048
0.169511
0.194529
0.230815
0.240693
0.268059
0.221539
0.183529
0.246188
0.200109
0.294090
0.208743
0.217873
0.237040
0.366882
0.228935
0.266328
0.252918
0.330409
0.272729
0.311753
0.358550
0.312411
0.316302
0.394030
0.353112
0.417444
0.365251
0.327088
0.345679
0.354222
0.363765
0.316003
0.352823
0.253378
0.280863
0.225991
0.285438
0.175157
0.267724
0.218824
0.215761
0.182470
0.256301
0.178392
0.133939
0.216497
0.215180
0.182622
0.280188
0.248487
0.171169
0.290326
0.263946
0.189850
0.249282
0.271393
0.211094
0.147098
0.217581
0.199819
0.158445
0.192288
0.202693
0.414311
0.666346
0.964574
1.166105
1.499510
1.372692
1.336933
1.040697
0.729084
0.427451
0.150469
0.093692
0.080409
0.059154
0.004736
0.121829
0.245288
0.194626
0.226141
0.201437
0.256059
0.192617
0.281190
0.262405
0.272442
0.293037
0.205021
0.310553
0.336286
0.295229
0.257974
0.272969
0.353856
0.353532
0.402429
0.407234
0.419718
0.449017
0.393530
0.380008
0.532152
0.449822
0.448155
0.453717
0.525100
0.516697
0.609517
0.503945
0.561387
0.617171
0.614072
0.699503
0.678509
0.670253
0.613054
0.773562
0.635457
0.631448
0.718696
0.735428
0.635117
0.630577
0.683455
0.630157
0.669396
0.700713
0.594495
0.584138
0.634937
0.521105
0.562711
0.544281
0.560768
0.533305
0.502068
0.490792
0.522923
0.455202
0.410291
0.433103
0.440805
0.424120
0.327108
0.402085
0.335637
0.337951
0.319355
0.373798
0.401211
0.359388
0.302815
0.343776
0.258108
0.370137
0.261365
0.208806
0.322610
0.296058
0.316582
0.374513
0.253571
0.242140
0.229365
0.350331
0.287359
0.284396
0.279276
0.289029
0.337578
0.263564
0.213115
0.270010
0.256797
0.277249
0.303600
0.332977
0.260941
0.315004
0.227333
0.221437
0.281852
0.333001
0.326704
0.209902
0.205209
0.273051
0.314642
0.297538
0.294437
0.234339
0.249560
0.286665
0.265392
0.256203
0.317943
0.223300
0.260478
0.259015
0.293427
0.280094
0.287483
0.296812
0.321410
0.279967
0.305338
0.271492
0.200910
0.347402
0.312338
0.306232
0.241592
0.273414
0.320303
0.259088
0.281086
0.331682
0.279541
0.281279
0.331783
0.317652
0.403343
0.322549
0.330178
0.348623
0.343502
0.358353
0.431459
0.357251
0.362512
0.395535
0.362529
0.467010
0.374728
0.417780
0.512911
0.476725
0.389375
0.411241
0.407382
0.418736
0.469246
0.383464
0.460977
0.391378
0.453242
0.344765
0.441098
0.454051
0.407568
0.387547
0.358744
0.363024
0.321363
0.345032
0.245937
0.361078
0.332523
0.357324
0.342104
0.286304
0.337230
0.310491
0.301671
0.263618
0.368958
0.280282
0.299370
0.296813
0.360338
0.301029
0.305415
0.267230
0.242124
0.334437
0.503106
0.710778
0.979701
1.290475
1.355858
1.500000
1.406837
1.195032
0.903850
0.553534
0.319581
0.110462
0.034943
0.091572
0.203211
0.190345
0.223112
0.278201
0.309447
0.308547
0.297994
0.276669
0.340426
0.346187
0.254147
0.364842
0.337681
0.412109
0.388968
0.408020
0.445471
0.354831
0.387662
0.416512
0.419400
0.437877
0.444227
0.426208
0.443455
0.488426
0.586415
0.576149
0.543434
0.530657
0.553675
0.586116
0.572982
0.652353
0.760011
0.637553
0.639999
0.755928
0.738291
0.651234
0.792099
0.745697
0.774911
0.754730
0.643147
0.779474
0.742690
0.769246
