0.030711
-0.006237
0.010939
-0.003903
0.012687
0.078939
0.059917
0.014659
0.035258
0.005489
0.069076
0.016425
-0.011706
-0.019064
0.010788
-0.015454
0.071197
-0.047464
-0.006048
-0.008572
0.022964
0.021792
0.070982
-0.026393
0.006130
-0.001933
0.085480
0.029293
0.137955
0.011496
0.053999
0.085624
0.126884
0.036638
0.076504
0.179722
0.152469
0.153101
0.193744
0.110848
0.200973
0.155634
0.219835
0.120570
0.168023
0.211381
0.195012
0.168518
0.221530
0.205076
0.165734
0.183457
0.135797
0.180392
0.184408
0.117763
0.193952
0.142234
0.155956
0.103000
0.080318
0.106076
0.105431
0.031334
0.079045
0.049543
0.122052
0.021072
0.024495
0.067092
0.016216
0.080929
0.024341
0.107044
0.024901
0.128309
-0.028586
0.088016
-0.022721
0.106816
0.035003
0.060903
0.033599
0.028552
0.040963
-0.013217
0.035554
0.227620
0.319627
0.686325
0.948394
1.174078
1.295755
1.400139
1.269294
0.899901
0.586519
0.188469
-0.026628
-0.160790
-0.138097
-0.216510
-0.068972
-0.028037
0.053380
0.063600
0.112296
0.002206
0.025672
0.081436
0.094016
0.084764
0.075510
0.158315
0.118033
0.021553
0.158732
0.124782
0.149529
0.077781
0.125069
0.055826
0.102368
0.178985
0.205060
0.265841
0.232140
0.232256
0.180215
0.195182
0.252693
0.295661
0.260308
0.348030
0.367314
0.362870
0.416761
0.394723
0.404810
0.486109
0.488229
0.516000
0.390918
0.519796
0.504659
0.539422
0.502484
0.585946
0.516350
0.577613
0.591697
0.555367
0.520758
0.511829
0.541401
0.527930
0.509856
0.526209
0.552434
0.478849
0.370416
0.482000
0.437334
0.449702
0.387319
0.332557
0.398767
0.326377
0.275020
0.240416
0.242682
0.214547
0.272545
0.199202
0.241149
0.220487
0.140949
0.183302
0.100243
0.293124
0.171170
0.113237
0.163882
0.126471
0.061142
0.131318
0.120015
0.118391
0.112285
0.062664
0.097043
0.115003
-0.032481
0.046260
-0.009982
0.122212
0.074494
0.054485
0.073253
0.131486
0.110971
0.088931
0.086267
-0.008163
0.033211
0.134141
0.012112
0.107629
0.070402
0.037238
0.029378
0.031867
0.082710
0.101968
0.129739
0.174672
0.187579
0.117635
0.146828
0.098579
0.126635
0.062326
0.128204
0.076741
0.172233
0.067833
0.094544
0.067535
0.083294
0.076735
0.156401
0.149347
-0.017309
0.083460
0.112829
0.122126
0.090979
0.122235
0.093398
0.055137
0.019016
0.123887
0.167174
0.032840
0.163384
0.161341
0.113744
0.095142
0.102273
0.096573
0.093838
0.085053
0.125158
0.119454
0.062807
0.124920
0.054465
0.038453
0.056186
0.095264
0.119251
0.065322
0.059726
0.168704
0.144834
0.175611
0.246994
0.101797
0.198656
0.245370
0.191659
0.207136
0.189021
0.317983
0.212506
0.228924
0.254615
0.278212
0.218657
0.253915
0.192617
0.271374
0.188276
0.171818
0.191379
0.191984
0.233448
0.238140
0.090909
0.205041
0.120144
0.122648
0.081777
0.177026
0.105558
0.082802
0.107780
0.064578
0.117517
0.018147
0.038556
0.104094
0.125091
0.043068
0.085868
0.130987
0.000776
0.110884
0.015830
0.032793
0.168526
0.036954
-0.014911
0.082729
0.050090
-0.011290
-0.005901
0.053468
0.206537
0.472065
0.704343
1.086310
1.310117
1.500000
1.315315
1.102874
0.847188
0.452192
0.126578
-0.103278
-0.159820
-0.240002
-0.211060
-0.099270
-0.037068
0.014471
0.004552
0.064326
0.017772
0.109231
0.040050
-0.016522
0.117218
0.056952
0.105327
0.068367
0.039312
0.063198
0.030672
0.106639
0.109196
0.110949
0.063152
0.134393
0.101067
0.064420
0.186025
0.137154
0.193112
0.125939
0.232378
0.278577
0.267163
0.287005
0.305887
0.389545
0.293035
0.294487
0.312731
0.408601
0.360971
0.447777
0.426028
0.437249
0.430680
0.455141
0.476619
0.499728
0.526799
0.464112
0.535767
0.463114
0.471601
0.568739
0.524893
0.483175
0.546926
0.528261
0.492059
0.489628
0.380499
0.390418
0.435534
0.384634
0.346224
0.301112
0.303477
0.200285
0.256795
0.201182
0.177677
0.222034
0.215301
0.223770
0.213403
0.047786
0.112039
0.140289
0.065196
0.042799
0.080999
0.012799
0.006813
0.076409
0.036806
0.080230
0.009149
0.021469
0.073515
0.036130
0.029061
0.005048
-0.005983
0.024837
-0.084735
0.084174
-0.007827
0.003235
0.025176
-0.020770
-0.030428
0.046223
-0.006359
0.004463
0.028388
-0.020934
-0.029172
-0.013091
-0.020182
-0.022061
0.015825
-0.039883
0.038781
-0.077119
0.060586
-0.017139
0.053635
0.086041
-0.103433
0.055904
0.024567
-0.024585
-0.015538
-0.043907
-0.049417
-0.046971
0.079093
-0.025039
-0.050211
-0.035949
-0.040533
-0.044965
0.013217
-0.038093
-0.023251
-0.064673
-0.044114
-0.028543
-0.043339
0.014254
0.050382
0.032008
-0.023691
-0.009707
-0.007904
-0.010784
0.006204
0.002085
-0.008321
0.006243
-0.044722
-0.009893
-0.031850
-0.071972
-0.023154
-0.050599
0.006330
-0.077604
-0.061397
0.052497
0.003841
-0.021436
-0.013818
0.024189
0.083529
0.054816
0.012931
0.042951
0.147111
0.057375
0.058147
0.094767
0.107043
0.130805
0.105550
0.134654
0.131627
0.061575
0.068322
0.134243
0.188242
0.175995
0.131330
0.091361
0.065464
0.022810
0.084164
0.108100
0.088872
0.050053
0.062566
0.094975
0.055444
0.080274
0.047936
-0.058008
-0.005361
-0.074995
0.034459
-0.097233
-0.049659
-0.004856
0.004314
-0.106092
-0.056887
-0.044043
0.003233
-0.047523
0.008519
-0.038802
0.002933
-0.044307
-0.111119
-0.043332
-0.057908
-0.065732
-0.146184
-0.055163
0.003696
0.122203
0.308504
0.686938
1.028659
1.244856
1.328788
1.181273
0.999098
0.734658
0.258236
0.059255
-0.250600
-0.342623
-0.343378
-0.221796
-0.218508
-0.166899
-0.079484
-0.025215
0.063376
-0.036787
-0.018805
0.022930
-0.122252
-0.101773
-0.013172
0.004490
-0.043607
-0.011511
0.002027
0.026852
0.137520
0.018961
0.006410
0.092510
0.080616
0.089685
0.043597
0.076010
0.143565
0.095175
0.108833
0.120448
0.137608
0.240231
0.167414
0.235795
0.198161
0.232429
0.312283
0.204789
0.327781
0.300626
0.384149
0.430989
0.264795
0.399142
0.427080
0.462034
0.430405
0.412638
0.426610
0.460909
0.463422
0.493840
0.480443
0.472505
0.425804
0.473842
0.459787
0.361236
0.417652
0.316658
0.311109
0.273326
0.359389
0.365289
0.234297
0.239439
0.232116
0.179557
0.176964
0.165130
0.154521
0.120786
0.061616
0.093424
0.069408
0.101520
0.058147
0.035060
0.019648
0.012218
0.027006
0.012266
0.089530
0.028447
-0.012950
0.011747
0.011992
0.028985
-0.046710
0.025982
-0.021101
0.051968
-0.013237
-0.044800
-0.002398
-0.043120
-0.063212
-0.066998
-0.096554
0.082575
-0.029421
0.021127
0.022116
0.037485
-0.068513
0.051582
-0.020848
0.020792
-0.009402
-0.084596
0.028880
-0.070510
-0.044424
-0.034154
0.019423
-0.027955
-0.043608
-0.076172
-0.088003
-0.017277
-0.033756
-0.004851
-0.009726
-0.056755
0.000206
0.027898
0.043470
0.013689
-0.003639
0.012883
-0.011883
-0.024543
-0.091134
0.043542
-0.034998
0.051959
-0.079260
0.008599
-0.017741
0.029825
0.029017
-0.012968
0.009385
-0.074426
-0.006404
0.009807
0.012716
-0.029426
0.050715
-0.024505
-0.079002
-0.002571
0.107118
0.058854
0.002556
0.001192
0.085395
0.041615
0.064580
0.092384
0.103923
0.080652
0.022296
0.053289
0.059417
0.120828
0.049744
0.126442
0.138852
0.145435
0.054065
0.209838
0.127473
0.134936
0.189279
0.222295
0.192778
0.165484
0.090859
0.176691
0.139842
0.104475
0.217162
0.164484
0.194397
0.106825
0.075692
0.130723
0.021083
0.084519
0.112751
0.060946
0.071552
0.022906
0.019689
0.078550
0.010433
0.036034
0.045310
-0.008921
0.012218
0.003877
0.037808
0.063166
0.025355
0.018135
0.038771
0.017942
0.039423
0.018806
0.061076
0.081437
0.043255
-0.000935
-0.055362
-0.020312
-0.005919
0.064249
0.263369
0.518633
0.836330
1.150473
1.388663
1.366529
1.215583
0.970689
0.624855
0.268764
-0.040907
-0.171915
-0.254693
-0.195199
-0.171565
-0.077220
-0.051366
0.067130
0.077666
0.031151
0.027278
0.080873
0.062437
-0.009226
0.117432
0.056916
0.004330
0.044803
0.095135
0.072663
0.124973
0.093688
0.130211
0.158387
0.103432
0.173637
0.174883
0.225883
0.252937
0.184374
0.179089
0.238832
0.197501
0.190613
0.327222
0.427360
0.362731
0.310244
0.363738
0.365099
0.397049
0.437543
0.415992
0.465178
0.499418
0.545389
0.595148
0.561748
0.573023
0.555838
0.506561
0.500363
0.585258
0.555421
0.544440
0.653448
0.470831
0.533763
0.474608
0.551541
0.493681
0.485509
0.421096
0.446729
0.439769
0.385423
0.379722
0.402822
0.396413
0.293457
0.336447
0.309147
0.241809
0.276142
0.216885
0.221973
0.162721
0.253427
0.222527
0.140052
0.196969
0.160076
0.112110
0.136185
0.104365
0.110638
0.131836
0.082123
0.065054
0.087250
0.108911
0.186422
0.151265
0.013638
0.116924
0.142701
0.126693
0.096312
0.098926
0.084270
0.030197
0.100106
0.094290
0.061779
0.061600
0.073474
0.070106
0.171651
0.133688
0.098207
-0.035482
0.152957
0.091306
0.128060
0.123265
0.052527
0.116360
0.039593
0.058686
0.128991
0.081778
0.102935
0.155723
0.100670
-0.005546
0.101540
0.112781
0.059563
0.187418
0.122899
0.109566
0.124948
0.061232
0.113335
0.090884
0.076802
0.078724
0.052413
0.024547
0.114358
0.011239
0.080808
0.123494
0.102876
0.112504
0.115614
0.096646
0.113539
0.136583
0.173740
0.157783
0.126994
0.106237
0.024774
0.047948
0.039230
0.078827
0.086679
0.088471
0.166556
0.133614
0.042586
0.022288
0.202462
0.096087
0.175298
0.124632
0.215918
0.172747
0.196089
0.183421
0.201315
0.221561
0.187677
0.248970
0.289043
0.285120
0.229282
0.139443
0.259271
0.212269
0.279819
0.263015
0.281722
0.254272
0.182170
0.247472
0.183833
0.118740
0.161884
0.131816
0.203911
0.179155
0.126115
0.182212
0.176127
0.081659
0.107692
0.100361
0.092982
0.140726
0.019455
0.177860
0.126034
0.091611
0.082001
0.080185
0.107173
0.131771
0.099736
0.123155
0.064037
0.103411
0.083009
0.070039
0.091673
0.010349
-0.053031
0.072117
0.032993
0.152280
0.375440
0.703925
0.974335
1.229128
1.408064
1.455086
1.266590
0.994961
0.595785
0.251208
0.003859
-0.190013
-0.158521
-0.140990
-0.074547
-0.056897
-0.015053
0.043367
0.155584
0.092170
0.051628
0.093774
0.129272
0.029814
0.049140
0.130738
0.072305
0.110584
0.170995
0.052361
0.175761
0.118477
0.168497
0.154819
0.154518
0.248706
0.242449
0.182623
0.230090
0.203244
0.289843
0.307335
0.270240
0.279188
0.286936
0.291981
0.272712
0.335824
0.417993
0.345136
0.479606
0.446292
0.468368
0.459871
0.469124
0.447646
0.431603
0.475810
0.411581
0.568362
0.530697
0.482985
0.571265
0.616847
0.522042
0.538013
0.447387
0.560654
0.475484
0.568210
0.485373
0.433822
0.399051
0.331203
0.436147
0.392834
0.323506
0.349172
0.299431
0.257352
0.301104
0.296612
0.212832
0.226834
0.231926
0.190340
0.198320
0.130490
0.198661
0.123513
0.072586
0.034208
0.022346
0.122957
0.107157
0.048678
0.054295
0.029244
-0.024372
0.051171
0.013293
0.066149
0.008853
0.000114
0.001517
-0.022640
0.045204
-0.003921
0.092147
0.023683
0.045046
0.022285
-0.021644
0.026702
0.067562
-0.000250
0.083023
-0.019186
0.000488
0.040030
0.088293
-0.024862
0.016868
-0.050413
0.009693
-0.021468
-0.041303
0.043532
-0.042715
0.027208
-0.039037
-0.032596
0.035211
0.043918
0.056500
-0.009512
0.104763
-0.055456
-0.018998
0.020334
0.006892
0.013827
-0.019221
-0.040581
0.037984
0.021661
-0.020596
-0.011663
-0.028413
0.065133
0.021527
-0.048250
-0.004275
-0.009769
-0.063027
-0.044928
0.012658
-0.047329
0.135090
0.033941
-0.061020
-0.008600
0.000288
0.008932
-0.080468
-0.038586
-0.038442
0.029827
-0.003133
0.050488
0.057638
-0.024643
0.029866
0.076994
0.048581
0.047372
0.046589
-0.010496
0.060593
0.045555
0.134209
0.112319
0.047364
0.039370
0.108946
0.160140
0.105179
0.147907
0.152900
0.111507
0.190689
0.151032
0.224801
0.124603
0.108901
0.109993
0.096691
0.078538
0.066973
0.121713
-0.018691
0.056306
0.089353
0.106290
0.043939
-0.087205
-0.061194
0.024150
0.004184
-0.035686
0.054356
-0.036602
-0.026530
-0.030227
-0.043428
-0.029837
-0.063615
-0.064068
-0.056104
-0.007473
-0.007656
0.003606
-0.092837
-0.130027
-0.077976
-0.085073
-0.091577
-0.089218
-0.137531
0.016971
0.005201
0.401808
0.666959
0.911081
1.173410
1.247384
1.290100
1.068974
0.779130
0.412439
0.059960
-0.206323
-0.276134
-0.351743
-0.296053
-0.201651
-0.139771
-0.140209
-0.132205
-0.102531
-0.065047
-0.053118
-0.080122
-0.069247
-0.014503
-0.026773
-0.015106
-0.007257
-0.008216
-0.070132
-0.016027
0.013202
0.064347
0.026537
-0.035189
0.041493
-0.000252
0.032576
0.017055
0.110633
0.136946
0.121880
0.078444
0.037717
0.081015
0.115251
0.094212
0.197213
0.189044
0.234804
0.306106
0.377359
0.313005
0.328159
0.303688
0.368676
0.347519
0.413449
0.458694
0.461545
0.382128
0.404033
0.428094
0.386923
0.432515
0.460613
0.363898
0.460457
0.423628
0.427894
0.383795
0.311148
0.282740
0.303066
0.358021
0.292975
0.270314
0.273917
0.207288
0.192785
0.187004
0.207748
0.129269
0.019268
0.067726
0.101825
0.120125
0.042307
0.063467
0.054463
0.050008
0.048212
0.058664
-0.037966
0.036844
-0.061806
-0.065015
-0.006728
-0.079326
-0.158620
-0.007734
-0.016025
-0.044469
-0.074302
-0.005779
-0.065301
-0.135922
-0.163761
-0.093459
0.064123
-0.047818
-0.050986
-0.108406
-0.090830
-0.120114
-0.083815
-0.118019
-0.033472
-0.124289
-0.098413
-0.073269
-0.121123
-0.123698
0.001382
-0.128628
-0.034342
-0.036973
-0.073552
-0.084363
-0.060358
-0.066419
-0.049602
-0.066579
-0.077149
-0.109043
0.007175
-0.063934
-0.073903
-0.123618
-0.118722
-0.125290
-0.037307
0.015345
-0.044605
-0.092487
-0.068165
-0.060018
-0.024569
-0.060294
-0.055662
-0.066920
-0.118572
-0.111670
-0.082916
-0.023497
-0.098965
-0.129433
-0.109138
-0.105632
-0.014674
-0.111682
-0.110938
0.025145
-0.055625
-0.034626
0.036107
-0.059693
-0.043233
-0.104698
-0.014025
-0.056025
-0.021007
-0.113793
-0.006811
-0.022614
-0.007522
0.002157
0.027210
-0.006214
0.075586
-0.009893
0.078330
0.076930
0.033422
0.112837
0.065449
0.093941
0.098445
0.075255
0.112794
0.089246
0.101124
0.031713
0.017675
0.127123
0.133736
0.100160
0.143542
0.063827
0.098878
0.038509
-0.041033
-0.002998
0.001245
0.035971
0.043238
-0.036102
0.009779
-0.042067
-0.035814
-0.018003
-0.007256
-0.076940
-0.030451
-0.098285
-0.028239
-0.022920
-0.045046
-0.075212
-0.097033
-0.058248
-0.012077
-0.033319
-0.058880
-0.082641
-0.025960
-0.047574
-0.109134
-0.074689
0.009649
-0.100488
0.148855
0.371506
0.645745
0.967673
1.208139
1.301347
1.221297
1.011604
0.614653
0.336164
-0.058495
-0.150490
-0.232238
-0.256587
-0.297907
-0.213484
-0.013667
-0.096905
0.030538
-0.024094
0.085682
0.010026
0.021058
-0.038775
0.046722
-0.070538
0.048998
0.009194
0.046076
0.003690
0.039801
0.096174
0.025686
0.080086
0.095228
0.100555
0.115984
0.086601
0.110711
0.080659
0.093568
0.203869
0.192557
0.146397
0.149717
0.168322
0.288921
0.315558
0.187140
0.313675
0.309804
0.310465
0.401186
0.402860
0.463759
0.487765
0.473233
0.398862
0.495017
0.508709
0.482539
0.460294
0.469609
0.449323
0.461033
0.400628
0.472670
0.473731
0.425968
0.484882
0.394595
0.399158
0.420401
0.382447
0.436462
0.371408
0.294350
0.271360
0.325073
0.282742
0.246733
0.221279
0.232900
0.260041
0.203466
0.126253
0.127095
0.097588
0.171486
0.190623
0.043680
0.157727
0.103217
0.087358
0.058434
0.020257
0.032307
0.050602
0.023423
0.045863
0.095979
0.024231
0.052875
0.010047
0.077181
-0.005893
0.028103
0.030309
-0.037090
0.064514
0.054196
-0.043530
0.059967
0.022440
-0.049528
0.030598
0.037847
-0.036783
0.031213
-0.008462
0.099035
0.026576
-0.030426
0.042407
-0.000443
0.014705
-0.051555
0.073388
0.101535
-0.019691
-0.001319
0.012778
-0.003300
-0.006305
0.013075
-0.006828
0.039826
-0.039823
0.041058
0.004153
0.004748
0.054214
0.016941
0.035498
0.065441
0.002866
-0.025457
-0.029672
0.081341
0.084572
0.037336
0.034233
0.004216
-0.023148
0.031261
0.084793
0.039961
0.027043
0.065485
0.041880
0.071372
0.048644
-0.052389
0.024890
-0.057209
-0.034117
0.071542
0.046459
0.074755
0.062489
0.029151
0.014218
0.093987
0.113168
0.057232
0.057061
0.017375
0.195665
0.205040
0.120088
0.116767
0.153103
0.140001
0.171129
0.159315
0.180329
0.288085
0.211869
0.235499
0.200387
0.193782
0.281293
0.259575
0.279654
0.249646
0.183742
0.166640
0.165239
0.231270
0.198474
0.110163
0.154723
0.079819
0.084926
0.142156
0.115434
0.153030
0.014016
0.111736
0.091625
0.198022
0.047702
0.062486
-0.031545
0.060333
-0.042664
0.048342
0.168434
0.031277
0.084911
0.035015
0.046677
0.063714
0.098388
0.010984
-0.006096
0.003887
0.021732
-0.062847
-0.003363
0.062485
0.256452
0.438331
0.849907
1.101021
1.412079
1.390609
1.244399
0.942118
0.726504
0.310602
0.088866
-0.147026
-0.215020
-0.257468
-0.190994
-0.214137
-0.046359
0.025989
0.081473
0.028644
0.121268
0.046200
0.095983
0.090495
0.092460
-0.005766
0.081475
0.042122
0.080921
0.063082
0.118006
0.102596
0.107551
0.058693
0.171545
0.139837
0.087300
0.198504
0.169844
0.219599
0.240694
0.255036
0.191330
0.284059
0.274471
0.301992
0.368396
0.242045
0.346074
0.358370
0.427248
0.395266
0.427625
0.464884
0.472926
0.450365
0.441826
0.580548
0.465471
0.528221
0.569958
0.509013
0.501853
0.546540
0.532692
0.543463
0.441508
0.529225
0.565445
0.428046
0.477958
0.383736
0.392320
0.473857
0.384460
0.363409
0.332179
0.278826
0.354659
0.273774
0.250110
0.267158
0.210657
0.170974
0.293833
0.251087
0.139702
0.101924
0.159716
0.179102
0.084769
0.058075
0.073193
0.107376
0.065662
0.030308
0.103863
0.043252
0.025829
0.069573
-0.027176
0.023584
0.067408
-0.045362
-0.030229
0.005183
0.037358
0.014301
-0.010300
-0.021145
0.004366
-0.004626
0.022702
0.029437
0.034220
0.003214
0.029555
-0.059238
0.046558
0.032921
0.005131
0.013365
-0.070490
-0.049272
0.053876
0.026644
-0.004005
-0.015790
-0.015723
0.087870
-0.060076
0.051142
0.030988
-0.001800
0.032154
-0.060069
-0.113197
0.041435
-0.010844
-0.016246
0.047543
-0.001774
0.003211
0.023430
0.011306
-0.074335
-0.051157
0.003072
-0.022640
0.013277
-0.004149
-0.018489
-0.045542
-0.011142
-0.063021
0.018270
0.019241
-0.022772
0.039741
-0.027229
0.019229
0.027277
0.016228
0.031403
-0.002042
-0.055814
-0.034370
0.078469
0.068136
0.035757
-0.047562
-0.017270
0.056769
0.056418
0.049991
0.100883
-0.007207
0.021981
0.144999
0.078352
0.142980
0.056501
0.120123
0.125065
0.079415
0.169821
0.111393
0.136602
0.235836
0.167384
0.128612
0.094817
0.115781
0.055829
0.227351
0.051949
0.124063
0.116022
0.145488
0.014268
0.092035
-0.016761
0.060088
0.014863
0.060202
0.070669
0.028462
0.047778
-0.010055
-0.067214
-0.005420
-0.041393
-0.036878
0.085595
-0.035869
-0.045236
-0.088416
0.018026
0.006958
0.000813
-0.011928
-0.095312
-0.070173
-0.004582
-0.050597
-0.070420
-0.026273
-0.137492
-0.148804
-0.068541
0.024977
0.208083
0.439821
0.857351
1.135579
1.262071
1.239854
1.158811
0.832804
0.385716
0.223600
-0.105265
-0.257360
-0.277318
-0.325919
-0.289679
-0.143489
-0.148969
-0.066612
0.007550
-0.056246
-0.154268
-0.077573
-0.043337
-0.045589
-0.041802
-0.011419
-0.016858
-0.069641
-0.043540
0.063301
-0.056831
-0.024066
0.018306
0.028747
0.038678
0.067697
0.078051
0.057835
0.029819
0.031404
0.047361
0.158972
0.205156
0.137222
0.176832
0.156119
0.210100
0.129554
0.222187
0.314820
0.283847
0.233079
0.368768
0.305138
0.364179
0.400697
0.373246
0.356506
0.430354
0.357161
0.414441
0.456558
0.342079
0.354678
0.362461
0.390307
0.526531
0.377339
0.401602
0.376459
0.322229
0.440025
0.288323
0.245037
0.214019
0.194335
0.181373
0.262201
0.213226
0.169252
0.175487
0.174116
0.146978
0.136886
0.136012
0.033350
0.050698
-0.013157
0.028300
0.046249
0.009186
-0.010713
-0.010825
0.045323
0.035996
-0.024755
-0.075107
-0.119152
-0.085954
-0.031079
-0.036349
-0.158756
-0.095164
-0.111229
-0.062650
-0.099956
-0.094520
-0.110862
-0.089905
-0.157409
-0.058216
-0.024909
-0.040736
-0.086496
-0.089527
-0.112741
-0.060202
-0.186064
-0.131813
-0.054396
-0.104144
-0.129320
-0.146338
-0.112905
-0.161237
-0.047450
-0.035133
-0.069722
-0.162181
-0.111939
-0.100498
-0.097827
-0.081441
-0.045483
-0.070149
-0.098369
-0.099824
-0.102166
-0.088843
-0.146396
-0.072836
-0.133313
-0.129139
-0.086284
-0.087506
-0.122986
-0.118346
-0.095044
-0.078178
-0.023101
-0.047405
-0.096195
-0.133636
-0.045071
-0.098726
-0.066036
-0.128157
-0.082225
-0.110277
-0.067798
-0.190909
-0.131791
-0.064358
-0.069654
-0.045170
-0.102500
-0.098058
-0.060547
-0.072995
-0.108517
-0.079530
0.016361
-0.086080
-0.072216
-0.033623
-0.042556
0.021502
-0.060142
0.008521
0.033302
-0.003757
0.039536
0.032098
0.021094
0.004293
0.075171
0.088806
0.002402
0.151815
0.134064
0.061542
0.052419
0.032248
0.110434
0.017446
0.091609
-0.044914
0.102375
-0.013781
0.007362
-0.011640
0.061771
0.039143
-0.062793
-0.059177
0.042197
0.002586
-0.003843
-0.082056
-0.111250
-0.145242
-0.024288
-0.091993
0.002775
-0.058896
-0.067875
-0.007380
-0.031508
-0.127554
-0.076393
-0.083059
-0.066610
-0.055763
-0.061948
-0.099588
-0.110545
-0.108377
-0.115202
-0.112149
-0.062181
0.081718
0.174469
0.505574
0.874917
1.154778
1.248438
1.219693
1.106660
0.773362
0.444133
0.160349
-0.132696
-0.291257
-0.375721
-0.328746
-0.187248
-0.118788
-0.165916
-0.048234
-0.086826
-0.020124
-0.086985
-0.007608
-0.077813
-0.108442
-0.012735
-0.120165
0.018672
0.008318
-0.019002
0.027324
0.027824
0.013453
-0.043090
-0.014317
0.030619
0.020875
0.036017
0.104773
0.115365
0.096504
0.072880
0.046195
0.185791
0.143698
0.182386
0.214844
0.269141
0.257265
0.280286
0.255921
0.294184
0.343028
0.296854
0.320056
0.370271
0.315799
0.453276
0.436722
0.495596
0.406601
0.437611
0.404805
0.425219
0.427275
0.417348
0.432363
0.455693
0.402502
0.325047
0.382335
0.319627
0.425388
0.385932
0.372962
0.355561
0.224324
0.296492
0.256589
0.230955
0.260390
0.192946
0.225836
0.208640
0.134990
0.150596
0.122018
0.044066
0.096284
0.078464
0.012736
0.001531
0.037452
0.028062
0.071049
-0.007675
0.067901
-0.048941
0.014711
0.050221
0.021237
-0.013315
0.008819
0.035427
0.015899
0.019295
-0.002931
0.037622
-0.053079
-0.032645
-0.026974
-0.049988
-0.012977
-0.013506
-0.036923
-0.056986
0.047405
0.022440
0.000789
-0.002517
0.050409
0.012642
0.075476
0.004988
-0.016960
-0.011641
-0.007846
0.006233
0.057276
-0.047389
-0.005514
0.026428
-0.007978
-0.059906
0.060655
-0.025929
0.033777
-0.076377
0.027182
-0.063036
-0.045790
-0.018838
-0.044494
-0.130991
-0.005069
-0.035538
0.025896
0.074957
0.077345
0.027670
-0.024634
0.000844
0.068016
-0.037107
0.046412
0.059181
0.046056
-0.017220
-0.010046
0.026833
0.053765
-0.016599
0.019221
-0.023133
-0.007496
-0.030300
0.008643
-0.043163
0.090248
0.051141
0.109944
0.077477
0.075145
-0.015819
0.110981
0.038927
0.091910
0.083096
0.120711
0.154554
0.134355
0.160836
0.188680
0.140475
0.114644
0.177233
0.197050
0.260819
0.202946
0.234860
0.211958
0.217378
0.184364
0.205758
0.247047
0.139898
0.166158
0.227241
0.156927
0.165871
0.018788
0.176133
0.147574
0.134852
0.081464
0.140457
0.094933
0.021142
-0.029418
0.106514
0.022323
0.073405
0.095049
0.096873
0.075384
0.061956
0.055183
0.032740
0.038902
0.028620
0.116883
0.034231
0.130836
0.077142
0.100142
0.053546
0.095798
-0.050744
-0.069255
0.009709
0.076136
0.187149
0.423587
0.726019
1.026001
1.253889
1.459097
1.384260
1.172294
0.767560
0.506055
0.123681
-0.092724
-0.220695
-0.159793
-0.183046
-0.068688
-0.003697
-0.004123
-0.011221
0.157521
0.036753
0.107045
0.053560
0.054493
0.121016
0.067714
-0.006988
0.046011
0.091886
0.041822
0.162710
0.077178
0.080546
0.176520
0.128349
0.200064
0.169303
0.159215
0.201175
0.216587
0.238468
0.276624
0.300181
0.274232
0.293853
0.319342
0.336318
0.371321
0.328561
0.330060
0.435487
0.379410
0.407387
0.478671
0.547356
0.536417
0.535243
0.511144
0.528324
0.542609
0.610544
0.451135
0.508876
0.555550
0.554897
0.490370
0.505403
0.570477
0.497775
0.475579
0.444045
0.463962
0.467245
0.504259
0.404408
0.411632
0.435033
0.349864
0.408713
0.316573
0.281878
0.283418
0.291647
0.355148
0.235827
0.210126
0.283712
0.304607
0.231212
0.166262
0.187196
0.107608
0.128683
0.111785
0.115469
0.140048
0.125300
0.155094
0.142573
0.106335
0.017869
0.101574
0.016802
0.056277
0.126140
