0.034479
0.076176
-0.022604
-0.035785
0.026028
0.056826
0.022910
-0.008812
0.002207
0.062556
-0.069564
0.016974
-0.026443
0.029630
-0.008042
-0.008161
0.016474
-0.009511
-0.016939
0.067868
-0.034732
-0.100891
-0.039531
-0.087097
-0.005329
0.022949
-0.020947
0.045125
-0.042259
0.043233
0.035078
0.004904
0.027943
0.063076
0.006124
0.046301
0.001296
0.075941
0.089835
0.032623
0.152139
0.086714
0.212781
0.091459
0.147754
0.140259
0.168634
0.186794
0.134946
0.149724
0.187004
0.175994
0.121820
0.203372
0.231260
0.237342
0.152997
0.227763
0.170682
0.199761
0.136700
0.151990
0.149706
0.161701
0.140103
0.156935
0.195618
0.057868
0.120423
0.121184
0.022996
0.114639
0.118193
0.071321
0.050610
0.092446
0.009656
0.082768
0.016387
0.084939
0.074922
-0.016268
0.073863
0.071482
-0.029086
-0.028498
0.098657
0.125210
0.064221
0.099822
0.034621
0.118482
0.096019
0.028278
0.079766
0.005786
-0.004678
0.056977
0.006177
-0.027326
0.003153
-0.069013
-0.028258
0.061112
0.118291
0.503685
0.839007
1.168072
1.373429
1.490404
1.443390
1.305032
1.004461
0.649108
0.290561
0.028062
-0.159920
-0.167208
-0.251360
-0.255472
-0.186119
-0.112602
-0.001870
0.149618
0.042077
0.027251
0.170140
0.056734
0.085171
0.089460
0.133726
-0.021213
0.121505
0.025479
0.033546
0.089310
0.089825
0.129434
0.089340
0.099113
0.117865
0.083308
0.117357
0.106693
0.160313
0.080097
0.101743
0.139506
0.126732
0.135552
0.284710
0.166845
0.230866
0.134408
0.285351
0.223982
0.228817
0.355874
0.291264
0.246366
0.336430
0.362645
0.439140
0.354538
0.402101
0.508406
0.503741
0.471187
0.448321
0.457336
0.551483
0.544537
0.573903
0.623599
0.571668
0.614621
0.619643
0.600742
0.635885
0.520292
0.566492
0.547844
0.660936
0.524995
0.656854
0.509490
0.490585
0.567542
0.462830
0.477471
0.475637
0.338530
0.376371
0.336192
0.411388
0.376125
0.286099
0.314847
0.339758
0.220604
0.294831
0.257929
0.174196
0.200208
0.162544
0.216071
0.156989
0.227291
0.059809
0.056588
0.172280
0.142986
0.140799
0.074668
0.056713
0.038265
0.096068
0.102300
0.048389
0.130579
0.094174
0.089568
0.075498
0.132224
0.125025
0.092197
0.096363
0.109075
0.044484
0.138161
0.148723
0.170264
0.066352
0.083169
0.042479
0.159296
0.117305
0.058290
0.083791
0.139657
0.083896
0.120319
0.090312
0.070317
0.088084
0.078621
0.116958
0.057764
0.109725
0.098491
0.041986
0.146183
0.036127
0.117098
0.076319
0.016518
0.020683
0.047439
0.104603
0.086100
0.008909
0.045275
0.041841
0.060800
0.096461
0.125644
0.064808
0.111673
0.143455
0.103673
0.031371
0.118096
0.080454
0.057856
0.015166
0.011553
0.148945
0.062057
0.041727
0.082882
0.016293
0.075118
0.021109
0.039924
0.021375
0.039409
-0.032296
0.063120
0.074372
0.104959
0.130263
0.062149
0.126019
0.033524
0.102938
0.053275
0.048392
0.143172
0.086280
0.163857
0.002644
0.089866
0.108970
-0.064694
0.059291
0.059307
-0.043365
0.014998
0.162316
0.121751
0.078436
0.109015
0.076560
0.128320
0.075726
0.166991
0.116097
0.133773
0.213965
0.136039
0.205330
0.234633
0.168716
0.235470
0.233743
0.271385
0.192056
0.334438
0.277580
0.217722
0.201960
0.250496
0.165138
0.189722
0.237194
0.179328
0.169697
0.163628
0.109988
0.096799
0.167736
0.178469
0.058553
0.016846
0.111071
0.043372
0.105219
0.036428
0.026413
0.087564
0.075013
0.130362
0.008422
0.038842
0.037970
-0.011830
0.041624
0.037955
0.004050
0.074863
0.043355
0.000466
0.020541
-0.019905
0.037883
0.081531
0.040747
0.093561
0.040439
0.027942
-0.022287
0.010035
-0.057610
-0.127954
-0.013168
-0.016121
0.029630
0.245065
0.500631
0.836546
1.054708
1.445969
1.431228
1.405814
1.186116
0.771262
0.470374
0.148950
-0.063043
-0.288238
-0.350730
-0.227674
-0.276539
-0.139934
-0.085352
0.062946
0.032468
0.064155
0.002922
-0.056012
0.030893
0.071164
-0.024672
0.030161
0.050689
0.078774
0.042479
0.039336
0.038695
0.045555
0.056315
-0.034251
0.055397
0.004439
0.059994
0.077192
0.099148
-0.027455
0.069691
0.068618
0.255362
0.127023
0.094247
0.069734
0.078013
0.106004
0.068393
0.172511
0.170646
0.255633
0.233021
0.252742
0.168332
0.281919
0.303315
0.301140
0.411514
0.366991
0.427845
0.352349
0.349636
0.357981
0.448507
0.367824
0.493339
0.478835
0.432354
0.470272
0.461370
0.509638
0.537510
0.442312
0.456556
0.502243
0.454737
0.430127
0.443726
0.485240
0.365544
0.359795
0.386518
0.349492
0.398760
0.308108
0.359718
0.334991
0.289597
0.184545
0.317948
0.262756
0.131068
0.168105
0.164652
0.095440
0.089039
0.100960
0.034641
0.059665
0.082937
0.029308
0.107268
0.021132
0.038797
-0.040922
0.028704
0.023103
0.083324
-0.017700
-0.067434
0.013412
-0.024660
-0.019018
-0.065488
0.037439
0.000813
0.049466
0.062590
-0.003200
-0.090081
0.000004
-0.086979
0.065769
0.022700
0.061573
0.042247
-0.020548
0.016517
-0.042577
-0.096472
-0.058113
-0.044119
-0.036144
-0.088156
-0.081005
-0.024443
0.007155
-0.086304
-0.027043
-0.064539
-0.018386
-0.072820
-0.003619
-0.033237
-0.076563
-0.095419
0.030970
0.004521
-0.072270
-0.080621
-0.090442
-0.022649
0.007413
-0.046278
-0.005859
-0.034918
-0.025016
-0.064645
-0.062508
0.017456
-0.077582
-0.008297
-0.012973
-0.104418
-0.067143
-0.082093
0.011654
-0.090283
-0.027121
0.019308
-0.083062
-0.060497
0.059177
-0.012548
0.005689
-0.022723
-0.002678
-0.038612
-0.097050
-0.065786
-0.060365
0.006424
-0.025104
0.025381
-0.071930
-0.058173
-0.059323
-0.086009
0.004675
-0.024360
-0.037169
-0.077121
-0.062175
-0.040697
-0.059906
-0.097000
-0.075342
-0.059806
-0.012390
-0.066598
-0.086578
-0.001021
-0.016175
-0.035131
0.007289
0.015171
0.032202
0.013688
0.074699
0.006166
0.071071
0.016634
0.047867
0.057515
0.082758
0.088840
0.131964
0.173127
0.141871
0.036822
0.134707
0.125177
0.160405
0.175703
0.042576
0.046263
0.143051
0.037946
0.126753
0.121324
0.072801
0.036250
0.050133
0.107433
0.020929
0.008328
0.024623
-0.012839
0.023133
0.028346
-0.001309
-0.046476
-0.046942
-0.091461
-0.064030
0.069262
0.009826
-0.003627
0.024929
-0.072759
-0.060556
-0.042510
-0.147312
0.057272
-0.036126
-0.055840
-0.039132
-0.042414
-0.080680
-0.060068
-0.046019
-0.054621
-0.071187
-0.051600
-0.046970
-0.100428
-0.076798
-0.142723
-0.050621
-0.064953
-0.066848
0.216640
0.478541
0.834291
1.188465
1.354580
1.415537
1.229510
1.051036
0.631012
0.410264
0.031947
-0.092774
-0.336077
-0.371816
-0.338830
-0.244138
-0.124652
-0.142129
-0.112045
0.079607
-0.095055
0.013815
0.004195
0.024243
-0.000609
0.019528
-0.006502
0.024274
-0.025211
0.021512
-0.003554
0.001851
-0.010621
0.059095
0.001600
-0.033416
-0.006791
0.066048
-0.032888
0.018097
0.090046
-0.007409
0.042881
0.002775
-0.023722
0.181205
0.126422
0.147683
0.150772
0.091925
0.154760
0.165305
0.156293
0.216930
0.296245
0.275712
0.284324
0.273616
0.316039
0.345557
0.412843
0.300363
0.404822
0.423322
0.368159
0.425500
0.406245
0.547703
0.492829
0.481427
0.512978
0.601917
0.470004
0.486811
0.534376
0.507085
0.450597
0.549524
0.552131
0.533756
0.509351
0.461374
0.451876
0.422447
0.371814
0.367062
0.286013
0.343357
0.296728
0.265191
0.298929
0.204555
0.303479
0.287482
0.166937
0.150403
0.231259
0.198829
0.149057
0.159642
0.163997
0.195295
0.059834
0.152579
0.062958
0.061833
0.082379
0.089991
0.082061
0.146193
0.013577
0.076517
0.108926
0.021030
0.061273
0.049410
0.123498
0.077288
0.071913
0.075946
0.045072
0.043938
0.036933
0.015693
-0.078016
0.040513
0.012311
-0.034995
0.040991
0.096925
0.034885
0.056470
0.054617
0.083061
0.107959
0.034382
-0.040039
-0.059773
-0.005410
0.002954
0.070538
-0.013288
0.043633
0.081769
0.116243
-0.013451
0.100949
0.107208
0.095547
-0.005537
0.062453
-0.032994
0.039214
0.133463
0.049144
0.094331
0.054226
0.090737
0.016984
0.046996
0.017586
0.078941
0.088146
0.040535
0.028949
0.011641
0.030063
-0.009004
0.043534
0.069798
0.016730
0.019494
0.107504
0.099776
-0.002383
0.049925
0.053426
0.110301
-0.004775
0.022937
0.018214
0.038589
-0.016558
0.152862
0.049984
0.080728
0.057197
0.090747
0.057180
0.104328
0.174567
0.081249
0.070036
0.065346
0.092116
0.007022
0.105053
0.045146
0.087495
0.105091
0.106320
0.084916
0.076849
0.117136
0.162533
0.098896
0.061157
0.099783
0.174915
0.235921
0.221681
0.219028
0.177871
0.132753
0.285846
0.234517
0.173118
0.235665
0.207427
0.245939
0.395652
0.260154
0.182495
0.292981
0.225850
0.262261
0.202527
0.265888
0.212482
0.242830
0.226524
0.167985
0.247922
0.202823
0.170549
0.142053
0.205221
0.199655
0.075901
0.171085
0.075580
0.134254
0.069696
0.128602
0.114183
0.048429
0.112003
0.068779
0.081774
0.056215
0.058284
0.136413
0.111144
0.132697
0.084580
0.036720
0.089591
0.101215
0.069553
0.087827
0.039654
0.101624
0.036808
0.101738
0.126863
0.059755
0.017699
-0.054884
0.000091
-0.080419
0.084981
0.010005
0.216367
0.463733
0.723827
1.102352
1.373772
1.500000
1.424522
1.344264
1.030015
0.694552
0.372359
0.051963
-0.159398
-0.242975
-0.251486
-0.182373
-0.063578
0.005877
0.095226
0.007176
0.075272
0.035690
0.025375
0.041195
-0.003577
0.084858
0.089439
0.041755
0.113233
0.083416
0.059902
0.067677
0.078776
0.032725
0.139910
0.079277
0.136312
0.045741
0.180063
0.186035
0.190474
0.162050
0.153815
0.131794
0.175601
0.197363
0.223838
0.156441
0.201347
0.140572
0.266041
0.217185
0.213088
0.301948
0.311713
0.320413
0.343371
0.384126
0.440188
0.402733
0.424628
0.407589
0.408168
0.460168
0.526631
0.483866
0.578376
0.548148
0.544424
0.549391
0.591902
0.527026
0.575381
0.520848
0.565599
0.550974
0.618171
0.583861
0.546674
0.606840
0.584156
0.621312
0.531966
0.473908
0.464114
0.410514
0.491548
0.409681
0.340837
0.455143
0.337164
0.286884
0.314689
0.252854
0.324234
0.274132
0.267811
0.203687
0.158903
0.211557
0.139109
0.170360
0.147452
0.194771
0.162788
0.212681
0.156862
0.078567
0.030727
0.154024
0.083044
0.109015
0.121846
0.062407
0.056933
0.118970
0.111939
-0.035347
0.066093
0.088784
0.055455
0.130466
0.044645
0.049290
0.097025
0.048308
0.080996
-0.064551
0.058719
0.117494
0.129321
0.099973
0.104659
0.112106
0.089278
0.104271
-0.011460
0.026978
0.026641
0.060778
0.071413
0.032581
0.093756
0.024771
0.044813
0.089475
0.058645
0.047108
0.116096
0.009805
0.115088
-0.026981
0.017140
0.102743
-0.028944
0.024717
0.043394
-0.044582
0.076716
-0.048806
-0.041770
0.026910
0.028432
0.051860
0.086722
0.061942
0.091309
0.067184
0.021874
0.036181
0.094656
0.057882
0.042249
0.038348
0.037389
0.091394
0.055959
-0.024292
0.007426
0.027291
0.043762
0.033630
-0.054099
0.036285
-0.019845
0.116701
0.022600
-0.006012
0.111468
-0.072248
0.058761
-0.045597
0.060834
0.026586
0.004068
0.044479
0.014751
-0.005432
0.050515
0.060273
0.044557
-0.016523
0.116136
0.056656
-0.000869
0.071910
0.067315
0.111448
0.060329
0.050574
0.095262
0.025386
0.161881
0.087156
0.206851
0.047870
0.136872
0.092768
0.112788
0.186282
0.041109
0.051741
0.161247
0.160774
0.231061
0.149847
0.142159
0.147467
0.144405
0.195837
0.202204
0.122543
0.046771
0.094439
0.099934
0.017978
0.200292
0.055912
0.045725
0.004065
0.028245
-0.011766
0.002759
0.033492
-0.012997
0.001113
-0.037198
-0.010052
-0.011091
-0.031805
0.034512
-0.003460
-0.025888
0.044755
-0.018577
0.042770
0.016261
0.005403
-0.024779
-0.057461
-0.015848
-0.052323
-0.010775
-0.063946
-0.107432
-0.028967
-0.005313
-0.061144
-0.056181
-0.098105
-0.134340
-0.073702
-0.047333
0.106021
0.431993
0.637578
1.085648
1.387161
1.432092
1.373898
1.104438
0.759548
0.366274
0.211550
-0.073748
-0.304129
-0.323395
-0.472895
-0.406811
-0.259870
-0.115051
-0.109444
-0.090531
-0.043385
0.052485
0.040114
-0.043016
-0.051637
-0.089017
-0.042966
-0.033704
0.039830
-0.067706
-0.015662
0.019822
-0.086111
-0.063041
-0.005833
-0.046948
-0.060024
-0.014172
-0.053668
-0.001833
-0.021600
0.046359
-0.017757
-0.087036
0.045613
0.044981
0.080286
0.134583
0.058893
0.082542
0.154057
0.092822
0.167612
0.170288
0.140858
0.168524
0.239054
0.222908
0.263526
0.236034
0.283909
0.317169
0.354768
0.345013
0.365886
0.369683
0.384566
0.452507
0.459691
0.427628
0.381761
0.459482
0.435365
0.440676
0.423815
0.468611
0.450488
0.429641
0.355315
0.422875
0.426759
0.317413
0.322915
0.342526
0.326871
0.320554
0.281650
0.379118
0.271514
0.241712
0.211243
0.101511
0.160810
0.003139
0.152067
0.167584
0.036890
0.099724
-0.009669
0.065919
0.020597
0.042885
-0.030099
0.060546
0.007563
-0.048108
-0.084472
-0.076568
-0.043749
-0.011417
0.007356
-0.125734
-0.098934
-0.067188
-0.123937
-0.039387
-0.136778
-0.166539
-0.024289
-0.052025
-0.052247
-0.117932
-0.029598
-0.133928
-0.075535
0.002274
-0.136869
-0.036882
-0.025740
-0.119267
-0.126272
-0.052785
-0.044499
-0.141968
0.036024
-0.034416
-0.040814
-0.062393
-0.060433
-0.093627
-0.105920
-0.092347
-0.095740
-0.132742
-0.090238
-0.087658
-0.081534
-0.140090
-0.150897
-0.140510
-0.042597
-0.057337
-0.040763
-0.052271
-0.139697
-0.103147
-0.029748
-0.038632
-0.076322
0.002841
-0.159941
0.017123
-0.057656
-0.036626
-0.107169
-0.015184
-0.064032
-0.089471
-0.053233
-0.062519
-0.051274
-0.092411
-0.049043
-0.069502
-0.052933
-0.058913
-0.064098
-0.091339
-0.147782
-0.051341
-0.132885
-0.068537
-0.060649
-0.121020
-0.125816
-0.161768
-0.105035
-0.042389
-0.026971
-0.079306
-0.110756
-0.091549
-0.155899
-0.070593
-0.131236
-0.057557
-0.075788
-0.074132
-0.043988
-0.077973
-0.137972
-0.074459
-0.033475
0.019361
0.011695
0.043194
-0.058592
-0.067682
0.019110
-0.041115
0.000846
0.045419
0.087891
0.091456
0.056994
0.084415
0.034011
0.093339
0.041387
0.094587
0.016515
0.060166
0.065502
0.094504
0.193381
0.097317
0.109310
0.136912
0.109096
0.063965
0.105574
0.126220
0.123532
0.073541
0.105762
0.001395
-0.004807
0.178347
0.025428
0.000294
0.019658
-0.015195
-0.081716
-0.087525
-0.019315
-0.029340
-0.003562
-0.045686
-0.074964
0.005285
-0.146300
-0.058138
0.005542
-0.029334
-0.040465
-0.086539
-0.013091
0.022012
-0.047835
-0.083320
-0.073234
-0.066113
-0.061439
-0.087604
-0.032026
-0.044437
-0.102736
-0.030520
-0.125658
-0.129891
-0.129551
-0.152283
-0.009892
0.173931
0.436015
0.837928
1.118260
1.353043
1.334393
1.312162
1.056449
0.676918
0.433026
0.091797
-0.123728
-0.261126
-0.353725
-0.456095
-0.293751
-0.204970
-0.143034
-0.067274
-0.114152
-0.021304
-0.066656
-0.030027
-0.066076
-0.011836
-0.008196
0.080583
0.012447
-0.037778
-0.009018
-0.033494
-0.026919
-0.071646
0.026967
-0.022489
0.006279
-0.042350
-0.062080
-0.031056
0.065957
-0.000443
0.013727
-0.004643
0.070601
-0.048673
0.047266
0.026255
0.102019
0.204407
0.119444
0.158661
0.227657
0.182928
0.221191
0.231567
0.232809
0.189207
0.272165
0.306984
0.369055
0.358794
0.378130
0.324434
0.361496
0.384722
0.404413
0.422990
0.438698
0.423892
0.406490
0.449287
0.559799
0.463283
0.570445
0.520694
0.471343
0.477684
0.565487
0.484919
0.446004
0.468616
0.481579
0.544294
0.405151
0.356040
0.329390
0.333581
0.295348
0.252732
0.330065
0.274123
0.305736
0.268860
0.164396
0.162124
0.216651
0.170888
0.116749
0.159944
0.077583
0.127851
0.131117
0.092669
0.062615
0.060221
0.125029
0.095847
-0.001035
0.055539
0.037455
0.003012
0.067230
0.011697
0.018101
-0.039430
0.054051
-0.001173
0.085416
0.014475
0.112546
0.013558
0.001704
0.057653
0.026196
0.069954
0.055560
0.072794
0.068807
0.063209
0.023733
0.015025
0.035238
0.034920
0.025979
0.031452
-0.027202
0.011048
0.084973
0.029380
-0.015541
0.000770
-0.004135
0.072573
0.047218
0.016038
0.054215
0.067754
0.003702
-0.021302
0.015140
0.123811
0.081299
0.053525
0.048501
-0.003750
0.050089
0.075972
0.064258
-0.039608
0.029258
0.065685
0.053806
0.044966
0.018420
-0.027469
0.037258
0.085966
0.031166
0.113893
0.036215
0.043741
0.042292
0.025189
-0.017610
0.035708
0.062415
0.003499
0.032943
0.054015
0.028470
-0.005327
-0.019358
0.098329
-0.040565
0.015955
0.017504
0.016046
0.087705
0.065741
0.003312
-0.001695
0.106089
-0.018385
0.130608
0.052964
0.083354
0.035857
0.033354
0.109090
-0.053229
0.041046
0.096188
0.032755
0.119246
-0.005449
0.089969
0.131867
0.140904
0.078241
0.098657
0.133744
0.176097
0.136089
0.119205
0.147791
0.266804
0.207592
0.257494
0.202195
0.264879
0.250577
0.260272
0.247534
0.240326
0.188772
0.198483
0.275754
0.174017
0.159751
0.176330
0.147378
0.148579
0.214416
0.178815
0.142884
0.155182
0.106701
0.121216
0.059599
0.131193
0.144086
0.115242
0.118352
0.091886
0.087334
0.066175
0.042524
0.064301
0.028799
-0.007317
0.046526
0.113550
-0.035578
0.010082
-0.010770
0.035127
0.050015
-0.014546
0.046535
0.071543
0.051134
0.031944
-0.043349
0.106269
0.004580
-0.006633
-0.001911
0.044717
-0.050154
-0.089265
0.033194
-0.022021
0.143162
0.404612
0.638754
0.969616
1.321147
1.492881
1.432942
1.306772
0.965063
0.783034
0.418079
0.089929
-0.091926
-0.274946
-0.308726
-0.237385
-0.171149
-0.092368
-0.054794
0.007765
0.010563
0.041775
0.065327
0.086368
-0.009974
0.076865
0.104788
-0.000385
0.037004
-0.011883
0.020683
0.077939
0.049717
0.089747
-0.031662
0.107091
0.066997
0.064831
0.100166
0.137359
0.109440
0.111848
0.001259
0.121200
0.097885
0.121063
0.150931
0.099070
0.141320
0.190584
0.185075
0.170293
0.206755
0.231217
0.240310
0.323030
0.347204
0.263001
0.281741
0.393644
0.370610
0.388134
0.348416
0.469419
0.391197
0.425717
0.430957
0.538993
0.580921
0.526235
0.519753
0.642755
0.583769
0.566988
0.555536
0.578010
0.524342
0.470808
0.501668
0.489087
0.523601
0.479296
0.402526
0.423170
0.456707
0.407679
0.375071
0.344027
0.262074
0.240134
0.335486
0.250498
0.212003
0.243936
0.191694
0.190857
0.207202
0.126624
0.210774
0.146598
0.070531
0.089173
0.030269
0.076847
0.024003
0.009329
0.126781
-0.002459
0.106731
0.090711
0.037062
0.046190
-0.008507
-0.002796
0.019201
0.025586
0.070560
0.016693
-0.030023
0.037489
-0.016344
0.003921
-0.023116
0.021546
0.023042
-0.019714
0.041454
-0.074946
0.018977
-0.028318
0.015612
-0.059025
0.005307
-0.011188
-0.078585
-0.025568
-0.084046
-0.098294
-0.011915
-0.037052
-0.056523
-0.011391
0.070531
-0.001780
-0.113201
-0.013100
0.020031
0.015469
-0.060144
-0.052043
-0.054653
-0.070616
-0.018557
-0.021709
-0.019999
-0.020072
-0.012680
-0.091831
-0.044708
-0.029117
-0.006373
0.013867
-0.068815
-0.035833
-0.061595
0.032345
-0.051171
-0.031185
-0.024804
-0.041873
0.031286
-0.029082
-0.029478
-0.050011
0.009958
-0.021755
0.020877
-0.082257
-0.038047
-0.001277
-0.024516
-0.084942
-0.107398
-0.022694
0.000607
-0.061472
-0.016538
0.015646
-0.070181
-0.025737
-0.110569
-0.096873
-0.065316
-0.116665
-0.081031
-0.045628
-0.009515
0.028480
-0.040605
-0.068195
-0.079105
-0.063887
-0.058644
-0.090367
-0.062545
-0.067317
0.040797
0.026398
-0.019440
-0.121653
-0.069166
0.066292
0.064198
0.002149
0.072588
0.121400
0.079828
0.067763
0.034659
0.177696
0.075944
0.117005
0.223091
0.080589
0.079504
0.059883
0.021218
0.071216
0.006492
0.133707
0.051330
0.019361
0.066154
0.037100
0.010417
-0.027648
0.024003
0.084786
0.024489
-0.072792
-0.002806
-0.066327
-0.083050
-0.119610
-0.084311
-0.130623
-0.029390
-0.090578
-0.116181
-0.089049
0.003599
-0.021552
-0.041502
-0.063418
-0.069904
-0.120919
-0.049014
-0.035825
-0.076594
-0.078412
-0.076387
-0.071564
-0.091486
-0.102961
-0.086600
-0.089358
-0.098931
-0.050682
-0.154171
-0.197401
-0.160461
-0.068158
-0.093060
0.020694
0.338670
0.510979
0.900068
1.165804
1.356335
1.333825
1.182038
0.807220
0.410712
0.148263
-0.133385
-0.242072
-0.431658
-0.460951
-0.347035
-0.341751
-0.325198
-0.121922
-0.101429
-0.011267
-0.152881
-0.124950
-0.077002
-0.129973
-0.098004
-0.033187
-0.118367
-0.038651
-0.155082
-0.088584
-0.144156
-0.143678
-0.011427
-0.108574
-0.071348
-0.055536
-0.065143
-0.125290
-0.050654
-0.048483
-0.048289
0.009494
-0.045394
-0.015646
-0.018445
0.030512
0.081887
-0.046321
0.107560
0.075472
-0.004161
0.049540
0.117673
0.015685
0.162494
0.172313
0.133364
0.189742
0.211660
0.227040
0.275465
0.279268
0.292291
0.211379
0.291823
0.317903
0.374268
0.319766
0.294704
0.467481
0.350364
0.413736
0.449517
0.394007
0.415483
0.459464
0.359742
0.444130
0.382850
0.349481
0.403643
0.387095
0.377123
0.264777
0.302958
0.266681
0.295329
0.187145
0.171548
0.229955
0.105599
0.216067
0.154565
0.142310
0.041040
0.158515
0.107863
0.008498
0.031446
0.013030
0.084660
-0.039525
-0.007975
-0.033836
-0.023185
0.031845
-0.127580
-0.038739
-0.084139
-0.015146
-0.065603
-0.036943
-0.063388
-0.074801
-0.023065
-0.088149
-0.092867
-0.077346
-0.049611
-0.101285
-0.058997
-0.095148
-0.147884
-0.077906
-0.066407
-0.114419
-0.125806
-0.160307
-0.077363
-0.142833
-0.057629
-0.038256
-0.098629
-0.145883
-0.004002
-0.054370
-0.046635
-0.109259
-0.054485
-0.039143
-0.141560
-0.056584
-0.053313
-0.065478
-0.108156
-0.109303
-0.232641
-0.121719
-0.052339
-0.128519
-0.106662
-0.119689
-0.073005
-0.112285
-0.068520
-0.089047
-0.061592
-0.116691
-0.018598
-0.069021
-0.101819
-0.060445
-0.077692
-0.073588
-0.114099
-0.122603
-0.016879
-0.051535
-0.103951
-0.062323
-0.015894
-0.110975
0.042766
-0.059444
-0.095575
-0.022763
-0.097007
-0.074364
-0.024836
-0.009478
-0.058129
-0.169970
-0.100025
-0.001510
-0.092155
-0.102695
-0.065508
-0.023673
-0.101693
-0.084403
-0.011220
-0.156156
-0.013040
-0.045096
-0.032292
-0.015982
-0.068380
-0.084260
-0.117460
-0.085059
-0.118667
-0.017536
-0.002006
-0.043088
0.031554
-0.030318
0.033762
0.031478
0.026667
-0.015406
-0.026728
0.106559
0.003621
0.114596
0.019883
-0.002136
0.021025
0.012950
0.121166
0.090541
0.171962
0.124170
0.178347
0.117632
0.066538
0.158560
0.141673
0.118014
0.041161
0.150482
0.131339
0.092309
0.082978
0.076163
0.003285
0.099568
0.086106
0.037662
0.003995
-0.013275
0.052630
-0.016709
-0.048402
-0.013852
-0.099033
-0.020290
-0.052799
0.012109
-0.097649
-0.057963
-0.020395
0.048379
0.054359
0.042608
-0.085767
-0.035319
0.005945
-0.076077
0.015845
0.025389
-0.038148
0.024550
-0.030333
-0.025036
-0.007335
-0.039776
0.032634
0.029467
-0.069424
-0.141810
-0.099011
-0.010604
0.181166
0.451848
0.763126
1.162037
1.389697
1.449676
1.403400
1.163991
0.761135
0.483218
0.180319
-0.060921
-0.284557
-0.369414
-0.276125
-0.238296
-0.211991
-0.102359
-0.033773
0.036862
0.033952
-0.046396
-0.005403
0.024370
-0.014001
-0.017209
0.039851
-0.082243
0.002248
0.097944
0.041334
0.077712
-0.009494
0.065847
0.103487
0.038640
0.051804
0.090788
-0.052913
0.108889
0.058031
-0.004141
0.144472
0.013744
0.128028
0.032396
0.145150
0.154180
0.118077
0.281855
0.191265
0.202570
0.144147
0.147100
0.203252
0.275564
0.317417
0.324924
0.236232
0.281725
0.438753
0.458471
0.432090
0.384040
0.473034
0.463950
0.424721
0.509375
0.547037
0.589980
0.587922
0.574430
0.475522
0.476812
0.520116
0.492021
0.483540
0.506848
0.530311
0.455429
0.499001
0.446821
0.489925
0.387281
0.453689
0.417898
0.402985
0.292319
0.301181
0.385067
0.356282
0.290891
0.294424
0.302828
0.293222
0.239068
0.210967
0.199784
0.235021
0.190122
0.130331
0.142317
0.101122
0.088148
0.139612
0.169196
0.042233
0.116853
0.073022
0.155209
0.083965
0.021719
0.091861
0.029956
0.145926
0.021035
0.100851
0.072990
0.009354
0.020745
0.087642
0.090107
0.075951
0.091277
0.067314
0.037391
0.121869
0.063882
0.080092
0.062885
0.009678
0.059768
0.062184
0.104732
0.057665
0.056492
0.034038
-0.001817
0.054411
0.098823
0.072713
0.069059
0.061213
0.040756
0.070258
0.076670
0.187315
-0.029642
0.118870
0.063835
0.073786
0.084219
0.072385
0.018019
0.058325
0.048197
0.023215
0.168532
0.040457
0.157134
0.007354
0.026273
0.049398
0.045022
0.110977
0.044868
0.065926
0.071575
-0.009812
0.128783
0.098003
0.101673
0.155669
0.050800
0.077292
0.061932
0.076109
0.094250
0.030688
0.124198
0.089981
0.116026
-0.015056
0.049543
0.023194
0.155604
0.044919
0.091329
0.077039
0.106359
0.008003
0.042687
-0.060668
0.034119
0.032696
0.071925
0.012064
0.096809
0.134743
0.038817
0.147746
0.126165
0.070665
0.126132
0.086966
0.112066
0.165471
0.069121
0.170137
0.141534
0.144393
0.183930
0.106544
0.139124
