0.219536
-0.269931
-0.280865
-0.143497
0.360631
0.378586
0.467102
-0.474066
0.306378
-0.323238
0.371526
0.420002
0.048786
-0.032255
-0.334366
-0.083193
-0.137199
0.063247
0.205334
0.879154
0.326193
0.104160
0.149831
0.939196
-0.160912
-0.498260
-0.070342
0.099247
0.127019
-0.632117
0.072490
0.365080
0.040258
0.137962
0.307037
-0.063809
0.311905
-0.442317
-0.038205
-0.184111
-0.428639
0.211532
0.788598
0.599998
0.035427
-0.206205
0.332682
-0.723330
0.638140
0.406519
-0.285226
0.160482
-0.285422
0.171378
0.171536
0.158520
0.283444
0.124175
0.428284
0.343946
-0.521482
-0.193932
0.489785
0.618631
0.624248
0.572474
-0.110011
-0.422995
0.016678
-0.499785
-0.301092
0.207490
0.397564
0.409315
-0.695271
0.036837
-0.043319
-0.563187
-0.098357
0.161932
-0.234002
0.236904
-0.479509
-0.015630
-0.230546
0.299574
1.431766
1.329816
0.166086
0.828563
0.033574
0.655138
-0.734500
-0.188274
0.112038
0.028183
0.418594
-0.715337
0.064331
-0.786959
0.267805
0.685403
-0.076036
0.011097
-0.027644
-0.005536
-0.198585
0.778782
0.563299
0.278378
0.863184
0.294533
0.058478
-0.491296
-0.793443
0.206959
0.462256
0.186949
0.295510
0.303223
0.559128
-0.369592
-0.116791
-0.537404
0.205557
-0.159569
-0.412592
0.210389
0.261746
0.140053
0.216759
0.830254
0.180366
0.171740
1.006271
0.357537
-0.213098
0.396317
0.629885
0.792598
0.740819
1.293177
0.984836
0.577644
1.343877
-0.407800
0.665393
-0.220714
-0.285956
-0.236362
0.035007
0.165248
-0.082576
0.601005
0.704651
-0.234276
0.136671
0.678108
0.404810
0.498068
-0.239644
0.714370
0.342259
0.281970
0.060833
0.421147
0.167017
0.157046
0.118303
-0.265827
0.618801
-1.059486
0.140416
-0.074804
1.317529
-0.100665
0.242185
0.282063
0.335625
-0.508264
-0.156590
-0.353551
-0.361831
-0.026136
0.407759
-0.601970
0.333783
0.662402
-0.633399
-0.083269
0.083048
0.124780
0.259334
0.212597
0.060129
-0.205145
0.399866
0.238096
-0.486787
-0.064990
0.436311
0.170387
0.166319
-0.189223
0.326054
-0.992213
0.734958
-0.391923
0.401076
0.340607
-0.072244
-0.134203
0.401731
0.182009
0.062948
-0.463980
-0.365677
-0.801239
0.220091
0.320009
-0.067956
0.090067
-0.786354
0.628168
-0.357307
0.484821
0.971452
-0.761335
-0.093406
0.299538
0.259714
-0.489502
-0.296983
-0.044128
0.353260
0.208247
0.152512
-0.401684
0.416102
-0.163304
-0.127638
-0.009486
0.274471
0.505511
0.157604
0.606302
-0.124692
0.216653
-0.293641
0.356132
0.668390
0.381535
0.217684
0.544805
0.101800
-0.422835
0.617427
0.580924
0.081435
0.202782
0.032198
0.062545
-0.441395
0.521803
0.152137
0.245490
0.437753
0.145925
0.042334
0.636966
0.095601
-0.075177
-0.320318
1.000523
0.085476
0.511971
-0.336558
-0.226365
-0.364355
-0.249265
-0.027337
-0.212335
0.067279
0.037126
0.607509
0.083985
0.065081
-0.488497
0.184000
-0.026606
-0.157349
-0.356187
0.305033
-0.547306
-0.172625
-0.248929
-0.553431
-0.108960
-0.400751
-0.849980
0.016363
-0.411485
-0.386606
0.405177
0.073066
0.698107
0.999189
1.306500
0.797813
0.879578
0.586879
0.441186
0.834565
0.372574
0.641502
0.349397
-0.117785
-0.243384
0.548219
-0.162329
-0.687546
-0.338668
-0.217806
-0.098205
0.424154
-0.921298
0.522647
-0.660094
0.138707
0.385950
0.776400
-0.216902
0.062905
-0.428929
0.219941
-0.206134
0.234586
0.116325
0.277122
-0.901723
0.124380
0.058244
0.121633
-0.314025
0.362592
0.066081
0.427039
1.039996
-0.008694
-0.459710
0.223708
0.125782
0.644067
0.427791
-0.402915
0.940654
0.145174
0.323941
-0.567341
0.398535
0.094289
0.366312
0.081827
-0.076436
1.053958
0.772380
0.447588
1.200119
-0.344838
-0.805974
1.087809
0.273416
-0.062674
1.113056
-0.204148
-0.480163
0.730657
0.929161
0.103011
0.113902
-0.112843
-0.728777
0.215904
0.359855
-0.097134
0.120053
-0.054047
-0.326220
0.633607
-0.135591
-0.617605
-0.354022
0.110146
0.770821
-0.056254
0.228128
0.242828
0.972085
0.150809
0.231118
-0.042242
0.547622
-0.686239
0.242909
-0.298262
-0.207857
-0.173163
-0.360323
-0.278058
0.947326
0.063013
0.170460
-0.182459
-0.447001
-0.031542
0.628370
-0.621651
-0.156589
0.403593
-0.603190
0.655973
0.175960
-0.021157
0.612895
0.158592
0.440634
0.149237
0.248613
0.357390
-0.001400
-0.275394
-0.653365
0.069685
0.096795
-0.278625
0.128121
-0.419128
-0.112562
-0.936334
-0.306673
-0.157904
-0.445221
-0.283884
0.324120
-0.286673
-0.409479
-0.593530
0.330571
-0.248227
-0.159210
0.073180
-0.176160
-0.047419
0.057346
-0.353738
0.101094
0.056651
0.139837
-0.651555
-0.345260
0.199636
-1.127880
0.153170
0.130137
-0.623131
-0.591176
-0.985067
-0.200593
0.071731
-0.511809
0.161895
0.504146
0.237248
-0.731271
0.735335
1.199925
-0.171306
-0.126512
0.148232
0.298056
-0.552721
0.530903
-0.504141
0.026347
-0.328106
0.549064
0.233706
0.049103
-0.014208
-0.701761
0.472679
-0.622074
0.494684
0.591254
-0.038529
-0.316385
0.469580
-0.866982
0.385241
0.279654
-0.224536
0.639434
-0.338940
-0.646307
0.228913
-0.668133
-0.140118
-0.578650
0.146600
0.185935
0.171915
0.069041
-0.220230
-0.090948
0.260909
-0.064840
-0.084358
-0.262706
-0.467765
0.133713
-0.553222
-0.125945
-0.299045
0.510119
-0.460741
0.341562
0.239605
0.653464
0.535603
0.385728
1.249396
0.809901
0.474211
0.139519
0.386160
0.606542
-0.214572
-0.462016
-1.184509
0.025443
0.458950
-0.140169
0.093568
-0.281040
-0.232346
-0.821083
0.214589
-0.058937
0.140247
-0.188211
0.333757
0.162829
0.370522
0.783810
0.399548
-0.453620
-0.428539
-0.014416
-0.201992
0.038309
0.395251
-0.203004
-0.033564
-0.750269
-0.231301
0.197598
-0.656699
-0.141939
0.323386
-0.156140
0.309837
-0.108201
-0.694279
0.410990
0.120275
0.208543
-0.424780
-0.640590
-0.501882
0.307384
1.022215
0.407584
-0.336292
1.217446
-0.160873
-0.383784
-0.144355
0.396091
0.675473
-0.417698
-0.484973
1.095412
-0.038918
-0.167568
-0.170335
1.003249
0.698241
-0.028632
0.689928
-0.334817
0.554836
0.751087
0.080797
0.568969
-0.022339
0.140324
-0.086625
0.076235
0.013515
0.106253
0.756873
0.189730
0.171028
-0.303688
-0.348466
-0.332457
0.381107
0.318162
-0.260128
-0.000870
0.361441
-0.409463
-0.052249
0.356878
-0.645744
0.100117
-0.842396
0.240513
0.104075
-0.518001
-0.297801
0.653814
0.565516
-0.411581
0.337560
-0.342698
0.045207
0.371389
0.023717
-0.255675
0.269314
-0.428609
-0.466815
0.271832
0.486755
-0.499564
0.137918
0.016744
0.770748
0.561874
-0.407756
-0.297321
0.453642
-0.473637
-0.281121
0.582984
0.102928
-0.428411
0.501700
-0.113865
-0.050251
0.335675
-0.425517
0.210694
-0.126151
0.007270
0.266490
0.284107
-0.591775
-0.229914
0.714111
-0.187898
-0.012491
-0.683002
0.748304
-0.462306
-0.407656
0.428083
0.016332
-0.409875
0.189619
0.179216
0.205712
0.331269
0.304235
0.574827
0.588048
-0.197276
0.457191
0.057662
0.138205
0.128001
0.364416
-0.056663
0.019181
0.597591
-0.158720
-0.298844
0.058742
0.502677
0.013512
0.163444
0.115130
-0.495736
0.484009
-0.040606
1.083156
-0.036319
0.024142
0.387183
-0.058919
0.535474
-0.336238
0.286007
-0.381269
0.082877
0.561484
0.078926
-0.540334
-0.175378
-0.514885
-0.023768
0.426810
0.908805
1.048168
-0.078400
0.234482
-0.873789
0.522889
-0.484076
0.476088
-0.294691
-0.404447
-0.232679
-0.186268
0.769926
-0.758193
-0.050550
0.132471
-0.181004
-0.021160
-0.025013
0.174415
-0.213143
0.588548
-0.268429
-0.179850
0.149666
0.675490
0.931532
1.294104
0.713566
1.360296
0.076798
0.180413
-0.510614
-0.391461
0.300919
-0.522239
0.183160
-0.678706
0.350457
0.061375
0.248380
-0.062036
0.761482
0.436044
0.529669
0.146325
0.716964
0.235386
-0.091554
0.905459
-0.123460
-0.338689
0.511508
0.206063
0.011169
0.377747
0.341831
-0.297471
0.187727
-0.421396
0.062693
-0.387450
0.085379
0.048591
0.823713
0.454472
0.453222
0.150024
0.272789
-0.253511
0.920224
0.024397
-0.212040
0.057690
-0.015062
0.074184
0.713775
0.261747
0.565319
0.632645
0.378260
0.896608
0.313883
0.457561
0.744640
0.852086
0.210045
0.157200
0.387897
0.407309
0.327852
-0.365636
0.183921
0.459350
0.257470
0.340350
0.584415
-0.017850
0.356057
0.387626
0.160975
-0.037746
0.702442
-0.254042
-0.060896
0.073159
0.899346
0.344633
-0.281394
-0.167824
0.203213
0.138836
-0.132753
-0.519106
0.710610
0.375207
-0.610415
0.006071
-0.986827
0.333656
0.590674
0.348955
0.013599
-0.191808
0.145035
-0.564445
1.127317
0.223008
0.567248
0.189358
0.555913
-0.058555
-0.768256
0.308852
0.111356
-0.449855
-0.345512
0.087152
-0.518293
-0.436859
-0.029541
0.148682
0.238858
0.467164
0.085430
-0.450996
-0.236718
-0.424091
-0.874376
0.599630
-0.175266
-0.235661
0.555660
0.772551
0.230160
0.288438
0.032728
0.103830
-0.067829
0.322831
-0.018755
-0.314974
0.207438
-0.104642
-0.214445
0.023413
0.018558
-0.079905
-0.780093
0.109829
0.147342
-0.087102
0.036561
0.182827
0.336750
-0.399913
0.286312
0.237254
0.811596
-0.183765
0.086261
0.849844
-0.491039
0.751259
0.320225
0.038866
-0.239030
-0.516113
0.518449
-0.623080
0.472726
0.587675
-0.228661
0.178055
0.036331
0.038262
1.062324
0.115976
0.229686
0.046774
0.071754
-0.166288
0.510076
-0.392438
-0.509557
0.398736
0.656860
0.306025
-0.481210
-0.202834
0.276887
0.337798
0.133435
-0.089574
0.571880
-0.105572
-0.330461
-0.057291
0.137222
-0.358044
0.430666
-0.090941
0.231582
0.338547
-0.630952
0.355311
0.380519
0.412842
0.191707
-0.686971
-0.501466
0.112910
0.277046
0.733425
0.008831
-0.345060
0.505092
0.152821
0.541574
-0.097246
0.477394
0.137945
0.870131
0.474421
0.183361
1.014621
1.140344
0.710459
0.373947
0.719305
1.186131
-0.083131
0.602257
0.717223
-0.360505
0.116800
0.725967
0.181493
0.202867
0.370901
0.207681
-0.045699
-0.180429
-0.301241
-0.491874
0.139361
-0.417463
-0.188623
0.472427
0.380194
1.111095
-0.156936
0.032994
0.310399
0.077933
0.378222
-0.577688
0.594103
0.601774
0.552519
0.289130
-0.056377
0.407406
-0.343984
0.300624
0.205200
0.321760
0.060707
-0.253143
0.754921
0.751248
0.544311
-0.152350
-0.582485
0.056720
0.482471
0.243761
0.856656
1.190991
0.262502
-0.138230
-0.185898
0.674054
-0.006061
0.706629
0.096468
0.699409
1.213595
1.217250
-0.354526
-0.290373
0.790636
0.142833
0.804864
-0.786815
-0.034168
-0.382613
-0.603178
0.098412
-0.473445
0.060262
-0.174206
0.166361
0.160371
0.273805
0.357804
0.018041
-0.128708
-0.520457
0.363740
-0.251734
0.191483
0.113685
0.308980
-0.039863
-0.275139
0.802201
0.063085
-0.711617
-0.025713
0.464589
-0.174443
0.341324
0.168332
0.290300
0.488235
0.356117
0.421294
-0.296911
0.170989
0.546212
0.180086
0.754499
0.391022
0.469358
0.102574
0.560233
0.357893
-0.231315
0.239875
-0.236272
0.076870
0.707451
-0.215863
-0.158545
0.371539
0.576513
0.240881
-0.113853
0.333597
0.354756
0.167056
-0.296384
0.803029
0.020076
-0.766953
0.024612
0.728077
-0.823502
-0.359617
1.042383
0.373932
0.820560
0.543260
0.550029
0.120510
0.580983
0.001345
-0.429785
-0.146507
0.834492
0.383118
0.084931
0.019108
0.101602
-0.186887
0.023710
-0.628328
0.183481
-0.452361
0.008045
0.295835
-0.246528
-0.376766
0.106906
0.061711
0.177401
0.498311
0.263084
-0.238825
-0.082848
-0.309213
0.063486
0.353416
0.661730
-0.025852
-0.008274
0.534919
0.949551
0.381592
-0.209405
-0.151182
-0.736380
-0.290248
-0.029776
-0.124997
-0.518118
-0.275255
-0.468932
0.391425
-0.559859
-0.052255
0.139949
0.433590
-0.296200
0.440473
-0.202345
-0.392970
-0.013511
0.605986
-0.377648
-0.345593
0.200738
0.119788
-0.355833
-0.367382
-1.051494
-0.603881
0.316469
0.268249
-0.487909
-0.007078
0.401215
0.175435
1.118026
-0.355390
-0.713606
0.404751
-0.113182
-0.414043
-0.280717
-0.061392
-0.416329
0.133743
0.336208
0.950072
0.027132
1.070431
0.937366
0.361845
0.596938
1.082425
0.324530
-0.415221
-0.210666
-0.299821
-0.561231
-0.532520
-0.435207
-0.342206
-0.678646
-0.776194
0.779637
0.079385
0.145104
-0.163900
0.269732
0.000281
0.219631
-0.217050
-0.576996
0.209138
-0.154428
0.149206
-0.087708
0.864328
-0.267992
0.353794
-0.869258
0.144638
0.051149
0.086047
-0.078515
0.089114
-0.248076
-0.454172
0.337381
0.762488
0.492533
-0.058272
-0.008154
0.169728
-0.660529
-0.165769
0.153579
0.235891
0.715324
0.377025
0.535098
-0.127878
-0.549588
0.174863
-0.272832
0.196382
0.647765
0.503782
0.327145
0.302376
0.324666
0.606408
-0.573258
-0.391314
-0.089202
0.045876
0.924052
0.074794
0.171262
0.105925
-0.081640
0.291509
-0.151640
0.678031
-0.498482
-0.243714
-0.381389
-0.364339
0.289183
0.663677
-0.343537
0.622230
0.465090
0.109279
-0.084205
-0.170045
-0.288163
-0.593407
0.004417
0.793780
-0.321976
-0.555632
-0.203768
-0.240448
0.198244
0.178923
0.250627
-0.517178
0.313498
0.079588
0.500240
-0.168676
0.277532
-0.625922
-0.029366
0.378676
-0.803561
0.106721
-0.047958
0.399634
-0.181122
-0.046949
0.567206
-0.520506
-0.341617
-0.370758
0.568329
-0.210902
0.141639
-0.049491
0.318677
-0.009972
0.295801
-0.067370
-0.368211
-0.161025
-0.703089
0.104306
-0.375639
-0.787560
0.372669
0.733995
0.042548
-0.073717
-0.411078
-0.277207
-0.020930
0.303621
-0.414084
-0.411306
-0.000346
0.051242
0.040732
-0.304324
0.084161
0.360820
0.266358
-0.078406
-0.473772
-0.169397
0.358583
0.199537
-0.885708
0.187656
-0.158097
-0.443132
0.400471
-0.034361
-0.526068
-0.836749
-0.241915
0.589621
-0.104629
0.032401
-0.276348
-0.343231
0.078720
0.259718
-0.076202
-0.395532
0.412530
-0.389340
0.626499
-0.419333
0.425277
0.068124
0.595717
0.512798
0.468601
0.166790
0.593959
-0.851688
0.903344
-0.020727
0.485836
-0.980155
-0.072992
0.019714
0.026282
0.779712
0.648860
0.498827
0.250813
0.356054
-0.003619
-0.594435
0.107017
-0.560934
-0.946299
0.005780
0.284507
0.224887
0.031535
-0.147772
0.201647
-0.218045
-0.051273
-0.721317
0.345537
-0.625328
-0.106908
-0.149453
0.192994
0.140269
0.473659
-0.381621
0.198571
-0.298308
0.042239
0.309917
1.500000
0.804772
0.550907
0.273918
0.474052
0.378984
0.688386
-0.225889
0.353108
0.069897
-0.550548
0.036937
0.207981
-1.103178
0.203764
0.250439
-0.044185
0.689873
-0.719770
-0.044759
-0.041541
-0.621754
-1.094040
-0.052668
0.171428
0.247470
0.036238
-0.034966
-0.047612
0.323436
0.398483
0.230483
0.502832
0.400395
-0.295775
0.465790
-0.350879
0.459427
0.042389
-0.045167
-0.265987
1.167607
0.272380
0.715792
0.046589
0.341511
0.578115
-0.042086
0.759880
0.606712
0.132352
0.058592
0.541744
0.465791
1.025885
0.150442
0.448212
0.650419
1.394200
0.609060
0.439206
-0.047786
0.008859
0.054511
-0.090085
0.085461
0.810508
0.090216
-0.331675
0.274186
-0.306571
0.593973
-0.324419
-0.148709
-0.850454
-0.350719
0.488009
-0.147296
0.205944
0.216455
-0.201262
-0.380357
-0.075800
-0.061466
0.445437
0.412005
-0.152257
-0.161929
-0.153143
0.775857
0.007506
0.176262
-0.265500
-0.373425
-0.453691
-0.649848
0.309769
0.582611
-0.516129
0.325135
0.520710
1.055864
0.468363
-0.215452
-0.423044
0.905040
-0.249493
-0.870394
-0.179185
0.176866
-0.238962
-0.072414
-0.001762
-0.734926
0.046458
-0.030354
0.323698
0.135866
0.232606
-0.365474
-0.264763
-0.226873
-0.485697
0.285455
-0.836607
-0.022315
-0.003664
0.352292
-0.503118
0.114108
0.729505
-0.089708
0.129016
-0.398569
-0.243897
-0.235095
0.683480
0.030755
0.033579
0.989540
-0.583355
0.180453
0.238705
-0.456865
0.446970
0.467438
-0.407009
-0.496822
0.887184
-0.744068
0.565110
0.213116
0.299632
-0.348255
-0.190000
-0.037126
0.199017
-0.088579
0.159025
0.233216
-0.386147
0.169139
0.319582
0.618531
0.257659
0.098215
0.972990
-0.266979
0.120078
-0.160296
0.260526
0.209945
0.016499
-0.595551
-0.104637
-0.094922
-0.105214
0.495932
0.104978
0.792736
0.592066
0.739743
-0.048263
0.266715
0.430548
0.455359
0.278288
-0.134284
-0.037882
0.595909
0.384303
-0.162803
0.147173
-0.239963
-0.126598
0.713738
0.119645
-0.561421
-0.569355
-0.773273
-0.520122
-0.143465
0.166931
-0.583017
0.104524
-0.278189
0.221692
0.247265
0.572105
0.216446
0.714879
-0.215431
-0.820320
0.598291
0.622127
-0.427051
0.609645
0.506501
0.867163
0.794109
0.729904
0.948851
0.825428
0.630696
0.490288
1.283043
-0.335619
0.056976
0.343221
-0.224018
0.689371
-0.708874
-0.633847
0.476865
-0.110697
0.451495
-0.431498
0.275870
0.130662
-0.207557
-0.344473
-0.015518
0.236788
0.478874
-0.097864
-0.133514
-0.623158
0.410102
0.326439
-0.090623
-0.341883
0.347777
-0.278918
0.482181
-0.147492
0.755140
0.159709
0.206472
0.194153
0.159679
0.789126
0.623788
-0.423014
-0.080838
0.269329
0.118279
0.303969
0.449161
-0.043650
0.086319
0.546098
0.350866
0.463070
0.945539
0.461648
0.112129
0.380949
0.523566
0.630335
0.349630
0.292242
-0.142283
1.059517
0.683871
-0.273215
0.523473
0.046759
0.037585
-0.148920
0.538212
-0.021222
-0.222832
-0.020942
0.725649
0.265989
0.375460
-0.295624
0.438833
0.316961
0.476618
-0.237828
-0.069456
0.058279
0.559679
0.130931
-0.077856
-0.171360
0.186593
0.397841
-0.884548
-0.236904
-0.227230
0.298229
0.050732
0.164688
-0.349699
-0.326700
-0.188272
0.235499
0.553730
0.387783
-0.171063
0.170551
0.306734
-0.252901
-0.450013
-0.613170
-0.442392
0.211925
0.089530
0.316345
-0.031780
0.550617
0.769259
0.014699
0.372239
0.235822
-0.367910
-0.211750
-0.169457
-0.170129
0.043228
-0.126691
0.261010
-0.336809
0.582467
0.120179
-0.578840
-0.342898
0.039014
-0.237086
0.293580
0.048430
-0.433576
0.522370
0.556235
-0.286299
0.299866
-0.512015
-0.001139
-0.555676
0.637675
-0.158280
0.485206
1.171679
-0.775833
-0.282240
0.570455
0.416413
0.167563
0.443242
-0.024032
0.287296
-0.726099
0.444429
-0.053151
-0.439225
-0.644861
-0.321342
0.298530
-0.055759
0.561269
0.334590
-0.194449
-0.485163
0.544876
-0.045495
-0.014430
0.332817
-0.359679
0.296036
0.074756
-0.058908
-0.368670
-0.224520
0.042920
-0.458040
-0.305495
0.251000
-0.005598
-0.388855
0.064350
-0.446551
0.114042
0.023823
0.558873
-0.437108
-0.002134
-0.168492
-0.331687
-0.103614
0.032921
0.356519
0.434444
-0.127760
0.767633
-0.197655
0.598678
-0.058409
-0.083820
0.015728
-0.206741
0.015117
0.093325
0.277996
-0.087873
-0.084359
0.525232
-0.156910
-0.456103
-0.251890
0.068396
-0.203366
0.148082
-0.167666
0.879763
-0.031278
0.487817
0.790932
0.240043
0.611034
0.680056
-0.015960
0.748315
0.408853
0.780417
-0.420964
-0.480150
0.055430
0.378660
0.501222
-0.187986
-0.177898
0.939538
0.001252
-0.135204
0.629589
0.120259
-0.050730
-0.047615
-0.641241
0.290984
-0.843944
0.198249
-0.784354
-0.949974
-0.210089
1.078770
-0.121174
0.215869
0.021307
-0.460802
0.056601
0.259689
-0.061839
0.047956
1.223317
-0.022595
0.036554
0.036119
0.219742
0.100017
-0.198043
-0.419525
-0.598651
0.138913
0.071583
-0.059050
0.212746
0.627426
0.868280
0.183086
0.530878
0.233379
0.527333
-0.001653
0.036483
1.115974
0.060239
0.280563
0.204023
0.532928
0.981620
0.097188
0.257828
-0.044310
0.702867
0.406820
0.419371
0.427897
-0.332643
0.277262
0.255638
0.073316
0.501132
-0.110267
1.074423
0.137740
-1.224932
0.370729
0.693459
-0.170754
0.067521
0.094531
-0.097098
-0.174718
0.734948
0.814028
-0.133387
-0.293113
-0.235452
-0.471730
0.403318
-0.221392
0.785048
-0.210837
0.232357
-0.451073
-0.734752
-0.128607
-0.727290
-0.468934
-0.845481
-0.290231
0.733424
-0.711885
-0.958274
0.384868
-0.222463
-0.143916
0.277371
-0.062316
-0.112654
-0.278051
-0.464562
0.672572
-1.076987
0.275808
-0.118633
-0.690459
-0.607962
-0.207416
0.123934
0.371992
0.223560
-0.549067
-0.079526
-0.378507
-0.009778
0.491716
-0.636902
-0.130867
-0.662901
-0.463561
0.099436
0.824109
0.205984
0.311410
0.522856
-0.824753
-0.487165
-0.429224
0.088199
-0.169060
-0.156857
-0.109714
-0.041713
-0.737844
0.834609
-0.000886
-0.243666
-0.485093
-0.008011
-0.069629
0.338367
0.222430
-0.186879
-0.472345
-0.265408
0.356266
0.284856
-0.104570
0.146194
-0.619251
-0.259298
0.260886
0.189389
-0.087148
-0.709604
0.720331
-0.297375
-0.162240
0.095738
-0.411443
-0.236364
-0.694384
0.477478
0.265935
0.151798
0.117734
0.307523
0.193162
0.421529
0.517134
0.306130
0.016694
0.099215
-0.138143
0.465893
0.165048
0.662398
0.332323
-0.346595
-0.042810
0.591940
0.533239
-0.459590
0.274981
0.251860
0.125545
-0.013348
-0.430259
-0.137815
0.290709
0.214098
-0.009764
-0.291945
0.241499
-0.278813
0.021625
-0.576070
-0.504792
-0.139499
0.069568
0.204747
-0.216443
-0.449235
0.235087
0.181901
0.512899
-0.113415
0.659626
0.425234
0.424434
0.416454
0.310508
-0.463077
0.551840
-0.050858
-0.507529
-0.437619
-0.336055
0.640050
0.065378
-0.308170
-0.794979
-0.656650
-0.091997
0.541982
0.315913
-0.254760
0.622039
0.412388
-0.219794
0.524521
-0.980443
-0.404687
0.242364
-0.529187
0.450042
-0.235552
0.235507
0.109662
0.338980
-0.644166
-0.007836
-0.235092
-0.256118
-0.229285
0.074986
0.166553
-0.143788
-0.672547
0.468680
0.236277
0.932117
0.603975
0.006507
0.721263
0.113318
-0.049193
0.346979
-0.325607
0.032767
-0.357962
-0.028135
0.414738
-0.554936
1.019765
0.605105
0.335680
-0.033247
-0.128345
0.220977
0.194806
0.214496
-0.526179
0.139878
1.173686
0.492873
0.235129
0.439340
-0.116698
-0.172949
0.191988
-0.287529
-0.353828
-0.311392
0.467279
-0.337794
0.357609
0.069450
-0.031572
-0.109884
0.277118
0.155068
-0.107347
-0.696110
-0.189251
-0.307636
0.445275
0.992279
0.363247
0.953323
0.752671
-0.125294
-0.045643
0.401695
0.037753
0.153186
-0.371980
-0.613085
0.227501
-0.065133
0.047473
-0.247134
0.850102
-0.333746
0.263680
-0.071850
0.033792
0.325259
-0.364425
0.714266
-0.094048
0.225409
0.259380
-0.199195
0.098292
-0.088300
-0.700631
-0.024626
-0.392501
-0.550401
0.410643
-0.202076
0.411779
-0.307524
-0.616422
-1.107111
-0.125225
0.068582
-0.827749
-0.298026
0.396266
-0.515165
0.123935
0.323153
0.107302
0.297031
0.334382
0.327999
-0.552157
-0.682871
-0.142740
-0.357616
-0.381500
0.103912
0.575730
-0.227934
0.336345
-0.248670
0.421677
-0.254018
0.750994
0.362038
-0.870887
-0.616073
0.046067
-0.259640
-0.146698
-0.015151
0.198851
0.101371
-0.094802
0.205055
0.434395
0.455490
-0.196302
0.445051
0.175301
-0.394548
-0.392886
0.087383
-0.124523
0.672240
0.017529
0.777595
-0.154823
-0.143358
-0.713852
-0.052631
-0.487211
1.245770
0.195305
0.049535
0.616733
0.041536
0.005636
-0.372755
-0.406818
-0.582626
-0.150443
0.078151
0.804011
0.066016
0.202109
-0.087082
-0.025551
-0.009430
-0.064692
-0.001704
0.349362
0.392799
0.287356
-0.192568
-0.188454
0.474337
-0.621895
0.343969
0.027755
-0.005747
-0.384596
1.043544
0.139658
0.515132
0.342213
0.016672
-0.634129
0.148370
-0.281730
0.410289
0.953775
0.755862
-0.026987
0.367614
1.335787
0.353396
-0.187922
-0.072081
-0.203699
0.091952
-0.240530
-0.966306
0.361354
-0.685088
-0.651508
-0.256565
-0.370381
0.170078
-0.877930
0.080405
0.661039
0.669918
0.339794
-0.045903
0.811509
0.679439
0.341266
0.104070
0.262100
0.375109
0.478552
-0.415308
-0.333834
0.254534
0.436606
0.226744
-0.355944
-0.407957
0.842174
-0.201196
0.287013
0.288874
0.818566
-0.093835
-0.256539
0.361257
0.273470
0.574475
-0.047311
0.217932
-0.305612
0.229780
-0.430941
0.005374
0.432242
0.227852
-0.211418
0.499327
0.594525
0.839570
0.029682
-0.220186
-0.302530
0.007321
0.197096
0.083281
0.431676
0.754323
0.302069
-0.256780
0.797826
-0.183210
-0.455776
-0.010460
1.241959
0.364905
0.172406
0.304478
0.242096
-0.072505
0.293947
0.614022
0.384619
-0.317536
0.302560
0.064875
0.155718
0.193775
-0.261722
0.302621
0.262391
0.100685
0.160928
0.014367
0.835644
-0.044900
-0.172682
1.063408
-0.342159
1.002745
-0.250294
-0.652991
0.219583
0.393675
0.956891
0.521845
-0.517008
-0.722724
0.096920
-0.174115
-0.081093
-0.192274
0.007967
-0.307540
-0.464384
0.327271
-0.588519
0.383191
-0.280538
-0.215859
0.027660
-0.391737
0.289401
0.164896
0.148073
0.298391
0.078992
0.829647
-0.253921
-0.063509
-0.339803
0.137452
0.272965
-0.372036
-0.287036
-0.334273
0.647577
-0.069413
0.688676
0.651800
-0.058503
0.102795
-0.534886
0.175640
0.107050
0.219080
-0.028767
-0.035998
-0.312421
-0.279659
-0.087052
0.318362
0.786579
-0.969813
-0.123857
-0.010910
0.528851
0.232321
-0.185192
0.299810
-0.160378
0.466829
0.246162
-0.240961
0.500978
-0.761557
0.365739
-0.363109
0.405558
-0.240820
-0.046682
1.057091
-0.306254
-0.233853
-0.131789
0.301072
0.283313
0.453891
0.519207
0.339476
0.049252
0.707940
0.005171
-0.428091
-0.410332
0.516382
-0.290926
0.137191
-0.071622
0.072038
-0.121077
0.834260
-0.423715
0.294079
0.403353
-0.635193
-0.433512
-0.010512
0.422996
-0.610948
-0.362716
-0.448526
-0.451796
0.127260
0.078399
-0.120045
1.160234
