-0.026895
-0.058303
-0.044023
0.013261
-0.018930
-0.046484
0.053859
-0.043510
0.018620
-0.016921
0.040322
0.049153
0.049715
0.035037
-0.011006
0.161301
0.015634
0.050267
-0.018934
0.065208
0.013526
0.003464
0.017230
0.051897
0.003107
0.058276
0.077674
0.113119
-0.045622
0.057893
0.115316
0.053272
0.072090
0.137397
0.081883
0.047120
0.160558
0.141015
0.147993
0.171957
0.167499
0.160541
0.197589
0.182705
0.199217
0.132041
0.194160
0.185045
0.194771
0.225053
0.228548
0.229643
0.110152
0.163608
0.276632
0.149798
0.130945
0.167623
0.130809
0.117056
0.115817
0.033620
0.101545
0.057983
0.010828
0.091943
-0.010272
0.096432
0.070050
0.054225
0.024189
0.085465
0.042301
-0.002605
0.101445
0.005639
0.091515
0.140323
0.096357
0.026236
0.073415
0.004273
0.071071
0.017829
0.151110
0.227712
0.583446
0.872317
1.247140
1.417164
1.366698
1.295987
0.971311
0.596163
0.315495
-0.037886
-0.203220
-0.250698
-0.156319
-0.166555
-0.043150
0.015132
0.083616
0.073767
0.099335
0.048727
0.091970
0.114693
0.047573
0.115777
0.165086
0.098212
0.077132
0.166591
0.056540
0.200001
0.100963
0.215634
0.186555
0.117568
0.259980
0.159765
0.197001
0.272104
0.234739
0.290168
0.325141
0.265581
0.324116
0.384474
0.282711
0.312259
0.375551
0.429109
0.489251
0.460855
0.411846
0.497889
0.533049
0.564662
0.529102
0.493302
0.554838
0.527663
0.527883
0.573566
0.578366
0.549034
0.638284
0.505953
0.595584
0.591077
0.554430
0.476002
0.452526
0.510466
0.409215
0.425378
0.366735
0.484839
0.411925
0.320616
0.410768
0.307466
0.269091
0.243319
0.227753
0.265859
0.265829
0.206352
0.253143
0.208421
0.195353
0.194019
0.098275
0.196399
0.173620
0.148617
0.230464
0.096718
0.074677
0.145917
0.108847
0.096813
0.061953
0.080968
0.056356
0.117663
0.063331
0.148241
0.081506
0.107204
0.127925
0.139320
0.100863
0.055381
-0.006618
0.087875
0.140354
0.055675
0.068279
0.049454
0.126325
0.103709
0.132283
0.100415
0.041908
0.032240
0.126461
0.086924
0.048109
0.098809
0.084488
0.068504
0.051359
0.053151
0.093587
0.156683
0.079420
0.070842
0.109277
0.121710
0.120706
0.086615
0.022806
0.084970
0.115858
0.112418
0.063623
0.089297
0.085498
0.155268
0.093909
0.056841
0.131440
0.112369
0.064118
0.041762
0.086974
0.126351
0.102646
0.066674
0.046098
0.088549
0.073046
0.029890
0.047602
0.055025
0.127694
0.046221
0.235075
0.062681
0.071463
0.155014
0.132305
0.113948
0.158070
0.123482
0.254867
0.225727
0.153633
0.189032
0.251477
0.164672
0.136182
0.188278
0.256681
0.212613
0.193163
0.212615
0.260902
0.144672
0.340597
0.186006
0.205225
0.266811
0.216604
0.113052
0.204476
0.174315
0.174705
0.157006
0.180481
0.123918
0.159097
0.124901
0.148352
0.072910
0.070999
0.035794
0.144854
0.148812
0.128683
0.137494
0.132955
0.045209
0.015160
0.035014
0.087893
0.057842
0.001727
0.047120
0.016797
-0.019696
0.037248
-0.021570
0.022653
0.017444
0.087247
0.372714
0.606675
0.943351
1.255893
1.376450
1.425755
1.248720
0.913571
0.522083
0.278629
-0.000278
-0.166306
-0.336674
-0.173867
-0.171014
-0.100715
-0.070442
0.021763
0.105119
0.000484
0.129098
0.088652
0.067548
0.054756
0.046411
0.092647
0.084958
0.129647
-0.015504
0.038771
0.025679
0.126397
0.165476
0.203306
0.169735
0.128096
0.230880
0.151952
0.196566
0.242015
0.196371
0.267562
0.326667
0.257230
0.314028
0.355617
0.332844
0.408056
0.446581
0.332373
0.443074
0.446959
0.492086
0.501660
0.485668
0.586300
0.546071
0.497619
0.560309
0.536598
0.518076
0.574230
0.586575
0.563974
0.581226
0.449220
0.458872
0.450586
0.412752
0.481223
0.412752
0.404316
0.385114
0.321612
0.372728
0.286846
0.348792
0.269936
0.298004
0.188433
0.289187
0.157506
0.218055
0.212739
0.156057
0.117709
0.097923
0.137118
0.136534
0.023755
0.072890
0.069332
0.107907
0.035391
0.039931
-0.000221
0.027778
-0.060504
0.004231
-0.016679
0.043190
0.086460
0.019161
0.011805
-0.043628
0.027069
-0.051007
-0.013916
0.018427
0.025128
0.029554
-0.026322
0.065013
0.028369
0.021257
0.038628
-0.006818
-0.046065
0.021591
-0.042696
0.033385
-0.002134
-0.009701
0.033273
-0.007551
-0.111593
-0.100912
0.006048
0.004248
0.055351
-0.013534
-0.028577
-0.005469
-0.053775
0.059182
-0.060533
-0.082182
-0.025786
0.004893
-0.007358
-0.074092
0.019462
-0.004765
-0.009679
-0.050042
-0.104600
0.027402
0.060319
-0.085392
-0.023879
0.090243
-0.019004
-0.001649
0.029437
-0.054681
0.010860
-0.055572
-0.040566
-0.005660
-0.004566
-0.015758
0.007870
-0.040416
0.007861
-0.058872
-0.028402
0.022174
0.066700
0.043441
0.141379
0.060735
0.041138
0.078114
0.096572
0.105802
0.016000
0.158452
0.034311
0.061009
0.167828
0.118299
0.156454
0.127731
0.179055
0.091563
0.145759
0.166328
0.123566
0.123642
0.149950
0.092473
0.075862
0.063201
0.124385
0.043245
-0.003919
0.075080
0.038639
0.027096
0.000506
0.056034
0.086512
0.032355
-0.007367
0.005245
0.023113
-0.026519
0.033960
0.011974
-0.035206
-0.001382
0.045775
-0.017874
-0.083500
-0.090180
-0.042942
-0.060749
-0.040292
-0.042213
-0.130343
-0.044097
-0.018094
-0.037457
0.005826
0.273160
0.604693
0.867177
1.153977
1.266578
1.181729
1.144011
0.829613
0.362458
0.064635
-0.119896
-0.237293
-0.329046
-0.312610
-0.269226
-0.200228
-0.086845
-0.042427
-0.009288
-0.024372
-0.005207
-0.093909
-0.096283
0.044880
-0.004582
-0.012719
-0.056766
0.016585
0.026232
0.013180
-0.020622
0.019671
0.152381
0.109075
-0.069929
0.089813
0.126883
0.094064
0.183015
0.150407
0.144856
0.178637
0.175888
0.182348
0.168016
0.291877
0.263629
0.261467
0.288499
0.326157
0.313248
0.325094
0.343133
0.326743
0.431538
0.373845
0.428154
0.484285
0.486351
0.496057
0.404434
0.549798
0.483406
0.435116
0.398771
0.472592
0.407118
0.400376
0.356846
0.383597
0.362088
0.326723
0.324050
0.177518
0.344548
0.238549
0.284497
0.136583
0.186174
0.173729
0.165132
0.149083
0.151702
0.127707
0.113222
0.122729
0.014789
0.109769
0.053681
0.055529
0.005262
-0.040237
0.016923
-0.035587
0.056031
0.002153
-0.014298
0.012882
0.018851
0.042338
-0.017394
0.026934
-0.077519
0.006078
0.004928
-0.003920
-0.057512
-0.041973
-0.051469
-0.024057
-0.041843
0.003114
0.034744
-0.026123
-0.009157
0.024345
0.041669
0.041927
-0.081966
-0.013853
-0.050977
-0.025606
-0.101240
0.008438
-0.067757
0.038397
-0.035273
0.033055
-0.074152
-0.037339
-0.009237
-0.015091
-0.072969
0.061548
0.055494
-0.005161
0.043566
-0.102221
-0.034318
-0.046045
0.031995
-0.026846
-0.010005
-0.023505
-0.045064
-0.055061
0.007938
-0.031752
-0.065373
-0.047408
-0.044285
0.007822
0.011466
-0.058306
-0.039322
-0.053558
0.015730
0.001151
-0.032061
-0.028528
0.106331
-0.022966
0.001148
0.001587
0.093015
-0.021382
-0.007220
0.074629
0.040127
0.140546
0.081212
0.121199
0.021654
0.147461
0.184189
0.111737
0.138762
0.197095
0.083739
0.210101
0.142348
0.157099
0.186308
0.207077
0.173604
0.211202
0.158753
0.290746
0.154714
0.176358
0.071167
0.157972
0.186378
0.181047
0.103190
0.116241
0.104359
0.025687
0.089385
0.087530
0.121015
-0.027199
0.037026
0.048223
-0.007089
0.026596
0.024530
-0.007859
0.019633
0.065124
0.010961
-0.066886
0.024919
0.016422
0.060190
-0.030092
0.059191
0.004003
-0.067995
-0.005544
-0.006183
-0.061434
0.056883
0.162053
0.412132
0.652463
0.986262
1.244728
1.364974
1.385994
1.163119
0.930848
0.507096
0.165659
-0.094185
-0.186073
-0.276250
-0.194822
-0.170862
-0.072351
-0.009274
-0.049152
0.071930
-0.006097
0.045686
0.133590
0.031791
0.026754
0.026942
0.125706
0.095839
0.060573
0.039035
0.092718
0.155046
0.132725
0.135173
0.168800
0.129421
0.136197
0.153371
0.200814
0.281627
0.256625
0.292168
0.284017
0.284761
0.318629
0.326612
0.318912
0.436861
0.422358
0.434429
0.468349
0.434098
0.477994
0.359570
0.523002
0.528103
0.643498
0.500932
0.596172
0.572491
0.535112
0.569696
0.529309
0.515573
0.594513
0.559405
0.585317
0.531543
0.469620
0.501556
0.551502
0.453304
0.519171
0.387081
0.371651
0.414315
0.287467
0.325169
0.342586
0.337244
0.314332
0.276593
0.285615
0.213883
0.203500
0.165871
0.219988
0.193765
0.135509
0.165413
0.163519
0.165272
0.181524
0.188814
0.197818
0.135280
0.148165
0.119979
0.033106
0.091436
0.094919
0.042250
0.081206
0.006675
0.137521
0.020291
0.097480
0.094069
0.063116
0.092576
0.129769
0.124952
0.053446
0.066795
0.092279
0.063189
0.086025
0.119092
0.089889
0.086872
0.058966
0.089489
0.095771
0.154792
0.040853
0.043677
0.102852
0.023643
0.055824
0.039735
0.032720
0.137495
0.078429
0.100169
0.079717
0.021544
0.110414
0.153416
0.062269
0.043637
0.109941
0.103066
0.079906
0.044269
0.025127
0.083940
0.116441
0.073443
0.104064
0.122440
0.113462
0.101427
0.067422
0.183659
0.102067
0.095627
0.104545
0.127262
0.064063
0.061315
0.125874
0.011684
0.080628
0.095730
0.186504
0.135502
0.116881
0.141332
0.192595
0.179152
0.047485
0.076864
0.150956
0.203401
0.268758
0.202480
0.178577
0.197071
0.298272
0.200959
0.274341
0.298181
0.280812
0.169120
0.238536
0.307272
0.294392
0.307567
0.324539
0.323176
0.238360
0.253265
0.174448
0.258104
0.218197
0.162061
0.194097
0.123788
0.213309
0.097742
0.174396
0.101740
0.113052
0.115588
0.133310
0.107996
0.085546
0.113356
0.130494
0.075165
0.100716
0.149396
0.076695
0.147086
0.099198
0.101517
0.108126
0.017318
0.068869
0.033458
0.057537
-0.025230
0.059452
0.048743
0.228100
0.453236
0.732410
1.043063
1.366571
1.500000
1.386241
1.211788
0.905128
0.430014
0.188304
-0.042184
-0.189467
-0.186748
-0.106806
-0.085131
-0.014911
0.032078
0.052896
0.072763
0.130135
0.155970
0.115047
0.230317
0.142103
0.131206
0.158462
0.177174
0.189121
0.114553
0.174042
0.105395
0.137855
0.180687
0.154843
0.194807
0.187129
0.162783
0.226535
0.235170
0.274606
0.333547
0.300805
0.354632
0.358920
0.302270
0.344620
0.391718
0.418543
0.422573
0.424511
0.444517
0.513198
0.528790
0.431651
0.480851
0.458749
0.523134
0.543651
0.488468
0.616227
0.542847
0.566644
0.545725
0.538228
0.507879
0.585253
0.577894
0.500429
0.470839
0.559091
0.524162
0.347119
0.383144
0.409903
0.432069
0.393748
0.319384
0.283224
0.291184
0.191775
0.247144
0.238996
0.348722
0.168310
0.293307
0.146286
0.154376
0.203109
0.099327
0.088004
0.101890
0.216909
0.107745
0.041733
0.018436
0.110703
0.126458
0.106198
0.018433
0.021896
0.090696
0.087350
0.044616
0.040891
0.037640
0.062148
0.165464
0.041978
0.034539
0.079855
0.041316
0.057425
-0.006030
0.008505
0.014685
0.009853
-0.046008
-0.045499
0.072015
0.027919
-0.001846
-0.002684
0.020582
0.082108
-0.001167
0.097917
0.020077
-0.026761
0.006518
-0.105411
0.030122
0.019922
-0.008849
0.101230
0.086957
0.008125
-0.022035
0.102086
0.074814
0.037798
-0.005104
0.055405
0.012534
-0.029929
-0.028531
0.004455
-0.033872
0.000134
0.047413
0.085610
0.089340
0.033774
0.078263
0.060946
0.014674
0.105203
0.020065
-0.007671
0.010419
0.007206
0.008039
0.068123
0.036812
0.041651
-0.038932
0.048604
0.005632
0.050031
0.096232
0.096300
0.008348
0.094525
0.085532
0.193778
0.112134
0.045102
0.164811
0.124456
0.171503
0.076240
0.116264
0.105990
0.130012
0.210809
0.179065
0.188994
0.117325
0.185614
0.188839
0.159750
0.108471
0.078702
0.064719
0.071373
0.155660
0.094044
0.108653
0.007651
0.137521
0.063848
-0.012351
0.017324
0.008248
-0.028378
0.016946
-0.021868
-0.043112
-0.020405
0.018754
0.013348
0.037139
0.001626
0.041164
0.024024
-0.059794
-0.056879
-0.047231
-0.032395
-0.004154
-0.023731
-0.104755
-0.095069
0.004642
0.091337
0.277670
0.752748
0.971312
1.291287
1.357190
1.321326
0.968760
0.667716
0.298569
0.049529
-0.176059
-0.388447
-0.316956
-0.261702
-0.171638
-0.098853
-0.089466
-0.054309
0.012116
-0.091053
-0.054535
-0.107853
-0.053022
0.001910
-0.007939
-0.100492
-0.010236
0.023724
-0.012064
0.048563
0.014749
-0.076387
0.016945
0.020871
0.045003
-0.006124
0.121152
0.111571
0.192009
0.118135
0.148787
0.109141
0.108544
0.235744
0.113324
0.283182
0.270415
0.242374
0.321634
0.305073
0.343628
0.314195
0.344500
0.395182
0.393793
0.404868
0.433925
0.459607
0.438002
0.415023
0.454499
0.423011
0.424457
0.475623
0.463796
0.374419
0.341418
0.397186
0.411177
0.313618
0.294202
0.320034
0.241012
0.228772
0.280125
0.279167
0.197840
0.201990
0.069984
0.131524
0.121649
0.077868
0.180038
0.100938
0.126922
0.014592
0.000016
-0.054667
-0.007835
0.067169
0.070699
0.036455
-0.041548
-0.055667
0.023446
-0.010099
-0.098845
0.000492
-0.058283
-0.039781
-0.101475
0.005044
-0.095739
-0.091636
-0.055812
-0.119643
-0.070674
-0.095626
-0.079849
-0.133250
-0.114529
-0.012458
-0.057971
-0.043418
-0.066269
-0.079162
-0.142998
-0.157822
-0.064138
-0.124734
-0.089917
-0.073313
-0.082809
-0.058557
-0.076559
-0.125715
-0.101671
-0.057724
-0.037207
-0.084334
-0.039983
-0.072541
-0.147164
-0.070878
-0.134281
-0.081490
-0.143377
-0.152600
-0.138380
0.006037
-0.038590
-0.137868
-0.030603
-0.054340
-0.047342
-0.155012
-0.092250
-0.138752
-0.058415
-0.020997
-0.065692
-0.019407
-0.110638
-0.159412
-0.049688
0.006709
-0.120527
-0.033902
-0.052645
-0.046102
-0.065684
-0.067746
-0.081425
-0.147054
0.009300
0.012178
-0.084693
-0.049145
0.029654
0.083073
0.075296
0.016004
0.045809
0.001928
0.098513
0.009156
-0.058185
0.139746
0.078194
0.080916
0.129603
0.160027
0.107398
0.136431
0.136429
0.092391
0.135787
0.064453
0.031031
0.105179
0.112098
0.095700
0.089174
0.083086
0.066181
-0.019990
-0.018572
-0.010888
-0.036280
0.057965
-0.072297
-0.060632
-0.005577
-0.089989
-0.079686
-0.021608
-0.026313
-0.045557
-0.036605
-0.079220
-0.034901
-0.070618
-0.069905
-0.092055
-0.089313
-0.068829
-0.030849
-0.037413
-0.133328
-0.022041
-0.057597
-0.068587
-0.081779
0.150968
0.359544
0.780791
0.987244
1.246203
1.426435
1.143739
1.022517
0.642027
0.259695
-0.044716
-0.203100
-0.347316
-0.340071
-0.307409
-0.154580
-0.033891
-0.074027
-0.107636
0.003151
-0.088061
-0.036304
-0.024306
0.079234
-0.027391
-0.020615
-0.067236
0.022756
-0.005555
0.034902
-0.000397
0.038297
0.011087
0.009981
0.021654
-0.047909
0.126197
0.124933
0.075625
0.126429
0.129059
0.243769
0.137788
0.169487
0.240970
0.234242
0.321261
0.363992
0.347385
0.358245
0.385154
0.391236
0.376142
0.392937
0.352559
0.429222
0.450211
0.426777
0.361749
0.479804
0.456366
0.550974
0.411359
0.567659
0.462126
0.515283
0.461564
0.419494
0.370101
0.343900
0.310318
0.419542
0.365057
0.362552
0.277133
0.337543
0.258737
0.204384
0.287406
0.188903
0.175183
0.187195
0.130276
0.189644
0.105501
0.157390
0.110432
0.087579
0.120652
0.110133
0.106579
0.037001
0.047169
-0.023221
0.013144
0.033668
-0.009770
0.069904
0.049346
0.002777
0.090263
0.077365
0.050052
-0.016443
0.021518
-0.017039
0.019996
0.009492
0.060383
-0.024223
-0.018964
0.002071
0.049039
-0.017684
-0.033664
0.015178
-0.055651
0.039629
0.018404
0.118384
0.106909
-0.006874
-0.046565
0.012244
0.014219
-0.023982
0.025281
-0.062809
0.025716
-0.019600
-0.049185
0.028845
-0.020719
0.031521
0.055468
0.029827
-0.012417
0.024798
0.041168
0.009453
-0.002105
0.005496
-0.020356
0.008933
0.097857
0.000197
0.066013
0.034029
0.034768
0.078768
0.022032
0.019159
-0.029579
0.009792
-0.011063
0.038706
-0.044707
0.015288
-0.102264
0.039564
-0.013179
0.008737
0.057634
0.068151
0.038863
0.042349
0.044632
0.064936
0.008228
0.045800
0.078279
0.052173
0.119407
0.109081
0.027286
0.148946
0.199364
0.186792
0.116997
0.201197
0.190484
0.213094
0.225288
0.221406
0.175738
0.175324
0.178460
0.227969
0.192940
0.215470
0.252198
0.170166
0.177856
0.077681
0.149753
0.161804
0.128492
0.087734
0.103008
0.172044
0.121754
0.012796
0.103910
0.112843
0.116001
0.154398
0.017455
0.020972
0.072493
0.052472
0.033418
0.047704
0.103911
-0.022770
0.090778
-0.008383
0.035251
0.044477
0.031062
0.091320
0.011616
-0.006083
0.040759
0.153331
0.308462
0.476932
0.898289
1.162186
1.295690
1.461008
1.306620
1.025082
0.640227
0.373524
0.018475
-0.145108
-0.156719
-0.276835
-0.072707
-0.077285
0.027214
-0.066376
-0.013779
0.051973
0.053524
0.076260
0.084196
0.113671
0.090312
0.085038
0.205809
0.077276
0.101592
0.137958
0.114254
0.061528
0.082035
0.075066
0.175633
0.151606
0.161782
0.140838
0.219634
0.207635
0.256023
0.201380
0.180056
0.312703
0.294442
0.327656
0.313984
0.438554
0.409962
0.362276
0.427480
0.464957
0.425567
0.450705
0.512305
0.522058
0.488768
0.568710
0.548856
0.598974
0.562279
0.503210
0.528360
0.540009
0.475362
0.516762
0.493393
0.526670
0.475682
0.487340
0.521017
0.441990
0.408862
0.432022
0.483551
0.310135
0.390024
0.303237
0.266640
0.209108
0.216233
0.279089
0.270941
0.145645
0.148353
0.244952
0.105792
0.186667
0.103333
0.168425
0.076515
0.143599
0.090392
0.067302
0.050682
0.001470
0.098398
0.056533
0.055943
0.110074
0.073697
0.047393
0.109929
0.047036
0.120910
0.085071
-0.098032
-0.006326
0.067501
0.012145
0.041219
0.111261
0.103916
-0.057888
-0.007523
0.011460
0.138334
-0.005829
0.031822
0.080224
0.051374
-0.006969
0.030099
0.063443
0.022235
0.040147
0.014186
-0.024126
0.111434
0.038642
0.075505
0.065340
-0.043863
0.015596
0.051951
0.031681
0.024315
0.084948
0.061183
-0.041657
0.030164
0.041269
-0.007950
0.062262
0.055914
0.042753
0.006650
0.053072
0.059032
-0.037841
0.101923
0.024390
0.040740
0.052540
0.096372
-0.028110
0.051925
0.057278
-0.013921
0.022402
0.073590
0.051730
-0.024825
0.039387
0.041091
0.045399
0.083272
0.046416
0.045340
0.063001
0.002964
0.037205
0.066463
0.122125
0.109915
0.125479
0.110885
0.090542
0.123217
0.195834
0.200963
0.178727
0.140389
0.173763
0.126485
0.188132
0.190507
0.145396
0.191066
0.100734
0.041574
0.162619
0.069043
0.135132
0.158310
0.077702
0.091357
0.039016
0.023475
-0.018596
-0.037827
0.052719
-0.013620
0.036726
0.070462
0.061758
0.017649
0.060602
0.043478
-0.023779
0.040316
-0.067267
0.040701
0.010135
0.050678
-0.059603
-0.005929
-0.024290
0.023896
-0.028824
-0.084111
-0.002305
-0.019510
-0.058362
0.208603
0.481851
0.822043
1.029781
1.315406
1.353011
1.248485
0.873606
0.571439
0.149171
-0.047608
-0.205337
-0.330955
-0.282923
-0.291717
-0.173574
-0.063146
-0.067669
0.003196
0.047560
-0.031268
-0.043416
0.021151
0.039521
0.035655
-0.009590
-0.023123
0.009833
0.028073
0.080044
0.070942
-0.029653
0.083024
0.053776
0.106640
0.130196
0.069035
0.145866
0.080207
0.096661
0.111568
0.161956
0.096464
0.243668
0.235059
0.282666
0.273955
0.262248
0.282170
0.228288
0.361312
0.421072
0.428310
0.351797
0.439898
0.444770
0.441081
0.517487
0.363833
0.393961
0.365420
0.437804
0.477550
0.433725
0.423105
0.474200
0.408778
0.338117
0.398934
0.379382
0.385522
0.307349
0.360776
0.268909
0.258710
0.278282
0.291957
0.252845
0.214994
0.188125
0.205916
0.138682
0.185547
0.112213
0.133414
0.073020
0.090283
0.045963
-0.005922
0.026768
-0.049003
0.038750
0.037092
-0.010316
-0.051092
-0.046301
0.003751
-0.013576
-0.062210
-0.097432
-0.051848
-0.117770
-0.059018
-0.097395
-0.077273
0.017223
-0.126238
-0.108127
-0.071057
-0.078254
-0.087929
-0.086838
0.024042
-0.089525
-0.089240
-0.069359
-0.114261
-0.154287
-0.121195
0.012526
-0.115032
0.031638
-0.020299
-0.054855
-0.080009
-0.117386
-0.066183
-0.062968
-0.097912
-0.130306
-0.136364
-0.042731
0.007383
-0.089154
-0.011369
-0.097141
-0.056071
-0.080497
-0.075504
-0.045259
-0.040985
-0.097060
-0.078956
-0.084997
-0.066115
-0.170870
-0.075621
-0.046828
-0.092449
-0.076367
-0.059697
-0.152008
-0.129152
-0.070989
-0.045183
0.036301
-0.069553
-0.099584
-0.060983
-0.070529
-0.084181
-0.117043
-0.162452
-0.049639
-0.086349
-0.013255
-0.094201
-0.073356
-0.047721
-0.085888
-0.010246
-0.029601
-0.018024
0.051349
0.042123
0.019318
0.017355
0.146335
0.115930
0.019997
0.083385
0.056261
0.008461
0.011711
0.052292
0.023556
0.112121
0.057734
0.049062
-0.048366
0.084678
0.094905
0.008122
0.050799
-0.077840
-0.024226
-0.002587
-0.075177
-0.066568
-0.044722
-0.118387
-0.104915
0.025173
-0.063051
-0.120417
-0.115693
-0.040458
-0.071967
-0.047945
-0.072256
-0.114461
-0.138185
-0.104596
-0.073476
-0.113452
-0.039865
-0.063812
-0.041517
-0.115956
-0.083911
-0.138453
-0.192590
-0.114209
-0.023071
0.123533
0.482826
0.787015
1.080241
1.153894
1.265095
1.130217
0.826137
0.481496
0.183588
-0.164556
-0.347621
-0.404299
-0.396252
-0.266119
-0.203327
-0.149462
-0.111022
-0.075268
-0.086744
-0.054423
-0.040399
-0.097373
-0.130081
-0.088040
-0.123216
0.029141
-0.015643
-0.112083
-0.010445
-0.015417
-0.041328
0.028475
0.001908
0.033904
0.011245
-0.010427
0.032005
0.069108
0.077442
0.154713
0.150501
0.116300
0.063372
0.257701
0.154155
0.256474
0.346232
0.268303
0.298608
0.290902
0.314700
0.398711
0.378588
0.448698
0.476857
0.410174
0.382846
0.415920
0.383895
0.510753
0.444689
0.422325
0.540746
0.419466
0.469939
0.431675
0.364023
0.325594
0.444962
0.348973
0.360293
0.318325
0.285863
0.286769
0.244808
0.199995
0.249472
0.208094
0.136529
0.146542
0.126270
0.185671
0.126115
-0.039218
0.035565
0.042652
0.130716
0.078662
-0.002056
0.091497
0.129340
-0.037142
-0.022179
-0.072358
0.023952
-0.000413
-0.015577
-0.033638
-0.020845
-0.008228
0.007213
-0.044999
-0.045772
-0.039257
0.056692
-0.053395
-0.016828
-0.073412
-0.018506
-0.036290
-0.085959
-0.065776
-0.057712
-0.047736
-0.153997
-0.036575
-0.029014
-0.108743
-0.087034
0.027160
-0.077323
-0.060267
-0.084701
-0.061482
-0.094347
-0.026553
-0.111693
-0.031901
-0.042885
-0.038323
-0.084062
-0.137351
-0.014513
-0.061998
-0.068426
-0.060376
-0.014583
0.099530
-0.058648
0.019611
-0.059719
-0.055410
-0.131417
-0.000343
-0.054779
0.004505
-0.042766
-0.009863
0.012100
-0.046278
-0.085178
-0.002062
-0.063866
-0.026236
-0.060390
-0.116935
-0.008676
-0.035953
0.010405
-0.050792
-0.030982
-0.024727
0.022717
-0.024479
0.085853
0.029916
0.007826
0.093026
0.092951
0.066364
0.103937
0.103623
-0.000975
0.049198
0.133060
0.046339
0.083672
0.138225
0.186544
0.147626
0.138490
0.209083
0.106258
0.152258
0.148510
0.224480
0.161880
0.126249
0.293946
0.084376
0.093750
0.167631
0.026682
0.166936
0.074641
0.065876
0.003861
0.086229
0.080840
0.076980
0.065952
0.106068
0.017492
-0.068728
-0.013255
-0.038737
0.066497
0.044398
0.035508
0.018646
0.047676
0.035592
0.051547
0.032581
0.025297
-0.070109
-0.066075
0.028470
0.062621
-0.000667
0.008688
-0.042640
0.165329
0.318833
0.517010
0.918971
1.216775
1.372937
1.412967
1.198989
0.887125
0.493126
0.213372
-0.064142
-0.231710
-0.345207
-0.225038
-0.161243
-0.068849
-0.025807
-0.048095
0.133851
0.087356
0.029650
0.003955
0.025263
0.092799
0.013083
0.097189
0.004968
0.165911
0.169924
0.112382
0.069727
0.107787
0.159795
0.192862
0.092486
0.126816
0.200363
0.169269
0.291085
0.222082
0.174343
0.313744
0.288771
0.268579
0.305417
0.323925
0.414820
0.402206
0.384233
0.445982
0.330778
0.468663
0.517059
0.491878
0.452263
0.512259
0.475377
0.496469
0.527353
0.567534
0.559715
0.596143
0.537675
0.552887
0.566749
0.516617
0.554158
0.499602
0.509285
0.436273
0.446541
0.522528
0.394381
0.383014
0.405490
0.331109
0.362916
0.379418
0.282831
0.334123
0.340536
0.300882
0.247358
0.242292
0.176848
0.144488
0.202746
0.124070
0.145961
0.096559
0.173093
0.229267
0.092553
0.109855
0.135274
0.111511
0.114452
0.089374
0.124129
0.102000
0.044214
0.070172
0.083864
0.098199
0.032338
0.111962
-0.001019
0.128343
0.064975
-0.040669
0.089915
0.058184
0.112087
0.031020
0.043366
0.137865
0.126942
0.041604
0.027103
0.019717
0.043967
0.062402
0.088485
0.073061
0.040063
0.085981
0.010972
0.145314
0.065197
0.050767
0.060346
0.063347
0.111748
0.019111
0.085596
-0.040788
-0.023911
0.174314
0.054288
0.108559
0.100892
0.090731
0.042597
0.024235
0.023242
0.059298
0.063832
0.095187
0.054283
-0.037065
0.105333
0.108901
0.037283
0.151164
0.049865
0.045397
0.120946
0.129830
0.090207
0.059984
0.188859
0.037904
0.082585
0.060534
0.027178
0.129296
0.130959
0.077526
0.124577
0.139041
0.198848
0.136222
0.161779
0.232131
0.177577
0.176966
