0.113270
0.031254
-0.043379
-0.002128
-0.010422
-0.021713
-0.008554
0.025187
-0.043915
-0.019703
0.054148
-0.009867
0.010649
0.015997
0.021724
0.027965
0.073139
-0.024830
0.070805
0.025784
0.051905
0.116493
-0.044064
0.005762
0.091232
0.045126
0.041377
0.072484
-0.012811
0.101629
0.125418
0.064137
0.091546
0.140315
0.133997
0.127433
0.079402
0.144074
0.168699
0.233105
0.275215
0.238418
0.163900
0.148252
0.248506
0.223806
0.214519
0.173241
0.148200
0.168833
0.231255
0.127896
0.191544
0.168013
0.139826
0.122213
0.132248
0.074398
0.175365
0.068018
0.070507
0.021804
0.043422
0.071343
0.070811
0.052363
0.070491
0.093744
0.049706
0.069018
0.049938
0.017632
0.075170
-0.015048
-0.022698
0.101838
0.020693
0.016735
0.081664
0.050440
0.010209
0.040535
-0.032520
0.166523
0.323173
0.593277
0.971338
1.257375
1.444968
1.361433
1.187985
0.814097
0.594609
0.257396
-0.057669
-0.232708
-0.172699
-0.192535
-0.093853
-0.075568
0.025350
0.128240
0.075301
0.110112
0.074781
0.071329
0.195693
0.104991
0.098809
0.041707
0.105336
0.123528
0.050138
0.202658
0.185426
0.089758
0.252590
0.125391
0.184058
0.256088
0.264128
0.257194
0.208057
0.230455
0.246536
0.266728
0.267463
0.338644
0.318667
0.311500
0.438016
0.391561
0.452953
0.456904
0.393241
0.488372
0.467563
0.530918
0.528717
0.574907
0.586154
0.575861
0.591620
0.594591
0.585695
0.578567
0.578802
0.655090
0.515032
0.521647
0.492675
0.442196
0.559710
0.522780
0.464138
0.442617
0.489959
0.374325
0.331637
0.329181
0.308395
0.416137
0.308848
0.261545
0.191137
0.237498
0.260893
0.163657
0.196194
0.270202
0.209759
0.107284
0.140474
0.250334
0.108778
0.068046
0.166708
0.038488
0.122840
0.146109
0.120691
0.112827
0.109029
0.079648
0.099669
0.005946
0.099256
0.052745
0.056870
0.010485
0.035482
0.079071
0.125529
0.085064
0.137912
0.143434
0.020908
0.132172
0.064915
0.054383
0.094245
0.126121
0.076469
-0.001437
0.061894
0.175312
0.118042
0.113433
0.050645
0.031320
0.123270
0.080004
0.097456
0.101050
0.082122
0.105061
0.116922
0.118746
0.040710
0.005996
0.070959
0.046345
0.095666
0.043653
0.033384
0.039112
0.173458
0.024928
0.151087
0.098307
0.047167
0.020687
0.110132
0.130429
0.153589
0.133249
0.122800
0.084680
0.100220
0.077905
0.078840
0.026142
0.066000
0.149495
0.055519
0.183649
0.127589
0.083019
0.076127
0.116760
0.119360
0.052469
0.190147
0.105801
0.178556
0.168849
0.199541
0.254754
0.199260
0.246254
0.216301
0.122944
0.291964
0.273925
0.315729
0.211728
0.152232
0.234116
0.254570
0.259811
0.180253
0.170093
0.167257
0.194187
0.242262
0.157360
0.187828
0.015310
0.151364
0.139659
0.075396
0.131269
0.075849
0.104357
0.077473
0.069442
0.053357
0.139175
0.030441
0.101808
0.057571
0.046927
0.116050
0.169621
0.098608
0.041530
0.061914
0.073843
0.037575
0.026289
0.089370
0.021073
0.042276
0.072350
0.265253
0.479272
0.751591
1.102626
1.362944
1.321681
1.407454
1.085693
0.680814
0.407085
0.064292
-0.094862
-0.153507
-0.186357
-0.130245
-0.052585
0.046175
0.062444
0.049546
0.111192
0.073564
-0.015739
0.081679
0.116257
0.096037
0.083076
0.060598
0.098717
0.119824
0.140372
0.041453
0.203561
0.170686
0.155619
0.094673
0.201585
0.215682
0.236967
0.162662
0.197749
0.259084
0.176903
0.259493
0.295001
0.303098
0.280178
0.406719
0.326944
0.403751
0.372388
0.543456
0.528469
0.431932
0.463006
0.496433
0.517011
0.512950
0.506968
0.630220
0.568930
0.580730
0.572088
0.505223
0.532758
0.547354
0.563274
0.490347
0.492191
0.412643
0.485840
0.410052
0.382810
0.404005
0.298073
0.330600
0.380573
0.290912
0.377162
0.191710
0.224309
0.253296
0.219927
0.197399
0.132492
0.144333
0.141370
0.114854
0.173638
0.196215
0.051840
0.073876
0.095863
0.041401
0.061407
0.101852
0.003011
-0.039434
-0.001438
-0.034282
0.047707
0.034939
0.039828
0.019266
-0.036775
0.017641
-0.038550
-0.018526
0.015536
-0.006605
-0.047374
0.010603
0.037397
0.023419
-0.047735
0.044609
-0.002149
0.008858
0.041980
-0.060023
-0.000758
-0.043440
0.040505
0.020750
0.011079
-0.027423
0.051460
-0.024266
-0.008193
-0.010627
-0.018204
0.019564
-0.058505
-0.010896
-0.029890
-0.048757
-0.039410
-0.010782
-0.051661
0.013003
0.010351
-0.020314
-0.009105
-0.006420
-0.017785
-0.022255
-0.052912
-0.005134
-0.058490
-0.152690
0.088092
-0.010606
0.032740
-0.009457
-0.031455
0.055742
-0.023319
-0.020873
-0.012741
-0.094032
0.022626
-0.011264
0.035299
0.031113
-0.047093
-0.006739
0.000852
0.020470
0.085854
0.009190
0.056123
-0.020783
-0.010585
0.094340
0.084401
0.152094
0.109605
0.084037
0.083560
0.132276
0.171812
0.147643
0.151937
0.182125
0.191520
0.144091
0.113002
0.149819
0.204602
0.078697
0.129523
0.104645
0.133281
0.031968
0.106738
0.026954
0.023486
0.058960
0.036315
0.087402
0.017053
-0.073167
-0.010791
-0.064901
-0.009271
-0.024440
0.005707
-0.044584
-0.048609
0.004908
0.054329
0.025419
0.025679
-0.074738
0.034854
-0.017646
0.009638
-0.054380
-0.030234
-0.104119
-0.008861
0.016930
0.204184
0.596083
0.860299
1.064134
1.302540
1.372790
1.075020
0.829859
0.450830
0.161069
-0.171434
-0.204810
-0.304890
-0.159666
-0.209678
-0.175992
-0.032412
-0.007013
-0.086199
0.043619
-0.015119
-0.040137
0.026516
-0.002208
-0.038444
-0.025347
0.074330
0.029282
-0.072649
0.015810
-0.029030
0.027014
0.015055
0.069461
0.142784
0.095933
0.144665
0.113054
0.171898
0.160479
0.195749
0.207524
0.219793
0.193150
0.256720
0.253429
0.298120
0.294343
0.260569
0.425786
0.372105
0.327159
0.374414
0.468267
0.492517
0.443894
0.498284
0.471260
0.424046
0.447446
0.476594
0.404166
0.515881
0.426035
0.370796
0.423982
0.359525
0.355390
0.377087
0.366291
0.424758
0.294122
0.369510
0.305137
0.297045
0.334623
0.250156
0.193068
0.167240
0.221908
0.118524
0.135136
0.089698
0.067999
0.074140
0.105909
0.044284
0.110863
0.052763
0.056033
0.022212
0.038103
-0.037605
-0.019384
-0.025138
-0.025038
0.021677
-0.017032
0.042723
-0.057545
-0.056075
0.002127
-0.010771
-0.008918
-0.098476
-0.037123
-0.008232
-0.019526
-0.093446
0.018063
0.000471
-0.074203
-0.092251
0.027653
-0.012624
-0.063047
-0.090117
-0.065390
-0.019071
-0.018850
-0.052429
0.087357
0.015624
0.006133
-0.097822
-0.019186
-0.048672
-0.050952
-0.053457
-0.004407
-0.042412
-0.009210
-0.059094
-0.064880
-0.040963
-0.012365
0.015270
-0.067922
0.008048
-0.024087
-0.009306
-0.019566
-0.028655
-0.055148
0.005777
-0.050393
-0.065827
0.011151
-0.002336
-0.011351
0.029272
-0.065796
-0.066622
0.027710
0.015641
0.004622
-0.011431
0.010470
0.047566
-0.026411
0.013643
0.021393
0.065142
-0.088749
-0.018703
0.043929
0.012079
0.137258
0.027420
0.088974
0.171043
0.076005
0.161438
0.094644
0.149494
0.100549
0.132663
0.140890
0.150933
0.188203
0.148005
0.207855
0.129930
0.147320
0.153889
0.138543
0.209339
0.151358
0.123366
0.115088
0.103216
0.157483
0.057883
0.063088
0.050687
0.053400
0.070803
0.048682
0.043157
0.152272
0.037073
0.041967
0.091009
0.019219
-0.075797
-0.026956
0.062023
0.087529
-0.007928
-0.014554
0.113649
0.028388
0.089000
0.008765
0.060965
-0.042048
0.018215
0.023863
-0.024450
-0.012599
0.151093
0.328785
0.613522
0.997635
1.298379
1.500000
1.286918
1.091478
0.800261
0.405537
0.136351
-0.099021
-0.134016
-0.175311
-0.148687
-0.060497
-0.007222
-0.025785
0.059933
0.094690
0.082625
0.127702
0.128615
0.054015
0.031389
0.048671
0.098661
0.110305
0.077143
0.082895
0.127672
0.144144
0.097011
0.078379
0.181458
0.241956
0.077205
0.237052
0.195037
0.158899
0.268469
0.221936
0.366960
0.341360
0.318718
0.297843
0.314452
0.421673
0.469678
0.467024
0.444299
0.474641
0.488257
0.427941
0.484667
0.515372
0.524610
0.527985
0.564584
0.603704
0.482412
0.563332
0.594302
0.533514
0.453849
0.563873
0.611637
0.549521
0.449453
0.469627
0.413742
0.359630
0.446559
0.390074
0.373014
0.307007
0.397361
0.321182
0.346523
0.314837
0.276999
0.292333
0.277931
0.261252
0.193569
0.089920
0.129153
0.214406
0.085893
0.117675
0.154947
0.146996
0.099576
0.068904
0.062157
0.112493
0.078833
0.041351
0.126144
0.036761
0.107253
0.065645
0.076835
0.066614
0.118702
0.130303
0.030188
0.130784
-0.001091
0.071965
0.185747
0.145655
0.126615
0.025608
-0.032522
0.094379
0.110318
0.109236
0.141154
0.036775
0.094303
0.039905
0.129202
0.016595
0.047501
0.126955
0.129088
0.068412
0.071885
0.081101
0.123333
0.066557
0.036207
0.113223
0.110575
0.114528
0.068791
0.122651
0.080964
0.204239
0.116066
0.133040
0.103802
0.027762
0.078671
0.127199
0.007895
0.028747
0.117006
0.040406
0.066157
0.036248
0.099412
0.008558
0.090542
0.057682
0.038363
0.043520
0.119912
0.101388
0.156422
0.084988
0.206441
0.076739
0.055533
0.178186
0.122791
0.123445
0.107539
0.205049
0.236163
0.166492
0.231406
0.202336
0.176962
0.246647
0.165370
0.255923
0.232439
0.221568
0.303649
0.255898
0.289266
0.350368
0.327679
0.301355
0.206189
0.223851
0.214749
0.214935
0.242493
0.211935
0.155527
0.140205
0.241460
0.112182
0.188647
0.132043
0.096887
0.160586
0.141547
0.061774
0.086790
0.095846
0.124554
0.055002
0.089610
0.073888
0.105722
0.118300
0.090666
0.107471
0.104130
0.080539
0.097446
0.064979
0.026642
0.046665
-0.013614
0.077908
0.079652
0.253437
0.662722
0.908737
1.186841
1.477873
1.368369
1.415528
1.024284
0.707467
0.342910
0.070648
-0.146381
-0.147747
-0.143686
-0.070204
-0.019535
-0.020585
0.155401
0.030079
0.056098
0.049482
0.101809
0.196592
0.093244
0.156133
0.157094
0.067181
0.150667
0.166419
0.194814
0.125121
0.186905
0.162236
0.237011
0.224704
0.226844
0.199692
0.211842
0.268434
0.211785
0.251806
0.310358
0.328935
0.305035
0.341144
0.392210
0.454545
0.390387
0.416641
0.445423
0.501156
0.502705
0.551653
0.583150
0.495803
0.503641
0.623426
0.552562
0.556364
0.532189
0.540320
0.566162
0.588838
0.544346
0.523232
0.608885
0.591742
0.477840
0.491084
0.501727
0.514871
0.437851
0.461394
0.391610
0.317771
0.383024
0.360012
0.276153
0.291117
0.309164
0.245865
0.238589
0.224918
0.196719
0.227295
0.202991
0.088994
0.169997
0.191452
0.121158
0.132557
0.062439
0.144148
0.089145
0.073388
0.070041
0.121019
0.045854
-0.018021
0.059735
0.108416
0.073033
0.059044
0.116986
0.092840
0.125769
0.057771
0.077426
0.031522
0.047722
-0.007124
0.071550
-0.009246
0.009871
0.041440
0.102519
0.040744
0.014033
0.085275
0.001565
0.032477
0.016443
0.046182
0.063412
-0.045582
-0.018391
-0.012074
0.151097
0.033247
0.035251
-0.020245
0.018821
0.161023
0.075054
0.002966
0.057020
0.011034
0.005224
-0.007456
0.068342
0.030910
0.156503
0.046740
0.031398
-0.015539
0.047372
-0.057258
-0.030028
-0.012933
-0.020115
-0.067610
0.036220
0.020186
0.086866
0.016754
0.042179
0.049804
0.012834
0.042465
0.026647
0.029417
0.143024
0.003525
0.055661
0.015937
0.006924
0.064393
0.163749
0.095582
0.064168
0.111006
0.092303
0.144305
0.016240
0.126952
0.120115
0.168402
0.166778
0.151725
0.154805
0.176573
0.075290
0.175075
0.177471
0.159144
0.154362
0.081762
0.215735
0.084641
0.152748
0.068952
0.121928
0.127041
0.056189
0.045596
0.058217
0.019838
0.026486
0.032962
-0.023450
0.004958
-0.018194
-0.021299
-0.008192
0.021114
0.028044
-0.112361
-0.062879
-0.047103
0.011646
0.038940
-0.057319
-0.013997
0.053017
-0.049934
-0.130698
0.004530
-0.048317
-0.067180
-0.044629
0.075385
0.343525
0.553183
0.963589
1.195710
1.330644
1.213738
1.153735
0.750952
0.410352
0.047279
-0.210622
-0.255208
-0.332259
-0.260069
-0.166021
-0.134937
0.013023
-0.024849
-0.008022
-0.028243
0.001455
0.012181
-0.072331
0.043000
-0.036130
-0.048174
-0.014768
0.024841
0.013926
0.061424
0.020994
-0.000963
0.127156
0.010447
0.155271
0.135331
0.198179
0.113008
0.187428
0.152630
0.179443
0.145511
0.206192
0.182871
0.209619
0.250697
0.229334
0.293356
0.324898
0.316389
0.271604
0.401800
0.417889
0.457304
0.405532
0.418354
0.339205
0.391013
0.431560
0.432506
0.433442
0.484942
0.442448
0.392108
0.402054
0.396259
0.422324
0.371450
0.424656
0.358349
0.290119
0.331816
0.247243
0.265784
0.211781
0.283225
0.165412
0.151223
0.186357
0.145357
0.083656
0.126984
0.159615
0.047172
0.119662
0.047355
0.059830
0.132927
0.008043
-0.016215
0.015314
-0.048752
-0.005159
-0.009641
-0.038912
-0.056884
-0.157113
-0.012088
-0.035726
-0.032541
-0.077169
-0.010705
-0.091979
-0.107694
-0.029952
-0.093139
-0.005014
-0.043932
-0.083668
-0.120984
-0.062485
-0.026462
-0.076111
-0.039617
-0.112671
-0.042307
-0.065752
-0.058577
-0.059870
-0.013193
-0.031853
-0.058107
-0.085966
-0.113294
-0.052761
-0.083022
-0.198612
-0.107228
-0.097384
-0.037925
-0.034864
-0.062650
-0.081042
-0.060105
-0.152416
0.006467
-0.094055
-0.067760
-0.101332
-0.123750
-0.069723
-0.096989
-0.015573
-0.146253
-0.108034
-0.011855
-0.106170
-0.020653
-0.068115
-0.057581
-0.085696
-0.129360
-0.087372
-0.043082
-0.105054
-0.016456
-0.071781
-0.116373
-0.035966
-0.021291
-0.064627
-0.065242
-0.063931
-0.088953
0.004619
0.022131
-0.013932
-0.024642
0.032699
0.016847
0.086979
0.027988
0.068835
0.013084
0.036153
0.089643
0.139153
0.065150
0.063263
0.099840
0.153198
0.083135
0.119657
0.100494
0.105645
0.049811
0.023248
0.009940
0.126248
0.009469
0.065301
0.017115
0.053048
-0.037675
-0.014852
0.006185
-0.091017
-0.077411
-0.029989
0.039019
-0.074432
-0.083158
-0.053487
0.027562
-0.061491
-0.130154
-0.073347
-0.087504
-0.085143
-0.109605
-0.147931
-0.091418
-0.050171
0.020473
-0.085148
-0.132045
-0.123926
-0.137641
-0.011533
-0.005457
0.153127
0.345638
0.642137
1.082799
1.183793
1.300108
1.168976
0.946569
0.606919
0.341565
-0.112526
-0.287818
-0.307560
-0.328700
-0.320472
-0.278642
-0.110103
-0.126761
-0.127679
-0.083670
-0.089879
-0.050789
0.024201
-0.109207
-0.029917
-0.050606
-0.032318
-0.031337
-0.025710
0.059973
0.038981
0.050693
0.124988
0.109070
0.052282
0.073723
0.166624
0.117042
0.147956
0.195053
0.082932
0.174436
0.218713
0.309202
0.225368
0.297207
0.233808
0.384715
0.358280
0.385067
0.415240
0.444683
0.490055
0.455330
0.348906
0.461646
0.478184
0.396616
0.443350
0.464248
0.455379
0.481733
0.410408
0.473162
0.449716
0.427304
0.422600
0.401064
0.365030
0.357616
0.361328
0.331769
0.353352
0.309533
0.282692
0.343465
0.196138
0.176654
0.203599
0.194364
0.148041
0.207090
0.175578
0.213062
0.071756
0.036475
0.150214
0.104570
0.099450
0.095008
0.037797
0.088761
-0.000438
-0.024118
0.079607
0.014717
-0.037405
0.095315
0.032746
-0.090280
-0.095691
-0.008305
-0.050348
0.007488
-0.049153
-0.078244
-0.084567
0.017423
0.017708
-0.042743
-0.048123
-0.015963
-0.051258
-0.021752
-0.108386
-0.084246
-0.048649
-0.001399
0.011907
-0.005440
0.010650
0.034081
-0.003247
-0.002267
-0.008518
0.024876
-0.000451
0.038316
0.011037
-0.046343
-0.046296
-0.083312
-0.017551
0.013011
-0.010032
0.064656
0.028169
0.069591
-0.021507
0.000739
0.035659
-0.012540
-0.025410
0.053047
0.101123
0.038641
0.085567
0.079259
0.149345
-0.112489
0.048525
0.018457
-0.030905
-0.075833
0.023126
-0.006365
-0.108549
0.055813
0.078378
-0.074138
0.028819
-0.071164
-0.018382
0.080055
0.027365
0.069499
0.018465
0.092034
-0.001361
0.043506
0.135203
0.119591
0.122500
0.132867
0.232005
0.159315
0.166069
0.173203
0.166462
0.217269
0.195759
0.206550
0.159788
0.258241
0.221098
0.174446
0.160761
0.150833
0.164116
0.202601
0.169120
0.165614
0.171775
0.046593
0.114452
0.135844
0.098516
-0.005951
0.021455
0.036738
0.020761
0.073485
0.010749
-0.004425
0.036879
0.066387
0.022117
0.049625
0.083914
-0.031015
-0.029229
0.016187
-0.011274
0.018591
-0.004779
0.088247
0.020036
0.053802
0.005484
0.013140
0.136310
0.243736
0.573023
0.847147
1.198594
1.467943
1.313869
1.143244
0.995248
0.533220
0.229981
-0.045035
-0.080967
-0.246681
-0.243936
-0.139457
-0.100948
0.025264
0.002674
0.092198
0.041069
0.030793
0.031559
0.017151
0.099853
0.051480
0.033710
0.098268
0.105984
0.105496
0.155837
0.036163
0.149286
0.094790
0.114877
0.267792
0.231488
0.222684
0.149124
0.202073
0.186896
0.280939
0.336310
0.317200
0.342530
0.401290
0.347812
0.437779
0.359111
0.354160
0.382846
0.415619
0.501731
0.538786
0.534800
0.534151
0.533328
0.589488
0.498253
0.548681
0.526225
0.488038
0.580153
0.503125
0.509397
0.468949
0.518512
0.475385
0.552498
0.474546
0.449418
0.471102
0.463751
0.475081
0.385237
0.265371
0.299057
0.222936
0.261969
0.279640
0.240648
0.276313
0.247472
0.168710
0.198508
0.184060
0.109451
0.169816
0.166908
0.154005
0.093024
0.091893
0.080041
0.070071
0.127187
0.075675
0.122749
0.040231
0.035270
0.098753
0.012771
0.019402
0.017025
0.083982
0.051048
0.020549
0.084238
0.099626
0.048196
0.015695
0.037492
0.062045
-0.040803
-0.007786
-0.008937
0.086135
0.058212
0.004816
-0.017002
0.023247
0.079115
0.063329
-0.019233
0.059426
0.077751
0.101439
0.034386
0.001559
0.070191
0.002468
-0.057209
-0.013088
0.041140
-0.003959
0.005758
0.004455
0.032334
0.011534
0.042013
0.033082
0.034165
-0.010004
-0.067394
0.006470
-0.039943
-0.060096
0.091480
0.008865
0.012163
0.087935
0.031340
0.017840
0.072509
0.095295
0.019488
0.117343
0.063348
0.109450
0.091105
0.020249
0.021436
0.076835
0.127633
0.127055
0.139229
0.120919
0.139254
0.046401
0.057910
0.151908
0.100956
0.100688
0.143177
0.064176
0.157374
0.125518
0.107657
0.210812
0.212424
0.239230
0.155156
0.137277
0.160495
0.173569
0.150882
0.142113
0.129618
0.149851
0.159874
0.146631
0.160883
0.109612
0.134596
0.135824
0.041444
0.086181
0.061947
0.041161
0.130818
0.012024
0.051485
0.087015
0.026553
0.033452
-0.025606
0.066780
0.035896
0.045019
0.053330
0.015417
-0.065150
0.029977
-0.016046
0.094486
-0.094298
-0.021133
0.039574
-0.111310
0.046021
-0.039734
0.076592
0.124305
0.452259
0.722531
1.072312
1.256058
1.366922
1.368899
1.044400
0.720396
0.380364
-0.009854
-0.183781
-0.161990
-0.267840
-0.238762
-0.117992
-0.053883
-0.032682
-0.036207
0.050022
0.023263
0.023450
-0.014982
0.078595
-0.073490
0.099377
0.033876
0.056973
0.149564
0.012339
0.070678
0.152274
0.027516
0.104167
0.163906
0.096983
-0.009732
0.208260
0.159872
0.120683
0.232371
0.228329
0.369886
0.208887
0.242061
0.273676
0.320529
0.298754
0.283686
0.315638
0.352436
0.420599
0.421065
0.397620
0.319963
0.397176
0.351573
0.401728
0.540740
0.431453
0.436388
0.473333
0.408304
0.434142
0.399533
0.447726
0.427637
0.394410
0.399403
0.375407
0.365514
0.323016
0.325349
0.292614
0.313010
0.253882
0.204767
0.202173
0.151517
0.185689
0.141552
0.125715
0.152483
0.118806
0.144782
0.054110
-0.003728
-0.001134
0.008698
0.038787
-0.024333
-0.027442
-0.017862
0.048223
0.008375
-0.058715
0.034311
-0.019975
-0.022525
-0.053212
-0.064190
-0.020824
-0.001986
-0.081304
-0.050082
-0.066048
-0.051180
-0.049776
-0.096186
-0.021545
0.002432
-0.056003
-0.080729
-0.038185
-0.048339
-0.075256
-0.131456
-0.058010
0.001234
-0.072598
-0.112950
0.013971
-0.104973
-0.062561
-0.041364
-0.084356
-0.077796
-0.023605
-0.048707
-0.076147
-0.017839
-0.087465
-0.007887
-0.048275
-0.086816
0.014035
-0.081216
-0.079636
-0.122842
0.032705
-0.070451
-0.166218
-0.038095
-0.083430
-0.068283
-0.114998
-0.108411
-0.059926
-0.029655
-0.056071
-0.028228
-0.005824
-0.197152
-0.050405
-0.074760
-0.166495
-0.171750
-0.052612
-0.114641
0.011049
-0.059850
-0.093331
-0.056806
-0.090424
-0.046676
-0.055554
-0.048721
-0.031349
0.015921
-0.035789
0.022918
0.027037
0.155786
-0.023900
0.113074
0.102369
0.020858
0.034010
0.041242
0.096424
0.073974
0.099504
0.079344
0.026567
0.113432
0.062528
0.058765
0.031250
0.029815
0.069880
-0.015907
0.022079
-0.092507
0.021465
-0.105898
0.007504
-0.055807
-0.065132
0.008018
-0.139083
-0.112251
-0.015049
-0.034740
-0.099834
-0.012811
-0.075490
-0.089821
-0.199419
-0.109042
-0.090390
-0.100351
-0.050989
-0.021144
-0.105791
-0.088785
-0.191528
-0.134968
-0.141290
-0.128758
-0.112284
0.020622
0.134587
0.386778
0.639970
1.018460
1.182587
1.313081
1.146936
0.888802
0.515587
0.133073
-0.119192
-0.323067
-0.354735
-0.294029
-0.303754
-0.278104
-0.160566
-0.091698
-0.097149
0.020997
-0.161248
0.002048
-0.030704
-0.063694
0.029669
-0.032706
-0.033910
-0.029366
-0.019532
-0.055914
-0.012945
-0.084229
-0.032004
-0.004518
0.009999
0.051674
-0.037748
0.044116
0.092225
0.056102
0.151604
0.203872
0.171081
0.147132
0.220968
0.196986
0.189306
0.267300
0.313738
0.337185
0.333442
0.309812
0.381715
0.445069
0.320458
0.475284
0.337582
0.417777
0.405797
0.482372
0.432119
0.347969
0.399456
0.399784
0.450701
0.354932
0.343642
0.345301
0.307936
0.308473
0.296106
0.290480
0.286729
0.283435
0.231219
0.239230
0.106945
0.177288
0.219029
0.083376
0.081734
0.170356
0.097563
0.097973
0.024899
0.091158
0.019956
-0.018996
0.014143
-0.043069
0.014653
0.040895
-0.042481
-0.024507
0.021183
-0.076941
0.001943
-0.104051
-0.106646
-0.046051
-0.055873
-0.056700
-0.138163
-0.143838
-0.023516
-0.132770
-0.077770
-0.100854
-0.027433
-0.141340
-0.111673
-0.078013
-0.040359
-0.011148
-0.058823
-0.101125
-0.073233
-0.040463
-0.069713
-0.018381
-0.012682
-0.085451
-0.015530
-0.109667
-0.080585
-0.088140
-0.132299
-0.053217
-0.073142
-0.111721
-0.089196
-0.094514
-0.024808
-0.137446
-0.050705
-0.138091
-0.142029
-0.104845
-0.080186
0.013365
-0.076088
-0.026386
0.015935
-0.016075
-0.061449
-0.048865
-0.062944
0.075920
0.019542
0.024853
-0.012470
-0.045535
-0.060251
-0.116256
-0.052797
-0.030007
-0.024135
-0.058933
-0.055809
-0.053468
-0.003880
-0.056163
0.035801
-0.035017
-0.023395
0.072859
0.031511
0.059808
-0.046138
0.016024
0.023496
0.019447
0.064540
0.120499
0.180183
0.108467
0.116643
0.105536
0.157886
0.097788
0.158333
0.168193
0.110579
0.173660
0.137562
0.144101
0.179174
0.104703
0.093165
0.128241
0.071696
0.043667
0.077062
0.130190
0.035070
0.055529
0.106214
0.069237
0.066055
0.064503
0.048376
0.003865
0.030849
0.069064
0.018535
0.005820
-0.007319
-0.098119
0.032894
0.046679
-0.019088
0.083607
0.017708
-0.022134
-0.099145
0.010443
-0.000864
-0.113172
0.001164
0.019280
0.142167
0.394602
0.618284
0.878283
1.259284
1.427825
1.401551
1.100732
0.846165
0.417118
0.131782
-0.116550
-0.291481
-0.253589
-0.134473
-0.178873
-0.094564
-0.047511
-0.030791
0.011499
-0.011337
0.077069
0.076279
0.051050
0.047923
0.095172
0.092914
0.026202
0.010855
0.015707
0.099871
0.021100
0.099402
0.101299
0.078452
0.139239
0.113133
0.205683
0.199630
0.205691
0.248453
0.177269
0.206179
0.253091
0.375692
0.224408
0.373763
0.376016
0.426370
0.505974
0.395150
0.459266
0.456264
0.487413
0.533108
0.562175
0.518525
0.492347
0.442711
0.487969
0.551124
0.491724
0.555572
0.473898
0.441522
0.477598
0.505204
0.501516
0.436763
0.481776
0.406962
0.391477
0.316637
0.403968
0.395054
0.412322
0.331695
0.327937
0.252089
0.252112
0.171593
0.220232
0.266506
0.207317
0.205985
0.178728
0.273220
0.154281
0.253238
0.115130
0.086348
0.068053
0.178630
0.068903
0.141140
0.112132
0.145153
0.129452
0.049596
0.072671
0.026100
0.082719
0.134432
0.000005
0.060009
0.031850
-0.012492
0.043893
0.107025
0.059638
0.043608
0.053219
0.080020
0.026822
0.132599
0.044066
0.075112
0.005362
0.044545
-0.020283
0.037635
0.039695
0.127745
0.027377
0.067852
0.071210
0.043011
0.134183
0.116490
-0.010873
0.056525
0.056357
0.041020
0.096016
-0.025670
-0.010608
0.043945
-0.034680
0.037638
0.042386
0.038289
0.137451
0.102052
0.037759
0.093305
0.109553
0.109346
0.105675
0.046716
0.096064
0.065008
0.121316
0.122231
0.031393
0.126625
0.089875
0.066173
0.097854
0.135223
0.186142
0.104919
0.114123
0.090064
0.144638
0.006172
0.040184
0.099444
0.166520
0.124301
0.176738
0.116346
0.227213
0.241029
0.153469
0.207811
0.262325
0.257951
0.215727
0.172380
0.112007
0.169541
0.228532
0.233322
0.268338
0.230938
0.220323
0.277007
0.188953
0.151059
0.179691
0.199062
0.123905
0.182686
0.162943
0.063542
0.170109
0.145781
0.105142
0.111421
0.153369
0.107301
0.103309
0.130427
0.143404
0.096353
0.140593
0.121459
0.079431
0.058910
0.092468
0.078838
