0.050715
0.041908
0.058194
0.011031
-0.023098
-0.083166
-0.055077
0.022833
-0.041592
0.001047
0.042857
0.130643
0.073904
0.002882
0.067488
-0.051499
0.096412
0.013620
0.044291
0.057786
-0.054480
0.100544
0.057554
0.031721
0.080890
0.055029
0.114020
0.124473
0.124169
0.126826
0.136547
0.240947
0.239990
0.246824
0.125536
0.212933
0.188693
0.191563
0.219139
0.268585
0.250397
0.189880
0.196381
0.124826
0.235657
0.195242
0.142278
0.145537
0.102321
0.162905
0.062764
0.133621
0.049129
0.043010
0.060465
0.096838
-0.000380
0.048837
0.116619
-0.030630
0.050050
0.041599
0.107018
0.076308
0.022913
0.021692
0.037412
0.025257
0.155979
-0.004225
0.124855
0.116185
0.278044
0.545982
0.903215
1.108339
1.315938
1.500000
1.320236
1.019566
0.710702
0.433164
0.125682
-0.131501
-0.210841
-0.202556
-0.072031
0.069244
0.028057
0.125274
0.036668
0.136714
0.107499
0.131531
0.112425
0.073829
0.127627
0.108111
0.156155
0.175295
0.187889
0.262558
0.238726
0.280750
0.305170
0.293390
0.365997
0.380057
0.291687
0.341168
0.425239
0.339101
0.455540
0.541507
0.478738
0.475213
0.491765
0.536754
0.527541
0.513309
0.588862
0.609846
0.515746
0.592385
0.533186
0.605987
0.710405
0.469367
0.554036
0.614244
0.569120
0.534226
0.563647
0.575257
0.515215
0.503118
0.401267
0.400293
0.344137
0.409990
0.000000
0.000000
0.000000
0.000000
0.000000
0.000000
0.000000
0.000000
0.000000
0.000000
0.000000
0.000000
0.000000
0.000000
0.000000
0.000000
0.000000
0.000000
0.000000
0.000000
0.000000
0.000000
0.000000
0.000000
0.000000
0.000000
0.000000
0.000000
0.000000
0.000000
0.000000
0.000000
0.000000
0.000000
0.000000
0.000000
0.000000
0.000000
0.000000
0.000000
0.000000
0.000000
0.000000
0.000000
0.000000
0.000000
0.000000
0.000000
0.000000
0.000000
0.000000
0.076476
0.110250
-0.017297
0.065701
0.062961
0.039420
0.032277
0.034822
0.112506
0.061115
0.100351
0.091107
0.097984
0.089368
0.154617
0.103362
0.052059
0.173977
0.119090
0.075643
0.130359
0.090863
0.086426
0.143473
0.031139
0.185062
0.083519
0.244224
0.165596
0.129810
0.163228
0.184210
0.239422
0.237001
0.245421
0.264726
0.297396
0.265623
0.234662
0.249361
0.243386
0.245185
0.301438
0.226332
0.268776
0.290075
0.232610
0.269759
0.213079
0.116999
0.099474
0.189103
0.198525
0.134036
0.118424
0.184787
0.218388
0.093380
0.118886
0.058376
0.181826
0.042646
0.079938
0.051180
0.094581
0.138743
0.005478
0.082775
0.072740
0.083517
0.085360
0.162006
0.098823
0.239328
0.434414
0.693052
1.037200
1.378055
1.461496
1.446952
1.257584
0.844172
0.515311
0.140673
-0.084826
-0.194779
-0.115947
-0.054330
-0.037673
0.095690
0.129663
0.137331
0.168257
0.132411
0.133568
0.113861
0.137278
0.172819
0.128107
0.181139
0.123607
0.240077
0.170356
0.218030
0.174801
0.222369
0.217051
0.310013
0.327410
0.393707
0.361293
0.345798
0.358832
0.428805
0.406745
0.425447
0.439051
0.417184
0.464819
0.579553
0.675458
0.509297
0.455842
0.559365
0.536498
0.562244
0.629673
0.576057
0.636718
0.541737
0.511884
0.604783
0.518238
0.550500
0.545276
0.465020
0.538476
0.465348
0.455483
0.433629
0.407019
0.351259
0.404156
0.378328
0.283154
0.293518
0.241326
0.236010
0.162661
0.231103
0.207864
0.194098
0.259974
0.138261
0.097731
0.243564
0.154924
0.116895
0.086427
0.124542
0.078627
0.059306
0.108943
0.058976
0.038378
-0.011799
0.071289
0.010052
0.040512
0.074958
0.025012
0.079897
0.034465
-0.019196
0.039431
0.056521
0.065143
0.026816
0.004151
0.075454
0.012769
-0.015854
0.077497
0.005933
0.014935
-0.008052
-0.032423
0.061995
0.054627
-0.027561
0.068027
0.021414
0.032036
0.080815
-0.000088
0.008729
0.057529
0.035968
0.009845
-0.082003
0.060382
-0.042701
0.032330
-0.029882
-0.015099
-0.050898
-0.077907
-0.003916
0.061319
-0.000944
0.027880
0.035693
0.038847
0.024854
0.010965
0.070195
0.067272
0.130484
0.125144
0.053999
0.048250
0.175120
0.095874
0.147058
0.079372
0.209813
0.157513
0.170221
0.183761
0.153049
0.084879
0.186531
0.170610
0.133191
0.111936
0.121718
0.119081
0.177927
0.110299
0.109106
0.220372
0.161086
0.067775
0.054599
0.026685
0.054702
0.082258
0.033393
0.003008
0.015900
0.064955
-0.019709
-0.023464
0.008547
0.057382
-0.055822
0.011688
0.015582
-0.055523
0.060455
-0.041015
0.013468
-0.016204
-0.018869
0.058571
0.052216
0.241445
0.511454
0.857654
1.145702
1.318986
1.409098
1.144663
0.935118
0.496066
0.166889
-0.095217
-0.231020
-0.262095
-0.260206
-0.247301
-0.112061
-0.059514
0.049607
0.079705
0.033611
0.041426
0.032231
-0.022930
0.013142
0.004920
0.091654
0.007266
0.129148
0.122185
0.208803
0.114558
0.199152
0.140420
0.114456
0.154572
0.234749
0.293370
0.204689
0.335115
0.319889
0.307848
0.340909
0.354815
0.416632
0.402697
0.342719
0.515010
0.475042
0.458251
0.488261
0.552968
0.535529
0.388868
0.529914
0.545030
0.464366
0.452179
0.466465
0.378567
0.452677
0.483657
0.449170
0.408327
0.435284
0.340746
0.261596
0.407664
0.359178
0.276724
0.185829
0.199500
0.194022
0.163959
0.218130
0.172612
0.207374
0.066028
0.065360
0.097051
0.166616
0.069345
0.024291
0.058322
0.015734
-0.053887
-0.016553
0.003868
0.050128
0.059028
0.053554
0.001542
-0.003210
0.042754
-0.069772
0.007805
-0.091384
-0.005173
-0.074526
0.037188
-0.022273
-0.123137
-0.029771
-0.015845
-0.092882
-0.042988
-0.088446
-0.099572
-0.104628
-0.016186
-0.055312
-0.014329
-0.016749
-0.058609
-0.128395
-0.058483
-0.036275
-0.101580
-0.018431
-0.007629
-0.036201
-0.034047
-0.039556
-0.035327
0.016310
0.007093
-0.043332
-0.049900
-0.053998
-0.075479
-0.029795
-0.022983
0.002994
0.040029
-0.078083
-0.091122
-0.103095
-0.091421
-0.033616
-0.031527
-0.006126
0.074899
-0.004146
0.020612
0.032355
0.043459
0.061430
-0.051973
0.133188
-0.006730
0.048834
0.071139
0.100710
0.153316
0.070421
0.138844
0.126368
0.144075
0.183831
0.190822
0.169364
0.098322
0.196549
0.153850
0.169710
0.161572
0.128471
0.145708
0.156213
0.162605
0.112603
0.053442
0.003834
0.043835
0.020337
-0.018411
-0.027853
-0.002480
-0.000884
-0.003800
0.027313
-0.024294
0.011276
-0.069983
0.000191
-0.093796
-0.066013
-0.080390
-0.034185
-0.044167
-0.079688
-0.026644
0.003200
0.137461
0.430814
0.676617
1.109425
1.327426
1.422345
1.294505
1.037104
0.653924
0.281009
-0.017919
-0.185604
-0.260273
-0.245754
-0.191188
-0.110784
-0.004712
0.045709
0.062526
0.005502
0.060902
0.090824
0.020034
0.080532
0.085748
0.150658
0.017352
0.044481
0.172450
0.092508
0.104534
0.174003
0.135422
0.276741
0.244042
0.255396
0.267451
0.177671
0.310314
0.348594
0.374572
0.361465
0.411118
0.391574
0.437129
0.450804
0.469367
0.475956
0.506991
0.538882
0.575822
0.566255
0.465454
0.560112
0.538081
0.478205
0.514358
0.444704
0.537837
0.472819
0.543039
0.394895
0.431603
0.504343
0.375734
0.406422
0.360296
0.316848
0.322637
0.253715
0.320356
0.255272
0.255061
0.287082
0.190325
0.178317
0.171148
0.145697
0.179039
0.198988
0.217047
0.078041
0.118671
0.120384
-0.020685
-0.096220
0.061799
0.011954
0.081321
0.062019
0.017438
-0.018309
0.119713
0.005493
0.005336
0.038035
-0.036079
-0.006106
0.020434
0.067323
0.000829
-0.014384
-0.033865
0.031661
0.014540
0.011098
0.005568
0.149422
0.055247
-0.056323
0.007010
0.097771
-0.024666
0.054789
0.002878
0.066142
-0.001728
0.048601
0.076245
-0.066854
0.085788
0.066645
0.073441
0.030277
0.028358
0.025648
0.076419
0.073865
0.092583
0.064088
0.055119
0.052963
0.038264
0.060407
0.108013
0.053951
0.112039
0.137368
-0.047957
0.058117
-0.030090
0.067205
0.052719
0.069660
0.024751
0.150417
0.162408
0.086531
0.088924
0.143374
0.150083
0.147875
0.222297
0.190527
0.274268
0.167721
0.211369
0.215804
0.229314
0.248867
0.299391
0.202002
0.258844
0.241170
0.222608
0.218911
0.168722
0.219139
0.259740
0.089349
0.101354
0.082309
0.117890
0.119995
0.111634
0.070166
0.102262
0.229496
0.105097
0.191985
0.041992
0.117748
0.081956
0.096989
0.046356
0.022074
0.089353
0.058603
-0.007159
-0.040546
0.054419
0.087149
0.190173
0.530910
0.636606
1.079436
1.379867
1.449975
1.427821
1.291300
0.755848
0.405386
0.088166
-0.006035
-0.082142
-0.096340
-0.083603
0.044478
0.047851
0.076745
0.109362
0.057695
0.192110
0.101093
0.092569
0.109130
0.168531
0.113937
0.168909
0.163957
0.204319
0.124304
0.155663
0.258334
0.239313
0.345885
0.341518
0.227537
0.324706
0.328815
0.445580
0.389960
0.426323
0.428638
0.500156
0.576977
0.429995
0.591394
0.559671
0.529650
0.545845
0.633170
0.614624
0.585769
0.613513
0.603464
0.603142
0.552754
0.628060
0.634006
0.600954
0.572890
0.568603
0.528046
0.536984
0.569256
0.460419
0.469899
0.428901
0.387598
0.449578
0.415647
0.442199
0.374774
0.390965
0.309519
0.307418
0.256249
0.253663
0.253875
0.193064
0.204856
0.204103
0.194100
0.206009
0.125242
0.169940
0.154858
0.108513
0.072578
0.177848
0.112145
0.157855
0.165005
0.130369
0.205540
0.131939
0.069636
0.096252
0.184575
0.113410
0.156136
0.102845
0.115476
0.170554
0.112792
0.089992
0.161853
0.019940
0.067339
0.125960
0.131721
0.071603
0.036819
0.138480
0.167700
0.080753
0.112396
0.109644
0.017264
0.116025
0.134796
0.144890
0.139139
0.122623
0.098350
0.118934
0.150769
0.111718
0.110299
0.116132
0.070292
0.184539
0.128796
0.049478
0.056465
0.057584
0.071280
0.134171
0.122880
-0.021446
0.172979
0.091217
0.064721
0.035151
0.195462
0.061827
0.218361
0.167863
0.105191
0.152955
0.161663
0.166445
0.168635
0.231090
0.242461
0.318297
0.256450
0.287685
0.309154
0.196685
0.353557
0.290357
0.284832
0.204648
0.210452
0.208265
0.261029
0.264664
0.162946
0.203123
0.289102
0.151858
0.153111
0.133507
0.167159
0.061234
0.089579
0.115084
0.094830
0.000295
0.056672
0.151528
0.089212
0.061261
0.067602
0.061330
0.067724
0.103936
0.060005
-0.044511
0.209867
0.064047
0.005057
0.151819
0.411700
0.646435
1.003897
1.232102
1.376813
1.407629
1.300030
0.877278
0.600067
0.242550
-0.076278
-0.184000
-0.175166
-0.052016
-0.037024
0.013813
0.105750
0.049451
0.045398
0.004071
0.073993
0.139745
0.155197
0.133503
0.122904
0.161090
0.065336
0.164143
0.170415
0.215341
0.305313
0.312079
0.258474
0.250729
0.301002
0.395258
0.410523
0.334662
0.352381
0.365446
0.477237
0.451242
0.523249
0.481469
0.431839
0.589608
0.525780
0.534421
0.504199
0.569852
0.630266
0.645230
0.584819
0.585081
0.572841
0.481897
0.550547
0.522541
0.602469
0.468618
0.510421
0.496108
0.509203
0.500589
0.364956
0.477914
0.394726
0.429790
0.341729
0.275510
0.357477
0.274170
0.232886
0.273419
0.258781
0.163461
0.164524
0.174027
0.114428
0.117074
0.099448
0.204120
0.143726
0.102506
0.070177
0.076519
0.058119
0.107664
0.116437
-0.009688
0.057855
0.016544
0.016621
0.039764
0.022768
0.025150
-0.035283
0.024264
0.005983
-0.034269
-0.029504
-0.083441
-0.061492
0.015259
-0.017597
-0.043947
-0.019616
-0.020382
0.003674
0.077169
-0.002614
-0.005216
0.010109
0.016133
0.039511
0.007234
0.113257
-0.066819
0.001929
0.069710
0.120967
0.005315
-0.107530
-0.012799
0.005539
-0.048856
0.023797
-0.026064
-0.085465
-0.007099
0.000134
0.004131
-0.060993
-0.059256
0.049423
-0.071743
-0.064072
0.016042
0.026610
-0.049879
0.004931
0.103920
0.009294
0.078803
0.138125
0.030653
0.030104
0.088331
0.064581
0.089974
0.090967
0.113761
0.136178
0.193451
0.151702
0.154900
0.186027
0.102638
0.124070
0.191852
0.162230
0.127740
0.207404
0.117311
0.081680
0.140560
0.012545
0.009301
0.084924
-0.031364
0.056633
0.015976
0.009492
-0.008878
0.033496
-0.094992
0.005574
-0.049810
-0.028978
-0.073401
-0.104016
0.052649
0.066612
0.041023
-0.013945
-0.052274
-0.061287
-0.091299
-0.123295
-0.122525
-0.086962
0.009672
0.136642
0.419444
0.723794
0.998204
1.349265
1.366837
1.222274
0.968032
0.525973
0.149103
-0.172847
-0.234336
-0.233370
-0.297989
-0.165336
0.004893
-0.040007
0.002455
-0.010435
-0.006364
0.024910
0.060127
0.039304
-0.041402
0.011111
-0.014963
0.081831
0.015073
0.128701
0.071712
0.067243
0.054822
0.154380
0.140562
0.205439
0.262961
0.263675
0.177473
0.258003
0.320219
0.335694
0.435643
0.392466
0.390838
0.344342
0.413824
0.388223
0.447687
0.492381
0.411546
0.512849
0.524782
0.551274
0.522212
0.509204
0.466462
0.370718
0.402531
0.422872
0.382866
0.457069
0.416668
0.331786
0.383627
0.287404
0.248680
0.263986
0.237974
0.242698
0.201412
0.198011
0.172971
0.168114
0.167886
0.063775
0.070833
0.065284
0.105803
0.074091
0.019152
-0.031360
0.025568
-0.019909
-0.022233
-0.027636
-0.010275
-0.095004
-0.005693
-0.027776
-0.011999
-0.026415
-0.068104
-0.036854
-0.152244
-0.058442
-0.070976
-0.091971
-0.143253
-0.124750
-0.089854
0.006453
-0.050468
-0.044612
-0.166271
-0.003584
-0.070896
-0.059629
-0.091537
-0.040281
-0.073198
-0.109494
-0.041740
-0.112948
-0.084226
-0.055315
-0.130886
-0.107451
-0.139607
-0.057045
-0.015946
-0.054125
-0.099870
-0.110061
-0.104591
-0.040120
-0.040576
-0.081789
-0.011656
-0.121155
-0.071015
-0.042281
-0.144088
0.009378
-0.086704
-0.051250
-0.030744
-0.041134
-0.041277
-0.021607
-0.038056
-0.061623
-0.064843
-0.073182
-0.118064
-0.019840
0.044755
0.056573
-0.010936
0.014832
0.073680
0.064064
0.167781
0.075639
0.012860
0.167832
0.136030
0.060228
0.108828
0.008002
0.056039
0.136275
0.114541
0.121965
0.121262
0.055208
0.084132
0.046059
0.084347
-0.000549
0.061540
0.029030
0.065890
-0.038037
0.005651
-0.070444
-0.059244
0.006725
-0.029620
-0.088803
-0.071742
-0.125131
-0.047014
-0.012137
-0.128088
-0.028886
-0.047814
-0.153866
-0.014456
-0.076685
-0.061149
-0.046727
-0.060347
0.160245
0.267251
0.596056
0.902603
1.146011
1.332999
1.307911
1.088593
0.712688
0.291914
-0.053307
-0.173665
-0.299985
-0.237645
-0.145543
-0.085582
-0.069176
-0.046837
-0.031608
0.086618
0.006320
-0.088821
0.060401
-0.002833
-0.030046
0.039698
0.067720
0.048118
0.079130
0.132890
0.161696
0.080895
0.090641
0.171469
0.172255
0.166267
0.225740
0.344660
0.248525
0.320733
0.335480
0.393725
0.350933
0.408550
0.294525
0.338603
0.407368
0.438316
0.431592
0.406743
0.512489
0.600920
0.447670
0.425661
0.413951
0.503608
0.543609
0.365867
0.444847
0.488934
0.525907
0.459895
0.442907
0.384954
0.354339
0.394866
0.372488
0.269004
0.336694
0.310539
0.188714
0.242795
0.271431
0.178875
0.171282
0.139378
0.210693
0.164600
0.076689
0.013977
0.154776
0.030840
0.067569
0.049248
-0.025624
0.071187
-0.019672
0.037150
-0.083408
-0.060331
-0.049636
0.014489
-0.064675
-0.029942
0.026898
-0.090509
0.022345
0.031624
-0.036460
-0.014324
0.031598
0.054232
0.027524
-0.021641
-0.084044
0.022328
0.058647
-0.009793
-0.078811
-0.030368
-0.050460
0.008365
-0.018947
0.012278
-0.021719
0.033542
0.021349
-0.019886
0.080129
-0.007867
-0.019732
0.088427
-0.005817
0.034077
-0.074356
0.048879
-0.066663
0.021171
0.050319
-0.073689
0.005317
0.015576
0.044451
-0.043840
-0.020834
0.046340
0.097954
0.120565
0.003776
0.129962
-0.003488
0.043047
-0.013701
0.073104
0.043776
0.183492
0.030566
0.086674
0.094156
0.123923
0.194684
0.110906
0.136041
0.198711
0.110804
0.048060
0.188081
0.094614
0.187001
0.248997
0.167927
0.190218
0.201796
0.228548
0.137081
0.180819
0.129136
0.113709
0.153719
0.187733
0.119182
0.098347
0.045737
0.031522
0.054177
0.083943
0.093187
0.050992
0.108885
0.100819
0.108971
0.083415
0.044955
0.062319
0.033172
0.016275
0.035692
0.006811
0.030156
-0.053718
0.091858
0.022111
0.199696
0.325166
0.612572
0.919727
1.241623
1.473169
1.403746
1.254256
0.883907
0.539165
0.007124
-0.102869
-0.152639
-0.232402
-0.176461
-0.060669
-0.050076
0.072180
0.071214
0.087358
0.070944
0.101525
0.019143
0.007328
0.085182
0.184099
0.175499
0.127940
0.149093
0.159202
0.272592
0.181775
0.246207
0.206306
0.250335
0.248836
0.281053
0.308649
0.387145
0.293652
0.384151
0.381857
0.432583
0.452534
0.494345
0.483736
0.504087
0.544077
0.551754
0.505867
0.551136
0.574240
0.604906
0.603529
0.538454
0.538242
0.498120
0.579409
0.498081
0.522387
0.511876
0.593332
0.550926
0.448147
0.513866
0.384003
0.436746
0.412836
0.383507
0.364889
0.326571
0.319954
0.290095
0.234615
0.328903
0.242060
0.196456
0.235794
0.174018
0.119534
0.208900
0.181343
0.140111
0.120664
0.133411
0.096056
0.101303
0.044876
0.087555
0.074614
0.110825
0.123826
0.081756
0.028524
0.087572
0.123614
0.036449
0.029755
-0.003655
0.016751
0.072618
-0.056535
0.074115
0.001923
0.026013
0.062162
0.039348
0.029988
0.030860
0.033712
0.046485
-0.018753
0.073753
0.055161
0.058970
0.096926
0.028518
0.013749
0.117576
0.111104
0.138368
0.042045
0.045984
0.064647
0.038121
0.073828
0.007822
0.014379
0.029241
0.069533
0.077373
0.045362
0.057310
0.086877
0.016487
0.093351
0.042699
0.022152
0.068625
0.060616
0.059878
0.078189
0.108269
0.139241
0.054850
0.093312
0.148694
0.138263
0.153912
0.115150
0.154457
0.156543
0.157851
0.168946
0.135413
0.197167
0.217877
0.179087
0.246539
0.226643
0.129300
0.177129
0.218781
0.227989
0.191965
0.186606
0.207827
0.157472
0.188159
0.147332
0.177474
0.154704
0.179025
0.083323
0.106389
0.097123
0.069139
-0.015032
-0.002721
0.002130
0.049327
-0.034060
0.004622
0.066231
-0.013511
0.038953
0.065380
0.095338
0.057680
-0.049733
0.003729
0.010912
0.135732
0.196404
0.498270
0.813214
1.105279
1.426095
1.463436
1.285629
1.075397
0.623581
0.277012
-0.056197
-0.141199
-0.186837
-0.246025
0.018823
-0.036298
0.008285
0.098333
0.062629
0.106584
0.176337
0.101162
0.122795
0.110532
0.107360
0.170170
0.138811
0.127662
0.147929
0.147010
0.212088
0.189329
0.244932
0.257319
0.283086
0.232371
0.214042
0.262713
0.355019
0.248632
0.320616
0.345825
0.342532
0.402955
0.384227
0.444744
0.408531
0.490073
0.540449
0.492873
0.487711
0.538468
0.534618
0.636259
0.496769
0.648926
0.493961
0.474709
0.475510
0.478970
0.490387
0.437343
0.434697
0.374974
0.457118
0.402207
0.380660
0.358567
0.361720
0.294057
0.214053
0.179095
0.260109
0.189230
0.219925
0.122368
0.141625
0.128611
0.087645
0.109845
0.064902
0.096886
0.098750
0.149423
0.049750
0.080111
0.093184
0.035116
-0.034060
-0.057405
-0.012903
-0.015071
-0.026968
-0.018951
0.015396
0.015398
0.020968
-0.062557
-0.009931
-0.011844
-0.057631
-0.064478
-0.011452
-0.084059
0.051862
0.043756
0.030491
-0.037524
-0.054725
-0.048013
-0.026231
0.005372
-0.015602
-0.034953
-0.111101
-0.127103
-0.052994
-0.105507
-0.133115
-0.038001
-0.028704
-0.063477
-0.085614
-0.099997
0.012569
-0.074062
-0.096793
-0.011403
-0.030297
-0.099837
-0.078473
-0.089110
-0.055173
-0.166774
-0.061830
-0.056871
-0.095065
0.044199
-0.058368
-0.004813
-0.065547
-0.016220
-0.039765
-0.010882
-0.013290
-0.010790
0.030182
0.035692
0.060259
0.036068
0.074438
0.115876
0.099117
0.127380
0.042424
0.097024
0.060719
0.133467
0.147617
0.055047
0.128407
0.099284
0.075288
0.016684
0.122676
0.095129
-0.020382
-0.010739
0.087666
0.084286
0.006566
0.036060
-0.030788
0.026150
-0.075565
-0.046495
-0.063439
0.010990
0.020287
0.018732
-0.115313
-0.097918
-0.062587
-0.047171
-0.031675
-0.038734
-0.019420
-0.046287
-0.085141
-0.135722
-0.001518
-0.062864
0.173583
0.340988
0.648833
0.957725
1.203154
1.292794
1.220090
0.971921
0.649233
0.322800
-0.003722
-0.240718
-0.279338
-0.319335
-0.264629
-0.185652
-0.045487
-0.054771
-0.026280
-0.115778
-0.031835
0.049088
0.088580
-0.148604
0.012052
0.083814
0.009622
0.046212
0.093190
0.011361
0.162866
0.077781
0.115712
0.057621
0.091680
0.169204
0.228902
0.223535
0.247494
0.203435
0.274483
0.286820
0.247607
0.331219
0.350991
0.343289
0.379703
0.454231
0.407470
0.479756
0.505506
0.420230
0.337444
0.365558
0.335218
0.394988
0.479456
0.407520
0.368026
0.425055
0.437319
0.311004
0.323465
0.352851
0.301835
0.270355
0.234315
0.247353
0.167414
0.146438
0.133236
0.075933
0.095656
0.133768
0.033793
0.107224
0.145447
0.155629
0.023501
-0.004305
0.020597
-0.057816
-0.088708
-0.095203
0.004195
0.014309
-0.018235
-0.087260
0.017497
-0.096958
-0.040635
-0.143616
-0.115665
-0.097337
-0.098778
-0.053726
-0.100362
-0.099858
-0.030833
-0.027338
-0.074109
-0.053956
-0.156916
-0.078386
-0.107089
-0.086737
-0.078581
-0.113593
-0.109887
-0.088492
-0.110969
-0.133076
-0.070567
-0.110657
-0.097159
-0.129875
-0.061923
-0.124124
-0.103269
0.000000
0.000000
0.000000
0.000000
0.000000
0.000000
0.000000
0.000000
0.000000
0.000000
0.000000
0.000000
0.000000
0.000000
0.000000
0.000000
0.000000
0.000000
0.000000
0.000000
0.000000
0.000000
0.000000
0.000000
0.000000
0.000000
0.000000
0.000000
0.000000
0.000000
0.000000
0.000000
0.000000
0.000000
0.000000
0.000000
0.000000
0.066240
0.106989
0.087936
0.014881
0.102540
0.079654
0.051477
0.039095
0.032623
-0.011379
0.007693
-0.049825
0.005778
0.042680
0.006279
0.029245
-0.012207
0.023232
-0.107126
-0.004732
-0.115740
-0.080732
-0.040537
-0.081287
-0.092326
-0.079778
-0.077505
-0.043417
-0.034243
-0.081168
-0.055945
-0.179419
-0.109527
-0.075065
-0.101852
-0.068890
-0.037603
0.287396
0.537159
0.880721
1.215412
1.378465
1.278507
1.135047
0.759549
0.339679
0.017329
-0.127689
-0.228305
-0.249013
-0.264009
-0.158729
-0.107328
-0.078302
-0.067941
0.009982
0.032777
-0.039814
0.105304
0.026870
0.102108
-0.056666
-0.002965
0.010763
0.105511
0.172410
0.077705
0.183159
0.111279
0.133629
0.151471
0.232008
0.254340
0.290962
0.317991
0.300502
0.285464
0.320234
0.411009
0.249342
0.384110
0.382050
0.461569
0.447313
0.439114
0.562374
0.462601
0.491894
0.521880
0.474410
0.546415
0.558794
0.544132
0.445110
0.537494
0.461782
0.446352
0.350408
0.422148
0.388568
0.419337
0.441542
0.323638
0.367935
0.264206
0.307506
0.199064
0.275181
0.268246
0.243857
0.209315
0.260445
0.053599
0.101881
0.014781
0.144372
0.126881
0.111341
0.036337
0.032564
0.030412
0.084820
0.003239
-0.059184
-0.052226
0.021446
0.032497
0.012065
0.006974
-0.004764
0.118512
-0.048132
0.073526
-0.047008
-0.013374
0.044155
0.047925
0.058392
-0.067193
0.003850
0.071861
-0.023310
0.008858
-0.003998
0.050936
-0.027446
0.076503
-0.062172
0.026751
0.038455
0.025066
0.008490
-0.109357
0.010726
-0.002965
-0.004070
-0.064028
0.047660
-0.019484
0.018121
-0.003983
-0.012909
0.001104
0.018789
-0.041475
0.038240
-0.077903
-0.026401
-0.002617
0.006972
0.113291
-0.006760
0.087695
0.009182
0.020770
-0.035054
0.027289
0.017876
0.007408
0.012463
0.092258
0.000000
0.000000
0.000000
0.000000
0.000000
0.000000
0.000000
0.000000
0.000000
0.000000
0.000000
0.000000
0.000000
0.000000
0.000000
0.000000
0.000000
0.000000
0.000000
0.000000
0.000000
0.000000
0.000000
0.000000
0.000000
0.000000
0.000000
0.000000
0.000000
0.000000
0.000000
0.000000
0.000000
0.000000
0.000000
0.000000
0.000000
0.000000
0.000000
0.000000
0.000000
0.000000
0.000000
0.000000
0.000000
0.000000
0.000000
0.000000
0.000000
0.000000
0.000000
0.000000
0.000000
0.000000
0.000000
0.000000
0.000000
0.324376
-0.070377
-0.229603
-0.160624
-0.099912
-0.010947
0.013751
0.087236
0.068379
0.083333
0.121959
0.069281
0.122645
0.155480
0.148765
0.251301
0.193736
0.151744
0.144015
0.174440
0.239345
0.166327
0.290692
0.346277
0.302337
0.381183
0.326999
0.361919
0.342001
0.462079
0.483846
0.372845
0.399101
0.414498
0.497792
0.641829
0.665198
0.373760
0.563859
0.528469
0.656338
0.585493
0.545796
0.719189
0.578513
0.662693
0.559158
0.628524
0.678875
0.622209
0.604033
0.536616
0.529055
0.515171
0.458903
0.475088
0.496560
0.398341
0.327661
0.377635
0.357558
0.423283
0.338733
0.279072
0.277180
0.210973
0.260599
0.283568
0.173206
0.100222
0.181907
0.176511
0.193302
0.158521
0.107065
0.074231
0.148714
0.104106
0.058068
0.036485
0.066990
0.147123
0.085047
0.047039
0.141826
0.064544
0.163007
0.166208
-0.007037
0.136643
0.038328
0.035978
0.072172
0.095681
0.083727
0.158409
0.078072
0.002496
0.153984
0.071106
0.116526
0.073769
0.055384
0.070412
0.129825
0.118530
0.078590
0.151754
0.072837
-0.021064
-0.019693
