0.169191
0.087755
0.106356
0.474538
-0.074188
0.024066
-0.296849
-0.397971
-0.074226
0.151676
0.251052
-0.063468
-0.319153
-0.433051
-0.049839
0.423103
0.100453
-0.424762
-0.321857
0.168190
0.148498
-0.044863
-0.016797
-0.173236
0.009880
0.289127
0.026601
-0.016943
-0.113183
0.115112
0.557001
-0.350610
0.361052
0.147015
-0.342302
-0.294988
0.458254
0.218781
-0.018350
0.023245
0.022072
-0.152892
0.264644
-0.030267
0.085712
0.083516
-0.046863
0.409767
0.434873
0.199580
-0.269825
-0.066248
-0.322012
-0.007421
1.125376
-0.178248
0.050426
-0.036154
-0.017830
-0.321992
0.084339
-0.359966
-0.183550
-0.022349
0.162837
0.457822
-0.059352
0.235171
-0.056659
0.216092
-0.345185
0.065433
-0.205430
0.104082
-0.109246
0.492515
0.438555
-0.281984
0.659498
0.731664
0.620377
0.486619
0.173829
0.570320
-0.014109
0.344349
0.170536
0.457094
-0.215584
-0.035981
0.216864
-0.402987
-0.102670
-0.159985
-0.201863
-0.127147
0.378654
-0.135007
-0.465183
-0.065887
-0.134666
0.069253
-0.318904
0.121507
-0.062571
0.093775
0.154905
-0.043698
-0.222710
0.079867
0.180081
0.021277
0.203617
-0.094638
0.568842
0.153303
0.116439
-0.014610
-0.212072
0.399126
0.297219
0.139352
0.437071
0.562401
0.234802
0.325351
0.190008
0.096769
0.022359
-0.107615
0.453992
0.427069
0.206164
-0.249735
0.181069
0.227920
-0.179896
0.308493
0.080669
0.424551
-0.220676
0.771074
0.276783
0.288773
0.323167
-0.136372
0.195892
0.025020
0.124495
0.129701
0.398374
0.384278
0.259096
0.286588
0.714070
0.212095
0.080733
0.126571
-0.363961
-0.461154
0.475080
-0.065984
-0.238374
0.047993
-0.550864
0.039806
-0.027300
0.314664
-0.409837
0.549690
0.017748
-0.287123
0.114462
0.123480
0.117988
-0.341057
-0.056118
0.421768
0.360366
0.029476
0.046241
0.238371
0.093478
0.005271
-0.021254
-0.338324
0.343566
0.327396
0.330206
-0.596566
-0.232553
0.294557
-0.094138
-0.467416
-0.392284
-0.481878
-0.070199
-0.426867
0.247157
0.082895
-0.135878
0.297012
-0.315964
-0.228620
0.172041
-0.289149
0.062393
0.643492
0.175060
-0.279787
0.179044
0.270456
-0.345761
0.114646
0.294355
-0.208262
0.410326
-0.178517
0.419457
0.362635
-0.203372
0.312818
0.344687
-0.199591
-0.007822
-0.092165
0.108116
-0.147406
0.015253
-0.057831
-0.042401
-0.233461
-0.232318
-0.235894
0.099212
-0.149250
0.400474
0.223974
-0.218188
0.012926
0.227507
0.144919
-0.785530
-0.268646
0.056649
0.456898
0.202199
0.462899
0.038574
-0.044527
-0.083216
0.376977
0.106291
-0.234479
-0.212087
-0.275390
-0.134724
-0.112786
0.104520
-0.154364
0.034900
-0.051431
-0.503460
0.017491
0.378543
0.178985
0.228740
-0.187947
0.367771
0.039733
-0.080977
-0.103101
0.356774
0.242710
-0.170564
0.025236
0.118638
-0.092583
0.564582
0.328687
0.795500
0.628086
0.613261
0.378119
0.453132
-0.182595
-0.176767
-0.128817
0.233500
0.137984
0.051068
0.270193
0.214800
-0.416549
-0.655577
0.504958
-0.486009
-0.368036
0.094967
0.363528
0.199983
0.269529
-0.221703
-0.120800
0.610058
0.509971
0.148659
0.225371
0.088773
-0.161615
-0.103895
0.403247
0.061997
0.464199
0.181127
0.135689
0.224533
0.011078
-0.062430
0.235879
0.151690
0.332269
0.614227
0.418112
0.050348
0.049227
-0.053423
0.422667
0.707926
0.075756
0.129280
0.077712
0.072468
-0.010397
0.240308
-0.299482
0.087422
0.173008
0.110922
0.267007
0.545381
0.345435
-0.010059
0.372210
-0.178394
-0.092691
0.343314
0.504623
0.080629
0.503521
0.045256
0.759127
0.042333
0.579067
0.062911
0.549323
-0.052114
0.324584
-0.125592
-0.138591
-0.044431
0.250386
-0.093680
0.091312
0.108139
0.180980
-0.141082
0.017568
-0.142377
-0.234743
-0.225010
0.376178
-0.546619
0.219626
0.272666
0.260311
-0.133894
-0.119164
0.314167
0.177776
-0.546199
-0.201264
-0.153084
0.135164
-0.272786
0.273281
-0.239786
-0.319880
-0.048778
0.163688
0.259301
0.531402
-0.087346
0.203190
0.499535
0.278620
0.139750
-0.465114
-0.144915
-0.619464
0.379982
-0.360119
-0.282064
-0.037142
-0.017721
-0.061382
-0.186629
-0.173356
-0.326456
0.026337
-0.449210
0.076554
-0.124932
-0.051020
-0.422397
-0.090090
0.023996
-0.362068
0.200257
0.133425
-0.141267
0.323210
0.068567
-0.167250
0.020294
-0.299297
-0.030040
0.096960
-0.574174
0.338085
-0.120703
-0.144058
0.882288
0.557573
0.102235
-0.197851
0.360988
-0.022486
-0.032897
0.310692
0.034126
-0.172642
-0.231508
0.135010
0.193984
0.355793
-0.195381
-0.209743
0.444139
0.389056
0.200893
-0.276204
0.790647
0.031786
-0.267075
-0.190895
-0.212975
-0.063337
-0.282854
-0.549760
-0.578693
-0.434555
-0.455786
-0.034449
-0.192967
-1.011261
-0.350986
0.410582
0.307959
-0.157705
-0.033705
0.036141
-0.164700
0.156564
0.002362
-0.014453
0.318332
0.184576
0.282099
0.948268
0.552054
0.555607
0.199747
0.320237
0.128358
0.411206
-0.018327
0.063665
-0.098612
0.268342
0.392898
0.162604
0.248730
0.025600
0.049319
-0.193356
0.480808
-0.269860
-0.178407
0.634429
0.071935
0.182725
-0.244303
-0.158635
0.238958
0.354135
0.410764
-0.064235
0.197046
0.420246
-0.010885
0.094988
0.224275
0.306478
-0.083795
0.060331
0.125612
0.433334
-0.364620
0.203501
0.504458
0.111917
0.522874
-0.099861
0.507282
-0.043025
0.349608
-0.319379
0.388121
0.736019
0.512603
-0.202340
-0.574870
-0.111456
-0.132006
0.043149
0.218740
0.171138
0.282848
0.036736
0.025454
0.028023
0.496666
0.191775
-0.016094
-0.020782
-0.351908
0.152755
0.186852
-0.441988
-0.160729
0.452218
0.452890
-0.067657
0.245116
0.449489
0.307793
0.619629
0.374492
-0.485382
0.352832
0.078957
0.026674
-0.061131
-0.120553
0.092149
0.013360
-0.442851
-0.091451
0.086209
-0.428799
0.101131
-0.026667
0.383106
0.473608
0.165575
0.175955
0.103705
0.126400
0.184903
-0.441162
0.378890
0.190591
0.192140
0.086938
-0.127095
-0.224970
-0.238118
0.185197
-0.011280
0.435496
-0.094511
-0.123847
-0.062796
-0.101726
-0.388491
-0.179689
-0.340931
-0.107233
0.671892
0.409757
-0.329256
0.372230
0.286537
-0.243973
-0.097737
0.351052
0.022688
-0.428556
0.647818
-0.045624
0.404849
-0.059299
0.134245
0.220176
0.260661
-0.103894
-0.315825
-0.200821
0.320543
0.149442
0.261217
0.407922
-0.179457
-0.612792
-0.406461
-0.106964
-0.053875
0.028133
0.745971
-0.218118
0.070127
0.281318
0.104227
0.347670
-0.367415
-0.024956
0.248857
0.027312
-0.023030
0.204120
0.664009
0.071749
0.135833
-0.126957
0.194459
-0.153704
-0.100634
0.158515
-0.244779
-0.149185
0.098740
0.340734
0.131255
-0.140487
0.158565
0.160552
0.099028
-0.093275
0.331273
-0.332149
0.206513
0.187140
-0.216879
-0.029672
-0.141841
0.245472
-0.156845
-0.045100
0.609212
0.308688
0.599114
0.203840
0.088074
-0.747194
0.097390
-0.004203
0.106030
0.552543
0.894564
0.873077
1.500000
0.731624
0.109726
-0.044829
-0.186052
-0.247648
0.128176
-0.368623
-0.046853
0.204113
0.061031
-0.309049
0.167415
0.017742
-0.148422
0.464444
0.330302
0.446969
0.205536
-0.416479
-0.185769
-0.099360
0.028487
0.101799
0.089093
0.071972
-0.105757
0.175615
0.479162
0.441490
0.218315
0.321091
0.226948
0.262990
-0.318897
-0.087841
-0.213705
0.003346
0.422960
0.149578
-0.270852
0.035437
-0.146254
0.076428
0.287875
0.317360
0.639785
0.440439
0.293997
0.010791
-0.115457
0.201491
-0.132449
0.809939
0.356455
0.192897
0.124765
-0.178063
-0.348613
0.009157
-0.165682
0.147291
0.317379
0.775214
0.442554
0.186106
-0.337112
0.202942
0.201236
-0.412946
0.355998
0.143704
0.541280
-0.139704
-0.383011
-0.548700
-0.022697
-0.332133
-0.536775
-0.273957
-0.025824
0.379850
-0.071772
-0.190478
0.110719
-0.472563
0.174551
-0.154201
0.173424
-0.023053
-0.046534
-0.474044
-0.026779
0.410239
-0.067132
-0.437362
0.256755
-0.425761
0.780337
0.251642
-0.633684
0.444549
-0.232285
-0.123781
0.200642
0.014516
0.068421
-0.250937
0.017350
0.164986
0.867349
0.055305
0.124272
-0.076755
-0.194119
-0.397820
0.145088
-0.374910
0.274117
0.048801
0.101443
-0.249026
0.085730
-0.038116
0.260252
-0.041515
0.457480
0.292092
0.738725
-0.289586
-0.015738
-0.040313
0.383290
0.209760
0.120649
0.332369
-0.053350
0.188056
0.014439
0.335352
-0.442697
-0.367045
0.037498
0.221506
0.070979
-0.449492
-0.488743
0.101528
0.082423
-0.043896
-0.263377
0.289633
0.129023
0.334673
0.552771
-0.354896
-0.509143
0.176957
0.388524
0.183421
0.375615
0.004222
0.392416
-0.131730
0.220593
0.520241
0.343796
-0.031812
-0.237978
-0.280906
0.692046
-0.160956
-0.123093
0.033344
-0.200474
0.258148
-0.064120
0.240917
0.122973
0.083125
0.039898
0.513834
-0.053051
-0.079575
0.378292
0.449009
0.494533
-0.122630
0.250991
0.265085
-0.053983
-0.093505
0.135402
0.168784
-0.168768
0.760854
0.318253
0.113441
0.479983
1.106965
0.870093
0.332260
0.235966
-0.181907
0.312399
-0.557897
0.265009
-0.034069
0.038181
-0.329063
-0.169558
-0.364827
0.035371
-0.095099
0.079200
-0.054773
-0.563487
0.262547
-0.587228
0.493148
0.299642
-0.070911
-0.341094
-0.151095
-0.037937
0.053745
-0.223084
0.244699
-0.013548
0.210687
-0.643007
-0.075530
-0.114735
0.198345
-0.108158
0.135494
0.305011
0.184378
0.365082
-0.221724
-0.121015
0.125441
0.219159
0.375195
0.256970
-0.378654
-0.145923
0.125624
0.297652
0.320149
0.312022
0.362289
0.269726
0.293947
0.608224
0.268720
0.150207
0.173492
0.240325
-0.075434
0.253718
0.385854
-0.011845
0.674592
0.470649
0.107493
-0.110090
0.109596
-0.116580
-0.026374
0.293050
0.313095
-0.128000
-0.078940
0.357737
-0.417351
0.288452
-0.074410
-0.335609
0.634049
0.313172
0.084060
-0.262875
-0.105205
-0.012119
0.328061
0.326415
-0.305024
-0.115574
-0.214379
0.000471
0.204874
-0.018614
-0.243596
-0.356221
-0.015712
0.134958
0.644413
-0.326946
0.077438
0.347424
0.040280
-0.130617
0.395826
0.070220
0.028889
-0.260957
-0.047654
-0.374327
-0.130985
0.283242
0.026666
0.175080
-0.209489
0.262651
0.625887
-0.382114
0.287530
-0.458966
0.127474
-0.184761
0.109263
-0.289472
0.392274
0.149017
-0.015835
0.071932
-0.502973
0.217121
0.435768
0.108869
-0.256684
0.511663
-0.446346
0.261544
0.007819
-0.167060
-0.095098
-0.067241
0.586384
-0.129221
-0.341910
0.210931
0.418761
0.076576
-0.219776
0.014869
0.143766
-0.072939
0.480339
-0.832524
0.511223
-0.094344
0.180443
0.378871
0.229437
0.165825
0.202373
-0.028856
0.018736
0.231459
0.096707
0.079496
0.405029
0.048679
0.058274
0.045286
0.024069
0.005812
0.198856
0.217202
-0.002828
0.180640
0.346376
-0.028188
0.106882
0.038753
-0.138455
0.077907
0.406598
-0.111477
0.328857
0.196672
0.072035
0.319240
0.259683
0.106858
0.093225
-0.115837
0.383410
0.179322
0.159495
-0.493528
-0.261548
-0.099964
-0.147045
0.330622
0.265653
0.607499
0.381975
0.209383
0.312644
0.396577
-0.243875
0.374599
-0.239798
0.138476
-0.348365
-0.170803
-0.233082
-0.524279
-0.198057
0.208644
-0.114522
0.210798
-0.178891
-0.071897
0.094331
0.410901
0.171935
0.148405
-0.326857
-0.171610
-0.042909
0.238114
0.450984
0.146139
-0.041267
-0.041166
0.006616
0.017826
0.396400
0.310483
0.074219
0.290687
-0.283965
0.285964
0.322699
-0.316803
0.053684
0.259479
0.440394
0.448179
0.636697
0.152225
0.354070
0.035487
0.279428
0.232221
0.448579
0.392163
0.133724
0.206293
-0.446680
0.444967
-0.188640
0.301136
0.341260
0.092177
-0.368530
0.007897
0.250392
0.435447
0.174685
-0.218960
-0.255927
-0.702681
-0.119400
0.520477
0.543868
0.183800
-0.070851
0.340031
0.331306
0.013267
0.291220
-0.472002
0.241298
-0.112808
0.425595
0.643109
0.585982
-0.040914
0.384956
0.670045
-0.194370
-0.109261
0.362450
0.138962
-0.085453
0.265298
-0.141021
0.245475
-0.185602
0.190323
0.373157
0.286052
-0.167927
0.053886
0.276307
0.668713
-0.161683
-0.078225
0.450182
-0.035749
0.228368
-0.184703
-0.284579
0.006657
0.319915
0.283373
-0.240749
-0.215088
-0.219573
-0.301824
-0.023297
0.174272
-0.150785
0.186284
0.257275
-0.076314
0.300675
-0.193250
-0.323614
-0.604334
0.065428
-0.155797
-0.109737
-0.072504
0.436370
0.315430
0.268492
0.049215
0.377935
0.099401
0.362637
0.135454
-0.489615
-0.444559
0.550880
-0.513748
0.370742
-0.310048
0.133559
-0.692056
0.417204
-0.217136
-0.182392
0.255333
0.345014
0.061711
0.037100
-0.192570
-0.305701
0.086715
0.051002
-0.427463
0.011422
-0.060425
-0.397789
0.130286
-0.233899
0.322988
0.156017
0.148173
0.152208
-0.484553
0.198155
0.394854
0.103914
0.201386
-0.135480
-0.571953
0.548173
-0.107165
-0.266092
-0.147711
-0.197362
0.251172
-0.325942
-0.426764
-0.218057
0.643194
-0.288751
0.104010
-0.228503
0.658721
-0.047519
0.119454
0.044005
-0.466923
-0.058871
0.260454
0.337517
0.416858
0.023149
-0.221720
-0.096152
0.734023
0.324674
0.224333
0.998165
0.703417
-0.140912
0.086378
-0.393131
-0.362693
-0.082437
-0.070594
-0.210597
-0.362199
-0.151571
-0.245560
-0.171329
-0.263502
0.458835
-0.035421
0.056265
-0.009412
0.070412
0.511281
-0.249780
-0.300221
0.388854
0.129789
0.357409
0.476197
-0.271673
0.467820
0.248659
-0.172874
0.219354
0.291327
-0.205096
-0.329916
-0.458922
-0.091135
0.009831
0.192027
0.286045
0.181238
0.074493
0.523593
0.204595
0.219234
-0.439047
0.068921
0.135154
0.351280
-0.246189
0.599056
0.413595
-0.039031
-0.128329
0.444821
0.056864
0.296789
-0.104730
0.390049
0.101508
-0.194630
0.666655
0.249165
-0.095916
0.177839
0.029721
0.012047
0.318990
0.085841
0.303208
0.380991
0.602579
-0.054444
0.009348
-0.012612
-0.193808
0.284311
0.312760
-0.377999
0.293442
0.162041
-0.535659
0.518505
-0.218759
-0.074855
0.250296
-0.135981
-0.221666
-0.089460
-0.154350
-0.061735
0.015688
0.077548
0.729524
0.438953
0.281718
0.102531
-0.296878
-0.190343
-0.461757
0.243054
0.106102
-0.118930
-0.422138
-0.333592
-0.590357
0.272734
-0.039398
0.217338
-0.167216
-0.152444
-0.308255
0.258519
-0.242576
0.012555
-0.209959
-0.169375
-0.248387
-0.356660
0.322218
0.385562
-0.235969
0.280543
0.382249
-0.342736
-0.386564
-0.033874
-0.194278
-0.181779
0.194529
0.203948
0.460049
-0.353688
0.702451
-0.504111
0.521999
0.172261
-0.467835
0.123115
-0.161873
-0.260772
-0.528530
-0.159007
-0.098618
-0.195041
-0.482054
0.144212
0.435694
0.147022
0.231910
0.169549
-0.204883
0.044333
-0.224448
-0.559432
-0.361841
-0.419653
0.000159
-0.391489
-0.255574
0.074461
-0.403344
-0.222433
0.303743
-0.155259
-0.192976
-0.408319
-0.013607
-0.087773
0.128907
-0.252146
-0.102641
0.710765
0.104313
0.050769
0.255376
0.169121
0.108354
-0.581793
-0.360489
-0.421962
-0.369771
0.450268
-0.195368
-0.151733
0.076957
-0.051328
-0.418649
-0.011360
0.088723
0.425823
0.236274
0.188171
0.515819
0.535439
0.011830
0.209680
0.385280
0.217513
0.886415
0.181515
0.545987
0.789310
-0.290108
-0.000016
-0.696792
-0.505258
0.192037
-0.210833
-0.111317
-0.275078
0.230806
-0.084260
-0.253231
0.344211
-0.022076
-0.314972
-0.824030
0.392432
-0.230403
0.043725
0.510379
0.080555
-0.005374
0.148919
0.318434
-0.165200
-0.050241
0.413337
-0.246813
-0.352547
0.399460
0.142569
-0.175369
0.467597
0.013190
0.008417
0.067991
0.300337
-0.422654
-0.197525
-0.427512
0.407317
-0.091530
0.806491
-0.097635
0.248875
0.522953
0.406152
0.048130
0.170046
0.223846
0.565234
0.177983
-0.146769
0.585288
0.055724
-0.170900
0.421803
-0.031575
-0.072915
0.058063
-0.102762
-0.012176
-0.095201
0.675056
0.650378
0.521051
0.251572
0.150617
-0.079843
0.127437
0.037185
0.524190
-0.098049
0.206882
0.115053
0.151360
-0.828819
0.590572
-0.170713
0.210644
-0.067386
-0.203042
-0.115984
-0.622769
0.109039
-0.201425
-0.059908
0.112131
-0.196743
0.125237
-0.093777
-0.251009
-0.055654
-0.297861
-0.052401
0.158973
0.141803
-0.460946
0.198119
0.391098
-0.031381
0.234256
0.086141
-0.076481
0.498769
-0.437858
0.376602
-0.143175
-0.246432
-0.051477
0.017688
-0.134213
-0.273499
0.173512
0.123734
-0.049930
0.083483
-0.042511
0.147990
0.247052
0.477375
-0.355868
-0.124233
-0.055948
0.105596
-0.128171
-0.129077
0.141557
-0.017598
-0.249970
0.069981
0.303842
0.508504
0.502041
0.169537
0.076615
0.143492
-0.016044
0.094301
-0.138439
0.088018
0.026677
-0.305882
-0.026172
0.815886
-0.496930
-0.086367
-0.110453
0.278283
0.271603
0.129357
0.177339
-0.112749
-0.405403
0.191127
-0.074800
0.114445
0.125795
0.747804
0.139196
0.450262
-0.085839
-0.125193
-0.539653
0.054544
-0.033278
-0.076695
0.646159
-0.063582
-0.396720
0.558554
-0.394351
0.463040
0.424419
0.389883
0.085904
-0.223259
-0.497984
-0.227677
-0.073924
0.371799
-0.302964
0.366550
0.064122
-0.126230
-0.366334
0.140073
0.118458
0.061097
-0.288533
0.343874
-0.216560
0.114668
-0.187783
0.182711
0.066081
0.781740
0.271625
0.085575
1.088485
0.525813
-0.466331
-0.075125
0.259006
-0.269526
-0.036435
-0.166276
-0.264845
0.027883
0.100160
0.304130
0.067137
0.343209
-0.105191
0.657324
0.005107
0.658039
0.474058
0.142244
-0.379996
-0.509214
-0.013376
-0.164152
0.172479
0.106658
0.388692
0.328836
0.343038
-0.319033
0.350384
0.154737
0.239030
0.354439
0.313615
0.129925
-0.434845
0.485551
0.133861
-0.454171
-0.296222
0.076446
0.176886
0.720634
0.405588
0.238727
0.180648
0.048502
0.364408
0.319895
0.377091
0.465433
0.341446
-0.197580
0.251545
0.197939
0.069393
-0.162593
0.232581
0.631767
0.369804
0.035768
-0.146503
0.323027
-0.096524
-0.187727
0.306749
0.026024
-0.143092
0.089505
0.099401
-0.028646
0.383120
0.152202
0.023653
-0.084314
0.391475
0.020062
0.292287
0.479115
-0.024823
0.005795
0.069468
-0.053374
-0.001885
0.226498
0.019516
-0.065367
-0.257423
-0.093370
0.563293
0.262583
-0.090439
-0.305823
0.307055
0.209782
0.183447
-0.205098
0.442291
0.032414
0.331903
0.034967
-0.492068
0.151000
0.439799
-0.008785
0.478153
-0.218708
-0.058623
0.026931
-0.394645
0.089570
-0.037631
0.324315
-0.528036
-0.167502
0.225620
0.387057
-0.110820
0.227574
-0.294746
-0.183257
-0.218631
-0.288673
0.082509
-0.198956
0.250688
-0.141817
-0.198828
-0.707075
0.105113
0.730611
-0.388793
0.252389
0.312263
0.334957
0.064447
-0.123120
-0.359711
-0.231462
0.355377
-0.132455
-0.186800
0.755116
0.550750
-0.070194
0.449627
-0.047710
-0.050835
-0.067211
0.316706
0.142557
-0.074134
0.323929
-0.343949
0.219280
-0.105490
0.134377
0.123705
-0.030366
0.262640
0.184877
0.318732
0.077393
-0.113469
0.206555
-0.312272
0.822727
0.434528
0.108482
-0.007452
0.234571
-0.077329
0.151774
-0.113912
-0.398404
0.210363
0.434087
0.252348
0.050881
0.173415
-0.216596
-0.285488
-0.246035
0.097325
-0.165220
-0.423865
-0.011213
0.309071
0.226654
-0.085999
-0.115715
-0.402288
0.260761
-0.371232
0.465810
0.634326
0.362390
0.760184
0.596810
0.303568
0.315876
0.010865
0.391180
0.186590
-0.369069
-0.144402
-0.192187
0.375914
-0.101029
-0.309476
-0.276374
-0.073736
-0.570187
0.248960
0.294206
0.260404
0.473994
-0.203721
0.188998
0.092640
0.208856
-0.010256
-0.349520
-0.197817
0.195779
-0.030867
-0.801539
-0.061625
-0.220342
0.379065
0.243775
-0.153286
0.043401
0.447536
-0.201311
-0.018560
0.024496
-0.253171
0.088093
0.039578
0.169921
0.035695
0.629994
-0.132126
0.010013
-0.195750
0.428628
0.402556
0.196929
-0.050128
0.032945
0.193440
0.139153
0.298906
0.060817
0.084375
0.179172
-0.173918
0.077611
0.005774
0.577078
0.112758
-0.156963
0.312435
0.096541
-0.453546
-0.185496
0.510554
-0.089110
0.062346
-0.022095
-0.297969
0.677240
0.211878
-0.099240
0.337428
0.085351
0.293020
-0.008746
-0.289704
0.408315
0.179629
0.158028
0.358887
0.283065
-0.063303
-0.276273
0.351429
-0.206024
0.436257
0.026907
0.203474
-0.108329
-0.472662
-0.408826
-0.600066
0.291603
-0.039060
-0.259263
0.108170
0.246398
-0.162813
-0.239252
-0.478767
0.023825
0.073935
0.218540
-0.259181
0.357516
0.249244
0.341184
-0.385242
-0.209744
0.483319
0.003005
0.335799
-0.358077
0.504461
0.138392
-0.348951
0.226443
-0.489662
-0.079631
-0.266587
-0.387220
0.494584
0.217994
-0.178104
0.068362
-0.206800
-0.173141
0.211305
0.232289
-0.132448
-0.044472
-0.077797
0.375317
0.070115
0.139717
0.490780
-0.118162
0.244216
0.204223
0.158912
-0.004565
-0.095110
0.306248
0.373470
0.229849
-0.084499
-0.692296
0.105696
-0.222498
-0.095572
0.494293
-0.103902
-0.391229
-0.297622
-0.005778
0.368169
0.318108
-0.621100
0.336281
-0.321823
0.088151
0.104006
-0.013375
-0.134721
0.505480
0.565823
-0.244794
0.332673
0.080239
0.300950
-0.522208
0.245290
-0.222778
0.396088
0.152343
-0.039750
0.121744
0.109533
0.047734
0.282273
0.469802
-0.276025
-0.126783
-0.565187
0.225692
-0.030470
-0.170692
0.549466
0.090779
0.171527
-0.024639
0.435261
0.030031
0.559059
0.680223
0.095435
0.232214
-0.000928
-0.036732
-0.337148
0.049752
-0.376996
-0.462982
-0.393008
-0.122014
0.525067
-0.009062
0.243434
0.470083
0.222700
0.078172
-0.156437
0.161620
-0.018674
0.275802
0.127176
0.028298
0.030512
0.261114
-0.260054
-0.323829
0.257724
0.237852
0.280366
0.012782
0.275938
0.381141
-0.089987
-0.226086
-0.160035
0.135220
0.694839
-0.015175
0.103011
0.517521
0.118123
0.395613
0.173879
0.489076
0.459900
0.510615
0.278035
0.307599
0.085830
0.004185
-0.225900
0.069093
0.374192
-0.079027
0.226193
0.209637
0.125828
0.609995
0.170741
0.222581
0.241346
0.158752
0.274106
0.195406
0.267808
0.031622
0.250086
0.023853
-0.260059
0.080245
-0.612653
0.562232
-0.203581
-0.344703
0.589603
-0.105989
-0.105421
0.570495
-0.150525
0.148864
-0.278254
-0.026740
-0.005578
-0.179877
-0.011773
-0.010670
-0.426911
0.136268
0.529079
0.237288
-0.104199
0.108738
-0.100042
0.343960
-0.263648
0.153700
-0.136546
-0.084132
0.016549
-0.577617
-0.206694
-0.020460
0.083094
0.312247
-0.287018
-0.056570
-0.288763
-0.072790
0.317372
-0.170587
0.034981
0.065809
0.187488
0.139676
-0.436352
0.246236
-0.379295
0.100952
-0.023961
-0.014357
-0.140635
0.380640
0.029203
0.345632
-0.187678
0.320994
0.334566
0.081544
-0.060852
0.151478
-0.231907
-0.404417
0.200474
0.548967
-0.513390
0.347579
0.209969
-0.084700
-0.151883
-0.340096
0.107091
-0.461546
-0.221647
0.198537
0.125932
-0.536854
-0.313635
0.324220
0.086956
0.162423
0.014504
0.015738
-0.608589
-0.235779
0.159051
-0.066294
-0.187532
0.516082
0.360695
0.036755
0.475420
0.150019
0.095960
0.067820
-0.541036
0.184977
-0.220927
0.042131
0.183659
-0.361018
0.086422
0.270157
-0.123162
0.594668
-0.326185
0.076421
0.041724
-0.024181
0.360947
-0.180514
0.389765
0.186984
0.362967
0.197913
0.249532
-0.079476
0.006990
-0.079621
0.284875
-0.324690
0.346572
-0.219234
-0.390839
0.200104
-0.515213
0.304014
0.694247
0.588830
0.001804
0.324736
0.082723
0.315563
0.170104
0.249535
-1.018571
-0.070747
0.133003
0.133327
-0.099830
-0.110200
-0.103027
-0.155714
-0.020997
-0.157430
0.432285
-0.099272
0.262289
0.486835
-0.322788
0.013116
-0.118680
-0.511310
0.328827
0.421193
-0.201029
0.161717
0.095501
0.517283
0.186263
0.062146
-0.287645
-0.090357
0.025646
0.180425
0.288552
0.308463
0.429144
-0.391869
-0.266007
0.637298
0.417614
0.368707
0.306428
0.462580
0.233557
0.215667
-0.228449
0.030730
0.452954
0.355951
-0.047988
-0.230260
0.396704
-0.043709
0.511784
-0.035528
0.429397
0.617919
0.200540
0.385930
0.059868
-0.015299
0.153005
0.600413
0.096030
0.080839
0.087568
-0.084318
0.231394
0.185101
0.777826
-0.033752
0.352693
-0.090716
0.321026
0.522098
-0.121657
-0.701422
0.474441
0.388119
-0.110160
0.317762
0.142113
0.279395
-0.290582
0.152478
-0.150158
0.421463
0.000728
0.181755
0.315131
0.114128
0.098167
-0.290893
0.032561
0.092481
-0.355370
0.456708
-0.504422
-0.012391
0.106324
0.128033
0.444856
0.264608
-0.209749
-0.325901
0.060590
-0.484118
-0.029770
-0.183851
-0.126396
0.167542
-0.207101
-0.100563
0.123180
-0.019797
-0.053876
-0.473624
-0.124641
-0.060594
-0.283313
0.312241
0.064628
0.031027
-0.231255
-0.294175
0.004376
-0.081349
0.242568
0.345599
0.271668
-0.209491
0.022432
-0.083860
0.292281
-0.219440
0.123671
0.066733
0.091312
-0.055375
-0.409528
-0.105758
-0.279630
0.162694
0.230739
0.044734
-0.344491
0.032396
-0.458492
0.130480
-0.403485
-0.104130
-0.119404
0.335829
0.407976
0.024550
0.328027
-0.245088
0.462901
0.883026
-0.209597
0.015744
0.292742
0.112903
-0.135262
-0.084056
-0.337867
0.204521
-0.250928
-0.426439
0.162331
0.102584
-0.177561
0.281622
-0.147591
0.006969
-0.008482
0.067239
-0.041443
0.018058
-0.026966
-0.116067
0.380716
0.040817
0.174334
-0.172704
-0.279937
0.159622
-0.527871
0.058903
-0.627654
0.223718
-0.523696
0.435505
0.525055
0.629765
-0.225554
1.004430
0.832828
0.588892
1.004844
0.065449
-0.320099
0.092246
-0.381092
0.030423
0.203780
0.452093
0.521692
0.218465
-0.025582
0.291549
-0.129173
0.142795
0.209703
-0.117113
0.128844
0.359313
