0.006096
0.032797
0.053829
-0.054017
0.039004
0.009906
0.020796
0.077537
0.010197
0.061591
-0.007671
-0.019739
0.034981
-0.046574
0.067568
0.018840
0.064644
0.102704
0.041618
0.037122
0.025851
0.099005
0.078896
0.053849
0.110183
0.072604
0.141040
-0.008270
0.097785
0.143885
0.146278
0.186888
0.110164
0.243154
0.259705
0.154631
0.112867
0.187354
0.122507
0.203106
0.201728
0.145531
0.103817
0.124981
0.256324
0.183731
0.168976
0.066076
0.112289
0.106538
0.002423
0.030096
0.135933
0.119190
0.072130
0.129588
0.160795
0.091844
0.045280
0.040091
0.065507
0.095757
-0.019449
0.039602
0.007848
0.101553
0.038779
0.062094
0.090849
0.040717
0.070352
0.253437
0.543315
0.760039
1.062542
1.409068
1.409824
1.373041
1.011853
0.637437
0.353408
0.016193
-0.079664
-0.126343
-0.121585
-0.033179
-0.048067
0.057596
0.084137
0.084184
0.152036
0.176921
0.052146
0.129847
0.067084
0.069927
0.192457
0.177681
0.267112
0.219502
0.312327
0.210480
0.315473
0.286930
0.265302
0.305637
0.295036
0.304785
0.320884
0.372665
0.409880
0.357228
0.415715
0.413249
0.505290
0.464687
0.555825
0.481102
0.575365
0.679246
0.520876
0.587853
0.637819
0.588733
0.574446
0.545871
0.554486
0.693957
0.592052
0.641778
0.586972
0.582975
0.472683
0.554709
0.475791
0.518685
0.463260
0.355155
0.446885
0.373027
0.324621
0.320196
0.387975
0.299823
0.274359
0.212335
0.217127
0.338574
0.194215
0.281088
0.188884
0.246570
0.145985
0.208905
0.076430
0.180344
0.194829
0.131735
0.178861
0.131279
0.118554
0.098247
0.028410
0.132347
0.053817
0.071232
0.048528
0.171238
0.054967
0.118309
0.067902
0.003717
0.083893
0.039933
0.112638
0.071833
0.101300
0.185372
0.036113
0.099107
0.120832
0.184710
0.102829
0.114963
-0.028667
0.094771
0.113431
0.130665
0.038905
0.116721
0.101207
0.056550
0.064062
0.022175
0.120882
0.049080
0.120976
0.148496
0.085898
0.024332
0.077561
0.069349
0.096876
0.077467
0.059068
0.062247
0.116898
0.076523
0.111961
0.160251
0.180249
0.153554
0.175776
0.117907
0.243190
0.261072
0.141596
0.158661
0.158688
0.256078
0.228785
0.169320
0.231263
0.192583
0.259721
0.233604
0.227454
0.289919
0.218084
0.318667
0.177891
0.348061
0.219856
0.178291
0.310851
0.180842
0.199378
0.228873
0.173163
0.167589
0.094032
0.149318
0.169902
0.053391
0.141429
0.136313
0.116137
0.118252
0.100271
0.097493
0.059763
0.037528
0.093766
0.108307
0.024939
0.160435
0.057858
0.064886
0.076759
0.155770
0.223578
0.304212
0.528779
0.794008
1.128780
1.448273
1.389382
1.379942
1.074541
0.751770
0.376406
0.085426
-0.085884
-0.154099
-0.132944
-0.006174
0.077540
0.093738
0.109947
0.183468
0.124352
0.166891
0.183758
0.149254
0.092389
0.134637
0.216053
0.154650
0.147958
0.166668
0.242305
0.252839
0.251248
0.320841
0.258954
0.283101
0.227248
0.356347
0.292525
0.420401
0.352416
0.483526
0.428020
0.449424
0.499955
0.483024
0.448748
0.507946
0.493360
0.508170
0.687438
0.518227
0.541719
0.563101
0.581821
0.605069
0.571461
0.577090
0.517642
0.453686
0.553013
0.534083
0.566049
0.460486
0.445549
0.415960
0.444879
0.465776
0.341211
0.332974
0.264315
0.359692
0.307687
0.294481
0.258868
0.226758
0.259199
0.183713
0.171137
0.095773
0.070482
0.212904
0.163763
0.127063
0.078785
0.127276
0.103258
0.050227
0.099562
0.069923
0.036653
0.051676
0.079288
0.067170
0.016024
0.041072
-0.003610
0.019071
0.076210
0.057120
0.052702
-0.002630
0.017886
0.017819
0.079993
0.016869
0.093774
0.045450
-0.014318
-0.006136
0.128258
0.037903
-0.005552
0.001955
-0.000508
0.065101
-0.041311
0.013621
-0.011351
0.056226
0.019916
0.053324
0.079317
0.006969
-0.064875
-0.001015
0.024785
0.034257
0.110509
0.059762
0.004655
0.004140
0.049426
0.057654
0.018430
0.080522
-0.000891
0.053916
-0.001113
0.066795
0.024652
0.118535
0.074881
0.073652
0.097541
0.096301
0.082276
0.125446
0.139389
0.159350
0.166031
0.118473
0.205360
0.087410
0.186837
0.326641
0.161955
0.167926
0.220929
0.159949
0.251132
0.131111
0.105897
0.124544
0.150508
0.092894
0.144671
0.112582
0.191763
0.093195
0.108089
0.062471
0.101655
0.019927
0.030292
-0.003136
-0.023893
0.026353
0.095590
0.024531
-0.015547
0.019235
-0.036926
-0.024705
0.023027
0.004019
-0.003476
-0.023183
-0.036918
0.043751
0.023297
0.196945
0.521346
0.767233
1.113956
1.304117
1.328906
1.202154
0.915634
0.576993
0.259508
-0.018363
-0.168918
-0.197112
-0.117754
-0.087313
-0.000015
-0.063885
-0.107509
0.041312
0.022689
0.045631
0.049657
0.053884
0.057172
0.075543
0.101458
0.129923
0.066828
0.197538
0.177802
0.137666
0.146259
0.079137
0.164360
0.268421
0.237616
0.288282
0.385957
0.326022
0.373735
0.343519
0.353108
0.377903
0.442335
0.399708
0.461917
0.440442
0.506826
0.411235
0.475363
0.504624
0.456324
0.396225
0.532882
0.501005
0.514376
0.519947
0.442354
0.495591
0.468597
0.453056
0.433424
0.407908
0.371907
0.294413
0.347020
0.287947
0.332364
0.237552
0.312554
0.153794
0.273230
0.075725
0.191691
0.192860
0.164553
0.121202
0.068241
0.208570
0.120491
0.043703
0.036350
0.004841
-0.054384
0.043298
0.066444
-0.041429
-0.001766
0.008187
0.040194
-0.084627
0.062066
-0.038757
-0.074183
-0.070369
-0.026724
-0.065228
-0.042777
0.014389
-0.086563
-0.094142
-0.011853
0.109476
-0.078514
0.009563
-0.023008
-0.135679
-0.024058
-0.054304
-0.065667
-0.069210
-0.104072
-0.072247
0.047559
-0.062111
-0.024883
-0.036346
-0.017388
-0.112690
-0.140764
-0.105652
-0.051007
-0.036765
-0.012917
0.030428
-0.111359
-0.055843
-0.098579
-0.113309
-0.066535
-0.027642
-0.033278
-0.056437
-0.065603
-0.033270
-0.053653
-0.019024
0.045261
-0.011432
0.061601
-0.015320
-0.001469
0.073116
0.028752
0.003433
0.091582
0.097516
0.012484
0.154836
0.149738
0.107335
0.067849
0.152612
0.118839
0.179371
0.125199
0.151372
0.088011
0.035783
0.140706
0.114669
0.083430
0.116405
0.089480
0.132652
0.050711
0.135667
0.131598
0.032038
0.063848
-0.030893
0.042824
-0.087568
-0.007245
0.006890
0.078775
-0.012490
-0.066446
0.007000
-0.072074
-0.081086
0.010471
0.002306
-0.084327
-0.019044
-0.028458
-0.097382
-0.041693
-0.027592
0.009516
0.144839
0.476539
0.757731
1.038602
1.355224
1.269265
1.157580
0.883734
0.528045
0.144271
-0.131463
-0.254848
-0.196481
-0.218031
-0.147838
-0.069129
-0.053308
-0.066593
-0.072169
0.006999
0.039823
0.061701
0.079749
0.064512
0.068427
0.019308
0.133037
0.160127
0.150210
0.146238
0.108763
0.257663
0.231215
0.262942
0.270710
0.319383
0.315850
0.354396
0.344531
0.429156
0.287071
0.326400
0.444110
0.336372
0.423209
0.472867
0.475419
0.492962
0.456640
0.472621
0.501852
0.522625
0.463793
0.444187
0.434070
0.515999
0.551698
0.469273
0.531157
0.499693
0.427478
0.477575
0.390445
0.377561
0.412850
0.338931
0.368288
0.320920
0.195312
0.305461
0.271820
0.295946
0.162699
0.129009
0.143226
0.139969
0.194725
0.198119
0.186411
0.146207
0.139940
0.001665
0.103435
0.160707
-0.013235
0.037156
0.106900
-0.026441
0.061024
0.061175
0.054621
-0.006933
0.029400
0.018635
0.056350
0.042912
0.060219
-0.013081
0.052998
0.041433
0.023549
0.038932
0.088303
0.031521
0.044327
0.039152
0.025332
-0.039035
-0.009126
0.030187
0.000976
-0.032979
0.035335
0.030288
0.034785
-0.017678
0.045357
0.043889
0.078141
0.058757
-0.017459
0.111019
0.041419
0.007664
0.002769
0.111899
-0.011493
0.079409
0.074417
0.052760
0.006609
0.151886
0.019491
0.042012
0.038807
0.056720
0.132931
0.073939
0.044819
0.060124
0.095937
0.056999
0.114983
0.104690
0.120652
0.166100
0.155681
0.227131
0.121030
0.154706
0.196550
0.247101
0.209812
0.257898
0.246028
0.226074
0.286874
0.183056
0.160493
0.244736
0.257670
0.289123
0.185109
0.203324
0.122290
0.143199
0.241498
0.137693
0.115421
0.135949
0.053602
0.116060
0.117035
0.212297
0.120389
0.054670
0.068424
0.029762
0.035468
0.112267
0.123041
0.106559
-0.024169
0.013652
0.083207
0.068002
0.146711
0.072785
0.126358
0.237927
0.464370
0.618714
0.937114
1.191561
1.404115
1.435287
1.265784
0.982238
0.545215
0.178682
-0.100108
-0.135298
-0.093105
-0.040623
0.082910
0.053321
0.068429
0.101990
0.165703
0.082316
0.129666
0.067719
0.109880
0.166204
0.163122
0.186307
0.202087
0.141193
0.278221
0.145540
0.231860
0.299797
0.342610
0.309774
0.296131
0.389722
0.366139
0.362530
0.436011
0.378935
0.483495
0.492340
0.497936
0.552616
0.535502
0.477103
0.628501
0.586873
0.575768
0.578272
0.604354
0.581949
0.544759
0.651252
0.534328
0.524913
0.604939
0.546680
0.566634
0.546661
0.515440
0.515485
0.495454
0.520378
0.433765
0.427048
0.364403
0.409267
0.313626
0.348711
0.278203
0.258200
0.325811
0.278674
0.165179
0.255950
0.209959
0.242023
0.242172
0.150159
0.109735
0.145509
0.172232
0.070714
0.215311
0.232058
0.163929
0.062352
0.073339
0.135210
0.089965
0.140581
0.058035
0.130621
0.070808
0.052974
0.015676
0.084459
0.085540
0.110198
0.115267
0.084763
0.146937
0.112009
0.149983
0.067582
0.113465
0.134245
0.071958
0.191635
0.129167
0.139294
0.015920
0.031534
0.169289
0.076853
0.091819
0.045622
0.048015
0.097659
0.108986
0.102117
0.079670
0.049584
0.093514
0.117958
0.084292
0.138188
0.103957
0.070598
0.053253
0.094732
0.085423
0.067159
0.152944
0.067350
0.125967
0.101582
0.129072
0.101139
0.066990
0.194705
0.190709
0.165392
0.184365
0.195227
0.249067
0.291042
0.250496
0.287101
0.239058
0.226128
0.208363
0.213200
0.272991
0.184244
0.297618
0.244941
0.265804
0.244836
0.234168
0.286348
0.269590
0.224074
0.274417
0.228501
0.168794
0.216410
0.136768
0.154545
0.195725
0.111696
0.078392
0.131863
0.100622
0.189148
0.193699
0.064897
0.161863
0.071154
0.097655
0.073285
0.076785
0.163764
0.151686
0.077979
0.012544
0.055030
0.149879
0.124064
0.370693
0.683833
0.920336
1.280780
1.407315
1.500000
1.245042
0.877764
0.447590
0.148452
-0.039946
-0.155422
-0.157194
-0.082794
-0.079061
0.093973
0.049036
0.053087
0.053353
0.146290
0.116660
0.103687
0.196111
0.163460
0.119442
0.153110
0.124346
0.253281
0.179968
0.174014
0.287163
0.240605
0.246903
0.283842
0.295649
0.357507
0.362118
0.377220
0.373553
0.415582
0.461478
0.412796
0.522253
0.503282
0.548329
0.526572
0.506317
0.583125
0.593590
0.610383
0.579398
0.627163
0.563936
0.604335
0.589589
0.613574
0.562326
0.523111
0.449365
0.546095
0.485487
0.428505
0.495644
0.413638
0.445890
0.405532
0.321094
0.350036
0.393696
0.356150
0.287541
0.166338
0.272454
0.193713
0.243865
0.109195
0.206044
0.261063
0.171515
0.123577
0.118027
0.111975
0.153435
0.156690
0.100677
0.154562
0.053133
0.110299
0.030509
-0.023786
0.106623
0.005608
0.101812
-0.056430
-0.021505
0.068334
0.002463
0.133274
-0.011798
-0.012387
-0.052915
0.014404
0.078557
-0.098129
0.036281
-0.034372
-0.046122
0.029643
0.023162
0.011990
0.048104
-0.058265
0.025831
0.038400
-0.041595
-0.023993
-0.051877
0.008261
-0.065987
-0.031479
0.075585
0.086190
0.032060
0.045650
-0.005632
-0.023923
-0.011159
-0.039285
0.060394
0.015696
-0.057780
0.028298
0.027078
0.016431
0.117829
0.086541
0.008305
0.067558
0.010766
-0.001518
-0.011118
0.069912
0.098676
0.144104
0.004737
0.116735
0.022384
0.144481
0.118155
0.115458
0.197851
0.171789
0.249923
0.114102
0.158096
0.127592
0.093395
0.103567
0.161501
0.155222
0.123564
0.198867
0.137509
0.003676
0.111838
0.073932
0.173740
0.099752
0.063914
0.090073
-0.029604
0.039239
-0.039961
-0.023309
0.035495
0.025474
-0.006313
-0.068267
0.006601
-0.032184
0.012353
-0.059045
-0.048086
-0.006943
0.028772
-0.046433
-0.032295
-0.046143
-0.003818
0.140102
0.334880
0.541494
0.917734
1.278931
1.360830
1.270307
1.094924
0.725081
0.350632
0.010430
-0.126793
-0.288022
-0.294241
-0.197720
-0.146869
0.028734
-0.077799
0.069718
-0.129716
-0.050290
0.043742
0.007267
-0.033320
0.006293
0.057268
0.002755
-0.044032
0.088737
0.039358
0.092439
0.087042
0.169295
0.129438
0.160024
0.189162
0.188952
0.282106
0.306187
0.266840
0.301984
0.282998
0.290193
0.361406
0.335836
0.415639
0.475994
0.405136
0.399736
0.461702
0.488941
0.447175
0.530758
0.432899
0.599889
0.442086
0.445552
0.491189
0.343542
0.435964
0.381010
0.365164
0.386074
0.324338
0.358245
0.357959
0.329155
0.268194
0.222851
0.260174
0.278397
0.170938
0.091096
0.162975
0.129180
0.103960
0.139949
-0.002116
0.055483
0.080694
-0.013888
0.058158
0.002202
-0.109772
-0.025756
0.042568
-0.064889
-0.084805
-0.113916
-0.070169
-0.044464
-0.057684
-0.039558
-0.124248
-0.103677
-0.153707
0.014652
-0.065866
-0.052872
-0.033019
-0.057479
-0.081298
-0.139844
-0.057173
-0.052028
-0.039114
-0.052123
-0.040662
-0.022281
-0.060050
-0.100597
-0.132147
-0.123129
-0.101265
-0.005878
0.035839
-0.058797
-0.028256
-0.098648
-0.086940
-0.037788
-0.052749
-0.017309
-0.066719
-0.121106
-0.095393
-0.055910
-0.090334
-0.146471
-0.033678
-0.074071
-0.093145
-0.102242
-0.103454
-0.068608
-0.092780
-0.043843
-0.003542
-0.058118
-0.020089
-0.019647
-0.041746
-0.114787
0.039738
0.078490
0.011802
0.055408
-0.013893
0.032089
0.076743
0.010327
0.122686
0.083686
0.098020
0.101917
0.122286
0.147028
0.173223
0.134197
0.110651
0.106103
0.094843
-0.004497
0.010114
-0.010207
0.046410
0.077822
0.039816
0.009863
0.040557
0.020694
-0.011219
-0.010828
-0.071804
-0.072202
-0.076377
-0.007876
-0.074991
-0.073510
-0.078617
-0.123367
-0.052065
-0.160766
-0.029995
-0.041776
-0.058664
-0.046471
-0.047081
-0.082167
-0.056129
0.100144
0.430330
0.558312
0.906955
1.184090
1.289692
1.155431
1.015544
0.553014
0.247615
-0.024830
-0.196068
-0.332002
-0.255637
-0.173756
-0.125442
-0.058415
-0.068836
-0.026728
-0.088397
-0.030231
-0.067301
-0.052462
0.011168
0.070437
0.086351
-0.004215
0.126547
0.045537
0.064872
0.109352
0.141444
0.124206
0.193184
0.114370
0.145295
0.203828
0.200623
0.305259
0.210791
0.347580
0.401307
0.393970
0.359499
0.374237
0.357989
0.454347
0.435237
0.502440
0.477706
0.456731
0.429404
0.424395
0.505450
0.513858
0.468390
0.493282
0.473901
0.370438
0.476700
0.443141
0.392835
0.461973
0.376243
0.324642
0.296338
0.314066
0.412458
0.299169
0.257049
0.247354
0.258229
0.136023
0.196437
0.145887
0.064302
0.162731
0.117590
0.060358
0.105848
0.183854
-0.066995
0.015482
0.014918
0.054234
0.086566
-0.057515
0.039411
0.008226
-0.066015
-0.007765
-0.036461
-0.003411
-0.009870
-0.006849
-0.053878
-0.000932
-0.096902
0.011517
-0.044438
-0.045027
-0.063356
-0.076739
0.007918
0.001253
-0.047215
0.077785
0.006015
-0.084595
-0.073162
0.011340
-0.037933
0.068612
-0.040887
-0.014590
0.017402
-0.016715
-0.024428
0.018971
0.034827
-0.022320
-0.027652
-0.001601
-0.080486
-0.052423
-0.010395
0.016259
-0.032993
0.007436
-0.040081
-0.021139
0.085156
-0.029126
0.071743
0.005181
0.020874
-0.007365
0.000415
0.087680
0.090844
0.020368
-0.034007
0.027224
0.051039
0.121255
0.134412
0.048450
0.084094
0.079520
0.152457
0.153117
0.135920
0.208406
0.155683
0.073204
0.141676
0.187706
0.148875
0.217905
0.237767
0.152644
0.231115
0.167957
0.135984
0.096063
0.145405
0.152867
0.137895
0.037365
0.103084
0.134463
0.106478
0.116761
0.045023
0.054341
0.058923
0.007063
0.046756
-0.017500
0.057217
0.082056
-0.049280
0.095436
0.080040
-0.064386
-0.046956
0.046469
-0.006676
0.022896
0.119900
0.252106
0.385046
0.721721
1.066620
1.291499
1.442412
1.301233
1.033824
0.704956
0.331647
-0.090116
-0.153278
-0.180835
-0.130292
-0.056783
-0.007466
0.068925
0.098101
0.010765
0.072350
0.052935
-0.015547
0.114949
0.143605
0.093408
0.149268
0.155848
0.065804
0.130617
0.170163
0.244802
0.239660
0.254499
0.235158
0.217776
0.299596
0.349158
0.409231
0.386145
0.348513
0.416607
0.412587
0.501574
0.445957
0.528312
0.480600
0.513395
0.582606
0.482343
0.548001
0.541075
0.485560
0.554528
0.571433
0.513116
0.477180
0.549793
0.531174
0.525644
0.529195
0.548317
0.437345
0.451228
0.438991
0.499110
0.302967
0.321705
0.296026
0.305198
0.317006
0.327610
0.225404
0.287848
0.234707
0.261770
0.342747
0.240209
0.212613
0.208359
0.201893
0.135426
0.032334
0.097635
0.077356
0.130048
0.027931
0.120345
0.099686
0.095447
0.119799
0.074640
0.082608
0.057220
0.093072
0.072111
0.088524
0.121405
0.070677
-0.002636
-0.002601
0.072306
0.114573
0.025801
-0.004534
-0.009512
0.089079
0.054488
0.074552
0.030727
0.035348
0.045341
0.075774
0.077379
0.064360
0.043579
0.058807
0.018144
-0.019266
0.008858
0.083060
0.057980
0.064658
0.005841
0.079349
0.013923
0.124027
0.070971
0.057936
0.033453
-0.019737
0.048225
0.001936
0.027704
0.061019
-0.032717
0.087114
0.070140
0.092754
0.011252
0.123749
-0.010814
0.053879
0.092653
0.132209
0.130056
0.149332
0.170983
0.200008
0.141179
0.182844
0.185925
0.158632
0.177962
0.218628
0.243083
0.219243
0.234156
0.184597
0.245625
0.159542
0.094953
0.178432
0.251451
0.185864
0.129508
0.151313
0.196796
0.127484
0.096947
0.114574
0.147398
0.090471
0.109525
0.064676
0.048988
0.057681
0.022931
0.060744
-0.002487
0.115465
0.089428
0.007805
0.012848
0.046317
0.068901
0.058739
0.050494
0.084328
0.053622
0.096441
0.282641
0.426021
0.710540
1.209630
1.317276
1.456411
1.258031
0.969325
0.671699
0.228380
0.048789
-0.182077
-0.195635
-0.134338
-0.018319
0.010881
-0.015919
-0.001684
0.044576
0.038775
0.047624
0.031608
0.043002
0.126785
0.035139
0.135181
0.134388
0.072490
0.142942
0.208507
0.176567
0.209139
0.227074
0.304480
0.291930
0.273648
0.267091
0.264694
0.410862
0.385829
0.355382
0.362134
0.403450
0.451386
0.470869
0.467517
0.478280
0.479720
0.556389
0.503840
0.466085
0.536246
0.603418
0.505720
0.553621
0.529519
0.538523
0.484516
0.537397
0.467814
0.559017
0.342293
0.407390
0.369100
0.368033
0.389575
0.352021
0.277305
0.264352
0.327278
0.226504
0.258294
0.205121
0.167095
0.210718
0.090816
0.066890
0.095313
0.152304
0.110607
0.174634
0.075671
0.066508
-0.008579
0.043210
0.051093
0.075409
-0.035226
0.055687
0.036461
0.036003
0.000695
0.029221
0.082212
-0.023478
0.033221
-0.062928
-0.022006
-0.014310
0.037571
-0.111045
0.038519
-0.043648
-0.102630
-0.014951
0.044073
-0.083841
-0.051129
0.032808
0.020906
-0.021721
0.020731
0.075933
-0.038854
-0.012832
-0.023737
-0.064112
-0.147319
0.010075
0.001604
-0.065867
-0.036838
0.007010
0.021237
-0.052183
-0.003158
-0.081342
-0.006184
-0.072669
0.050731
-0.058710
-0.064413
0.022513
-0.041706
-0.009523
0.007531
-0.071677
-0.019429
-0.064148
-0.084488
-0.012271
0.064323
0.060738
0.085748
0.024635
0.032240
0.013653
0.082234
0.074206
0.163477
0.064651
0.092323
0.159199
0.081044
0.099536
0.266628
0.112126
0.052187
0.020383
0.058915
0.099103
0.057333
0.114087
0.105902
0.118240
0.032882
0.061323
0.024574
-0.018549
-0.012716
0.025963
-0.084538
0.073544
-0.046245
-0.076194
0.025888
-0.028820
-0.024608
-0.047843
-0.106485
-0.043830
-0.050908
-0.024327
-0.137681
-0.015664
-0.073554
-0.002102
-0.053465
-0.122457
-0.067742
0.196064
0.469073
0.738780
1.072847
1.180643
1.308168
1.185130
0.865709
0.479240
0.116388
-0.103487
-0.266882
-0.271472
-0.260753
-0.205868
-0.194660
-0.114411
-0.009803
-0.082581
-0.065361
-0.051772
0.028250
0.057332
-0.011659
0.016799
0.015728
0.014207
0.082408
0.010262
0.084086
0.095775
0.113355
0.125180
0.143732
0.088137
0.198305
0.200864
0.216004
0.173421
0.238551
0.229695
0.384129
0.261215
0.370766
0.362093
0.351705
0.297284
0.385230
0.354880
0.433320
0.355203
0.448571
0.424058
0.472323
0.405856
0.442807
0.450033
0.421562
0.284982
0.335060
0.365535
0.338106
0.449530
0.322066
0.282769
0.181681
0.238003
0.221301
0.159381
0.175159
0.099471
0.188610
0.130785
0.124549
0.026625
0.063533
0.057831
0.041208
-0.027102
0.003551
-0.101051
0.011959
0.009046
0.009904
0.042551
0.012104
-0.094105
0.001321
-0.063301
-0.126457
-0.088688
-0.120404
-0.044770
-0.040111
-0.091473
-0.158728
-0.118556
-0.091817
-0.041372
0.002654
-0.070157
-0.125381
-0.085120
-0.145639
-0.079893
-0.009226
-0.117970
-0.130585
-0.099452
-0.032655
-0.122571
0.004953
-0.191668
-0.120725
-0.088419
-0.172526
-0.113133
-0.053226
-0.137082
-0.046584
-0.126157
-0.097860
-0.145852
-0.067617
-0.181255
-0.165251
-0.122103
-0.112123
-0.193688
-0.092244
-0.097471
-0.168167
-0.013574
-0.071723
-0.089306
-0.085431
-0.067375
-0.052109
-0.112090
-0.037522
-0.112299
-0.038191
-0.092948
-0.039928
-0.052806
-0.058569
-0.040604
-0.057841
0.079573
0.112828
0.002921
0.055454
0.051280
0.086582
0.035612
0.045416
0.121653
0.047652
0.150505
0.049227
0.037593
-0.004895
0.093169
0.025823
0.150490
0.067302
-0.030735
0.033478
-0.000686
-0.026612
-0.048776
-0.022092
-0.066748
-0.047605
-0.069540
0.000872
-0.003832
-0.078665
-0.047221
-0.097293
-0.024334
-0.092082
-0.031832
-0.061338
-0.083315
-0.088505
-0.152268
-0.072396
-0.103819
0.064128
0.182961
0.433797
0.697789
1.100731
1.340833
1.329672
1.123886
0.779059
0.394073
0.165584
-0.139057
-0.241549
-0.309281
-0.240602
-0.135225
-0.120021
-0.042797
-0.115010
-0.091525
-0.072367
-0.030633
-0.034653
0.031860
-0.020531
0.011043
0.039240
0.027280
0.004036
0.122422
0.078747
0.095457
0.090075
0.150157
0.169448
0.266024
0.171398
0.223525
0.277495
0.278391
0.218720
0.268790
0.315692
0.432659
0.376236
0.388207
0.476996
0.448487
0.380465
0.463528
0.512190
0.454125
0.589012
0.408227
0.503980
0.567855
0.487382
0.408798
0.412157
0.487075
0.413813
0.404540
0.402790
0.383215
0.340409
0.361567
0.290102
0.354517
0.327630
0.313922
0.174511
0.242515
0.199029
0.143037
0.149046
0.105176
0.114203
0.181747
0.138539
0.113811
0.115800
0.017488
0.024702
0.053281
0.056738
-0.015316
0.044568
-0.019830
0.049494
-0.026219
0.075161
0.041066
0.021294
-0.024614
-0.041641
0.016433
0.005857
-0.016211
0.103096
0.013151
-0.057476
-0.076937
-0.011619
-0.035219
-0.009387
-0.054171
0.000723
-0.051032
0.023374
0.006937
-0.005703
0.022600
-0.038594
-0.044860
0.007247
0.058481
-0.061149
-0.035718
-0.019407
0.002317
-0.017235
-0.013564
-0.041286
-0.107836
-0.067620
-0.057260
-0.051808
-0.053862
0.016779
0.086426
0.038045
-0.015771
0.032051
0.026980
-0.040603
-0.052317
0.037327
0.117778
0.011272
0.028479
0.071842
0.072353
0.126053
-0.009784
0.108324
0.061949
0.059381
0.054429
0.151224
0.175316
0.213288
0.076985
0.233093
0.208688
0.164999
0.199605
0.211254
0.198906
0.197756
0.101563
0.174824
0.221557
0.192362
0.152639
0.232382
0.170845
0.182832
0.058691
0.054211
0.156848
0.175295
0.094426
0.043871
0.108224
0.041255
0.044453
0.038323
0.039477
0.013331
0.088962
0.081926
0.035956
0.035353
0.027005
0.060095
0.052905
-0.026746
-0.053970
0.100218
0.085596
0.039633
0.275352
0.597374
0.925099
1.212843
1.438804
1.409657
1.246358
0.875692
0.539190
0.173272
-0.107501
-0.151099
-0.118223
-0.091366
-0.066461
-0.016084
0.012790
0.050077
0.140960
0.189515
0.043353
0.160737
0.133493
0.099748
0.088612
0.125018
0.125845
0.216376
0.240597
0.170217
0.241639
0.221279
0.304046
0.289163
0.256141
0.288681
0.308873
0.338157
0.347518
0.371339
0.348602
0.456099
0.474884
0.463983
0.554466
0.608258
0.509825
0.478051
0.582245
0.569523
0.605433
0.469416
0.600832
0.597503
0.633895
0.522721
0.545109
0.536078
0.575283
0.580030
0.580108
0.458292
0.607009
0.424730
0.385707
0.405584
0.349634
0.400852
0.342532
0.290932
0.300706
0.276841
0.315042
0.327742
0.242102
0.176073
0.195130
0.221720
0.171916
0.232590
0.096561
0.127654
0.124579
0.153208
0.149339
0.168639
0.108831
0.083126
0.045499
0.138452
0.081858
0.068861
0.095883
0.070413
0.068426
0.055815
0.029349
0.107582
0.044359
0.087919
0.076210
0.110078
0.055464
0.118297
0.059169
0.087995
0.050538
0.006669
0.053310
0.050341
0.096561
0.044761
0.033757
0.078295
0.086933
0.080756
0.094451
0.090523
0.112594
0.175449
0.031686
0.049024
0.037093
0.047872
0.049053
0.077576
0.045578
0.125514
0.068143
-0.011272
0.019588
0.015445
0.198417
0.114940
0.024334
0.009522
0.107590
0.130032
0.139420
0.214483
0.192783
0.222904
0.088449
0.197648
0.093187
0.165204
0.142889
0.231905
0.125125
0.238446
