0.007011
-0.055246
0.023231
-0.035400
-0.065588
0.054849
-0.028935
0.024236
0.016009
-0.005376
0.015672
-0.042066
0.030402
-0.015292
-0.010148
0.002164
0.012503
0.059915
0.022645
-0.035820
0.047096
-0.012973
0.106149
0.007222
0.045572
0.053082
0.119386
0.076926
0.048418
0.118377
0.045421
0.084186
0.100555
0.124109
0.066241
0.188353
0.198142
0.249332
0.179456
0.151701
0.189524
0.167536
0.191036
0.165867
0.223669
0.278122
0.210311
0.155484
0.212444
0.179548
0.169478
0.161389
0.190585
0.076942
0.104513
0.137539
0.095652
0.178523
0.073553
0.125914
0.045548
0.110527
0.072832
0.064541
0.029137
0.116505
0.011816
0.065072
-0.018927
0.064267
0.051559
0.012764
0.035564
0.029140
0.045440
0.057170
0.113424
0.017402
-0.006182
-0.015618
0.061177
0.108645
0.215158
0.411608
0.717902
1.041624
1.307434
1.398471
1.402289
1.145476
0.734314
0.391136
0.034356
-0.078618
-0.138886
-0.201379
-0.115315
-0.002261
-0.094906
0.023002
0.016648
0.043853
0.084360
0.118539
0.030936
0.028080
0.111380
0.056648
0.138016
0.122506
0.035283
0.105225
0.125392
0.132928
0.140504
0.253416
0.157727
0.193865
0.257210
0.209881
0.309187
0.326263
0.184947
0.264353
0.335889
0.379658
0.329365
0.383194
0.368798
0.394326
0.381622
0.528784
0.508091
0.524231
0.562181
0.569236
0.582006
0.590467
0.545437
0.554054
0.571272
0.574899
0.594406
0.572919
0.497298
0.596166
0.601804
0.540102
0.494908
0.508076
0.449895
0.520638
0.472017
0.455488
0.411962
0.396583
0.336672
0.321679
0.296448
0.327450
0.290683
0.274175
0.212962
0.253948
0.250439
0.210681
0.251365
0.182585
0.161574
0.149559
0.199995
0.105112
0.098382
0.101686
-0.002335
0.049880
0.111072
0.083709
0.118897
0.082157
0.003618
0.113516
0.159616
0.170867
0.119942
0.079497
0.039409
0.032577
0.050824
0.112380
0.079198
0.052898
0.040614
0.213364
0.178249
0.164546
0.127649
0.117971
0.073646
0.083837
0.058869
0.124983
0.014059
0.044112
0.098753
0.116324
0.108810
0.106388
0.060586
0.037291
0.150230
0.139092
0.101335
0.055863
0.033078
0.084400
0.070402
0.039878
0.060438
0.112507
0.083336
-0.012417
0.071475
0.102516
0.136598
0.122858
0.007638
0.098037
0.114306
0.111611
0.066542
0.126505
0.012012
0.104690
0.043937
0.103818
0.057496
0.164686
0.160118
0.094498
0.041458
0.151236
0.073161
0.140693
0.212817
0.117327
0.089895
0.202290
0.167276
0.102429
0.169952
0.147994
0.200291
0.176470
0.171211
0.250771
0.267863
0.214262
0.208386
0.198105
0.212696
0.270383
0.245739
0.212793
0.280250
0.246771
0.179256
0.284469
0.156730
0.221592
0.142837
0.147511
0.128433
0.235853
0.146106
0.225269
0.135716
0.086922
0.125627
0.085172
0.165514
0.088204
-0.004964
0.072568
0.111430
0.074445
0.090744
0.024869
0.044753
0.082110
0.059387
0.093602
0.038811
0.012873
0.010678
0.029365
-0.004286
0.062831
0.077161
0.178725
0.367776
0.575529
0.908282
1.251707
1.396695
1.345740
1.284935
0.916994
0.571543
0.229238
0.014135
-0.146087
-0.186205
-0.195445
-0.108237
-0.075713
-0.070662
0.061392
0.016117
0.074289
0.127084
0.054547
0.096072
0.097166
0.061994
0.080082
0.146440
0.164477
0.129092
0.130854
0.084808
0.148969
0.175465
0.113510
0.097179
0.248905
0.156724
0.223698
0.188298
0.339190
0.291942
0.273703
0.310849
0.323497
0.315216
0.411827
0.384987
0.439284
0.429252
0.398239
0.416585
0.501270
0.498018
0.499429
0.476185
0.556322
0.493995
0.563288
0.503284
0.472161
0.491546
0.542380
0.483096
0.538545
0.498862
0.483596
0.501267
0.465178
0.381242
0.443323
0.419063
0.412319
0.349864
0.398268
0.342246
0.253101
0.267888
0.187504
0.307380
0.267453
0.208305
0.132076
0.187781
0.102209
0.174230
0.133569
0.105328
0.050655
0.181699
0.040542
0.123917
0.036955
-0.008683
0.028485
0.020945
0.054150
0.101487
0.008049
0.062313
-0.005694
0.007632
0.005492
0.066056
0.023140
0.068260
0.060176
0.005587
-0.000007
0.003745
0.063660
-0.022026
0.027384
-0.068609
0.002502
-0.002556
0.019268
0.018448
0.071211
0.052343
0.049668
0.021747
-0.026045
-0.083658
-0.002634
-0.018917
0.083149
0.053219
0.051822
0.034672
-0.029850
-0.046514
0.011168
0.025831
-0.039596
-0.008833
-0.015328
-0.019500
0.014239
0.057510
0.012578
0.095929
0.010609
0.029370
-0.118279
-0.017955
0.005378
0.036336
0.048476
-0.090393
0.021665
-0.020341
-0.087801
-0.066851
0.003203
0.026302
-0.031234
0.047089
0.022232
-0.003765
0.011931
-0.016605
-0.000076
-0.041833
0.099538
-0.014161
0.031877
0.058537
0.033107
0.095648
0.060578
0.054265
0.099602
0.071177
0.127404
0.233974
0.133986
0.093121
0.219924
0.080015
0.168751
0.225019
0.133869
0.131626
0.157249
0.095690
0.118427
0.065644
0.067214
0.021142
-0.010529
-0.003874
0.029289
-0.016876
0.040673
0.075629
-0.039112
-0.000950
0.051100
-0.040789
0.055643
0.034722
0.014870
-0.033665
0.055894
-0.030933
-0.093926
-0.044736
-0.042686
-0.025673
0.003585
0.005470
0.000278
-0.079710
-0.056288
-0.122068
-0.120659
0.047948
0.083104
0.437192
0.750167
1.086811
1.264635
1.268068
1.177642
0.946343
0.582150
0.298472
0.040253
-0.255028
-0.266591
-0.251509
-0.193410
-0.124543
-0.073954
-0.123739
-0.049613
-0.033944
0.007376
-0.031898
0.055024
-0.063828
-0.048179
0.059257
-0.028197
-0.009552
0.028471
-0.078398
0.039207
-0.012287
-0.008518
0.045255
0.099316
0.145418
0.097966
0.104277
0.156283
0.191960
0.238480
0.244339
0.238506
0.206025
0.288752
0.206218
0.308753
0.361447
0.344685
0.368651
0.310113
0.338131
0.352617
0.463008
0.423100
0.465498
0.416783
0.523121
0.403683
0.413055
0.500797
0.473388
0.439772
0.461533
0.382115
0.481821
0.372631
0.371550
0.376744
0.268801
0.299838
0.303678
0.329259
0.270864
0.242653
0.270558
0.281480
0.227753
0.250691
0.109046
0.077323
0.111622
0.070687
0.103459
0.062522
0.016168
0.000543
0.019490
0.030310
0.004190
0.006236
0.042602
0.004946
0.038363
-0.029463
-0.036349
0.077884
0.011028
-0.072232
-0.056898
-0.022548
-0.098614
-0.040952
0.011880
0.021912
0.000174
-0.049402
-0.028788
-0.110393
-0.045016
0.004819
-0.062916
-0.028808
-0.041975
-0.012268
-0.037317
0.013348
0.010109
-0.043054
0.030464
-0.018322
-0.081755
-0.050045
-0.036914
0.020632
-0.071336
-0.031997
-0.003118
0.079183
-0.031148
-0.073928
0.008293
-0.083856
-0.012763
-0.111208
-0.023520
-0.006183
0.002463
0.007153
-0.061444
-0.022622
-0.084913
-0.017548
-0.030037
-0.061534
0.042460
-0.014899
-0.034730
-0.020528
0.015533
-0.009524
-0.054265
0.001529
-0.038637
-0.065289
0.053847
-0.070429
-0.015522
-0.032498
-0.025052
-0.026045
0.006064
0.027231
0.034673
0.040248
0.075123
0.045254
0.118549
0.043635
0.062419
0.077076
0.100074
0.118758
0.174303
0.148918
0.148488
0.189088
0.132944
0.149421
0.175112
0.190778
0.194496
0.196158
0.121669
0.234099
0.171910
0.166114
0.078454
0.083016
0.052017
0.061090
0.144231
0.072338
0.028950
0.092197
0.059559
-0.028902
0.001730
0.098887
0.016881
-0.013069
-0.003357
0.042393
0.031469
-0.031927
-0.032955
-0.036187
-0.043395
0.058281
0.010709
0.031155
0.024026
-0.012131
0.043763
-0.056681
0.001469
0.007783
0.204125
0.346031
0.692984
1.003453
1.161042
1.319238
1.241886
1.025000
0.784614
0.429303
0.135886
-0.067525
-0.227548
-0.244543
-0.165464
-0.115526
-0.111080
0.055879
0.025499
-0.020630
0.029515
0.002295
-0.000789
0.101590
0.084530
0.072798
0.092185
0.069329
0.108797
0.058075
0.068066
0.135491
0.059735
0.133552
0.138594
0.123105
0.236725
0.285141
0.127832
0.287898
0.285448
0.275534
0.333519
0.279681
0.296557
0.314195
0.293881
0.416008
0.376345
0.443198
0.458212
0.509829
0.451360
0.470855
0.476316
0.515023
0.504356
0.502267
0.494933
0.527664
0.568578
0.454998
0.573917
0.494534
0.543131
0.463095
0.533359
0.462595
0.442157
0.460802
0.458168
0.423871
0.466559
0.377287
0.351981
0.362346
0.350615
0.297646
0.274130
0.226170
0.236065
0.273121
0.234955
0.171276
0.217723
0.215118
0.182419
0.172022
0.153009
0.036659
0.100700
0.099680
0.133560
0.073354
0.083420
0.118556
0.104731
0.154333
0.058424
0.065148
0.105994
0.031228
0.056804
0.157226
0.100187
0.025205
0.065012
0.136596
0.054386
0.033473
0.035340
-0.001328
0.100013
0.100464
0.015112
0.078296
0.096310
0.025542
0.029925
0.035302
0.080627
0.041127
0.104694
0.019164
0.029316
0.084859
0.129565
0.042099
0.111510
0.098555
0.103815
0.127220
0.118149
0.057837
0.076709
0.134697
0.123326
0.095779
0.084970
0.036499
0.031332
0.027323
0.063855
0.056858
-0.001054
0.087158
0.092357
0.042066
-0.009177
0.078972
0.046132
0.146382
0.013437
0.097477
0.055855
0.163183
0.164859
0.101313
0.165305
0.086923
0.075602
0.157095
0.160833
0.191374
0.215756
0.123608
0.193933
0.195109
0.211749
0.209983
0.198610
0.194765
0.223809
0.260289
0.202688
0.240088
0.255575
0.195606
0.342869
0.283355
0.206152
0.280902
0.239194
0.257270
0.258807
0.300827
0.231033
0.256581
0.184915
0.209005
0.133697
0.138165
0.133833
0.168858
0.127575
0.085753
0.144749
0.149725
0.162026
0.143537
0.085574
0.166947
0.152587
0.067854
0.055491
0.156264
0.094238
0.104703
0.053940
0.069638
0.040036
0.083105
0.058946
0.014485
0.064730
0.050454
0.040401
0.163118
0.279133
0.570108
0.878139
1.228757
1.452345
1.500000
1.267132
1.000447
0.591854
0.318004
0.058964
-0.116846
-0.204704
-0.138449
-0.025107
-0.012121
0.112069
0.051524
0.048520
0.111247
0.051107
0.054156
0.064062
0.202614
0.168309
0.158885
0.266427
0.090271
0.135854
0.131551
0.157793
0.164022
0.198869
0.241577
0.071828
0.223874
0.176243
0.315350
0.229036
0.269525
0.332787
0.391118
0.268366
0.391377
0.327490
0.425950
0.442812
0.350346
0.441118
0.452360
0.552767
0.545528
0.515797
0.511861
0.680537
0.555710
0.578318
0.683982
0.582767
0.571901
0.528754
0.547990
0.611032
0.533935
0.544591
0.541657
0.542372
0.528639
0.472966
0.419634
0.486113
0.373694
0.411949
0.447227
0.485185
0.296146
0.293029
0.265834
0.362032
0.298078
0.305061
0.283717
0.239387
0.257682
0.211732
0.195895
0.222894
0.154234
0.150674
0.166150
0.127271
0.105037
0.091233
0.085512
0.043573
0.072760
0.095606
0.089838
0.056100
0.040774
0.102819
0.026859
0.068020
-0.007360
0.087835
0.109057
-0.009701
0.087599
0.007508
0.115498
0.006629
0.070970
0.063505
0.072562
0.077576
0.062594
0.065922
0.099271
0.089203
0.031072
0.002301
0.093447
0.007624
0.016603
0.066534
0.058771
0.019316
0.033846
0.043620
-0.001534
0.031144
0.010819
-0.003774
0.089443
0.081612
0.026024
0.046884
0.068647
0.030337
0.064585
0.025675
-0.013278
0.045471
0.004456
0.045283
-0.000259
-0.025084
-0.015768
0.072103
0.040628
0.012678
-0.001855
-0.015328
0.047500
0.026726
0.039985
0.141962
0.039086
0.015195
0.029240
0.067914
0.028251
0.107505
0.033582
0.145323
0.056223
0.108749
0.089087
0.087826
0.124227
0.112571
0.212663
0.208883
0.107416
0.136012
0.147665
0.214053
0.238458
0.177089
0.174065
0.174609
0.223079
0.125619
0.191512
0.135552
0.064675
0.103074
0.090189
0.120030
0.086383
0.083144
0.067353
0.060509
0.033608
0.031223
0.042256
-0.036582
-0.013406
0.005808
0.088930
0.060448
-0.009379
-0.029061
-0.042064
0.063853
0.009649
0.025041
-0.046871
-0.049294
-0.038055
0.026558
-0.060826
-0.017398
-0.064211
-0.002635
-0.044738
-0.030877
0.131877
0.327615
0.762952
1.030688
1.259705
1.388082
1.153820
0.981554
0.587513
0.306493
-0.002698
-0.167489
-0.329323
-0.263964
-0.241355
-0.167251
-0.109648
-0.083453
-0.115874
-0.036408
-0.011496
0.038620
0.007508
-0.026814
-0.014354
-0.055675
0.008981
-0.005481
0.067726
0.041640
0.077215
-0.012065
-0.009841
0.141922
0.106500
0.099893
0.151198
0.129392
0.164938
0.182858
0.195811
0.219508
0.187423
0.314569
0.297615
0.304985
0.230915
0.308106
0.322725
0.355717
0.339250
0.423933
0.425316
0.351644
0.433102
0.477150
0.482167
0.508537
0.416564
0.507004
0.501769
0.435834
0.439172
0.534319
0.463532
0.364339
0.346025
0.353940
0.411715
0.355348
0.278980
0.325868
0.356643
0.354624
0.209785
0.263272
0.233626
0.165531
0.197612
0.170766
0.145960
0.074018
0.129894
0.148933
0.161941
0.039746
0.013143
0.009716
0.039827
0.000368
-0.020844
0.009656
-0.016247
-0.012593
0.006016
-0.081184
-0.044159
-0.086661
0.027494
-0.047797
-0.147923
-0.078597
0.035619
-0.015782
-0.052499
-0.104893
-0.048780
-0.076853
-0.129824
-0.121239
-0.097462
-0.120169
0.018818
-0.085297
-0.037189
-0.010251
0.001990
-0.062364
-0.021257
-0.055233
-0.038167
-0.113671
-0.080138
-0.039787
-0.075764
-0.072337
-0.037416
-0.056123
-0.084617
-0.130167
-0.124996
-0.129286
-0.038619
-0.107388
-0.089310
-0.067263
-0.083247
-0.095018
-0.063740
-0.050053
-0.091542
-0.136545
-0.131485
-0.100041
-0.044995
-0.096755
-0.135676
-0.087980
-0.110361
-0.108201
-0.056523
0.033493
-0.135668
-0.057667
0.009501
-0.148758
-0.097691
-0.060793
-0.079162
-0.100428
-0.130631
-0.053800
0.018600
-0.011578
-0.031069
-0.086721
-0.012821
0.030279
-0.047220
0.046465
0.064353
0.024978
0.047719
0.085156
0.076976
-0.012768
0.100649
0.125435
0.047404
0.098638
0.059003
0.058730
0.066905
0.134399
0.050495
0.110483
0.027568
0.057453
0.040461
0.041014
-0.016632
-0.053911
0.005065
0.114810
0.009589
-0.027253
0.003705
0.008886
-0.144448
-0.074699
0.003314
-0.026550
-0.023984
-0.046715
-0.067982
-0.015621
0.001166
-0.061816
-0.123215
-0.070930
-0.108200
-0.075104
-0.052297
-0.064232
-0.052825
-0.132416
-0.073684
0.077690
0.199385
0.490181
0.879328
1.098157
1.259827
1.285490
1.117061
0.713861
0.437327
0.114478
-0.143860
-0.360680
-0.343309
-0.220513
-0.236207
-0.152217
-0.144408
0.013631
-0.110504
-0.092863
0.057708
-0.004695
-0.100819
0.068424
0.008112
-0.063603
-0.017280
-0.098687
-0.024353
-0.001179
-0.049491
-0.010252
0.039799
0.122719
0.116068
0.112788
0.099050
0.170981
0.242476
0.169252
0.109321
0.259507
0.196221
0.232306
0.200351
0.291575
0.276058
0.287690
0.280887
0.309469
0.352523
0.396587
0.382455
0.363490
0.359504
0.415002
0.436665
0.436823
0.440039
0.423105
0.429333
0.371129
0.493080
0.380478
0.370260
0.402259
0.417232
0.421096
0.372897
0.370184
0.375974
0.318530
0.269384
0.282975
0.221363
0.362453
0.169217
0.226334
0.157408
0.109270
0.144839
0.118880
0.067897
0.049959
0.055314
0.106357
0.042624
0.093883
-0.019437
0.107418
0.046471
-0.054697
-0.026448
-0.014579
0.098251
0.108408
0.015460
-0.043123
0.050410
-0.001123
0.023208
0.013361
0.063432
0.051468
-0.036653
-0.063543
-0.089360
0.022466
-0.025315
-0.008009
0.018942
-0.057763
0.063997
-0.034408
0.056110
-0.060114
-0.063668
-0.048463
0.042762
-0.058432
0.004495
-0.044362
-0.109229
-0.013967
-0.030851
-0.009528
-0.067319
-0.014814
0.038060
0.008540
-0.033486
-0.008466
0.004855
-0.061957
0.044493
-0.040477
0.057567
0.008451
0.018377
-0.067727
-0.102553
0.013992
-0.002828
0.015658
0.040902
-0.015744
0.112904
0.034099
0.024667
-0.011883
0.036854
0.149486
-0.059959
0.014429
-0.013447
0.034782
-0.028928
0.003113
-0.003829
0.043282
-0.003524
-0.005544
0.098314
0.112912
0.086669
0.042187
0.115944
0.041870
0.115400
0.095044
0.200444
0.219546
0.150424
0.148277
0.154527
0.098052
0.178874
0.151379
0.211030
0.191509
0.224114
0.102397
0.125791
0.194600
0.190580
0.127762
0.143300
0.121487
0.119749
0.105254
0.110303
0.166751
0.048959
0.014998
0.058748
-0.003540
0.048070
0.054972
0.074098
0.009644
0.057978
0.068955
0.039347
0.012687
0.086900
-0.030431
0.076556
0.002019
0.050702
-0.003880
-0.076369
-0.013528
0.123199
-0.009916
0.048280
0.025491
0.066080
0.180504
0.524732
0.780717
1.119186
1.318834
1.396286
1.262128
0.922708
0.672338
0.295993
0.074626
-0.234253
-0.234151
-0.314031
-0.182908
-0.081472
-0.035176
-0.010966
0.081838
0.056335
0.053306
0.096640
0.072457
0.046278
0.130947
0.064317
0.131596
0.123179
0.107868
0.100996
0.108660
0.132318
0.055345
0.136027
0.123149
0.087452
0.163986
0.222081
0.217494
0.286287
0.298836
0.249350
0.195122
0.359696
0.281166
0.362331
0.423670
0.330115
0.487750
0.409553
0.438991
0.405731
0.471005
0.487907
0.528779
0.563572
0.562701
0.576926
0.545402
0.519135
0.542473
0.526369
0.534878
0.554161
0.566229
0.508988
0.510577
0.490564
0.442515
0.436199
0.481577
0.362070
0.399691
0.415701
0.384848
0.367524
0.307334
0.301678
0.249890
0.205647
0.262142
0.199069
0.273515
0.183801
0.145698
0.161941
0.182911
0.170230
0.074004
0.084741
0.028308
0.142851
0.169785
0.097233
0.054304
0.076742
0.023437
0.090428
0.011883
0.045083
0.087118
0.078098
0.049018
0.073607
0.027917
-0.061599
0.077416
0.126654
-0.048270
0.066976
0.023317
0.031366
-0.028378
0.117325
0.016645
0.043957
0.050000
0.060574
0.006864
0.097440
-0.005380
0.046433
0.075443
0.032771
0.109439
0.063070
0.049443
-0.038633
-0.009199
0.124478
-0.006572
0.064152
0.025789
0.052818
0.049167
0.064775
0.040792
-0.069373
0.059893
0.083318
0.006986
0.031952
0.023224
0.059458
0.031003
0.092242
0.040627
-0.005847
0.027287
0.016655
0.071075
-0.008961
0.017408
0.031020
-0.003477
-0.004127
0.082559
0.062728
0.171855
0.071508
0.051883
0.040357
0.171995
0.073879
0.006383
0.147065
0.158996
0.197751
0.131455
0.198671
0.167646
0.211596
0.178184
0.189871
0.173997
0.166666
0.203409
0.187513
0.278371
0.172034
0.197816
0.175327
0.125304
0.142510
0.224741
0.118052
0.135214
0.235758
0.167694
0.142158
0.126107
0.100289
0.043649
0.099426
0.104920
0.145182
0.056337
0.105882
0.076282
0.043718
0.015095
-0.009604
0.039243
-0.022889
0.062305
0.038925
0.050394
-0.028543
0.001275
0.006588
0.015678
-0.012174
-0.036837
0.014045
-0.042569
0.033132
0.080167
0.116108
0.374064
0.611239
1.007281
1.329275
1.355462
1.314288
1.095680
0.746971
0.382481
0.115533
-0.082440
-0.230717
-0.268316
-0.179572
-0.082806
-0.017516
0.012867
0.011192
0.095359
-0.013191
-0.002953
0.028983
0.123088
0.083107
0.133872
0.075690
0.054298
0.075899
0.014412
0.079987
0.098409
0.096688
0.119657
0.118399
0.130434
0.143760
0.191009
0.135659
0.144396
0.239393
0.238436
0.235979
0.237208
0.292894
0.324914
0.375855
0.346293
0.369393
0.377903
0.480276
0.279742
0.362560
0.537878
0.530083
0.419722
0.402643
0.498904
0.582553
0.503136
0.410522
0.437694
0.421394
0.517646
0.467834
0.457506
0.418849
0.357062
0.368391
0.356757
0.291552
0.316331
0.294503
0.357005
0.246663
0.239821
0.190766
0.225608
0.233155
0.226226
0.103289
0.179959
0.161331
0.131978
0.095408
0.078747
0.063312
0.034224
0.114707
0.037961
0.018993
-0.006357
0.067187
0.040342
-0.044567
-0.062137
-0.072624
-0.033922
0.005562
-0.081728
-0.031338
0.025292
-0.001660
0.008199
0.001240
-0.022473
-0.120758
-0.014107
-0.011069
0.013020
-0.035579
-0.058692
-0.060800
0.015120
-0.133287
-0.026571
-0.077893
-0.038270
-0.001282
-0.085409
-0.073133
-0.024475
-0.065940
-0.039182
-0.060046
-0.093324
-0.091994
-0.099854
0.005396
-0.135384
-0.094921
-0.091998
-0.082901
-0.015374
-0.068840
-0.008864
-0.134557
-0.051263
-0.064652
-0.037326
-0.092561
-0.013699
-0.052927
-0.036487
-0.087725
-0.044887
-0.084013
-0.054675
-0.101035
-0.035354
-0.087601
0.015091
-0.030749
-0.099014
-0.006313
-0.009955
-0.094722
-0.041538
-0.086798
-0.017941
-0.011467
0.038171
0.030630
0.026188
-0.027761
-0.000229
-0.011909
0.010810
0.007842
0.009558
-0.008672
0.061478
-0.003865
0.051644
0.059912
0.040642
0.059460
0.177649
0.041892
0.111765
0.073885
0.023854
0.075516
0.007604
0.085968
0.039176
0.048618
0.057079
-0.029890
0.022743
0.047748
-0.046649
-0.002297
0.021373
0.060833
-0.012049
-0.019908
-0.035530
0.017323
-0.060483
-0.030496
-0.030811
-0.032210
-0.043996
-0.089017
-0.089838
-0.085397
-0.129946
-0.100889
-0.103645
-0.130482
-0.094899
-0.063232
-0.226819
-0.117465
-0.082286
-0.145622
-0.003567
0.211348
0.410785
0.718706
1.095903
1.256018
1.211545
1.092333
0.855458
0.379314
0.099277
-0.149516
-0.263940
-0.394859
-0.335889
-0.245284
-0.160127
-0.160102
-0.159697
-0.152256
-0.038271
-0.079158
-0.078959
-0.072079
0.017343
0.004291
-0.130399
-0.032583
0.022188
-0.027621
-0.015407
-0.004451
-0.028892
-0.021138
0.047268
-0.031465
0.107139
0.052393
0.103508
0.082766
0.202811
0.126743
0.146030
0.179601
0.167775
0.122097
0.162584
0.239663
0.326705
0.215318
0.312848
0.348018
0.337390
0.351211
0.404403
0.374096
0.401093
0.370508
0.439243
0.481300
0.352076
0.386688
0.454333
0.347849
0.417992
0.424044
0.412429
0.277180
0.423776
0.333279
0.195599
0.243669
0.266774
0.139846
0.277870
0.253736
0.207856
0.094433
0.174330
0.113678
0.089571
0.116928
0.006012
0.062739
0.005381
0.039236
0.056547
0.027125
-0.052853
-0.049746
-0.001097
-0.083498
-0.034847
-0.018730
-0.075440
-0.090949
-0.171705
-0.068615
-0.080439
-0.086941
-0.067762
-0.086929
-0.084755
-0.082339
-0.125585
-0.038412
-0.147560
-0.168680
-0.128779
-0.065565
-0.111963
-0.076224
-0.070327
-0.169748
-0.044350
-0.072784
-0.115124
-0.068552
-0.138362
-0.050125
-0.012769
-0.082705
-0.103179
-0.056782
-0.035782
-0.058675
-0.109489
-0.021879
-0.038612
-0.066416
0.022626
-0.048266
-0.132197
-0.038159
-0.110342
-0.047724
-0.094290
-0.039058
0.007958
-0.089562
-0.099341
-0.051536
0.005653
-0.024084
-0.011256
-0.034877
-0.039362
-0.099681
-0.098313
-0.094876
-0.007943
-0.036414
-0.062518
-0.118638
0.000888
-0.051528
-0.026597
-0.069518
0.026028
-0.079668
-0.096086
-0.031978
0.067922
-0.011110
-0.060552
0.024850
-0.026247
-0.008419
0.026898
0.077327
0.182696
0.040983
0.041813
0.155805
0.156877
0.177822
0.141878
0.113442
0.142029
0.136157
0.081333
0.120554
0.166891
0.114974
0.061121
0.018616
0.088266
0.127153
0.108246
0.036062
0.065005
0.047482
0.001345
-0.065749
-0.031851
-0.042500
0.046258
0.019392
-0.039725
-0.031542
-0.018224
-0.033311
-0.096201
-0.037630
-0.003725
-0.023225
0.038606
0.019863
-0.022962
-0.029544
-0.024208
-0.015913
0.002613
-0.001302
-0.060067
-0.050028
-0.071496
0.052956
0.127782
0.442270
0.685620
0.978335
1.326805
1.336474
1.216642
1.042113
0.634294
0.269351
0.030625
-0.225963
-0.229972
-0.288204
-0.133070
-0.090680
-0.026184
0.006599
0.039747
0.047662
0.068234
-0.008429
-0.016508
-0.021762
-0.030140
0.034104
0.001579
0.084970
-0.007834
0.053550
0.060785
0.036855
0.119567
0.143756
0.065402
0.151907
0.138032
0.139413
0.220951
0.132982
0.194740
0.343240
0.273123
0.307177
0.261910
0.296739
0.434764
0.437728
0.348324
0.341784
0.363293
0.414746
0.477392
0.413671
0.520739
0.514072
0.437065
0.468291
0.510854
0.478405
0.438930
0.464707
0.479161
0.481290
0.472324
0.500939
0.384429
0.452882
0.338042
0.388205
0.418596
0.369481
0.373242
0.310177
0.268083
0.315921
0.268914
0.324517
0.219694
0.168309
0.249181
0.150335
0.089818
0.196398
0.197598
0.170008
0.152212
0.152930
0.096689
0.109652
0.175565
0.140827
0.012219
0.091546
0.152855
0.087526
0.011518
0.051650
0.092281
-0.022776
0.013351
-0.022858
0.012187
0.019745
0.047381
0.005938
-0.036952
-0.052577
-0.016743
0.001634
0.075498
0.011146
0.061905
0.076674
0.030715
0.034152
0.057948
0.020162
0.072309
-0.040331
-0.023993
0.070814
0.067729
-0.019387
0.033079
0.059986
0.019633
0.024224
0.061143
0.069525
0.082164
0.042120
0.031755
-0.033900
0.077320
0.006856
0.062478
0.068061
0.026452
0.084207
0.012700
0.042414
0.090108
0.089275
0.035285
0.004981
0.036670
0.078913
0.045192
0.035630
0.061102
0.102379
0.004790
0.035928
0.097478
0.095185
0.057129
0.132602
0.070731
0.110473
-0.013239
0.101711
0.084261
0.157242
0.063400
0.186519
0.147429
0.165435
0.094789
0.213992
0.267716
0.146010
0.200113
0.218198
0.185139
0.256100
0.209638
0.191332
0.206026
0.250369
0.238038
0.181898
0.290971
0.181351
0.203125
0.171300
0.150194
0.176447
0.187508
0.207778
0.144352
0.130804
0.053337
0.163999
0.120820
0.084965
0.147198
0.044787
0.115839
0.074681
0.048140
0.008864
0.089071
0.061381
0.125839
0.190472
0.050772
-0.037198
0.081938
0.042104
0.061365
0.035513
0.062851
0.004566
0.062250
0.013166
0.049912
0.124491
0.414046
0.755185
0.937659
1.243073
1.311009
1.408305
1.155317
0.950429
0.524712
0.251449
-0.005410
-0.185166
-0.204557
-0.090845
-0.024828
-0.005557
0.016514
-0.005549
0.011043
-0.025084
0.127141
0.094975
0.093115
0.117979
0.098973
0.110330
