0.067550
-0.028113
-0.024689
0.004274
-0.031054
0.006483
0.013308
-0.035089
0.012262
0.033196
0.043246
0.001814
-0.022935
-0.050537
0.012272
-0.007214
-0.009409
0.003457
-0.040000
0.047656
0.000486
0.057092
0.008990
0.013071
-0.030499
0.044060
0.011874
0.086145
0.020831
0.076051
0.073726
0.100305
0.094866
0.098987
0.159400
0.129031
0.119464
0.103187
0.142432
0.176815
0.201578
0.116787
0.168500
0.165756
0.194457
0.161665
0.250675
0.273810
0.225623
0.190597
0.210567
0.235012
0.179426
0.132958
0.076392
0.206419
0.167437
0.146421
0.136851
0.047161
0.116951
0.104478
-0.028715
0.020626
0.134603
0.116458
0.082629
0.108963
0.062209
0.052409
0.104394
-0.026671
0.053482
0.036962
0.080006
0.101014
-0.000003
0.068346
0.037986
-0.004454
0.032383
0.132655
0.165241
0.508381
0.842410
1.081464
1.316890
1.461555
1.329871
1.065561
0.787636
0.424070
0.107435
-0.080067
-0.227941
-0.214893
-0.215282
-0.042763
-0.051417
0.074222
0.062461
0.069773
0.054461
0.117700
0.129882
0.043421
0.046575
0.092656
0.053349
0.158924
0.120481
0.124693
0.179651
0.032768
0.162036
0.158140
0.221431
0.191403
0.237991
0.192732
0.319793
0.314209
0.235197
0.312856
0.353163
0.389849
0.394799
0.440234
0.457942
0.443030
0.510401
0.555801
0.501492
0.502542
0.518441
0.525205
0.549892
0.592413
0.682250
0.565750
0.553464
0.621455
0.580751
0.576536
0.633815
0.467343
0.607388
0.535778
0.540578
0.499905
0.508393
0.503464
0.433888
0.525507
0.433117
0.513109
0.370348
0.331164
0.385535
0.253718
0.287344
0.296281
0.275444
0.328465
0.245356
0.240491
0.079760
0.179069
0.208651
0.130977
0.171530
0.116657
0.252380
0.079122
0.101265
0.156412
0.087035
0.172803
0.158340
0.101139
0.116087
0.104870
0.030563
0.076748
0.103563
0.101931
0.098791
0.101460
0.095288
0.127172
0.122704
0.030739
0.022016
0.100880
0.127057
0.033172
-0.022684
0.147456
0.062788
0.023651
0.036838
0.175164
0.172388
0.085182
0.101344
0.106301
0.041484
0.103294
0.056782
0.040774
0.023287
0.069924
0.140902
0.087283
0.046172
0.147545
0.007689
0.050508
0.153568
0.131560
0.048576
0.135224
0.187744
0.065914
0.055980
0.053454
0.081541
0.081413
0.157473
0.002517
0.028358
0.084029
0.130647
0.072239
0.063058
0.005878
0.052887
0.141761
0.142305
0.058732
0.033160
0.033863
0.140634
0.138347
0.192215
0.173228
0.105353
0.104061
0.142917
0.208997
0.075321
0.151600
0.261066
0.203253
0.223529
0.247235
0.212973
0.256593
0.286022
0.246845
0.183410
0.223453
0.334961
0.355140
0.196567
0.174289
0.236533
0.212916
0.166066
0.096788
0.201313
0.163570
0.157299
0.144403
0.237751
0.134055
0.116707
0.079469
0.175635
0.159198
0.091455
0.074486
0.082399
0.095058
0.057045
0.087744
0.114451
0.060512
0.074522
0.089021
0.087386
0.070901
0.107702
0.130088
0.051341
-0.017994
0.045561
0.078427
0.109060
0.186792
0.315869
0.582267
0.939869
1.323491
1.442935
1.460306
1.283793
0.966902
0.499795
0.232589
-0.087637
-0.237059
-0.256125
-0.243595
-0.126731
0.057703
-0.010906
0.041164
0.016696
0.140797
0.157750
0.059645
0.108837
0.006199
0.126101
-0.002795
0.093844
0.074203
0.102364
0.146181
0.047773
0.178458
0.152875
0.222542
0.129261
0.242271
0.249896
0.243630
0.259037
0.220925
0.262298
0.288302
0.318212
0.316826
0.337662
0.364861
0.407515
0.436283
0.398674
0.454922
0.533141
0.412488
0.444191
0.586232
0.535811
0.643798
0.567915
0.545346
0.513054
0.553240
0.522427
0.513445
0.485705
0.491472
0.534073
0.574635
0.437119
0.463922
0.427712
0.450085
0.388909
0.350939
0.348131
0.409199
0.278781
0.319012
0.312015
0.254413
0.294171
0.222068
0.144551
0.121405
0.157210
0.116656
0.150603
0.050212
0.126321
0.069511
0.156273
0.062464
0.127971
0.082249
0.088650
0.076456
0.027997
0.055534
0.084765
0.014886
-0.028521
0.004332
-0.133652
0.050177
-0.080532
-0.099931
-0.070746
0.019164
0.027165
0.013884
0.003784
0.022053
-0.025641
-0.024755
0.022363
-0.021963
-0.002765
0.004051
0.012702
0.060852
0.065897
-0.043808
-0.039646
0.086132
-0.028292
-0.034047
-0.047456
-0.029800
-0.015940
0.003636
0.012616
0.019095
-0.131874
-0.001815
0.086075
-0.001772
0.009447
-0.008172
-0.052607
-0.003246
0.042355
-0.047621
-0.016285
-0.000105
-0.060232
0.039512
0.048345
-0.017711
0.031152
-0.012602
0.018432
-0.029822
0.084621
0.083259
-0.048323
0.014718
0.050957
0.016729
0.026233
0.033804
-0.050198
0.007131
0.069323
0.052213
0.004967
0.005726
0.011718
0.097493
0.073643
0.059943
0.143095
0.100582
0.077966
0.036871
0.148906
0.124404
0.106008
0.156189
0.106856
0.158390
0.141868
0.110621
0.126597
0.157144
0.154353
0.088456
0.114537
0.102572
0.077055
0.129479
0.079063
0.100306
0.091896
0.080178
0.051303
-0.032147
0.125361
-0.003833
0.010583
0.055092
0.080225
-0.024115
0.070343
0.032416
0.056912
-0.027246
0.000808
-0.027234
-0.043225
-0.092370
-0.022446
-0.028260
-0.086237
-0.032645
-0.033381
-0.085568
-0.098542
-0.087070
0.038012
0.156177
0.406131
0.769707
1.011444
1.312463
1.382229
1.199282
0.971619
0.687436
0.329110
-0.045241
-0.209034
-0.288487
-0.198860
-0.216510
-0.154446
-0.064268
0.005140
0.008459
-0.112752
-0.021770
0.025748
-0.007252
-0.052140
-0.022851
-0.070870
-0.055032
0.003895
0.002798
0.033349
0.048437
0.013724
0.046866
0.019552
0.093699
0.150551
0.130619
0.124815
0.126845
0.056836
0.234396
0.183505
0.198618
0.251737
0.300235
0.333625
0.300840
0.316688
0.385751
0.252081
0.400749
0.440824
0.400848
0.387092
0.433753
0.449084
0.472378
0.451358
0.532038
0.451789
0.503324
0.484680
0.478163
0.473287
0.500350
0.436397
0.455786
0.399977
0.396147
0.352836
0.341694
0.320392
0.281674
0.268069
0.273004
0.258335
0.276543
0.231154
0.226676
0.213084
0.153277
0.137007
0.113637
0.044620
0.129320
0.121002
0.110915
0.085120
0.090199
0.018100
0.092412
0.026982
-0.036071
0.017187
0.023718
0.009273
0.017057
0.007351
-0.158510
-0.049524
-0.014294
0.024196
0.047908
-0.097775
-0.034178
-0.094497
0.015172
-0.020303
0.034757
-0.008720
0.031516
0.044983
0.002498
-0.078825
-0.052686
-0.027270
-0.057223
-0.047166
-0.072368
-0.034287
-0.012421
-0.030399
-0.069432
-0.021914
-0.014862
-0.056696
0.006164
-0.040165
0.041566
0.037436
-0.051237
-0.051124
0.010989
-0.059843
-0.032459
-0.055866
0.006314
-0.065316
-0.047991
-0.026083
-0.061120
0.010859
-0.036587
-0.019580
-0.019559
-0.027765
-0.019126
0.058254
0.042738
-0.002572
-0.041222
-0.043946
-0.071604
-0.022939
-0.004533
-0.046342
-0.019262
-0.042046
-0.085113
0.074764
-0.035246
0.111698
-0.017186
0.031975
0.065714
0.020361
0.035720
0.058816
0.052035
0.064740
-0.009285
0.064568
0.093868
0.129997
0.177569
0.194017
0.191307
0.145810
0.140976
0.248775
0.117405
0.143802
0.136916
0.143859
0.165199
0.221044
0.140277
0.113390
0.058207
0.157928
0.070957
0.051365
0.146760
0.061273
0.142790
0.069883
0.036737
0.062986
0.005909
0.002088
0.005751
0.003109
0.011956
-0.025105
-0.038530
-0.021248
0.047179
0.093626
-0.065343
0.025945
0.003597
0.021709
-0.070068
0.082212
0.015713
0.011781
-0.021957
0.093425
0.353813
0.678061
1.010798
1.243406
1.415155
1.379311
1.111549
0.851590
0.365501
0.164670
-0.120221
-0.192296
-0.174023
-0.268180
-0.179075
-0.048104
0.031768
0.016498
-0.010548
0.129704
0.029921
0.160741
0.120631
0.043694
0.115659
0.020438
0.090908
0.178009
0.007225
0.114834
0.112899
0.028286
0.130540
0.084225
0.228493
0.200865
0.261435
0.230678
0.219487
0.197962
0.275893
0.295413
0.298254
0.239296
0.370726
0.443702
0.400672
0.421076
0.438262
0.498677
0.508038
0.467904
0.522487
0.586147
0.554067
0.494417
0.606841
0.609763
0.512419
0.635440
0.541299
0.608107
0.516050
0.488506
0.507318
0.460372
0.492110
0.451242
0.472424
0.377508
0.450806
0.461911
0.316075
0.372108
0.343385
0.373524
0.274910
0.317213
0.283847
0.308536
0.216070
0.268407
0.211715
0.244699
0.206384
0.161656
0.230089
0.037400
0.145637
0.122829
0.093705
0.073460
0.073141
0.158421
0.120632
0.079879
0.040243
0.104553
0.132842
0.107841
0.105471
0.117275
0.146420
0.107141
0.024043
0.084162
0.056667
0.104530
0.064706
0.124241
0.028688
0.006508
0.117482
0.086503
0.070031
-0.001681
0.039475
0.126977
0.090630
0.075289
0.113581
0.006744
0.033806
0.035259
0.115384
0.083900
0.097370
0.118246
0.048768
0.115011
0.066629
0.127525
0.096211
0.039137
0.038793
0.139082
0.155116
0.043051
0.161436
0.094209
0.071617
0.005840
0.138113
0.123392
0.067889
0.072572
0.035173
0.157687
0.187224
0.028804
0.070969
0.118181
0.152300
0.066611
0.032918
0.091258
0.098301
0.064275
0.178005
0.166128
0.131147
0.073694
0.172700
0.233684
0.128746
0.237119
0.182918
0.174554
0.190654
0.298203
0.280417
0.221347
0.305634
0.194695
0.272710
0.209573
0.260538
0.269651
0.259314
0.302690
0.259877
0.252570
0.270679
0.216207
0.289551
0.371816
0.298524
0.281639
0.208069
0.242521
0.143231
0.280466
0.198534
0.155001
0.124313
0.165918
0.136244
0.158363
0.183995
0.176871
0.209043
0.066432
0.114870
0.104678
0.096737
0.089945
0.077358
0.118874
0.076059
0.140035
0.099373
0.067029
0.148880
0.052067
0.118067
0.066454
0.241223
0.341939
0.649725
0.988360
1.213443
1.448374
1.496455
1.363597
0.988093
0.679490
0.356117
0.098269
-0.101811
-0.206668
-0.148164
-0.022033
-0.030783
0.062615
0.102165
0.086224
0.066861
0.196105
0.078164
0.105504
0.210374
0.115345
0.015611
0.070712
0.140214
0.157500
0.184618
0.141993
0.224962
0.196616
0.196856
0.144335
0.193689
0.153892
0.309603
0.382678
0.359111
0.315217
0.282907
0.374931
0.324604
0.340159
0.399578
0.512807
0.493239
0.504437
0.485561
0.500486
0.508264
0.505245
0.529891
0.557145
0.535351
0.622430
0.649229
0.629687
0.615145
0.563384
0.597167
0.623520
0.590620
0.574117
0.557506
0.586511
0.528985
0.486019
0.454734
0.440273
0.433930
0.431941
0.399163
0.424450
0.387246
0.316324
0.275089
0.298202
0.296509
0.280075
0.281583
0.263485
0.100835
0.122453
0.147404
0.158078
0.150891
0.172691
0.153725
0.255535
0.111204
0.124466
0.116329
0.079603
0.082112
0.178705
0.101589
0.051482
0.097774
0.082804
0.071361
-0.012334
0.082216
0.059781
0.030930
0.012605
0.048615
0.067574
0.105475
0.117288
-0.010662
0.034965
-0.069222
-0.026432
0.078647
0.078004
0.124712
0.086462
-0.024483
-0.004676
0.033022
0.031375
0.055749
-0.030152
0.103975
-0.008219
0.099630
0.079239
0.085402
0.006538
0.035276
0.019499
0.039567
0.063979
0.070210
0.024191
0.069669
0.062676
0.066252
0.079339
0.047453
0.067223
0.065358
0.062203
0.090794
-0.077845
0.019347
0.048633
-0.067782
0.036620
0.066960
-0.005856
0.029673
0.068179
0.050079
-0.013308
0.033874
0.051467
0.111108
0.015205
0.053960
-0.008397
0.014016
0.077559
0.157771
0.071766
0.087856
0.060132
0.168562
0.217999
0.177833
0.180170
0.202347
0.131495
0.189509
0.216290
0.167402
0.165507
0.167985
0.181313
0.207664
0.116630
0.142953
0.199133
0.214671
0.220136
0.158094
0.046712
0.106740
0.093291
0.089904
0.109180
0.025042
0.070101
0.017745
0.028036
0.008477
0.018619
-0.031813
-0.020935
0.022862
0.058984
-0.015465
0.034601
-0.007060
-0.019275
-0.078350
0.019063
0.000326
-0.007783
0.038445
0.019456
0.001978
-0.073074
-0.091078
0.036044
0.116468
0.364599
0.776703
1.060739
1.282508
1.389683
1.241742
1.058756
0.747896
0.380329
-0.033131
-0.198185
-0.284380
-0.247627
-0.294252
-0.068562
0.002516
-0.068894
-0.062393
0.025334
-0.004208
-0.073918
-0.033678
0.071458
0.014143
0.000519
-0.012507
-0.000774
-0.017286
0.018852
-0.028737
0.070587
0.049795
0.139782
0.132257
0.140553
0.176249
0.001920
0.127245
0.192133
0.107517
0.279071
0.209004
0.270807
0.323580
0.318553
0.351368
0.324555
0.364272
0.417220
0.407747
0.423303
0.392410
0.441359
0.470242
0.447056
0.350675
0.431537
0.507295
0.499184
0.387575
0.425169
0.474142
0.558985
0.495475
0.513877
0.311977
0.454751
0.416418
0.362314
0.344523
0.319276
0.349268
0.233769
0.266801
0.200423
0.209671
0.227529
0.195827
0.263088
0.132841
0.080405
0.109854
0.091437
0.036416
0.070726
0.154806
0.059886
0.028876
-0.006852
-0.004054
-0.042154
-0.000339
0.026052
-0.042909
-0.092968
-0.021063
-0.024708
-0.068473
-0.140500
-0.009869
-0.026118
-0.063665
0.050521
-0.059749
-0.079236
-0.074419
-0.089136
-0.094050
-0.065198
-0.060574
0.007310
-0.143935
-0.021578
-0.070700
0.003087
0.001938
-0.058077
-0.043454
-0.038203
-0.125513
-0.027139
-0.069546
-0.095056
-0.121971
-0.069724
-0.081831
-0.006530
-0.059455
-0.128786
-0.058317
-0.112047
-0.065355
-0.090176
-0.052214
-0.036601
-0.172738
-0.129250
-0.025316
-0.071831
-0.008381
-0.102517
-0.101567
-0.008392
-0.122413
-0.037935
-0.075055
-0.058114
-0.138221
-0.157472
-0.100728
-0.051497
-0.080095
-0.075797
-0.059141
-0.049468
-0.033126
-0.047774
-0.003010
0.000872
0.054553
-0.042619
-0.009295
0.026980
-0.074188
0.030312
-0.034836
0.048596
0.014137
0.022358
0.068637
0.051760
0.046547
0.001370
0.157914
0.083722
0.133689
0.129235
0.060341
0.034963
0.044873
0.107262
0.093065
0.096854
0.116495
0.063630
0.115345
-0.008560
0.027391
0.076355
-0.015743
-0.056255
-0.007010
-0.029319
-0.068226
-0.009655
-0.011763
-0.005210
-0.098054
-0.070020
-0.059113
-0.020603
0.011445
-0.057994
-0.125576
-0.162664
-0.140522
-0.109803
-0.091805
-0.069235
-0.066553
-0.119179
-0.054650
-0.071534
-0.071756
-0.140663
-0.068842
-0.006003
0.236244
0.541620
0.852391
1.027629
1.312354
1.304452
1.001442
0.772960
0.412336
0.120896
-0.217823
-0.304156
-0.400329
-0.320658
-0.186763
-0.120835
-0.097836
-0.002416
-0.066385
-0.022098
-0.101156
-0.060480
-0.044891
-0.073604
-0.091769
0.031121
-0.005599
0.099225
0.047699
-0.042347
0.062665
0.050426
0.116714
-0.022678
0.154427
0.185702
0.131762
0.060422
0.124294
0.142301
0.148369
0.209714
0.217301
0.231045
0.256417
0.216748
0.380413
0.287290
0.377852
0.354045
0.471244
0.384941
0.360035
0.460215
0.386112
0.479957
0.453673
0.480330
0.525858
0.511286
0.493017
0.472765
0.419892
0.456442
0.439072
0.398188
0.427329
0.379159
0.460362
0.400965
0.372850
0.340213
0.286169
0.306559
0.289444
0.164818
0.185687
0.123201
0.154749
0.213404
0.156464
0.086055
0.113146
0.102961
0.084548
0.081097
0.104109
0.034696
0.040273
0.022880
0.027973
-0.053591
-0.064502
-0.055808
0.025083
0.004524
0.041881
-0.022161
-0.082472
0.039082
0.022003
-0.021237
-0.032382
-0.070076
0.022709
-0.052999
-0.046958
-0.000712
0.022849
-0.021971
-0.014374
0.017390
-0.103376
-0.004281
-0.053576
-0.025248
0.010979
0.022601
0.018610
0.034714
0.029950
-0.035013
-0.036171
0.005620
-0.004224
0.060506
0.024357
0.059284
-0.006137
0.009023
-0.098671
0.045968
-0.011269
-0.050812
-0.071693
-0.066948
0.007523
0.046807
0.008495
0.076822
-0.082770
0.050253
0.008015
0.027525
-0.026980
0.026499
-0.036780
0.056071
-0.043254
-0.041288
0.030351
-0.019184
-0.010385
-0.009415
-0.044156
-0.047835
0.102320
0.045593
-0.023529
0.111250
-0.012718
0.103477
0.068356
0.040177
0.098756
0.114022
0.091898
0.116617
0.095052
0.138297
0.112035
0.202138
0.129842
0.159636
0.096942
0.175238
0.070333
0.105832
0.194559
0.218183
0.232246
0.124461
0.139457
0.288799
0.100670
0.171572
0.181785
0.172508
0.071689
0.118291
0.084291
0.148781
0.133458
0.066937
0.069214
0.027980
0.101537
0.010443
0.039741
0.034634
0.053565
0.016163
-0.017541
0.040520
0.009494
-0.091897
0.090055
0.059368
-0.013540
-0.010746
0.017537
0.085402
0.014592
0.050408
-0.054542
0.058915
0.110968
0.258014
0.461048
0.782082
1.073098
1.408857
1.436027
1.335606
1.087585
0.640223
0.376139
0.017840
-0.106166
-0.153422
-0.261335
-0.096264
-0.193297
0.023487
0.087502
0.021686
0.050006
0.079051
0.039049
0.074258
0.072247
0.100131
0.090351
0.082611
0.097027
0.076372
0.194508
0.177527
0.090612
0.183215
0.139267
0.095679
0.243756
0.225020
0.278526
0.277992
0.253729
0.247741
0.152426
0.281711
0.348306
0.394155
0.389960
0.381901
0.328236
0.434104
0.468218
0.465692
0.472434
0.564437
0.474343
0.559594
0.456400
0.593602
0.655084
0.499270
0.538630
0.591105
0.519219
0.590339
0.567797
0.502495
0.452210
0.518632
0.513975
0.505108
0.458900
0.383176
0.438685
0.343536
0.406043
0.412279
0.301729
0.299463
0.314267
0.279636
0.236387
0.194935
0.159241
0.237560
0.200759
0.079346
0.202736
0.173002
0.230423
0.191007
0.131054
0.150209
0.128059
0.099919
0.129738
0.128305
0.054606
0.089726
0.088438
0.060014
-0.007101
0.031068
0.052867
0.090786
-0.024578
0.059425
0.021605
0.042017
0.065139
0.063240
0.058768
0.086572
0.076886
0.024833
0.024996
0.109736
-0.037723
0.057710
0.028799
0.129675
-0.052987
0.048144
0.105253
0.018297
0.008346
0.098837
0.089651
0.090796
0.048307
0.122049
0.022903
0.012010
0.030025
0.129402
0.020311
0.018236
0.068543
0.031292
0.101389
0.062849
0.080211
0.046887
0.058127
0.062686
0.001702
0.001082
0.063557
0.003218
-0.066472
0.083307
-0.005298
0.006522
0.062132
0.050534
0.000637
0.004248
0.066993
0.061047
0.090061
-0.035073
0.103479
0.061835
0.091766
0.051662
0.051443
0.046680
0.145832
0.103756
0.189197
0.103698
0.143084
0.145641
0.166488
0.214172
0.166553
0.252519
0.181618
0.301537
0.209761
0.278955
0.212807
0.214926
0.183988
0.193964
0.177835
0.159008
0.162737
0.220678
0.178503
0.049359
0.111979
0.052133
0.076178
0.094620
0.072273
0.011801
0.054825
0.055161
0.010943
0.049190
-0.001737
0.110369
0.005820
0.115004
-0.000682
-0.007318
0.047845
-0.017130
0.014431
0.131133
0.104213
-0.011404
0.014216
0.037790
0.109588
0.025569
-0.029866
-0.067855
0.105169
0.426644
0.665723
1.005607
1.271017
1.500000
1.367175
1.111391
0.900236
0.416626
0.088633
-0.105158
-0.278599
-0.246187
-0.162169
-0.173292
-0.030536
-0.070970
0.038094
0.003162
0.093404
0.030611
0.067894
0.018715
-0.031214
0.030101
0.032575
0.003248
0.076358
0.058165
0.063711
0.079229
0.094408
0.121403
0.017277
0.133494
0.171136
0.144121
0.195296
0.156016
0.254002
0.294335
0.166335
0.264863
0.242347
0.293386
0.346762
0.429191
0.427595
0.379505
0.414196
0.496531
0.408779
0.506313
0.485699
0.538196
0.498948
0.562841
0.509688
0.468057
0.450473
0.529041
0.498733
0.400483
0.588169
0.407305
0.441590
0.462491
0.444423
0.371811
0.373025
0.335911
0.319837
0.299000
0.229399
0.173599
0.287353
0.164876
0.235299
0.199270
0.195869
0.162781
0.111464
0.175024
0.023864
0.035128
0.111618
0.084191
-0.035872
0.080234
0.038567
0.047105
0.041938
-0.003158
-0.030113
0.045302
-0.051476
-0.033380
-0.055425
-0.043890
0.022922
-0.056625
-0.054637
-0.049870
-0.060797
-0.033812
0.008966
-0.083349
-0.058247
-0.089239
-0.133444
-0.072783
-0.036810
-0.060169
-0.087347
-0.061896
-0.032142
-0.034597
-0.148455
-0.031488
-0.103285
-0.024696
-0.072439
-0.064263
-0.104158
-0.059011
-0.015550
-0.068222
-0.064074
-0.120371
-0.089730
-0.037745
-0.062147
-0.035163
0.046555
0.038930
-0.062893
-0.095952
0.008531
0.048101
-0.064514
-0.119975
-0.172258
-0.006954
-0.053120
-0.035317
-0.068962
-0.094850
-0.083472
-0.093125
-0.105600
-0.028869
-0.010785
-0.141132
-0.082741
-0.071257
-0.040388
-0.039824
-0.107969
-0.028547
-0.085486
-0.098628
-0.126514
-0.079291
0.002027
-0.000081
-0.053734
0.018599
0.013168
-0.034672
-0.002701
0.078126
0.069104
0.047355
0.072013
0.098620
0.120247
0.069170
0.098114
0.135143
0.114214
0.084862
-0.029746
0.149463
0.095495
0.073538
0.073843
0.037064
0.030567
0.064982
0.006860
-0.031696
0.018203
0.010750
-0.084440
0.029257
-0.050321
-0.040375
-0.047813
-0.039707
-0.116349
-0.049867
-0.119110
-0.076630
-0.074578
-0.069052
-0.118180
-0.086835
-0.043249
-0.148121
-0.106706
-0.051484
-0.104195
-0.086879
-0.066439
-0.080221
-0.082991
0.032595
0.124308
0.484703
0.840538
1.035345
1.283209
1.246238
1.126656
0.869454
0.487582
0.122845
-0.204492
-0.309673
-0.416783
-0.315785
-0.230838
-0.106585
-0.026578
-0.112003
-0.090734
-0.022966
-0.086083
-0.146154
-0.031268
-0.103204
-0.081188
-0.112641
-0.152437
-0.016894
-0.016899
-0.028819
-0.016500
-0.012421
-0.012824
0.030096
0.016665
0.013114
0.018683
0.014340
0.021550
0.161939
0.070027
0.243842
0.133638
0.164211
0.202609
0.179158
0.173820
0.256013
0.313387
0.312467
0.339790
0.311875
0.397908
0.393161
0.438493
0.425817
0.457098
0.428331
0.386162
0.386574
0.393847
0.423444
0.443771
0.390382
0.375477
0.415169
0.325292
0.423009
0.330644
0.215138
0.293904
0.241946
0.311613
0.195959
0.244426
0.098513
0.141542
0.181101
0.096748
0.065814
0.025930
0.012406
0.084644
0.128727
0.143075
0.083321
0.034551
-0.076600
0.047908
0.028753
-0.029856
-0.066642
-0.043526
-0.111381
-0.002355
-0.080512
0.001078
-0.046560
0.016959
-0.049012
-0.108893
-0.090353
-0.013117
0.032333
-0.062439
-0.113845
-0.143920
-0.108912
-0.073318
-0.007726
-0.054057
-0.072436
-0.072160
-0.108637
-0.100410
-0.145522
-0.163629
-0.105741
-0.112937
-0.112187
-0.121351
-0.097801
-0.055253
-0.047014
-0.121310
-0.078086
-0.052516
-0.053103
-0.159092
-0.151791
-0.021071
-0.072664
-0.048501
-0.061366
-0.048353
-0.133498
-0.025196
-0.075308
-0.159381
-0.041945
-0.092698
-0.062125
-0.078402
-0.091554
-0.099570
-0.093845
-0.178240
0.013130
-0.114439
-0.019127
-0.098219
-0.082028
-0.069822
-0.097964
-0.101518
-0.056634
-0.052150
-0.071981
-0.042157
-0.053176
-0.080164
0.035045
-0.104478
0.011044
-0.067916
-0.003051
0.035853
0.030101
0.057398
-0.000892
0.017516
0.068997
0.110141
0.102433
0.038029
0.103496
0.117695
0.175363
0.110488
0.139552
0.137555
0.070708
0.146348
0.172004
0.133607
0.040977
0.122744
0.103098
0.018803
0.018103
0.142553
0.076963
0.036142
-0.001846
-0.105648
0.055185
-0.018629
-0.009321
0.055097
-0.002639
-0.007926
-0.026157
-0.068869
-0.064408
-0.070696
-0.074895
0.008958
-0.067119
-0.040493
0.017402
-0.048243
-0.024929
-0.047534
-0.070227
-0.011256
-0.097451
0.090260
0.078685
0.480877
0.654008
1.116353
1.384372
1.465520
1.330122
1.154029
0.692151
0.292984
0.041922
-0.205339
-0.264387
-0.292396
-0.130952
-0.188691
-0.136078
-0.028109
0.070110
0.007746
-0.057583
-0.031327
0.013933
0.101831
0.021424
0.039643
0.105570
0.045727
0.063407
0.020567
0.100750
0.080270
0.044975
0.101620
0.199135
0.054285
0.127987
0.187211
0.175033
0.259000
0.282301
0.258388
0.323496
0.274308
0.304924
0.309234
0.308669
0.380464
0.401015
0.386780
0.455425
0.437051
0.501275
0.422165
0.523546
0.548426
0.544430
0.511276
0.574466
0.565984
0.555580
0.530610
0.493309
0.522754
0.516310
0.547355
0.502657
0.445615
0.460828
0.451794
0.361110
0.435480
0.384216
0.363820
0.339329
0.378963
0.283848
0.235571
0.372241
0.208381
0.308723
0.238835
0.139579
0.178893
0.230821
0.064431
0.135223
0.154896
0.076210
0.148656
0.187814
0.073547
0.085917
0.028677
0.024571
0.124380
0.131434
0.056719
0.011238
0.038875
-0.026593
0.045248
0.101382
0.040864
0.059622
0.111282
0.058490
0.109020
0.062020
-0.003979
-0.036894
0.100124
0.065494
0.023568
0.053229
0.045461
0.000026
0.094489
0.104321
0.086272
0.053278
0.008506
-0.028768
0.043986
0.101272
-0.005563
0.057765
0.012753
0.117401
0.089365
-0.002593
0.141642
0.042174
-0.015674
0.091414
0.003609
0.053650
-0.007209
0.005285
-0.007879
0.019092
0.060736
0.041686
0.060826
0.039236
0.088631
0.029145
0.082288
0.003662
0.084838
0.123356
0.112890
0.150500
0.020993
0.089474
0.031819
0.112287
0.094103
0.130703
0.096071
0.087501
0.081015
0.128884
0.143151
0.123178
0.170289
0.153405
0.093194
0.104911
0.178406
0.211062
0.205548
0.182271
0.172201
0.195325
0.232308
0.234336
0.220067
0.192060
0.301161
0.241204
0.221613
0.284003
0.204853
0.211023
0.117184
0.297166
0.186802
0.194973
0.173044
0.159941
0.114583
0.099947
0.089310
0.125681
0.125993
0.117062
0.153621
0.080605
0.129590
0.091599
0.145640
0.089010
0.026839
0.050187
-0.020014
0.084202
0.108886
0.074636
0.124676
0.067670
0.062870
0.082124
-0.032199
-0.082356
-0.009039
0.079648
0.177514
0.366210
0.753052
0.972233
1.341044
1.488542
1.461991
1.272438
0.894786
0.556303
0.220410
0.011787
-0.190276
-0.202534
-0.146792
-0.054835
0.009403
0.132452
0.093464
0.100114
0.088550
0.141166
0.062678
0.094178
0.078429
0.070226
0.113353
