-0.009741
0.084130
-0.013747
-0.025628
-0.052997
0.095545
-0.086824
-0.045407
0.021390
0.014424
0.005813
0.042965
-0.055246
-0.051050
0.115631
-0.019075
0.004681
-0.003558
0.049174
0.009718
0.125137
0.026956
0.119979
0.088207
0.068126
0.162015
0.103039
0.142418
0.122076
0.138810
0.110446
0.149015
0.217958
0.241896
0.215026
0.244602
0.111514
0.185742
0.150517
0.221307
0.138311
0.153897
0.139898
0.273107
0.138122
0.151580
0.129144
0.147972
0.091761
0.061770
0.157467
0.053006
0.099814
0.045501
0.079239
0.053763
0.100420
0.052826
0.025501
0.138181
-0.004230
0.020599
0.059080
0.076873
0.029661
0.015257
0.079534
0.070499
0.078625
-0.008672
0.086843
0.185229
0.373546
0.615182
1.102629
1.283322
1.433584
1.324217
1.061217
0.706766
0.362216
0.044084
-0.173806
-0.131902
-0.138245
-0.044420
-0.000870
0.135241
0.013491
0.097354
0.067175
0.167498
0.159257
0.071667
0.065488
0.165259
0.151421
0.209661
0.200389
0.247106
0.234468
0.162060
0.298710
0.298275
0.306721
0.352527
0.265158
0.405860
0.368519
0.293203
0.419181
0.494870
0.542418
0.502472
0.476201
0.564418
0.562550
0.494140
0.497126
0.543634
0.587764
0.507548
0.525422
0.585715
0.559062
0.642590
0.593989
0.591900
0.567000
0.538452
0.522894
0.460496
0.540252
0.403753
0.546836
0.489023
0.415611
0.453504
0.399345
0.378634
0.331335
0.375166
0.364561
0.403279
0.283947
0.241796
0.254865
0.248905
0.286398
0.198403
0.189485
0.193275
0.258874
0.162838
0.163680
0.177683
0.176348
0.025272
0.035970
0.247120
0.160502
0.068814
0.120314
0.101727
0.109498
0.147947
0.123393
0.108254
0.020141
0.077960
0.086291
0.028736
0.105656
0.080865
0.112567
0.073795
0.160497
0.102429
0.073038
0.104799
0.105912
0.044103
0.150062
0.084616
0.040100
0.080100
0.093465
0.050533
0.164323
0.049487
0.094433
0.090439
0.163572
0.071636
0.079886
-0.018818
0.109251
0.073950
0.035094
0.056599
0.016627
0.075219
0.119370
0.051431
0.048331
0.075771
0.097489
0.063308
0.100185
0.122816
0.139883
0.088820
0.173993
0.060430
0.169262
0.171499
0.221441
0.182408
0.175716
0.214744
0.263725
0.208541
0.217674
0.255329
0.239831
0.251113
0.224128
0.282182
0.350906
0.276145
0.230071
0.258314
0.224645
0.230246
0.229340
0.219979
0.171409
0.206319
0.225895
0.201161
0.173245
0.093012
0.101926
0.113629
0.112315
0.105805
0.070904
0.099626
0.053158
0.115725
0.097561
0.051275
0.146092
0.002481
0.155522
0.113704
0.143987
0.002704
0.077905
0.103697
0.214741
0.345337
0.524931
0.821443
1.074656
1.374806
1.437884
1.261557
0.968806
0.725536
0.369912
0.030352
-0.063880
-0.226344
-0.047789
-0.078010
0.113145
0.112188
0.036338
0.041377
0.093349
0.198330
0.172734
0.047480
0.205782
0.166815
0.219712
0.167624
0.219863
0.266134
0.222924
0.264449
0.262249
0.294669
0.304024
0.267337
0.339380
0.325507
0.301889
0.358603
0.357147
0.382554
0.458134
0.520719
0.404718
0.493921
0.495472
0.513562
0.536597
0.520588
0.530942
0.540855
0.561632
0.562699
0.639026
0.569093
0.658472
0.601400
0.545412
0.553768
0.513584
0.550632
0.581039
0.488730
0.454388
0.456293
0.432100
0.403628
0.441556
0.328423
0.308400
0.308234
0.327378
0.250278
0.192656
0.226344
0.272069
0.228272
0.104548
0.216446
0.109142
0.196590
0.206052
0.109860
0.158942
0.107555
0.053845
0.097623
0.043360
0.049650
0.020860
0.055981
0.008966
0.022538
0.056549
0.018150
0.124434
0.038540
0.048504
0.011147
0.034047
0.032722
-0.015505
-0.030429
0.076646
0.112338
0.010244
0.007314
0.099563
0.034110
0.102010
0.065183
0.002392
0.017611
-0.085224
0.049038
0.014309
0.074888
0.013162
0.034575
0.077930
-0.015465
0.038405
0.093038
0.044651
-0.001316
0.041710
0.048563
-0.034553
0.092613
-0.002425
0.098770
0.011513
0.102629
0.016276
0.097739
0.105917
0.106650
0.008683
-0.032038
0.095043
0.046907
0.143061
0.035184
0.094491
0.074905
0.062619
0.067493
0.134272
0.086108
0.087112
0.102959
0.139078
0.236493
0.135400
0.134487
0.186498
0.146968
0.180021
0.124433
0.204295
0.147256
0.087858
0.099464
0.189926
0.149984
0.189234
0.035004
0.124314
0.038859
0.036442
0.105626
0.041184
0.036457
-0.021761
-0.007798
0.003628
0.146069
0.010767
0.028746
0.012232
0.081473
-0.070461
0.019319
-0.021190
-0.039244
-0.019445
-0.000211
-0.034165
-0.019179
0.121887
0.221047
0.447522
0.712541
1.062460
1.311632
1.356027
1.265873
0.973007
0.540178
0.229312
-0.021883
-0.182230
-0.149441
-0.142704
-0.198764
-0.047553
0.013990
-0.015378
0.002400
-0.007864
0.057388
0.003235
0.049047
0.049252
0.078420
0.199238
0.054724
0.124972
0.069579
0.116360
0.197707
0.211850
0.152356
0.183797
0.229076
0.257433
0.283769
0.335980
0.285323
0.321526
0.326990
0.354645
0.380031
0.384630
0.351944
0.449603
0.465302
0.438370
0.490310
0.407950
0.484780
0.504700
0.499424
0.441243
0.476426
0.449098
0.471731
0.524136
0.465648
0.412922
0.412517
0.406279
0.389547
0.314659
0.370863
0.365067
0.302569
0.329715
0.316633
0.224331
0.228651
0.144637
0.208708
0.186897
0.165495
0.139125
0.086332
0.041980
0.091887
0.055618
0.063660
0.027726
0.062842
-0.043603
-0.040130
-0.004977
-0.051114
0.003770
0.013852
-0.059515
-0.007043
-0.049953
-0.083970
-0.031327
0.018063
-0.087008
-0.043511
-0.029452
-0.056625
-0.061886
-0.055828
-0.065304
-0.077321
-0.057870
-0.007223
-0.043170
-0.025369
-0.064969
-0.028595
-0.071475
-0.087331
-0.001345
-0.009577
-0.137983
-0.088845
-0.074929
-0.063220
-0.075272
-0.069912
-0.085256
-0.070751
-0.020922
-0.042498
0.039177
0.000574
-0.018222
-0.057876
-0.039582
0.017039
0.041634
-0.014287
-0.051925
-0.118787
-0.032165
0.006309
-0.002860
-0.043743
0.019346
-0.071313
0.004780
-0.012892
0.040262
0.030798
-0.027690
-0.011546
0.057451
0.167595
0.031451
0.085277
0.102018
0.034752
0.157604
0.050705
0.066195
0.124569
0.156164
0.084676
0.124894
0.127517
0.103130
0.114823
0.114453
0.162797
0.120242
0.080771
0.127913
-0.010412
-0.013780
0.049905
0.018494
0.055168
0.018085
0.004234
-0.052295
0.032616
-0.024574
0.003360
0.032355
-0.007413
0.028113
-0.026224
-0.016518
-0.085816
-0.036036
0.012048
-0.043887
-0.034870
0.059270
-0.054106
0.010721
0.267342
0.447935
0.759242
1.083246
1.238996
1.340263
1.203587
0.847062
0.513126
0.147063
0.024840
-0.124041
-0.288192
-0.182853
-0.079833
-0.033109
0.021143
0.046704
0.068780
-0.080507
0.056315
0.095829
0.070626
0.058728
0.045820
0.028457
0.055136
0.110098
0.103220
0.176545
0.127105
0.149482
0.166267
0.258229
0.267605
0.180520
0.320995
0.265429
0.362286
0.358300
0.392885
0.392240
0.365761
0.431435
0.408633
0.458329
0.520313
0.465502
0.497162
0.592551
0.547974
0.463441
0.546207
0.500469
0.524050
0.460262
0.494829
0.525794
0.511106
0.417467
0.479071
0.426214
0.458090
0.393689
0.369598
0.364013
0.413452
0.350458
0.257203
0.230078
0.236957
0.294150
0.235785
0.244851
0.219624
0.121488
0.173680
0.140475
0.095953
0.087875
0.108976
0.110474
0.040799
0.080173
0.058773
0.048035
0.142274
0.056595
0.133259
0.029071
0.027181
0.058515
0.022386
0.006208
-0.010150
0.021452
-0.004725
0.073200
0.057177
0.076545
0.045771
0.008807
-0.017274
0.051645
0.071650
-0.001230
0.016052
-0.037862
-0.027426
0.034515
-0.011872
0.018798
0.066842
0.076983
0.025985
0.073489
0.034773
0.023479
0.062136
-0.053019
0.070283
-0.025224
-0.015109
-0.004156
0.044337
0.060058
-0.011248
0.036264
0.102458
0.088108
0.123605
0.078125
0.089206
0.038970
0.093462
-0.003797
0.066507
0.153870
0.061291
0.025842
0.070781
0.168392
0.042763
0.166571
0.092527
0.145035
0.175778
0.226052
0.189068
0.214284
0.182188
0.185761
0.169864
0.244234
0.226348
0.210955
0.147627
0.221415
0.186323
0.185830
0.235223
0.259669
0.183989
0.260295
0.219037
0.156003
0.097659
0.191828
0.179583
0.194102
0.152173
0.122958
0.088379
0.132620
0.120212
0.062726
0.095954
0.091477
0.116224
0.135668
0.052133
0.043714
0.151635
0.078421
0.045999
0.067656
0.057186
0.030991
0.196790
0.172408
0.339619
0.638203
0.964723
1.218160
1.484156
1.500000
1.184200
1.008659
0.526474
0.179026
0.021362
-0.080627
-0.066245
-0.166355
0.005860
-0.020587
0.067164
0.092714
0.125644
0.096051
0.147510
0.182596
0.122413
0.266116
0.141209
0.153517
0.140519
0.228348
0.229609
0.290675
0.203728
0.285426
0.285909
0.306788
0.312945
0.394944
0.434721
0.425465
0.440137
0.446380
0.452290
0.413411
0.458501
0.513485
0.601191
0.528884
0.537006
0.586364
0.576967
0.542854
0.630731
0.554882
0.532419
0.641509
0.637931
0.555730
0.604427
0.608778
0.620906
0.563293
0.524879
0.463331
0.414052
0.423103
0.413656
0.500580
0.476821
0.352088
0.370546
0.417488
0.316560
0.271161
0.334606
0.274153
0.304690
0.209828
0.277303
0.225597
0.238508
0.211185
0.215970
0.132428
0.097400
0.115152
0.161978
0.120290
0.141025
0.100768
0.182943
0.121726
0.108708
0.144950
0.107654
0.085898
0.116649
0.067386
0.060073
0.105815
0.082001
0.109885
0.009594
0.130234
0.129426
0.085754
0.212624
0.070216
0.067322
0.074659
0.095968
0.028257
0.029740
0.019447
0.129119
0.072389
0.077064
0.051566
0.042897
0.069117
0.087492
0.093901
0.123886
0.079421
0.097202
0.103078
0.129791
0.105617
0.065419
0.133969
0.066160
0.062309
0.118132
0.085087
0.120277
0.040196
0.101587
0.182970
0.089494
0.245125
0.151188
0.131800
0.116446
0.154618
0.200665
0.219027
0.151977
0.195056
0.157730
0.159561
0.253848
0.252311
0.284665
0.232916
0.231802
0.257267
0.275613
0.333744
0.276961
0.367284
0.317013
0.153953
0.180632
0.301060
0.265650
0.287651
0.265314
0.182421
0.186149
0.147311
0.100351
0.153849
0.142367
0.194650
0.180903
0.125570
0.160742
0.100089
0.012502
0.073828
0.091660
-0.006946
0.081858
0.055839
0.112315
0.031089
0.174700
0.013076
0.040889
0.052506
0.170715
0.187362
0.322320
0.620571
0.885518
1.310454
1.469810
1.412481
1.241545
0.888001
0.318379
0.174736
-0.011350
-0.034322
-0.213663
-0.128959
0.000200
-0.028017
0.065737
-0.010908
0.083015
0.202086
0.185438
0.111994
0.251240
0.174847
0.221757
0.171586
0.169088
0.250400
0.134444
0.240170
0.179116
0.248083
0.396648
0.343285
0.341803
0.396855
0.323720
0.349297
0.452461
0.494477
0.400672
0.492108
0.424144
0.426818
0.583067
0.527502
0.531883
0.447058
0.550912
0.614184
0.554832
0.553397
0.479927
0.563296
0.593920
0.547777
0.523853
0.592829
0.605340
0.574929
0.431106
0.565544
0.408476
0.463282
0.431149
0.407448
0.337789
0.272773
0.365000
0.271796
0.280939
0.227776
0.263700
0.333722
0.150683
0.186416
0.185224
0.206650
0.118205
0.055429
0.101060
0.130832
0.021917
0.088864
0.045400
0.109407
0.045147
0.067652
0.131772
-0.041396
0.092222
0.064514
0.111280
-0.023466
0.056635
0.032846
0.011851
-0.078006
0.008049
-0.000077
0.001915
0.105792
-0.035539
0.044352
-0.031450
0.080309
0.087626
-0.028992
-0.007537
0.076377
0.083380
-0.040449
0.075737
-0.002909
0.005288
0.074005
-0.003028
-0.008127
-0.017757
-0.071158
-0.008677
-0.021720
-0.005482
0.032424
0.057739
-0.009992
-0.004810
0.049081
-0.067048
-0.001664
-0.031592
0.055905
0.017590
0.008036
0.027835
0.057747
0.066587
-0.058721
-0.014539
0.051206
0.037082
0.038840
-0.030197
0.113944
0.124919
0.133820
0.171366
0.069145
0.118051
0.116016
0.134373
0.145712
0.137307
0.164138
0.138936
0.120505
0.205909
0.228619
0.154564
0.166266
0.048096
0.101541
0.159783
0.124751
0.080318
0.030926
0.093157
0.155078
0.062120
0.046537
0.101178
-0.005696
0.024055
0.007355
-0.016061
0.011406
-0.076032
-0.011078
-0.086857
-0.032785
0.072149
-0.050007
-0.059246
0.029753
-0.090656
-0.077034
-0.066000
0.015770
-0.002280
0.023956
0.233105
0.578382
0.855848
1.138436
1.345918
1.273131
1.068749
0.699961
0.360968
0.034552
-0.136591
-0.206221
-0.258660
-0.215335
-0.115398
-0.049294
0.018615
-0.009765
-0.040389
-0.017169
-0.071416
-0.068334
0.022254
0.036513
0.005499
0.023715
0.066696
0.090664
0.099983
0.092058
0.132631
0.153145
0.222343
0.134248
0.202093
0.282484
0.347742
0.315218
0.297655
0.353731
0.317188
0.433762
0.364176
0.335125
0.404590
0.374036
0.380679
0.385284
0.396335
0.473411
0.420107
0.409473
0.395773
0.489907
0.484815
0.457204
0.348512
0.509595
0.397841
0.434061
0.389061
0.327432
0.328761
0.229309
0.258577
0.242492
0.260744
0.256415
0.139557
0.218569
0.070005
0.157244
0.082943
0.194730
0.119606
-0.003745
-0.029578
-0.017110
0.002996
0.081264
-0.034607
-0.042411
-0.038495
0.007478
-0.035215
-0.046994
0.010983
-0.037526
-0.033528
-0.122031
0.050422
-0.027789
-0.114004
-0.084075
-0.068204
-0.099577
-0.122463
-0.000084
-0.101381
-0.013058
-0.049183
-0.015308
-0.101161
-0.052552
-0.069031
-0.024538
0.022444
-0.077083
-0.091303
-0.113318
-0.047019
-0.163922
-0.051525
-0.116502
-0.075058
-0.103323
-0.035367
-0.001298
-0.024194
-0.091652
-0.086268
-0.013295
-0.087791
-0.073925
-0.083908
-0.102322
-0.113400
-0.076701
-0.078222
-0.082077
0.093532
-0.064148
-0.058196
-0.079237
-0.126350
-0.111933
-0.024411
-0.058339
-0.063855
-0.055420
-0.011783
-0.026901
0.008966
0.026763
-0.034760
0.017729
0.097530
-0.038973
-0.003182
0.043608
0.032788
0.149487
0.125343
0.039867
0.113440
0.057758
0.148301
-0.025745
0.172480
0.124104
0.071748
0.061094
0.121236
0.045010
-0.014254
0.121672
0.035016
0.050111
0.049192
-0.004127
-0.027577
-0.073944
-0.043904
-0.041646
-0.008665
-0.032828
-0.086887
-0.049215
-0.096359
0.041085
-0.050647
-0.057943
-0.182432
-0.020591
-0.074861
-0.028411
-0.129220
-0.079698
-0.132671
0.060953
0.240198
0.539548
0.890856
1.173152
1.257592
1.191512
0.914111
0.672035
0.247646
0.054040
-0.187474
-0.288431
-0.254109
-0.197600
-0.060336
-0.104104
0.007520
-0.059231
0.016846
-0.042675
-0.038311
-0.014677
0.001556
-0.071511
0.058411
0.015840
0.120471
-0.026419
0.107227
0.086556
0.138554
0.211591
0.195701
0.131804
0.208698
0.248060
0.247576
0.231602
0.295539
0.337964
0.388766
0.324468
0.374940
0.391031
0.344173
0.439178
0.376034
0.463174
0.485646
0.497466
0.350177
0.542741
0.469363
0.547566
0.497944
0.424340
0.439823
0.342589
0.430000
0.395799
0.382991
0.389357
0.317933
0.296291
0.323205
0.337383
0.151555
0.197720
0.274755
0.251531
0.124503
0.179056
0.261601
0.040603
0.076982
0.077923
0.109789
0.130574
0.005409
0.018490
0.066735
0.058572
0.004519
0.098939
0.109657
-0.018643
-0.032995
0.042397
-0.032754
-0.027253
-0.032278
0.092538
0.015197
-0.061272
0.066265
0.021665
-0.065903
-0.019255
0.034823
-0.007938
-0.034718
0.012835
-0.079347
-0.049389
-0.013207
-0.026797
-0.074408
-0.079868
0.100074
-0.000723
0.013460
-0.057605
-0.077003
0.074287
-0.040219
0.026614
-0.065860
-0.003877
-0.012887
0.015031
-0.018748
-0.038587
0.017780
-0.047811
0.024308
-0.039912
-0.021169
0.017498
0.006361
-0.045272
-0.045155
0.042914
-0.008765
0.031391
0.011503
0.020607
0.037821
0.011065
-0.022818
-0.023217
0.054676
-0.032193
0.022281
0.078527
0.076497
0.101285
0.159141
0.118956
0.116925
0.185574
0.169037
0.099792
0.118997
0.251894
0.153513
0.226252
0.172987
0.185697
0.158309
0.098966
0.159594
0.091589
0.188316
0.116579
0.159068
0.164836
0.165551
0.137454
0.089883
0.127529
0.026885
0.068404
0.076943
0.065635
0.108106
-0.009961
0.066693
0.017615
0.056425
-0.014573
-0.032168
0.074363
0.006053
0.055302
0.054317
-0.031171
-0.015908
0.086089
0.042326
0.213828
0.416636
0.761986
1.050617
1.327351
1.412163
1.338098
1.044010
0.719603
0.330090
-0.022728
-0.145332
-0.112755
-0.113388
-0.070468
0.038237
-0.060519
0.082218
0.012076
0.054609
0.043063
0.143027
0.088981
0.128075
0.059901
0.126118
0.279961
0.161130
0.161084
0.117321
0.208217
0.235815
0.301793
0.253179
0.254052
0.222561
0.248380
0.275559
0.362136
0.377896
0.333723
0.446590
0.387733
0.391430
0.412506
0.522692
0.502724
0.574111
0.534950
0.474319
0.561888
0.547864
0.518863
0.521460
0.494059
0.700587
0.549188
0.524041
0.521634
0.508341
0.411603
0.474895
0.357828
0.461609
0.442842
0.406302
0.411594
0.349534
0.328075
0.362476
0.330536
0.229880
0.265072
0.285105
0.227823
0.270389
0.177829
0.125935
0.196878
0.127132
0.169196
0.195699
0.121788
0.160357
0.051014
0.030735
0.113179
0.082402
-0.014904
0.030042
0.129899
0.082786
0.099277
0.044734
0.022279
0.035832
0.073258
0.050417
0.122316
0.027373
0.011414
0.093273
0.037707
0.098864
0.057124
0.077690
0.058002
0.086143
-0.021284
0.049723
0.034570
0.035754
0.018764
0.063979
0.013153
0.026074
0.087179
0.050268
-0.009073
0.036863
-0.034202
0.055485
-0.014208
-0.028216
-0.029002
0.114672
0.095144
0.090256
0.057792
0.082129
0.124692
0.060204
0.035156
0.015322
0.002505
0.101336
-0.011459
-0.011750
0.121129
0.066068
0.118668
0.120698
0.085280
0.070702
0.070809
0.055574
0.161386
0.089609
0.094126
0.188349
0.270837
0.190512
0.210001
0.213302
0.179638
0.228079
0.188638
0.239598
0.185208
0.217691
0.185361
0.175619
0.161987
0.155357
0.177000
0.209649
0.173745
0.064179
0.202591
0.114524
0.143048
0.153473
0.092153
0.018335
0.187300
0.140509
0.069889
0.046430
0.029604
0.058226
0.076605
0.016586
0.071841
-0.030512
0.024916
-0.035754
-0.014687
0.045539
-0.025590
0.153273
0.220990
0.524433
0.780565
1.084101
1.277794
1.407834
1.213227
0.985760
0.664463
0.317682
0.005905
-0.062312
-0.264115
-0.083490
-0.087946
0.018537
-0.005452
-0.010440
0.085507
0.101068
-0.001720
0.027170
0.122744
0.115057
0.103343
0.063490
0.126135
0.127058
0.173334
0.218016
0.195014
0.168804
0.307449
0.260006
0.286850
0.323623
0.358396
0.348093
0.283391
0.397954
0.418014
0.331334
0.524218
0.353837
0.439602
0.312654
0.501793
0.545889
0.449591
0.561587
0.511225
0.360459
0.556148
0.481861
0.539384
0.488186
0.492129
0.450992
0.485744
0.458410
0.425152
0.459245
0.368349
0.390228
0.363493
0.388125
0.262733
0.307072
0.282367
0.318427
0.209948
0.185800
0.181495
0.159741
0.173144
0.187648
0.154105
0.295246
-0.001733
0.143941
0.126081
0.056982
0.054782
0.012620
0.032097
0.034833
-0.003364
-0.043365
-0.026398
0.030683
-0.058033
0.048161
0.001425
-0.014916
-0.004255
-0.030837
-0.084850
-0.076460
-0.090909
0.008111
0.031243
-0.013624
0.000217
-0.042201
-0.045484
-0.081852
-0.024649
-0.052223
-0.077322
0.042112
-0.080986
0.034335
-0.053069
-0.003829
-0.023629
-0.076843
-0.003729
-0.053980
0.009532
-0.092515
-0.044882
-0.055304
-0.135872
0.010557
-0.032814
-0.083961
-0.079801
-0.038632
-0.054317
-0.075421
-0.043347
-0.025584
-0.085891
0.049590
-0.088507
-0.020105
0.008470
-0.041759
-0.068368
0.033017
-0.031981
-0.021704
-0.018299
0.007719
0.033283
0.012798
0.059238
0.044114
0.114802
0.107762
0.156275
0.084568
0.057339
0.149811
0.171627
0.080543
0.128161
0.216375
0.167498
0.118593
0.152247
0.138085
0.046140
0.130120
0.050175
0.112667
0.075695
0.107899
0.031654
0.017273
0.041752
-0.000885
-0.053882
-0.053749
-0.060832
0.030003
-0.104749
0.007733
-0.053643
-0.087760
-0.010569
-0.068824
-0.083727
-0.050126
-0.024501
-0.062520
-0.027350
-0.077352
-0.034404
-0.059691
0.151912
0.374225
0.766077
1.027237
1.185594
1.301333
1.140454
0.797480
0.568348
0.107251
-0.127565
-0.238562
-0.345965
-0.235820
-0.229199
-0.117222
-0.064640
-0.100612
-0.049567
-0.020149
-0.058619
0.019574
-0.122189
-0.031428
-0.028222
0.006458
0.029916
0.075334
0.025543
0.097741
0.175279
0.078242
0.059569
0.125572
0.150358
0.162076
0.172107
0.192848
0.240004
0.208213
0.304412
0.281739
0.340105
0.241748
0.364126
0.289894
0.453399
0.441442
0.444836
0.424559
0.358743
0.385718
0.430836
0.398088
0.488925
0.450302
0.438193
0.406405
0.422230
0.389464
0.312670
0.304807
0.372300
0.308480
0.306584
0.254221
0.286753
0.287451
0.138723
0.208862
0.216794
0.155601
0.118679
0.069630
0.061205
0.018081
-0.034888
0.036438
0.022898
0.020674
-0.072721
-0.043284
-0.119323
-0.010167
-0.018298
-0.046428
-0.043812
-0.046574
-0.093208
-0.194350
-0.061154
-0.088953
-0.142826
-0.115414
-0.159494
-0.110818
-0.035602
-0.016107
-0.115449
-0.062068
-0.123186
-0.036764
-0.129863
-0.088684
-0.075646
-0.046696
-0.067172
0.001246
-0.118883
-0.091791
-0.093880
-0.116364
-0.087359
-0.092815
-0.093192
-0.166664
-0.078934
-0.093504
-0.106571
-0.109025
-0.149346
-0.113692
-0.029493
-0.073416
-0.097977
-0.021002
-0.017287
-0.157898
-0.015034
-0.086479
-0.092389
-0.111905
-0.126963
-0.086872
-0.045462
-0.072912
-0.136712
-0.051778
-0.072151
-0.142253
-0.065587
-0.062844
-0.068508
-0.084484
0.057159
-0.059291
-0.033801
-0.039039
0.032360
0.011453
0.118983
0.086011
-0.002923
0.029224
0.061880
0.053641
0.110342
0.108591
0.084839
0.109800
0.069842
0.077792
0.020043
0.071071
0.039594
0.052042
-0.008060
0.059970
-0.057188
0.080790
-0.026957
0.018246
-0.016841
-0.018258
-0.039373
-0.101077
-0.075700
-0.046117
-0.006741
-0.097319
-0.058631
-0.071357
-0.111347
-0.102996
-0.115538
-0.011982
-0.081880
-0.107968
0.015563
-0.009419
0.203354
0.362611
0.787225
0.965810
1.288881
1.273061
1.155388
0.837118
0.422284
0.129776
-0.046751
-0.288133
-0.207680
-0.184815
-0.221272
-0.026663
-0.022232
-0.041324
-0.011192
0.027589
-0.001295
0.037263
-0.000154
-0.042755
0.009436
0.099228
0.051063
0.037483
-0.017867
-0.004256
0.058954
0.113759
0.185679
0.131408
0.110893
0.146566
0.183897
0.164359
0.254141
0.217633
0.288830
0.347360
0.337685
0.408975
0.339559
0.343323
0.448742
0.491079
0.476641
0.468490
0.481095
0.416658
0.514801
0.426725
0.424506
0.418918
0.469805
0.402409
0.421648
0.386129
0.401651
0.332621
0.342754
0.317386
0.304325
0.364579
0.341603
0.353235
0.235510
0.228277
0.221609
0.180164
0.221554
0.146005
0.091102
0.116317
0.136708
0.002044
0.138413
-0.044263
0.007607
0.025965
0.005485
0.054524
0.032959
-0.007133
0.000768
-0.087721
0.049682
0.039474
-0.052341
0.037862
-0.002118
-0.033118
-0.009590
-0.021172
-0.029508
-0.042009
0.044320
-0.100922
-0.062968
0.000302
-0.007893
-0.128304
-0.070244
0.045309
-0.025044
-0.004397
0.004902
-0.092626
0.010395
0.059694
-0.051682
-0.008216
0.019057
-0.076163
0.020431
0.000901
0.038277
-0.069956
-0.014497
0.012720
-0.027792
-0.005824
0.025274
-0.049598
-0.035094
-0.034119
-0.005661
0.018074
0.029818
0.065954
0.002709
0.023621
0.026577
-0.014010
-0.000319
0.047647
0.010947
0.020213
0.106214
0.104371
0.031318
0.018137
0.057740
0.090004
0.047695
0.125674
0.125332
0.210967
0.128336
0.155810
0.236091
0.216646
0.143994
0.094494
0.280795
0.162162
0.228769
0.092378
0.219933
0.155386
0.228400
0.130488
0.116742
0.157792
0.133747
0.083710
0.123152
0.085553
0.061872
0.124099
0.079171
0.032579
0.042265
0.069496
0.164431
0.078913
0.047543
0.046034
0.023700
0.080020
0.011641
0.046798
-0.029060
-0.033001
0.035833
-0.087176
0.011478
0.184561
0.289622
0.568388
0.940889
1.189722
1.431188
1.408670
1.218923
0.944560
0.488806
0.137449
-0.056231
-0.149656
-0.119748
-0.076445
-0.027246
0.013130
0.066184
0.179605
0.108430
0.113532
0.100966
0.086465
0.127715
0.192850
0.145789
0.114787
0.153436
0.140600
0.085135
0.214868
0.231867
0.233042
0.361167
0.355541
0.277616
0.346397
0.320317
0.354866
0.344809
0.422141
0.429119
0.490799
0.424762
0.487677
0.560130
0.524719
0.589732
0.526648
0.497083
0.529423
0.635444
0.625444
0.574833
0.567786
0.526722
0.638969
0.469589
0.531940
0.526930
0.541925
0.487850
0.477528
0.504979
0.455300
0.454078
0.371605
0.357077
0.464425
0.447733
0.334211
0.265141
0.286737
0.302797
0.297898
0.231473
0.197098
0.241862
0.221699
0.157016
0.178282
0.137399
0.148261
0.055021
0.125750
0.084719
0.113410
0.096695
0.073505
0.124048
0.077930
0.141726
0.069903
0.042260
0.091545
0.111291
0.158611
0.080694
0.071979
0.012882
0.133795
0.081694
0.126486
0.085184
0.083994
0.152951
0.071149
0.070016
0.026064
0.058059
0.135457
-0.026724
0.115482
0.045321
0.152821
0.066648
0.041388
0.162890
0.061108
0.071158
0.089731
0.098765
0.033725
0.006393
0.085342
0.086682
0.141213
0.091533
0.001995
0.049952
0.049484
0.077892
0.021567
0.058697
0.092368
0.077098
0.035875
0.205179
0.128653
0.124679
0.137336
0.042772
0.149774
0.172012
0.108783
0.208699
0.140887
0.207663
0.146783
0.165456
0.148720
