0.038658
-0.003973
-0.038659
-0.021813
-0.046674
-0.110405
0.048930
-0.013291
-0.058652
0.031521
0.040106
0.049983
0.100422
0.034166
0.014556
-0.048578
-0.064976
0.032854
0.000599
0.003861
0.050831
-0.001439
0.114927
0.034240
0.019940
0.107216
0.068154
0.025428
0.066050
0.046073
0.166619
0.073642
0.130956
0.114548
0.152828
0.111579
0.171868
0.175663
0.235902
0.179796
0.272707
0.225609
0.241495
0.201868
0.157960
0.226311
0.163119
0.158146
0.188580
0.201763
0.212374
0.148562
0.169003
0.072662
0.075084
0.214051
0.123077
0.042357
0.095440
0.059914
0.079848
0.048566
0.053302
0.088103
0.091741
0.016772
0.042168
-0.000874
0.061910
0.024853
0.013172
-0.032566
0.064548
0.031016
0.092189
0.025116
0.093167
-0.064474
0.080341
0.030542
0.106546
0.214005
0.573979
0.838595
1.102293
1.301803
1.405951
1.280612
1.035115
0.668831
0.330957
-0.088932
-0.134109
-0.166086
-0.124871
-0.170770
-0.038332
0.022918
0.056144
0.061535
0.090086
0.060615
0.052774
0.109102
0.104893
0.139482
0.112013
0.141634
0.121205
0.138379
0.159733
0.066218
0.237222
0.183107
0.265098
0.210359
0.240053
0.233107
0.267604
0.170634
0.250048
0.302875
0.389923
0.329820
0.273121
0.430819
0.427765
0.403366
0.411675
0.488497
0.550840
0.467660
0.552762
0.563895
0.529339
0.495979
0.587985
0.532821
0.560880
0.628012
0.542686
0.507046
0.583824
0.596085
0.487631
0.465250
0.562355
0.536090
0.542626
0.416139
0.483112
0.483728
0.493457
0.424955
0.370917
0.396503
0.254354
0.343330
0.377308
0.260845
0.306488
0.203778
0.194873
0.204261
0.314814
0.215072
0.158094
0.156846
0.186929
0.156458
0.138818
0.181059
0.040034
0.218640
0.097320
0.053018
0.139752
0.170234
0.061821
0.106794
0.090030
0.099584
0.146601
0.096313
0.042358
0.129648
0.130851
0.019830
0.073150
0.097574
0.074410
0.066964
0.057944
0.084340
0.115278
0.045286
0.125666
0.074019
0.096495
0.049802
0.043976
0.128842
0.147273
0.050180
0.077278
0.032011
0.035302
0.112768
0.085159
0.174306
0.114323
0.035913
0.098029
0.092444
0.066568
0.094909
0.072566
0.039340
0.119478
0.123915
0.091031
0.156843
-0.012204
0.127347
0.044621
0.075186
0.059433
0.109899
0.062051
0.162983
0.190587
0.084306
0.066227
0.103833
0.143008
0.058000
0.077418
0.169484
0.165335
0.097436
0.145968
0.166634
0.132997
0.162736
0.078440
0.196300
0.207736
0.254834
0.155105
0.279252
0.166722
0.242237
0.171947
0.254698
0.263190
0.283828
0.235372
0.218627
0.264221
0.239417
0.169437
0.271457
0.320877
0.166770
0.167715
0.218907
0.220312
0.140609
0.160911
0.136257
0.050659
0.142373
0.149421
0.140294
0.192502
0.117509
0.010650
0.091923
0.124201
0.099255
0.012338
0.058822
0.093187
0.062292
0.030896
0.070669
0.069142
0.124706
0.058837
0.189636
-0.020681
-0.020672
0.007685
0.031025
0.021815
0.215106
0.374538
0.732500
1.007547
1.355362
1.445950
1.362025
1.099066
0.743331
0.429197
0.145254
-0.049131
-0.219836
-0.130290
-0.141628
-0.056379
0.029730
0.088748
0.003911
0.063873
0.069843
0.082595
0.019502
0.095849
0.088273
0.133132
0.091589
0.119904
0.109091
0.122724
0.102305
0.203710
0.188810
0.139830
0.197655
0.213913
0.282741
0.265119
0.272362
0.234849
0.292083
0.382842
0.269628
0.272623
0.349423
0.396866
0.404113
0.403599
0.521112
0.417688
0.485984
0.491881
0.485040
0.514943
0.590737
0.533410
0.480693
0.451415
0.519564
0.544648
0.566485
0.514438
0.599260
0.499972
0.453870
0.476900
0.463413
0.454671
0.534496
0.381595
0.422510
0.499784
0.308387
0.392883
0.350263
0.279745
0.282001
0.260353
0.308894
0.299895
0.258659
0.213287
0.188276
0.172740
0.172561
0.158283
0.123957
0.182993
0.089593
0.138113
0.113060
0.135075
-0.012005
0.108800
-0.011255
0.080103
0.032067
0.038148
0.033780
0.072483
0.068258
0.062068
0.045170
-0.003706
0.007779
-0.054508
0.018283
-0.023704
-0.045968
-0.012794
-0.005104
0.015856
0.086754
0.109600
0.068132
-0.029604
-0.020051
0.056269
0.056888
-0.039598
0.017565
0.027764
0.048487
-0.024068
0.025919
-0.051157
-0.002958
-0.015966
-0.060995
0.008398
-0.013350
0.045617
-0.006508
0.030317
0.033268
-0.045143
-0.042126
-0.068269
-0.113799
-0.029368
-0.021412
0.055867
0.011039
-0.079982
-0.041039
-0.038552
-0.023637
0.020024
0.037846
-0.068373
-0.054782
0.018528
0.094153
-0.020096
0.033320
0.037246
0.102505
0.015274
0.065620
0.009626
0.101853
-0.018135
0.090470
0.024427
0.034978
0.083777
0.118135
0.038944
0.192566
0.212632
0.084690
0.164552
0.191633
0.139355
0.102662
0.212592
0.127058
0.152216
0.166012
0.197206
0.126969
0.180472
0.053703
0.056818
0.091358
0.120936
0.057704
0.109289
0.026923
0.043234
0.009341
0.063782
0.060096
0.010674
-0.057070
-0.017541
-0.005582
-0.026674
-0.030507
0.039766
-0.089659
-0.130364
-0.033125
-0.076239
-0.017947
0.020150
0.002938
-0.036566
0.029956
-0.047336
-0.055215
-0.058101
-0.135720
-0.002209
0.062145
0.212600
0.533969
0.862351
1.161078
1.323746
1.254076
1.117799
0.737340
0.491905
0.159846
-0.159894
-0.309758
-0.277438
-0.185390
-0.169137
-0.104851
-0.083545
-0.110507
-0.046478
-0.035378
-0.045695
-0.055340
-0.012820
0.016735
-0.007751
0.021697
0.073413
0.000816
0.158173
0.102297
0.123210
0.031612
0.100599
0.111612
0.089668
0.116655
0.077937
0.211336
0.220198
0.132340
0.244902
0.208836
0.272598
0.178234
0.282270
0.346249
0.360631
0.290122
0.369316
0.369481
0.442328
0.428609
0.434957
0.483847
0.365407
0.406326
0.439620
0.401935
0.482580
0.480971
0.448186
0.478684
0.488200
0.434774
0.353609
0.413654
0.383596
0.324699
0.318426
0.348564
0.339289
0.337035
0.326116
0.262412
0.166285
0.305890
0.176307
0.156856
0.144766
0.137421
0.069113
0.025140
0.122333
0.080295
0.062421
0.036180
0.031828
0.042374
0.057118
0.050847
-0.034842
0.094061
-0.006229
-0.050390
-0.079619
-0.043421
-0.061563
-0.047023
-0.050985
-0.027438
-0.033231
-0.027471
0.022246
-0.034675
0.017473
0.008265
-0.023667
-0.020922
0.002904
-0.021433
0.023440
0.042646
-0.044404
-0.041127
-0.022413
0.002596
-0.032682
-0.011004
-0.051037
0.009007
-0.038101
-0.117094
0.053802
-0.064944
-0.032487
-0.042333
0.011818
-0.083909
0.031187
0.025803
-0.026248
0.029766
0.008673
0.004557
-0.005833
-0.082928
-0.034152
-0.038346
-0.035820
-0.057438
-0.050903
-0.012246
-0.008050
0.036099
0.010708
-0.028453
0.011470
-0.045865
-0.103466
-0.063085
0.022041
0.006743
-0.030756
-0.059149
-0.011620
0.035743
0.000315
-0.043197
0.083002
-0.032394
0.017737
0.076853
0.014897
0.035227
0.045607
0.048637
0.057077
0.046185
0.137429
0.133466
0.145325
0.193860
0.165168
0.109290
0.193955
0.106227
0.178849
0.096466
0.208157
0.160680
0.162368
0.164217
0.172838
0.099943
0.093943
0.113935
0.058000
0.151037
0.088933
0.066036
0.049350
0.082759
0.057636
0.078087
0.075729
0.003842
-0.000882
0.003940
-0.016496
0.031158
0.046222
-0.024725
-0.005924
0.027338
0.004197
-0.017709
0.043315
0.010236
-0.027866
0.027893
-0.036895
-0.015413
-0.025022
0.157393
0.233753
0.513075
0.786505
1.135428
1.446327
1.298877
1.192406
0.870108
0.624702
0.190800
0.046792
-0.140102
-0.355490
-0.251398
-0.073568
-0.048691
-0.046365
0.038846
-0.006646
0.027051
0.010755
0.024353
0.068137
0.081300
0.071105
0.123958
0.087097
0.151529
0.082317
0.108689
0.093044
0.120910
0.144642
0.115762
0.152022
0.159877
0.231725
0.252828
0.245033
0.249845
0.244589
0.308437
0.332250
0.360783
0.379591
0.409037
0.397001
0.323257
0.463792
0.438068
0.407483
0.482136
0.488602
0.504856
0.559617
0.630250
0.556842
0.536178
0.605524
0.522186
0.543822
0.499882
0.547541
0.508632
0.455830
0.474907
0.519658
0.499555
0.423499
0.441230
0.458895
0.403801
0.456006
0.372848
0.258955
0.319021
0.334832
0.267183
0.269434
0.196726
0.194208
0.179359
0.214342
0.165850
0.185825
0.112857
0.156944
0.109015
0.110885
-0.002727
0.113317
0.158075
0.108885
0.137355
0.160256
0.171900
0.117703
0.115331
0.154869
0.035605
0.042630
0.114234
0.083810
0.158897
-0.025843
0.082295
0.161814
0.012369
0.086592
0.070886
0.094882
-0.001451
0.077765
0.019854
0.078748
0.023833
0.095572
0.176155
-0.000183
-0.023638
0.099800
0.083883
0.073743
0.138263
0.078863
0.020595
0.086303
0.157060
0.070850
0.078181
0.021189
0.086962
0.066164
0.161116
0.027634
0.036934
0.060127
0.095308
0.069135
0.058339
0.097904
0.134611
0.087508
0.166006
0.103780
0.111035
0.077299
0.177025
0.034980
0.070202
0.113685
0.081402
0.090722
0.178098
0.062415
0.111244
0.211542
0.079049
0.130092
0.147916
0.219595
0.119400
0.153333
0.116827
0.119131
0.134321
0.192367
0.151587
0.124203
0.233762
0.238596
0.247151
0.229218
0.252881
0.230162
0.243276
0.215760
0.274876
0.264534
0.208918
0.209426
0.295201
0.179383
0.183394
0.228960
0.244319
0.213807
0.201124
0.138522
0.166710
0.133794
0.236445
0.135850
0.129020
0.145930
0.128831
0.088763
0.119137
0.071637
0.118867
0.015956
-0.033949
0.089223
0.160989
0.048940
0.100123
0.082328
0.154203
0.007812
0.094042
0.022805
-0.012278
0.091112
0.068232
0.317046
0.474142
0.753027
1.035769
1.424736
1.458035
1.425727
0.991188
0.734148
0.390017
0.122170
-0.103721
-0.209031
-0.089574
-0.128494
-0.049822
0.060690
0.058365
0.148612
0.103248
0.096183
0.120483
0.024824
0.131451
0.102839
0.076323
0.138962
0.063803
0.173987
0.207778
0.188420
0.181870
0.125200
0.160280
0.214747
0.212760
0.207699
0.303924
0.313882
0.210383
0.340437
0.313929
0.365939
0.372857
0.404254
0.387563
0.434807
0.517668
0.477726
0.486192
0.471476
0.668259
0.535908
0.525982
0.547195
0.580914
0.584023
0.544337
0.590816
0.588153
0.585577
0.622569
0.531877
0.519684
0.500827
0.472425
0.502507
0.476042
0.448551
0.465450
0.464332
0.425016
0.364020
0.384336
0.373031
0.364313
0.330110
0.297954
0.282149
0.233927
0.235856
0.303453
0.229168
0.158185
0.223639
0.228734
0.160527
0.134877
0.156416
0.088665
0.181609
0.106178
0.157847
0.086777
0.093344
0.121055
0.059911
0.080758
-0.001399
0.017303
0.110638
0.111484
0.079943
0.097191
0.109714
0.055078
0.030836
0.048950
0.019051
0.026716
0.075273
0.044479
0.129511
0.112928
0.054903
0.038386
0.103255
0.084900
0.042333
0.055729
0.023634
0.043567
0.063283
0.007247
0.059234
0.049941
0.092622
0.011351
0.078980
0.063572
-0.003572
0.081967
-0.004756
-0.000914
0.023221
0.009383
0.093550
0.037589
0.037183
0.126834
0.086704
0.033012
0.061641
0.106036
0.100770
0.084506
-0.010080
0.018880
0.032259
0.088450
0.040504
0.062466
0.095450
0.002738
0.021920
0.012952
0.109048
0.070459
0.005020
0.096151
0.113991
0.032265
0.045917
0.119743
0.027312
0.086953
0.123490
0.113056
0.139364
0.154170
0.145653
0.230170
0.210691
0.132010
0.197018
0.205477
0.199705
0.188923
0.107849
0.268574
0.180925
0.154802
0.108896
0.112912
0.197220
0.147975
0.210438
0.079629
0.127529
0.081287
0.015038
0.063222
0.029047
0.038800
0.041919
0.088678
0.055678
0.089215
0.061464
-0.045310
0.014187
0.051109
0.027380
-0.007700
-0.064510
0.045262
0.019008
-0.057637
0.054381
0.016810
-0.075360
-0.055259
-0.088661
-0.065890
0.135031
0.401248
0.661490
0.928170
1.222319
1.379269
1.272177
1.137068
0.697889
0.357850
0.035124
-0.060278
-0.270434
-0.262373
-0.186469
-0.128209
-0.079556
0.002504
0.000508
0.031638
-0.014046
0.064758
-0.026724
0.006249
-0.039478
0.013182
-0.018429
-0.034406
0.060905
-0.009582
0.034724
-0.010840
0.108718
0.046142
0.141042
0.130028
0.171819
0.126382
0.114672
0.121866
0.201262
0.189298
0.276087
0.294313
0.292846
0.270535
0.219977
0.311391
0.329260
0.455550
0.406362
0.375868
0.397667
0.493345
0.475960
0.514981
0.410142
0.476128
0.497234
0.477627
0.507952
0.416062
0.466755
0.463304
0.375687
0.428107
0.420785
0.375875
0.364764
0.388722
0.355948
0.304941
0.288257
0.184418
0.245474
0.192308
0.157537
0.135211
0.165260
0.105889
0.092375
0.120422
0.100956
0.171837
0.106087
0.075491
0.158112
-0.007605
0.040758
-0.033023
-0.073845
0.009440
0.018063
-0.010437
-0.032310
-0.060840
-0.111358
-0.002900
-0.044281
-0.101460
-0.059475
-0.089713
-0.039517
-0.061054
-0.119076
-0.017171
-0.079068
-0.079630
-0.046405
-0.042087
0.047067
-0.043888
-0.097848
-0.059536
-0.039549
-0.113880
-0.108955
-0.120243
-0.043910
-0.104427
-0.041364
0.003807
-0.084067
-0.118835
-0.080089
-0.110445
-0.129089
-0.011775
-0.090566
-0.133510
-0.058266
-0.070237
-0.055239
-0.080268
-0.028493
-0.118190
-0.034207
-0.097321
0.031407
-0.086206
-0.085775
-0.059619
-0.037875
-0.110222
-0.111226
-0.039055
-0.062666
0.000004
-0.085174
-0.121172
-0.046828
-0.011762
-0.078463
-0.026456
-0.074524
-0.131968
-0.079599
0.012220
-0.055776
-0.105493
-0.012565
-0.047549
-0.048939
0.103227
0.042960
-0.032728
-0.007158
0.034314
0.036020
0.064473
0.079888
0.047640
0.097771
0.088273
0.057343
0.109208
0.134642
0.122720
0.128549
0.065594
0.019920
0.115308
0.036806
0.124392
0.050708
0.024631
0.062964
0.119016
-0.015393
0.037534
-0.022659
-0.082767
0.055787
0.035162
0.016519
-0.082039
-0.023912
-0.024742
0.009146
-0.043263
-0.104960
-0.080164
-0.017088
-0.053930
-0.052830
-0.014794
-0.121697
-0.012120
-0.020886
-0.059010
-0.062841
-0.118480
-0.111785
-0.093287
0.020963
0.256637
0.570502
0.809844
1.078210
1.356931
1.308833
1.083638
0.793135
0.473465
0.105674
-0.126891
-0.255095
-0.303631
-0.287998
-0.242561
-0.111976
-0.132226
-0.144679
-0.142318
-0.023696
-0.017037
-0.107797
-0.062508
-0.068388
-0.045673
-0.070553
-0.055177
0.070401
0.038782
0.090526
-0.054979
0.001630
0.077074
0.001323
0.134384
0.062033
0.085381
0.115525
0.091236
0.203558
0.170039
0.173199
0.268007
0.250633
0.289445
0.281449
0.272218
0.425829
0.377342
0.402780
0.404488
0.391931
0.376382
0.420690
0.444843
0.424505
0.389101
0.413356
0.470169
0.392743
0.398900
0.487237
0.476573
0.419805
0.341550
0.407133
0.339841
0.399403
0.371042
0.297590
0.293935
0.220798
0.241111
0.233632
0.265509
0.180539
0.167803
0.083118
0.231113
0.077860
0.104060
0.107230
0.063393
0.033432
0.086154
0.051472
0.034160
0.021763
-0.017397
-0.026595
-0.038493
0.014096
0.029930
-0.086393
-0.060729
0.041844
0.014303
-0.057445
-0.013252
0.025077
-0.040207
-0.034258
-0.036945
-0.051737
-0.069826
-0.061711
-0.132267
0.031101
-0.022171
-0.056083
-0.007530
0.003292
-0.022122
-0.043563
-0.108468
-0.086172
-0.013245
-0.093940
0.027081
-0.067418
-0.100504
-0.033907
0.031825
-0.028942
-0.008690
-0.050937
-0.039726
0.003448
-0.046108
-0.032409
-0.043494
-0.003690
-0.045998
-0.107814
-0.055515
0.008567
0.014648
0.036345
0.009461
-0.033720
0.044538
-0.030878
-0.004629
0.066839
0.076464
-0.025794
-0.086965
-0.048497
-0.069811
-0.033377
0.054337
-0.045582
-0.026850
0.074907
-0.025873
0.031126
0.005056
0.067048
0.065306
0.034778
-0.008852
0.022567
-0.023977
0.020147
0.063084
0.055415
0.107148
0.138264
0.135814
0.207502
0.089492
0.203165
0.108429
0.208064
0.118023
0.157863
0.182783
0.228465
0.141043
0.073199
0.091995
0.180601
0.192463
0.099481
0.101386
0.046353
0.113369
0.020146
0.087657
0.080555
0.080729
0.068940
0.031623
0.090404
0.097749
-0.009567
0.045168
-0.030828
-0.009470
0.073160
0.058631
0.011033
0.060861
-0.039112
-0.006437
0.030673
0.035667
-0.007365
-0.052759
-0.020429
0.024966
-0.073930
0.024320
0.083888
0.201468
0.515235
0.717828
1.073020
1.299098
1.375023
1.246381
0.988357
0.588705
0.223100
0.021712
-0.119765
-0.199158
-0.211082
-0.209323
-0.005926
-0.086120
0.008812
0.099859
0.032875
0.075611
0.168511
0.016039
0.079708
0.068713
0.159378
0.092205
0.135840
0.125035
0.140749
0.060826
0.115684
0.148267
0.102467
0.132263
0.142064
0.144079
0.242201
0.282408
0.248784
0.209292
0.313470
0.290741
0.318814
0.298423
0.374543
0.495044
0.414437
0.455634
0.454358
0.427561
0.422610
0.442456
0.464776
0.533713
0.525522
0.526005
0.546189
0.453754
0.510712
0.608672
0.531979
0.535815
0.601313
0.475056
0.540938
0.498990
0.531756
0.440148
0.464708
0.388547
0.338923
0.417934
0.422085
0.347908
0.333566
0.395522
0.283245
0.378645
0.228077
0.229497
0.185449
0.185366
0.087742
0.190066
0.179459
0.152154
0.140182
0.160637
0.161876
0.119091
0.098449
0.118254
0.096862
0.036490
0.134868
0.118891
0.063217
0.053641
0.074008
0.002020
0.152642
0.082191
0.086830
0.051403
0.065464
0.115606
0.036861
0.026424
0.061260
0.002500
0.126917
0.109119
-0.059936
0.085202
0.077559
0.076756
0.076436
0.021387
0.106075
0.059500
0.125287
-0.000976
0.012650
-0.025806
0.014656
0.027516
0.049397
0.027152
0.073927
0.024268
0.048816
0.017430
0.055114
0.000185
0.109860
0.006037
0.138847
0.067896
0.066997
0.092520
-0.002439
-0.019651
-0.018663
0.001693
-0.017193
0.026361
-0.001429
0.068466
-0.010000
0.044173
0.072239
0.058368
0.031887
0.020904
0.115678
0.019810
0.167978
0.110040
0.157061
0.082556
0.164173
0.113639
0.113819
0.024814
0.158687
0.055684
0.218749
0.107153
0.135280
0.215481
0.175837
0.198233
0.232693
0.146564
0.261908
0.179182
0.230966
0.197204
0.226940
0.173529
0.203662
0.199366
0.173098
0.150247
0.135495
0.063639
0.051414
0.035132
0.044485
0.108094
0.015851
0.154964
0.137888
0.027145
0.067519
0.070776
0.017598
0.097047
0.062908
0.024136
0.023823
0.017473
0.106644
0.018251
0.001904
0.016609
-0.060694
-0.021227
-0.065507
-0.030594
-0.073435
-0.030343
0.047492
0.236075
0.389996
0.708769
1.041837
1.289238
1.399556
1.269552
1.060572
0.744993
0.422509
0.033127
-0.097273
-0.218430
-0.266343
-0.112661
-0.013082
-0.018628
0.038775
0.035181
0.130104
-0.056153
0.080112
0.103394
-0.022342
0.041233
0.029852
0.048052
-0.007074
0.086792
0.163813
0.045753
0.087950
0.128192
0.189128
0.122290
0.153286
0.074360
0.123288
0.127613
0.166233
0.165734
0.272545
0.326886
0.335662
0.428192
0.390184
0.383203
0.396495
0.394115
0.349321
0.454751
0.417674
0.446075
0.451100
0.457033
0.447814
0.470290
0.478663
0.434580
0.490588
0.520382
0.538145
0.543548
0.515817
0.488852
0.449309
0.512784
0.392027
0.317047
0.371451
0.311397
0.367402
0.291407
0.340946
0.260599
0.246623
0.255334
0.250110
0.169845
0.174831
0.138226
0.113807
0.097173
0.051766
0.129001
0.103468
0.078092
0.076714
0.009797
0.031072
0.004185
-0.081204
0.036745
-0.006198
0.081156
-0.008851
0.013111
-0.056479
0.002143
-0.028904
0.001750
0.004790
-0.127278
-0.014534
-0.035650
-0.053363
-0.033694
-0.115461
-0.038557
-0.076254
-0.004908
0.015756
-0.075388
-0.019222
0.001348
0.011356
-0.058506
0.036236
-0.019335
-0.077868
-0.088773
-0.045595
-0.054750
-0.059180
-0.055252
-0.049260
0.015851
-0.025112
-0.006812
-0.096134
-0.123472
-0.043746
0.040931
-0.086926
-0.078136
-0.086024
-0.003646
-0.034037
0.008796
-0.056156
-0.013238
-0.085105
0.006858
-0.036687
-0.070488
-0.072973
-0.076869
-0.124739
0.017536
-0.125853
-0.020468
0.071888
-0.156754
-0.042626
-0.063222
-0.012749
-0.018463
-0.068480
-0.001997
0.027156
-0.005685
-0.031334
0.032495
-0.037480
0.039044
0.136708
0.009283
0.115816
0.006226
0.100779
0.145842
0.163032
0.081868
0.098588
0.042744
0.124786
0.066369
0.080341
0.118011
0.063078
0.188832
0.067695
0.073512
0.048400
-0.093239
-0.003186
0.112476
-0.008546
-0.029337
0.019717
0.010429
-0.012670
-0.021023
-0.031084
-0.062297
-0.013984
-0.014816
-0.141618
-0.053524
-0.047211
-0.054784
-0.093599
-0.001905
-0.098278
-0.057097
-0.069804
-0.096831
-0.105786
-0.063481
0.036919
-0.124954
-0.154101
-0.089791
-0.095909
0.146833
0.201714
0.558112
0.900737
1.125802
1.223781
1.257325
1.046208
0.671804
0.324230
0.058518
-0.150859
-0.311895
-0.327542
-0.255248
-0.195964
-0.144525
-0.047742
-0.149432
-0.026499
-0.160724
-0.022217
-0.058225
-0.049598
-0.064762
-0.005321
0.007530
-0.069016
-0.054059
0.010570
0.017309
0.030694
-0.029538
0.036488
0.028278
0.056208
0.120693
0.076349
0.081963
0.144964
0.069693
0.171029
0.144604
0.127447
0.281661
0.304805
0.199114
0.229788
0.259274
0.359797
0.334875
0.315221
0.319034
0.314675
0.336118
0.396891
0.436459
0.447198
0.390314
0.408349
0.385106
0.401213
0.387235
0.313791
0.347931
0.372361
0.314264
0.397593
0.295193
0.317066
0.358956
0.199803
0.276900
0.228992
0.168686
0.196899
0.104715
0.176144
0.182891
0.121488
0.059374
0.102437
0.061348
0.048622
0.021659
0.023827
0.010149
-0.035314
0.008963
-0.069005
-0.031892
-0.083747
-0.036103
-0.108378
-0.044037
-0.137362
-0.078052
-0.106814
-0.057277
-0.083395
-0.119210
-0.169658
-0.058270
-0.025047
-0.064754
-0.039125
-0.030210
-0.096059
-0.127485
-0.087510
-0.114039
-0.050990
-0.101155
-0.143606
-0.071366
-0.173305
-0.042517
-0.027348
-0.075830
-0.014183
-0.053339
-0.160448
-0.061774
-0.136503
-0.038129
-0.129465
-0.020847
-0.033566
-0.108263
-0.068881
-0.056546
0.025662
-0.035516
-0.126563
-0.051597
-0.041643
-0.072160
-0.112972
-0.179874
-0.076161
-0.115505
-0.006334
-0.103464
-0.050255
-0.056674
-0.077520
-0.034799
-0.007986
-0.038039
-0.137241
0.011938
-0.036907
-0.067035
0.026287
-0.053880
-0.106157
0.025109
-0.080510
-0.057557
-0.116974
0.027062
0.023957
-0.037928
-0.026970
0.024331
-0.027373
0.014837
0.027759
0.052552
0.020810
0.083940
0.078136
0.105241
0.013826
0.107710
0.079071
0.098710
0.135272
0.074643
0.100354
0.133877
0.056208
0.040695
0.123298
0.090929
-0.010466
-0.013120
0.012311
0.004211
-0.058043
0.060533
0.042676
-0.037860
0.005617
-0.025542
0.022066
-0.039645
0.015043
0.056989
-0.116014
-0.032014
-0.018739
0.024585
-0.010182
-0.065984
-0.025314
-0.144649
-0.081873
-0.058542
-0.037176
-0.036322
-0.134016
-0.075268
-0.079289
-0.021565
0.137297
0.490849
0.758182
1.059794
1.300696
1.289309
1.202389
0.865234
0.591612
0.174511
-0.100988
-0.320775
-0.287307
-0.255116
-0.192105
-0.197160
-0.058789
-0.107859
0.002745
0.006504
-0.041262
-0.021349
-0.020806
0.053639
-0.035547
0.085121
-0.045431
0.003149
0.061899
0.033195
0.061609
0.110124
0.067437
0.134156
0.065916
0.133096
0.092739
0.166834
0.176361
0.185280
0.322744
0.256594
0.165826
0.281184
0.294455
0.298640
0.370654
0.319524
0.290487
0.486885
0.333081
0.410491
0.472893
0.425830
0.416608
0.525326
0.508424
0.515572
0.478722
0.428062
0.452586
0.490239
0.482540
0.480924
0.413597
0.473027
0.472825
0.395660
0.363178
0.338061
0.291954
0.324942
0.354205
0.333188
0.281907
0.303621
0.240531
0.262122
0.196430
0.136766
0.206367
0.140266
0.232338
0.075111
0.143419
0.112924
0.146182
0.077621
0.023954
0.117346
0.078306
0.101073
0.068997
0.000658
0.040433
-0.033691
0.011693
0.028680
0.006622
0.084148
0.010399
-0.017319
-0.027598
0.065409
0.064628
0.028305
-0.008593
0.046660
0.001227
0.015492
-0.056482
-0.018473
0.055151
0.035878
-0.022789
0.056966
0.065681
-0.023923
0.061381
0.021327
0.047783
0.076782
0.010709
-0.009646
0.073364
-0.012711
0.018658
0.015140
0.030624
0.042381
0.075407
0.056534
0.071369
-0.015847
0.068296
0.041131
0.019572
-0.056209
-0.011309
0.022819
0.027895
0.104226
0.010079
0.093390
0.022311
0.098259
0.044289
0.047438
0.060637
0.030582
-0.036833
0.032019
0.088548
0.051056
0.072492
0.067064
0.099832
0.143379
0.022437
0.175216
0.118274
0.070576
0.046798
0.064223
0.141718
0.112538
0.116699
0.236476
0.179752
0.206758
0.186849
0.243809
0.193786
0.166407
0.276108
0.226054
0.278627
0.233747
0.195334
0.191309
0.209684
0.241584
0.142746
0.243614
0.199951
0.196349
0.144219
0.166299
0.057897
0.068020
0.258988
0.163096
0.010742
0.054726
0.103714
0.058615
0.101057
0.124691
0.039048
0.066975
0.044496
0.062760
-0.025998
0.049681
0.085765
0.057018
0.024734
0.082411
0.109287
0.075884
0.042382
0.065068
0.023121
0.074852
0.307282
0.472553
0.769621
1.152565
1.270882
1.500000
1.397830
1.095490
0.747171
0.417760
0.103930
-0.101670
-0.199503
-0.130447
-0.174067
-0.038398
0.009690
0.029794
0.093940
0.061853
0.097791
0.015149
0.155914
0.119144
0.173246
0.139510
0.072367
0.138711
0.111469
0.197094
0.127070
0.152711
0.128938
0.132504
0.196408
0.241112
0.223396
0.270447
0.266110
0.310580
0.305903
0.440376
0.352905
0.326977
0.393641
0.406514
0.388500
0.416278
0.425254
0.403702
0.462951
0.518268
0.514955
0.612965
0.513642
0.504968
0.506387
0.616014
0.595083
0.664515
0.579925
0.581588
