-0.007255
0.069248
-0.004488
-0.033676
0.053940
-0.058661
-0.002041
-0.021173
-0.010482
0.031617
0.027423
0.037862
0.012568
0.020036
0.005130
-0.041292
-0.001435
0.051050
0.009284
0.022445
0.056640
0.034392
0.022045
-0.001805
0.082548
0.077327
0.034384
0.010488
0.132115
0.070046
0.145678
0.140250
0.134419
0.117293
0.116051
0.133866
0.156916
0.314371
0.202784
0.216789
0.156288
0.215815
0.190214
0.227789
0.126151
0.226294
0.213227
0.211635
0.183167
0.148188
0.130969
0.130259
0.163564
0.113851
0.117866
0.019654
0.115469
0.130919
0.048347
0.093911
-0.031270
0.152493
0.058745
0.093858
0.094009
0.056557
0.006185
0.078070
-0.001671
0.039072
0.079474
0.037635
0.039060
0.099051
0.066824
0.071619
0.038350
-0.083436
0.046094
0.051695
0.321727
0.644284
0.891842
1.187597
1.403419
1.432076
1.276602
0.988002
0.645440
0.273768
-0.013778
-0.204744
-0.237834
-0.096782
-0.047824
-0.089051
0.060322
0.007194
0.048580
0.051800
0.125976
0.173490
0.077692
0.080099
0.152066
0.096641
0.107464
0.119545
0.170365
0.202303
0.153869
0.201656
0.121670
0.188573
0.312768
0.228826
0.213544
0.276651
0.226137
0.380911
0.363282
0.363049
0.338404
0.321472
0.395815
0.366860
0.529952
0.398988
0.537662
0.606064
0.596723
0.545958
0.539987
0.588720
0.513469
0.598746
0.538346
0.552936
0.591616
0.656233
0.596108
0.582703
0.521749
0.564902
0.508744
0.583529
0.465892
0.515754
0.421375
0.496629
0.480781
0.420288
0.411078
0.343872
0.315794
0.346141
0.310536
0.271925
0.309448
0.298240
0.230027
0.236181
0.254734
0.178579
0.265581
0.231038
0.231506
0.190491
0.231646
0.110147
0.148035
0.136573
0.141236
0.101452
0.151056
0.169586
0.112390
0.047443
0.024341
0.080549
0.020197
0.197291
0.076774
0.118795
0.063602
0.092041
0.192537
0.096694
0.102279
0.119712
0.053624
0.056518
0.095246
0.172608
0.157908
0.060155
0.078053
0.112103
0.053314
0.100241
0.065101
0.074950
0.077920
0.128828
0.033084
0.092001
0.112454
0.130900
0.071903
0.023706
0.024740
0.041558
0.032132
0.143485
0.094757
0.080185
0.019039
0.088399
0.208881
0.085319
0.019755
0.128283
0.064783
0.027009
0.154880
0.027159
0.010211
0.149330
0.090808
0.149543
0.087040
0.110691
0.133654
0.099151
0.080520
0.084116
0.139880
0.034147
0.200776
0.151016
0.200051
0.094780
0.167987
0.197467
0.250731
0.134812
0.105157
0.266149
0.228802
0.224390
0.312958
0.289980
0.313442
0.226011
0.224602
0.253129
0.209349
0.295806
0.235422
0.283093
0.157852
0.229904
0.142266
0.195158
0.194960
0.164894
0.145963
0.099385
0.068380
0.109909
0.104471
0.076076
0.146663
-0.001134
0.086846
0.022296
0.152969
0.039832
0.115562
0.098691
0.127930
0.004392
0.148827
0.136422
0.073302
0.131039
0.071272
-0.040791
-0.015096
0.101630
0.049208
0.215944
0.507988
0.847626
1.150955
1.411525
1.500000
1.306800
1.109467
0.732350
0.336681
0.061966
-0.120000
-0.159590
-0.133569
-0.038450
-0.051076
0.015051
-0.000141
0.053416
0.131451
0.064689
0.099984
0.101222
0.054812
0.142642
0.124169
0.130291
-0.003079
0.156970
0.192507
0.143961
0.208973
0.225094
0.168242
0.160879
0.201029
0.291451
0.230594
0.305854
0.408878
0.276371
0.260093
0.379443
0.363625
0.407620
0.520515
0.518360
0.360826
0.503812
0.482797
0.478552
0.552307
0.564730
0.537019
0.547252
0.583042
0.598699
0.583537
0.457616
0.548112
0.572724
0.514037
0.488954
0.550461
0.409652
0.550490
0.472391
0.434837
0.421172
0.460704
0.441783
0.408468
0.395989
0.373070
0.318663
0.238566
0.217008
0.257420
0.256938
0.270409
0.217079
0.162736
0.195176
0.115253
0.116427
0.109983
0.119318
0.096618
0.144467
0.150376
0.105100
0.004090
0.098181
0.071457
0.088858
0.069124
0.135536
-0.049398
0.147275
0.092840
-0.009171
0.025956
0.081546
0.053657
-0.030111
0.010681
0.129462
0.031720
-0.001939
0.042794
0.003273
0.038528
0.023099
-0.026031
-0.007790
0.014296
0.006950
-0.013197
0.008050
0.002912
-0.038623
0.048723
-0.069679
0.017568
0.067390
-0.023165
0.072439
-0.031499
-0.057719
-0.026409
0.027702
-0.012481
-0.024692
0.037069
-0.021267
-0.028316
0.009856
-0.051933
-0.053376
0.026443
-0.004625
-0.091678
-0.052074
0.024521
0.006986
-0.004479
-0.036346
-0.019045
-0.036211
0.018273
-0.002747
-0.034264
-0.002424
-0.027962
0.079454
0.059021
0.000263
0.034890
0.067926
-0.031078
0.055552
0.163436
0.079372
0.078275
0.106248
0.118417
0.102411
0.140662
0.169712
0.105652
0.181860
0.076148
0.197412
0.162655
0.082892
0.146048
0.176933
0.237079
0.086801
0.071819
0.086603
0.242254
0.201862
0.123761
0.054187
0.089253
0.145266
-0.042757
0.055468
0.125422
0.061247
0.017721
0.061971
-0.060220
-0.069997
-0.025575
-0.052273
-0.011543
-0.050949
0.024991
0.015810
0.043324
-0.066150
-0.063305
-0.042665
-0.030335
-0.148360
-0.000356
-0.014976
-0.009579
-0.001600
0.140481
0.385216
0.621311
0.921718
1.202799
1.355025
1.350597
1.094475
0.732673
0.391934
0.075188
-0.195545
-0.323723
-0.329558
-0.200399
-0.206353
-0.058707
-0.012956
-0.047515
0.009794
0.015934
-0.060633
0.021868
0.035787
0.021193
-0.020009
0.027742
0.045313
-0.038293
0.082463
0.063468
0.060991
0.032711
0.105217
0.096774
0.106835
0.171107
0.108086
0.175241
0.211728
0.140241
0.198676
0.267559
0.257059
0.284912
0.280171
0.391207
0.410508
0.364751
0.424144
0.356371
0.437135
0.538030
0.475807
0.444058
0.485433
0.433522
0.453392
0.476245
0.375209
0.514143
0.550061
0.473880
0.422097
0.422422
0.409135
0.433171
0.340098
0.377354
0.304309
0.388951
0.405061
0.302973
0.269693
0.265672
0.281774
0.224176
0.181632
0.236006
0.061716
0.075000
0.075614
0.137964
0.075954
0.097094
0.053089
0.010082
0.018057
-0.078411
0.057103
-0.010830
0.073648
-0.039299
-0.025582
-0.056755
0.008003
-0.011476
0.080378
-0.009340
-0.006494
-0.046061
-0.057911
-0.007896
-0.025705
-0.061562
-0.043878
-0.067371
-0.083637
-0.102734
-0.064822
-0.077594
-0.041043
-0.066244
0.004557
-0.044579
-0.071741
-0.046666
0.022640
-0.052315
-0.129996
-0.130979
0.000560
-0.030326
-0.122543
-0.033660
-0.072114
-0.049631
-0.034066
-0.037286
0.017271
-0.011034
0.011970
-0.011733
-0.032915
-0.046680
-0.038719
-0.072204
0.011419
0.045995
-0.029323
-0.090011
-0.098875
-0.005281
-0.003518
-0.036952
-0.071805
-0.056485
-0.029389
-0.080628
-0.000070
-0.068367
-0.034067
0.013627
0.006103
0.065583
0.009788
0.014532
0.043135
0.004729
0.054382
0.045838
0.020519
0.047190
0.057072
0.088607
0.110173
0.119090
0.001631
0.149746
0.191572
0.162180
0.129081
0.125875
0.198532
0.129042
0.164677
0.142619
0.117364
0.124605
0.147891
0.198836
0.203859
-0.017148
0.057061
0.029179
0.121901
0.084473
0.069447
0.122932
0.038460
0.039443
0.088095
-0.033680
-0.036581
-0.005843
-0.042983
0.018284
0.051733
0.033198
-0.059456
0.045594
-0.048630
0.023836
0.002494
-0.045775
-0.006937
-0.032634
-0.042993
0.018493
-0.055498
0.010071
0.118463
0.210984
0.602028
0.895828
1.244146
1.396687
1.376254
1.246937
0.821749
0.572730
0.143311
-0.106019
-0.216496
-0.209951
-0.205731
-0.148907
-0.196080
-0.048334
0.017462
0.139529
0.034790
-0.021795
0.118256
0.051436
0.041969
0.078166
0.036263
0.075927
0.144040
0.007443
0.089257
0.128127
0.180897
0.145020
0.112505
0.199999
0.208376
0.177874
0.268810
0.186751
0.277193
0.278927
0.330734
0.337403
0.330211
0.432808
0.431135
0.379778
0.548931
0.473563
0.450926
0.518310
0.510376
0.457395
0.552189
0.587002
0.580909
0.507145
0.612837
0.598694
0.486329
0.580654
0.557724
0.467439
0.513847
0.472540
0.576315
0.533691
0.427934
0.473400
0.423460
0.439844
0.364258
0.272371
0.365158
0.344134
0.339328
0.313687
0.319680
0.221595
0.270136
0.132734
0.189649
0.200168
0.166543
0.296987
0.127180
0.231135
0.121512
0.106023
0.137317
0.060025
0.169949
0.080614
0.076207
0.074121
0.123777
0.060335
0.162622
0.083058
0.026799
0.002823
0.052740
0.050886
-0.000342
0.041150
0.021578
0.060084
0.175976
0.050039
0.067419
0.014422
0.112232
-0.001537
0.054154
0.048278
0.083344
0.068140
0.070687
0.131842
0.054773
0.061841
0.113836
0.085556
0.089648
-0.001885
0.037589
0.086887
0.083203
0.101616
0.012308
0.062347
0.122917
0.112579
0.113247
0.109214
0.075605
0.060006
0.093312
0.071605
0.155811
0.056306
0.045982
0.067286
0.094639
0.065784
0.134466
0.118897
0.112348
0.060897
0.143809
0.131499
0.099228
0.007616
0.052486
0.140832
0.169115
0.143457
0.197857
0.093054
0.162642
0.152896
0.134198
0.163822
0.215132
0.176192
0.177859
0.256716
0.165134
0.194657
0.282508
0.212140
0.286154
0.286688
0.248065
0.358332
0.255772
0.296397
0.289809
0.280997
0.264505
0.239401
0.194074
0.228263
0.174250
0.233356
0.138744
0.194310
0.182185
0.172184
0.132786
0.120823
0.125272
0.117172
0.049206
0.066810
0.122542
0.058327
0.050187
0.147719
0.110951
0.077737
0.066907
0.088744
0.036883
0.086970
0.047736
0.072645
0.098864
0.090669
0.021478
0.094166
0.340515
0.491941
0.945276
1.421592
1.379439
1.462445
1.283427
1.032413
0.680129
0.331721
0.049778
0.002550
-0.221657
-0.106705
-0.059321
-0.010144
0.069752
0.121548
0.080049
0.206806
0.081044
0.018550
0.121360
0.212545
0.117246
0.129292
0.168689
0.113894
0.167014
0.179814
0.070204
0.131070
0.206791
0.249575
0.247394
0.199272
0.246080
0.315090
0.251930
0.285071
0.442992
0.353501
0.423767
0.374048
0.536462
0.434702
0.551016
0.464087
0.527612
0.521621
0.520000
0.586329
0.603930
0.554460
0.587606
0.585975
0.608803
0.611200
0.590026
0.648964
0.505835
0.589070
0.540927
0.523120
0.578786
0.522638
0.545613
0.529388
0.453097
0.463464
0.354954
0.262187
0.439194
0.395659
0.400153
0.327353
0.367483
0.306785
0.327906
0.231240
0.194630
0.199120
0.180063
0.162650
0.241518
0.212151
0.118199
0.136634
0.076429
0.195564
0.101187
0.117711
0.098297
0.161626
0.090695
0.179747
0.090931
0.148195
0.094913
0.091749
0.043785
0.055473
0.119408
0.034323
-0.020647
0.068019
0.074797
0.158891
0.016745
0.045988
0.027815
0.089621
0.081292
0.090803
-0.014131
0.030098
0.060434
0.032632
-0.015375
0.126998
0.106477
-0.003647
0.037532
-0.004855
0.031423
0.069600
0.134279
0.105337
0.049105
0.071113
0.137050
0.029847
0.091148
0.114168
0.103818
0.004971
0.114455
0.085321
-0.042477
0.086010
0.058732
0.069560
-0.027902
0.060182
0.070757
0.072141
0.060644
0.043914
0.016874
0.082984
0.061255
0.015684
0.139495
0.053772
0.012504
0.073443
0.063472
0.030265
0.126459
0.007687
0.164320
0.230190
0.028426
0.150879
0.135333
0.241611
0.125242
0.215861
0.138616
0.184723
0.212597
0.208341
0.091571
0.242994
0.301098
0.191158
0.127701
0.230895
0.221213
0.185079
0.130494
0.126013
0.075405
0.099336
0.168547
0.073095
0.080416
0.080056
0.046243
0.043409
0.123312
0.094139
0.072179
-0.001714
0.092156
0.097800
0.013717
-0.004866
-0.013573
-0.077334
0.014535
0.049586
0.001393
0.048159
0.058083
0.033151
0.039226
-0.033309
0.003507
-0.085119
0.017588
0.228891
0.441193
0.761576
1.132097
1.298272
1.358659
1.325547
1.141009
0.766318
0.311941
0.026595
-0.168100
-0.250344
-0.266788
-0.222855
-0.116493
-0.083277
-0.034429
0.069163
0.039032
-0.003361
0.068519
0.016780
0.011233
0.074358
0.086275
0.111717
0.097218
0.023457
0.056845
0.067846
0.007886
0.192336
0.116685
0.221617
0.203408
0.208335
0.141924
0.135344
0.277684
0.255835
0.292821
0.266366
0.284920
0.278673
0.249139
0.402548
0.459332
0.450886
0.462417
0.495239
0.429141
0.406287
0.462339
0.416767
0.534118
0.476402
0.506796
0.430546
0.502170
0.416798
0.473774
0.411258
0.488675
0.440263
0.385095
0.462239
0.326705
0.313973
0.351126
0.377412
0.252253
0.270071
0.285761
0.284889
0.222109
0.244445
0.224215
0.163576
0.134709
0.129956
0.106271
0.083834
0.133785
0.154625
0.036416
0.086239
-0.014021
-0.023852
-0.059497
0.046828
-0.027852
0.029858
-0.021299
-0.010245
-0.100696
-0.039786
-0.129812
-0.006401
-0.048745
-0.026302
-0.002533
-0.086876
-0.074916
-0.051864
-0.078148
-0.102360
-0.088707
-0.087896
-0.027991
-0.020271
-0.059234
-0.076509
-0.011387
-0.021368
-0.082167
-0.050187
-0.036995
-0.089287
-0.109267
-0.074399
-0.060503
-0.065434
-0.115059
-0.110707
-0.034679
-0.015154
0.032450
-0.078606
-0.065091
-0.050722
-0.055265
-0.073711
-0.048486
-0.070419
-0.070111
-0.040656
-0.054824
-0.140447
-0.048470
-0.018744
-0.088313
-0.068930
-0.055736
-0.050543
-0.040722
-0.171408
-0.129696
-0.066320
-0.113195
-0.052574
-0.119832
-0.121656
0.021677
-0.032444
0.024527
0.009517
-0.005972
-0.068075
0.023661
0.034536
0.029001
-0.014933
0.057392
0.061948
0.021633
0.129430
0.062322
0.115695
0.056677
0.065524
0.036077
0.103304
0.061649
0.180337
0.168204
0.081168
0.086010
0.094886
0.134115
0.033785
0.005641
0.065622
0.092739
0.024923
-0.014024
0.098642
-0.013166
0.023583
-0.035517
-0.048058
-0.070315
-0.079625
-0.110456
-0.030980
-0.063576
-0.081091
-0.038864
-0.080620
-0.072898
-0.091307
-0.000287
-0.077287
-0.021185
-0.090016
-0.061224
-0.077706
-0.094700
-0.088038
-0.086418
-0.003280
0.021960
0.255713
0.620858
0.968521
1.213662
1.323918
1.352950
1.032668
0.752498
0.341303
-0.060143
-0.257856
-0.263422
-0.399156
-0.288531
-0.212229
-0.110484
-0.101036
-0.049755
-0.137117
-0.172859
-0.089136
-0.082786
-0.009462
-0.118085
-0.052301
-0.010378
-0.052993
0.004383
0.029935
0.082097
0.035158
0.008523
0.043350
0.018743
0.121289
0.058625
0.044561
0.125073
0.212708
0.151067
0.267359
0.266510
0.207468
0.188326
0.261585
0.274597
0.245096
0.326636
0.375496
0.381120
0.462327
0.382935
0.459333
0.453653
0.402418
0.409972
0.424689
0.427347
0.474501
0.458899
0.553093
0.368712
0.468753
0.446487
0.397872
0.316893
0.396903
0.319422
0.373096
0.306668
0.270377
0.253918
0.271310
0.210138
0.187208
0.164305
0.100135
0.130253
0.172312
0.120189
0.118969
0.119628
0.151743
0.074860
0.017274
0.005147
0.086544
0.011823
-0.021444
-0.043923
0.115304
-0.016629
-0.027423
-0.011183
-0.077176
-0.104506
-0.046989
-0.091247
-0.100440
-0.007960
-0.032169
-0.024586
0.026341
-0.032029
-0.071075
-0.032865
-0.102234
-0.093450
0.004251
-0.068364
-0.066409
-0.014651
0.024066
-0.018140
-0.057745
-0.058405
-0.074028
-0.048841
-0.021695
-0.053422
-0.059611
-0.071760
-0.045339
-0.073038
0.038345
-0.049075
-0.037782
0.042230
-0.098145
-0.040278
-0.049288
-0.000665
-0.009876
-0.016281
0.010557
0.017831
-0.024583
-0.022980
0.005712
0.006274
-0.014998
-0.032040
-0.093283
0.006737
-0.033465
-0.075780
-0.049131
-0.000027
-0.082003
0.001794
-0.084345
-0.042652
0.073198
-0.061728
-0.054888
-0.002398
0.040537
-0.051434
0.033806
0.069112
0.057690
0.130292
0.022041
0.043249
0.155003
0.105670
0.027549
0.083110
0.094315
0.125382
0.227551
0.228724
0.151763
0.184428
0.166808
0.117676
0.148305
0.133581
0.188095
0.165863
0.118161
0.159554
0.157388
0.045332
0.022660
0.052414
0.028804
0.041530
0.034234
0.080742
0.066793
-0.029085
-0.034219
0.068496
0.089087
0.056675
0.130895
0.047944
0.017128
0.084089
-0.007078
-0.030786
-0.061668
-0.017739
0.011204
-0.016567
0.022546
-0.059330
0.024668
-0.025540
0.141870
0.397623
0.533485
0.900121
1.160999
1.363858
1.460687
1.153335
0.902831
0.429965
0.159824
-0.049441
-0.248044
-0.233970
-0.263621
-0.049709
-0.012698
-0.079574
0.023250
-0.033173
-0.001507
0.059003
0.048437
0.018635
0.016711
0.144999
0.042466
0.072113
0.121256
0.170329
0.045826
0.129636
0.103112
0.180776
0.139204
0.131182
0.140864
0.265770
0.184899
0.218806
0.284004
0.312203
0.309334
0.322973
0.302266
0.277273
0.394395
0.476965
0.427924
0.438340
0.460181
0.479462
0.436900
0.519202
0.528719
0.477275
0.549986
0.598236
0.620008
0.533136
0.505331
0.581061
0.454464
0.490495
0.486617
0.567624
0.503989
0.482868
0.493103
0.445453
0.412033
0.391821
0.284468
0.392741
0.385807
0.287238
0.370276
0.255448
0.322226
0.362861
0.234613
0.216030
0.143947
0.102490
0.219681
0.132122
0.152820
0.092658
0.071062
0.056388
0.114749
0.075110
0.025215
0.043203
0.032307
0.002600
0.047620
-0.038989
0.086581
0.049689
0.030296
0.079493
0.098988
0.000321
0.086952
0.004680
0.008201
0.061504
0.061101
-0.002937
-0.054222
0.014022
0.068642
0.077638
0.021810
0.058191
0.055748
0.045417
0.040381
0.062871
0.056061
0.048988
0.013905
-0.039112
0.168594
0.053014
-0.052759
0.057083
0.066668
0.035093
-0.036099
0.167326
0.004331
0.076840
0.040089
0.081509
0.010629
0.017688
0.018582
0.019807
0.037159
0.066240
0.039126
0.046414
0.074549
0.119066
0.152764
0.042927
0.063772
-0.004606
0.002348
0.075650
0.144379
0.069643
0.069263
0.014674
0.157311
0.081405
0.106033
0.086045
0.135997
0.139718
0.124856
0.131651
0.148080
0.185405
0.125243
0.127045
0.106020
0.231340
0.239954
0.201689
0.210340
0.229425
0.238627
0.207053
0.162625
0.199832
0.193772
0.153034
0.190310
0.204167
0.201686
0.186901
0.242259
0.160812
0.046861
0.124286
0.167758
0.092072
0.086630
0.080544
0.061997
0.103822
0.064437
0.032834
0.107370
0.039863
0.029224
0.000720
0.082425
0.073849
0.016899
0.042056
0.003519
0.059720
0.016451
0.004541
-0.038131
-0.038879
0.022736
0.050872
0.242140
0.596806
0.894052
1.147264
1.449785
1.489566
1.260358
1.028665
0.699867
0.271909
0.004565
-0.119310
-0.204968
-0.243527
-0.193699
-0.076285
-0.000232
0.022047
0.039305
0.052575
0.035441
0.068247
-0.002264
0.164624
0.045725
-0.028012
0.205137
0.096976
0.153043
0.078689
0.098318
0.121693
0.114025
0.160819
0.139899
0.256326
0.240608
0.257786
0.288334
0.354514
0.240482
0.278272
0.315922
0.396009
0.354839
0.283989
0.428277
0.384659
0.367155
0.508901
0.503806
0.513525
0.596626
0.540476
0.496339
0.522066
0.482424
0.637228
0.512198
0.575611
0.537017
0.517378
0.480074
0.501610
0.480928
0.460853
0.443728
0.445267
0.393883
0.286368
0.404618
0.457103
0.350230
0.361910
0.222849
0.204988
0.223646
0.279993
0.255537
0.231775
0.221213
0.125660
0.113739
0.153351
0.089730
0.146200
0.067416
0.025183
0.104812
0.056291
0.019492
0.037163
0.027111
-0.014973
0.060222
0.000464
-0.001392
0.052036
-0.015472
-0.086813
0.011988
-0.031623
-0.027679
-0.052876
-0.018629
0.006002
-0.000835
-0.008237
-0.067004
0.031941
-0.079659
-0.024761
-0.050142
-0.003107
-0.020241
-0.096881
0.036545
-0.071614
-0.043802
0.017308
-0.080550
0.062039
0.133472
-0.088484
-0.027064
-0.019133
-0.065423
-0.027165
-0.032064
-0.005134
-0.119278
-0.063980
0.003696
-0.094093
-0.063745
-0.054393
-0.015271
-0.005462
-0.040700
-0.104687
-0.031310
-0.028289
-0.022497
-0.148724
-0.013143
-0.117817
0.037714
0.001039
0.002299
0.049507
-0.009863
-0.064487
-0.115855
-0.077287
-0.060470
-0.026563
-0.008971
0.008842
0.009381
-0.038289
-0.043028
0.015169
0.024619
-0.064947
0.047220
0.075418
0.039445
0.076462
0.128531
0.106991
0.028085
0.125174
0.132136
0.123496
0.189517
0.087664
0.103602
0.069512
-0.026757
0.145139
0.084527
0.042087
0.096163
0.075231
0.015511
0.023766
0.024489
0.062161
0.055957
-0.005393
-0.048924
0.052056
-0.007523
-0.097155
-0.064233
0.029041
-0.076139
0.092874
-0.102533
-0.007205
-0.168848
-0.111121
-0.053854
-0.057432
-0.035811
-0.023974
-0.084932
-0.071718
-0.095391
-0.083393
-0.105577
0.077283
0.305482
0.698231
1.081694
1.165536
1.303583
1.217605
1.001529
0.623100
0.241035
-0.007989
-0.198996
-0.316749
-0.380908
-0.275518
-0.143799
-0.111857
-0.107449
-0.071865
-0.071398
-0.005608
-0.088010
-0.088164
-0.068306
-0.020651
-0.030595
-0.065481
-0.037587
-0.001198
-0.048684
-0.020101
0.066625
-0.058516
0.043564
-0.021362
0.135935
0.107694
0.111949
0.104035
0.194816
0.180836
0.138245
0.203892
0.270572
0.302938
0.295178
0.307473
0.266509
0.293994
0.373315
0.332033
0.401221
0.450894
0.421424
0.488855
0.376139
0.398940
0.392051
0.393624
0.338243
0.383560
0.415063
0.348562
0.443520
0.369682
0.356950
0.397618
0.298360
0.293324
0.331787
0.370360
0.201302
0.188301
0.177746
0.221836
0.132377
0.143294
0.149334
0.083161
0.055515
0.050433
0.036295
0.065289
0.063089
0.004754
-0.067305
0.011437
-0.002601
-0.022570
-0.038148
-0.050333
-0.112133
-0.028359
-0.069158
-0.176567
0.012074
-0.057960
-0.156556
-0.198339
-0.102223
-0.053781
0.009617
-0.076168
-0.092456
-0.168026
-0.128480
-0.164473
-0.131570
-0.180607
-0.132593
-0.106177
-0.096293
-0.052716
-0.053953
-0.111279
-0.073307
-0.043397
-0.034933
-0.178917
-0.059034
-0.054433
-0.053615
-0.048408
-0.142787
-0.102727
-0.034833
-0.006635
-0.181050
-0.167876
-0.097041
-0.124039
-0.102012
-0.120920
-0.168024
-0.062296
-0.082395
-0.141441
-0.090567
-0.089041
-0.107100
-0.153336
-0.042122
-0.054327
-0.121350
-0.012121
-0.123350
-0.070364
-0.006521
-0.120427
-0.053405
-0.082236
-0.123069
-0.199854
-0.102480
-0.125967
-0.074530
-0.022121
-0.007380
0.102191
-0.038886
0.020265
0.022067
0.009152
0.054673
0.001459
0.139615
0.068846
0.090992
0.072917
0.057830
0.009528
0.046335
0.032774
0.152371
0.060506
0.136192
0.083198
0.094688
0.093336
0.092931
0.084541
0.041242
-0.047343
0.100090
-0.009679
-0.008738
-0.013895
-0.047229
-0.035871
0.013888
-0.008964
0.021713
-0.007903
-0.119863
-0.139385
-0.080317
-0.041151
-0.023036
-0.046881
-0.135796
-0.091140
-0.032961
-0.036491
-0.108427
-0.016031
-0.120229
-0.046273
-0.095388
-0.050882
-0.056495
-0.112235
0.068916
0.322873
0.556459
0.922829
1.273338
1.446101
1.295916
1.107971
0.712580
0.388608
0.049682
-0.194427
-0.224314
-0.368753
-0.242975
-0.131710
-0.071532
-0.055007
-0.108826
0.015059
-0.026403
-0.049732
0.030140
0.007666
0.015385
-0.025816
0.045863
-0.008372
-0.000952
0.033352
0.042624
0.084501
-0.003387
0.126507
0.083643
0.170318
0.134668
0.154221
0.126149
0.153159
0.215639
0.220360
0.255785
0.290410
0.323123
0.239604
0.376505
0.363735
0.394039
0.374312
0.391942
0.515736
0.423045
0.438027
0.440910
0.455981
0.484052
0.535880
0.485959
0.581043
0.430029
0.547211
0.396727
0.432236
0.476447
0.481021
0.404518
0.308557
0.368339
0.318607
0.361233
0.349651
0.366289
0.309873
0.202190
0.225844
0.303072
0.174508
0.066347
0.232975
0.127949
0.203500
0.125310
0.081430
0.129517
0.153174
0.064067
0.113921
-0.052508
0.052145
0.076408
-0.018456
-0.030971
-0.025873
0.011616
-0.017802
-0.047662
0.013956
0.029755
-0.007591
-0.011093
-0.050108
-0.023354
-0.033765
-0.015868
-0.024357
0.007447
-0.007994
0.021605
0.044294
0.028242
-0.000600
0.038519
-0.021115
0.100307
0.029224
-0.030612
-0.026087
-0.033760
-0.084443
0.099582
0.055605
0.092745
-0.089083
0.038583
0.071598
-0.098717
0.056086
0.020735
0.020981
0.059826
0.023540
-0.006641
0.022498
-0.008347
0.045895
-0.074201
0.056056
0.008458
-0.036784
0.004896
0.061416
0.065630
0.066889
0.029962
0.014558
0.101078
0.015341
0.017393
0.030276
0.078834
-0.014702
-0.016710
0.007629
0.037389
0.013181
0.120806
0.044493
0.061256
-0.006243
0.090618
0.109369
0.204888
0.122492
0.232857
0.167719
0.116073
0.154097
0.249223
0.209184
0.263010
0.233619
0.194697
0.208439
0.217656
0.258259
0.201980
0.200969
0.204447
0.205008
0.146235
0.104558
0.167550
0.188704
0.155773
0.156099
0.084633
0.197199
0.103864
0.125605
0.087056
0.141103
0.091619
0.051400
0.028190
0.039120
0.041068
0.101526
0.104135
0.015480
0.032222
0.057202
0.008645
0.025943
0.072031
-0.015501
-0.017171
0.065270
0.058493
0.012186
0.040795
0.137553
0.368919
0.691720
0.923022
1.205425
1.410554
1.461551
1.312155
0.966251
0.639496
0.367508
-0.065270
-0.256125
-0.198898
-0.212218
-0.151193
0.024284
-0.019392
0.103271
0.005131
0.054185
0.072089
0.142782
0.139544
0.126953
0.127408
0.015341
0.069620
0.182185
0.131349
0.091767
0.174301
0.201540
0.129877
0.148999
0.210615
0.262749
0.277685
0.310514
0.305449
0.306659
0.397833
0.349863
0.479030
0.392319
0.478545
0.446069
0.441023
0.504469
0.401494
0.401821
0.577819
0.522717
0.449790
0.599567
0.575792
0.607699
0.585629
0.539424
0.570095
0.568289
0.629790
0.632841
0.592571
0.635924
0.512598
0.456836
0.507145
0.431257
0.501603
0.418148
0.430122
0.393699
0.451125
0.345515
0.294596
0.269559
0.299804
0.276922
0.291138
0.244446
0.333804
0.169023
0.264837
0.226064
0.205812
0.159142
0.190777
0.123689
0.176926
0.116964
0.181508
0.130650
0.176031
0.145326
0.033111
0.130146
