0.018339
0.022064
-0.074161
-0.024988
-0.064923
-0.027242
0.046743
-0.000227
0.006323
0.069434
0.018549
0.013476
0.031455
0.012875
0.005365
0.069677
-0.030079
-0.028361
0.005908
0.052966
0.107838
-0.033161
-0.025442
0.005596
0.065328
0.038874
-0.020835
-0.042463
0.011655
0.054735
0.050180
0.061384
0.003374
0.028545
0.033341
-0.010052
0.089367
0.067892
0.045363
0.011120
0.100961
0.074282
0.050538
0.074685
0.043070
0.075444
0.128138
0.106239
0.153005
0.153231
0.147829
0.189184
0.180711
0.164292
0.116972
0.200867
0.170323
0.175298
0.254451
0.154261
0.140768
0.201669
0.183311
0.217273
0.168940
0.197167
0.189567
0.160394
0.254938
0.168140
0.088779
0.105646
0.132003
0.084176
0.173118
0.088906
0.033165
0.061628
0.066356
0.072026
0.047653
0.008406
-0.007016
0.001343
0.013848
0.011726
0.061599
0.020314
0.030496
0.017628
0.080989
0.002316
0.077573
-0.047969
0.057811
0.018707
0.068848
0.035364
0.003048
0.120439
0.069382
0.066792
0.001804
0.008485
0.044458
0.049348
-0.024000
0.002370
-0.010108
0.049492
0.160021
0.295709
0.685521
0.941213
1.252623
1.466644
1.384760
1.275690
0.961076
0.738394
0.359050
0.104408
-0.061518
-0.238311
-0.241160
-0.212636
-0.202197
-0.124072
-0.032312
0.065298
0.045216
-0.006468
0.130536
0.096891
0.043695
0.084446
0.051325
0.066356
0.037407
0.041672
0.175474
0.110027
0.087957
-0.004577
0.019167
0.058860
0.025408
0.064044
0.075949
0.122943
0.107884
0.105187
0.019373
0.109293
0.147513
0.206059
0.085272
0.189754
0.127073
0.123461
0.131309
0.093649
0.178036
0.168487
0.216151
0.237947
0.215489
0.217831
0.309856
0.360910
0.277926
0.362984
0.365008
0.399444
0.448324
0.341704
0.437579
0.448851
0.552487
0.493988
0.501878
0.577209
0.564094
0.632114
0.614951
0.540021
0.520502
0.583449
0.593291
0.582827
0.549364
0.658104
0.543667
0.542959
0.517888
0.545442
0.432564
0.525676
0.527714
0.422404
0.436656
0.415993
0.411636
0.353818
0.318052
0.344736
0.363900
0.322064
0.328529
0.321052
0.142871
0.150794
0.188923
0.215564
0.169678
0.139600
0.206612
0.144225
0.130848
0.177892
0.139600
0.168462
0.147850
0.085256
0.074769
0.122289
0.071205
0.156433
0.052651
0.068023
0.080745
0.077103
0.043790
0.026363
0.053604
0.094793
0.091893
0.055319
0.106601
0.114185
0.052098
0.036472
0.043911
0.092159
0.084164
0.064414
0.100199
0.033929
0.023908
0.124499
0.075394
0.038637
0.103294
0.047020
0.063209
0.090475
0.051672
0.056087
0.081909
0.108319
-0.022569
0.052176
0.012451
0.094476
0.175630
0.116081
0.066922
0.097466
0.089873
0.083690
0.159930
0.074582
0.022640
0.024702
0.074786
0.088337
0.041615
0.047585
0.114014
0.035719
0.057790
0.170073
0.038638
0.108594
0.112408
0.126281
-0.027028
0.081379
0.116051
0.104427
0.099475
0.002074
0.149620
0.040486
-0.032284
0.018170
0.077019
0.089203
0.034352
0.046684
-0.031045
0.003248
0.045631
0.025992
0.030430
0.036661
0.050026
0.125026
0.054051
0.082370
0.108766
-0.012793
0.181887
0.062725
0.120113
0.057977
0.088401
0.064768
0.066402
0.034604
0.119459
0.021925
0.079912
-0.009000
0.067586
0.108908
0.088310
0.043748
0.131139
0.107283
0.134356
0.105004
0.132121
0.157897
0.212042
0.111620
0.154190
0.142302
0.160827
0.118240
0.221505
0.185826
0.152104
0.191170
0.157899
0.199813
0.230027
0.278558
0.219097
0.162736
0.206616
0.132745
0.226380
0.145930
0.138316
0.062191
0.100056
0.127900
0.119557
0.111534
0.120324
0.087161
0.066525
0.042776
0.105629
0.084781
0.136523
0.030757
-0.023630
0.026519
0.069419
-0.038523
0.104596
0.054329
0.025053
-0.007691
0.007709
-0.005186
0.064945
0.039305
0.048377
0.121153
0.021740
-0.032463
0.007251
-0.004563
-0.015520
0.036032
0.001605
0.048694
-0.032614
0.021244
-0.007325
-0.064686
-0.135979
-0.003406
-0.220764
-0.152308
-0.013123
0.120020
0.423498
0.809062
1.071185
1.320783
1.394577
1.324159
1.009418
0.799721
0.480098
0.151982
-0.030684
-0.203621
-0.289511
-0.280654
-0.323391
-0.315335
-0.209889
-0.102782
-0.032797
0.043164
0.010453
-0.081052
0.009396
-0.005954
0.069377
-0.002028
-0.002634
0.024270
0.018003
-0.004963
0.007061
-0.044853
-0.041550
0.006531
-0.015506
0.026599
-0.028762
0.026878
0.002646
0.003697
-0.084491
0.067758
0.044484
0.033720
0.084630
0.096981
0.084422
0.072368
0.128611
0.090445
0.059780
0.149074
0.162898
0.125568
0.146811
0.206108
0.150982
0.293768
0.236234
0.288184
0.203638
0.207968
0.353883
0.323174
0.324583
0.323858
0.444810
0.409085
0.402798
0.435977
0.489361
0.459852
0.426570
0.445797
0.511726
0.429345
0.470749
0.515113
0.361057
0.464635
0.543406
0.396702
0.441967
0.445724
0.414120
0.384617
0.335549
0.277333
0.272205
0.278773
0.347766
0.243764
0.244353
0.167868
0.264452
0.222017
0.203864
0.102009
0.070247
0.091124
0.077565
0.078258
0.066939
0.069042
0.048291
-0.043768
0.007162
0.013147
-0.002670
0.026802
-0.036750
0.021852
-0.030230
0.053927
-0.004335
-0.095090
-0.067712
-0.008785
-0.038021
-0.016684
-0.043437
0.026511
-0.120796
-0.041134
-0.100490
-0.009413
-0.079040
0.016288
-0.062421
-0.057653
-0.098021
-0.014305
-0.023889
0.001066
0.002337
-0.019414
-0.021467
-0.019070
-0.079550
-0.012571
-0.012626
-0.071799
0.053312
-0.011637
0.074569
-0.005658
-0.117337
-0.006850
-0.104306
-0.082498
-0.044529
-0.083447
-0.085492
-0.070663
-0.029753
-0.015545
-0.042373
-0.002455
-0.030714
0.023422
-0.033862
0.019269
-0.036071
-0.031851
-0.047160
-0.005722
-0.004649
-0.015743
0.003868
0.036465
0.012068
-0.097297
-0.079317
-0.024112
-0.026315
-0.043395
-0.062590
-0.020015
-0.059302
-0.010173
0.001923
-0.088449
0.047816
-0.016045
-0.114342
-0.032264
0.016623
-0.071148
-0.088367
-0.040028
-0.040348
-0.030913
-0.041597
-0.015405
-0.038165
-0.084329
-0.084222
0.009294
-0.015110
-0.010124
-0.022429
-0.012008
-0.082670
-0.032917
-0.111520
-0.053340
-0.040167
0.028747
-0.010952
-0.069203
0.023428
-0.044640
-0.056201
-0.097592
0.012761
-0.028249
-0.037008
0.012136
0.058290
-0.072001
-0.037031
-0.003317
0.084119
0.048773
0.131602
0.033621
0.004926
0.067324
0.127270
0.091271
0.058433
0.053277
0.158023
0.178226
0.064950
0.085881
0.105432
0.123547
0.189825
0.151459
0.094433
0.087562
0.107104
0.128978
0.069003
0.059999
0.057381
0.065825
0.112202
0.067577
0.072303
0.016967
-0.029511
0.014492
0.065546
-0.070211
0.023971
-0.011352
-0.038878
0.002026
-0.025367
0.009089
0.029816
-0.079001
-0.023728
-0.048810
-0.030042
0.085209
0.005096
0.001359
0.056510
-0.057445
0.028894
-0.000937
-0.009937
-0.042694
-0.056077
0.013290
-0.017384
0.052766
0.056733
-0.095283
-0.057070
-0.025802
-0.104152
-0.065482
-0.056364
0.060531
0.302848
0.574578
0.964947
1.239983
1.382796
1.342484
1.180919
0.879445
0.570047
0.294643
0.012493
-0.180014
-0.262368
-0.359714
-0.325774
-0.286438
-0.160012
-0.073619
-0.108780
-0.012262
-0.016559
-0.001658
0.024611
-0.048538
0.046304
-0.049919
0.037864
0.101827
0.076772
-0.045008
-0.019598
0.056062
0.063379
-0.004269
0.020491
-0.072319
0.020905
0.067411
0.063060
0.069502
0.104037
0.042582
-0.003487
0.136836
0.016272
0.089358
0.093079
0.104103
0.115148
0.056915
0.085825
0.134047
0.117641
0.080964
0.179899
0.130092
0.266883
0.245802
0.223037
0.274478
0.297416
0.299522
0.352178
0.346048
0.337800
0.429736
0.400716
0.422325
0.364146
0.414431
0.447374
0.422683
0.571126
0.583366
0.483993
0.419702
0.440629
0.508332
0.529696
0.472677
0.483083
0.479025
0.466078
0.461110
0.526692
0.429680
0.463244
0.438135
0.428326
0.440474
0.371959
0.386646
0.270708
0.287848
0.283547
0.224083
0.245374
0.231027
0.219470
0.173915
0.104257
0.227536
0.185588
0.198480
0.134108
0.164890
0.185787
0.189985
0.087294
0.146922
0.052875
0.059905
0.034767
0.068098
0.099927
0.167868
0.089831
0.032454
0.026277
0.064064
0.060698
-0.000064
0.061697
0.060645
0.085867
0.111984
0.090033
0.001383
0.065622
0.018026
0.045426
0.082794
0.083993
0.012586
0.061182
0.015105
0.065781
0.049415
0.026663
0.124833
0.087412
0.092941
0.145383
0.097875
0.121907
0.083959
0.076577
-0.004998
0.088088
0.037224
0.041696
0.155984
0.043912
0.107668
0.016217
0.086034
0.122006
0.124160
0.106707
0.112123
0.067731
0.085542
0.086276
-0.040383
-0.003485
0.096483
0.068588
0.097138
0.114164
0.048219
0.074480
0.069498
0.103306
0.032177
0.010815
0.126182
0.097828
0.118604
0.124455
0.096491
0.018218
0.068752
0.132148
0.077677
0.089445
0.090795
0.056345
0.105789
0.098498
0.078904
0.064707
0.069439
0.102929
-0.001600
0.114875
0.093682
0.070157
0.149533
0.080910
0.048548
0.098548
0.186352
0.091018
0.128109
0.070663
0.080334
0.024674
0.088966
0.104692
0.086737
0.024991
0.071784
0.134004
0.104726
0.177583
0.105926
0.134390
0.165524
0.086475
0.132921
0.190870
0.173839
0.127642
0.184448
0.245938
0.222506
0.187144
0.212000
0.230684
0.203299
0.286436
0.166908
0.240899
0.236869
0.239751
0.192479
0.245828
0.235249
0.271111
0.254144
0.268432
0.190672
0.257318
0.222254
0.184848
0.177041
0.197325
0.257564
0.150635
0.163412
0.070536
0.146376
0.174183
0.181511
0.136424
0.136307
0.125630
0.121198
0.131340
0.152819
0.126278
0.106595
0.091902
0.092637
0.080817
0.049949
0.081232
0.121926
0.098227
0.105442
0.033396
-0.004578
0.086654
0.118877
0.056166
0.086045
0.115279
0.064087
0.113795
0.105181
0.093555
0.039164
0.035396
0.040116
-0.010538
-0.049473
0.086168
0.125152
0.236116
0.574255
0.883647
1.170114
1.450726
1.493511
1.367613
1.121560
0.799099
0.533526
0.239180
0.047351
-0.175665
-0.277105
-0.245799
-0.240111
-0.154495
-0.117960
-0.034177
0.122465
0.053267
0.027335
0.162568
0.033398
0.063535
0.089940
0.156843
0.071646
0.120804
0.093957
0.071470
0.113768
0.093736
0.029436
0.082218
0.059293
0.059970
0.085834
0.088416
0.049196
0.036319
0.057521
0.092956
0.191483
0.109897
0.109169
0.131959
0.136275
0.197190
0.129442
0.092907
0.184236
0.177726
0.252325
0.189150
0.222691
0.231505
0.289515
0.240526
0.366401
0.286041
0.284079
0.458011
0.401293
0.355318
0.424549
0.430814
0.423446
0.499410
0.509571
0.527320
0.520141
0.623623
0.561098
0.556124
0.534095
0.531613
0.475391
0.569501
0.558612
0.542993
0.531127
0.524558
0.492807
0.444114
0.467364
0.540742
0.487400
0.429571
0.391215
0.364969
0.309335
0.383769
0.337254
0.282092
0.270239
0.288900
0.315932
0.225936
0.243776
0.148210
0.138595
0.092909
0.152784
0.182817
0.139692
0.130446
0.068330
0.169765
0.079333
0.094139
0.126876
0.060972
0.048025
0.047787
0.031467
0.072581
0.081498
0.057815
0.084524
0.007522
-0.030409
0.091923
-0.005607
0.049212
0.092236
0.058726
0.054136
-0.022046
0.021213
-0.005487
-0.020477
-0.008658
0.067013
0.027693
0.041005
0.007745
0.086666
0.010140
0.018760
-0.018129
0.046070
0.002812
-0.018966
0.026283
0.008715
-0.003120
0.006431
0.030256
0.065055
0.021881
-0.011977
0.053687
0.009943
0.035403
0.080519
0.070972
0.041567
-0.002264
-0.076389
-0.068876
-0.012319
-0.055301
-0.014045
0.009186
-0.017785
-0.078089
0.025631
-0.011635
-0.022342
-0.026137
-0.002779
-0.018378
0.095905
-0.016973
-0.045622
-0.047477
-0.067671
0.057873
0.005047
-0.022419
0.010358
0.041313
-0.023985
0.025393
-0.063583
-0.022792
-0.040441
-0.006694
-0.031580
0.031927
0.062996
-0.004927
-0.017139
-0.046890
-0.010732
0.027595
-0.027057
-0.008033
-0.039196
0.024251
-0.058962
-0.017159
-0.104601
-0.125911
-0.008661
-0.046373
-0.012404
-0.055148
0.085874
-0.004399
-0.005970
-0.000529
-0.025571
0.017331
-0.029381
-0.003017
0.023815
0.011436
0.009883
-0.072080
0.046315
-0.049232
0.031729
0.074678
-0.008984
0.074131
0.049306
0.101307
0.132306
0.144668
0.033970
0.150859
0.052848
0.126974
0.190251
0.201919
0.154305
0.143882
0.111106
0.203588
0.128832
0.033728
0.138242
0.037665
0.029560
0.127960
0.005519
0.063869
0.043498
0.052016
0.136674
-0.017383
0.071482
-0.012159
-0.081447
-0.021084
-0.024664
-0.028768
-0.044159
-0.059047
0.010234
-0.096346
-0.060322
-0.104237
0.005704
0.008353
-0.022646
0.002137
-0.090229
-0.025401
-0.081284
-0.048709
-0.043938
-0.056250
-0.046108
-0.109526
-0.011158
-0.064614
-0.075209
-0.066484
-0.034137
-0.091861
-0.159048
-0.170846
-0.169849
-0.202894
-0.165853
0.084725
0.311990
0.640907
0.941056
1.264313
1.365720
1.342659
1.065151
0.856287
0.552900
0.196572
-0.023690
-0.261562
-0.348286
-0.404846
-0.369581
-0.246918
-0.279238
-0.172438
-0.089002
-0.141108
0.004206
-0.071452
-0.084472
-0.132487
-0.014206
-0.052106
-0.074524
-0.047164
-0.079966
0.007168
-0.121214
-0.150730
-0.025273
-0.063482
-0.123931
-0.026942
-0.097366
-0.075595
0.009557
-0.030100
-0.042817
-0.119828
-0.068401
-0.058568
0.001746
-0.044513
-0.056287
0.012671
-0.029609
0.038275
0.033149
-0.011707
0.033888
0.042226
0.043466
0.014346
0.135765
0.174028
0.169900
0.174308
0.171123
0.213140
0.263657
0.234231
0.255635
0.317234
0.344700
0.333883
0.311436
0.319657
0.433777
0.388751
0.281819
0.386683
0.373889
0.371274
0.434653
0.476239
0.440670
0.450090
0.445715
0.487104
0.409761
0.326800
0.359149
0.308288
0.332928
0.307135
0.215445
0.233056
0.263698
0.258613
0.163088
0.276933
0.135686
0.196343
0.070006
0.047394
0.098541
0.105736
0.105259
0.037037
0.004629
0.052246
-0.007019
0.026248
0.006276
0.039764
-0.040537
-0.015179
-0.072649
-0.042816
0.017413
0.003563
-0.058843
-0.088702
-0.060315
-0.082876
-0.092596
-0.070082
-0.042922
-0.074562
-0.096987
-0.085303
-0.101058
-0.098247
-0.006751
-0.104614
-0.110397
-0.075204
-0.033641
-0.117119
-0.133943
-0.144377
-0.075453
0.030477
-0.017342
-0.079733
-0.084456
-0.064364
0.028239
-0.102489
-0.140926
0.015347
-0.040225
0.036773
-0.042199
-0.104593
-0.090341
-0.042339
-0.064460
-0.077676
-0.034615
0.003307
-0.034445
-0.037717
-0.059519
-0.074005
-0.029640
-0.023130
-0.021251
-0.059564
-0.053475
-0.078374
-0.131019
-0.011322
-0.030258
0.037801
-0.039206
-0.083420
-0.051236
0.000945
-0.020202
-0.054235
-0.082896
-0.084024
-0.028711
-0.027017
-0.013427
-0.046993
-0.002132
-0.064260
-0.036669
0.048220
-0.114676
-0.115223
-0.039427
-0.093627
-0.054258
0.020471
-0.066821
-0.048612
-0.026875
0.005905
-0.059683
-0.077692
-0.025442
-0.081651
-0.071352
-0.071582
-0.037871
-0.065322
-0.078994
-0.079656
-0.016648
-0.023003
-0.024651
-0.092564
0.004145
-0.054137
0.002635
-0.051560
-0.033123
-0.017985
-0.031817
-0.058340
0.014831
0.022078
-0.003534
-0.036053
0.008130
-0.052603
0.139225
0.080948
0.015386
-0.030965
0.091631
0.143747
0.124540
0.062620
0.132349
0.149172
0.160803
0.160950
0.195225
0.182409
0.125626
0.139778
0.178154
0.213963
0.182575
0.113752
0.132787
0.045504
0.122768
0.158946
0.073757
0.115797
-0.038066
0.055767
0.010404
0.028099
0.032547
0.038979
0.009077
0.009124
-0.029994
0.071146
0.028927
0.030833
-0.003615
-0.016673
-0.036108
-0.076297
0.027431
-0.051344
0.040878
-0.018454
0.025733
0.052948
0.072529
0.001877
0.014299
-0.021620
-0.031381
0.034491
-0.006664
0.003217
0.011367
0.058914
0.000482
-0.000963
-0.046544
-0.098208
-0.097417
-0.150939
-0.114634
0.011218
0.166268
0.530705
0.747157
1.156687
1.325381
1.353858
1.250228
1.073260
0.750558
0.399067
0.178454
-0.044802
-0.147731
-0.314186
-0.372541
-0.260491
-0.209132
-0.109234
0.024773
-0.056916
-0.002518
0.030411
-0.009074
-0.011935
0.061184
0.026114
-0.016926
-0.002667
-0.011684
0.020320
-0.010039
0.042877
-0.014162
0.042441
0.028373
-0.029829
-0.021354
0.003271
0.055062
0.035624
0.073516
0.075518
0.068917
0.032971
0.092928
0.063684
0.110461
0.019662
0.128366
0.122711
0.146822
0.162251
0.149368
0.181017
0.193201
0.171605
0.233465
0.188172
0.173157
0.228087
0.329425
0.314796
0.374135
0.380034
0.373332
0.365661
0.391480
0.428997
0.465138
0.496792
0.450486
0.491476
0.481320
0.539083
0.472619
0.597582
0.545791
0.510829
0.539169
0.535990
0.461256
0.459540
0.516412
0.449128
0.511221
0.565611
0.531942
0.440715
0.417196
0.415666
0.388796
0.414641
0.391616
0.321133
0.338283
0.230486
0.263404
0.274918
0.195575
0.251651
0.256770
0.256616
0.167587
0.139322
0.167617
0.126655
0.090145
0.083055
0.078964
0.032857
0.086669
0.038692
0.060668
0.033709
0.106820
0.071804
0.025933
0.041880
-0.001933
0.178643
0.072705
0.032414
0.042349
-0.020396
0.025712
0.059927
0.003979
0.040081
0.066390
0.016882
0.040025
0.050770
0.041697
0.022882
0.029019
0.063104
0.077547
0.009925
-0.000915
0.070943
0.118251
0.051806
0.059154
0.079664
-0.015960
-0.000409
0.074678
0.033069
0.009261
-0.013542
-0.020482
0.078174
0.053381
-0.076990
0.006052
-0.002660
0.031302
0.036576
-0.007701
0.117214
0.072874
0.067278
0.007475
0.089390
0.095342
0.029837
0.090450
0.024182
0.127823
0.056379
0.087640
0.029917
0.027868
0.041506
-0.010761
0.046726
0.041576
0.072689
0.113207
0.045713
-0.028578
0.053795
-0.006564
0.032715
0.011384
0.075546
0.057292
0.064514
-0.029517
0.100860
0.060320
0.046587
0.034980
0.035015
0.015606
0.043812
0.040036
0.040661
0.053852
0.069496
0.098798
0.048533
0.095167
0.074498
-0.000420
0.016560
0.117025
0.044818
-0.009709
-0.024820
0.042724
0.094301
0.088224
0.035029
0.040526
0.089433
0.013809
0.080374
0.100256
0.074864
0.025772
0.138424
0.151942
0.047899
0.187201
0.107654
0.147875
0.146324
0.142051
0.161644
0.185136
0.170582
0.151323
0.241650
0.234002
0.160745
0.227114
0.212617
0.133866
0.177271
0.153666
0.153731
0.138711
0.143462
0.134784
0.131433
0.070734
0.166702
0.178181
0.040720
0.125074
0.096062
0.057495
0.059435
0.069569
0.072464
0.073408
-0.061073
0.104812
0.040493
0.013128
0.046566
-0.018744
0.045287
-0.002769
0.095397
0.034514
-0.035641
-0.020369
0.019519
0.052208
0.028450
-0.031720
-0.056974
0.002351
-0.021205
-0.006297
0.029387
0.016268
0.016305
0.044121
0.004896
-0.072356
0.011042
0.001313
-0.122766
-0.112218
-0.081537
0.132750
0.378091
0.655266
1.080503
1.245206
1.347781
1.365299
1.100919
0.896410
0.516614
0.288124
0.015888
-0.244490
-0.304112
-0.317209
-0.334607
-0.216623
-0.218383
-0.024519
-0.045620
-0.031710
0.044958
-0.038615
-0.010019
0.004876
-0.039342
-0.019078
0.036706
0.031324
-0.043231
0.002966
-0.065222
-0.002438
-0.015277
-0.029710
0.069814
-0.025201
-0.018933
0.025612
-0.031038
-0.021392
0.027118
-0.060152
0.025510
0.030350
0.014581
0.061735
-0.033796
0.014146
0.089160
0.056704
0.124371
0.142808
0.102135
0.177954
0.180614
0.105450
0.114720
0.151748
0.165470
0.233703
0.158243
0.363387
0.310418
0.340472
0.276403
0.237480
0.351114
0.401204
0.314689
0.353831
0.399447
0.403560
0.424083
0.471991
0.436716
0.543386
0.503212
0.539040
0.504148
0.433669
0.366151
0.476490
0.385393
0.362071
0.418749
0.363742
0.279017
0.331231
0.298695
0.298311
0.301162
0.206837
0.255549
0.179561
0.209734
0.191065
0.187105
0.117924
0.128561
0.164505
0.067696
0.094084
0.021273
0.042307
0.088769
0.088852
-0.018849
0.051105
-0.005785
0.013604
-0.014046
-0.025892
-0.008284
-0.073806
0.005633
-0.031115
-0.011625
0.039482
0.000406
-0.032416
-0.118252
-0.034432
-0.072733
-0.074506
0.011883
-0.171277
0.038022
-0.061686
-0.026556
-0.182983
-0.096278
-0.068716
-0.029784
-0.114120
-0.087683
-0.128776
-0.057459
-0.125323
-0.019296
-0.060281
-0.034192
-0.067197
-0.114238
-0.082433
-0.080245
-0.106409
-0.055100
0.016007
-0.025795
-0.097843
-0.051780
-0.139334
-0.056511
-0.098368
-0.098593
-0.140588
-0.169154
-0.118524
-0.129654
-0.076943
-0.080563
-0.100791
-0.076794
-0.102624
-0.059259
-0.074950
-0.002159
-0.117387
-0.042131
-0.071847
-0.006819
-0.068848
-0.074966
-0.064523
-0.019260
-0.060949
-0.116601
-0.060616
-0.116814
-0.055671
-0.038938
-0.090168
-0.130559
-0.066253
-0.061224
-0.130615
-0.097940
-0.108867
-0.059701
-0.086661
-0.092674
-0.070958
-0.113753
0.002061
-0.089110
-0.166980
-0.076354
-0.053304
-0.027608
-0.129669
-0.051923
-0.091336
-0.115587
-0.045630
-0.032784
-0.083822
-0.064177
-0.113402
-0.084553
-0.060161
-0.082450
-0.038852
-0.033411
-0.077989
-0.120291
-0.048854
-0.096702
-0.015246
-0.085315
-0.001560
0.005412
-0.083225
-0.057650
0.004230
0.054857
-0.025797
0.073209
0.048090
-0.007397
0.062224
-0.004447
0.061331
0.082068
0.006841
0.001437
0.010391
0.055517
0.136090
0.034734
0.061292
0.061647
0.059596
-0.002369
0.000932
0.037983
0.025417
-0.058349
-0.006932
0.001020
-0.067063
-0.035131
-0.061928
0.013683
-0.034390
0.046315
-0.089266
-0.090082
-0.111942
-0.055296
-0.066364
-0.057716
-0.145486
-0.125870
-0.119101
-0.119148
-0.152032
-0.129676
-0.148640
-0.104145
-0.040649
-0.135420
-0.059000
-0.099441
-0.169885
-0.069734
-0.073299
-0.038299
-0.091947
-0.017987
-0.091984
-0.110197
-0.150888
-0.103348
-0.134998
-0.124840
-0.151244
-0.115545
-0.099520
0.091489
0.441364
0.847801
1.016413
1.247767
1.308186
1.218786
0.984122
0.630097
0.302486
0.051188
-0.227629
-0.285491
-0.338953
-0.433763
-0.333358
-0.227208
-0.203565
-0.145932
-0.127280
-0.135561
-0.058778
-0.064600
-0.104902
-0.093814
-0.110805
-0.100656
-0.069910
-0.057514
-0.105103
-0.100750
-0.074662
-0.016837
-0.009708
-0.040195
-0.040492
-0.050347
-0.031275
-0.028559
-0.037494
-0.088305
-0.042930
0.037712
0.020269
-0.025877
-0.071320
0.014176
0.000084
0.020423
0.068406
-0.090685
0.065008
0.051824
0.060848
0.133791
0.119764
0.156983
0.172869
0.183154
0.193246
0.103117
0.177365
0.237426
0.208195
0.273200
0.344628
0.364128
0.457376
0.389915
0.355051
0.366344
0.390894
0.393838
0.425771
0.442283
0.438759
0.464233
0.469577
0.414311
0.374096
0.454008
0.493670
0.389469
0.396949
0.384091
0.446389
0.346856
0.286183
0.360288
0.322061
0.258185
0.273675
0.202401
0.188885
0.217911
0.131623
0.178929
0.053669
0.173579
0.139565
0.147106
0.094172
0.017519
0.057276
0.050961
0.042026
-0.034011
0.037026
0.017509
0.019042
-0.037387
-0.048117
0.047558
-0.003994
-0.014720
-0.005569
-0.058435
0.080443
0.024143
-0.006467
-0.014212
-0.030552
0.081291
0.003531
-0.062618
-0.029445
0.021813
-0.041894
-0.004476
-0.053363
0.000160
-0.124307
0.068236
-0.098405
0.022791
-0.001741
-0.050697
0.004217
-0.000182
-0.021526
-0.008478
0.012733
-0.019091
0.019358
-0.031385
-0.008580
0.005470
-0.023521
-0.052992
-0.026270
-0.082261
0.075087
-0.001485
-0.012565
0.041350
-0.052996
-0.046783
-0.062795
-0.017610
-0.059636
0.027197
-0.040016
-0.036918
0.024006
-0.023012
-0.011437
0.049342
-0.039080
0.043291
0.003911
-0.059180
0.043723
0.001543
0.020406
0.004568
0.039834
-0.001612
-0.028130
0.069775
0.019231
0.043056
-0.050677
0.043304
0.041154
-0.013233
0.030326
-0.024935
0.038636
0.020064
0.000705
0.037208
0.052852
-0.018549
0.072989
0.055486
0.000562
0.022760
0.007357
0.093558
0.003227
0.019170
0.100961
0.066635
0.047551
0.115134
0.039712
0.029292
0.012772
-0.014236
0.073859
0.049236
0.041375
0.042108
-0.037440
0.076736
0.096879
0.049241
0.071945
0.110114
0.084312
0.077426
0.060627
0.197151
0.092359
0.092066
0.185464
0.075584
0.144984
0.098562
0.250453
0.150040
0.179645
0.178343
0.268570
0.131628
0.222574
0.180723
0.251206
0.216061
0.167022
0.175571
0.184974
0.157094
0.191252
0.203680
0.178851
0.143998
0.128701
0.192663
0.171586
0.160937
0.140685
0.142819
0.033387
0.041510
0.056302
0.062864
0.169075
0.049539
0.084453
0.097568
0.075224
0.079973
0.102220
0.099191
0.076540
0.046352
0.065937
0.032639
0.044872
0.112211
0.079104
0.085281
0.020859
0.090586
0.031466
0.061560
0.084238
0.045388
0.071121
0.084589
0.066030
0.022761
0.022543
-0.042235
-0.044071
-0.053938
0.081397
0.178744
0.486050
0.839676
1.149964
1.430210
1.500000
1.390630
1.229525
0.862855
0.659710
0.335446
0.097670
-0.161434
-0.240819
-0.300988
-0.192074
-0.114741
-0.079838
0.002739
0.029121
0.077672
0.156317
0.065526
0.069614
0.087273
0.022877
0.061389
0.052240
0.065338
0.047953
0.082227
0.074887
0.071910
0.016626
0.108022
0.080858
0.089223
0.069634
0.126904
0.049589
0.102763
0.043580
0.133595
0.116039
0.202763
0.143195
0.142206
0.150370
0.240459
0.169363
0.177961
0.162472
0.220361
0.239806
0.188309
0.197314
0.224429
0.273119
0.321559
0.355303
0.346925
0.379646
0.358038
0.357227
0.373840
0.402275
0.397436
0.424174
0.497457
0.472931
0.446654
0.535376
0.524202
0.468907
0.545632
0.623364
0.568393
0.535459
0.604694
0.556587
0.538612
0.560590
