0.075813
0.002473
0.086647
-0.019777
0.004731
-0.036885
0.018103
-0.055607
-0.094100
0.002618
-0.010257
0.047691
0.066690
0.085130
-0.001736
0.040063
0.052400
0.111977
0.048699
0.011732
0.117948
0.093788
0.049504
0.041973
0.112693
0.136991
0.087966
0.054273
0.194143
0.168924
0.127495
0.126165
0.142342
0.182568
0.149499
0.187394
0.217805
0.229508
0.169209
0.284045
0.298417
0.189110
0.209342
0.192463
0.235507
0.094171
0.054840
0.211544
0.186475
0.113587
0.126159
0.056063
0.101655
0.196922
0.082714
0.104567
0.007650
0.057292
0.027456
0.106069
0.059031
0.075272
0.044310
0.082762
0.052601
-0.009851
0.043017
0.165947
0.024401
0.050216
-0.014173
0.079137
0.111809
0.293146
0.334675
0.769160
1.049334
1.314129
1.395266
1.365668
1.014212
0.790180
0.406248
0.091331
-0.139237
-0.229342
-0.072216
-0.126306
0.010001
-0.062690
0.115353
0.061665
0.102389
0.061261
0.070508
0.115356
0.114671
0.182633
0.152158
0.164603
0.141358
0.212880
0.258454
0.182361
0.195198
0.230372
0.329192
0.317294
0.285660
0.322581
0.291711
0.405738
0.390725
0.397418
0.454343
0.425692
0.446670
0.474222
0.505405
0.525243
0.527066
0.626359
0.537838
0.619095
0.545620
0.595278
0.537097
0.625334
0.558720
0.637530
0.572418
0.599207
0.455036
0.547763
0.562128
0.485400
0.530950
0.444495
0.486051
0.418193
0.429313
0.435719
0.418529
0.387985
0.360102
0.376832
0.306406
0.276509
0.399351
0.266891
0.239060
0.119800
0.261572
0.169223
0.241830
0.178231
0.263873
0.104105
0.183320
0.100418
0.120835
0.075891
0.120388
0.091995
0.162416
0.095002
0.175465
0.154255
0.106718
0.048231
0.008740
0.084804
0.053718
0.084188
0.118900
0.070225
0.102915
0.096971
0.064624
-0.002184
0.155385
0.094615
0.022527
0.116761
0.138134
0.073711
0.053938
0.152586
0.035937
0.006603
0.050964
0.142394
0.088487
0.025192
0.110593
0.118654
0.071259
0.030806
0.073712
0.093821
0.065531
0.087562
0.053430
0.076156
0.103967
0.092377
0.090439
0.150920
0.147524
0.023933
0.134334
0.092856
0.030579
0.127725
0.086846
0.131910
0.146104
0.091322
0.152751
0.195737
0.224265
0.246462
0.218855
0.144685
0.234012
0.253647
0.306050
0.165479
0.240624
0.279706
0.281531
0.223870
0.253603
0.235024
0.303165
0.194130
0.233312
0.218722
0.225346
0.276446
0.249494
0.182275
0.242369
0.199444
0.181049
0.195304
0.105324
0.183848
0.118310
0.185535
0.167667
0.242222
0.127936
0.017061
0.109235
0.149403
0.064364
0.073805
0.164906
0.125914
0.129342
0.054039
0.124253
-0.007893
0.129877
0.053432
0.074251
0.168003
0.312137
0.507389
0.835559
1.168219
1.393255
1.384482
1.369076
1.021147
0.571267
0.315204
0.073504
-0.154472
-0.227746
-0.185008
0.029372
0.023695
0.077929
0.052671
0.025005
0.107402
0.006793
0.063632
0.081413
0.064226
0.229945
0.188847
0.136521
0.187661
0.138264
0.109220
0.186758
0.244872
0.286801
0.268471
0.338505
0.285185
0.356078
0.392276
0.345588
0.420157
0.307076
0.412389
0.395979
0.497120
0.480714
0.504861
0.495177
0.520458
0.497829
0.580968
0.487076
0.622067
0.546228
0.552949
0.557889
0.573920
0.611184
0.541507
0.568683
0.471144
0.405952
0.504987
0.503413
0.476336
0.481073
0.439280
0.407784
0.405003
0.376389
0.324689
0.308442
0.336283
0.231163
0.264996
0.239718
0.233452
0.207880
0.235244
0.106150
0.256136
0.052978
0.112544
0.116509
0.244518
0.147434
0.141323
0.126343
0.059750
0.095080
0.038650
0.009129
0.051884
0.045161
0.076944
0.121735
0.008718
0.032235
-0.041320
0.027831
0.041733
0.066462
-0.024251
0.034316
0.091767
0.018814
-0.052451
0.053163
-0.067350
0.015409
-0.073282
-0.024840
-0.050054
0.007287
0.082255
0.009668
0.046715
0.055509
0.055190
0.066611
-0.009704
-0.038100
0.096792
0.006176
0.027975
-0.012242
0.035471
-0.046739
-0.026872
-0.014562
-0.029674
-0.001307
0.008417
-0.045156
-0.040708
0.004158
0.050046
0.041412
0.126114
0.046759
-0.005797
0.035657
0.011578
0.033335
0.041436
0.095393
0.083835
0.088683
0.087359
-0.014355
0.110888
0.127155
0.085473
0.132107
0.150906
0.187475
0.144353
0.101746
0.247787
0.171219
0.209138
0.121919
0.169512
0.206102
0.169574
0.137749
0.180302
0.196327
0.120488
-0.007712
0.135252
0.105505
0.143957
0.156825
0.129750
0.046854
0.098364
0.034268
0.012254
0.012341
0.025588
0.015932
-0.054192
-0.047517
-0.032663
-0.002185
-0.040869
0.066943
-0.047882
0.117806
0.020434
-0.063114
-0.011177
-0.010661
0.011224
0.088720
0.212136
0.448113
0.784660
1.116604
1.309070
1.478398
1.121950
0.918874
0.491722
0.077253
-0.116425
-0.196671
-0.294574
-0.153903
-0.192090
-0.074531
0.000227
0.072444
-0.060160
0.078065
0.038001
0.035832
0.013719
-0.000218
0.035279
0.074973
0.066301
0.040357
0.104124
0.182521
0.162939
0.081378
0.120184
0.210233
0.125888
0.295271
0.192571
0.276060
0.264367
0.346236
0.373492
0.405830
0.370507
0.359765
0.403490
0.372922
0.537602
0.483285
0.440903
0.466132
0.432177
0.406544
0.506592
0.467070
0.492498
0.414009
0.429578
0.495795
0.438973
0.393989
0.484956
0.458716
0.332459
0.317167
0.305548
0.308570
0.382337
0.306232
0.263241
0.208503
0.172016
0.250703
0.218279
0.159489
0.207577
0.154211
0.083232
0.041665
0.130038
0.027202
0.178248
0.027325
-0.006093
0.023722
-0.044231
0.027154
0.014485
-0.027028
-0.037775
-0.027823
-0.095950
0.009871
-0.028042
-0.068512
0.065702
-0.023092
-0.076422
-0.018520
-0.028229
-0.023819
0.026957
-0.057484
-0.019750
0.025030
-0.088972
0.075747
-0.057324
-0.111173
-0.050569
-0.052631
-0.028468
-0.085348
-0.055280
-0.075050
-0.064094
-0.063338
-0.082338
-0.087752
-0.166815
-0.016481
-0.116099
-0.003259
-0.045530
-0.115899
-0.000829
0.071120
0.009863
-0.009675
-0.076591
-0.028674
0.043495
-0.091124
-0.038733
-0.100545
-0.009944
-0.007128
-0.021671
-0.004896
-0.079969
-0.027009
0.039709
-0.035434
-0.005490
0.009557
0.057797
0.008868
-0.022017
-0.026017
0.108699
0.091717
0.074292
0.089007
0.081589
0.115451
0.098015
0.047497
0.097757
0.152197
0.158313
0.162484
0.198291
0.196353
0.150093
0.079645
0.104766
0.125449
0.135083
0.133624
0.041055
0.147557
0.074969
0.069306
0.051629
0.047530
-0.065962
0.036211
-0.026470
0.054477
-0.037715
0.025180
-0.001042
-0.080423
-0.078944
0.012878
-0.020815
-0.008355
0.033466
0.051608
-0.003050
-0.024557
-0.008654
-0.092080
-0.042951
-0.042319
0.121993
0.263953
0.521257
0.811467
1.256384
1.347737
1.304357
1.108096
0.756410
0.459254
0.049452
-0.193310
-0.243828
-0.302217
-0.182714
-0.033863
-0.074902
-0.016636
0.074199
0.062725
-0.012416
0.083270
-0.023038
0.014412
0.023846
-0.025136
0.085948
0.043019
0.149578
0.136957
0.231256
0.154616
0.166329
0.169151
0.247955
0.204872
0.229740
0.283774
0.258748
0.272994
0.295864
0.338439
0.345808
0.368596
0.470416
0.358977
0.476868
0.500567
0.413030
0.581360
0.415256
0.508236
0.505443
0.507131
0.498285
0.504350
0.493980
0.548689
0.506402
0.450197
0.532306
0.502293
0.480725
0.393004
0.390970
0.357662
0.385471
0.410295
0.313718
0.363747
0.357401
0.261755
0.264601
0.282829
0.249195
0.250574
0.212373
0.221552
0.162490
0.184585
0.146726
0.077073
0.112984
0.114044
0.148025
0.070479
0.069735
0.091143
0.149539
0.064770
0.054392
-0.006642
0.023964
0.062664
0.133556
0.048663
0.046157
0.023083
0.034415
0.097142
-0.081885
-0.035016
0.000812
0.017672
0.098096
-0.019380
0.085847
0.004746
0.126643
0.038708
0.054051
0.104912
0.036457
-0.063014
-0.040697
0.010783
0.066935
0.054539
0.048600
-0.033002
0.065048
0.064348
0.011515
0.096893
0.064018
0.043536
-0.007517
0.010983
0.063360
-0.037537
0.165782
0.094462
-0.039707
0.065291
0.040087
0.020486
0.050187
0.122374
0.106599
0.060479
0.081701
0.052189
0.083527
0.059967
0.055591
0.115162
0.133568
0.095556
0.160518
0.147491
0.093797
0.179493
0.131330
0.189668
0.148529
0.267439
0.228811
0.160405
0.184443
0.293520
0.255602
0.281296
0.253612
0.225390
0.288220
0.310079
0.212650
0.223169
0.213338
0.154715
0.176058
0.196575
0.185136
0.140559
0.160673
0.118668
0.068183
0.097500
0.070537
0.049219
0.107725
0.125693
0.094293
0.062721
0.047303
0.112062
0.027634
0.012666
0.027823
0.073747
0.031193
-0.035535
0.064766
0.066500
0.128055
0.255895
0.440681
0.752297
1.065849
1.312055
1.500000
1.477854
1.209059
0.775964
0.511113
0.168705
-0.040490
-0.178616
-0.161792
-0.137008
-0.033030
-0.032215
0.128886
0.100904
0.108395
0.141754
0.217303
0.125694
0.139896
0.121695
0.127225
0.088281
0.222749
0.151210
0.288377
0.288947
0.256702
0.257284
0.379710
0.246168
0.279530
0.397053
0.353303
0.329325
0.360640
0.411754
0.458890
0.492838
0.616324
0.477257
0.521085
0.556189
0.462690
0.525775
0.595965
0.655254
0.631440
0.689334
0.545493
0.605806
0.593573
0.613849
0.639687
0.588286
0.517103
0.608631
0.491229
0.515739
0.504412
0.477547
0.426675
0.505010
0.482100
0.437133
0.327106
0.299978
0.335430
0.342407
0.348954
0.341081
0.311910
0.244760
0.189743
0.324778
0.280759
0.183428
0.109489
0.204080
0.176674
0.091988
0.147089
0.116404
0.048487
0.098796
0.085386
0.088263
0.170331
0.137949
0.129133
0.163512
0.149575
0.052761
0.088294
0.075368
0.046203
0.176196
0.071481
0.041126
0.136763
0.158652
0.144912
0.041248
0.107453
0.113324
0.039076
0.046107
0.080521
0.060717
0.128908
0.088145
0.137519
0.105001
0.087486
0.046783
0.094708
0.132075
0.088100
0.061949
0.092697
0.033418
0.032531
0.155873
0.100487
0.086779
0.050923
0.081073
0.071074
0.005218
0.097833
0.110488
0.054304
0.103075
0.092075
0.125820
0.073572
0.166398
0.057337
0.144845
0.159862
0.242773
0.040680
0.113376
0.150648
0.200293
0.225046
0.267893
0.197585
0.172721
0.129635
0.143421
0.192152
0.336568
0.204959
0.188813
0.306537
0.172519
0.199209
0.303186
0.294320
0.225113
0.283701
0.210309
0.186771
0.141100
0.217257
0.167429
0.246968
0.129521
0.122781
0.154065
0.186768
0.141090
0.134356
0.062638
0.064221
0.206501
0.109753
0.164876
0.130905
0.015972
0.025833
0.136080
0.009042
-0.000053
0.130920
0.080666
0.093495
0.007029
0.072525
0.160914
0.212403
0.487435
0.707502
1.081543
1.274478
1.434048
1.303514
0.995986
0.863313
0.414904
0.039385
-0.130787
-0.174152
-0.159944
-0.136311
-0.070683
0.053486
0.147961
0.093978
0.142140
0.058445
0.080411
0.164341
0.077820
0.108348
0.191306
0.110625
0.121749
0.169818
0.208102
0.201815
0.256001
0.242170
0.336964
0.293411
0.273718
0.344675
0.282978
0.407842
0.328379
0.452111
0.452245
0.486926
0.523261
0.402406
0.516839
0.447327
0.494334
0.533549
0.485812
0.579918
0.516422
0.601530
0.537769
0.496111
0.553042
0.584439
0.550381
0.531954
0.433259
0.457528
0.428628
0.402581
0.473021
0.342910
0.413441
0.324116
0.429713
0.338315
0.350438
0.360248
0.268453
0.224528
0.260357
0.239750
0.238741
0.176902
0.125425
0.169757
0.157983
0.046551
0.183221
0.141387
0.115883
0.039822
0.067249
0.046112
0.052145
0.034611
0.059630
0.090030
-0.024266
-0.007583
-0.000031
0.065091
-0.030706
-0.010247
-0.076042
0.014001
-0.061105
0.010536
-0.006544
-0.048122
-0.044887
0.045223
-0.037021
-0.007146
-0.017632
-0.020211
-0.027472
0.017741
0.037184
-0.003598
0.018852
0.002814
0.020950
-0.040872
0.037224
-0.008997
0.085180
-0.058426
0.051921
-0.030343
-0.030755
0.056957
0.033585
-0.079820
0.007664
-0.004364
-0.055638
0.028151
-0.027939
0.020047
0.005948
-0.071149
-0.050502
-0.026159
-0.103217
-0.062371
0.024750
0.002668
0.036180
0.101900
0.028838
0.031996
0.025440
-0.026575
0.062051
0.050366
0.048441
0.027595
0.052638
0.078016
0.109036
0.069013
0.098715
0.093687
0.110643
0.163201
0.199800
0.153944
0.089148
0.155535
0.183496
0.215632
0.137525
0.136328
0.111176
0.066290
0.041164
0.078945
0.037466
0.068632
0.019285
0.017568
-0.002070
0.054931
-0.001001
-0.029987
0.033006
-0.012281
0.039984
-0.075388
-0.092740
-0.043516
-0.017959
-0.082919
-0.053088
-0.076115
-0.093235
-0.047912
-0.065111
-0.117788
0.088560
-0.037587
0.215620
0.375934
0.729095
1.039286
1.263831
1.293914
1.135489
0.893922
0.544859
0.188318
-0.113937
-0.270201
-0.313297
-0.226235
-0.235111
-0.163520
-0.023133
-0.010238
-0.030400
-0.017992
0.016536
-0.028405
-0.057697
-0.022296
0.051429
0.055504
-0.009366
0.127587
0.075355
0.111131
0.135020
0.075840
0.113569
0.129369
0.132467
0.205061
0.263320
0.223885
0.192482
0.235966
0.314973
0.309453
0.391433
0.316478
0.392586
0.332882
0.376877
0.337023
0.364577
0.417675
0.441366
0.482693
0.463462
0.496752
0.448244
0.484580
0.440603
0.428329
0.432511
0.321908
0.319452
0.347948
0.432911
0.324522
0.327498
0.330301
0.332427
0.234720
0.240133
0.214826
0.180898
0.143156
0.234102
0.092952
0.125559
0.108497
0.023218
0.064157
0.017793
0.068226
0.023618
0.044212
0.066095
-0.003838
-0.080934
-0.023739
-0.017322
-0.059863
-0.061777
-0.041976
-0.061178
-0.099306
-0.024358
-0.039460
-0.026996
-0.092904
-0.092744
-0.099033
-0.118259
-0.086277
-0.042582
-0.119255
-0.014520
-0.085025
-0.008528
-0.120590
-0.037155
-0.148915
-0.154693
-0.030871
-0.042187
-0.044466
-0.016795
0.005487
-0.101350
0.004684
-0.044343
-0.110328
-0.010681
-0.110898
-0.060886
-0.053577
-0.124100
-0.061019
-0.098838
-0.102642
-0.079726
-0.068920
-0.034241
-0.077154
-0.074358
-0.109873
-0.101415
-0.078199
-0.061293
-0.066794
-0.105632
-0.111327
0.006713
-0.093791
-0.104608
-0.093182
-0.075550
-0.039638
0.037983
0.022585
0.016456
0.017119
0.042173
0.011194
0.044711
0.061153
-0.004701
0.190828
0.078936
0.057833
0.056728
0.102454
0.112774
0.082290
0.145064
0.047343
0.096024
0.014477
0.098992
0.122497
0.044879
0.057455
0.018431
0.114566
0.062682
0.068480
0.083165
0.068952
0.052806
-0.025106
0.035425
-0.044206
0.006324
-0.022659
0.011885
-0.047135
-0.049403
-0.090529
-0.100218
0.059431
-0.048742
-0.177598
-0.033125
-0.083436
-0.077886
-0.089604
-0.044736
-0.013891
-0.013984
0.115008
0.436370
0.788724
1.032910
1.316470
1.354303
1.191533
0.858866
0.520603
0.182749
-0.134427
-0.242953
-0.241015
-0.323629
-0.057675
-0.081293
-0.041212
-0.026683
-0.111562
0.012747
0.003818
-0.015194
-0.013026
0.077215
-0.020992
0.065282
0.044418
0.028227
0.076431
0.127996
0.065882
0.070491
0.173458
0.135711
0.177035
0.163911
0.213424
0.256177
0.299882
0.332978
0.365918
0.309933
0.361869
0.326324
0.373749
0.402867
0.455108
0.482160
0.483917
0.488382
0.383229
0.489531
0.583840
0.488801
0.411704
0.504314
0.467272
0.520863
0.458458
0.437053
0.410304
0.508651
0.401167
0.349790
0.369100
0.344681
0.312996
0.292098
0.320826
0.280005
0.188331
0.248124
0.262571
0.177562
0.163888
0.152787
0.154979
0.044775
0.087283
0.096088
0.074552
0.139363
0.021016
0.037128
-0.007195
-0.003520
0.006972
0.014444
0.108352
0.036425
0.044006
-0.022832
-0.112993
0.039497
0.083686
-0.011317
0.024824
-0.018697
-0.073580
-0.005976
0.117933
-0.062303
-0.096328
-0.095307
0.000311
-0.084126
-0.082697
-0.052937
0.030196
0.022806
-0.044261
-0.043071
-0.027688
0.054611
0.012807
-0.085244
0.022091
0.008548
0.047518
0.011475
-0.016825
0.075989
0.059655
0.000617
0.027080
0.045578
-0.056863
0.037474
-0.022553
-0.001250
-0.026565
0.030871
0.002196
0.050284
0.009466
-0.028382
0.091565
-0.012489
0.022571
0.015180
-0.025188
0.058099
0.118805
0.031630
-0.034397
0.083960
0.125986
0.050774
0.046810
0.060966
0.120469
0.160874
0.106155
0.146225
0.105377
0.222833
0.226968
0.224791
0.109515
0.185915
0.206034
0.283984
0.188349
0.135815
0.172591
0.144158
0.126033
0.188965
0.081513
0.142329
0.174975
0.132658
0.129083
0.143403
0.171119
-0.031753
0.101472
0.054103
0.077974
0.088565
0.100643
0.036842
0.044677
0.046338
0.034994
0.064944
0.103642
-0.009348
0.083307
0.115557
0.031772
-0.086992
0.005963
0.114105
0.219849
0.351757
0.580845
0.992957
1.222238
1.395206
1.390372
1.263096
0.903366
0.459655
0.132371
-0.077643
-0.220619
-0.172951
-0.074273
-0.096113
-0.053735
-0.001050
0.005287
0.037182
0.107040
0.016245
0.160474
0.091365
0.135851
0.195029
0.139590
0.173539
0.109532
0.188479
0.151831
0.201919
0.166521
0.173446
0.220172
0.237046
0.226970
0.329129
0.313563
0.388344
0.403147
0.400496
0.425340
0.437095
0.476327
0.506328
0.499281
0.495544
0.508005
0.544246
0.481771
0.544023
0.537998
0.473583
0.640755
0.621195
0.540013
0.586736
0.489214
0.557409
0.550938
0.473714
0.558426
0.498714
0.441239
0.470385
0.439406
0.356396
0.392367
0.343017
0.351575
0.354270
0.359060
0.269742
0.254172
0.307631
0.235868
0.195983
0.231882
0.126419
0.110846
0.100698
0.174222
0.139927
0.134056
0.170531
0.075632
0.035426
0.053441
0.085315
0.063947
0.053402
-0.009199
0.121251
0.110241
0.012937
0.068539
0.059657
0.112340
0.092214
0.064662
0.029879
0.078808
0.068744
-0.056518
0.087928
-0.072172
0.039432
0.028405
-0.015112
0.063375
0.125624
0.113205
0.053459
0.126272
-0.020504
0.034350
0.027099
0.088416
0.087069
0.091582
0.068265
0.073035
0.043468
-0.057744
-0.021606
0.025818
0.046812
0.035082
0.029414
0.017293
0.013781
0.031407
0.072615
0.073700
0.022392
0.100517
0.090727
0.066865
0.018943
0.119903
0.112004
0.115782
0.071883
0.129716
-0.001492
0.055739
0.093199
0.040329
0.092467
0.126451
0.156071
0.155152
0.202437
0.218237
0.209068
0.252155
0.199446
0.237194
0.231663
0.211590
0.219291
0.203766
0.127971
0.237129
0.135982
0.194740
0.250055
0.229656
0.161862
0.182976
0.114101
0.163743
0.144972
0.090978
0.074994
0.070168
0.074510
0.128615
-0.000311
0.094885
0.039681
0.063110
0.018745
0.036570
-0.034028
0.049173
0.049326
0.037928
0.032568
0.015333
0.082712
0.046830
-0.019611
0.051104
0.058124
0.384208
0.614550
0.937726
1.289504
1.369915
1.289815
1.111766
0.761089
0.358793
0.073150
-0.062117
-0.174532
-0.215178
-0.157713
-0.123910
0.008831
-0.006589
-0.058389
0.088132
0.073718
-0.032435
0.084964
0.064445
0.048382
0.073091
0.121339
0.116002
0.122247
0.103362
0.143534
0.082792
0.153177
0.212762
0.237223
0.220794
0.217139
0.227850
0.272007
0.345458
0.306690
0.359209
0.302343
0.394153
0.328131
0.420963
0.484029
0.384323
0.511443
0.532518
0.472581
0.433503
0.474524
0.484978
0.444993
0.451150
0.527949
0.468722
0.479047
0.492666
0.461718
0.417462
0.441480
0.349173
0.357930
0.401742
0.458031
0.300516
0.314904
0.260291
0.265435
0.211557
0.212751
0.150605
0.198919
0.231203
0.209612
0.038571
0.136452
0.097011
0.036375
0.108520
0.028893
0.022903
-0.051650
-0.024426
0.022089
-0.009348
-0.031134
0.121290
0.051554
0.016589
-0.067224
-0.069374
-0.110243
-0.008123
-0.001424
-0.057017
-0.090161
-0.103375
-0.095861
-0.004210
-0.058185
-0.136368
-0.058074
-0.082313
-0.002192
0.012231
-0.078870
-0.073435
-0.017733
0.036809
-0.031135
-0.044201
-0.002137
-0.007775
-0.077360
-0.015355
-0.051962
-0.074187
-0.127278
-0.023122
0.025304
-0.093953
-0.129901
0.030092
-0.029492
-0.022133
-0.006324
-0.152794
-0.057515
0.018492
-0.045374
-0.150362
-0.121768
-0.042434
-0.079574
0.067590
-0.017814
-0.071869
-0.050837
-0.085352
0.022375
-0.088267
0.043176
-0.023532
-0.022421
0.043098
0.034792
0.002895
-0.061227
0.083962
0.058091
0.057119
-0.026317
0.026648
0.039816
0.100955
0.069627
0.104983
0.084540
0.088578
0.176909
-0.001623
0.106200
0.043883
0.108706
-0.027388
0.099859
0.048436
0.006887
0.045585
0.045403
-0.080351
0.002368
-0.039530
0.028226
-0.058840
0.002780
-0.080676
-0.042385
-0.069233
-0.081252
-0.037221
-0.096599
0.019503
-0.123819
-0.063724
-0.114246
-0.103354
-0.145876
-0.129683
-0.140929
-0.131920
0.088574
0.131171
0.314584
0.656682
0.944622
1.187614
1.290400
1.159788
0.953229
0.598077
0.219944
-0.095584
-0.202066
-0.242638
-0.229382
-0.213630
-0.101564
-0.061382
-0.176072
-0.059100
-0.086341
-0.077874
-0.054268
-0.074875
-0.019578
0.001968
-0.025643
-0.023289
0.044759
0.000840
0.018545
0.107557
0.034234
0.050482
0.104031
0.168734
0.174085
0.167743
0.162639
0.181226
0.253234
0.244446
0.349593
0.270535
0.268352
0.321234
0.340391
0.363044
0.406486
0.386144
0.361705
0.420092
0.431112
0.399004
0.470441
0.380164
0.444597
0.429721
0.428112
0.383069
0.399031
0.341556
0.367404
0.294499
0.362990
0.221098
0.316452
0.258965
0.207697
0.159896
0.243664
0.214497
0.218661
0.174665
0.041362
0.148025
0.130345
0.045103
0.033827
0.121750
0.023757
-0.036608
-0.024699
0.044629
-0.013191
-0.063671
0.020866
-0.049011
-0.035321
-0.130288
-0.022871
-0.002050
-0.041572
-0.164481
-0.040732
-0.050243
-0.182155
-0.116976
-0.042259
-0.099080
-0.042472
0.012829
-0.131471
-0.057619
-0.075890
-0.061701
-0.121872
-0.073465
-0.076911
-0.086138
-0.105611
-0.115088
-0.052221
-0.101725
-0.112836
-0.020098
-0.065995
-0.086806
0.063157
-0.054512
-0.083691
-0.121178
-0.082231
-0.122775
-0.046750
-0.092246
-0.030976
-0.081506
-0.050497
-0.038198
-0.119876
-0.060488
-0.081262
-0.099121
-0.052628
-0.053895
-0.113556
-0.009417
-0.078894
-0.112971
-0.086198
-0.107257
-0.083933
-0.050619
0.017198
-0.155323
-0.055354
-0.074045
-0.025333
0.002337
0.051209
0.100981
0.088457
0.073705
0.084150
0.052457
0.094627
0.098699
0.115372
0.080953
0.113448
0.016120
0.060304
0.153186
0.098276
0.112390
0.041140
0.049775
0.055433
0.079285
0.069448
0.077128
0.051288
-0.006239
0.002553
0.005707
0.011548
0.048716
-0.063924
-0.017263
-0.026682
-0.063678
-0.140767
-0.082526
-0.009415
-0.038396
-0.018595
-0.109386
-0.099222
-0.021059
0.002101
-0.048115
-0.127581
-0.117177
-0.040695
0.065672
0.193389
0.416476
0.702470
0.985791
1.345901
1.406183
1.250692
0.950205
0.563167
0.237074
-0.091632
-0.335630
-0.280538
-0.237540
-0.100995
-0.114900
-0.058857
0.048457
0.005167
0.015971
0.029230
0.018242
0.011102
-0.038242
0.026816
0.063902
0.145212
0.109031
0.051981
0.062078
0.185510
0.197624
0.104944
0.269448
0.205023
0.171715
0.253050
0.266519
0.302559
0.233800
0.354933
0.245636
0.345814
0.392741
0.328068
0.442309
0.428238
0.405878
0.431601
0.510521
0.442243
0.514985
0.447887
0.500583
0.554129
0.442919
0.512327
0.470064
0.433811
0.422786
0.448864
0.518173
0.406542
0.410045
0.440065
0.299119
0.376837
0.420585
0.317575
0.275819
0.293025
0.304880
0.247709
0.218139
0.255774
0.131697
0.166754
0.117261
0.158540
0.089051
0.118612
0.123700
0.096780
0.023085
0.051906
0.059984
0.066017
0.005933
0.025160
0.044670
0.050655
0.009977
0.011378
-0.008036
-0.019236
0.015427
0.011636
0.014243
-0.022208
0.006968
0.041353
0.015451
-0.071593
-0.052495
-0.013916
0.032701
-0.035754
0.023288
0.089341
0.089148
0.052072
-0.018975
0.071257
0.084683
0.000291
0.035448
0.011154
0.028909
0.020446
0.011908
0.057544
0.080042
-0.003435
0.005860
0.017754
0.118684
0.019744
0.049640
0.030779
0.024179
0.038669
0.020736
0.072776
0.072549
0.029370
0.052448
0.046054
-0.039500
0.021016
0.058353
-0.040163
0.065021
0.019813
0.041199
0.121288
0.053042
0.139762
0.214405
0.039974
0.080800
0.125248
0.192127
0.289541
0.196734
0.256493
0.258308
0.118882
0.290558
0.167344
0.211872
0.152693
0.196672
0.228116
0.241974
0.211660
0.193963
0.245660
0.195897
0.253801
0.100404
0.151098
0.214966
0.161884
0.088563
0.119364
0.161716
0.205495
0.130611
0.106691
0.081501
0.055591
0.022595
0.074465
0.025058
0.055902
0.125249
0.063759
0.105141
0.077399
0.031492
0.038294
0.067743
0.042531
0.125876
0.053344
0.300055
0.535953
0.920006
1.177927
1.434064
1.468949
1.254452
0.912352
0.550961
0.168378
-0.000644
-0.097583
-0.106917
-0.145069
-0.062843
0.033830
0.103267
0.083245
0.031869
0.046218
0.083788
0.077145
0.133895
0.112216
0.153064
0.149715
0.169971
0.157254
0.169297
0.197876
0.201700
0.337797
0.314639
0.328965
0.175226
0.282932
0.331259
0.346614
0.330176
0.481242
0.405103
0.476491
0.398333
0.499738
0.520212
0.518535
0.503115
0.510553
0.601956
0.584383
0.557252
0.587666
0.541984
0.587665
0.631506
0.540483
0.542228
0.567590
0.508154
0.547289
0.505056
0.510948
0.501877
0.520638
0.446475
0.425122
0.515537
0.359850
0.441541
0.426718
0.257682
0.385577
0.289944
0.291265
0.270306
0.185209
0.205652
0.237491
0.236568
0.141126
0.197869
0.145777
0.254207
0.178833
0.177390
0.219529
0.116666
0.162908
0.120491
