0.061423
-0.016771
-0.051275
0.010975
-0.037348
0.018162
0.053101
0.012791
0.021477
0.051520
-0.042905
0.025312
0.078239
-0.047693
0.026603
0.032461
0.045256
0.093022
0.017599
0.060326
0.042985
0.095124
0.087405
0.059209
0.032212
0.100594
0.220480
0.105659
0.104887
0.172573
0.145346
0.132057
0.175153
0.179307
0.198292
0.196524
0.155580
0.222075
0.211067
0.223172
0.132899
0.097542
0.244683
0.107881
0.126724
0.039866
0.087205
0.090550
0.126555
0.136347
0.027676
0.166085
0.155133
0.062437
0.104293
0.004397
0.135044
-0.056502
-0.040354
0.051107
0.092351
-0.039843
0.052222
-0.018040
0.075947
-0.004325
0.175990
0.384567
0.543401
0.839052
1.178056
1.275974
1.359292
1.165659
0.887130
0.504843
0.148911
-0.042567
-0.130312
-0.136864
0.001377
-0.037115
0.050472
0.203785
0.116161
0.097955
0.103903
0.144417
0.134519
0.128108
0.146120
0.210105
0.254516
0.207639
0.220497
0.257918
0.320374
0.239655
0.309392
0.354500
0.370938
0.347129
0.441631
0.498278
0.447785
0.450827
0.438124
0.567932
0.466656
0.621408
0.535454
0.578320
0.552940
0.595963
0.459121
0.575756
0.660147
0.565753
0.573231
0.497951
0.577473
0.574627
0.575435
0.519084
0.508385
0.458820
0.449851
0.481767
0.453780
0.381066
0.409998
0.380388
0.327349
0.312952
0.247681
0.373877
0.319841
0.270478
0.241954
0.245085
0.255674
0.205781
0.174186
0.144988
0.151219
0.150136
0.134675
0.184412
0.125313
0.110506
0.190355
0.096071
0.099772
0.139896
0.114230
0.074981
0.102827
0.087825
0.056609
0.094758
0.103991
0.120614
0.081643
-0.035598
0.137005
0.024328
0.041231
0.077798
0.064271
0.111267
0.054024
0.098047
0.121974
0.041835
0.083651
0.105208
0.075254
0.113553
0.072923
0.139629
0.112904
0.118953
0.035429
0.074219
0.054827
0.083229
0.013310
0.139237
0.086106
0.095651
0.192999
0.005552
0.088044
0.040175
0.068705
0.099385
0.109008
0.137758
0.126014
0.212645
0.089502
0.167759
0.201062
0.189958
0.143146
0.173978
0.222008
0.290649
0.252748
0.198020
0.221363
0.224080
0.219003
0.183567
0.225786
0.274106
0.228556
0.278540
0.275424
0.278197
0.266923
0.213297
0.212188
0.168308
0.228937
0.225630
0.176401
0.151633
0.166346
0.192589
0.044438
0.090856
0.095019
0.058034
0.106398
0.093507
0.061240
0.062541
0.048571
0.035138
0.060113
0.067840
0.101506
0.146591
0.099220
0.282743
0.545658
0.700248
1.014307
1.270864
1.430150
1.307615
1.078517
0.724229
0.381289
0.109028
-0.134646
-0.061057
0.006127
-0.016369
0.116093
0.053343
0.141824
0.152647
0.178571
0.148898
0.149061
0.148018
0.161514
0.209185
0.224781
0.195153
0.167172
0.254784
0.247183
0.262911
0.308320
0.337430
0.393075
0.428514
0.372548
0.370228
0.377123
0.416164
0.460862
0.438189
0.462049
0.516289
0.512834
0.509847
0.593064
0.585091
0.674373
0.509367
0.493999
0.519019
0.556309
0.467225
0.598502
0.550311
0.545981
0.540194
0.460107
0.422339
0.433911
0.452460
0.443037
0.344241
0.454461
0.422748
0.388430
0.392937
0.304561
0.284592
0.191133
0.206197
0.177205
0.178471
0.227022
0.213087
0.207223
0.174524
0.168186
0.146028
0.137585
0.097700
0.073046
0.105262
0.067565
0.141781
0.087536
0.050217
0.093599
0.063134
0.040330
0.087185
0.078477
0.090551
0.085118
0.072303
0.000264
0.012184
0.055880
0.063840
0.011730
0.111288
0.081316
0.055964
0.065781
0.030448
0.000207
0.076202
-0.000478
0.117196
0.017039
0.018161
0.074668
0.080409
0.046202
0.040129
0.023289
-0.039953
0.040764
0.110675
-0.005761
-0.024100
0.012130
0.092061
0.047235
0.047623
0.024084
0.117030
0.048169
0.055801
0.037774
0.057767
0.075730
0.075613
0.072433
0.032879
0.071816
0.091695
0.146220
0.158170
0.104236
0.184575
0.195565
0.082745
0.110982
0.128522
0.269965
0.181565
0.171864
0.173782
0.204621
0.170763
0.154018
0.151866
0.111218
0.199984
0.101791
0.141514
0.077380
0.045933
0.052316
0.147795
0.089156
0.012694
0.128478
0.014433
-0.011028
0.072172
0.091584
0.042678
0.000348
0.045981
-0.024276
0.045313
0.085470
0.025607
-0.077224
-0.007663
-0.002063
0.036229
0.257834
0.488995
0.767937
1.038756
1.222241
1.279359
1.102697
0.843188
0.480812
0.141675
-0.055395
-0.229146
-0.169915
-0.057487
-0.032692
-0.009318
0.123964
0.012710
0.070902
0.044962
-0.010882
0.081990
0.092026
0.073305
0.130760
0.128604
0.239325
0.180990
0.200858
0.190244
0.229122
0.288566
0.225144
0.279400
0.318903
0.380535
0.352483
0.278075
0.319766
0.367715
0.385037
0.377703
0.415521
0.412978
0.412645
0.386031
0.494047
0.412712
0.371027
0.447067
0.471217
0.482892
0.470125
0.405832
0.449603
0.437665
0.447981
0.351684
0.386988
0.433589
0.282551
0.401893
0.376898
0.377787
0.287315
0.320294
0.205811
0.216432
0.191375
0.121789
0.137318
0.151786
0.082865
0.178181
0.119077
0.082025
0.085833
0.099771
0.064596
0.055752
0.033269
0.000780
0.051909
-0.015860
0.048633
0.082439
-0.050890
0.004885
-0.042143
-0.065028
-0.030972
-0.053763
0.028818
-0.103221
-0.023037
-0.046032
-0.065166
-0.079666
-0.079040
-0.025115
-0.097602
-0.001903
-0.043377
-0.067091
-0.070527
-0.026543
-0.039553
-0.047935
-0.050456
-0.054172
-0.011674
-0.054590
-0.054699
-0.040405
-0.127721
-0.019764
-0.060796
-0.076847
-0.055446
-0.056663
0.031972
-0.102554
-0.026650
-0.047799
0.021085
-0.031296
-0.059603
0.013498
0.003341
-0.057309
-0.020100
0.062707
-0.034017
0.009148
0.037341
0.026700
-0.012939
0.024989
0.063719
-0.003551
0.064380
0.107729
0.061789
0.104707
0.070428
0.167775
0.158621
0.143508
0.090943
0.108214
0.131236
0.130584
0.115291
0.209210
0.113834
0.081820
0.188389
0.046517
0.039547
0.040116
0.089686
0.149558
-0.033319
0.025409
-0.001167
0.005326
-0.067069
-0.064296
-0.056379
-0.032259
-0.097834
-0.067181
-0.088357
-0.040244
-0.077252
0.019221
0.030920
0.058631
0.151686
0.346550
0.652310
0.969142
1.163651
1.189334
1.266519
0.996009
0.575144
0.269782
-0.035114
-0.141225
-0.145540
-0.249933
-0.041938
-0.084188
0.001109
-0.007213
0.024624
-0.016021
0.028205
0.055755
0.082907
0.007847
0.092743
0.079891
0.124322
0.089101
0.142265
0.162471
0.140961
0.241020
0.203227
0.281516
0.186105
0.268702
0.315567
0.327965
0.356225
0.306004
0.401137
0.322877
0.370892
0.451974
0.457793
0.470910
0.502606
0.484983
0.447852
0.415760
0.462343
0.545459
0.501262
0.489775
0.422513
0.408618
0.386100
0.469588
0.369201
0.385847
0.374963
0.414742
0.271696
0.350115
0.262855
0.281154
0.198361
0.219021
0.219848
0.226657
0.132574
0.166569
0.227707
0.148201
0.063533
0.078755
0.033611
0.097056
0.099449
0.050763
0.037497
0.063419
-0.033174
0.043361
0.034637
0.024209
-0.026485
0.000431
0.038139
0.001961
0.059660
0.010710
0.092304
0.039069
0.007677
-0.089299
-0.007211
-0.028218
0.024477
-0.032433
-0.026646
-0.005807
-0.020633
-0.054125
-0.046637
-0.055812
-0.096548
0.013162
-0.001412
0.054022
0.001420
0.004119
-0.001094
-0.056303
0.041769
-0.042871
0.036322
0.009019
-0.065112
0.065529
0.053555
-0.018982
0.011814
0.023956
0.070889
0.003844
-0.039506
-0.033611
0.056292
0.056822
0.090563
0.052152
0.052674
0.116869
0.102324
0.049280
0.168274
0.173846
0.142266
0.174543
0.172108
0.127177
0.175597
0.223385
0.176110
0.197907
0.147378
0.210066
0.199545
0.160423
0.231049
0.203894
0.167937
0.162430
0.229110
0.151101
0.114540
0.187292
0.232259
0.074716
0.109208
0.142432
0.111357
0.076160
0.135504
0.175182
0.029833
0.039191
0.050994
0.089300
0.040287
0.036126
0.003414
0.047981
0.102724
0.002012
0.046440
0.095230
0.127684
0.209549
0.535188
0.781358
1.054879
1.306080
1.331054
1.198163
0.925240
0.648736
0.338783
-0.057178
-0.097057
-0.073244
-0.086529
-0.026271
0.042736
0.081912
0.172708
0.132837
0.120297
0.194136
0.154567
0.222301
0.128302
0.114906
0.180943
0.227585
0.249622
0.298010
0.343326
0.261864
0.292173
0.415727
0.280566
0.319799
0.354319
0.440522
0.428915
0.437511
0.529704
0.424076
0.511104
0.481150
0.492398
0.499565
0.568398
0.664409
0.630965
0.593319
0.553188
0.501123
0.570412
0.585596
0.514116
0.572616
0.585970
0.493319
0.487192
0.512785
0.523157
0.413864
0.438304
0.369887
0.385850
0.359134
0.336952
0.303932
0.323687
0.294543
0.360439
0.339577
0.266715
0.243731
0.224380
0.192181
0.200774
0.226815
0.177022
0.135818
0.172923
0.167017
0.247523
0.112660
0.190752
0.112875
0.160178
0.124496
0.076070
0.066134
0.113230
0.159064
0.063317
0.042569
0.090071
0.038481
0.041340
0.042037
0.040151
-0.006197
0.128034
0.070205
0.019447
0.125381
0.097220
0.041909
0.117659
0.113327
0.085747
-0.024114
0.105619
0.117310
0.063317
0.171682
0.101497
0.152848
0.025043
0.078633
0.062373
0.102213
0.079035
0.120490
0.181944
0.094286
0.060940
0.077768
0.134887
0.123476
0.120191
0.099374
0.155908
0.175345
0.138007
0.047129
0.187791
0.176349
0.222254
0.246698
0.163099
0.239562
0.173079
0.201566
0.223854
0.196776
0.227610
0.206175
0.266622
0.304123
0.289527
0.309083
0.272052
0.283597
0.264544
0.278762
0.243146
0.207465
0.245524
0.226688
0.186870
0.210068
0.188483
0.213339
0.152534
0.141906
0.186150
0.098677
0.164080
0.111516
0.144396
0.056190
0.187017
0.104127
0.154233
0.132218
0.102920
0.105041
0.097947
0.079802
0.096481
0.186808
0.379504
0.671176
0.995367
1.247702
1.500000
1.361746
1.204829
0.747360
0.483384
0.192388
-0.030136
-0.059766
-0.055883
-0.080049
0.097207
0.122286
0.154640
0.123807
0.090262
0.167065
0.122470
0.191087
0.204028
0.184000
0.171301
0.208342
0.304868
0.301366
0.275352
0.259226
0.400300
0.325745
0.328061
0.370742
0.383548
0.402020
0.389143
0.465335
0.438982
0.516319
0.533769
0.524436
0.518874
0.522804
0.536652
0.573916
0.536248
0.621401
0.595133
0.638728
0.583485
0.531428
0.569552
0.581229
0.584358
0.556854
0.548004
0.533479
0.453034
0.491173
0.503444
0.301771
0.407681
0.427913
0.376690
0.359851
0.398401
0.350408
0.338366
0.334926
0.176823
0.218286
0.173395
0.161455
0.153083
0.157266
0.141039
0.153130
0.172891
0.134517
0.143103
0.156969
0.098119
0.074304
0.028190
0.071182
0.066917
0.067637
0.101121
0.051371
0.118822
0.040763
0.027097
-0.002267
0.080337
0.043714
0.097082
0.059174
0.023640
0.158669
0.093965
0.004660
0.114608
-0.044135
0.066796
0.069543
-0.001045
0.092604
0.011075
0.000212
0.037058
0.049444
0.070495
0.073292
0.079777
0.047698
0.083117
0.075194
0.058273
0.059322
-0.057826
0.074492
-0.004343
0.092324
-0.008080
-0.022250
0.045508
0.078192
0.008699
0.124091
0.059944
0.107147
0.141576
0.105082
0.083833
0.111422
0.152023
0.156835
0.120986
0.200355
0.124395
0.173660
0.271788
0.221793
0.127547
0.198204
0.262957
0.245295
0.186035
0.186197
0.195631
0.186740
0.162975
0.304120
0.176144
0.185665
0.099771
0.092722
0.133542
0.066831
0.175125
0.060495
0.057169
0.082827
0.049962
0.044006
0.089334
0.042815
0.077549
-0.014870
0.072657
0.001194
0.074023
0.066489
0.057628
0.034473
-0.033247
0.135565
0.240843
0.378826
0.729527
1.021322
1.292131
1.336000
1.111713
1.007651
0.573535
0.293537
0.011125
-0.144835
-0.196112
-0.146484
-0.055614
-0.022307
-0.023582
-0.001157
0.085783
0.080955
0.173329
0.057582
0.191002
0.139459
0.109518
0.125139
0.100695
0.144599
0.211098
0.203095
0.204467
0.187309
0.215707
0.287064
0.318475
0.241622
0.364235
0.350100
0.391321
0.337613
0.358672
0.422729
0.435696
0.440752
0.433190
0.433148
0.454052
0.479634
0.500595
0.387395
0.473895
0.467892
0.483921
0.463491
0.439315
0.465673
0.453114
0.315863
0.376785
0.302789
0.393448
0.183980
0.387351
0.260143
0.270507
0.239515
0.195682
0.240981
0.223322
0.232625
0.215782
0.148563
0.103371
0.200692
0.141324
0.012761
0.086235
-0.024737
0.056998
0.065022
0.030988
0.050134
0.007944
-0.013473
-0.064023
-0.073244
0.030068
0.016807
-0.026818
-0.005375
-0.013047
-0.148108
-0.067419
-0.049653
-0.119177
0.021064
-0.026479
-0.078459
-0.017655
-0.063997
-0.083391
0.010674
-0.081172
-0.147930
-0.016105
-0.087624
-0.082696
-0.126782
-0.053678
-0.106322
-0.037271
-0.064208
-0.053864
0.025701
-0.100050
-0.101566
-0.111146
-0.033687
-0.020783
-0.061164
0.052264
-0.040084
0.001466
-0.071230
-0.155653
-0.005797
-0.036349
-0.082602
-0.065425
-0.013586
-0.114151
-0.070863
-0.025840
-0.016240
-0.003260
0.079842
-0.010212
0.005469
0.040749
0.004201
0.050278
0.158148
0.080950
0.051387
0.148534
0.045005
0.077819
0.122921
0.156643
0.175806
0.157657
0.058552
0.102198
0.024952
0.094183
0.076499
0.099513
0.010596
0.053918
-0.004450
0.001773
0.000967
-0.070040
-0.094664
-0.030504
-0.033528
-0.074079
-0.057963
-0.060818
0.036759
-0.071833
0.005860
-0.064539
-0.087883
-0.074747
-0.016255
-0.083162
-0.057940
-0.007149
0.148823
0.478420
0.708101
1.039161
1.286625
1.264310
1.015927
0.681806
0.358821
0.007391
-0.157434
-0.272226
-0.240639
-0.160218
-0.117813
-0.077929
-0.113459
-0.028220
-0.006838
-0.028185
0.022603
0.098846
-0.024240
0.029035
-0.018526
0.023205
0.038298
0.095656
0.049453
0.078331
0.094711
0.229455
0.201758
0.193963
0.207663
0.283654
0.286326
0.363815
0.321398
0.328690
0.338456
0.307530
0.427897
0.375250
0.401860
0.436149
0.422123
0.519322
0.410426
0.405533
0.301746
0.377847
0.371182
0.396906
0.388440
0.338251
0.414431
0.328477
0.393961
0.358782
0.360618
0.363307
0.344955
0.266348
0.203568
0.283202
0.181005
0.165182
0.181821
0.187363
0.091530
0.015578
0.070000
0.039062
0.030698
0.080053
-0.012698
0.069921
-0.035467
0.011327
-0.064723
-0.000924
0.057502
-0.028475
-0.096514
-0.081024
-0.030909
-0.022831
-0.100980
-0.084841
-0.040104
-0.120712
-0.036548
-0.052179
-0.046600
-0.122058
-0.049887
-0.064373
-0.025521
-0.066030
-0.085724
-0.110450
-0.047194
-0.111316
-0.030845
-0.051172
-0.066649
-0.103739
-0.109842
-0.075489
-0.084622
-0.051442
-0.091231
-0.006128
-0.058468
-0.046172
-0.095682
-0.044432
-0.142587
-0.105352
-0.072056
-0.088932
-0.069635
-0.014042
-0.011832
0.003835
-0.041195
-0.102722
-0.058587
-0.003685
-0.088585
-0.035648
-0.016962
0.038725
-0.004350
0.008868
0.038470
-0.023703
0.059371
0.134803
0.040271
0.090515
0.075244
0.059868
0.105513
0.101914
0.150411
0.146668
0.160306
0.116142
0.143561
0.144068
0.155551
0.149500
0.091995
0.061444
0.072702
0.106317
0.058089
0.097215
-0.002078
0.051226
0.009486
0.009943
-0.057679
-0.043898
0.009590
-0.066463
0.004022
-0.093874
-0.005420
0.064493
-0.042913
-0.066087
0.026182
-0.057370
0.006528
0.055671
0.155173
0.329969
0.636529
0.963792
1.123424
1.309291
1.203943
1.025823
0.640842
0.235317
0.025240
-0.256410
-0.196983
-0.072601
-0.111621
-0.074663
-0.065233
0.000369
0.058613
0.158296
0.024573
0.099498
0.040243
0.056565
0.103788
0.094972
0.111576
0.171954
0.280029
0.206407
0.179991
0.239509
0.287140
0.235412
0.307620
0.322536
0.308730
0.274038
0.316255
0.479764
0.358622
0.466724
0.387701
0.423284
0.474068
0.427539
0.580041
0.444321
0.537912
0.482423
0.479330
0.401728
0.502327
0.488075
0.417952
0.523288
0.542354
0.419760
0.472059
0.436672
0.452090
0.338825
0.326493
0.367027
0.270846
0.314083
0.318389
0.222757
0.251226
0.244028
0.136951
0.145545
0.089381
0.175959
0.113457
0.119463
0.221359
0.099630
0.014953
0.111412
0.040060
0.078662
-0.003125
0.028400
-0.011204
0.116083
0.020605
0.067720
0.041688
0.037113
0.062935
0.057406
0.012036
0.014301
0.072708
0.051731
0.085926
0.092349
0.071281
0.021072
0.063975
0.065276
0.066159
-0.014984
-0.012297
0.017095
0.131560
0.031766
0.066687
0.045268
0.048221
0.087905
0.005491
0.108524
-0.006440
-0.026538
0.009297
0.079976
0.070935
0.065924
0.081022
0.036235
-0.022475
0.044218
0.050258
0.004373
0.058889
0.028985
0.103537
0.130929
0.043377
0.053133
0.055185
0.109679
0.106010
0.081290
0.181381
0.079389
0.102501
0.239089
0.146287
0.269006
0.219777
0.200406
0.231721
0.184552
0.230661
0.224673
0.265888
0.143685
0.203032
0.193391
0.203752
0.261252
0.197456
0.154498
0.164104
0.153575
0.094307
0.210879
0.051688
0.074724
0.056936
0.130361
0.062576
0.021979
0.055180
0.106808
0.156918
0.105538
0.051008
-0.004351
0.012555
0.070075
-0.033859
-0.016362
0.051139
0.069417
0.130440
0.320935
0.448190
0.861280
1.163693
1.323972
1.383337
1.197975
0.817538
0.533590
0.254500
-0.031789
-0.172914
-0.110887
-0.085183
0.009819
0.022531
0.115032
0.079189
0.155820
0.074501
0.078871
0.026404
0.131863
0.121633
0.247574
0.103807
0.221562
0.161422
0.293799
0.294138
0.237009
0.267491
0.363070
0.335442
0.382505
0.296146
0.389128
0.423675
0.409537
0.471856
0.494747
0.567665
0.555892
0.480009
0.496795
0.551328
0.472839
0.559865
0.616946
0.485549
0.493920
0.514498
0.530698
0.510711
0.483227
0.477651
0.522300
0.468466
0.492362
0.452317
0.371730
0.422682
0.433048
0.352502
0.315360
0.312802
0.355002
0.273114
0.245940
0.195239
0.268418
0.165171
0.220339
0.164382
0.170657
0.100013
0.079801
0.098061
0.014326
0.105096
0.039655
0.200196
0.090931
0.029720
0.082227
0.115279
0.100618
0.039274
0.083948
0.129768
0.037641
0.009310
0.014761
0.023166
-0.028247
0.051138
0.076330
0.002338
-0.054669
-0.009675
0.006425
0.085672
0.111850
-0.057575
-0.003648
0.010848
0.044234
0.053136
-0.004520
0.008042
0.046642
0.101400
0.056846
0.080083
-0.029696
0.130529
0.024154
0.026334
0.055744
0.022767
-0.001020
0.050180
0.008352
0.059921
0.023533
0.063455
0.020788
0.023990
0.093979
0.035101
0.052886
0.076157
0.032416
0.105011
0.151206
0.110094
0.134434
0.125328
0.114723
0.148246
0.241984
0.166471
0.214664
0.148367
0.188924
0.178681
0.176971
0.175162
0.147898
0.245163
0.180435
0.180156
0.172788
0.198017
0.095992
0.162403
0.128766
0.044438
0.083571
0.099992
0.133304
0.056094
0.108946
0.081886
0.071232
0.131892
0.085302
0.045861
-0.030023
-0.011454
-0.002990
-0.011094
0.038135
-0.016604
-0.007070
-0.011217
0.016473
0.078122
0.184329
0.373518
0.548288
0.871459
1.136071
1.411961
1.232121
1.029642
0.767698
0.458676
0.098081
-0.152622
-0.148568
-0.106697
-0.057358
-0.071724
-0.069497
0.063334
-0.012615
0.023931
0.055694
0.040373
0.082317
0.064268
0.066102
0.180111
0.192458
0.080498
0.134479
0.108629
0.267914
0.204060
0.183002
0.248957
0.272533
0.256037
0.346339
0.344304
0.350561
0.384238
0.347603
0.389943
0.438821
0.540003
0.433009
0.495084
0.447112
0.457044
0.527743
0.541750
0.483378
0.453951
0.485376
0.481172
0.434872
0.529954
0.436390
0.428073
0.351649
0.368913
0.431654
0.387636
0.268503
0.353735
0.351999
0.214083
0.311130
0.199466
0.159641
0.164071
0.167094
0.085421
0.105906
0.053138
0.038223
0.052999
0.078797
-0.010471
0.120910
-0.047989
0.023873
-0.045617
0.038746
0.000845
0.007440
0.006116
-0.018078
-0.080800
-0.029012
-0.096811
-0.037328
0.014596
-0.047069
-0.060329
-0.014792
-0.074419
-0.038772
-0.119612
-0.126237
-0.058260
-0.055596
-0.104764
-0.090737
-0.082860
-0.052949
0.023068
-0.094632
-0.062226
-0.077334
-0.090524
-0.075416
-0.134220
-0.128718
-0.097133
-0.054620
-0.138215
-0.094780
-0.048819
-0.026469
0.006814
-0.109392
-0.035114
-0.042138
-0.022194
-0.067173
-0.124255
-0.064373
-0.154420
-0.018432
-0.058258
-0.044604
-0.021656
-0.026702
0.006434
-0.042464
-0.065652
-0.033006
0.025772
0.082176
0.048262
0.043896
0.052257
0.057432
0.090187
0.074938
0.112965
0.095670
0.137057
0.052717
0.090420
0.120810
0.016224
0.069436
0.048621
0.021699
0.039530
0.080527
0.124275
-0.031954
0.044370
-0.017110
-0.031707
0.019984
-0.051167
-0.071888
-0.056201
-0.141477
-0.042298
-0.116518
-0.040544
-0.064738
-0.066302
-0.035728
-0.117563
-0.053172
-0.104154
-0.049205
0.041423
0.060374
0.139563
0.394695
0.643237
0.987785
1.143448
1.179905
1.096320
0.848866
0.408754
0.136149
-0.132315
-0.260110
-0.296638
-0.204510
-0.221977
-0.030889
-0.093455
-0.087501
-0.011392
-0.049565
-0.038739
0.020878
-0.112244
0.013921
0.044196
0.030105
0.079426
0.161335
0.178488
0.095438
0.058226
0.172174
0.186001
0.202798
0.184821
0.213283
0.141655
0.231545
0.240836
0.239491
0.324541
0.390259
0.341681
0.364846
0.312874
0.373970
0.325709
0.365397
0.421897
0.465576
0.386500
0.398272
0.374278
0.453751
0.326211
0.347662
0.388511
0.392045
0.441394
0.288833
0.240906
0.235307
0.213545
0.165502
0.261285
0.178609
0.132516
0.196044
0.099714
0.133890
0.102101
0.106736
0.078446
0.072964
0.046119
-0.026599
0.033270
-0.015173
-0.007563
-0.085318
-0.059380
-0.017650
-0.020451
-0.059399
-0.051731
-0.075035
-0.076312
-0.041136
-0.093809
-0.068062
-0.093148
-0.040346
-0.050778
-0.021953
-0.100893
-0.120343
-0.131290
-0.153269
-0.095641
-0.043609
-0.047093
-0.094853
-0.113323
-0.073714
-0.070559
-0.082837
-0.050166
-0.085146
-0.072906
-0.027419
-0.099101
-0.130362
-0.061866
-0.057687
-0.136941
-0.184210
-0.020282
-0.033523
-0.102389
-0.126237
-0.056195
-0.129455
-0.071940
-0.021432
-0.086892
-0.083993
-0.088918
-0.126945
-0.069465
-0.000174
-0.034054
-0.021435
-0.030812
0.052421
-0.006664
-0.028891
0.043474
-0.010905
0.068123
0.008243
0.045919
0.067136
0.092678
0.127885
0.063918
0.112207
0.016993
0.007884
0.156394
0.052438
0.123581
0.065387
0.154155
0.097869
0.042800
0.054208
0.100670
0.071605
0.020604
0.003418
0.040203
0.050854
0.017360
-0.070305
-0.024012
-0.039868
-0.070157
-0.080260
0.050071
-0.063715
-0.032960
-0.069040
-0.058693
-0.059793
-0.018361
-0.076982
-0.060741
-0.049402
0.096804
0.234799
0.543063
0.794241
1.093050
1.327791
1.182870
0.982019
0.709294
0.412393
0.078365
-0.162559
-0.187833
-0.253564
-0.221827
-0.149831
-0.078586
-0.044764
-0.018943
-0.030458
-0.044991
0.049481
0.017524
0.093223
0.081343
0.052021
0.155289
0.077122
0.107127
0.116119
0.176039
0.191627
0.175704
0.220955
0.223620
0.260274
0.331828
0.369014
0.339811
0.328992
0.305542
0.412592
0.514219
0.422486
0.446143
0.324220
0.398167
0.492739
0.506102
0.442271
0.572964
0.380377
0.530358
0.444559
0.462901
0.516480
0.410592
0.481080
0.346181
0.385259
0.389407
0.365493
0.338906
0.360467
0.283234
0.328095
0.268280
0.252807
0.216063
0.227944
0.168527
0.175185
0.201405
0.133955
0.105685
0.134010
0.171980
0.111155
0.077977
0.077003
0.107805
0.096410
0.100800
0.044332
0.012632
-0.018888
0.014437
0.075394
0.027910
0.014765
0.015046
-0.083293
0.006719
0.019492
0.097570
-0.046127
-0.008745
0.046480
-0.055117
-0.017619
0.053792
0.073113
-0.005528
0.014156
0.003845
-0.010317
-0.052625
-0.015969
0.033460
0.003434
0.012603
0.041792
-0.026381
0.018403
-0.002108
-0.047254
0.062813
-0.004992
0.003386
0.014226
0.010710
-0.019201
-0.054287
0.011293
0.026399
0.032599
0.082872
0.051991
0.010156
0.044079
-0.016178
0.073102
0.118026
0.084370
0.070692
0.098901
0.095971
0.134694
0.110965
0.182551
0.166972
0.169933
0.115736
0.250292
0.219140
0.193596
0.113628
0.195531
0.165246
0.157343
0.252602
0.282721
0.116108
0.233248
0.173601
0.143096
0.195153
0.166225
0.050746
0.205369
0.048323
0.167754
0.136306
0.017123
0.126148
0.065971
-0.001977
0.029838
0.017522
0.043644
0.075302
-0.036083
0.122570
0.028406
0.016556
0.048209
0.003281
0.089992
0.110224
0.288800
0.452924
0.765547
1.084781
1.252708
1.353777
1.314143
1.009369
0.671736
0.284649
0.040617
-0.122818
-0.125106
-0.133459
0.033075
0.099419
0.101889
0.088707
0.105239
0.112510
0.116919
0.167800
0.156788
0.163271
0.204657
0.211284
0.138072
0.192989
0.273575
0.257712
0.299804
0.338734
0.416081
0.388743
0.359777
0.403659
0.408647
0.418711
0.454048
0.451546
0.414120
0.456386
0.390022
0.393107
0.510270
0.588279
0.591632
0.518065
0.560448
0.640990
0.566573
0.512234
0.534917
0.508557
0.557294
0.603474
0.464665
0.594664
0.403221
0.437544
0.523511
0.423530
0.425036
0.507764
0.378157
0.342490
0.306684
0.276813
0.311128
0.306422
0.226134
0.194791
0.166434
0.239987
0.191184
0.196394
0.187033
0.142139
0.062423
0.152481
0.197517
0.103105
0.084177
0.110641
0.133476
0.087538
0.165681
0.110366
0.069341
0.035259
0.087713
0.109659
0.128422
0.087394
0.097572
0.035017
0.129783
0.015020
0.128213
0.066607
0.117204
0.019700
0.092068
0.091000
0.138829
0.091274
-0.012019
-0.033661
0.037854
0.108684
0.082116
0.024396
