-0.009227
0.033604
0.096738
-0.067411
0.082288
0.010387
-0.035671
-0.045285
0.052973
0.033637
-0.034288
0.040244
-0.025048
-0.009508
-0.038448
-0.050938
0.088227
0.079502
0.076810
0.022899
0.100521
0.060769
0.096733
0.047440
0.031292
0.031002
0.142517
0.099460
0.175225
0.127372
0.097759
0.139895
0.225481
0.106894
0.210766
0.125771
0.221112
0.174351
0.257728
0.216145
0.263216
0.127570
0.106157
0.206844
0.183275
0.138434
0.131602
0.160530
0.165727
0.112654
0.178513
0.101604
0.077126
0.121896
0.063308
0.101529
0.029093
0.042609
0.121318
-0.009366
-0.022560
0.001659
0.087676
0.033665
0.033509
0.029407
0.003604
0.122313
0.056087
0.086855
0.226339
0.405073
0.751764
1.039523
1.305558
1.388822
1.280330
1.113324
0.736044
0.346392
0.130877
-0.081487
-0.167057
-0.164319
0.012665
0.010223
0.102335
0.057823
0.113875
0.169568
0.101711
0.126636
0.067750
0.074941
0.182530
0.149315
0.123396
0.221416
0.177787
0.156290
0.211945
0.285522
0.400842
0.235303
0.313784
0.233241
0.366503
0.435475
0.383084
0.437902
0.391048
0.478266
0.512808
0.501960
0.533271
0.539908
0.592628
0.605386
0.515908
0.668153
0.570117
0.580544
0.637072
0.589645
0.536784
0.576568
0.540210
0.492074
0.532316
0.490402
0.582777
0.483839
0.431386
0.444340
0.467457
0.415420
0.497993
0.407501
0.331627
0.369828
0.334659
0.297758
0.297784
0.232677
0.213213
0.269030
0.241263
0.252215
0.154950
0.154417
0.131854
0.133712
0.138849
0.108630
0.183259
0.033375
0.105047
0.129033
0.081860
0.054878
0.158804
0.120988
0.111854
0.036469
0.111617
0.131586
0.110861
0.044383
0.020301
0.078904
0.033865
0.084435
0.083051
0.147899
0.112680
0.065322
0.111442
0.186930
0.032082
0.036741
0.145127
0.084183
0.130384
0.097561
0.105002
0.049610
0.156190
0.016159
0.143174
0.014475
0.108307
0.069734
0.121083
0.029459
0.050587
0.119871
0.117969
0.145096
0.137583
0.084064
0.186380
0.100100
0.135550
0.118159
0.113250
0.149327
0.129681
0.101595
0.134133
0.104673
0.221646
0.160305
0.113849
0.103673
0.245690
0.274850
0.198391
0.205711
0.210328
0.262442
0.282546
0.169347
0.300168
0.281138
0.228635
0.290564
0.213226
0.295069
0.318092
0.292611
0.178663
0.175908
0.273228
0.240915
0.209223
0.227845
0.193107
0.060021
0.136840
0.145618
0.163795
0.127257
0.139475
0.041652
0.057812
0.113296
0.050675
0.163955
0.080089
0.113789
0.152176
-0.008615
0.050398
0.043676
0.090370
-0.022017
0.148453
0.079888
0.345383
0.618625
0.965112
1.231813
1.467262
1.500000
1.228487
0.979500
0.593507
0.209440
-0.067416
-0.211525
-0.115092
-0.012431
0.034997
0.027495
0.099197
0.125493
0.134922
0.071040
0.067510
0.114646
0.130512
0.120740
0.193247
0.177082
0.132079
0.238345
0.121864
0.251795
0.263957
0.176345
0.320953
0.296525
0.273403
0.343854
0.335040
0.346292
0.434145
0.410121
0.512066
0.444765
0.482200
0.506758
0.550308
0.567062
0.592214
0.554170
0.481803
0.544483
0.510567
0.618522
0.587782
0.642052
0.539116
0.555816
0.519334
0.491225
0.513180
0.469116
0.481531
0.409881
0.440975
0.394570
0.359221
0.412517
0.403822
0.344450
0.300478
0.311880
0.319624
0.232638
0.213467
0.211926
0.292852
0.129243
0.196815
0.127088
0.168006
0.136889
0.166443
0.103852
0.131281
0.097585
0.109861
0.134939
0.028173
0.102564
0.082699
0.121143
0.008922
0.097451
0.081194
-0.040107
0.053606
0.061080
0.048106
-0.011464
0.085285
0.017148
0.116696
-0.022840
0.017566
0.064585
0.071242
-0.000590
0.053710
0.018733
0.004232
-0.048680
0.046656
0.038889
0.065123
0.008509
0.023163
0.000793
0.034657
0.040827
0.105826
0.040249
0.041493
-0.027607
0.015564
0.057290
0.055647
0.003848
-0.042121
0.043189
-0.029066
-0.069431
0.045787
-0.028099
0.017517
0.051218
0.002119
0.075770
0.068043
0.094929
0.122335
0.044605
0.112335
0.027217
0.083065
0.058209
0.140081
0.161710
0.188633
0.133803
0.201307
0.207243
0.191670
0.164493
0.186408
0.147340
0.168854
0.253735
0.188253
0.100331
0.275223
0.118888
0.206405
0.079132
0.147343
0.133375
0.074104
0.071347
0.044551
0.076163
0.106808
-0.030529
0.087415
0.052785
0.068021
-0.023293
0.029553
-0.007582
-0.039006
-0.025912
-0.006785
0.008183
-0.044826
0.045997
-0.038572
-0.117110
-0.032428
0.033632
0.064540
0.168471
0.319977
0.657041
0.949576
1.297702
1.339833
1.297626
1.012415
0.549243
0.273567
-0.025087
-0.160025
-0.191076
-0.266450
-0.110700
-0.016038
-0.051019
0.011641
0.020688
0.078030
0.114684
0.059764
0.054811
0.077069
0.059479
0.041748
0.178226
0.148530
0.138747
0.134455
0.167921
0.150329
0.254568
0.180968
0.238004
0.216381
0.293547
0.302762
0.341433
0.390607
0.242497
0.376502
0.400694
0.445986
0.397931
0.413365
0.397988
0.499113
0.511758
0.487856
0.479193
0.433560
0.432747
0.446670
0.449300
0.474678
0.437272
0.410965
0.445374
0.397301
0.480972
0.366346
0.367682
0.293514
0.361059
0.362797
0.324246
0.355525
0.214887
0.222037
0.259105
0.236993
0.171577
0.144626
0.106317
0.092614
0.115092
0.070187
0.144509
0.017924
0.080409
-0.016331
0.051547
-0.021746
-0.121914
-0.023935
0.003870
-0.015811
-0.062900
-0.069292
-0.016706
-0.003048
-0.017282
0.018150
-0.061583
-0.020979
0.005306
-0.071306
-0.025538
0.094206
-0.020855
0.012579
-0.134288
-0.080782
-0.087128
-0.047988
-0.033993
0.030787
-0.063843
-0.105273
-0.042795
0.003236
-0.035757
-0.029983
-0.031228
-0.058112
-0.017186
-0.044836
-0.054178
-0.068391
-0.016104
-0.052411
-0.045519
-0.104417
-0.026689
-0.099134
-0.049416
-0.121525
-0.024105
-0.029805
-0.037611
-0.060440
0.004022
-0.098911
-0.041313
-0.005469
-0.023713
0.067429
-0.034998
-0.018396
0.016659
0.044557
-0.053643
-0.025054
0.083109
-0.010882
0.086943
0.094862
0.092491
0.129000
0.106841
0.113835
0.135446
0.191042
0.118773
0.146822
0.154233
0.081808
0.204370
0.042203
0.102197
0.141936
0.025009
0.020360
0.029112
0.081259
0.005766
-0.036959
0.101969
0.011595
0.025701
0.016796
0.020746
-0.024060
-0.038203
-0.050550
-0.046414
0.007369
0.041433
-0.057618
-0.038945
-0.104409
-0.020836
0.019997
0.000352
-0.056052
-0.021408
0.063176
0.133999
0.495249
0.801074
1.091963
1.309533
1.344045
1.114618
0.831238
0.417992
0.153743
-0.101956
-0.186752
-0.220097
-0.120823
-0.142755
-0.096211
-0.036212
-0.090739
-0.037606
0.024534
0.057497
0.000944
0.026504
-0.017259
0.115092
0.167999
0.047856
0.094757
0.190953
0.139950
0.197758
0.066027
0.144137
0.229420
0.281059
0.238493
0.297660
0.367378
0.304435
0.334781
0.389695
0.314327
0.408321
0.458114
0.408222
0.445413
0.468266
0.477371
0.456102
0.449817
0.513660
0.477479
0.504301
0.433431
0.452400
0.463188
0.429046
0.430485
0.459311
0.475287
0.451279
0.418049
0.435952
0.344640
0.319503
0.345160
0.266362
0.305459
0.306529
0.276761
0.274533
0.191562
0.271145
0.210383
0.156009
0.189670
0.148391
0.150041
0.078988
0.103495
0.048838
0.089235
0.081091
0.027369
0.023169
-0.025170
0.092599
0.072361
0.034743
0.007722
0.026475
0.016615
0.096761
-0.022669
0.003704
0.027267
-0.003171
-0.012452
-0.021481
0.085997
0.067045
0.007808
0.004900
0.120077
0.025633
0.061737
0.005302
0.035758
0.019069
0.052816
0.039115
0.130193
0.052166
0.085316
0.114343
0.003954
0.035499
-0.038100
0.041463
-0.008547
0.009462
-0.033658
0.054827
0.065075
-0.016458
0.060395
0.064558
-0.046680
0.060300
-0.025534
0.040501
-0.023582
0.043736
0.059237
0.084153
0.029883
0.063822
0.061423
0.037271
0.091229
0.139064
0.129545
0.065340
0.104449
0.147125
0.119398
0.187683
0.178773
0.193938
0.250859
0.174828
0.293959
0.163666
0.223834
0.259440
0.267059
0.298894
0.192469
0.286471
0.247416
0.219360
0.147581
0.123556
0.137123
0.123639
0.089382
0.101437
0.166756
0.033927
0.125562
0.128110
0.104611
0.028898
0.107350
0.078451
0.042324
0.100022
0.107625
0.073001
0.088841
0.065648
0.075907
0.004829
0.077493
-0.044089
0.053863
0.064674
0.257335
0.465491
0.796380
1.131910
1.338042
1.492074
1.383511
1.096730
0.702863
0.375805
0.117878
-0.130313
-0.209002
-0.100969
-0.056800
-0.001641
0.033973
0.108016
0.113916
0.146636
0.199470
0.055956
0.072972
0.126679
0.104629
0.158837
0.145577
0.140260
0.205936
0.166230
0.296931
0.285148
0.304585
0.195237
0.374219
0.354078
0.337506
0.351040
0.401422
0.489409
0.543890
0.484689
0.478549
0.544763
0.572303
0.568997
0.455671
0.531679
0.533327
0.482045
0.593470
0.543372
0.574827
0.598747
0.566016
0.589912
0.603910
0.587227
0.564154
0.553484
0.576119
0.465757
0.459732
0.476844
0.404814
0.494351
0.438143
0.354860
0.330813
0.398117
0.303763
0.338388
0.278630
0.296035
0.234217
0.258818
0.155592
0.182579
0.225820
0.187822
0.172489
0.111287
0.125765
0.082229
0.181998
0.085689
0.204990
0.198105
0.102394
0.100721
0.074836
0.126304
0.075319
0.138838
0.089824
0.045902
0.016790
0.036366
0.094808
0.047806
0.118331
0.061119
0.084473
0.148166
0.136925
0.069986
0.090178
0.023170
0.037659
0.117612
0.047850
0.132825
0.070392
0.103524
0.014048
0.079203
0.078992
0.091461
0.152819
0.115123
0.151046
0.091833
0.114176
0.117259
0.083329
0.068235
0.089646
0.034502
0.230882
0.156884
0.191322
0.104366
0.079158
0.161122
0.193170
0.114997
0.183508
0.152508
0.162311
0.099701
0.183132
0.171683
0.179821
0.162706
0.164355
0.163058
0.263056
0.203765
0.202830
0.221453
0.220149
0.194401
0.267664
0.208423
0.308505
0.237774
0.252459
0.288388
0.177264
0.184092
0.309250
0.302909
0.240375
0.218535
0.210052
0.263073
0.194460
0.191433
0.165441
0.232991
0.162724
0.038742
0.206610
0.119560
0.111771
0.075476
0.124214
0.099348
0.138481
0.056860
0.057324
0.203976
0.010455
0.058420
0.051635
0.057408
0.033889
0.232978
0.375604
0.634607
0.976099
1.206293
1.404777
1.417376
1.151173
0.951421
0.661595
0.238651
0.034945
-0.134504
-0.157606
-0.014146
-0.069014
0.080254
0.101280
0.026156
0.174249
0.142405
0.136431
0.176630
0.073016
0.071718
0.123200
0.213240
0.225809
0.269749
0.192948
0.213603
0.290290
0.289781
0.218391
0.344276
0.436206
0.328787
0.365681
0.365442
0.466737
0.394987
0.464310
0.404851
0.463265
0.484769
0.516264
0.521526
0.471469
0.581030
0.542502
0.584828
0.488308
0.613854
0.531079
0.622031
0.545149
0.560856
0.554800
0.617786
0.464773
0.571605
0.459862
0.500500
0.529095
0.487337
0.380063
0.369827
0.334749
0.393864
0.292340
0.211561
0.255376
0.320070
0.268383
0.228037
0.231866
0.226190
0.131554
0.180975
0.165670
0.121474
0.157823
0.069035
0.087604
0.116310
0.176183
0.106055
0.061726
0.067295
0.030781
0.123332
0.042343
0.097501
0.050004
0.018457
0.069095
0.094883
0.047167
0.012994
0.035086
0.113773
0.100853
-0.002145
-0.044954
0.076953
0.019256
-0.013559
0.048157
0.023292
0.093095
0.059953
0.004323
-0.020828
0.030779
0.004010
0.048812
-0.021662
0.018976
0.015679
-0.055755
0.027617
0.004378
-0.027274
0.027336
0.009640
0.030758
0.007489
-0.040282
0.037753
-0.005822
0.061342
0.073290
-0.016446
-0.092106
0.051839
0.026677
0.073187
0.033283
0.053799
0.044404
-0.009211
0.040643
0.035177
0.031291
0.083244
0.076442
0.102979
0.116828
0.138211
0.089728
0.151485
0.118360
0.151304
0.111454
0.196042
0.104278
0.140501
0.166642
0.133647
0.203377
0.141400
0.107319
0.074250
0.091754
0.136489
0.107032
0.175818
0.106343
0.059462
0.033347
0.086816
0.086705
0.048356
-0.021450
0.001421
0.073604
0.045018
-0.033667
0.038042
-0.020924
-0.065136
-0.083128
-0.040731
-0.027779
-0.042785
-0.104320
0.044245
0.066238
0.112212
0.324885
0.602179
1.012806
1.186089
1.359632
1.313264
0.947697
0.649189
0.291895
-0.001799
-0.218366
-0.228010
-0.135295
-0.197969
-0.126449
-0.076178
-0.075083
0.027178
-0.009366
0.003218
0.020479
0.030366
0.001648
0.039279
0.024089
0.159331
0.045851
0.075803
0.074369
0.085092
0.160539
0.156027
0.212066
0.221501
0.229679
0.224360
0.297885
0.180901
0.271365
0.325532
0.352697
0.373759
0.417655
0.410639
0.437024
0.408312
0.426549
0.505148
0.466016
0.419659
0.497989
0.370328
0.431249
0.547196
0.450964
0.501798
0.388314
0.419072
0.401036
0.347506
0.343046
0.356481
0.356346
0.305129
0.205139
0.249150
0.226396
0.315711
0.275183
0.131560
0.221901
0.170424
0.098028
0.135364
0.117333
0.067038
0.053370
0.062235
0.079571
0.063818
-0.024893
0.103950
0.008309
-0.042447
-0.048028
-0.037449
-0.000851
-0.051688
-0.084302
-0.075416
-0.031191
-0.060459
-0.101668
-0.045062
-0.107655
-0.012090
0.003345
-0.106520
-0.058189
-0.074156
-0.058627
-0.087168
-0.046116
-0.047542
-0.101090
-0.079506
-0.064391
-0.066274
-0.121312
-0.092642
-0.034229
0.038300
-0.164853
-0.103286
-0.009680
-0.096129
-0.006644
0.032311
-0.083991
-0.066712
0.035185
-0.054677
-0.095456
-0.094136
-0.096708
-0.020073
-0.051387
-0.069929
-0.105220
-0.016971
0.029179
-0.027572
-0.009031
-0.020728
0.005645
-0.076608
-0.000776
-0.057699
-0.047058
0.066257
0.022262
-0.093712
0.010830
0.206780
0.070624
0.086400
0.057351
0.000743
0.068275
0.032985
0.101074
-0.008004
0.114383
0.077228
0.090131
0.151564
0.075035
0.065068
0.086930
0.096216
0.095248
0.020814
0.066084
0.064416
0.084573
0.092995
-0.066697
0.098876
-0.012800
-0.034285
-0.011500
-0.086848
-0.073370
-0.018802
-0.043849
-0.052259
-0.036460
-0.104353
0.037454
-0.073942
-0.077061
-0.110637
-0.056622
-0.106657
-0.118740
0.023691
0.079287
0.190625
0.606638
0.805759
1.029384
1.302135
1.223743
1.097112
0.726105
0.390691
0.142611
-0.135692
-0.263012
-0.274378
-0.246661
-0.187971
-0.005599
-0.023433
-0.085864
0.018750
0.065562
0.022108
-0.015425
0.022305
0.068978
0.090578
0.051285
0.042614
-0.017954
0.093380
0.119722
0.137686
0.104737
0.099885
0.134058
0.192365
0.257046
0.237135
0.313105
0.302726
0.358237
0.281861
0.358036
0.383166
0.348582
0.424019
0.394839
0.421490
0.476022
0.379821
0.520936
0.467927
0.440590
0.411510
0.498175
0.464447
0.390868
0.434711
0.431006
0.353405
0.366925
0.367130
0.352271
0.344506
0.283572
0.226652
0.244494
0.280226
0.178361
0.247541
0.219539
0.238905
0.141831
0.136274
0.107472
0.064403
0.155872
0.088215
0.078865
0.011253
0.112668
0.037774
0.012003
0.034398
0.066762
0.006078
-0.000610
-0.015561
-0.063662
0.049103
-0.015471
-0.034669
-0.005228
-0.114862
-0.076693
-0.141357
-0.032215
0.005307
-0.109295
-0.096094
-0.084629
-0.047708
-0.101188
-0.011279
0.021699
-0.045107
-0.045109
-0.043972
-0.007294
-0.003643
-0.053922
-0.025824
-0.017902
-0.043667
-0.002682
-0.079585
-0.052996
-0.050705
0.057086
0.002226
0.016929
-0.068039
-0.079306
-0.069710
-0.004107
0.008632
-0.044461
-0.009032
0.009556
0.036408
0.013660
-0.123464
0.026690
-0.093143
-0.022288
0.041909
0.018470
-0.020552
0.009689
0.021874
-0.001682
0.030023
0.040879
0.096453
0.113177
0.008167
0.133588
0.133879
0.057149
0.180469
0.145917
0.165571
0.195045
0.148175
0.269582
0.095040
0.130891
0.232375
0.131697
0.169434
0.168117
0.185336
0.195179
0.095453
0.060752
0.014406
0.091711
0.066655
0.011450
0.029413
0.047712
0.122902
0.005775
0.057533
0.087586
0.046634
-0.042955
0.031739
-0.023610
0.034412
-0.002397
0.097745
0.013727
-0.054619
0.016223
0.029684
0.036749
0.082534
0.199998
0.450539
0.743938
1.013658
1.299300
1.363027
1.290216
1.016330
0.682408
0.335206
0.026029
-0.147766
-0.142040
-0.180981
-0.086185
-0.046275
-0.022746
0.060512
0.031671
0.084187
0.076906
0.124224
0.066750
0.089816
0.140851
0.144157
0.162111
0.201237
0.065338
0.216062
0.171523
0.237033
0.272841
0.243449
0.241157
0.294699
0.319662
0.391335
0.396694
0.401499
0.410007
0.438004
0.455730
0.468104
0.450545
0.500917
0.444267
0.488036
0.550539
0.457141
0.552550
0.615673
0.546375
0.550923
0.550098
0.565593
0.508286
0.550529
0.484072
0.478994
0.425724
0.402569
0.570524
0.411691
0.413627
0.370365
0.393147
0.351336
0.258195
0.423484
0.301790
0.279652
0.304656
0.159289
0.183621
0.270268
0.173774
0.222151
0.135027
0.188780
0.086412
0.147183
0.095115
0.126215
0.107854
0.147413
0.037980
0.017892
0.053850
0.119448
0.070772
0.049939
0.026747
-0.011992
0.130226
0.084646
-0.039146
0.025359
-0.023058
-0.027695
0.114527
-0.005421
0.002904
0.078607
0.063221
0.005632
-0.002186
0.121301
0.028296
0.125451
0.020045
0.032484
-0.044452
0.126878
-0.018310
0.119612
0.103345
0.041346
0.111635
0.026850
0.089469
0.112905
0.014695
0.067557
0.021783
0.058491
0.063774
0.072290
0.062505
-0.020227
0.092404
0.128736
0.096240
0.092322
0.084755
0.000873
0.150590
0.086098
0.101694
0.053757
0.159673
0.102509
0.076079
0.142726
0.129112
0.175397
0.193354
0.172069
0.190477
0.183202
0.226837
0.197549
0.203603
0.245414
0.246683
0.204783
0.247001
0.213527
0.274642
0.160344
0.147315
0.184587
0.138819
0.132945
0.108903
0.103756
0.170062
0.084281
0.113531
0.108755
0.037377
0.136688
0.046493
0.093175
0.088304
0.035896
0.061201
0.015981
0.075230
0.022031
0.154134
0.045221
0.017808
0.100598
0.052168
0.029889
0.105727
0.155266
0.334788
0.639132
0.857053
1.267968
1.353322
1.421515
1.170786
0.894521
0.583473
0.148758
-0.060438
-0.159630
-0.193569
-0.120104
-0.145488
-0.042468
0.006413
0.101931
0.100226
0.035791
0.167891
0.031985
0.088915
0.071320
0.097138
0.171220
0.126808
0.187819
0.161370
0.251897
0.146031
0.181285
0.168575
0.279601
0.203757
0.282946
0.352570
0.305240
0.422125
0.399709
0.458332
0.463479
0.521201
0.482019
0.462019
0.449261
0.509009
0.484542
0.647615
0.520717
0.501377
0.453836
0.620145
0.593575
0.538511
0.572553
0.497065
0.464920
0.465229
0.550760
0.410670
0.409172
0.528637
0.420407
0.294856
0.400126
0.303045
0.296833
0.298062
0.219563
0.229548
0.246681
0.244322
0.154527
0.182908
0.128687
0.047315
0.103965
0.026605
0.106145
0.081594
0.082668
0.165092
0.027809
0.043058
0.129617
0.010301
0.050228
-0.024421
0.056542
-0.029038
0.009418
-0.027804
-0.011935
-0.001273
0.059783
-0.040041
0.034538
-0.058400
-0.023718
0.001635
-0.036246
-0.023601
-0.103258
0.058896
-0.020512
0.022149
0.037162
-0.058900
-0.053738
-0.032311
-0.035258
0.009057
-0.002219
-0.058886
0.001920
-0.039425
-0.059938
-0.028003
-0.002064
-0.041416
-0.049762
0.005211
-0.048135
-0.041442
-0.058006
0.040182
-0.007486
-0.039864
-0.075852
-0.114264
-0.057390
-0.087237
0.005037
-0.037817
0.066789
0.051175
-0.060064
0.034758
-0.004356
0.022964
0.088359
-0.029827
0.104661
-0.012126
0.114171
0.010085
0.101935
-0.000268
0.168285
0.132523
0.160812
0.147005
0.133703
0.121418
0.127076
0.078921
0.186783
0.126504
0.101316
0.070122
0.125676
0.078840
0.057844
0.022363
-0.018596
-0.036962
-0.004183
0.043622
-0.076652
-0.037233
-0.080930
0.026591
-0.022593
-0.031819
-0.114898
-0.037763
-0.049734
-0.098513
-0.088657
0.023181
-0.050559
-0.057273
-0.023260
-0.073478
-0.098301
-0.047758
0.098484
0.259483
0.599431
0.885552
1.140017
1.318704
1.250853
0.988048
0.665724
0.199447
-0.120274
-0.222218
-0.296533
-0.244196
-0.112873
-0.132926
-0.119756
-0.124132
0.019022
-0.015147
-0.021512
-0.013986
-0.016140
0.083477
-0.064518
0.015420
0.034387
0.051052
0.187079
0.140478
0.093573
0.190398
0.194136
0.140707
0.209504
0.180170
0.291679
0.301134
0.266604
0.270776
0.342020
0.333350
0.304713
0.318276
0.391859
0.460188
0.358909
0.380304
0.439757
0.427300
0.440025
0.402542
0.394260
0.527269
0.376243
0.387188
0.465569
0.392745
0.415380
0.458624
0.412134
0.332350
0.342601
0.290691
0.286633
0.294848
0.218744
0.271744
0.269848
0.213852
0.092562
0.136654
0.124611
0.093172
0.018119
0.047063
0.109609
0.001309
-0.008548
-0.022819
-0.011676
0.024312
0.009425
-0.039993
0.023435
-0.059616
-0.082484
-0.095035
-0.097284
-0.253427
-0.113285
-0.068298
-0.073917
-0.080845
-0.109351
-0.152592
-0.016169
-0.064813
-0.174332
-0.132984
-0.134390
-0.034392
-0.129550
-0.037612
-0.103506
-0.072088
-0.048389
-0.130963
-0.093705
-0.104710
-0.110103
-0.061178
-0.098731
-0.147288
-0.074348
-0.043449
-0.046273
-0.135087
-0.088272
-0.025263
-0.082191
-0.009669
-0.154147
-0.122778
-0.083485
-0.034994
-0.041586
-0.118652
-0.152316
-0.116917
-0.046332
-0.103273
-0.095287
-0.159275
-0.058023
-0.046146
-0.119556
-0.141680
-0.038459
0.017147
-0.039505
-0.049636
-0.011857
0.008800
0.067553
0.011110
0.065084
0.002520
-0.004889
0.059709
0.063892
0.089120
-0.001268
0.104514
0.081143
0.064910
0.017965
0.113403
0.074935
0.039942
0.103811
0.009515
0.053475
-0.032102
-0.002798
0.028050
-0.006609
-0.032532
0.103150
-0.052119
-0.095588
-0.068839
-0.053757
-0.006822
-0.107280
-0.096700
-0.100917
-0.076962
-0.061321
-0.020259
-0.039738
-0.109935
-0.078761
-0.153251
-0.118581
-0.108971
-0.036893
0.022551
0.191124
0.441228
0.725385
1.086352
1.210127
1.339300
1.071556
0.773333
0.454044
-0.005651
-0.177453
-0.348851
-0.320967
-0.250485
-0.142045
-0.130547
-0.098966
-0.079635
-0.094816
-0.032765
-0.006887
-0.076765
-0.031305
-0.104048
0.049143
0.011852
0.144555
0.044217
0.010787
0.068517
0.109462
0.077166
0.156274
0.138975
0.167976
0.270449
0.150051
0.280506
0.310271
0.218204
0.258613
0.320714
0.303610
0.300389
0.372795
0.437457
0.424808
0.418919
0.464293
0.393913
0.462491
0.452818
0.500184
0.497881
0.437304
0.371395
0.471584
0.353968
0.361841
0.440868
0.332110
0.295535
0.339131
0.369725
0.325538
0.353636
0.206508
0.303555
0.128765
0.165754
0.200526
0.121794
0.043263
0.183605
0.112356
0.130166
0.087294
0.062859
0.006130
-0.048596
-0.047434
0.015830
-0.020186
0.012111
0.007011
0.009749
-0.007433
-0.053663
-0.060954
0.007726
-0.005226
-0.028814
-0.087516
-0.081775
0.028630
-0.090194
-0.128032
-0.039502
-0.010161
-0.068211
-0.043595
-0.138353
-0.063990
-0.037687
-0.108047
0.046997
-0.035155
0.001595
-0.061582
-0.024046
0.018192
-0.037096
-0.106017
0.023101
-0.047916
-0.074684
-0.074439
0.070785
-0.107566
-0.003944
-0.011948
0.029915
-0.054547
-0.092502
-0.022501
-0.038865
-0.095862
0.072777
-0.007942
0.024515
0.014117
0.009358
0.012959
-0.069280
0.083727
0.043684
0.090844
0.027523
-0.022449
0.051024
-0.013470
0.069887
0.125208
0.070179
0.040904
0.092601
0.068736
0.148329
0.145170
0.131101
0.213595
0.223821
0.128499
0.139736
0.176512
0.074228
0.185036
0.239017
0.130196
0.123848
0.128698
0.122868
0.054703
0.109436
0.064603
0.101919
0.074727
0.062372
0.071830
0.009568
0.009854
0.102829
0.039012
0.041242
0.040414
-0.014877
0.124788
-0.007866
0.072611
0.031653
0.005021
0.038133
-0.037505
0.052189
0.035219
0.040026
0.013267
0.191821
0.374384
0.664234
1.044802
1.238927
1.344522
1.295108
1.081262
0.657917
0.270677
0.105803
-0.101930
-0.225898
-0.026428
-0.057815
-0.044979
0.068852
0.140597
0.008837
0.104437
0.092968
0.114055
0.158527
0.118516
0.171983
0.066187
0.167970
0.166676
0.204919
0.177589
0.108593
0.121073
0.285686
0.269760
0.351059
0.358573
0.367940
0.353381
0.380896
0.433738
0.384976
0.443208
0.409204
0.475580
0.493257
0.466284
0.432256
0.545343
0.442747
0.457623
0.499102
0.483304
0.528368
0.536975
0.537496
0.536818
0.514895
0.531759
0.507823
0.425356
0.513028
0.423308
0.453529
0.437657
0.349808
0.429081
0.424965
0.377726
0.363325
0.262832
0.232878
0.242392
0.244666
0.158628
0.220454
0.180645
0.213821
0.256626
0.112203
0.198839
0.183174
0.140386
0.120649
0.074907
0.134477
0.023700
0.114861
0.127714
0.086277
0.073547
0.089874
0.017653
0.044133
0.051459
0.037594
0.044378
0.081275
0.028899
-0.016268
0.034098
0.086208
0.010255
0.082964
0.081693
0.057699
0.092956
0.096498
0.089060
0.082567
0.079142
0.082803
0.000778
0.144410
0.063522
0.025317
0.012210
0.088680
0.049074
0.096015
0.011857
0.071925
0.118662
0.076981
-0.004839
0.168283
0.025794
0.023654
0.089872
0.083201
0.027359
0.146590
0.123278
0.072042
0.030505
0.095327
0.048793
0.088022
0.114933
0.134157
0.159206
0.173632
0.101339
0.057752
0.115319
0.174212
0.157477
0.198934
0.108086
0.224861
0.268116
0.273542
0.253170
0.208675
0.277314
0.266019
0.267396
0.258882
0.255477
0.212503
0.265757
0.189885
0.302797
0.269350
0.144984
0.223142
0.112902
0.113652
0.186303
0.125533
0.169876
0.129397
0.119952
0.124922
0.185316
0.069836
0.024991
0.141790
0.159825
0.151209
0.070836
