0.005596
0.012823
-0.049127
-0.019809
-0.090911
0.074232
-0.031272
0.004371
-0.092644
-0.005988
-0.037095
0.061706
-0.047277
0.021613
0.022115
0.054291
0.019805
-0.013210
0.023517
0.137237
0.022261
0.089893
0.037855
0.063039
0.097900
0.073477
0.069113
0.050089
-0.025640
0.129098
0.073216
0.073547
0.161993
0.152841
0.180470
0.086997
0.196495
0.073921
0.126556
0.202788
0.165467
0.142756
0.199170
0.184099
0.241086
0.150279
0.223949
0.288315
0.193187
0.129442
0.146411
0.155912
0.037590
0.141160
0.137445
0.026507
0.075096
0.074247
0.064324
0.150254
0.137053
0.092895
0.046834
-0.008198
-0.015073
0.036218
0.102814
0.133677
-0.046435
0.034377
-0.028491
0.007292
0.058271
0.036631
0.038475
0.014592
0.130894
0.181174
0.391202
0.648105
0.976044
1.259727
1.500000
1.415744
1.217953
0.880622
0.459271
0.189490
-0.094149
-0.163097
-0.137165
-0.075396
-0.018523
0.057808
0.104131
0.020155
0.110410
0.128047
0.083652
0.007710
0.079628
0.051722
0.124821
0.165885
0.142865
0.152577
0.210311
0.210164
0.148367
0.144978
0.234490
0.223553
0.201819
0.233088
0.191083
0.239808
0.342413
0.377931
0.336478
0.401325
0.437006
0.401359
0.475107
0.489917
0.507409
0.485414
0.544141
0.563847
0.622023
0.637889
0.602065
0.589008
0.538606
0.634703
0.571908
0.607673
0.529137
0.672742
0.518681
0.572177
0.597030
0.614806
0.424156
0.443955
0.557634
0.486126
0.473186
0.422578
0.359254
0.346414
0.384955
0.314248
0.355589
0.382745
0.318683
0.205445
0.324571
0.169091
0.215572
0.215692
0.164424
0.178034
0.257883
0.224095
0.146440
0.158518
0.217257
0.197522
0.050019
0.035076
0.027789
0.104725
0.135273
0.128213
0.035791
0.111057
0.073826
0.061043
0.021313
0.010735
0.113106
0.079004
0.107555
0.200757
0.080607
0.125447
0.075155
0.092256
0.117931
0.028230
0.041828
0.063416
0.038712
0.091250
0.106583
0.092264
0.107289
0.084211
0.129125
0.132740
0.120135
0.162160
0.110848
0.107370
0.104787
0.043333
0.101494
0.018959
0.041143
0.051687
0.114397
0.122332
0.154296
0.100640
0.139259
0.019027
0.131128
0.113805
0.100733
0.170090
0.158979
0.059289
0.022694
0.097663
0.121908
0.062059
0.096714
0.176712
0.035602
0.113302
0.168348
0.078624
0.184657
0.121473
0.173717
0.089795
0.203111
0.189066
0.138107
0.216524
0.171573
0.261693
0.259115
0.301094
0.235491
0.261067
0.368723
0.233208
0.232363
0.213172
0.256194
0.154800
0.240043
0.280468
0.195979
0.264725
0.200679
0.230283
0.192476
0.100188
0.142776
0.139914
0.256140
0.131581
0.007416
0.065038
0.157188
0.021507
0.092806
0.058566
0.106429
0.073729
0.020564
0.091416
0.055983
0.082028
0.081020
0.052399
0.088130
0.000868
0.035215
0.067050
0.187897
0.260982
0.499355
0.879406
1.166585
1.436474
1.455400
1.398390
1.086544
0.637588
0.312310
0.033967
-0.112540
-0.172529
-0.091658
-0.051734
0.030697
0.073689
0.101426
0.080559
0.027940
0.020418
0.103288
0.153041
0.212566
0.159830
0.087162
0.065801
0.093762
0.109749
0.185648
0.188764
0.146063
0.228312
0.226411
0.136755
0.226896
0.252474
0.225554
0.349456
0.285094
0.285487
0.395050
0.328093
0.344832
0.453656
0.470626
0.492047
0.542409
0.533271
0.515080
0.602506
0.587342
0.560954
0.539430
0.441399
0.553148
0.517248
0.524977
0.607479
0.437395
0.484239
0.519096
0.518121
0.539913
0.530072
0.409025
0.456515
0.385315
0.385590
0.312510
0.387184
0.340054
0.369122
0.296968
0.260360
0.248024
0.249423
0.250676
0.277644
0.197882
0.193305
0.231556
0.172347
0.160383
0.037713
0.059895
0.125480
0.132608
0.002560
0.001338
-0.023495
0.081679
0.101592
0.120086
-0.012459
0.054617
0.153769
0.065175
-0.034134
0.023903
0.041556
0.075360
0.045250
0.032179
-0.029201
-0.060346
0.046514
0.031867
0.134002
0.076577
-0.009709
-0.004710
0.075754
0.081833
0.062948
0.104488
0.022344
0.074804
0.010985
-0.018998
0.110499
0.120995
0.032958
0.067129
-0.008724
-0.027182
-0.019121
-0.011578
0.055183
0.003836
0.033397
-0.054966
-0.011174
0.002510
0.000001
-0.053801
0.098585
0.069183
0.031973
-0.033274
-0.008473
-0.036152
-0.075600
0.054005
-0.055533
0.025120
0.000512
0.054002
0.001910
-0.097446
-0.047169
-0.058395
0.006836
0.028137
0.055444
0.022782
-0.050259
0.006249
0.170820
0.079336
0.131887
0.079117
0.086773
0.059201
0.150433
0.170326
0.075637
0.135540
0.209816
0.167938
0.164994
0.167377
0.142788
0.119831
0.117999
0.076958
0.130946
0.107450
0.137182
0.036679
0.184421
0.128168
0.017990
0.075208
0.025493
0.082802
0.028068
-0.049501
0.044573
-0.003876
0.016631
-0.002783
-0.039969
-0.047965
-0.017327
-0.060581
-0.014399
-0.028104
-0.067409
-0.071170
-0.099455
-0.116426
-0.127658
-0.020518
-0.046903
0.185651
0.279698
0.626597
0.903948
1.256847
1.426025
1.417115
1.030326
0.780610
0.390037
0.022585
-0.182599
-0.273681
-0.301791
-0.159184
-0.164563
-0.101335
-0.007338
-0.071981
-0.019106
0.046390
0.008709
-0.009456
0.046300
0.086273
-0.019954
0.024110
0.000379
0.013663
0.099304
0.090371
0.079377
0.136683
0.131760
0.144513
0.120592
0.261970
0.173720
0.142750
0.274500
0.276932
0.161532
0.286671
0.344685
0.290557
0.285953
0.331678
0.413599
0.359636
0.352318
0.402957
0.463192
0.421307
0.495722
0.429112
0.496731
0.591326
0.424881
0.466674
0.460829
0.391557
0.437871
0.535684
0.414281
0.418045
0.448653
0.393107
0.379413
0.339985
0.272459
0.273249
0.216781
0.247066
0.222336
0.220962
0.213795
0.261086
0.199299
0.167902
0.165899
0.094220
0.076979
0.092226
0.068849
0.037141
-0.027973
-0.017860
-0.048157
0.003649
0.045225
0.003781
0.029025
-0.044732
0.008845
-0.031223
-0.110695
-0.014361
-0.025576
-0.068785
-0.031134
-0.006834
-0.074127
-0.047919
0.016001
-0.046392
-0.039055
-0.100576
-0.093770
-0.072035
-0.059864
-0.084503
-0.030768
-0.060744
0.081346
-0.067478
-0.035037
-0.151323
-0.027533
0.031164
-0.052678
-0.006431
-0.041497
-0.162198
-0.059695
-0.037391
0.059611
-0.025079
-0.014415
-0.079937
-0.074390
-0.075705
-0.008951
-0.079477
-0.032329
0.003631
-0.007460
-0.049796
0.015417
0.043825
-0.046447
-0.107827
-0.009995
0.004682
-0.061155
-0.023403
0.053081
-0.121217
-0.065437
-0.068090
-0.064443
-0.034436
0.015566
0.025987
0.030109
0.032072
0.096631
0.030728
0.041095
0.095511
0.097300
0.194713
0.075674
0.111972
0.108436
0.028169
0.130545
0.152330
0.156103
0.169605
0.182250
0.217871
0.080047
0.146297
0.135356
0.095120
0.064281
0.146347
0.146328
0.121817
0.131000
0.035502
0.132315
0.029311
0.076429
0.035447
0.099046
0.104720
-0.014234
-0.028268
0.036648
-0.018419
0.010464
-0.028694
-0.001422
0.093440
-0.009134
0.008990
0.024056
0.081292
0.061522
-0.024450
-0.016624
-0.016267
-0.013681
-0.026238
0.041416
0.216443
0.413625
0.745343
1.101554
1.423555
1.408595
1.266523
1.016806
0.568771
0.259069
0.025609
-0.285024
-0.217904
-0.178530
-0.126058
-0.043092
0.031619
0.133320
0.073771
0.002271
0.014685
0.063005
0.030285
0.060531
0.096603
0.085546
0.077410
0.098860
0.160191
0.164041
0.080484
0.098325
0.092298
0.144726
0.138881
0.199028
0.191024
0.108883
0.232882
0.362656
0.352899
0.343382
0.242162
0.366045
0.406541
0.388073
0.435113
0.449531
0.484823
0.505128
0.529677
0.534698
0.509835
0.518496
0.503606
0.539140
0.574997
0.597439
0.610511
0.598851
0.514431
0.552310
0.497380
0.533944
0.449539
0.442649
0.433053
0.409543
0.367568
0.351422
0.417933
0.341254
0.298606
0.366319
0.235251
0.294999
0.272757
0.235247
0.224211
0.149693
0.240218
0.101915
0.065347
-0.002484
0.161225
0.146384
0.134684
0.074950
0.169983
0.085458
0.082267
0.020990
0.095205
0.034347
0.072854
0.013286
0.045001
0.128101
0.077981
0.118370
0.041846
0.004070
0.056282
0.008820
0.101863
0.041387
0.087485
0.016980
0.012042
0.192726
0.030301
0.150513
0.056471
0.038855
0.092437
0.059789
0.018715
0.103767
0.064228
-0.011471
0.036347
0.074626
0.151509
-0.019068
0.069306
0.033658
0.096386
0.009359
0.062862
-0.003442
0.030160
0.095919
0.062365
0.035542
0.023822
0.005225
0.145794
-0.072218
-0.012719
0.121575
0.031061
0.116926
0.108524
0.156934
0.039969
-0.027324
0.113636
0.055848
0.130877
0.074679
0.122625
0.088557
0.127033
0.092210
0.068853
0.186641
0.165446
0.114684
0.210420
0.112416
0.177451
0.187999
0.302159
0.201834
0.232296
0.259627
0.171906
0.229631
0.226805
0.251193
0.359419
0.210997
0.288202
0.215174
0.275877
0.199571
0.192472
0.193722
0.212534
0.229075
0.169751
0.127293
0.139149
0.158061
0.146972
0.142719
0.177383
0.127912
0.122256
0.170726
0.064251
0.155302
0.155411
0.155701
0.036333
0.044340
0.090374
0.027266
0.085671
0.100110
0.074911
0.078391
0.068660
0.120488
0.092747
0.249488
0.444591
0.720834
1.122010
1.363038
1.449320
1.380350
1.195699
0.832074
0.560921
0.071752
0.008785
-0.206603
-0.193412
-0.087549
0.029713
0.119752
0.019524
0.056071
0.173665
0.058228
0.043869
0.174753
0.207611
0.212729
0.109993
0.139262
0.179434
0.071518
0.234527
0.185212
0.196667
0.252852
0.269592
0.245196
0.270068
0.327744
0.290533
0.323318
0.429390
0.420852
0.362142
0.431185
0.496511
0.462108
0.383805
0.513401
0.475679
0.520286
0.498382
0.552066
0.626592
0.553892
0.570122
0.600207
0.578289
0.583314
0.585893
0.601298
0.650595
0.611565
0.574152
0.588745
0.523497
0.520963
0.528883
0.543190
0.431811
0.456949
0.483562
0.431290
0.402498
0.416292
0.462067
0.372363
0.330441
0.283085
0.277853
0.285378
0.202026
0.296690
0.171256
0.243411
0.219524
0.243447
0.058410
0.133633
0.103780
0.157918
0.138291
0.052279
0.106135
0.148377
0.151645
0.100282
0.104890
0.098317
0.116577
0.051212
-0.003300
0.052105
0.077975
0.114880
0.072727
0.018907
0.104002
0.091740
0.115083
0.096160
0.093580
0.056290
0.096094
0.095802
0.063258
0.149340
0.139984
0.057729
0.114427
0.128465
0.088686
0.137500
0.094674
0.092641
0.014282
0.096307
-0.020120
0.096209
0.079285
0.054435
0.029167
0.082040
0.055626
0.059501
0.093241
0.046250
0.098492
0.040237
0.097048
-0.019361
0.063043
0.048294
0.159664
0.089532
0.043677
0.098946
0.061458
0.112664
0.082631
0.047994
0.060004
0.100980
0.101085
0.187913
0.007978
0.101493
0.127222
0.165828
0.151244
0.127250
0.145713
0.121405
0.176055
0.242883
0.192482
0.245803
0.176318
0.200353
0.260629
0.199631
0.191354
0.240961
0.225255
0.234472
0.180417
0.234319
0.216108
0.059968
0.182445
0.276739
0.053875
0.062998
0.120682
0.076627
0.135677
0.175732
0.128406
0.105729
0.027634
0.099468
0.098999
0.096737
0.010335
0.063915
0.024152
0.017291
0.096204
-0.021884
0.008752
0.054770
0.045946
0.056382
0.028862
0.015264
0.011691
0.037367
0.111490
0.181574
0.572549
0.823021
1.160307
1.443466
1.381741
1.288368
0.955947
0.661579
0.239840
-0.081450
-0.175975
-0.215941
-0.190833
-0.165121
-0.073226
0.008800
-0.008488
0.076446
0.042522
0.019752
0.042434
0.039787
0.038783
0.160981
0.064733
0.100135
0.157858
0.068042
0.083981
0.100442
0.083164
0.173123
0.193650
0.172282
0.246099
0.341230
0.256486
0.336806
0.283761
0.253147
0.244902
0.334864
0.314088
0.357059
0.355877
0.385158
0.436075
0.508157
0.445905
0.480186
0.508821
0.487455
0.498658
0.502795
0.514510
0.564379
0.417982
0.477446
0.456768
0.506858
0.539739
0.489004
0.431996
0.426146
0.298127
0.431107
0.432413
0.334343
0.383377
0.301689
0.277505
0.237326
0.240618
0.168371
0.287555
0.144636
0.140359
0.170737
0.136959
0.062377
0.130604
0.064159
-0.039602
0.106762
0.053056
0.030097
0.019184
0.082461
0.046144
0.021005
0.063695
-0.003388
-0.063948
0.008417
0.022447
0.034478
-0.048702
-0.047957
-0.012811
-0.077980
-0.031760
-0.076967
-0.019011
-0.030417
-0.021079
-0.069377
-0.020013
-0.056361
-0.032768
-0.037640
-0.065189
-0.030561
-0.085635
-0.060170
-0.015163
-0.132942
-0.025792
-0.095186
-0.054300
0.005423
0.009835
-0.013975
-0.115358
-0.033339
-0.111758
-0.123158
-0.019718
-0.090643
-0.019627
-0.096724
-0.008853
-0.019522
-0.071036
-0.015305
-0.082792
0.009324
-0.094038
-0.028123
-0.130801
-0.098254
-0.022449
0.019413
0.009283
-0.026730
-0.078750
-0.069479
-0.047178
-0.030292
-0.016216
0.000559
-0.069735
0.054604
-0.017931
-0.044017
0.067367
-0.026175
-0.026871
-0.029438
0.051647
0.092730
0.174132
0.149441
0.108087
0.110783
0.146106
0.153836
0.114980
0.081844
0.112811
0.103126
0.034027
0.059900
0.171836
-0.026968
0.086801
0.103912
0.048002
0.053758
-0.017516
-0.015788
0.009990
-0.012912
0.061981
-0.030378
0.087020
-0.022547
-0.062163
0.001625
-0.042664
-0.058450
-0.081257
-0.149046
-0.071372
-0.102180
-0.083451
-0.147624
-0.092298
-0.036239
-0.060398
-0.037019
-0.105684
-0.111775
-0.067454
-0.066838
0.148755
0.376071
0.627538
0.872107
1.205833
1.271671
1.215921
1.000357
0.674651
0.300008
0.060369
-0.219802
-0.286579
-0.330443
-0.248334
-0.152084
-0.126238
-0.062314
-0.006157
-0.112500
-0.103163
-0.065986
0.000936
-0.095454
-0.094725
-0.011324
-0.036840
0.043002
0.007522
-0.017542
0.016133
-0.009603
-0.020858
0.026807
0.119165
0.091912
0.166905
0.145556
0.146844
0.208817
0.160583
0.267623
0.216114
0.273119
0.227582
0.336832
0.280939
0.252305
0.343819
0.300363
0.429536
0.432563
0.423807
0.435670
0.327034
0.403967
0.342599
0.368756
0.503414
0.402708
0.357656
0.457978
0.363125
0.404172
0.376814
0.316999
0.303808
0.377420
0.291522
0.305176
0.219846
0.313902
0.263812
0.274671
0.154215
0.199025
0.149163
0.077946
0.114538
0.072541
0.075631
0.077098
0.003306
0.063132
0.092694
0.027128
-0.018618
0.015760
-0.035969
-0.125388
-0.102810
-0.045144
-0.063764
0.026953
-0.070906
-0.093225
-0.050434
-0.074379
-0.110011
-0.056057
-0.023062
-0.134452
-0.057349
-0.047457
-0.037192
-0.112048
-0.000897
-0.122500
-0.054662
-0.114785
-0.082355
-0.063100
-0.078957
-0.052366
-0.139906
-0.110277
-0.077673
-0.023325
-0.065805
-0.003737
-0.061386
-0.060015
-0.092871
-0.154204
-0.045494
-0.113626
-0.025052
-0.037480
-0.094140
-0.026600
-0.085042
-0.009936
0.036472
-0.007638
-0.028495
0.028747
-0.058966
-0.037923
-0.088128
-0.017566
0.026563
-0.058764
-0.110854
-0.071561
-0.035353
-0.028639
-0.034046
-0.056387
-0.090905
-0.056050
-0.033468
-0.054613
0.001280
-0.000336
-0.035804
0.050540
-0.020385
0.053992
0.019442
0.015948
0.134731
0.115493
0.082842
0.117753
0.137865
0.155587
0.171439
0.108243
0.155913
0.129936
0.163483
0.190296
0.156538
0.107876
0.123731
0.122171
0.106162
0.161069
0.144710
0.072446
0.063762
0.048171
0.055298
0.081060
0.050275
-0.005719
0.052400
-0.034383
-0.026852
0.046929
0.044907
0.050207
0.000050
-0.014287
-0.069750
-0.007880
-0.018636
-0.048680
0.056383
0.067771
-0.073449
-0.063650
-0.030036
-0.021815
-0.062252
0.098560
0.249100
0.464751
0.848921
1.142348
1.300836
1.366981
1.165537
0.881138
0.552845
0.202685
-0.096126
-0.238120
-0.194610
-0.273195
-0.113650
-0.055634
-0.084978
0.000753
-0.020026
-0.014900
0.013941
0.005618
0.027811
0.026745
0.104344
0.037567
0.083496
0.112717
0.142437
0.076667
0.146349
0.118751
0.111070
0.109442
0.143734
0.157469
0.131289
0.184510
0.247710
0.250771
0.295340
0.306868
0.344799
0.376830
0.455587
0.431777
0.469606
0.421850
0.407087
0.438592
0.514128
0.426539
0.531044
0.560648
0.503372
0.533101
0.517018
0.535895
0.498227
0.422889
0.486028
0.509031
0.497091
0.445818
0.453727
0.435122
0.349026
0.460856
0.393962
0.374930
0.342012
0.320320
0.263589
0.317622
0.238430
0.219534
0.156864
0.334744
0.253841
0.156597
0.168210
0.145081
0.169477
0.085752
0.092133
0.069213
0.059567
0.076761
0.109626
0.099745
0.044732
0.027926
0.032194
0.095790
0.050502
-0.006301
0.012701
0.050399
0.012889
0.038526
-0.000830
-0.000071
0.055682
0.035398
0.024079
-0.007554
0.072235
-0.008901
-0.000107
0.063996
0.052378
0.086146
0.044657
0.063857
-0.008955
0.095230
0.018559
0.007093
0.066058
-0.006025
0.052138
-0.071500
0.002168
0.049554
0.021752
0.022687
0.015868
0.026354
0.005879
0.080910
0.060553
0.012496
-0.068842
0.062293
0.086104
0.134713
0.120104
-0.001736
0.026903
-0.000256
-0.017138
0.104100
0.051935
0.088866
0.075239
0.147717
0.196696
0.121697
0.047125
0.095875
0.092557
0.107783
0.113347
0.177815
0.101680
0.107652
0.111110
0.178428
0.184893
0.129922
0.210890
0.172022
0.147377
0.224322
0.276534
0.159523
0.334662
0.217327
0.181159
0.205509
0.244454
0.261206
0.186736
0.196598
0.215177
0.123437
0.215699
0.172743
0.173154
0.141535
0.183872
-0.007451
0.143197
0.170882
0.114111
0.047622
0.073971
0.039711
0.069402
0.055496
0.110392
0.067474
0.027966
0.054132
0.027270
0.077967
0.000495
0.032874
0.022357
0.057120
0.078611
0.086431
-0.022883
0.046423
0.015846
0.231126
0.451305
0.735268
1.090972
1.320279
1.349745
1.417625
1.234535
0.786658
0.470753
0.124493
-0.014058
-0.258334
-0.188220
-0.019914
0.064731
-0.018125
0.030481
-0.047750
0.013258
0.118807
0.110209
0.125068
0.128347
0.118140
0.036019
0.099681
0.078473
0.146265
0.157117
0.250294
0.132626
0.051725
0.057681
0.206638
0.210164
0.259987
0.298880
0.332304
0.266335
0.270010
0.386801
0.397412
0.477266
0.430625
0.347632
0.457389
0.473722
0.495056
0.576955
0.570635
0.503114
0.526611
0.573354
0.537658
0.469325
0.584361
0.534301
0.551073
0.529631
0.477265
0.546848
0.583417
0.469473
0.490124
0.422388
0.433175
0.395323
0.425462
0.370822
0.295271
0.407165
0.350760
0.352171
0.322380
0.311633
0.207748
0.194638
0.099977
0.185258
0.218085
0.195745
0.304020
0.148061
0.067274
0.141093
0.171844
0.065842
0.046131
0.075685
0.001040
0.080594
0.103862
-0.024753
0.010359
-0.001352
0.073703
0.085478
0.011747
-0.031014
0.048656
-0.036909
0.015863
-0.029137
0.018205
0.022861
0.064272
0.019292
0.109607
0.012536
-0.019099
0.012691
0.022394
0.038652
0.041918
0.060492
-0.122942
0.045550
-0.035956
-0.029628
0.041659
0.020980
0.000139
-0.046960
0.009209
0.000545
-0.008854
0.025519
0.045577
-0.006266
0.007022
-0.074174
0.028839
-0.028624
-0.036862
0.002638
0.035877
0.022281
-0.038855
-0.068284
-0.009994
0.061520
-0.024379
-0.070202
0.011295
-0.038589
-0.039333
-0.046463
-0.005135
0.003831
0.078756
-0.019882
0.062923
0.043104
0.082140
0.024853
0.094117
0.001283
0.161654
0.054835
0.124942
0.131706
0.133806
0.135605
0.102481
0.138283
0.147835
0.158602
0.193062
0.179148
0.099707
0.160821
0.135622
0.131062
0.053328
0.131097
0.080806
0.162311
-0.002730
0.035337
0.072049
0.047910
0.025797
-0.010542
0.006176
-0.029460
0.037283
-0.044575
-0.075537
0.002371
-0.043210
-0.106682
-0.055275
-0.070184
0.022040
-0.006022
0.007535
-0.173597
-0.032101
-0.015993
-0.036383
-0.062249
-0.004167
-0.057116
-0.054520
-0.046919
0.194111
0.529182
0.819670
1.064255
1.336050
1.331046
1.144012
0.868580
0.405692
0.144305
-0.206329
-0.276716
-0.327797
-0.228930
-0.244260
-0.141378
-0.013186
-0.076639
-0.076008
-0.072534
-0.057313
-0.061923
-0.067799
-0.001649
-0.025726
0.033232
0.028915
-0.026040
-0.002272
0.134288
0.100441
0.097573
0.046559
0.169233
0.141306
0.161099
0.153961
0.152768
0.139642
0.191683
0.199365
0.231097
0.298348
0.324755
0.309713
0.402529
0.317172
0.354718
0.338264
0.417791
0.462440
0.340009
0.483779
0.429763
0.485853
0.408767
0.500471
0.509272
0.419559
0.459805
0.365499
0.409446
0.459636
0.387392
0.440887
0.307740
0.369810
0.428094
0.261895
0.342790
0.246890
0.267807
0.158706
0.200239
0.083274
0.134765
0.140381
0.150710
0.060515
0.153952
-0.005150
0.087632
-0.017633
-0.024962
0.125763
-0.000169
-0.065679
-0.013404
-0.061930
0.044128
-0.036688
-0.139437
-0.084981
-0.111085
-0.013154
-0.124030
-0.177065
-0.043034
-0.104136
-0.105670
-0.103694
-0.042519
-0.100592
-0.115966
-0.123266
-0.098767
-0.094598
-0.151688
-0.017200
-0.150845
-0.135531
-0.054839
-0.032168
-0.037452
-0.152118
-0.123300
-0.081549
-0.069927
-0.084463
-0.056393
-0.123741
-0.052355
-0.113667
-0.038037
-0.137688
-0.092400
-0.117130
-0.062260
-0.143563
-0.080382
-0.128141
-0.065336
-0.071019
-0.101779
-0.144582
-0.128756
-0.133313
-0.134087
-0.129758
-0.041574
-0.118598
-0.099337
-0.054342
-0.120650
-0.051039
-0.043644
-0.046430
-0.119600
-0.132938
-0.058349
0.004575
-0.082951
-0.079186
-0.036788
-0.054208
-0.084136
-0.016449
0.022038
-0.039791
-0.015082
0.044814
-0.012331
0.047790
0.084816
0.090229
0.094893
0.101357
0.084248
0.067102
0.111814
0.039626
0.090945
0.058346
0.113267
0.047975
0.081011
-0.005140
0.012770
0.026083
0.006991
0.039498
0.002868
-0.031168
0.006468
0.032461
-0.093202
-0.072447
-0.071423
-0.046022
-0.008368
-0.117604
-0.069426
-0.067845
-0.091171
-0.121850
-0.076346
-0.070834
-0.044806
-0.178153
-0.107346
-0.114678
-0.095415
-0.051381
-0.106753
-0.068942
0.121283
0.244256
0.569560
0.831678
1.214310
1.305230
1.227889
0.982451
0.710022
0.232100
-0.009892
-0.281809
-0.351871
-0.349609
-0.238453
-0.142331
-0.095769
-0.103942
-0.004871
-0.072828
-0.025171
-0.067803
-0.078348
-0.029311
-0.090428
0.027274
-0.012118
-0.040736
-0.025593
0.031322
0.014451
0.035887
-0.014676
0.072349
0.123302
0.117829
0.082222
0.143460
0.109455
0.215936
0.174129
0.290932
0.288734
0.273495
0.269798
0.369572
0.362217
0.385969
0.415988
0.450362
0.318818
0.451258
0.471305
0.397707
0.453178
0.329137
0.425663
0.435435
0.445054
0.405992
0.430139
0.405762
0.443679
0.416831
0.349878
0.350632
0.381257
0.314946
0.371383
0.238029
0.330573
0.259577
0.270043
0.236208
0.180481
0.161169
0.205439
0.177206
0.158512
0.156691
0.099354
0.105274
0.100606
0.021780
0.075888
-0.019496
-0.013211
0.058808
0.011467
0.008146
-0.019132
-0.034946
-0.001205
0.010412
0.017126
-0.014180
0.016200
-0.035093
-0.067680
-0.028192
-0.013475
-0.044868
-0.039513
-0.122312
0.023033
0.004711
-0.066882
-0.074126
-0.058776
-0.036996
-0.029275
-0.075015
-0.040213
0.005421
-0.127597
-0.048957
-0.008361
0.075043
-0.126012
0.012000
0.048308
-0.076645
-0.013694
-0.077959
-0.090997
0.078339
-0.002921
-0.082664
0.062513
-0.097481
0.088615
-0.009360
-0.037379
-0.014592
0.024775
0.020389
-0.026402
-0.021970
-0.054724
-0.024653
0.020507
-0.022531
-0.045916
-0.033897
0.062903
-0.042662
0.041804
-0.033727
0.013772
-0.001503
0.080700
0.013660
-0.028513
0.058679
-0.006796
-0.010363
0.106084
0.136021
0.119724
0.237515
0.130235
0.152148
0.103073
0.095135
0.191026
0.172105
0.213056
0.154543
0.161599
0.237593
0.217129
0.136473
0.199645
0.110833
0.192791
0.164683
0.094360
0.138748
0.129272
0.150202
0.137522
0.099306
0.090968
0.090196
0.075158
0.040817
0.090821
0.090196
0.078100
0.076920
0.080389
-0.006818
-0.081206
0.064488
0.122332
0.017050
0.046183
0.007635
0.029127
-0.036229
0.071621
-0.004724
0.003363
-0.027893
0.055226
0.078602
0.351197
0.579946
0.971302
1.261476
1.389479
1.418676
1.224797
0.920645
0.594250
0.255465
-0.075858
-0.217976
-0.178877
-0.183112
-0.198836
0.033300
-0.017877
-0.018802
0.013868
0.071805
-0.015599
0.040845
0.095346
0.093049
0.117210
0.074960
0.090628
0.091536
0.067919
0.083312
0.135314
0.224141
0.181922
0.226610
0.256853
0.251949
0.336218
0.273282
0.289946
0.364820
0.432077
0.363642
0.454923
0.376043
0.457777
0.399679
0.469210
0.445608
0.447990
0.556696
0.522625
0.532453
0.511643
0.542784
0.528404
0.605390
0.669046
0.557809
0.597509
0.611273
0.508342
0.547745
0.496532
0.529690
0.456439
0.488008
0.436486
0.480435
0.421827
0.498975
0.408810
0.352981
0.349493
0.362427
0.306306
0.265169
0.262530
0.288441
0.209812
0.245885
0.282882
0.124778
0.232631
0.137101
0.114988
0.105868
0.115284
0.135930
0.161399
0.142021
0.107793
0.095123
0.099698
0.081700
0.035269
0.042155
0.060146
0.184311
0.111228
0.144172
0.128974
0.007785
0.113146
0.072377
0.036504
-0.020299
0.016413
0.080152
0.050318
0.054538
0.101302
0.002654
0.083423
0.096899
0.070544
0.100714
0.039781
-0.025833
0.158355
-0.009358
0.029792
0.120739
0.061701
0.063548
0.079627
0.102542
0.045982
0.105160
0.000641
0.068976
0.009791
0.046021
0.091578
0.048059
0.053179
0.054600
0.061780
0.029142
0.173294
0.052888
0.059010
0.090019
0.087731
0.050171
0.075169
0.151908
0.052578
0.042057
0.048224
0.039918
0.099239
0.099639
0.092661
0.159668
0.143851
0.108344
0.211139
0.191203
0.127532
0.175999
0.181967
0.147281
