-0.022521
0.004304
0.043637
0.033420
0.037300
0.029878
0.033359
0.049763
0.007370
0.029278
-0.029496
0.000372
-0.011535
0.035850
0.005079
0.001488
0.007715
0.073934
0.000079
0.048253
0.099740
0.091155
0.027136
0.096935
0.033505
0.147344
0.202217
0.106336
0.066140
0.002294
0.182262
0.165020
0.219211
0.181143
0.202824
0.119581
0.095797
0.131368
0.150126
0.148935
0.144023
0.166803
0.147979
0.184066
0.155024
0.144345
0.200985
0.192241
0.156980
0.139617
0.009586
0.102501
0.080615
0.139377
0.063781
0.097021
0.001987
0.117956
0.047393
0.006465
0.074919
0.085493
0.035285
0.031097
0.027280
0.066622
0.120950
0.020157
0.003332
0.132690
0.094208
0.230044
0.449993
0.674836
1.082652
1.347708
1.378250
1.313406
1.105646
0.737251
0.369842
-0.032028
-0.123981
-0.151975
-0.071405
-0.101996
0.036013
0.048279
0.061468
0.126194
0.178309
0.094458
0.116490
0.162910
0.126752
0.199577
0.167030
0.220010
0.133257
0.242406
0.233719
0.241658
0.305755
0.301931
0.314660
0.265294
0.363361
0.391324
0.469142
0.436355
0.446504
0.462966
0.489124
0.469715
0.494467
0.472219
0.607869
0.531641
0.573434
0.512927
0.541417
0.513665
0.544334
0.616834
0.544982
0.709006
0.605389
0.586581
0.449735
0.536287
0.512747
0.526558
0.534526
0.513211
0.429344
0.472819
0.369591
0.385221
0.382831
0.307706
0.352676
0.388434
0.261246
0.312141
0.263989
0.240539
0.309418
0.171375
0.229458
0.239456
0.209005
0.162978
0.156395
0.155587
0.027250
0.179242
0.132326
0.177825
0.099721
0.111341
0.115391
0.085501
0.107256
0.068029
0.053451
0.013296
0.108028
0.096380
0.118009
0.164667
0.094253
0.087235
0.065816
0.005972
0.168654
0.032845
0.155045
0.100363
0.133106
0.059189
0.069569
0.090206
0.173348
0.082282
0.036540
0.060539
0.052157
0.098924
0.127223
0.080318
0.096355
0.098041
0.000000
0.000000
0.000000
0.000000
0.000000
0.000000
0.000000
0.000000
0.000000
0.000000
0.000000
0.000000
0.000000
0.000000
0.000000
0.000000
0.000000
0.000000
0.000000
0.000000
0.000000
0.000000
0.000000
0.000000
0.000000
0.000000
0.000000
0.000000
0.000000
0.000000
0.000000
0.000000
0.000000
0.000000
0.000000
0.000000
0.000000
0.000000
0.000000
0.000000
0.000000
0.000000
0.000000
0.000000
0.000000
0.000000
0.000000
0.000000
0.000000
0.000000
0.000000
0.000000
0.000000
0.000000
0.000000
0.000000
0.000000
0.000000
0.000000
0.000000
0.000000
0.000000
0.000000
0.000000
0.000000
0.000000
0.000000
0.044109
0.091095
0.311671
0.473790
0.789820
1.124527
1.391657
1.487701
1.408859
0.926456
0.554725
0.319654
-0.012471
-0.151715
-0.194335
-0.157903
-0.081480
0.093090
-0.040744
0.043470
0.175469
0.156996
0.236507
0.106540
0.165642
0.169940
0.066676
0.096099
0.094271
0.184972
0.162775
0.231470
0.257921
0.193333
0.329880
0.253410
0.242152
0.420827
0.376470
0.403439
0.467224
0.383457
0.477391
0.460308
0.467034
0.486911
0.496907
0.513715
0.564023
0.540628
0.532417
0.580596
0.547574
0.565562
0.570822
0.559682
0.557421
0.502375
0.544156
0.554289
0.513607
0.615535
0.426291
0.437874
0.488662
0.431112
0.411039
0.439743
0.359939
0.352800
0.335820
0.423705
0.389425
0.262462
0.219187
0.200147
0.000000
0.000000
0.000000
0.000000
0.000000
0.000000
0.000000
0.000000
0.000000
0.000000
0.000000
0.000000
0.000000
0.000000
0.000000
0.000000
0.000000
0.000000
0.000000
0.000000
0.000000
0.000000
0.000000
0.000000
0.000000
0.000000
0.000000
0.000000
0.000000
0.000000
0.000000
0.000000
0.000000
0.000000
0.000000
0.000000
0.000000
0.000000
0.000000
0.000000
0.000000
0.000000
0.000000
0.000000
0.000000
0.000000
0.000000
0.000000
0.000000
0.000000
0.049895
0.027223
-0.039461
0.065500
0.002845
-0.051274
0.025415
0.011709
0.025125
0.026365
0.050946
0.031974
0.034169
0.056754
0.082699
0.015651
0.149479
0.098576
0.067259
0.106254
0.138261
0.124027
0.142711
0.089626
0.251624
0.164483
0.117189
0.209997
0.108565
0.154541
0.234151
0.148707
0.121477
0.267462
0.204568
0.158484
0.165447
0.203026
0.144119
0.215647
0.071839
0.074547
0.115537
0.122807
0.131324
0.106886
-0.003865
0.066437
0.067584
0.015187
0.070806
0.105022
0.040448
-0.023745
-0.059292
0.001264
0.023665
0.024670
-0.013429
0.051976
-0.038209
-0.004982
0.039928
0.004050
-0.004113
0.064870
0.216146
0.496382
0.724050
1.062415
1.331701
1.340791
1.206111
0.898927
0.524984
0.188126
0.032030
-0.193716
-0.287606
-0.129520
-0.107509
-0.010960
-0.128472
-0.020431
-0.020993
-0.088155
0.049666
0.061328
0.067846
0.168914
0.120461
0.072535
0.081390
0.158010
0.105001
0.113846
0.140407
0.114581
0.227150
0.277184
0.215219
0.234387
0.222038
0.252275
0.307428
0.280857
0.351687
0.415434
0.316539
0.367585
0.439499
0.389231
0.377308
0.404209
0.492858
0.382908
0.553141
0.507830
0.464754
0.501913
0.422663
0.529476
0.413467
0.409090
0.392880
0.323674
0.389935
0.360582
0.408494
0.372692
0.306268
0.396659
0.319429
0.271770
0.298115
0.239961
0.159590
0.154877
0.150854
0.158496
0.109522
0.136660
0.081474
0.065723
0.049956
0.088632
-0.003657
0.001926
0.007894
-0.022904
-0.003214
-0.082622
-0.028346
-0.097060
-0.088393
0.001872
0.057657
-0.047149
-0.063329
-0.078533
-0.076875
0.009677
-0.133114
-0.045644
-0.045539
0.016798
-0.031492
-0.109933
-0.070589
-0.141191
-0.083438
-0.007056
-0.088579
-0.118204
-0.103516
-0.014174
0.090846
-0.071540
-0.005564
-0.052078
-0.116693
-0.033423
-0.127752
-0.037240
-0.007062
0.015677
-0.086145
0.015399
-0.080548
-0.064258
-0.066989
-0.051317
-0.082610
-0.092785
-0.087339
-0.037798
-0.088708
-0.032012
-0.007930
0.038293
-0.016674
-0.020970
-0.091087
0.011122
-0.069098
0.001216
-0.077682
0.035769
-0.011372
0.072091
-0.021878
0.051735
0.088310
0.118146
0.079232
0.058721
0.029686
0.060104
0.097238
0.157165
0.157921
0.109414
0.119418
0.170632
0.081396
0.153699
0.093868
0.096483
0.133968
0.137722
0.065697
-0.000373
0.107189
0.073307
0.018946
0.034655
-0.025349
0.066952
0.059391
0.114317
-0.008783
0.009003
-0.002985
0.011057
-0.057455
0.009707
-0.011191
-0.005371
-0.044489
-0.067074
-0.041320
-0.046499
-0.025696
-0.039014
-0.066375
0.086956
0.206873
0.426040
0.804018
1.120511
1.282886
1.268088
1.145876
0.816714
0.510864
0.149650
-0.160015
-0.308886
-0.312876
-0.261711
-0.086682
-0.055780
0.000610
0.016524
0.026683
0.005538
-0.008237
0.026734
0.002705
0.090972
0.059719
0.061993
0.093246
0.114782
0.152293
0.261754
0.132740
0.181145
0.215054
0.171302
0.145479
0.248419
0.292584
0.158907
0.282707
0.352210
0.434055
0.320258
0.430894
0.405880
0.416423
0.486145
0.432293
0.421619
0.400555
0.555653
0.560473
0.434280
0.465229
0.540361
0.468213
0.565632
0.445517
0.490047
0.393966
0.491092
0.390462
0.448883
0.453854
0.429279
0.369532
0.368877
0.330844
0.360361
0.239243
0.223279
0.360174
0.201840
0.237996
0.231978
0.134367
0.217363
0.115426
0.147992
0.158065
0.164129
0.115466
0.155417
0.062210
0.041128
0.069235
-0.004452
0.003534
0.087051
0.076179
0.072264
0.020582
0.011182
-0.055817
0.056169
0.044839
0.034974
0.108226
0.062703
-0.000878
0.028334
0.000384
0.056991
0.046605
-0.057115
0.021638
0.010592
0.045966
-0.016094
0.123875
-0.034864
0.057393
0.020538
0.094435
0.096294
0.017033
0.072122
0.040061
0.011148
-0.030151
0.161496
0.074016
-0.024712
0.090693
0.008464
-0.041641
0.007056
0.023484
0.074743
0.067397
0.010771
0.067556
0.031848
0.087051
0.047408
0.014280
-0.017474
0.038299
0.071267
0.178747
0.132948
0.125075
0.039306
0.081771
0.102534
0.132423
0.192862
0.087473
0.155394
0.154962
0.174019
0.174835
0.197168
0.210464
0.202033
0.203655
0.264932
0.232446
0.218685
0.216385
0.162275
0.282980
0.243100
0.173562
0.130874
0.256799
0.241377
0.181812
0.211720
0.223381
0.126389
0.239023
0.123621
0.122279
0.134355
0.187105
0.110064
0.083422
0.156802
0.089661
0.031415
0.087637
0.063654
-0.062242
0.056417
0.041181
-0.062832
0.079574
-0.018827
0.139652
0.126844
0.351073
0.555311
1.021332
1.179670
1.411958
1.455307
1.285607
0.918301
0.567448
0.190505
-0.013771
-0.122119
-0.157920
-0.006180
-0.058144
0.017060
0.119251
0.132360
0.076728
0.179359
0.021964
0.108261
0.201238
0.054466
0.180960
0.175289
0.189760
0.187778
0.147576
0.268500
0.182012
0.337796
0.240966
0.271968
0.280483
0.339131
0.383016
0.400167
0.405277
0.407521
0.477466
0.505354
0.488658
0.519066
0.585886
0.618572
0.508010
0.603064
0.636759
0.620443
0.626353
0.666630
0.595920
0.563424
0.588363
0.611251
0.564388
0.570832
0.512149
0.584818
0.519130
0.473278
0.546581
0.443523
0.559031
0.484139
0.452596
0.440931
0.396094
0.395225
0.393327
0.294619
0.284819
0.292997
0.228721
0.243521
0.268198
0.310595
0.214578
0.193357
0.154967
0.175583
0.187226
0.141538
0.071499
0.096861
0.184525
0.124476
0.137364
0.109045
0.149581
0.090893
0.037561
0.182159
0.116778
0.104953
0.095629
0.054472
0.133899
0.088114
0.053752
0.037074
-0.004997
0.147555
0.051310
0.079829
0.163662
0.150846
0.080432
0.049045
0.139037
0.120398
0.046684
0.076407
0.081952
0.056915
0.119427
0.109942
0.057530
0.113335
0.053703
0.072384
0.131601
0.101118
0.101890
0.122216
0.075395
0.037720
0.051506
0.107613
0.061838
0.012030
0.108523
0.174394
0.133509
0.120436
0.093462
0.076568
0.142771
0.086382
0.139862
0.082300
0.059427
0.174159
0.141641
0.185175
0.253399
0.245546
0.171874
0.211840
0.228865
0.231744
0.264669
0.242427
0.235966
0.290200
0.250653
0.291567
0.266533
0.264793
0.254632
0.220888
0.235028
0.230555
0.205920
0.067229
0.141356
0.221024
0.192891
0.180269
0.111353
0.193679
0.030851
0.082713
0.136360
0.098801
0.056148
0.115553
0.075238
0.037178
0.100835
0.007394
0.082931
0.088574
0.015965
0.061653
-0.027839
0.018332
0.111727
0.211107
0.391144
0.565240
1.064673
1.312031
1.500000
1.377463
1.193383
0.841607
0.442465
0.178961
0.016490
-0.090234
-0.087388
-0.035494
-0.016311
-0.017428
0.069685
0.173027
0.118059
0.084007
0.164974
0.162776
0.175496
0.137591
0.185055
0.136374
0.191394
0.226194
0.246064
0.269299
0.187992
0.275035
0.229220
0.275592
0.345606
0.300207
0.282987
0.436308
0.503023
0.500229
0.451619
0.438881
0.464075
0.546401
0.549803
0.501751
0.505195
0.581335
0.573449
0.522251
0.585752
0.580433
0.540821
0.493025
0.483720
0.586804
0.650910
0.511298
0.495414
0.527222
0.571587
0.472368
0.392523
0.427982
0.426936
0.390196
0.465026
0.310652
0.314469
0.373303
0.206284
0.267147
0.190517
0.086758
0.252252
0.176320
0.196004
0.154503
0.167553
0.139905
0.089620
0.079291
0.031822
0.122965
0.073879
0.108317
0.132748
0.007962
0.086897
0.047503
0.039502
-0.004171
-0.006932
0.063911
0.055854
0.068520
0.002821
0.020193
0.041395
0.038806
0.054585
0.026776
0.021340
0.034215
0.015668
-0.005302
-0.024286
0.008004
-0.015242
0.063233
0.129596
-0.005879
0.085172
0.126450
0.059764
-0.055928
0.090535
-0.010999
0.030441
-0.057473
0.039827
0.056125
0.015491
0.011829
0.018951
0.036168
-0.100302
0.062951
-0.042766
-0.002315
-0.035676
0.031893
-0.003084
0.079947
0.021276
0.028297
0.013820
-0.004976
0.006728
-0.015365
0.018433
0.134448
-0.030278
-0.044367
0.070263
0.097513
0.051854
0.111157
0.141578
0.154496
0.116738
0.164355
0.101660
0.120881
0.195474
0.151878
0.187190
0.130400
0.185530
0.159734
0.135123
0.075766
0.061602
0.119090
0.119467
0.128528
0.074400
0.112568
0.092880
0.051704
0.023995
0.007240
0.043364
-0.029276
-0.025178
-0.009291
-0.071832
-0.015875
-0.044577
-0.025257
0.006127
-0.014891
-0.089236
-0.031740
0.026832
-0.001614
-0.056284
-0.091739
0.069985
0.128915
0.356086
0.567689
0.883075
1.114363
1.334909
1.240443
1.061057
0.733269
0.383165
-0.014154
-0.189957
-0.305601
-0.271014
-0.201529
-0.065654
-0.072829
-0.053906
-0.063134
0.000479
-0.002840
0.040507
0.015852
-0.011069
0.049143
0.017619
0.047160
0.028982
0.072676
0.107650
0.141067
0.111920
0.097545
0.209768
0.206541
0.189394
0.241753
0.235032
0.271112
0.136444
0.341087
0.331287
0.311552
0.337870
0.359826
0.349705
0.406347
0.485274
0.455563
0.399333
0.541401
0.400867
0.392826
0.457612
0.452389
0.472664
0.384156
0.454199
0.406693
0.381067
0.425945
0.392909
0.335363
0.386179
0.311494
0.265310
0.299818
0.246913
0.234918
0.211957
0.223059
0.160432
0.143344
0.096986
0.176018
0.101238
0.140214
0.099269
0.033439
0.038262
0.005607
0.043381
-0.024986
-0.022742
-0.027007
-0.072043
-0.021708
-0.092580
-0.078397
0.005610
-0.089728
-0.014694
-0.086432
-0.051638
-0.089369
-0.084561
-0.098689
-0.085470
-0.145480
-0.020768
-0.136385
-0.016538
-0.102011
-0.087616
-0.079547
-0.064973
-0.094743
-0.052257
-0.086488
-0.106955
-0.054145
-0.077815
-0.074780
-0.049382
-0.105524
-0.002378
-0.064127
-0.057214
-0.054794
-0.077752
-0.125454
-0.076638
-0.067983
-0.094235
-0.025402
-0.150319
-0.102640
-0.049569
-0.120109
-0.011726
-0.102368
-0.054246
-0.098469
0.054692
-0.107499
-0.044389
-0.098499
-0.025176
-0.016040
-0.051782
0.014171
-0.010378
-0.023326
-0.054495
0.028569
0.041386
0.065569
0.038235
0.038879
0.087962
0.043633
0.097972
0.103188
0.060019
0.028658
0.081957
0.096567
0.069303
0.091371
0.028893
0.140054
0.097249
0.061587
0.015142
0.032130
0.030243
0.063388
-0.005183
0.055030
0.013309
-0.000625
-0.010527
0.056077
-0.112463
-0.018438
-0.074426
-0.086522
0.084136
-0.067329
-0.064781
-0.093603
-0.083529
-0.079621
-0.039878
-0.036875
0.043975
-0.091090
-0.134985
-0.099765
-0.056833
0.137426
0.291803
0.656018
0.946772
1.201795
1.234539
1.187736
0.980807
0.696479
0.260329
0.027823
-0.171620
-0.277796
-0.258403
-0.157984
-0.151487
-0.012542
-0.016864
-0.039035
-0.020842
-0.025472
0.001265
0.038808
0.053869
0.012180
-0.028497
0.113825
0.101705
0.037288
0.069837
0.163668
0.158063
0.092438
0.117840
0.198399
0.257102
0.222773
0.280401
0.230855
0.309326
0.222042
0.327164
0.291069
0.349622
0.339172
0.446520
0.443461
0.482763
0.470858
0.361007
0.525254
0.502231
0.402242
0.462479
0.493946
0.441264
0.410236
0.465750
0.368354
0.510017
0.402043
0.312639
0.363302
0.401142
0.362431
0.348287
0.290017
0.212889
0.318246
0.302251
0.278705
0.189272
0.257896
0.160408
0.056881
0.122378
0.116193
0.135866
0.171139
0.119605
0.085312
-0.022716
0.109592
0.150552
0.094481
0.025867
-0.015875
-0.001684
0.009991
-0.025597
-0.025647
-0.082931
-0.067705
0.003429
0.004328
-0.041354
-0.048586
-0.058238
-0.114346
-0.052895
-0.058606
-0.061580
-0.023233
-0.017738
-0.017780
-0.077996
0.017365
-0.034196
0.012686
-0.003853
-0.071624
0.073189
-0.120897
-0.046582
-0.011666
0.027683
-0.015187
0.019122
-0.027024
0.016869
-0.003087
-0.033516
-0.048345
0.041593
0.001936
-0.035637
-0.054004
-0.014221
-0.054279
-0.056700
0.030733
-0.036512
-0.070642
-0.074275
-0.042313
-0.098533
-0.013554
0.013216
0.052379
0.008281
0.029645
0.030179
0.030787
0.023017
0.095221
0.067858
0.094828
0.100354
0.234764
0.209425
0.190892
0.129534
0.121868
0.145632
0.206555
0.152350
0.219543
0.150737
0.255825
0.212565
0.155617
0.169403
0.150318
0.196969
0.094197
0.227326
0.152675
0.074949
0.128387
0.041412
0.020367
0.118037
0.117129
0.049815
0.035804
0.014155
0.099697
0.031881
-0.002455
0.029773
0.034269
0.022528
0.005386
0.066615
-0.035394
0.018429
-0.006394
-0.014864
-0.018315
0.114876
0.189477
0.417473
0.752189
1.078566
1.296378
1.360244
1.224766
1.088906
0.742520
0.366546
0.040002
-0.168088
-0.237005
-0.143931
-0.089516
0.009731
-0.010180
0.019322
0.066257
0.107637
0.081278
0.060551
0.109822
0.061324
0.049787
0.124133
0.071928
0.137914
0.141544
0.192409
0.300071
0.173957
0.173923
0.221827
0.270085
0.335585
0.299966
0.290536
0.384466
0.330409
0.340340
0.459391
0.482314
0.423395
0.536376
0.466958
0.529935
0.502830
0.549853
0.503944
0.563953
0.560260
0.583636
0.478121
0.561729
0.595184
0.525323
0.599718
0.571145
0.449513
0.504119
0.457385
0.486247
0.438929
0.355030
0.377820
0.439798
0.311682
0.311339
0.289259
0.351409
0.317006
0.194041
0.216398
0.182369
0.207829
0.184172
0.156577
0.118576
0.054961
0.133853
0.178256
0.055647
0.047540
0.097940
0.162064
0.047721
-0.001839
0.109576
0.101384
0.124063
0.036147
0.025835
0.023654
0.050647
-0.000747
0.034342
0.074674
0.081920
0.004748
-0.028315
0.051218
0.043530
-0.022959
0.045615
0.045829
0.047795
0.031408
0.080471
0.094723
0.111027
0.025043
0.063928
0.104425
0.089742
-0.022510
0.002389
0.106269
-0.004403
0.072727
0.046987
0.040178
0.024080
0.041127
0.033767
-0.037367
0.010609
0.052969
0.109885
-0.015091
0.036771
-0.013728
0.049400
0.095735
0.121788
0.050067
0.104078
0.050688
0.072182
0.071526
0.079644
0.090961
0.138611
0.161370
0.208607
0.076394
0.154252
0.204219
0.157659
0.248296
0.186275
0.277978
0.218260
0.201710
0.212570
0.210545
0.248363
0.234237
0.218603
0.157977
0.243704
0.180836
0.234541
0.197445
0.074694
0.131194
0.245321
0.172184
0.175791
0.187896
0.183611
0.138983
0.137834
0.005827
0.049653
0.110522
0.093656
0.122848
0.104300
0.040227
0.124193
0.040143
0.054495
0.038417
0.054828
0.052382
0.063371
0.073955
0.125155
0.137157
0.000000
0.000000
0.000000
0.000000
0.000000
0.000000
0.000000
0.000000
0.000000
0.000000
0.000000
0.000000
0.000000
0.000000
0.000000
0.000000
0.000000
0.000000
0.000000
0.000000
0.000000
0.000000
0.000000
0.000000
0.000000
0.000000
0.000000
0.000000
0.000000
0.000000
0.000000
0.000000
0.000000
0.000000
0.000000
0.000000
0.000000
0.000000
0.000000
0.000000
0.000000
0.000000
0.000000
0.000000
0.000000
0.000000
0.000000
0.477136
0.439586
0.547918
0.475097
0.528791
0.538795
0.576289
0.549089
0.446357
0.538829
0.484296
0.441851
0.445344
0.456172
0.417254
0.457837
0.407308
0.357593
0.332044
0.311729
0.358482
0.343224
0.291965
0.197058
0.182276
0.169484
0.229042
0.160252
0.144694
0.180075
0.110531
0.106894
0.142100
0.005321
0.086926
0.005881
0.053412
0.088984
-0.005876
-0.023920
0.046451
0.010429
0.035643
0.047164
-0.004741
0.012647
0.070670
0.003763
0.040065
-0.005398
0.034129
0.049632
0.044115
-0.017631
-0.025063
0.012353
-0.017262
-0.037957
-0.098155
0.013219
-0.072357
-0.063204
-0.022895
-0.050399
-0.008225
-0.015625
-0.053985
-0.038091
-0.048071
-0.014490
-0.082423
-0.026059
-0.056824
-0.023792
-0.015968
-0.010532
-0.089012
-0.003579
-0.008602
-0.069367
-0.013986
-0.050952
-0.068980
-0.118777
-0.041338
-0.019570
0.009844
-0.101288
-0.023461
-0.071774
0.042010
0.040024
0.034469
0.008684
0.033807
0.013043
-0.005602
0.056736
0.081007
0.030606
-0.019536
0.102399
0.178901
0.199906
0.072700
0.106768
0.127757
0.177677
0.037709
0.165341
0.186789
0.190298
0.174763
0.089591
0.102507
0.154184
0.147137
0.056161
0.104598
0.004855
0.046963
-0.013969
0.066790
0.077945
0.009107
-0.054302
-0.047813
0.057190
-0.067459
-0.029876
-0.049702
-0.074293
-0.085801
0.033003
-0.075705
-0.045186
-0.017731
-0.060891
-0.060029
-0.054958
-0.014642
-0.019307
0.040488
0.220041
0.431305
0.639711
0.973558
1.276905
1.288716
1.094605
0.853446
0.416478
0.109657
-0.174240
-0.271082
-0.253806
-0.268375
-0.189900
-0.160486
-0.112876
-0.043799
-0.046054
0.024778
-0.037608
-0.055900
0.023120
0.010518
-0.126718
-0.023427
0.036684
0.061512
0.049597
0.046157
0.102278
0.060680
0.147631
0.167734
0.123359
0.187773
0.258780
0.172015
0.269121
0.234600
0.245858
0.340776
0.350411
0.302595
0.296085
0.416085
0.416256
0.410504
0.440725
0.394241
0.425939
0.472934
0.387931
0.370607
0.395513
0.384806
0.337574
0.382436
0.399283
0.360715
0.309802
0.402423
0.302799
0.275279
0.295890
0.176530
0.197184
0.288534
0.139676
0.161031
0.103571
0.150942
0.059485
0.098925
0.044535
0.067603
0.047072
0.001338
0.037394
0.003135
0.012261
-0.056762
-0.017758
-0.086640
-0.074937
-0.102370
-0.018190
-0.036639
-0.004839
-0.040693
-0.016563
-0.132028
-0.052651
-0.108057
-0.080145
-0.087073
-0.087818
-0.155640
-0.038420
-0.076153
-0.105841
-0.162475
-0.062805
-0.127626
-0.167302
-0.109855
-0.107930
-0.087945
-0.095454
-0.038003
-0.030167
-0.034587
-0.159155
-0.092803
-0.130244
-0.084597
-0.096755
-0.019595
-0.116192
-0.109236
-0.074168
-0.069593
-0.048358
-0.096841
-0.115108
-0.146803
-0.063047
-0.154831
-0.027406
-0.110509
-0.114023
-0.071888
-0.077253
-0.053434
-0.072497
-0.060622
0.009379
-0.126368
0.001792
-0.039541
0.036672
-0.079535
-0.069887
0.050215
0.000133
-0.054923
0.008122
0.041845
0.023223
0.047263
-0.022332
0.044659
0.111045
0.058407
0.111922
0.078253
0.083817
0.136254
-0.020240
0.069118
-0.019778
0.003957
0.081259
0.084949
0.039115
0.051069
0.025919
0.048329
-0.002666
-0.066376
-0.061606
-0.145584
-0.011592
-0.053688
-0.048384
-0.138520
-0.051648
-0.041548
0.009507
-0.195908
-0.018454
-0.110441
-0.038396
-0.172036
-0.041397
-0.121180
-0.130668
-0.053626
-0.058289
-0.023163
0.183075
0.468107
0.749438
0.978239
1.272232
1.285440
1.084318
0.815911
0.432022
0.075390
-0.122024
-0.254295
-0.305284
-0.142576
-0.137099
-0.099482
-0.049859
-0.071819
-0.014764
-0.111749
-0.006450
-0.005749
-0.023265
-0.072281
-0.035347
0.115318
-0.030148
0.043962
0.094307
0.135840
0.132046
0.091375
0.175195
0.203825
0.152129
0.181112
0.242105
0.242067
0.147532
0.294360
0.294799
0.350877
0.304982
0.416209
0.444454
0.332024
0.430554
0.449935
0.424701
0.410042
0.424325
0.480326
0.462774
0.409070
0.495269
0.414592
0.398126
0.394562
0.423657
0.381188
0.369061
0.444235
0.337088
0.370629
0.333717
0.290712
0.381022
0.253453
0.283079
0.228285
0.253066
0.238539
0.178572
0.097826
0.156953
0.088779
0.169144
0.100485
-0.041039
0.072055
0.090629
0.034259
-0.001940
0.106061
-0.016425
-0.080304
-0.002758
-0.030596
0.070134
-0.004354
0.016123
0.027786
-0.077846
0.003639
0.028517
-0.004580
0.019400
-0.075223
-0.043972
-0.061969
-0.103623
0.043297
-0.084219
-0.037652
-0.024075
-0.030054
0.011673
0.009691
0.019124
-0.064614
-0.053696
-0.052858
0.066075
0.000385
-0.073063
0.011607
-0.064139
-0.011938
-0.023655
-0.060112
0.018562
-0.023341
-0.005396
0.006785
0.024158
-0.088763
0.079628
0.034938
0.064647
-0.024296
0.046873
0.066005
-0.059050
-0.010563
0.012650
0.044756
0.030217
0.090803
0.036308
0.047296
0.022915
0.050026
-0.007971
0.050167
0.065516
0.075240
0.086401
0.154998
0.142390
0.140838
0.137379
0.146392
0.213099
0.195877
0.215794
0.186353
0.131714
0.223601
0.199853
0.124690
0.171185
0.206310
0.162284
0.172376
0.128318
0.170817
0.109247
0.121444
0.048538
0.165971
0.131527
0.080135
0.114578
0.042055
0.061291
0.071820
0.047511
0.006374
0.036222
0.044528
-0.012822
0.027972
0.095817
0.028658
0.045054
0.004455
0.015273
0.059768
0.079735
0.119399
0.316858
0.638110
0.927726
1.222865
1.380854
1.405603
1.254388
0.903434
0.552936
0.204704
-0.106523
-0.134779
-0.145414
-0.128631
-0.068060
-0.014687
0.080923
0.022498
0.079536
0.152924
0.094006
0.168214
0.142774
0.129620
0.120595
0.100355
0.219915
0.211999
0.199406
0.137771
0.159062
0.218192
0.210773
0.320998
0.308618
0.330140
0.277605
0.390871
0.408872
0.379382
0.458748
0.497843
0.526043
0.579281
0.513904
0.438741
0.535642
0.530627
0.646556
0.561745
0.518423
0.554095
0.559219
0.548951
0.614136
0.519953
0.520234
0.602699
0.511007
0.466449
0.526919
0.428395
0.447085
0.425500
0.422771
0.390876
0.440733
0.344124
0.332112
0.337947
0.317606
0.301591
0.301682
0.276054
0.248982
0.249526
0.210681
0.181318
0.189536
0.140300
0.148793
0.151633
0.116720
0.225641
0.049671
0.078793
0.048403
0.190074
0.100873
0.101123
0.106992
0.083582
0.137492
0.070871
0.108115
0.093763
0.072495
0.062981
0.083879
0.136510
0.057974
0.042281
0.074405
0.067336
0.153383
0.085150
0.048336
0.046600
0.041107
0.077811
0.057561
0.112069
0.105025
0.078017
0.023426
-0.017090
0.047155
0.100243
0.036927
0.042207
0.021618
0.146090
0.032583
0.096529
0.076834
0.099680
0.006406
0.003326
0.089535
0.110635
0.057079
0.098794
0.068415
0.080156
0.035512
0.048354
0.074789
0.062792
0.063080
0.084866
0.111245
0.224922
0.074694
0.181818
0.228772
0.108767
0.056765
0.159306
0.242019
0.214021
