-0.030381
0.018527
-0.007749
0.007710
-0.068875
0.013647
-0.039394
0.035999
-0.014064
0.002798
0.043246
0.075929
0.041796
0.040261
0.031022
0.032342
-0.020365
0.052374
0.126374
-0.031018
0.077346
0.129530
0.107104
0.058816
0.116460
0.105834
0.188573
0.190990
0.092010
0.134484
0.145149
0.195644
0.155846
0.186135
0.167513
0.254262
0.202684
0.109327
0.272950
0.229539
0.231952
0.171259
0.175631
0.202426
0.115633
0.148061
0.082329
0.129213
0.044925
0.065241
0.070030
0.143929
0.101451
0.040433
0.099508
0.050108
-0.024578
0.033205
0.043902
0.071262
0.016871
0.080951
0.011477
0.128929
0.214268
0.333005
0.539953
0.760509
1.207829
1.348459
1.420644
1.230210
1.039312
0.722895
0.364792
-0.023199
-0.083223
-0.138761
-0.061189
0.074149
-0.051903
0.159199
0.096257
0.094981
0.139902
0.180282
0.136159
0.092745
0.153984
0.232515
0.313307
0.286093
0.255883
0.246658
0.227516
0.354219
0.323060
0.315442
0.285287
0.391127
0.331589
0.454230
0.525341
0.412342
0.523158
0.484175
0.587478
0.498375
0.565726
0.588466
0.548607
0.604095
0.655782
0.561006
0.527259
0.559256
0.576782
0.549213
0.609065
0.547620
0.553957
0.515402
0.477835
0.494106
0.480636
0.485426
0.417749
0.466197
0.317804
0.365037
0.343015
0.379095
0.244945
0.298098
0.290886
0.262863
0.213268
0.187972
0.211686
0.195212
0.144784
0.193352
0.133063
0.081812
0.167319
0.169265
0.152780
0.079894
0.104480
0.063915
0.111106
0.196603
0.082024
0.086420
0.076646
0.128534
0.076737
0.103736
0.014061
0.091411
0.005095
0.086125
0.028146
0.132385
0.171073
0.064047
0.140914
0.005531
0.081990
0.047553
0.097568
0.048924
0.036589
0.009707
0.141840
0.092417
0.028506
0.077258
0.121434
0.018257
0.101186
0.126414
-0.025494
0.102110
0.106032
0.021357
0.144580
0.092756
0.134035
0.168883
0.162988
0.090674
0.141482
0.153555
0.138925
0.106044
0.086319
0.166528
0.162341
0.266518
0.204026
0.241823
0.249133
0.301119
0.277586
0.235011
0.214465
0.258027
0.304122
0.253099
0.307909
0.257152
0.214814
0.329600
0.213132
0.254997
0.211268
0.211543
0.194951
0.106400
0.182502
0.202048
0.188180
0.160669
0.031235
0.106765
0.085318
0.193163
0.134947
0.121419
0.131049
0.084032
0.121077
0.062391
0.083715
0.121237
0.081349
0.058650
0.082298
0.205271
0.449126
0.727300
0.965113
1.289272
1.500000
1.420079
1.108875
0.755180
0.367871
0.100932
-0.041492
-0.032254
-0.041179
-0.013627
0.093940
0.148916
0.089498
0.120550
0.261982
0.191508
0.144027
0.198635
0.186301
0.239420
0.209023
0.206077
0.295644
0.242641
0.249332
0.398630
0.255179
0.342772
0.433647
0.415667
0.440671
0.404883
0.468432
0.494173
0.489959
0.610153
0.597612
0.665280
0.491016
0.579112
0.589033
0.607968
0.579719
0.642933
0.570405
0.612661
0.570095
0.514211
0.590112
0.569779
0.562127
0.640992
0.502334
0.549421
0.540104
0.396192
0.390820
0.386856
0.473290
0.362180
0.360630
0.323371
0.326681
0.429773
0.395097
0.203588
0.202673
0.137158
0.238242
0.205859
0.207293
0.213982
0.107848
0.070504
0.051601
0.098683
0.147810
0.185575
0.070890
0.114380
0.064511
0.056944
0.029350
0.013833
0.016431
0.087341
0.119853
0.082496
0.085767
0.123328
0.068486
0.027466
-0.000057
0.094346
0.100188
0.104559
-0.020759
-0.009425
0.010561
0.055567
-0.006379
0.052282
0.061119
-0.030089
0.005832
0.106662
0.029219
0.048350
0.112910
0.014211
-0.015119
0.076503
0.038597
0.034230
0.015713
0.109066
-0.024324
0.000877
0.062822
0.057790
0.057328
0.094666
-0.008364
0.048496
-0.029562
0.078693
0.017589
0.061168
0.197719
0.148543
0.112833
0.242993
0.218208
0.116164
0.116230
0.239889
0.166499
0.251945
0.239161
0.049221
0.222285
0.135168
0.228637
0.214527
0.186806
0.184180
0.213748
0.096500
0.173555
0.185670
0.141443
0.028452
0.131424
0.059792
0.017512
0.046603
0.032166
0.029404
0.040219
0.068996
0.081742
0.048877
0.065130
0.067042
0.018481
-0.056586
-0.021321
0.108467
0.079362
0.079490
0.274715
0.542152
0.800488
1.085092
1.289659
1.300015
1.127741
0.845821
0.592187
0.232079
-0.013348
-0.093390
-0.151041
-0.187530
0.005791
-0.100303
0.141177
0.048173
0.071807
0.120068
0.099355
0.158447
0.059897
0.053239
0.026345
0.179137
0.125053
0.221404
0.210036
0.192056
0.246612
0.254893
0.279462
0.339094
0.346709
0.308788
0.415811
0.349764
0.377373
0.424678
0.492216
0.407277
0.514780
0.496444
0.501085
0.527426
0.489990
0.460186
0.491695
0.506447
0.506051
0.450145
0.470535
0.523934
0.425989
0.448948
0.423476
0.379861
0.411988
0.378241
0.350045
0.324664
0.190486
0.310588
0.286057
0.320263
0.143001
0.214718
0.146500
0.169819
0.142325
0.123414
0.057063
0.084973
0.070499
0.150057
0.072892
0.026317
0.014815
0.009949
0.015416
0.000565
-0.016398
0.036429
0.059148
-0.080590
0.011625
-0.038516
-0.069891
-0.059692
0.002577
-0.017553
-0.055716
-0.070485
-0.065039
-0.017647
-0.025152
0.002666
-0.062095
-0.009167
-0.008041
0.029357
-0.026292
-0.038185
-0.000445
-0.054605
-0.163020
-0.063912
-0.063316
-0.040872
-0.019652
-0.063106
-0.042522
-0.066049
0.017685
0.002392
-0.041867
-0.002525
-0.089159
-0.072054
-0.090494
0.013944
-0.048157
-0.021017
-0.017962
0.002360
-0.048939
-0.028804
0.015667
-0.011245
0.129656
0.073636
0.145587
0.049266
-0.013401
0.004983
0.063285
0.129646
0.079834
0.136022
0.062871
0.084006
0.094730
0.126213
0.099067
0.179524
0.118958
0.153784
0.081078
0.076249
0.127355
0.104790
0.040505
0.095236
0.086323
0.049945
-0.006945
0.023112
0.080729
0.055718
0.022532
-0.022654
0.000522
-0.048517
-0.170862
-0.031598
0.040582
0.021189
-0.023562
-0.034258
-0.082570
0.020157
-0.004981
-0.082233
0.172184
0.376223
0.616259
0.901188
1.196743
1.281602
1.283443
1.014551
0.641602
0.217804
0.010845
-0.177143
-0.211199
-0.147067
-0.100821
-0.027753
-0.028950
-0.084455
0.015256
0.003531
-0.049171
-0.038210
0.053763
0.103780
0.135313
0.084156
0.119497
0.155982
0.165797
0.208653
0.166083
0.247166
0.306707
0.292624
0.240958
0.271551
0.334057
0.389760
0.367547
0.501732
0.448916
0.432388
0.446363
0.412360
0.475822
0.523600
0.461597
0.559384
0.553898
0.514877
0.417924
0.465999
0.494373
0.511026
0.438036
0.452489
0.375528
0.450300
0.379548
0.367999
0.372890
0.276206
0.293106
0.312125
0.319122
0.210035
0.206041
0.177421
0.180076
0.185238
0.192889
0.167958
0.178094
0.132615
0.071222
0.025800
0.051416
0.079547
0.047693
0.031294
0.024941
0.094062
0.077899
0.040635
0.005006
-0.012712
-0.003032
0.061203
0.031859
-0.011944
-0.031668
-0.027391
0.070599
-0.004961
-0.003487
0.002433
-0.031100
-0.012340
0.007394
-0.050052
0.008159
-0.038628
0.028882
0.007921
-0.058671
-0.017913
-0.009050
0.026676
0.066656
-0.009526
0.038248
0.025111
-0.059387
-0.002717
-0.006518
0.017496
-0.021998
-0.049947
0.040315
0.047420
0.061871
0.104988
0.019770
-0.003239
-0.022480
-0.006923
0.030179
0.035729
0.021769
0.061973
0.131723
-0.013509
0.118992
0.149401
0.098025
0.142798
0.116769
0.125510
0.093942
0.105386
0.222522
0.182558
0.196939
0.149755
0.177251
0.112218
0.154958
0.274747
0.259767
0.240448
0.161021
0.096882
0.164275
0.124988
0.039385
0.088194
0.119958
0.039079
0.064738
0.133557
0.067407
0.123539
0.027080
0.122706
0.058241
0.103707
0.085378
0.048397
0.048730
0.070045
-0.009605
0.053728
0.024669
0.028471
0.199100
0.321056
0.573282
0.869344
1.132862
1.364815
1.344696
1.227221
0.847361
0.463522
0.206207
-0.082543
-0.084604
-0.122703
-0.053433
0.016918
0.051952
0.116768
0.151369
0.077882
0.084065
0.180885
0.184635
0.103975
0.178330
0.168769
0.152441
0.282189
0.246761
0.303566
0.232017
0.399068
0.304329
0.376945
0.481439
0.410712
0.406372
0.427920
0.486344
0.478473
0.514840
0.515092
0.559510
0.610869
0.521928
0.645704
0.515131
0.642641
0.587839
0.509356
0.608989
0.516375
0.593724
0.511000
0.568859
0.602492
0.546059
0.492829
0.455512
0.532109
0.459968
0.400894
0.554157
0.352859
0.435208
0.389203
0.349209
0.331721
0.287806
0.235593
0.222836
0.219525
0.194644
0.312462
0.277739
0.294070
0.157102
0.220271
0.274705
0.116040
0.178235
0.143427
0.117470
0.143621
0.021298
0.130245
0.174348
0.110894
0.167993
0.114930
0.078709
0.121152
0.077244
0.122054
0.123701
0.028032
0.087857
0.100621
0.132994
0.069113
0.013700
0.040082
0.080899
0.087591
0.033554
0.091446
0.157475
0.069050
0.026782
0.065083
0.037146
0.083611
0.135859
0.022650
0.160338
0.134503
0.063203
0.083317
0.127727
0.165393
0.101016
0.073149
0.192218
0.177930
0.091459
0.144587
0.128975
0.166087
0.138246
0.149179
0.153316
0.174383
0.197026
0.152779
0.104221
0.214533
0.269573
0.178084
0.139042
0.217036
0.208508
0.244521
0.375711
0.229833
0.192981
0.238165
0.301568
0.211629
0.296298
0.280195
0.261840
0.284465
0.239034
0.286914
0.240960
0.111234
0.179204
0.144334
0.192567
0.089889
0.126917
0.119893
0.111104
0.156127
0.078368
0.196944
0.124952
0.097377
0.225804
0.167093
0.091997
0.096024
0.095382
0.086294
0.137064
0.312830
0.485437
0.827450
1.218502
1.406460
1.432153
1.339085
1.064350
0.716618
0.402206
0.146910
-0.020995
-0.091325
-0.091837
0.052042
0.051456
0.100468
0.177638
0.131706
0.166749
0.143450
0.192046
0.217204
0.184852
0.225192
0.208384
0.338852
0.326828
0.239473
0.250827
0.413668
0.446109
0.325380
0.391180
0.378250
0.420038
0.487446
0.392097
0.438457
0.508640
0.576334
0.551041
0.544461
0.615688
0.604039
0.662858
0.565574
0.617039
0.640255
0.571876
0.598327
0.526019
0.636933
0.624495
0.568181
0.538566
0.563763
0.497559
0.458286
0.414356
0.503900
0.524204
0.408769
0.354855
0.387125
0.347674
0.337573
0.385101
0.347524
0.233064
0.246953
0.182551
0.165767
0.219634
0.070329
0.183706
0.176149
0.208409
0.121373
0.191618
0.118840
0.096230
0.059935
0.199468
0.089737
0.055731
0.146945
0.180464
0.131106
0.133521
-0.032954
0.081550
0.132506
0.052696
0.116161
0.194437
0.059013
0.020056
0.042285
0.041750
0.059092
0.088295
0.094693
0.070786
0.066104
0.113779
0.155060
0.033467
0.108685
0.123424
0.099232
0.077691
0.043008
0.084882
0.026998
0.048072
0.023702
0.054628
0.150718
0.066035
0.052177
0.139420
0.023834
0.015672
0.061336
0.113961
0.121173
0.114553
0.050357
0.170771
0.126359
0.151273
0.086089
0.219747
0.090642
0.148980
0.109786
0.186985
0.180475
0.182212
0.176504
0.198200
0.165964
0.279725
0.157731
0.260427
0.259423
0.177570
0.253961
0.215880
0.240665
0.130567
0.198143
0.214609
0.115170
0.129971
0.091409
0.114008
0.109376
0.122611
0.016924
0.051317
0.117346
0.125902
0.176760
0.005327
0.113846
0.004095
-0.021871
0.008489
-0.008787
0.046318
0.038720
0.017052
0.175238
0.331148
0.669063
0.946717
1.293284
1.394679
1.251241
1.135499
0.754385
0.412589
0.051546
-0.063220
-0.150095
-0.076259
-0.060202
-0.003036
0.077507
-0.026320
0.100552
0.077973
-0.008224
0.065022
0.123564
0.144144
0.118421
0.232852
0.160168
0.205634
0.154738
0.302788
0.210062
0.245557
0.237067
0.367050
0.358303
0.409693
0.396842
0.453576
0.380142
0.418517
0.406088
0.482014
0.407012
0.521942
0.540077
0.505958
0.565248
0.574553
0.537725
0.557485
0.552760
0.478550
0.477439
0.490644
0.482929
0.476424
0.486537
0.496103
0.508214
0.338864
0.482562
0.433711
0.358088
0.312709
0.201426
0.138613
0.319285
0.207574
0.231981
0.114650
0.221064
0.162293
0.138797
0.163102
0.132229
0.119979
0.104815
0.002467
-0.008572
0.126213
0.043941
0.028549
0.138635
0.016710
-0.005732
0.026195
0.101857
-0.003271
-0.016729
-0.007811
0.001637
0.005430
-0.010824
-0.033404
-0.029911
0.004580
-0.040323
-0.082177
-0.014036
-0.078133
-0.102814
-0.036370
-0.020368
-0.055912
-0.000332
-0.025580
-0.056285
-0.054646
-0.007162
-0.077324
-0.046103
-0.069377
-0.037104
-0.072178
-0.071486
0.001130
-0.126076
-0.088481
-0.078718
-0.107504
-0.035084
-0.049452
-0.050367
-0.055160
-0.007690
-0.027707
-0.032326
-0.065075
0.075577
0.009440
-0.061730
0.005711
0.001364
0.008908
0.078594
0.108120
0.163614
0.067089
0.076040
0.119610
0.148604
0.049975
0.121558
0.079865
0.098008
0.112252
0.083031
0.158949
0.053818
0.100096
0.083418
0.186048
0.094879
0.046903
0.040891
0.068610
-0.012836
-0.000541
0.040931
0.007338
0.052003
0.055815
-0.002416
-0.038873
-0.162693
-0.055207
-0.062862
-0.110832
-0.096321
-0.028580
-0.038401
-0.089386
-0.002962
-0.013708
-0.010251
0.242398
0.376049
0.732406
1.065979
1.281150
1.313967
1.169497
0.846688
0.488639
0.147016
-0.133855
-0.208933
-0.272422
-0.194618
-0.104032
-0.077505
0.018850
-0.010491
-0.027331
0.003497
-0.009305
-0.010633
-0.001087
-0.093606
0.098144
0.107359
0.080804
0.166164
0.089143
0.190248
0.144753
0.189611
0.131330
0.214874
0.247045
0.298219
0.314012
0.341263
0.333669
0.370375
0.359558
0.418777
0.332123
0.443629
0.440693
0.442345
0.402060
0.407870
0.456756
0.477886
0.437714
0.467081
0.345882
0.501930
0.378315
0.426512
0.318631
0.458199
0.334298
0.340511
0.284063
0.288505
0.267072
0.241891
0.211889
0.165820
0.201690
0.159309
0.136180
0.076272
0.168137
0.079754
0.146480
0.127502
0.066555
0.001970
0.058015
-0.053473
-0.067368
0.024669
0.055523
0.030041
-0.074325
-0.091802
-0.081130
-0.075584
0.047802
-0.061918
-0.056864
-0.101686
-0.096900
-0.059819
-0.048009
-0.068138
-0.107729
-0.084410
-0.079895
-0.080828
-0.094981
-0.068589
-0.135978
-0.131234
-0.094894
-0.084447
-0.049946
-0.131086
-0.077230
-0.098675
-0.059659
-0.071667
-0.054139
-0.127959
-0.034057
0.007724
-0.111547
-0.011259
-0.037364
-0.060596
-0.115931
-0.099806
-0.105062
-0.003150
-0.056547
0.032592
-0.075587
-0.077100
-0.092649
-0.064349
-0.027337
0.052296
-0.010809
0.014159
-0.012179
0.065935
0.066096
0.045800
0.109609
0.089448
0.131346
0.068600
0.127021
0.122530
0.143738
0.081292
0.130415
0.091734
0.124946
0.132301
0.161625
0.057593
0.132846
0.092162
0.031897
0.089843
0.007313
0.081839
0.017973
-0.035626
0.039103
-0.024604
0.018217
0.044143
-0.010424
0.032129
-0.019309
0.063388
-0.021203
-0.085231
-0.080006
-0.069832
-0.053736
-0.015515
-0.044438
-0.024969
0.072815
0.322277
0.620642
0.953860
1.219278
1.389358
1.200347
1.017293
0.704424
0.284616
0.020216
-0.165051
-0.314381
-0.171146
-0.083565
-0.054899
0.030141
-0.015952
0.060710
0.035546
0.076176
0.034979
0.050377
0.076815
0.050686
0.125190
0.205131
0.118931
0.127213
0.115485
0.150108
0.243220
0.264479
0.268034
0.304946
0.369488
0.331909
0.416664
0.323049
0.373882
0.464784
0.450697
0.479980
0.529075
0.499998
0.522426
0.468216
0.489215
0.500397
0.522661
0.500083
0.536412
0.473568
0.466943
0.417985
0.516915
0.409034
0.370356
0.421224
0.410996
0.430739
0.405181
0.308600
0.289518
0.267462
0.327071
0.245639
0.168966
0.227290
0.161035
0.156647
0.208855
0.109778
0.061469
0.151406
0.158688
0.142292
0.131989
0.063091
0.161523
0.056716
0.030099
0.137090
0.042433
-0.044525
-0.076525
-0.009302
0.012240
0.018205
0.063826
0.047375
0.027931
0.064436
0.009960
-0.013136
0.074493
-0.007633
-0.056794
-0.050773
0.006911
-0.018655
0.073512
0.027776
0.006783
-0.000010
-0.035729
0.049628
0.069106
0.007865
0.032390
-0.024499
0.047599
0.067157
-0.010054
-0.054947
0.034489
-0.010137
-0.038467
-0.009775
0.016501
-0.021649
0.065927
0.030763
-0.020861
-0.025413
0.119154
0.024772
0.041057
0.094405
0.056588
0.126466
0.156660
0.089295
0.008885
0.179594
0.190298
0.180432
0.150557
0.151635
0.146026
0.207099
0.265377
0.203050
0.239432
0.231402
0.230577
0.245754
0.226269
0.222698
0.113040
0.191875
0.193112
0.152893
0.167907
0.130495
0.187077
0.030342
0.090216
0.117211
0.130229
0.092209
0.081756
0.096870
0.029449
0.146985
0.098590
0.097853
0.056753
0.030942
0.056510
0.056552
0.016785
0.009434
0.061187
0.137042
0.287660
0.541658
0.804788
1.177885
1.343135
1.390313
1.318883
0.933979
0.546354
0.219159
0.027311
-0.015229
-0.110839
0.019624
-0.041658
0.035524
0.137454
0.122596
0.073124
0.140114
0.124842
0.104357
0.111662
0.173463
0.164739
0.203643
0.249331
0.244706
0.207612
0.269466
0.298272
0.271000
0.291136
0.350860
0.422588
0.411642
0.418205
0.443393
0.492877
0.374153
0.491179
0.556542
0.472621
0.547720
0.620974
0.557432
0.515676
0.575032
0.620256
0.590253
0.550601
0.497968
0.569543
0.552945
0.522831
0.590892
0.495642
0.556840
0.436151
0.438694
0.330596
0.375579
0.402487
0.388997
0.325394
0.357937
0.318964
0.318248
0.283537
0.304810
0.188755
0.218522
0.191723
0.102344
0.145383
0.106610
0.116358
0.191186
0.126767
0.004976
0.189595
0.131610
0.031899
0.068663
0.079909
0.061050
0.063864
0.117199
0.119607
0.078608
0.080527
0.046242
0.092701
0.054716
-0.013427
0.070182
0.049946
0.020291
0.166005
-0.003886
0.035406
0.024306
0.071870
0.084267
-0.016938
0.040083
0.058438
0.003896
0.004337
-0.013729
0.064245
0.059337
0.009403
0.089764
0.008285
0.034811
0.047334
0.058251
0.087817
0.068087
0.036221
0.051687
0.087984
0.106825
0.139900
0.131023
0.084474
0.050874
0.072041
0.105283
0.066580
0.134120
0.106103
0.153091
0.193044
0.163568
0.115580
0.134184
0.159732
0.243190
0.248807
0.218011
0.076865
0.180267
0.271726
0.207767
0.288118
0.216249
0.218309
0.186154
0.232898
0.141116
0.154928
0.147127
0.195758
0.141058
0.125528
0.072548
0.145489
0.136545
0.039156
0.138108
0.012014
0.020768
0.091059
0.030490
-0.012873
0.008376
0.025602
0.038096
-0.030245
0.011809
0.068627
0.083274
0.176473
0.448916
0.729774
0.939329
1.302265
1.434687
1.344549
1.147907
0.597009
0.328631
0.032385
-0.131789
-0.127213
-0.146599
0.058925
-0.083531
0.010348
0.056234
0.101303
0.077166
0.174293
0.082205
0.129986
0.083893
0.185381
0.142638
0.159965
0.245367
0.210490
0.224421
0.280479
0.248691
0.208244
0.347547
0.337831
0.329916
0.436064
0.455904
0.349400
0.341087
0.446695
0.432487
0.442398
0.496824
0.386437
0.521441
0.551492
0.500164
0.554958
0.546690
0.452078
0.512311
0.471757
0.521420
0.449398
0.571944
0.447694
0.475299
0.446590
0.482924
0.366915
0.385074
0.339512
0.285872
0.243944
0.276190
0.150058
0.229186
0.241648
0.135724
0.139461
0.141652
0.254502
0.148557
0.096638
0.099781
0.057553
0.010671
0.098555
0.071105
0.102548
0.012290
0.007714
0.024604
-0.038284
-0.034879
0.060222
-0.042321
0.047334
0.009723
0.004812
0.024905
-0.024832
-0.101381
0.015576
-0.030717
-0.114372
0.063478
-0.115395
-0.041421
-0.042018
-0.025381
0.020608
-0.012791
0.025505
-0.109873
-0.036329
0.003544
-0.043733
-0.103229
-0.017534
-0.074428
-0.086012
-0.041471
0.014375
-0.007918
-0.019735
-0.038988
-0.033566
-0.098464
-0.054631
-0.028472
-0.107886
0.017780
-0.125354
0.007933
-0.007767
0.004318
-0.066696
-0.046855
-0.005382
-0.013069
-0.040029
0.056890
0.070152
0.107021
0.054627
0.013708
0.062046
0.077618
0.072471
0.134394
0.096587
0.114213
0.086905
0.018442
0.066675
0.123392
0.099891
0.088054
0.150596
-0.015026
0.015553
0.117932
0.107504
0.083369
0.023886
-0.003750
0.085809
0.015286
-0.103427
-0.093766
-0.094149
-0.044227
-0.086906
-0.049584
0.020445
-0.018747
-0.107105
-0.076054
0.006382
-0.024919
-0.112244
-0.008736
0.069182
0.272998
0.513711
0.834360
1.044731
1.304436
1.220146
1.085213
0.598518
0.256174
-0.044643
-0.192554
-0.134654
-0.259971
-0.116115
-0.139561
-0.075754
-0.068479
-0.010157
-0.033426
-0.039635
0.027670
-0.073649
0.102960
0.026915
0.044689
0.003482
0.128509
0.163193
0.111337
0.129940
0.186989
0.249934
0.229548
0.160804
0.239846
0.277616
0.314875
0.265984
0.311737
0.430899
0.348904
0.305380
0.369714
0.365709
0.386564
0.430116
0.498088
0.377739
0.386178
0.403940
0.357904
0.466693
0.413402
0.311437
0.370275
0.423854
0.349874
0.398405
0.283193
0.340952
0.258678
0.260854
0.192059
0.237714
0.134080
0.204120
0.145830
0.133319
0.134616
0.143000
0.088036
0.044626
-0.046146
-0.039128
0.005928
0.072908
-0.021697
0.027645
-0.009042
-0.058651
0.014754
-0.078071
-0.045314
0.002420
-0.076722
-0.082486
-0.100512
-0.064683
-0.092062
-0.127414
-0.091508
-0.055201
-0.051601
-0.094017
-0.058283
-0.098568
-0.097828
-0.048258
-0.053840
-0.116503
-0.124369
-0.080385
-0.033186
-0.090629
-0.115842
-0.083394
-0.100543
-0.149021
-0.165721
-0.139719
-0.085083
-0.097754
-0.129261
-0.126117
-0.088139
-0.074721
-0.098139
-0.092716
-0.028791
-0.108402
-0.160819
-0.093241
-0.037053
-0.186960
-0.061444
-0.135598
-0.107410
-0.013661
-0.068874
0.021280
0.008481
-0.026259
-0.027067
-0.006335
0.049664
0.033990
0.054292
0.079719
-0.021575
0.040755
0.140051
0.041405
0.068647
0.141376
0.082556
0.060717
0.087576
0.081333
0.095674
0.080080
0.071205
0.089133
0.073817
-0.053094
0.084027
-0.030643
-0.013528
0.034600
-0.037520
-0.021069
-0.075178
-0.021879
0.027188
-0.037157
-0.118369
-0.075710
-0.088313
-0.053360
-0.098849
-0.012682
-0.131118
-0.124721
-0.066288
-0.027254
0.123828
0.398789
0.715682
0.985999
1.208592
1.360230
1.201408
0.951545
0.453253
0.096124
-0.068367
-0.330560
-0.347219
-0.154674
-0.102940
-0.129835
-0.049135
-0.023010
0.015857
0.095809
0.009393
-0.011163
0.093725
0.018725
0.030170
0.133767
0.118993
0.047681
0.113227
0.108800
0.194670
0.184766
0.224930
0.285990
0.264657
0.250811
0.293237
0.386171
0.382148
0.389053
0.348609
0.400490
0.395266
0.441882
0.424310
0.478029
0.452355
0.521486
0.436871
0.520690
0.477380
0.455838
0.453309
0.488777
0.499746
0.471735
0.407987
0.432094
0.351521
0.309059
0.384768
0.403461
0.348196
0.325975
0.244015
0.247695
0.234617
0.148396
0.186248
0.168830
0.122423
0.099599
0.069009
0.034506
0.083027
0.063669
0.097317
0.090156
0.067949
0.050315
-0.054930
0.025301
0.017616
-0.015518
-0.002084
0.025017
-0.011194
-0.036439
0.016095
0.078674
0.053741
0.032480
-0.119683
-0.075965
-0.009621
-0.025082
-0.054805
-0.014109
-0.021170
0.028767
0.054203
-0.060899
-0.021069
-0.025989
-0.076008
0.000460
-0.089585
0.074931
-0.027319
-0.023816
-0.041942
-0.011123
-0.042185
-0.095489
-0.048569
0.012793
-0.041499
0.051481
-0.040377
-0.003866
-0.045539
-0.051612
-0.020403
-0.006162
0.007292
0.044055
0.075343
-0.001161
0.059521
0.091758
0.035966
0.040893
0.012508
0.112718
0.082316
0.148233
0.142884
0.188229
0.090286
0.142889
0.186778
0.159196
0.186235
0.165402
0.170474
0.269426
0.151662
0.161958
0.184762
0.142494
0.187055
0.183810
0.165849
0.035903
0.022546
0.082352
0.213087
0.121127
0.063798
0.087731
0.104078
0.079322
-0.025574
0.083136
-0.009951
-0.028436
0.057516
-0.034035
0.040656
0.005937
-0.004721
0.091126
-0.062914
0.058113
0.200247
0.408235
0.746392
0.944968
1.264809
1.344980
1.323879
1.112536
0.736418
0.448894
0.058688
-0.120257
-0.105844
-0.097065
-0.034222
0.036616
0.106010
0.012734
0.135286
0.172853
0.083781
0.128226
0.155043
0.105123
0.146657
0.288689
0.188234
0.271045
0.266526
0.235310
0.152316
0.250765
0.268956
0.322331
0.393613
0.346324
0.339194
0.451594
0.497074
0.436194
0.502065
0.435649
0.609393
0.476247
0.541369
0.544020
0.549164
0.552725
0.555237
0.609716
0.623727
0.526226
0.606913
0.579105
0.574972
0.491124
0.553788
0.548378
0.424050
0.497854
0.520362
0.396153
0.350482
0.340974
0.382771
0.278325
0.321787
0.211646
0.217274
0.306841
0.298353
0.230064
0.292417
0.188204
0.214654
0.231158
0.125857
0.197238
0.124714
0.086566
0.193198
0.152520
0.087950
0.022406
0.080819
0.045909
0.083798
0.126043
0.061692
0.119144
0.093637
0.112026
0.086359
0.008268
0.048554
0.079443
0.064653
0.095387
0.107150
0.053088
0.122087
0.078683
0.005270
0.097784
0.085812
0.109296
0.150898
0.041722
0.059387
0.076038
0.069491
0.072477
0.180601
0.027828
0.151841
0.109198
0.064194
0.036103
0.114602
0.110387
0.100353
0.150224
0.120303
0.025688
0.104690
0.127150
0.093841
0.073954
0.152876
0.075324
0.130586
0.105848
0.140150
0.189873
0.127968
0.227022
0.169293
0.228408
0.385986
0.201308
0.233983
0.186436
0.204419
0.216154
0.224805
0.277884
0.280314
0.297588
0.296759
0.197992
0.155251
0.232350
0.203742
0.202931
0.164490
0.188465
0.160854
0.135360
0.220099
0.145948
0.106214
0.125782
0.086319
0.063222
0.141145
0.071801
0.129448
0.010892
