0.036878
-0.024579
0.007372
0.035759
0.014072
0.018260
0.034293
0.019451
-0.007561
-0.032697
0.019183
-0.009896
0.055831
0.025155
-0.067404
0.026651
0.005192
0.059037
0.077028
0.112593
0.140347
0.081544
0.086430
0.041818
0.138189
0.133594
0.113336
0.070296
0.208491
0.204407
0.171654
0.198635
0.268762
0.190945
0.214857
0.220355
0.174120
0.262011
0.237631
0.196812
0.183126
0.231173
0.208746
0.143277
0.099401
0.165400
0.118941
0.146020
0.084859
0.081281
0.237737
0.100042
0.080622
0.060362
0.127156
0.073449
0.068803
0.063183
0.080102
0.103323
-0.011985
-0.003479
0.055798
0.066868
-0.012610
0.113969
0.099222
0.109734
0.338658
0.603596
0.909490
1.278055
1.500000
1.271059
1.220119
0.809056
0.460704
0.094952
-0.027315
-0.134553
-0.095541
-0.100342
0.095879
0.033314
0.092963
0.143002
0.067410
0.073148
0.092161
0.230826
0.138536
0.176219
0.210077
0.200464
0.173427
0.278338
0.269811
0.250331
0.317154
0.254163
0.417988
0.385420
0.423038
0.421953
0.331914
0.484310
0.439688
0.504621
0.453800
0.520930
0.533113
0.531815
0.591421
0.588358
0.544684
0.574002
0.637479
0.602611
0.604443
0.569048
0.583725
0.599530
0.562674
0.530243
0.511504
0.609324
0.471016
0.507246
0.475726
0.451198
0.486668
0.485299
0.339906
0.434843
0.332013
0.336423
0.298584
0.279063
0.275525
0.292666
0.240302
0.170280
0.309630
0.257477
0.252363
0.083945
0.159776
0.156757
0.057732
0.181804
0.129947
0.058832
0.180039
0.088339
0.142779
0.100971
0.057656
0.106120
0.043183
0.119567
0.102770
0.014866
0.096777
0.092062
0.069369
0.117718
0.051642
0.083752
0.131032
0.111380
0.068902
0.121049
0.031358
0.109263
0.113908
0.018438
0.014361
0.036839
0.037908
0.088236
0.044958
0.102957
0.016358
0.036899
0.164527
0.047782
0.124816
0.016994
0.077780
-0.037777
0.052014
0.092091
0.036783
0.048810
0.083467
0.035969
0.096464
0.190564
0.121952
0.109743
0.071466
0.084464
0.063819
0.176786
0.154798
0.186350
0.154919
0.209306
0.193649
0.235083
0.177037
0.160673
0.233041
0.239934
0.302699
0.224603
0.252005
0.269724
0.324843
0.208807
0.271543
0.220377
0.312150
0.157985
0.216044
0.242054
0.239893
0.279965
0.204680
0.136597
0.189088
0.197633
0.163692
0.167530
0.182482
0.172096
0.184890
0.112041
0.071128
0.085714
0.107193
0.059545
0.113860
0.073651
0.053840
0.036234
0.010518
0.174543
0.298283
0.498747
0.802968
1.086924
1.377423
1.469130
1.295939
1.193584
0.777474
0.410607
0.054978
-0.126414
-0.166763
-0.096152
0.039271
0.097125
0.150270
0.211283
0.054160
0.136458
0.173009
0.209656
0.126362
0.146998
0.254363
0.225142
0.264204
0.168318
0.208620
0.218889
0.224428
0.252124
0.348499
0.372831
0.345853
0.339424
0.436924
0.384626
0.456457
0.393172
0.486597
0.501534
0.522119
0.498107
0.581083
0.518287
0.558957
0.558443
0.576067
0.578973
0.552205
0.570836
0.579413
0.644475
0.557639
0.624244
0.519361
0.489553
0.451098
0.525827
0.507775
0.406486
0.481164
0.336485
0.331615
0.259718
0.383850
0.331151
0.296135
0.267908
0.291065
0.246006
0.269211
0.128688
0.120999
0.268168
0.213141
0.100489
0.120340
0.128451
0.165449
0.069163
0.157224
0.118179
0.041645
0.071185
0.084597
0.096278
0.125112
0.040939
0.092170
0.060669
0.067517
0.140986
0.160677
0.065617
0.094233
0.004485
0.001208
0.118769
-0.021487
0.017646
0.055823
0.043731
-0.073046
0.075495
0.020450
0.052126
-0.057112
0.001174
0.098772
0.008783
0.028850
0.050203
0.082259
0.019422
0.092255
0.080933
-0.016209
0.065002
0.061598
-0.024847
0.009672
-0.021477
0.023770
-0.015015
-0.031159
0.043911
0.047948
0.041206
0.007549
0.057948
0.024535
0.076870
0.004016
0.092266
0.053405
0.176000
0.156052
0.110412
0.156925
0.119274
0.197907
0.121969
0.183835
0.126733
0.209401
0.173991
0.211117
0.231681
0.206612
0.198667
0.170768
0.220432
0.146819
0.186168
0.118592
0.113398
0.119022
0.114914
0.065670
0.188712
0.097336
0.041780
0.102451
0.071982
0.002451
0.038552
0.047764
0.027237
0.101236
0.048392
0.017828
-0.051100
-0.015229
-0.000332
-0.015701
-0.004844
-0.039996
-0.040424
0.069730
0.163790
0.405865
0.781503
1.140636
1.249191
1.430932
1.179720
0.921871
0.558036
0.156756
-0.172747
-0.248842
-0.194818
-0.138031
-0.098171
-0.041664
0.036301
0.049583
0.071924
0.120238
-0.020165
0.117954
0.064685
0.041082
0.017394
0.081602
0.141407
0.065075
0.183272
0.204756
0.215691
0.109424
0.216625
0.292999
0.230183
0.248673
0.319122
0.342122
0.303476
0.354899
0.435027
0.468618
0.434787
0.447676
0.477870
0.379491
0.450506
0.475854
0.481597
0.494214
0.479296
0.468902
0.467054
0.490761
0.478426
0.379030
0.478239
0.507448
0.410234
0.418643
0.379620
0.352634
0.378646
0.271566
0.345029
0.348037
0.247207
0.287681
0.178925
0.193498
0.236175
0.174059
0.087869
0.037673
0.151348
0.087366
0.140151
0.114511
0.117551
-0.006964
-0.001474
0.025826
-0.015339
-0.029208
-0.091146
0.030103
-0.034698
-0.012275
0.042107
-0.062604
-0.024751
-0.038472
-0.006782
0.015003
-0.160421
-0.039634
-0.052401
0.003980
0.003761
-0.053691
-0.041783
-0.021801
-0.024933
-0.121462
-0.114191
-0.089747
0.008128
-0.026452
0.005158
-0.084368
-0.114864
0.049308
-0.089995
0.039058
-0.101734
-0.047107
-0.012657
-0.067637
-0.052523
0.044938
-0.035052
0.010809
-0.044612
0.014266
-0.009690
-0.003087
0.079677
-0.016217
-0.061703
-0.057160
-0.027003
0.014106
-0.035011
0.049778
0.039304
-0.054619
-0.031283
0.105228
0.019210
0.047479
0.083832
0.068243
0.084815
0.097514
0.046222
0.134110
0.055122
0.029048
0.062436
0.168858
0.228374
0.187216
0.105743
0.067132
0.166467
0.149695
0.102355
0.120591
0.064635
-0.000212
0.028045
0.061402
0.046269
-0.000957
0.003595
0.049727
-0.012732
0.070238
-0.014542
0.013503
0.007067
-0.103624
-0.017850
-0.006640
-0.035044
-0.127868
-0.015681
-0.059680
-0.047376
-0.024209
0.072034
0.189354
0.419726
0.836798
1.104043
1.276702
1.324426
1.068711
0.934753
0.351726
0.025706
-0.102350
-0.259708
-0.255931
-0.070982
-0.146645
-0.094219
0.044069
-0.046904
-0.051817
0.048505
0.021148
0.037990
0.092370
0.129180
0.025360
0.066681
0.085397
0.146435
0.151738
0.163775
0.296124
0.217701
0.279860
0.250888
0.332121
0.326249
0.306373
0.337148
0.300152
0.302283
0.372129
0.499956
0.392353
0.366273
0.503875
0.460319
0.425224
0.532465
0.468798
0.573665
0.533429
0.440267
0.532435
0.445850
0.515825
0.459321
0.480272
0.467178
0.372100
0.377820
0.354709
0.398021
0.297684
0.313280
0.271207
0.257274
0.222776
0.231935
0.155650
0.116286
0.241620
0.161429
0.234746
0.097338
0.094256
0.041331
0.110774
0.067234
0.144840
0.101632
0.033184
0.000447
0.018934
-0.020358
0.037551
0.011156
0.027685
-0.021822
0.060434
-0.002497
0.048338
0.011957
-0.002593
0.075191
0.001587
-0.074535
-0.039692
0.023667
0.023004
-0.023439
-0.007995
0.084380
0.027865
-0.006913
0.046794
-0.024599
0.013071
-0.063695
-0.076168
-0.043166
0.031540
0.038085
-0.057917
0.077092
-0.007643
-0.076776
0.010125
0.007595
-0.072537
0.073144
-0.038432
-0.081528
0.013246
0.069816
-0.010366
-0.051642
0.057538
0.009268
0.071507
0.009651
-0.026731
0.017187
0.084649
0.017665
0.118510
0.136249
0.059856
0.175484
0.107131
0.136480
0.142710
0.149252
0.181172
0.098345
0.187755
0.194036
0.115943
0.199928
0.169594
0.175512
0.193284
0.199743
0.203427
0.217112
0.158376
0.302917
0.256719
0.076360
0.129198
0.174706
0.112255
0.098050
0.137555
0.069712
0.132693
0.042336
0.034681
0.125501
0.044764
0.074904
0.124923
0.063510
0.032783
0.056759
0.092269
0.053182
0.100147
0.057332
0.073919
-0.012179
0.127411
0.409718
0.631373
0.991025
1.276053
1.464537
1.434692
1.199515
0.744064
0.364657
0.061152
-0.088999
-0.071845
-0.077889
0.029970
0.052886
0.058186
0.143682
0.062102
0.067552
0.095465
0.189190
0.117236
0.145093
0.213139
0.180928
0.257731
0.171809
0.236187
0.224243
0.253793
0.151222
0.306286
0.387153
0.335199
0.297434
0.409361
0.437962
0.455744
0.391461
0.462305
0.435870
0.446481
0.480513
0.542759
0.530718
0.587396
0.572574
0.578293
0.636513
0.574811
0.576357
0.534486
0.562399
0.576694
0.552660
0.511904
0.579504
0.477987
0.505171
0.537256
0.544856
0.419869
0.459163
0.431202
0.448894
0.363696
0.420892
0.352381
0.292680
0.280864
0.312935
0.263915
0.235465
0.356544
0.213409
0.215053
0.209259
0.154786
0.141568
0.112001
0.080986
0.123330
0.060361
0.068828
0.148406
0.087256
0.115282
0.154573
0.019143
0.008919
0.116119
0.054085
0.074921
0.084821
0.060968
0.040398
0.008873
0.130863
0.042066
0.183264
0.117268
0.106988
0.050835
0.029311
0.128069
0.081130
-0.007039
0.136287
0.077395
0.081175
0.032450
0.005763
0.121802
0.083288
0.077557
0.114823
0.128208
0.102167
0.024752
-0.019862
0.133307
0.121710
0.054609
0.112007
0.057363
0.161404
0.067795
0.087678
0.075409
0.069945
0.117871
0.122306
0.138743
0.092461
0.148143
0.211001
0.155095
0.152245
0.208175
0.246235
0.171135
0.267627
0.175218
0.235069
0.189045
0.261815
0.247984
0.268033
0.285013
0.233200
0.310984
0.227175
0.176228
0.277380
0.208639
0.280053
0.158400
0.163524
0.164969
0.194972
0.162088
0.193546
0.168245
0.232266
0.165095
0.180501
0.163013
0.139093
0.114463
0.103373
0.138567
0.067974
0.090747
0.057229
0.168653
0.063202
0.117826
0.038846
0.106847
0.205374
0.320774
0.505831
0.729526
1.108636
1.335890
1.394389
1.304156
1.079933
0.733783
0.401706
0.024073
-0.137324
-0.097673
-0.035468
-0.031398
0.110169
0.086615
0.123506
0.085653
0.194205
0.110651
0.164808
0.252583
0.141979
0.225638
0.214510
0.285171
0.236129
0.279466
0.282659
0.343261
0.270298
0.335066
0.375767
0.407544
0.389176
0.459020
0.387670
0.438464
0.491561
0.411920
0.533725
0.507773
0.532749
0.564541
0.618426
0.608309
0.573511
0.585107
0.592351
0.615116
0.658341
0.558239
0.555519
0.578554
0.564522
0.601624
0.607398
0.454285
0.504235
0.457789
0.507557
0.539574
0.435124
0.425966
0.435079
0.362696
0.352234
0.318146
0.281463
0.246088
0.289428
0.222701
0.223944
0.247867
0.206488
0.160051
0.219418
0.140626
0.092208
0.139520
0.133077
-0.011125
0.051311
0.056768
0.023204
0.099202
0.109448
0.088011
0.023726
0.172914
0.069247
-0.035233
0.085192
0.035235
0.043827
0.033076
0.062494
0.066464
0.023891
0.054797
0.007693
-0.008891
-0.015262
0.149143
0.055261
-0.037950
0.040610
0.071000
0.076602
0.023560
0.090539
0.076216
0.050230
-0.033652
-0.010576
-0.014917
-0.020068
0.057029
0.084747
-0.026116
0.044070
0.045151
0.009403
0.037132
0.127906
0.062874
-0.013299
0.065521
0.005791
-0.010524
0.080980
0.063480
0.113874
0.065786
0.094768
0.154767
0.093058
0.106635
0.190528
0.151574
0.079602
0.202665
0.198448
0.100224
0.189680
0.117151
0.170301
0.241455
0.194534
0.249652
0.199996
0.220068
0.218355
0.108143
0.058276
0.142974
0.211492
0.086805
0.165153
0.099958
0.118244
0.140280
0.105171
0.057322
0.052705
0.087167
-0.005433
0.011079
0.088729
0.020108
0.000137
0.068021
0.041392
0.023554
-0.003254
-0.032438
0.074285
-0.005999
0.083570
0.074536
0.228157
0.457144
0.836488
1.110606
1.212327
1.318815
1.212887
0.929609
0.588849
0.217463
-0.085583
-0.204404
-0.137745
-0.099995
-0.107154
-0.059211
-0.001382
-0.035765
0.109929
0.079066
0.045891
0.105723
0.030363
0.082349
0.091051
0.092301
0.154879
0.151213
0.129336
0.188954
0.202178
0.213027
0.235926
0.290735
0.296858
0.321795
0.352248
0.326752
0.361070
0.419305
0.422839
0.458444
0.490823
0.491451
0.515425
0.485760
0.523084
0.462747
0.468605
0.492258
0.408043
0.501771
0.532017
0.491810
0.516992
0.433041
0.368654
0.436980
0.399591
0.402598
0.355131
0.393120
0.350774
0.311179
0.292704
0.231823
0.298392
0.185757
0.154812
0.127088
0.147116
0.069791
0.167767
0.211443
0.070767
0.082493
0.106360
0.053516
0.066260
0.061439
0.018300
-0.002625
0.033072
-0.001326
0.045981
0.066490
-0.019367
0.057323
-0.005629
0.020673
-0.088363
-0.057609
-0.074682
-0.103858
-0.116207
0.037453
-0.005914
0.019564
-0.051109
-0.104691
-0.128636
-0.133768
-0.022870
-0.131089
-0.005548
-0.037930
-0.053500
-0.044448
-0.023483
-0.135314
-0.094333
-0.082950
-0.084513
-0.033576
-0.063443
-0.047106
-0.114930
-0.004515
-0.061134
-0.062053
-0.147951
-0.023401
-0.034346
-0.052604
-0.056324
0.014157
-0.114917
0.050767
0.006491
-0.110669
0.008093
-0.021447
-0.038130
-0.088835
-0.010082
-0.085226
-0.042493
0.012876
0.045595
0.044063
-0.039949
0.092232
0.072909
0.090702
0.043734
0.153337
0.063277
0.087351
0.067419
0.097502
0.123864
0.072001
0.139069
0.091103
0.071668
0.108908
0.043121
0.069336
0.053155
-0.045301
0.091825
0.039346
0.003799
-0.109474
-0.094727
-0.008911
-0.054843
0.000006
0.048776
-0.074938
-0.115638
-0.053422
-0.026256
-0.123079
-0.098276
-0.198513
-0.118445
-0.067044
-0.069339
-0.060306
-0.018516
0.202832
0.522649
0.817581
1.108403
1.246503
1.312719
1.045124
0.718786
0.359743
-0.063641
-0.156496
-0.297439
-0.190169
-0.191541
-0.031377
-0.062919
-0.044558
-0.034458
-0.003056
-0.016147
0.046050
0.022471
-0.008161
0.068417
0.011213
0.096397
0.076710
0.028459
0.118676
0.157774
0.069783
0.178767
0.167594
0.240486
0.202466
0.221801
0.303736
0.307614
0.411770
0.331357
0.335784
0.371489
0.348414
0.429917
0.462847
0.470595
0.481847
0.450170
0.401775
0.414486
0.389484
0.361812
0.468349
0.467479
0.454364
0.377288
0.424962
0.345343
0.409252
0.370716
0.328268
0.308279
0.279654
0.228410
0.245273
0.282986
0.226864
0.164803
0.122108
0.126749
0.079688
0.022634
0.087834
0.062578
-0.004050
0.094620
0.094515
0.039599
-0.053290
-0.003659
-0.057316
0.000979
-0.047129
-0.045592
-0.002806
-0.007086
0.037074
-0.078587
-0.081297
-0.052117
-0.043872
-0.032613
-0.092449
0.027691
-0.043932
-0.015177
-0.033565
-0.010001
-0.001009
0.001271
-0.075726
-0.049541
-0.077280
0.009816
-0.031319
-0.036720
-0.105935
-0.045666
-0.057382
-0.044702
-0.047267
-0.074686
-0.079842
-0.000074
-0.031256
-0.012167
-0.012132
-0.036705
-0.036885
-0.047030
-0.054116
-0.118478
-0.057208
-0.078506
0.105986
-0.147574
0.078972
-0.052299
0.027120
-0.005799
-0.011814
-0.047914
0.060872
0.052208
0.011134
0.029955
0.028851
0.060553
0.005053
0.000296
0.114013
0.068746
0.127158
0.051377
0.186624
0.124882
0.102471
0.226110
0.236855
0.189491
0.125970
0.208762
0.053701
0.142777
0.087201
0.099456
0.160512
0.199950
0.098753
0.143039
0.123077
0.023070
0.056770
0.055360
0.018309
-0.010753
0.021531
-0.019084
0.032137
-0.061678
-0.061257
-0.045948
-0.030450
-0.055812
-0.011179
-0.059871
-0.080996
-0.074168
-0.048195
0.069935
0.113712
0.406507
0.614785
0.886437
1.261727
1.319908
1.288078
1.025187
0.709657
0.321797
0.031079
-0.164743
-0.168371
-0.146130
-0.153205
-0.057565
-0.015443
-0.022646
0.047443
0.093436
0.000500
0.106895
0.042657
0.091350
0.141768
0.164569
0.135991
0.203785
0.117695
0.126410
0.250552
0.291290
0.358196
0.339089
0.303956
0.271153
0.320175
0.323333
0.470205
0.378774
0.424348
0.450022
0.458214
0.451814
0.455626
0.499585
0.586930
0.542831
0.569380
0.521604
0.523803
0.490680
0.535657
0.563163
0.506568
0.458421
0.433141
0.488938
0.492792
0.449212
0.370279
0.420581
0.374577
0.416906
0.334502
0.339245
0.298437
0.256408
0.310720
0.246613
0.283059
0.208942
0.207155
0.224909
0.118222
0.148155
0.190081
0.098652
0.166339
0.127234
0.046621
0.073348
0.031595
0.078719
0.061963
0.075650
0.007433
0.065855
0.009307
-0.024968
0.132970
0.080731
0.044210
-0.013658
0.038714
0.023575
-0.037538
-0.036423
-0.005134
0.039847
-0.004046
0.070149
0.077710
0.031847
0.122473
0.061328
0.002608
0.107163
-0.072105
-0.024148
0.008004
0.022881
0.043428
0.039434
0.087178
-0.029923
0.036478
0.117728
0.004216
0.036772
0.008356
0.026282
0.037469
0.082131
-0.011216
0.078875
0.041639
0.114883
0.030307
0.085661
0.042433
0.125636
0.095018
0.136264
0.086267
0.085187
0.108739
0.124035
0.181884
0.174732
0.184316
0.235259
0.152526
0.208390
0.258071
0.166842
0.185179
0.198458
0.308484
0.194226
0.311509
0.225664
0.243068
0.232558
0.174106
0.244193
0.203812
0.110953
0.148299
0.227925
0.210877
0.083102
0.104653
0.109375
0.068366
0.137978
0.109013
0.100131
0.049302
0.073894
0.090419
-0.054890
0.074170
0.022263
0.090034
0.073396
0.038812
0.016172
0.029313
-0.012986
0.057681
0.253368
0.527038
0.879531
1.248108
1.344259
1.362383
1.316705
1.010196
0.610681
0.269373
0.003525
-0.146339
-0.179511
-0.060948
-0.031212
0.072238
0.089213
0.167154
0.110140
0.099393
0.166498
0.125508
0.211837
0.237252
0.070851
0.189216
0.195442
0.231083
0.230536
0.204605
0.262259
0.250003
0.350484
0.407794
0.400803
0.374100
0.494010
0.377079
0.385351
0.455636
0.470174
0.425839
0.547884
0.532558
0.570844
0.578760
0.502661
0.574422
0.546739
0.513719
0.564275
0.490809
0.650782
0.594775
0.493563
0.552573
0.492959
0.563602
0.512649
0.435298
0.537530
0.425607
0.389929
0.417379
0.346663
0.360388
0.303379
0.306178
0.299780
0.270312
0.276247
0.161257
0.211093
0.212000
0.218615
0.136644
0.112555
0.101410
0.137048
0.114589
0.079139
0.069403
0.029718
0.084840
0.059662
0.082157
0.049436
0.029187
0.086372
0.041709
0.061109
0.055991
0.058195
0.071230
0.043733
-0.039705
0.030823
0.054596
0.055124
0.052125
0.056890
0.068237
0.066797
0.033277
0.039286
0.071192
-0.006862
0.068739
0.007393
0.033652
-0.013586
0.117689
-0.020627
-0.022297
0.089761
0.065923
0.040332
0.075047
0.058546
0.039291
0.055373
0.007354
0.015565
0.071118
0.063123
0.001168
0.045735
-0.007154
-0.008578
0.003492
0.058670
-0.016490
0.067327
0.106122
0.085753
0.134038
0.106932
0.034268
0.111722
0.189053
0.159262
0.151952
0.183794
0.165272
0.144301
0.180493
0.156331
0.150140
0.146684
0.284339
0.173047
0.127754
0.110950
0.130968
0.192616
0.140820
0.194378
0.112538
0.125125
0.116179
0.120227
0.118788
0.065444
0.116494
0.037653
0.170199
0.093169
0.018853
-0.002390
-0.073943
0.034386
-0.015596
-0.012293
-0.066569
-0.034921
-0.022790
0.039224
-0.049202
0.019866
-0.032111
0.085990
0.210105
0.512617
0.814139
1.104318
1.384135
1.359714
1.176210
0.943840
0.429525
0.155326
-0.201060
-0.202841
-0.207013
-0.207483
-0.080954
-0.052297
0.012465
-0.026459
0.020853
-0.008872
0.042291
0.102959
0.029479
0.087433
0.142545
0.107844
0.123488
0.081938
0.162163
0.166425
0.159914
0.236457
0.217822
0.212556
0.311760
0.336607
0.190224
0.312501
0.293261
0.336028
0.415785
0.372599
0.427033
0.434055
0.463473
0.451623
0.419272
0.491548
0.506154
0.540391
0.483575
0.507260
0.470698
0.530738
0.493643
0.425108
0.461116
0.363206
0.368316
0.395360
0.396912
0.321852
0.237208
0.247258
0.245869
0.237993
0.202091
0.158864
0.181562
0.167248
0.193146
0.124026
0.149372
0.069545
0.062012
0.061568
0.023211
0.015493
-0.023734
0.135301
-0.025849
-0.030551
-0.097890
-0.059828
-0.033605
-0.047628
-0.052800
-0.025393
-0.128293
-0.053629
-0.068945
-0.107033
-0.082242
-0.042341
-0.080718
-0.040651
-0.132454
-0.049764
-0.025850
-0.025280
-0.108040
-0.082639
-0.030491
-0.126823
-0.127147
-0.084569
-0.106062
-0.157327
-0.043910
-0.109750
-0.098456
-0.005870
-0.039408
-0.065819
-0.114109
-0.123597
-0.046533
-0.091398
-0.094906
-0.015080
-0.101879
-0.043732
-0.016191
-0.072915
-0.042366
0.000689
-0.037296
-0.047088
-0.049910
-0.118380
-0.117004
-0.064380
0.043034
-0.047151
0.071923
-0.035641
0.095794
0.029137
-0.009517
0.003426
0.004018
-0.049283
-0.008094
-0.007292
0.135319
0.225894
0.009918
0.135419
0.109539
0.009077
0.101977
0.131544
0.028275
0.047895
0.034933
0.096157
0.067156
0.047357
0.026474
0.021969
0.034542
0.009016
0.029377
0.014245
-0.031985
0.016743
-0.037873
-0.057620
-0.129189
-0.012551
-0.078792
-0.115577
-0.092788
-0.089268
-0.038435
-0.133020
0.034257
-0.027885
-0.095942
-0.106393
0.077776
0.227200
0.581176
0.867696
1.132965
1.303353
1.242629
0.974284
0.591495
0.313013
-0.068315
-0.213647
-0.349463
-0.270946
-0.221342
-0.115760
-0.113408
-0.064022
-0.095692
-0.058547
-0.092250
-0.005125
0.055947
0.095960
0.020555
-0.026605
0.070118
-0.014944
0.217138
0.094744
0.018196
0.167425
0.214690
0.130794
0.162520
0.232294
0.142481
0.194732
0.221226
0.322922
0.339248
0.389240
0.301676
0.333247
0.403651
0.388605
0.349147
0.405664
0.450923
0.448632
0.340768
0.427408
0.404487
0.440556
0.403935
0.463905
0.349998
0.397982
0.361466
0.397421
0.353774
0.307566
0.283944
0.319059
0.292209
0.230176
0.264822
0.202143
0.164244
0.115844
0.110153
0.217546
0.168674
0.069755
0.097366
0.046501
0.043226
0.043487
0.017286
-0.074203
-0.091253
-0.075558
0.008367
-0.113743
-0.041296
-0.062927
-0.027836
-0.036839
-0.082160
-0.106136
-0.048788
-0.044700
-0.124286
-0.096327
-0.089345
-0.045313
-0.088827
-0.031291
-0.054913
-0.003426
-0.071142
-0.046345
-0.119282
-0.104984
-0.114873
-0.083646
-0.163367
-0.035630
-0.027394
-0.102006
-0.110410
-0.119519
-0.045547
-0.057714
-0.143924
-0.052729
-0.119303
-0.067091
-0.065116
-0.047485
-0.066390
-0.002687
-0.038430
-0.108348
-0.016148
-0.041751
-0.097669
-0.092920
-0.044417
-0.025390
-0.023909
-0.023770
0.001263
0.013455
-0.037242
-0.026158
-0.070921
-0.022253
0.007598
-0.092951
0.075430
0.072789
0.063485
0.107407
0.021578
0.128228
0.037130
0.180412
0.188213
0.033483
0.103033
0.148218
0.141243
0.104808
0.073029
0.087452
0.186814
0.005490
0.052346
0.029925
-0.004937
-0.016894
0.002686
0.079537
0.017158
-0.043302
0.023326
0.034873
0.045285
-0.040229
-0.015675
-0.036386
-0.140013
-0.031599
-0.066539
-0.058748
-0.050918
-0.054874
0.009141
0.003795
0.079656
0.118668
0.330468
0.586858
0.993025
1.184320
1.331678
1.262234
1.100206
0.637769
0.219478
-0.048488
-0.194759
-0.140304
-0.215159
-0.141225
-0.048060
-0.004417
-0.000777
-0.002266
0.129936
0.092275
0.035102
0.066808
0.017073
0.055871
0.018201
0.114100
0.043347
0.235943
0.204117
0.159983
0.225818
0.237926
0.253545
0.252078
0.329265
0.313274
0.369498
0.323535
0.349503
0.426058
0.424748
0.396572
0.425508
0.451313
0.438051
0.511692
0.419854
0.535553
0.548299
0.485260
0.557716
0.468149
0.511833
0.521260
0.497470
0.400504
0.409997
0.447728
0.421008
0.405547
0.290090
0.419192
0.291460
0.458270
0.313435
0.277872
0.327722
0.202849
0.222654
0.175979
0.252120
0.212045
0.246589
0.178813
0.145542
0.108097
0.071261
0.094457
0.079640
0.139907
0.114385
0.050627
0.067159
0.028677
0.026127
-0.007256
0.121393
-0.018834
0.081583
0.006447
0.061850
0.114028
0.075416
0.036689
-0.000998
0.064771
-0.016380
-0.004407
-0.054022
0.022794
-0.009488
0.099469
0.031369
0.047778
0.020265
0.002710
0.033046
-0.008096
0.090586
0.029675
0.089312
0.111524
0.019758
0.054514
0.010270
0.042874
-0.004738
-0.012920
0.011567
0.091063
0.006357
-0.001734
0.111743
-0.012196
0.042096
0.064295
0.083702
0.061096
0.088178
0.058722
0.107374
0.156485
0.085310
0.083723
0.046559
0.217662
0.127411
0.167524
0.150103
0.162671
0.115606
0.158457
0.190137
0.165448
0.304101
0.234468
0.221758
0.238214
0.198326
0.223558
0.239159
0.245399
0.242642
0.232172
0.213446
0.143406
0.313972
0.218247
0.195952
0.124553
0.157672
0.105177
0.240227
0.110057
0.101715
0.117754
0.075947
0.094464
0.078385
0.101708
0.090379
-0.009140
0.036175
0.093963
0.062526
0.062575
0.035359
0.111382
0.084409
0.204669
0.330885
0.569511
0.839719
1.141580
1.417441
1.456215
1.300261
1.020900
0.696794
0.325523
0.000299
-0.144875
-0.112152
-0.073784
-0.022053
0.044546
0.014738
0.090300
0.070521
0.174785
0.126965
0.114593
0.158808
0.203745
0.171211
0.181643
0.220525
0.225267
0.204102
0.305150
0.305574
0.348912
0.395772
0.336288
0.419060
0.409263
0.374858
0.451881
0.414931
0.448434
0.524245
0.611504
0.543779
0.557253
0.537693
0.603172
0.508957
0.555315
0.586821
0.618879
0.550684
0.640848
0.572472
0.627165
0.534306
0.560671
0.465370
0.540816
0.543251
0.431104
0.496135
0.413278
0.453201
0.337618
0.348611
0.330225
0.293255
0.371430
0.305547
0.277150
0.272413
0.278341
0.209746
0.289014
0.277703
0.266390
0.286719
0.181721
0.119759
0.118177
0.153529
0.134363
0.170253
