-0.039458
0.024862
-0.070716
-0.014983
0.049362
0.009591
0.028174
-0.038466
0.038850
0.017957
0.047768
0.005829
0.060514
0.024484
-0.032558
0.020743
0.005655
0.089879
0.086181
0.029921
-0.026590
0.066380
0.100985
-0.042777
0.074902
0.127354
0.121770
0.099417
0.114969
0.150944
0.131100
0.160582
0.176070
0.211471
0.223216
0.148967
0.152507
0.248125
0.164818
0.154723
0.235489
0.255755
0.234041
0.186074
0.171169
0.229130
0.224231
0.175192
0.123852
0.145815
0.130300
0.126633
0.061027
0.144559
0.142640
0.122991
0.101711
0.002031
0.034136
0.128056
0.085931
0.082414
0.024741
0.072937
0.043756
-0.012887
0.034930
0.021443
0.072419
0.070796
0.081755
0.055610
0.074863
-0.052273
0.107824
0.187755
0.439074
0.723436
1.174291
1.308390
1.369292
1.327582
1.146641
0.816039
0.248076
0.093888
-0.182161
-0.110468
-0.164530
-0.085073
0.015990
0.050120
-0.024692
0.147864
0.096142
0.092570
0.071038
0.125058
0.172419
0.138142
0.088235
0.190263
0.213447
0.152981
0.142619
0.152153
0.283577
0.295738
0.245851
0.204513
0.290905
0.319201
0.322567
0.399833
0.353104
0.371844
0.331462
0.383726
0.408627
0.459814
0.422595
0.500070
0.489747
0.465035
0.580938
0.568918
0.573533
0.647865
0.580746
0.652623
0.622718
0.571711
0.553858
0.515553
0.572470
0.618472
0.513578
0.537693
0.514679
0.511567
0.494895
0.459583
0.516490
0.408484
0.465328
0.322346
0.361848
0.351293
0.292595
0.311352
0.327803
0.280197
0.308363
0.286173
0.239356
0.147538
0.249045
0.128523
0.113844
0.172429
0.158393
0.165633
0.116581
0.066350
0.221000
0.125254
0.165095
0.141950
0.094236
0.110247
0.113755
0.101624
0.191061
0.059887
0.083658
0.071618
0.118461
0.075159
0.043484
0.103536
0.038763
0.165356
0.112011
0.110477
0.099757
0.065372
0.063785
0.110673
0.091402
0.120053
0.047218
0.120599
0.098943
0.048598
0.116053
0.116418
0.115584
0.075598
0.110600
0.091283
0.063048
0.132832
0.025760
0.081754
0.149927
0.107189
0.119933
0.023661
0.082239
0.077460
0.081837
0.091894
0.137393
0.139920
0.137648
0.033164
0.118401
0.134874
0.124095
0.106977
0.179115
0.187007
0.119925
0.075796
0.064693
0.108065
0.182377
0.199777
0.160985
0.216055
0.196636
0.280105
0.202299
0.253156
0.254763
0.159155
0.184486
0.269716
0.271407
0.205332
0.333365
0.263346
0.265152
0.364995
0.171541
0.213616
0.230247
0.146170
0.201127
0.170810
0.244939
0.127913
0.191238
0.162331
0.087627
0.158954
0.102254
0.145251
0.108386
0.134035
0.096046
0.119926
0.130750
0.008181
0.093806
0.067596
0.095068
0.109503
0.057453
0.040973
0.073784
0.063601
0.026173
-0.000712
0.007346
0.194666
0.417477
0.767974
1.020431
1.272634
1.451890
1.402439
1.153355
0.720190
0.363696
0.099971
-0.113068
-0.107281
-0.087315
-0.125255
0.028060
-0.036905
0.033076
0.105794
0.085147
0.100084
0.124118
0.144439
0.141425
0.129636
0.102346
0.112739
0.161011
0.172606
0.166522
0.128196
0.190616
0.261382
0.260002
0.209276
0.284095
0.234825
0.371472
0.314628
0.362632
0.358082
0.346520
0.446741
0.412077
0.473793
0.507969
0.492716
0.487286
0.475686
0.577318
0.503456
0.620984
0.528511
0.501482
0.610233
0.601657
0.541883
0.603813
0.517490
0.541163
0.522129
0.454155
0.477379
0.526525
0.447646
0.435090
0.534140
0.479162
0.409567
0.392365
0.335781
0.270329
0.296270
0.114229
0.268887
0.325737
0.167728
0.250403
0.204312
0.211849
0.197414
0.162843
0.162885
0.086935
0.106721
0.143995
0.103502
0.128786
0.135673
0.129583
0.036892
0.074878
0.048594
0.033346
0.024800
0.057786
-0.060139
0.083031
0.089920
-0.032884
0.056792
-0.055644
0.153896
0.068226
0.038111
0.008722
-0.089777
0.125286
0.017011
-0.042174
0.067926
0.010230
0.000194
-0.013973
0.109558
0.025131
0.010732
-0.038729
-0.052504
-0.013868
0.003287
0.006536
-0.020434
0.033265
-0.003258
-0.054043
0.032873
0.000254
0.007654
0.038098
-0.017570
0.011446
-0.000042
0.027051
0.014907
0.093462
-0.088111
0.050982
-0.023628
0.144415
-0.025010
0.020593
0.036612
0.060471
-0.011847
0.011979
-0.006224
-0.041416
0.038597
0.052208
0.091080
0.018653
0.005682
0.105657
0.071442
0.036169
0.158977
0.144104
0.122529
0.183012
0.173922
0.128980
0.139969
0.179588
0.231863
0.130208
0.121647
0.146977
0.128126
0.193112
0.068428
0.137942
0.088291
0.103282
0.115405
0.149077
0.061576
0.130186
0.026705
0.059149
-0.008594
0.079072
0.004043
0.014085
-0.083632
-0.020115
0.038473
-0.008966
0.019669
-0.060259
-0.061408
0.022978
0.016658
-0.033579
0.030297
-0.084423
0.049951
-0.077657
-0.073825
0.017481
0.170939
0.344347
0.679720
0.939631
1.251775
1.468441
1.373914
1.027949
0.703171
0.240312
0.025973
-0.164501
-0.364041
-0.278298
-0.174141
-0.139389
-0.049390
-0.014235
0.013321
0.005194
-0.058384
-0.052624
0.013678
-0.000018
0.051157
0.015065
0.051421
0.036021
-0.015156
0.144197
0.068747
0.081962
0.104728
0.142422
0.142036
0.248028
0.218913
0.147216
0.217267
0.280751
0.271282
0.330795
0.419593
0.324500
0.340940
0.389313
0.358537
0.406669
0.454712
0.422893
0.423632
0.454641
0.412675
0.412292
0.462908
0.480318
0.466440
0.468315
0.479093
0.414753
0.448712
0.447660
0.443737
0.413774
0.402821
0.334046
0.294170
0.398653
0.305148
0.321172
0.333219
0.276904
0.218783
0.203418
0.172918
0.244925
0.106874
0.085532
0.111643
0.079569
0.094338
0.022802
0.102855
-0.095907
0.024272
0.028697
-0.000588
-0.044834
0.029326
-0.064939
-0.035811
-0.048994
0.034288
0.043987
-0.000785
-0.012565
-0.003249
-0.034669
-0.046547
-0.033141
-0.073122
-0.123935
-0.002291
-0.121581
-0.045396
-0.094906
-0.035370
-0.079241
-0.059096
0.009096
-0.021783
-0.023444
-0.058335
-0.004930
-0.054604
-0.046706
-0.080618
0.014421
-0.139144
-0.040732
-0.005132
-0.043979
0.018930
-0.071478
-0.053602
-0.045384
-0.041987
-0.046400
-0.044588
-0.123202
0.049470
-0.042771
-0.123032
-0.020037
-0.014977
0.024345
-0.119929
-0.004669
-0.078214
-0.026112
-0.006929
0.005818
-0.050174
-0.016020
-0.129817
0.044828
-0.081629
-0.040662
0.059412
0.042770
0.024836
0.049369
0.035234
0.058616
0.060197
0.028596
0.102946
0.128996
0.146004
0.169599
0.093932
0.193185
0.124710
0.152264
0.184773
0.117347
0.120152
0.138299
0.054439
0.079789
0.079365
0.100583
0.120437
0.024636
0.135948
0.163072
0.186419
0.044807
0.024868
0.044662
0.034829
0.060343
0.044616
0.100097
0.070806
0.026387
-0.035541
0.018710
0.008713
-0.118167
0.002209
0.009546
-0.018591
-0.028590
-0.070681
0.025915
-0.052002
-0.032627
0.051633
0.011660
0.180042
0.391360
0.681766
1.029168
1.275893
1.346333
1.337621
1.039049
0.721673
0.313233
0.028231
-0.105876
-0.180361
-0.236680
-0.145426
-0.089672
-0.001957
0.102154
0.009054
0.041734
0.086986
0.101913
0.038089
0.058077
0.025432
0.039362
0.064399
0.107606
0.062652
0.133979
0.126366
0.164157
0.166883
0.163896
0.221815
0.271624
0.253951
0.272520
0.256837
0.291800
0.304587
0.391267
0.351308
0.373760
0.424843
0.439855
0.436554
0.399555
0.513807
0.497005
0.467140
0.527149
0.492977
0.550184
0.541210
0.578197
0.533578
0.568599
0.561802
0.502977
0.553145
0.531120
0.502892
0.490386
0.409407
0.361491
0.443586
0.383730
0.425860
0.348991
0.353025
0.231645
0.354253
0.217372
0.174918
0.291903
0.232501
0.277690
0.169948
0.163423
0.147958
0.133964
0.095886
0.134119
0.088013
0.098632
0.090467
0.058462
0.078647
0.104028
0.138412
0.037024
0.080255
0.069799
-0.005487
0.059585
0.103535
0.039669
0.122386
0.084046
0.087976
-0.004699
0.053974
0.023053
0.033244
0.075620
0.052269
0.076799
0.043898
-0.029891
-0.064992
-0.048103
0.006292
0.044114
0.032038
0.001402
0.071596
0.011228
0.048864
0.076608
0.067205
0.026258
0.000257
0.040189
0.033599
-0.005661
0.110541
0.211398
-0.018061
0.063946
0.012519
0.075279
0.031497
-0.020032
0.061853
-0.009677
0.126241
0.081283
0.124668
-0.003846
0.108521
0.072600
0.028054
0.141865
0.140966
0.122562
0.065215
0.116618
0.052455
0.087126
0.172817
0.130678
0.104275
0.123873
0.138930
0.128658
0.262114
0.164765
0.184820
0.234712
0.220562
0.230621
0.184106
0.285634
0.301757
0.257883
0.268244
0.314355
0.264515
0.281215
0.209329
0.216659
0.188575
0.186550
0.220063
0.234346
0.203304
0.118112
0.170160
0.087956
0.157027
0.119429
0.176470
0.168423
0.030007
0.108195
0.078873
0.068752
0.064232
0.010581
0.052883
0.103794
0.072939
0.036184
0.067673
0.060164
0.122978
0.045659
0.009718
0.135890
0.194633
0.388608
0.853726
1.090189
1.319941
1.472481
1.419060
1.111270
0.845044
0.399358
0.155666
-0.076023
-0.112696
-0.119862
-0.056515
-0.014115
0.040199
0.167770
0.142321
0.199685
0.079719
0.086627
0.160186
0.063973
0.171707
0.149833
0.194934
0.185408
0.171904
0.161402
0.232428
0.260343
0.257044
0.295279
0.267578
0.277762
0.255154
0.311042
0.316091
0.349904
0.401322
0.331188
0.362491
0.399899
0.562076
0.481352
0.452639
0.490663
0.535949
0.619131
0.664192
0.568595
0.595987
0.602625
0.661944
0.638028
0.604874
0.587021
0.652136
0.582203
0.544285
0.522199
0.591659
0.551183
0.526511
0.467472
0.481953
0.419857
0.418262
0.492548
0.450940
0.271084
0.404459
0.263552
0.325427
0.311336
0.306481
0.191593
0.213858
0.272373
0.172564
0.252878
0.203236
0.179107
0.189490
0.202458
0.146074
0.083114
0.155103
0.067228
0.073904
0.113402
0.191225
0.080800
0.046819
0.100986
0.172735
0.123938
0.119207
0.135149
0.088793
0.084202
0.023624
0.043590
0.062815
0.089856
0.119390
0.085699
0.122220
0.143382
0.138130
0.099624
0.251231
0.119156
0.022631
0.126828
0.134218
0.130933
0.044916
0.017301
0.110208
0.160743
0.093519
0.042765
0.032047
0.093947
0.045103
0.075868
0.118129
0.090526
0.059887
0.029816
0.066883
0.092379
0.011731
0.074019
0.049067
0.063998
0.134225
0.020429
0.069603
0.119631
0.061054
0.100338
0.091179
0.068276
0.037357
0.123812
0.084707
0.178746
0.166818
0.122806
0.123838
0.226636
0.182944
0.122121
0.252209
0.193593
0.182698
0.225250
0.229744
0.345075
0.189826
0.215628
0.230449
0.284993
0.217736
0.309145
0.255833
0.194025
0.199443
0.198077
0.267246
0.138055
0.180697
0.144137
0.172960
0.189582
0.077746
0.044893
0.046176
0.110626
0.043025
0.071939
0.052118
0.113126
0.058185
0.036571
0.062834
0.036776
0.133899
0.008187
0.029281
0.037398
-0.013547
0.034982
0.087894
0.193220
0.030149
0.034933
0.201525
0.473357
0.691583
1.095587
1.351212
1.444806
1.346041
1.153699
0.816492
0.342380
0.135010
-0.099706
-0.097567
-0.141137
-0.120704
0.032606
0.016144
0.074508
0.080169
0.204350
0.133627
0.119177
0.101937
0.091164
0.044455
0.149050
0.106083
0.060793
0.217293
0.140028
0.185902
0.204357
0.130042
0.155766
0.212459
0.297811
0.287354
0.240075
0.257629
0.269234
0.258375
0.321897
0.365135
0.385648
0.452623
0.449238
0.384449
0.451458
0.536152
0.497286
0.472887
0.659111
0.586662
0.569370
0.501452
0.539058
0.500040
0.508338
0.579104
0.523987
0.425057
0.528892
0.412763
0.503140
0.528570
0.382236
0.314183
0.393133
0.259998
0.390266
0.347579
0.341720
0.237033
0.269611
0.278652
0.168499
0.173191
0.150271
0.179914
0.142969
0.078851
0.079448
0.147262
0.012771
0.064401
0.048328
0.056635
-0.014468
-0.032066
-0.017071
-0.011246
-0.000082
0.032581
0.044219
-0.018473
-0.056331
0.040204
0.018266
0.042400
-0.073821
-0.011294
-0.020217
-0.002958
-0.021328
0.093441
-0.073667
0.035996
-0.033148
-0.061159
-0.036956
-0.021103
-0.022346
0.017502
-0.055209
-0.072163
-0.102055
-0.127464
-0.001049
-0.039024
-0.014202
-0.054694
-0.028458
-0.072498
-0.008329
-0.056681
-0.030274
-0.051988
-0.060483
-0.043465
-0.028036
-0.037925
-0.051392
-0.084659
-0.042346
-0.088636
-0.076012
-0.137823
-0.061743
0.025112
-0.038317
-0.057014
-0.019243
-0.069171
-0.097149
0.018236
0.085260
-0.016481
-0.081634
0.002393
0.017952
0.056114
0.037078
0.065291
0.024138
0.006655
0.087931
0.014942
0.024394
0.055187
0.004507
0.088635
0.120801
0.090657
0.089983
0.244919
0.132191
0.111055
0.092790
0.144773
0.124810
0.102321
0.053447
0.083086
0.137473
0.028235
0.002650
0.062422
0.012145
0.019507
-0.027877
0.074960
-0.032587
0.005593
-0.090570
-0.025841
-0.076519
-0.069673
-0.102628
-0.146376
0.000452
-0.109909
-0.081890
-0.158088
-0.075112
-0.075137
-0.056284
-0.089825
-0.054561
0.018114
-0.097972
0.059270
0.379784
0.638492
0.882740
1.190075
1.284426
1.210574
1.014556
0.602009
0.242808
-0.115632
-0.230922
-0.247951
-0.295119
-0.202117
-0.106741
-0.094767
-0.091098
-0.033746
-0.029172
-0.020109
-0.155253
-0.066736
-0.041253
-0.086215
0.045544
-0.053074
-0.003496
-0.052279
0.095364
0.050146
0.057954
0.124687
0.107624
0.016218
0.164940
0.153395
0.204660
0.120547
0.188008
0.255017
0.291991
0.266232
0.257147
0.327136
0.396242
0.328247
0.318026
0.313897
0.387177
0.369430
0.495488
0.534781
0.445976
0.495557
0.389161
0.456764
0.416081
0.425274
0.394713
0.354464
0.444859
0.383517
0.290749
0.336659
0.410265
0.302253
0.306981
0.316004
0.239064
0.257454
0.198541
0.188128
0.191213
0.116587
0.158992
0.103774
0.088354
0.009731
0.026976
0.033596
0.087187
0.078126
0.039096
0.029408
-0.030444
-0.050179
-0.037479
-0.032193
-0.045770
-0.057961
-0.108685
-0.021145
-0.029562
-0.120296
-0.121993
-0.047201
-0.107770
-0.012199
-0.040382
-0.042448
-0.111454
-0.094102
-0.016841
-0.112744
-0.182349
-0.074088
-0.146104
-0.073883
-0.154241
-0.170809
-0.046203
-0.054360
-0.091265
-0.081719
-0.114385
-0.170686
-0.039662
-0.075448
-0.085944
-0.014801
-0.221486
-0.037689
0.006920
-0.051286
-0.044027
-0.109805
-0.049642
-0.039491
-0.121491
-0.151542
-0.119324
-0.163848
-0.094267
0.042096
-0.183477
-0.071133
0.016338
-0.096996
-0.053684
-0.016081
-0.046328
-0.066984
-0.090454
-0.146085
-0.025019
-0.022356
-0.073000
0.084605
0.098466
-0.032259
-0.040693
0.095108
0.022097
0.076712
0.060118
-0.001195
0.052974
0.057902
0.077845
0.010637
0.019485
0.077062
0.033496
0.071402
0.266335
0.187861
0.057984
0.146760
0.121396
0.091618
0.051025
0.152746
0.029669
0.110127
0.058941
0.067138
-0.037657
0.041034
-0.016960
0.019692
0.013023
0.047663
0.017330
-0.028201
-0.019781
-0.008283
-0.005089
-0.042838
-0.014345
-0.089634
0.016555
0.017669
-0.011452
-0.015870
-0.013637
-0.048997
-0.116323
0.032082
-0.000601
0.221417
0.349382
0.645248
0.982011
1.210985
1.337170
1.252339
0.968733
0.678337
0.380878
0.005595
-0.150917
-0.251471
-0.181686
-0.229692
-0.091674
0.041077
0.050634
0.005869
0.026597
0.080923
0.013355
0.019250
0.031550
0.052104
0.084530
0.012569
0.081299
0.100047
0.111640
0.161656
0.143346
0.129163
0.159407
0.218901
0.201915
0.224171
0.233162
0.243459
0.205593
0.215445
0.397879
0.408257
0.458325
0.431202
0.407953
0.555267
0.385589
0.417776
0.495314
0.536540
0.515637
0.475397
0.442151
0.516068
0.466240
0.622755
0.430629
0.588892
0.480232
0.510928
0.506553
0.461532
0.509015
0.401013
0.481224
0.453642
0.345453
0.342934
0.383247
0.289387
0.296829
0.235318
0.190714
0.215241
0.221594
0.200875
0.200829
0.191799
0.139217
0.131719
0.055227
0.126908
0.028015
0.043656
0.128425
0.023828
0.086720
0.096755
0.024838
0.090025
0.091082
0.031146
0.058685
0.007670
0.061234
-0.016976
0.064580
0.027956
0.032751
0.013152
-0.027979
0.018236
0.020478
-0.019084
0.086381
-0.050160
0.024907
-0.018576
-0.040268
0.084685
0.059692
0.014966
-0.015791
0.032168
0.039982
0.032834
0.049444
-0.019894
0.021252
-0.043380
-0.024308
0.075048
0.016552
0.042860
0.031244
-0.037254
0.043865
0.026244
0.033894
0.003138
0.020042
-0.030629
0.039011
-0.068658
0.055514
0.004030
0.071512
0.015961
-0.007354
0.049795
0.057194
-0.042225
0.092239
0.148123
0.033701
0.040164
0.030324
0.073667
0.090896
0.101451
0.095078
0.139054
0.105738
0.125329
0.163453
0.127871
0.150933
0.231360
0.231622
0.189167
0.194857
0.266667
0.269935
0.209331
0.287792
0.266788
0.252185
0.182579
0.231722
0.127811
0.231710
0.225561
0.244032
0.160361
0.142123
0.090148
0.169987
0.163326
0.222980
0.132094
0.080179
0.058842
0.136822
0.079546
0.013729
0.080224
-0.001562
0.055348
0.105190
0.026089
0.061217
-0.036443
0.037497
0.081912
0.085923
0.054236
0.062967
0.028058
0.079743
0.210755
0.440463
0.717046
1.121232
1.250472
1.407192
1.451800
1.116019
0.752186
0.323835
0.074660
-0.147362
-0.185856
-0.167245
-0.055258
-0.085922
-0.029178
0.051839
0.010182
0.096012
0.091005
0.086578
0.086066
0.086266
0.115397
0.141643
0.130087
0.087758
0.167230
0.137478
0.227951
0.133625
0.187539
0.231474
0.169960
0.226213
0.314392
0.261941
0.379245
0.363967
0.423339
0.396958
0.417545
0.442080
0.485420
0.432198
0.479253
0.530402
0.537682
0.481018
0.583657
0.536352
0.548984
0.583698
0.556832
0.592977
0.622008
0.580266
0.567280
0.525880
0.547372
0.505020
0.499720
0.533743
0.602704
0.466213
0.446584
0.399250
0.431056
0.306384
0.363755
0.242038
0.348375
0.332111
0.310604
0.258889
0.243301
0.244436
0.197559
0.222219
0.165352
0.154047
0.202227
0.162498
0.113255
0.106175
0.034839
0.120260
0.110018
0.124560
0.051490
0.030719
0.060368
0.024697
0.032090
0.012580
0.117858
0.037409
0.087362
0.002867
-0.004353
0.028595
0.106215
0.009719
0.084148
-0.007095
-0.037463
0.017780
0.005383
0.063595
0.012460
-0.033214
-0.007429
0.007628
0.100308
0.099086
0.000942
0.019933
0.051765
0.078657
-0.046660
-0.016020
0.086352
0.032345
0.076507
-0.000501
0.100397
0.020673
-0.027098
0.036079
0.089452
0.010255
-0.005251
0.017797
0.086808
0.003331
-0.054544
0.007363
0.024424
-0.025195
0.021915
-0.023490
-0.038065
0.042088
0.003401
0.027318
0.031037
0.094969
0.054741
-0.032474
0.079901
0.093022
0.074096
0.023323
0.089814
0.068977
0.018011
0.127980
0.136479
0.089551
0.244625
0.183008
0.203627
0.111156
0.208779
0.138113
0.117519
0.253028
0.111526
0.098488
0.159028
0.145128
0.139608
0.107130
0.094751
0.085083
0.098212
0.062345
0.073037
0.070737
0.044456
0.109462
0.078071
0.016883
0.042720
-0.097070
-0.006312
0.044355
0.009066
0.037272
0.011608
-0.012462
0.030589
-0.008942
-0.028490
-0.002691
0.001795
0.004383
-0.056301
-0.002305
0.042772
0.380438
0.679429
1.072962
1.204404
1.314700
1.269274
1.018601
0.732298
0.318108
-0.014778
-0.200804
-0.214720
-0.207992
-0.199071
-0.160755
-0.010445
0.007679
0.015245
-0.004917
-0.078325
0.027366
-0.026826
0.021263
0.070089
0.000162
0.007243
0.134785
0.092503
0.073252
0.122470
0.122962
0.202538
0.173657
0.096380
0.220413
0.249172
0.255314
0.182247
0.194027
0.203556
0.196148
0.350632
0.317400
0.383599
0.351753
0.408769
0.427154
0.453028
0.444716
0.358043
0.418875
0.470895
0.451491
0.567402
0.414880
0.472237
0.370105
0.502499
0.395812
0.391491
0.421840
0.450988
0.434981
0.298125
0.377937
0.331513
0.273195
0.323395
0.290629
0.282896
0.329619
0.217305
0.157762
0.142087
0.113873
0.129547
0.143445
0.042248
0.020717
0.014163
0.047263
0.117355
0.062554
-0.026916
-0.078011
0.019249
-0.059953
0.017180
0.002858
-0.086473
-0.047217
-0.048895
-0.061028
-0.043537
-0.058061
-0.076563
-0.031954
-0.102964
0.013148
-0.000940
-0.090813
-0.055416
-0.035926
-0.010484
-0.094111
-0.048836
-0.012393
-0.102781
-0.056813
-0.075770
-0.088041
0.000458
-0.095583
-0.070324
-0.040909
-0.119465
-0.106303
0.009197
-0.063363
-0.097018
-0.106304
-0.064600
-0.063192
-0.074746
-0.040523
0.009802
-0.075141
-0.139736
-0.004812
-0.043202
-0.071751
-0.132817
-0.041188
-0.086704
-0.146726
-0.059696
-0.075567
-0.142363
-0.124842
-0.088154
-0.047255
-0.123981
-0.085665
-0.090270
-0.032169
-0.166071
-0.069130
-0.088752
-0.055117
-0.035382
-0.057902
-0.007178
-0.006923
0.039496
0.023412
0.019406
0.018558
0.014833
0.048886
-0.001212
0.069028
-0.000059
0.077687
0.067328
0.057753
0.108077
0.137744
0.065271
0.101426
0.098995
0.076951
0.103300
0.023399
0.027263
-0.022852
0.042390
-0.015352
0.013827
-0.018027
-0.036470
-0.064983
-0.051100
-0.100198
-0.074416
-0.057898
-0.101153
-0.069609
-0.034156
0.089531
-0.102125
-0.026392
-0.123730
-0.124923
-0.066781
-0.111470
-0.052263
-0.106514
-0.124145
-0.094033
0.092306
0.340181
0.603207
0.892058
1.249143
1.290210
1.173718
0.999782
0.611459
0.288588
-0.047565
-0.322267
-0.290651
-0.284067
-0.328295
-0.191908
-0.145480
-0.020144
-0.079272
-0.040298
-0.084028
-0.093562
0.036715
-0.017987
-0.046631
-0.024451
-0.034532
0.040515
-0.038071
0.019061
0.104527
0.040839
0.102854
0.105493
0.109763
0.188595
0.185549
0.166263
0.211724
0.271164
0.218161
0.303570
0.259972
0.245681
0.229554
0.294232
0.347699
0.381819
0.463783
0.426205
0.372477
0.379566
0.352931
0.418715
0.424691
0.431920
0.465524
0.357070
0.392852
0.369465
0.442100
0.363260
0.394999
0.310596
0.301722
0.391978
0.334781
0.261370
0.224875
0.231885
0.200022
0.239373
0.221130
0.220310
0.103407
0.094617
0.173150
0.136707
0.121904
0.024780
0.127588
0.057630
-0.061046
0.097790
0.029849
-0.005506
-0.133832
-0.108128
-0.036779
-0.083508
-0.041473
-0.041623
0.047900
-0.053183
-0.124751
-0.085949
-0.051515
-0.104309
0.053362
-0.127551
-0.122052
-0.006097
-0.072626
-0.012602
-0.052955
-0.116857
-0.041020
-0.064186
-0.114146
-0.117572
0.051456
0.000666
-0.039253
-0.043978
-0.081019
-0.106054
-0.104677
-0.059412
-0.034907
-0.080447
-0.033225
-0.038033
-0.107155
-0.028762
-0.035952
-0.066892
0.021434
-0.001367
-0.010868
-0.096898
-0.083341
-0.000030
-0.054888
-0.081017
-0.065478
-0.048674
-0.088145
-0.052198
-0.062680
-0.020819
-0.097573
-0.027495
-0.008745
-0.035039
-0.007080
0.019823
-0.090026
-0.035765
-0.019558
0.058519
0.019137
0.077311
0.049964
0.025278
-0.021956
0.047435
0.127824
0.090404
0.146202
0.131908
0.206539
0.117803
0.115037
0.157693
0.145019
0.094563
0.117262
0.098985
0.237742
0.136875
0.103016
0.141220
0.099808
0.123867
0.116395
0.105303
0.081564
0.071233
0.031897
0.033594
0.055328
0.064340
-0.015523
-0.035292
-0.005183
0.023178
-0.013754
0.037848
0.033001
0.000294
-0.066217
0.016776
0.070403
-0.044363
-0.039566
-0.054540
-0.032722
-0.024876
0.045131
0.030027
0.160175
0.321351
0.670573
1.015773
1.206290
1.360041
1.282634
1.093003
0.720121
0.372820
0.042340
-0.175217
-0.211458
-0.278156
-0.199312
-0.121340
-0.020397
-0.051259
-0.003031
0.001056
0.003843
-0.002863
0.048906
-0.005838
0.104021
0.045335
0.142205
0.038766
0.061851
0.109465
0.078447
0.175733
0.188851
0.158414
0.157320
0.162398
0.243168
0.283557
0.302566
0.370329
0.279920
0.391571
0.388946
0.367754
0.466972
0.419149
0.384896
0.395501
0.533432
0.507061
0.541862
0.471634
0.598661
0.442850
0.572183
0.469068
0.590557
0.544749
0.544169
0.571933
0.512673
0.528733
0.432504
0.526806
0.453693
0.426903
0.375547
0.366704
0.350392
0.338542
0.352328
0.258297
0.289540
0.276604
0.339647
0.230519
0.190155
0.164169
0.136359
0.293128
0.081753
0.131478
0.142742
0.094878
0.134681
0.097883
0.072295
0.116468
0.123157
0.034857
0.005497
0.031494
-0.024465
0.122854
0.025493
0.077902
-0.000583
0.079837
0.031013
0.050889
0.016234
0.116688
0.026558
0.025740
0.054086
-0.067685
0.076496
0.000639
0.004357
0.080824
0.054609
0.107244
0.055262
0.021855
0.077538
0.009878
0.070422
0.054930
0.137524
0.127315
-0.015267
0.080508
0.081025
0.106855
0.052355
0.122474
0.084935
0.058343
0.085957
0.049236
0.132065
0.084586
-0.006063
0.048512
0.004876
-0.004898
0.097404
-0.007880
0.055143
0.013423
0.106842
0.032042
0.058780
0.091807
0.111589
0.136848
0.133338
0.040539
0.147713
0.126907
0.092946
0.176501
0.171086
0.190070
0.116295
0.143986
0.230137
0.127398
0.151118
0.236635
0.175204
0.245742
0.248440
0.302352
0.209640
0.268708
0.253801
0.253929
0.231370
0.227046
0.246558
0.206305
0.172144
0.197586
0.228048
0.219888
0.191994
0.199545
0.137420
0.145286
0.103449
0.078984
0.092308
0.132801
0.119907
0.069789
0.072421
0.080633
0.071259
-0.019488
0.091806
0.069174
0.046732
0.010814
0.068461
0.064247
0.039205
0.058538
0.112895
0.130998
0.270441
0.452565
0.706949
1.108077
1.303737
1.500000
1.316188
1.110067
0.744415
0.400010
0.034880
-0.047057
-0.134351
-0.160475
-0.042846
0.001920
0.063668
0.097511
0.118504
0.101650
0.108770
0.113964
0.111872
0.099633
0.194392
