0.036835
0.027987
0.025421
0.026340
0.007651
-0.002012
-0.000204
-0.056277
-0.002105
0.016706
0.056965
0.026793
0.098600
-0.036292
-0.113148
-0.038675
0.108123
0.021898
0.012694
-0.014131
-0.012435
-0.004875
0.029057
0.013488
-0.000983
0.029912
-0.001501
0.103925
0.027756
0.166088
0.103198
0.059435
0.076508
0.078387
0.069181
0.067147
0.120580
0.136106
0.237852
0.244577
0.178128
0.260026
0.183117
0.231139
0.232860
0.200227
0.205172
0.203733
0.198408
0.104536
0.119172
0.184236
0.144315
0.153963
0.193081
0.093599
0.183209
0.118487
0.062089
0.099944
0.133132
0.078540
0.003823
0.023350
0.067364
0.095736
0.157713
0.048888
0.112926
-0.020462
0.087243
0.084557
0.001590
0.048217
0.022730
0.027180
0.066326
0.083799
0.014387
0.007673
-0.017226
0.065951
0.009970
0.080277
0.103424
0.357005
0.539148
0.976723
1.253787
1.404973
1.500000
1.281190
1.065484
0.717554
0.317817
-0.052873
-0.142114
-0.199369
-0.222254
-0.137008
-0.104427
0.013330
0.097426
-0.047798
0.067426
0.111408
0.087358
0.099809
0.155173
0.076668
0.056281
0.103505
0.078286
0.119531
0.151059
0.135867
0.169701
0.077748
0.174379
0.206045
0.215530
0.288153
0.160025
0.214136
0.181447
0.324493
0.330703
0.341508
0.382323
0.438538
0.515327
0.389053
0.410686
0.399880
0.437254
0.483300
0.458452
0.505219
0.556007
0.590816
0.527666
0.546022
0.638509
0.571095
0.552119
0.581885
0.551875
0.558607
0.637801
0.559385
0.506068
0.533960
0.559551
0.537395
0.565923
0.504521
0.498417
0.502580
0.460348
0.467549
0.371951
0.363803
0.354864
0.291701
0.394992
0.301158
0.286333
0.357346
0.232972
0.237053
0.220882
0.154450
0.287122
0.144334
0.181894
0.120073
0.117967
0.128433
0.143967
0.134300
0.169226
0.193985
0.135957
0.078460
0.111903
0.079125
0.162180
0.102208
0.001258
0.114252
0.107196
0.135724
-0.063771
-0.001341
0.047477
0.134177
0.136719
0.031696
0.103784
0.179991
0.068315
0.031681
0.085986
0.119660
0.144258
0.079164
0.112451
0.105523
0.008755
0.126564
0.056025
0.076758
0.057537
0.078738
0.101421
0.044561
0.071421
0.053606
0.116985
0.151957
0.030928
0.011357
0.034009
0.067414
0.039110
0.090873
0.069800
0.029343
0.007085
0.064403
0.129343
0.041956
0.102237
0.121195
0.066999
0.051293
0.082719
0.079892
0.049097
0.128018
0.087468
0.057639
0.113073
0.132187
0.179895
0.084928
0.132867
0.094218
0.019971
0.227018
0.114718
0.087838
0.051979
0.120323
0.176152
0.130883
0.064408
0.181357
0.113698
0.167861
0.177747
0.303877
0.207707
0.196632
0.244013
0.223851
0.173602
0.290017
0.291339
0.261142
0.190109
0.208765
0.218642
0.210737
0.229271
0.199999
0.167734
0.263541
0.179779
0.147265
0.243617
0.221459
0.066819
0.129253
0.099593
0.172537
0.087615
0.139276
0.095354
0.058056
0.094866
0.111441
0.079369
0.121645
0.099690
0.034204
0.055894
0.087918
0.109290
0.045513
0.069846
0.118696
0.034781
0.102896
0.053064
0.011521
0.121552
0.037705
0.114279
0.304219
0.658615
0.972925
1.307148
1.382577
1.381629
1.333617
0.943666
0.564954
0.306114
0.024113
-0.196384
-0.307186
-0.238387
-0.164741
0.005556
0.036036
-0.001333
0.044955
0.055411
0.098829
-0.034060
0.116370
0.107383
0.114589
0.109717
0.150748
0.048928
0.147824
0.162491
0.154368
0.141154
0.138580
0.107966
0.149601
0.113759
0.123024
0.237320
0.200163
0.243316
0.245659
0.287715
0.280780
0.275583
0.359253
0.352393
0.375431
0.325601
0.430884
0.373580
0.482036
0.435730
0.414843
0.532609
0.563609
0.472150
0.613032
0.561882
0.459820
0.490466
0.610733
0.517713
0.487741
0.467719
0.469404
0.540545
0.477222
0.482607
0.416296
0.475880
0.426959
0.383414
0.366997
0.386336
0.370068
0.384222
0.356991
0.203249
0.226638
0.230210
0.245831
0.199501
0.221156
0.140462
0.204863
0.122621
0.128690
0.170987
0.021944
0.118231
0.114074
-0.005309
0.043808
-0.008927
0.017595
0.011747
-0.026583
-0.085857
0.017878
0.008328
0.038884
-0.024468
0.016963
-0.060012
0.064360
-0.006888
0.013138
0.048447
0.015788
0.052772
-0.001601
0.048959
0.002908
0.006465
-0.049759
-0.037860
-0.087791
-0.015299
-0.058625
-0.082140
-0.033793
0.020241
0.022890
-0.026183
-0.066142
0.040670
0.057991
-0.003527
-0.054391
-0.015724
0.011161
-0.088661
-0.057385
0.102892
0.052797
0.021767
-0.024891
-0.002573
-0.010675
-0.001939
-0.002599
-0.000807
-0.046042
0.015402
-0.008433
-0.099736
-0.043829
-0.085304
-0.068603
-0.087467
0.025468
-0.071054
-0.078178
-0.027919
0.012796
-0.081769
0.053953
-0.021247
-0.019756
0.001625
-0.024644
0.074617
-0.013077
0.011756
-0.052123
0.056458
-0.039795
-0.077518
0.025400
0.044851
0.031520
0.041106
0.069081
0.144615
0.050602
0.071209
0.065584
0.045492
0.117728
0.068154
0.190635
0.202271
0.142509
0.132614
0.111992
0.131889
0.140053
0.130871
0.190361
0.087861
0.087512
0.116197
0.094865
0.077637
-0.041847
0.108420
0.080261
0.064809
-0.033052
-0.049865
0.074443
-0.066558
0.034384
0.041701
-0.061405
0.047695
-0.061211
-0.025584
-0.031896
-0.028727
0.036990
-0.033830
-0.040487
-0.013134
-0.019627
0.049987
-0.142459
-0.080291
-0.009776
-0.106137
-0.105211
-0.010091
-0.051325
0.063637
0.326565
0.613763
0.830622
1.239915
1.314036
1.298912
1.158179
0.881395
0.518981
0.193113
-0.055962
-0.283586
-0.360707
-0.342950
-0.235795
-0.130136
-0.063795
-0.043435
-0.015967
-0.025116
0.033834
-0.001943
-0.038173
-0.057722
0.028067
0.040007
-0.051922
-0.035962
-0.012681
-0.063015
0.009363
0.119550
0.107467
0.101170
0.147416
0.049583
0.106801
0.056681
0.165287
0.097608
0.174933
0.137449
0.175392
0.279997
0.218633
0.288507
0.243861
0.342104
0.354540
0.333304
0.319754
0.293671
0.415463
0.435636
0.520339
0.456025
0.437053
0.440790
0.441490
0.425774
0.444293
0.423281
0.429918
0.468552
0.343599
0.537567
0.479796
0.451414
0.429048
0.394461
0.373345
0.381154
0.352286
0.341988
0.288972
0.241501
0.301202
0.237494
0.205940
0.222730
0.124240
0.154507
0.099994
0.106654
0.070592
0.142088
0.083392
0.050990
0.017815
0.040519
0.036915
0.062685
0.015671
0.064702
-0.036767
-0.030811
-0.015291
0.032293
-0.057113
-0.005336
-0.051876
-0.013885
-0.066852
-0.023375
0.012971
0.017491
0.012163
0.096081
-0.043660
-0.062557
-0.019960
-0.015259
-0.031638
-0.012238
-0.055924
-0.051021
0.007040
-0.046178
-0.103222
-0.013619
-0.056268
-0.013171
-0.010153
-0.087784
-0.082663
-0.003014
-0.034341
0.008983
-0.018710
-0.038755
0.003072
-0.027161
-0.103426
0.008010
0.029709
-0.013713
-0.002879
-0.065147
-0.068589
0.048907
-0.058797
-0.051077
-0.038832
0.036691
-0.069574
-0.003496
-0.024606
-0.018927
-0.064737
-0.049732
0.005089
-0.044026
-0.091995
0.010030
-0.017886
-0.032675
-0.008554
0.010274
0.049984
-0.027464
-0.008023
0.012527
-0.035944
-0.068325
-0.005373
0.070193
0.035014
-0.001363
0.065985
0.067838
0.087873
0.046704
0.105995
0.066261
0.111034
0.141365
0.120131
0.210048
0.186088
0.138454
0.213030
0.148335
0.156768
0.200280
0.206408
0.211319
0.274113
0.132211
0.199123
0.302224
0.089651
0.180646
0.201403
0.139510
0.149744
0.058408
0.026878
0.043699
0.113510
0.032981
-0.012604
0.069532
0.029233
0.081313
0.061139
0.062113
0.041894
0.052602
0.041633
0.045213
0.024617
0.006868
0.060431
0.104950
0.006149
0.033605
0.004465
0.040809
-0.066562
0.082286
0.046948
-0.059377
0.075042
0.125862
0.311642
0.634700
0.970390
1.298994
1.436345
1.450326
1.205927
0.832562
0.499576
0.171443
-0.077466
-0.278670
-0.202182
-0.105674
-0.176221
-0.078799
-0.036137
0.065378
0.030441
0.050071
0.062422
0.011551
0.051957
0.073805
0.101011
0.126160
0.078583
0.097104
0.148999
0.114110
0.114918
0.050691
0.145020
0.137000
0.229899
0.139118
0.177055
0.197632
0.243669
0.243781
0.187636
0.284288
0.293296
0.384551
0.348573
0.326874
0.497886
0.460514
0.475912
0.368023
0.506456
0.473435
0.503119
0.505036
0.558221
0.506093
0.527955
0.564790
0.610704
0.590539
0.583644
0.581373
0.507276
0.551187
0.557991
0.484083
0.544091
0.465953
0.498441
0.517107
0.417555
0.461838
0.439161
0.410597
0.343701
0.345671
0.329320
0.253473
0.312955
0.296098
0.291758
0.304204
0.293133
0.229960
0.257723
0.171069
0.174426
0.226835
0.175357
0.097938
0.199069
0.135978
0.109957
0.181064
0.075669
0.045366
0.124106
0.048628
0.133346
0.132709
0.105666
0.090721
0.052647
0.071855
0.110395
0.054412
0.147852
0.150683
0.187821
0.115228
0.096078
0.148353
-0.022989
0.089372
0.109656
0.019658
0.081004
0.050860
0.032010
0.048279
0.028551
0.082127
-0.019090
0.176515
0.114810
0.071440
0.000291
0.135810
0.010225
0.069134
0.147526
0.089012
0.089209
0.170559
0.092444
0.072078
0.075025
0.011781
0.101642
0.041252
0.105856
-0.007823
0.142306
0.129968
0.102567
0.052685
0.088839
0.051107
0.016311
0.135238
0.108604
0.029956
0.119908
0.115290
0.023405
0.139152
0.112415
0.151210
0.136105
0.084612
0.125835
0.098602
0.055416
0.121206
0.084850
0.067825
0.093840
0.113666
0.055465
0.165890
0.137921
0.180535
0.156754
0.219573
0.232709
0.240274
0.265154
0.267713
0.278284
0.273323
0.250913
0.267567
0.258484
0.252510
0.218747
0.286750
0.258508
0.311297
0.214997
0.242669
0.283856
0.237026
0.177864
0.195843
0.252842
0.192549
0.173315
0.198385
0.083559
0.192594
0.111468
0.151345
0.067211
0.119077
0.088539
0.024066
0.143828
0.210038
0.119388
0.098798
0.106914
0.019650
0.038015
0.102835
0.022200
0.132587
0.095123
0.125274
0.075705
0.038255
0.050187
0.034579
0.104399
0.237108
0.399921
0.696028
1.132859
1.348358
1.497746
1.444352
1.230541
0.882103
0.494830
0.205777
-0.014878
-0.178649
-0.212195
-0.188884
-0.021402
0.030938
0.029239
0.081005
0.104779
0.090634
0.094684
0.130738
0.134026
0.109416
0.123883
0.064488
0.060017
0.097739
0.121734
0.125178
0.215672
0.124751
0.126290
0.155588
0.168529
0.231482
0.227680
0.225281
0.232302
0.301553
0.333542
0.349869
0.355907
0.296087
0.327073
0.428300
0.392945
0.431676
0.339669
0.504759
0.551263
0.442520
0.525420
0.561697
0.594326
0.537265
0.601632
0.562040
0.542370
0.649719
0.543220
0.573929
0.489965
0.487259
0.505353
0.551342
0.538661
0.529462
0.501063
0.526308
0.524474
0.391367
0.362805
0.401624
0.361546
0.432393
0.349588
0.316102
0.263258
0.263102
0.241659
0.224051
0.197233
0.130199
0.169255
0.208761
0.203026
0.198154
0.236250
0.115300
0.101144
0.157281
0.117465
0.056796
0.193054
0.026189
0.044551
0.096596
0.058740
0.036529
0.102594
0.108570
0.063375
0.019956
-0.001649
0.040301
0.048652
0.050152
0.108939
0.066244
0.148318
0.125209
0.049257
0.026792
0.028388
0.098630
0.030647
0.028866
0.028257
-0.074590
0.010760
0.058255
0.101670
0.077754
0.009360
0.042129
0.000855
0.070786
-0.054710
-0.066808
0.024641
-0.013058
0.062902
0.045158
0.045219
0.041503
0.104496
-0.104667
-0.010826
0.016196
0.009339
0.030654
-0.005915
-0.023922
-0.031015
-0.016352
-0.025298
0.059515
0.001002
0.036202
0.026632
0.044462
0.045639
-0.058424
0.075329
0.044877
-0.016117
-0.022429
0.013024
0.045888
0.046267
0.034011
0.049471
0.010869
0.099005
0.047855
0.001080
-0.019128
0.062240
0.015531
0.129025
0.057564
0.111542
0.051749
0.060253
0.164863
0.151408
0.128156
0.218362
0.123144
0.158565
0.201082
0.183184
0.076700
0.195817
0.187173
0.194079
0.073836
0.141366
0.126153
0.074743
0.124698
0.135089
0.049062
0.056169
0.090208
0.086928
0.057255
0.062142
0.062125
0.137556
0.062645
-0.040518
0.029498
0.062613
0.015281
0.041953
-0.011459
0.059238
-0.011818
-0.016785
-0.112498
-0.123688
-0.027218
-0.122729
-0.024844
0.013261
-0.041918
-0.067158
-0.053719
-0.033720
-0.071295
-0.071956
0.178856
0.351095
0.616520
1.025326
1.291045
1.334765
1.236273
1.056257
0.696476
0.270292
0.075672
-0.203020
-0.348506
-0.304788
-0.276250
-0.212454
-0.139077
-0.051898
-0.089302
-0.004563
0.000171
-0.065032
-0.062290
-0.022098
-0.037759
0.031468
-0.021159
-0.082299
-0.090873
-0.055553
-0.044781
0.055713
-0.017306
0.088669
0.056320
0.033906
0.002852
0.088280
0.098366
0.048877
0.105360
0.107687
0.192578
0.173596
0.204986
0.217218
0.247680
0.275256
0.251491
0.355098
0.333979
0.463420
0.335635
0.423245
0.339682
0.383811
0.353287
0.411270
0.438842
0.430321
0.356239
0.474501
0.481101
0.334489
0.470233
0.379104
0.471738
0.404204
0.382932
0.311199
0.405841
0.261502
0.287589
0.276397
0.296899
0.258798
0.158256
0.216566
0.217607
0.246033
0.094927
0.183618
0.134280
0.124191
0.082995
0.081551
0.124924
0.012072
0.099757
0.045268
0.055863
-0.079333
0.001119
-0.048223
-0.017886
-0.053625
0.036211
-0.069088
-0.105857
-0.074710
-0.051118
-0.076973
-0.014995
-0.098845
-0.044294
-0.135055
-0.084421
-0.082653
-0.070150
-0.089784
-0.016337
-0.122182
-0.141928
-0.038722
-0.129286
-0.051139
-0.152237
-0.081501
-0.053633
-0.045136
-0.092670
0.013492
-0.044148
-0.036706
-0.091990
-0.095799
-0.081688
0.022619
-0.015241
-0.148178
-0.183622
-0.120967
-0.080649
-0.136620
-0.055845
-0.092444
-0.067433
0.031665
-0.109385
-0.063559
0.014214
-0.130473
-0.041751
-0.112683
-0.134031
-0.045459
-0.046945
-0.097173
-0.057954
0.010588
-0.101951
-0.031499
-0.156864
-0.102110
-0.143605
-0.095864
-0.088141
-0.053784
-0.077681
-0.087300
-0.050693
-0.032521
-0.084715
-0.059933
0.039531
-0.108775
-0.019763
-0.102938
-0.067038
-0.000854
0.063153
0.049458
-0.013631
0.033351
0.090194
0.084986
-0.004497
0.063565
0.029661
0.088335
0.169890
0.152139
0.118565
0.103811
0.045779
0.117078
0.059216
0.119232
0.103322
0.118370
0.084427
0.103288
0.038019
0.100566
0.047065
-0.012564
-0.079726
-0.007222
0.056036
0.023516
-0.161019
-0.001399
0.010974
0.013343
-0.075347
-0.068214
0.016336
-0.058734
-0.078301
-0.118529
-0.035499
-0.079655
-0.081965
-0.096418
-0.089214
-0.086246
-0.067363
-0.018134
-0.052222
-0.059812
-0.077480
-0.126377
-0.085199
0.038885
0.140543
0.330737
0.682641
0.915650
1.270011
1.374538
1.327944
0.990544
0.636724
0.358080
-0.023607
-0.191202
-0.295903
-0.305863
-0.186177
-0.137376
-0.116136
0.046987
-0.006518
0.021229
0.003901
-0.057647
0.110972
0.029915
-0.027332
0.058131
-0.089004
-0.090885
-0.065568
0.025903
0.006031
0.001022
0.017450
0.054820
0.107556
0.094030
0.104741
0.096465
0.199664
0.079685
0.023930
0.204193
0.172699
0.224262
0.242931
0.319392
0.256729
0.326011
0.252385
0.256287
0.374953
0.345035
0.362257
0.353327
0.475290
0.468744
0.396983
0.511777
0.452939
0.441939
0.461623
0.475454
0.485489
0.520627
0.512706
0.453961
0.529917
0.506388
0.413500
0.450750
0.407378
0.361546
0.384557
0.315899
0.271218
0.331421
0.240760
0.297000
0.263570
0.233738
0.196316
0.115159
0.126477
0.128453
0.115416
0.021147
-0.001203
0.072763
0.026489
0.045164
0.057652
0.059278
0.034798
0.015770
0.070660
0.047837
0.024976
-0.008044
0.006468
-0.070847
0.056545
-0.080154
-0.012225
0.018565
-0.046969
-0.010929
0.037788
0.016110
0.011762
-0.017103
-0.017097
-0.028244
-0.082579
0.051572
0.092952
-0.008170
-0.032451
0.009054
0.091424
-0.001768
0.016386
-0.051760
-0.004311
0.001362
0.045081
-0.066491
0.049101
0.019279
-0.012184
-0.024422
0.055560
-0.037088
-0.045272
-0.005592
0.009220
0.021165
0.015023
0.062639
-0.083698
0.078626
0.037841
-0.033691
0.056525
0.098540
0.034544
0.056883
0.021408
0.030047
0.008845
-0.007141
0.007370
-0.009045
0.068385
0.032999
0.021617
-0.066982
0.029562
-0.012586
0.018362
0.016691
0.013305
0.125183
0.020222
-0.039194
0.101027
-0.005520
0.065086
0.098554
0.090515
0.129576
0.139134
0.104579
0.184624
0.138412
0.123408
0.226149
0.101755
0.094825
0.234955
0.219637
0.144040
0.211396
0.213820
0.183241
0.214473
0.233304
0.259236
0.199701
0.224562
0.192112
0.172646
0.222487
0.108961
0.134959
0.107392
0.144761
0.064195
0.132296
0.132831
0.094478
0.113538
0.155533
0.038808
0.041528
0.097170
0.078350
0.127605
0.036879
0.047028
-0.022560
0.105779
-0.008954
0.058289
0.067469
-0.013978
0.001710
0.040088
0.008912
0.010300
0.022325
-0.023903
0.058538
-0.037832
0.030118
0.289160
0.499417
0.836090
1.143842
1.379065
1.454770
1.341341
1.141267
0.683634
0.371115
0.054520
-0.184247
-0.242598
-0.232979
-0.156946
-0.104304
-0.024277
0.000051
0.040083
0.002370
0.011489
0.119112
-0.000201
0.169162
0.034616
0.096236
0.071269
0.030376
0.073618
0.124298
0.146564
0.094560
0.003182
0.173875
0.170060
0.169444
0.221717
0.245480
0.285991
0.222739
0.254276
0.211433
0.263768
0.315635
0.330538
0.412975
0.363804
0.429783
0.353544
0.432488
0.433693
0.488938
0.384416
0.504782
0.546272
0.513543
0.533059
0.541825
0.524763
0.527905
0.512515
0.510933
0.575364
0.539634
0.568757
0.509810
0.528242
0.434064
0.465781
0.474859
0.444458
0.426237
0.455574
0.389289
0.388142
0.382328
0.386127
0.308488
0.296640
0.229705
0.238175
0.278809
0.194643
0.176991
0.173238
0.217777
0.169852
0.137817
0.158454
0.173684
0.165148
0.049615
0.129678
0.071517
0.080675
0.083420
0.087987
0.059931
0.061516
0.112853
0.080720
0.078982
0.088063
-0.047326
-0.054196
0.034307
0.035588
0.060004
0.053764
0.108218
0.092703
0.066936
0.002281
-0.028759
0.041762
0.057692
0.030323
0.000303
0.059571
0.041980
0.050210
-0.012075
-0.021692
-0.045070
0.052070
-0.006089
0.077338
0.119911
-0.011506
-0.008816
0.025872
0.011373
0.094711
-0.004402
0.084621
0.048529
0.018878
0.042404
0.009133
0.093916
0.022786
-0.018163
0.023917
0.006557
-0.041582
-0.037268
-0.038838
0.003735
0.032885
0.007510
0.138393
-0.034913
0.047584
0.087714
-0.054188
-0.009077
0.070981
0.075867
-0.073549
0.041980
0.032320
0.073597
0.044389
0.081888
0.040031
0.051317
0.039075
0.026400
0.018805
0.010459
0.045981
0.098585
0.122860
0.159707
0.125644
0.137011
0.092931
0.117964
0.220905
0.181531
0.133025
0.195293
0.073350
0.106012
0.217937
0.154223
0.158815
0.172373
0.165142
0.204572
0.045222
0.147454
0.079770
0.125272
0.020775
0.109640
0.166373
0.060286
0.018210
0.172762
-0.030876
0.028486
0.096863
0.053316
-0.040909
0.045794
0.071478
0.060187
-0.016869
-0.024107
-0.005161
0.020825
-0.065179
-0.105645
-0.026456
0.046393
-0.015661
0.033926
0.027802
-0.010558
0.014077
-0.009188
-0.035004
0.029110
0.228769
0.547183
0.864146
1.152147
1.403814
1.386889
1.171477
0.906291
0.571578
0.213184
-0.024400
-0.299550
-0.363359
-0.261088
-0.211192
-0.093610
-0.138868
-0.060308
0.037005
-0.021742
-0.117315
-0.029812
-0.036266
-0.024822
-0.117362
0.117442
-0.042553
0.002352
-0.058611
0.030492
0.067764
0.031779
0.041256
0.012768
0.068692
0.116903
0.043530
0.130200
0.134789
0.178132
0.171100
0.097573
0.206612
0.153209
0.258451
0.269789
0.250223
0.273526
0.298026
0.371906
0.333449
0.354500
0.369381
0.426656
0.406537
0.469890
0.478505
0.384962
0.405903
0.494660
0.462434
0.545607
0.478897
0.499680
0.450548
0.428752
0.457704
0.399479
0.410929
0.427968
0.369808
0.335142
0.279165
0.322667
0.321515
0.277561
0.206275
0.166046
0.217923
0.240663
0.229812
0.085186
0.157458
0.086090
0.089999
0.032876
0.080455
0.069366
-0.037452
-0.049580
-0.030313
0.043254
-0.086540
0.022663
-0.021326
-0.062631
-0.022499
0.003592
0.001252
-0.045737
-0.104346
-0.018919
-0.123059
-0.003791
-0.152817
-0.066048
-0.023783
-0.063793
0.010693
-0.053275
-0.149658
0.031139
-0.040662
-0.048877
-0.082956
-0.003815
-0.098596
-0.059101
-0.030497
-0.111603
-0.107974
-0.116816
-0.123064
-0.082479
-0.024056
-0.114512
-0.068296
-0.072362
-0.085869
-0.072012
-0.146483
-0.095047
-0.117917
-0.108373
-0.119944
-0.154751
-0.071429
0.001611
-0.075125
-0.005298
-0.107350
-0.093922
-0.076967
-0.175609
-0.070990
-0.109917
-0.075970
-0.136071
-0.025272
-0.097278
-0.088450
-0.145186
-0.129892
-0.124370
-0.071255
-0.053529
-0.131368
-0.104589
-0.118221
-0.103180
-0.144383
-0.119574
-0.048689
-0.087260
0.012381
-0.046852
-0.085610
-0.049768
-0.046028
-0.047931
0.034478
-0.118512
0.022478
0.066640
0.076328
0.001861
0.051922
0.097216
0.017087
0.105019
0.064605
0.070879
0.141547
0.068849
0.102797
0.105372
0.028733
0.102827
0.086218
0.033569
0.051326
0.060399
-0.009350
0.027921
0.014709
-0.066514
0.027566
-0.050828
-0.065581
-0.013486
-0.103426
-0.079608
-0.098569
-0.087918
-0.101594
-0.071097
0.025834
-0.016699
-0.039247
-0.092848
-0.098429
-0.144720
-0.112318
-0.127521
-0.074355
-0.116720
-0.129410
-0.071455
-0.131663
-0.099560
-0.199442
-0.107342
-0.185227
-0.038043
0.229730
0.321071
0.815397
1.005925
1.299174
1.154172
1.225147
0.788722
0.495175
0.158591
-0.186108
-0.257641
-0.333581
-0.365398
-0.267840
-0.203149
-0.089073
-0.085312
-0.090595
-0.052773
-0.080013
-0.153191
-0.060819
-0.043936
0.018356
-0.038483
-0.044008
0.020221
-0.072962
0.047339
0.022120
0.037962
0.013697
-0.035486
0.063928
0.008932
-0.020134
0.087942
0.040596
0.103471
0.184437
0.117523
0.053955
0.240091
0.215142
0.304971
0.110602
0.195558
0.259573
0.305627
0.309096
0.272960
0.352535
0.315112
0.358291
0.382579
0.400759
0.489093
0.477586
0.436879
0.509313
0.420742
0.344574
0.386353
0.440992
0.466677
0.434760
0.341421
0.440962
0.386511
0.341291
0.286633
0.369615
0.301895
0.228795
0.205983
0.208224
0.143684
0.109886
0.137780
0.178787
0.055090
0.085645
0.078680
-0.035162
-0.027297
0.036947
0.053902
0.076873
0.062932
0.059696
-0.032886
0.021203
0.015582
-0.036763
0.005550
0.008302
-0.138266
0.003569
-0.040241
-0.062164
-0.009242
-0.006106
-0.118044
-0.036040
-0.124988
-0.102539
-0.018113
-0.087460
-0.092252
-0.074679
-0.012934
-0.119946
-0.111039
-0.019941
-0.112737
-0.109907
-0.043681
0.000885
-0.091259
0.005963
-0.090412
-0.097212
-0.028809
-0.072556
-0.004897
0.007197
-0.038487
0.050057
-0.025302
-0.028301
-0.084765
0.024955
-0.076938
0.049276
-0.039528
-0.011689
-0.007129
-0.040729
-0.024150
-0.056925
0.006349
-0.040207
-0.093654
-0.025257
-0.080499
-0.122398
-0.039828
-0.095055
-0.059018
-0.056543
-0.013691
-0.001895
-0.017844
-0.008872
-0.076550
-0.050511
0.004464
-0.052183
-0.047569
0.008173
0.027731
-0.018047
-0.068459
0.005926
0.044708
-0.024647
0.022488
-0.010740
0.057097
0.005078
0.017359
-0.023940
0.121508
0.069862
0.116853
0.064502
0.147518
0.111173
0.084341
0.103307
0.131598
0.141950
0.124355
0.165862
0.090883
0.232364
0.162839
0.151635
0.154318
0.134515
0.133386
0.136869
0.042073
0.040854
0.119406
-0.003082
0.041111
0.081263
0.020805
0.090235
0.007824
0.010515
0.128293
0.104801
-0.004055
0.028483
0.031397
0.033856
0.001577
0.054668
-0.019318
-0.014548
0.094959
0.052533
-0.047449
-0.038615
-0.009015
-0.007576
-0.052077
0.066059
-0.018660
-0.085696
0.113018
0.338960
0.600899
0.892159
1.195187
1.362008
1.468304
1.274948
0.878310
0.578932
0.171221
-0.082241
-0.202558
-0.240182
-0.286125
-0.114967
-0.064319
-0.044091
-0.000938
0.014131
0.072941
0.081971
0.058948
0.115329
0.034550
0.039395
-0.004244
0.111621
0.099748
0.029334
0.088334
0.081153
0.077723
0.160347
0.067213
0.149564
0.160965
0.165084
0.137237
0.264660
0.209577
0.205910
0.401253
0.279500
0.279453
0.321605
0.358077
0.393630
0.365971
0.322727
0.394607
0.375162
0.405653
0.480100
0.533495
0.554234
0.538818
0.499976
0.484251
0.543959
0.570427
0.584939
0.512247
0.559393
0.549310
0.613404
0.507178
0.489269
0.548850
0.494132
0.522989
0.434989
0.529663
0.384285
0.402833
0.424096
0.303533
0.314003
0.347065
0.253541
0.332028
0.251548
0.263937
0.228016
0.248952
0.195521
0.222000
0.118206
0.215319
0.244738
0.084250
0.163280
0.139534
0.093372
0.157816
0.112692
0.120021
0.086989
0.115317
0.125384
0.038138
0.054437
0.063845
0.090529
0.049088
-0.038527
-0.022242
0.055060
0.071603
0.049704
0.113547
0.121783
0.009520
0.151509
0.023675
-0.001451
0.055666
0.139786
0.066644
0.066163
0.097207
0.062833
0.053812
0.086383
0.091800
0.148781
0.095732
0.116746
0.056492
0.114338
0.050029
0.113986
0.139038
0.094988
0.100253
0.060933
0.114543
0.075991
0.106710
0.140917
0.078437
0.004390
0.091589
0.106170
0.031503
0.144410
-0.023991
0.061188
0.082121
0.043250
0.037602
0.175305
0.016489
0.036838
0.091817
0.051258
0.070971
0.048571
0.069079
0.001670
0.107479
0.037914
0.126244
0.126888
0.063115
0.172571
0.077293
0.113615
0.093125
0.119525
0.109860
0.178697
0.168756
0.194299
0.175636
0.080296
0.216883
