-0.082559
-0.017426
-0.011600
0.050731
0.014003
0.019582
0.064989
-0.024118
-0.002757
0.074404
-0.060805
-0.032975
0.047697
-0.013301
0.015348
-0.027222
0.017714
-0.029781
-0.007340
-0.031408
-0.012165
0.033870
-0.021330
0.057452
0.123402
0.021883
0.026327
0.052481
0.003355
-0.009428
0.055711
0.009693
0.039917
0.044069
0.097358
0.088088
0.141243
0.099045
0.139345
0.177968
0.197446
0.231875
0.172376
0.215863
0.181156
0.197155
0.220215
0.263899
0.213849
0.197995
0.266197
0.202511
0.196086
0.154702
0.091581
0.188850
0.133033
0.095640
0.193771
0.150611
0.116552
0.067353
0.082861
0.065273
0.084611
0.111290
0.115511
0.079432
0.065496
0.095003
0.100396
0.099912
0.014812
0.109935
0.060787
0.059984
0.073870
0.065837
0.017958
0.133200
-0.054131
0.036935
0.042330
0.027225
0.051762
0.067580
0.002014
0.065773
0.003085
0.233886
0.509014
0.804348
1.170328
1.449616
1.455647
1.330424
1.178811
0.751606
0.500639
0.071772
-0.167644
-0.178963
-0.168989
-0.142377
-0.070465
-0.052047
0.049326
0.057636
0.042963
0.117437
0.099963
0.106121
0.116803
0.056174
0.117109
0.071541
0.148581
0.017701
0.086741
0.060228
0.103652
0.120472
0.132020
0.115651
0.195638
0.111596
0.159466
0.141605
0.220732
0.231300
0.369942
0.234437
0.336404
0.331233
0.310243
0.366847
0.404063
0.316706
0.347163
0.362359
0.442196
0.501254
0.470045
0.460294
0.539830
0.457788
0.511368
0.629401
0.603614
0.630428
0.665268
0.518486
0.612739
0.638167
0.565992
0.563907
0.543932
0.610397
0.584622
0.531414
0.570714
0.614290
0.492647
0.550643
0.522658
0.476922
0.405167
0.503835
0.303580
0.316585
0.363544
0.331812
0.313975
0.280177
0.235868
0.183715
0.246123
0.166286
0.159172
0.155578
0.232995
0.121392
0.135972
0.224888
0.142002
0.140586
0.103559
0.116165
0.114649
0.134091
0.098885
0.075751
0.131184
0.147849
0.059436
0.055173
0.096035
0.140214
0.091224
0.068767
0.115604
0.103116
0.094262
0.122462
0.083438
-0.010221
0.122308
0.134312
0.026689
0.079522
0.037497
0.095380
0.060053
0.094694
0.010499
0.040529
0.177293
0.071563
0.131090
0.102310
0.157981
0.135665
0.039231
0.079375
0.062904
0.078479
0.124963
0.111648
0.101529
-0.013798
0.184008
0.117075
-0.017853
0.065149
0.095178
0.136544
0.067583
0.099850
0.110323
0.107185
0.155844
0.101512
0.030463
0.082996
0.127187
0.095861
0.007144
0.105729
0.081498
0.065706
0.068123
0.071597
0.109656
0.070094
0.034519
0.078162
0.197210
0.093201
0.078543
0.099357
0.116406
0.170661
0.099870
0.115442
0.060805
0.088769
0.152687
0.052847
0.226698
0.208563
0.198408
0.116991
0.213673
0.175805
0.272659
0.170662
0.216750
0.310327
0.197413
0.190988
0.292837
0.252458
0.251314
0.298173
0.216204
0.194241
0.245991
0.190434
0.117484
0.236292
0.291981
0.181057
0.206279
0.058845
0.127024
0.127803
0.147356
-0.007262
0.108397
0.079728
0.043712
0.067092
0.174561
0.105166
0.234815
0.154618
0.052129
0.039552
-0.001704
0.076044
0.018415
0.051843
0.104224
0.018760
0.076008
0.054164
0.021262
0.136767
-0.016322
0.052576
0.064251
0.120105
0.092766
0.135262
0.322884
0.755650
1.106672
1.366864
1.476321
1.452415
1.288580
0.863260
0.613639
0.124129
-0.190156
-0.231830
-0.212682
-0.239006
-0.146014
-0.102174
0.000740
-0.021823
0.007442
0.007603
0.067372
0.002989
0.042106
0.068224
0.059107
0.041850
0.117171
0.061284
0.073064
0.048723
0.096333
0.099189
0.073248
0.162868
0.231382
0.142316
0.210557
0.131953
0.096249
0.127966
0.173937
0.236977
0.267637
0.277325
0.187272
0.242915
0.346385
0.261316
0.366921
0.444520
0.372130
0.428290
0.456226
0.461672
0.492838
0.496854
0.508937
0.576654
0.518469
0.498652
0.546785
0.592271
0.498727
0.468374
0.595675
0.544396
0.516020
0.640053
0.546884
0.555797
0.433359
0.437877
0.379908
0.413410
0.440583
0.395734
0.334763
0.295464
0.311893
0.345284
0.291396
0.327988
0.226051
0.172630
0.150630
0.112850
0.091476
0.189203
0.100256
0.132823
0.027678
0.105818
0.075841
0.048204
0.059950
0.022970
0.057979
-0.027586
0.044338
0.078242
0.083476
0.083487
0.030093
-0.065595
0.114881
0.012564
0.056503
-0.001806
0.000856
0.025280
0.017084
0.002514
-0.019811
0.001334
-0.013591
0.005717
0.002661
-0.013426
-0.002198
-0.137476
-0.020981
0.005211
-0.044848
0.020387
0.020713
-0.025649
0.008678
0.001432
-0.078742
0.084879
0.042913
-0.017897
-0.041901
-0.031900
-0.016590
0.026389
-0.044272
-0.039939
-0.046771
0.095767
-0.087364
-0.025537
-0.049614
-0.056554
-0.016143
0.041147
-0.069096
-0.000969
-0.029511
-0.051944
-0.084951
-0.026302
-0.029349
-0.058749
0.001963
-0.001359
-0.090791
-0.024626
0.032313
-0.021689
-0.096463
-0.051947
0.039719
-0.029186
-0.016813
-0.027745
-0.035056
-0.071009
-0.002789
-0.034374
-0.095211
0.018986
0.036369
0.066560
-0.080472
0.030674
0.000052
-0.026183
-0.004578
-0.050340
0.032863
0.130730
0.126155
0.018888
0.112142
0.089242
0.162757
0.047408
0.077322
0.108972
0.164659
0.125634
0.088545
0.127098
0.171041
0.157787
0.113009
0.133745
0.096214
0.122428
-0.040430
0.024526
0.108155
0.094705
0.099219
0.084009
-0.035633
0.117221
-0.048951
-0.103844
-0.034281
-0.084313
0.006457
-0.114026
-0.010608
-0.040311
0.041295
0.017051
-0.057315
-0.054147
-0.030856
0.003609
-0.050306
-0.112762
-0.001110
-0.079324
-0.067652
-0.122332
-0.088028
-0.064709
-0.067860
-0.152116
-0.035748
-0.071285
0.211750
0.548681
0.904007
1.156506
1.404853
1.345725
1.212697
1.007464
0.549913
0.250843
-0.059179
-0.334728
-0.299403
-0.255933
-0.229353
-0.225581
-0.118920
-0.077808
-0.082171
-0.106439
-0.060967
-0.087320
-0.027454
0.031115
-0.027060
-0.117460
-0.141500
-0.074274
-0.050786
-0.018311
0.050150
0.019296
-0.021168
0.077986
0.010271
0.001451
0.167020
0.014995
0.017724
0.084378
0.114212
0.182924
0.146932
0.190922
0.182352
0.180840
0.235273
0.278430
0.252591
0.355374
0.294848
0.289206
0.363474
0.369572
0.435860
0.457884
0.357025
0.494790
0.517186
0.431307
0.489789
0.474161
0.459354
0.495156
0.375093
0.401727
0.510747
0.511859
0.389663
0.399730
0.430036
0.478819
0.286241
0.356920
0.281753
0.254218
0.396233
0.288986
0.307215
0.251247
0.202494
0.215882
0.178037
0.165615
0.186836
0.164060
0.132116
0.141801
0.117685
0.057089
0.063557
0.059342
0.037366
0.047434
0.048557
0.050143
0.017406
-0.012361
0.094541
0.044786
0.018596
0.122436
0.027321
-0.057076
0.017486
-0.032639
0.017634
-0.012801
-0.029389
0.010960
0.010183
-0.054802
-0.028254
-0.030410
-0.053945
0.022747
0.002478
-0.018157
-0.014314
-0.119190
-0.006297
-0.054307
-0.070662
-0.050528
0.001370
0.007939
-0.052546
0.006368
-0.101660
0.053566
-0.002087
-0.071181
-0.017934
0.022326
0.014915
0.045413
-0.002830
0.010177
-0.037864
0.074505
0.000363
-0.087153
-0.072312
0.040642
-0.036193
0.066230
-0.078719
-0.061202
0.023975
0.079973
-0.007598
0.064359
0.010694
0.010399
-0.022804
0.074868
0.000481
0.037166
-0.020152
-0.005210
-0.044243
0.015282
-0.009151
0.021238
-0.009260
0.006715
-0.079756
-0.020126
-0.001599
0.010034
0.081607
-0.036550
0.038162
0.106788
0.028789
-0.053764
0.127256
0.014080
0.126100
0.133564
0.164761
0.085562
0.107410
0.101845
0.143961
0.223027
0.204831
0.217223
0.156986
0.175432
0.168980
0.158506
0.209167
0.171083
0.222886
0.237801
0.224555
0.238578
0.232647
0.100658
0.168922
0.146955
0.107769
0.186878
0.128390
0.095481
0.078343
0.109747
0.161549
0.068907
0.055881
0.107285
-0.024743
0.058662
0.017273
-0.031518
0.025224
0.051024
-0.014067
0.047923
0.139192
0.061081
0.084119
0.014265
0.045699
0.025544
0.046713
0.051406
0.009778
-0.051944
-0.009984
-0.006785
-0.081017
0.091112
0.191500
0.522485
0.768508
1.151662
1.457559
1.451220
1.413968
1.144863
0.833284
0.431918
0.093463
-0.037691
-0.248098
-0.203670
-0.249977
-0.137690
0.006689
0.074918
0.072562
0.014147
0.155623
0.045543
0.117489
0.085818
0.085463
0.134995
0.027363
0.091549
0.062628
0.118836
0.136374
0.015495
0.046236
0.202420
0.129286
0.192694
0.141515
0.233890
0.180349
0.230718
0.259287
0.193947
0.229249
0.256946
0.308267
0.277555
0.319044
0.403003
0.396876
0.405901
0.505473
0.496558
0.446885
0.546119
0.483350
0.554510
0.464185
0.536499
0.540981
0.604724
0.537251
0.625244
0.586203
0.516989
0.635248
0.645891
0.583759
0.596454
0.570039
0.616285
0.553822
0.498981
0.473545
0.597693
0.511944
0.519910
0.417137
0.449038
0.426481
0.383067
0.407247
0.261192
0.253018
0.328594
0.345098
0.313818
0.194515
0.209399
0.278392
0.196069
0.116420
0.189656
0.202712
0.159027
0.214732
0.103785
0.069436
0.157248
0.059067
0.106015
0.097635
0.051538
0.063779
0.084353
0.000000
0.000000
0.000000
0.000000
0.000000
0.000000
0.000000
0.000000
0.000000
0.000000
0.000000
0.000000
0.000000
0.000000
0.000000
0.000000
0.000000
0.000000
0.000000
0.000000
0.000000
0.000000
0.000000
0.000000
0.000000
0.000000
0.000000
0.000000
0.000000
0.000000
0.000000
0.081487
0.077156
0.136130
0.021256
0.099530
0.096972
0.140793
0.099330
0.076898
0.079726
0.068369
0.125658
0.132302
0.037889
0.130913
0.030569
0.045393
0.083719
0.069120
0.105688
0.096103
0.090685
0.167628
0.071818
0.063778
0.132003
0.061533
0.214147
0.097701
0.124172
0.069583
0.024428
0.148500
0.016140
0.108114
0.130302
0.061226
0.067542
0.182078
0.171048
0.186402
0.069767
0.231595
0.129099
0.187794
0.231990
0.155403
0.164206
0.229034
0.250470
0.207473
0.231964
0.279892
0.229840
0.322596
0.240842
0.235074
0.322691
0.268555
0.162251
0.230485
0.236249
0.262834
0.170889
0.200177
0.249380
0.226348
0.136280
0.124615
0.176321
0.177817
0.121795
0.119651
0.157020
0.172270
0.157184
0.149743
0.140982
0.164991
0.086624
0.151853
0.111302
0.018236
0.040027
0.144905
0.088744
0.095978
0.119117
0.123949
0.025643
0.027560
0.040723
0.147303
0.101869
0.021818
0.149626
0.084639
0.000000
0.000000
0.000000
0.000000
0.000000
0.000000
0.000000
0.000000
0.000000
0.000000
0.000000
0.000000
0.000000
0.000000
0.000000
0.000000
0.000000
0.000000
0.000000
0.000000
0.000000
0.000000
0.000000
0.000000
0.000000
0.000000
0.000000
0.000000
0.000000
0.000000
0.000000
0.000000
0.000000
0.000000
0.000000
0.000000
0.000000
0.000000
0.135939
0.194878
0.166701
0.222736
0.177412
0.219480
0.327925
0.285157
0.303731
0.248251
0.360631
0.270404
0.417742
0.367664
0.329885
0.419921
0.379920
0.425516
0.504901
0.420370
0.468340
0.464008
0.426375
0.590095
0.636076
0.621837
0.563476
0.577026
0.586860
0.557845
0.552463
0.583943
0.570699
0.593901
0.553305
0.429161
0.463345
0.467938
0.420281
0.443906
0.471939
0.427384
0.311303
0.384309
0.315675
0.290646
0.267658
0.245016
0.231196
0.218640
0.147806
0.197653
0.200834
0.112197
0.174650
0.152699
0.115820
0.157054
0.095827
0.073215
0.014173
0.025320
0.037936
0.049776
0.072607
-0.011521
0.032190
0.031176
0.019878
-0.049623
-0.010649
0.043936
0.031725
0.016232
-0.076768
-0.045985
-0.002408
-0.011465
-0.027066
-0.029388
0.005449
0.053548
-0.055693
-0.051712
0.018814
-0.019814
-0.022920
-0.026364
0.017741
-0.017206
0.038912
0.011460
0.018667
-0.054185
-0.015348
-0.029395
-0.028181
0.018139
0.032257
0.003384
-0.070270
-0.146613
0.024083
-0.003292
0.061971
-0.002897
-0.005656
0.010517
0.059137
-0.071760
0.079131
0.004993
0.012137
0.012287
0.002141
-0.023750
0.088231
-0.035389
-0.030024
0.006367
0.003774
-0.057797
-0.021228
-0.019655
-0.016562
-0.075083
0.020185
-0.079270
0.001942
-0.068803
-0.026950
-0.070819
0.042797
-0.002332
-0.086303
0.000294
0.034248
0.013690
-0.052981
0.013840
0.080667
0.042977
-0.006546
-0.002730
0.091574
0.081691
0.112519
0.057078
0.120768
0.102901
0.078188
0.046874
0.110159
0.108263
0.181902
0.170269
0.122544
0.226007
0.177001
0.076092
0.094264
0.161474
0.073222
0.088336
0.146368
0.087740
0.122312
0.051640
0.069193
0.078782
0.023270
-0.042490
0.017055
-0.048236
0.008779
0.063381
0.013753
-0.051287
-0.023206
-0.000493
0.027081
-0.007430
-0.069410
-0.038914
-0.075267
-0.044898
-0.051764
-0.096395
-0.053460
-0.047045
-0.072018
-0.082235
0.005950
-0.145317
-0.040451
-0.109444
-0.117118
-0.089486
-0.010770
0.228293
0.449501
0.766198
1.102629
1.351640
1.445546
1.280164
0.953954
0.649547
0.234798
-0.063671
-0.270721
-0.404277
-0.337615
-0.286772
-0.204984
-0.216386
-0.066737
-0.058566
-0.008853
-0.068251
-0.063185
-0.039064
-0.057472
-0.013077
-0.121188
-0.030315
-0.097032
-0.065279
0.014445
0.053687
-0.002348
-0.061799
-0.034679
0.027683
0.020748
0.023592
0.021500
0.047262
0.100122
0.114782
0.053016
0.064334
0.084012
0.155243
0.183554
0.158263
0.207542
0.178306
0.240292
0.275715
0.251701
0.296615
0.340768
0.361403
0.330432
0.372310
0.473625
0.395442
0.413838
0.489234
0.506520
0.454403
0.474228
0.411011
0.437270
0.360852
0.429356
0.402139
0.424868
0.413717
0.387201
0.395488
0.351022
0.374661
0.355404
0.293986
0.208425
0.231686
0.232131
0.155671
0.148766
0.128385
0.162112
0.146325
0.064619
0.094824
0.137694
0.069114
-0.023277
0.040985
0.017357
-0.003191
0.012449
0.002194
-0.045008
-0.007247
-0.010726
-0.085963
-0.062344
-0.038539
-0.103665
-0.118577
-0.039912
-0.083859
-0.055099
-0.123127
-0.027743
-0.114512
-0.129009
-0.092507
-0.071746
-0.040414
-0.083006
-0.024156
-0.045393
-0.042607
-0.062936
-0.000660
-0.150271
-0.113033
-0.084735
-0.110492
-0.114784
-0.061903
-0.138810
-0.117717
-0.019828
-0.059074
-0.130843
-0.052893
-0.170687
-0.070619
-0.160293
-0.036967
-0.008778
-0.124840
-0.107135
-0.105146
-0.072116
-0.080385
-0.076519
-0.067386
-0.047459
-0.099224
-0.051921
-0.157263
-0.044599
-0.056663
-0.127197
-0.120300
-0.106589
-0.096334
-0.019425
0.003806
-0.077829
-0.081340
-0.044882
-0.084177
-0.047952
-0.103950
-0.073510
-0.018358
0.017050
-0.039115
-0.069654
-0.116022
-0.050922
-0.017268
-0.034167
0.017672
-0.069136
-0.074769
-0.068524
-0.101559
-0.065467
0.019676
-0.037169
0.052402
0.059410
0.035618
0.050349
0.028203
0.081809
0.109930
0.038439
0.066879
0.098059
0.158008
0.128983
0.118169
0.111917
0.135786
0.163387
0.129579
0.116556
0.101744
0.085525
0.122415
0.139844
0.068223
0.147499
0.019086
0.010000
-0.075623
0.004555
0.077444
-0.037151
-0.024313
0.055432
-0.049038
0.087099
0.006889
-0.017052
-0.062316
-0.042055
-0.102239
-0.026834
-0.070412
-0.075620
-0.065731
-0.091066
-0.158653
-0.065873
0.042405
-0.035867
0.010011
-0.023374
0.033556
-0.046181
0.052494
-0.034684
-0.129576
0.011569
0.128297
0.394264
0.730661
1.001848
1.308036
1.468055
1.355927
1.100742
0.761799
0.359157
0.118467
-0.051885
-0.183358
-0.266136
-0.282130
-0.208163
-0.117203
-0.057804
-0.023700
0.017842
-0.035034
-0.028055
0.011395
0.001315
0.026910
-0.067176
-0.011089
0.020436
0.071693
0.003658
0.111299
0.079598
0.013040
0.013460
0.013040
0.063635
0.109781
0.096741
0.130442
0.159474
0.125738
0.101356
0.152707
0.246526
0.248474
0.316699
0.317470
0.258371
0.349597
0.283487
0.342554
0.372929
0.439057
0.437148
0.462942
0.506997
0.414769
0.484334
0.543334
0.580011
0.412354
0.543835
0.525249
0.579427
0.538034
0.554972
0.486185
0.530266
0.590229
0.503942
0.544449
0.491534
0.468984
0.442299
0.362737
0.451803
0.392951
0.280450
0.312434
0.366445
0.289344
0.274540
0.279121
0.000000
0.000000
0.000000
0.000000
0.000000
0.000000
0.000000
0.000000
0.000000
0.000000
0.000000
0.000000
0.000000
0.000000
0.000000
0.000000
0.000000
0.000000
0.000000
0.000000
0.000000
0.000000
0.000000
0.000000
0.000000
0.000000
0.000000
0.000000
0.000000
0.000000
0.000000
0.000000
0.000000
0.000000
0.000000
0.000000
0.000000
0.000000
0.000000
0.000000
0.000000
0.000000
0.000000
0.000000
0.000000
0.000000
0.000000
0.000000
0.000000
0.000000
0.000000
0.000000
0.000000
0.000000
0.000000
0.000000
0.088833
0.086858
0.032832
0.117765
0.038739
0.009648
0.040319
0.085942
0.069905
0.002920
0.035569
-0.119432
0.136614
0.055402
-0.051939
0.067118
0.042461
0.021477
0.042256
-0.029762
0.084654
0.066276
0.077170
0.014039
0.126923
0.133505
-0.009055
0.096221
-0.034435
0.103089
0.077870
0.064390
0.046869
-0.060044
0.105235
0.048463
0.078196
0.095873
0.105681
0.133481
0.067316
0.116246
0.161293
0.176821
0.199404
0.140912
0.175687
0.176624
0.190281
0.220264
0.156357
0.224786
0.179770
0.299663
0.193446
0.214613
0.146914
0.250706
0.216602
0.225629
0.171129
0.189753
0.196450
0.153725
0.159954
0.119237
0.049090
0.134772
0.072816
0.043352
0.025667
0.114132
0.062585
0.082594
-0.022386
0.090273
0.115309
-0.023030
0.084436
0.088485
0.008127
0.060371
0.071559
0.030194
0.033649
0.096284
0.105226
0.046238
0.019969
0.033906
0.039147
0.042556
0.074361
-0.011213
0.017147
0.125696
0.301520
0.698038
0.978375
1.249871
1.424092
1.384600
1.276943
1.058655
0.643967
0.286573
-0.044592
-0.207182
-0.222778
-0.209375
-0.199928
-0.090603
-0.030119
0.027697
-0.003750
0.008858
0.032199
0.101370
0.173343
0.027949
-0.011707
0.101750
0.110627
0.143745
0.036028
0.076223
0.025982
0.052488
0.039490
0.153949
0.034776
0.213131
0.183074
0.205025
0.159991
0.136384
0.176921
0.243990
0.053073
0.307496
0.214257
0.303762
0.312214
0.283467
0.289865
0.339443
0.430498
0.409631
0.416618
0.476979
0.418287
0.491630
0.502001
0.595562
0.606481
0.538936
0.575514
0.609642
0.556561
0.518238
0.531992
0.527827
0.482850
0.486410
0.486817
0.535963
0.557535
0.470691
0.403710
0.417118
0.459158
0.464018
0.281591
0.373425
0.386137
0.383020
0.268749
0.270732
0.202001
0.214690
0.179594
0.137938
0.115484
0.215402
0.128351
0.238987
0.156028
0.088701
0.120411
0.024693
0.071527
0.091547
0.018293
0.092867
0.030994
0.030970
0.061261
0.005183
-0.097435
-0.005249
-0.002076
-0.029700
0.074934
0.035310
-0.010989
0.068637
-0.099049
0.024268
0.071743
-0.012019
0.101152
0.100941
-0.084815
0.020478
-0.020536
-0.040171
0.059199
0.014824
0.022175
0.021927
-0.021181
-0.036013
0.045110
-0.042552
0.028229
-0.007518
-0.021278
0.045893
0.016221
-0.099866
-0.041319
-0.026976
-0.023806
-0.156215
-0.021738
0.020076
-0.109916
0.055135
0.000582
-0.054912
-0.015903
0.026285
0.030110
-0.024450
-0.078618
-0.084069
-0.071327
0.091088
-0.129782
0.048211
0.011906
-0.050048
-0.003508
-0.014075
-0.084052
-0.099504
-0.067828
-0.106407
-0.057905
0.081507
-0.015641
0.035869
-0.004081
-0.041622
0.019861
0.033766
0.001664
-0.074898
0.058858
-0.047704
-0.004279
-0.044079
-0.015231
0.057351
-0.027579
0.018873
0.014376
0.072219
0.032418
0.034184
0.036364
0.128118
0.087640
0.149086
0.146581
0.064229
0.094928
0.167648
0.136998
0.157025
0.112365
0.110228
0.032199
0.141760
0.122647
0.102594
0.106191
0.095481
0.034781
0.072988
0.055248
0.047829
0.065096
-0.022209
0.019690
0.023610
0.009278
-0.078894
-0.027487
-0.042524
-0.031591
-0.046217
-0.075962
0.023999
-0.093021
-0.072410
-0.002330
-0.034715
-0.044380
-0.045770
-0.129888
-0.082887
-0.077868
-0.072886
-0.081237
-0.029445
-0.118481
-0.139682
-0.061285
0.046262
0.057717
0.405323
0.697508
1.055664
1.317938
1.373422
1.292504
1.002761
0.603352
0.219723
0.019492
-0.326161
-0.333491
-0.355312
-0.278814
-0.270021
-0.149608
-0.067943
-0.088492
-0.047497
-0.012325
-0.063029
-0.167755
-0.057679
-0.095460
-0.013647
-0.105332
-0.111248
-0.093071
-0.065351
-0.034224
-0.064874
-0.008566
-0.028277
0.049430
0.030421
0.038942
-0.006193
0.028654
0.091868
0.059026
0.238814
0.094865
0.103630
0.173972
0.205046
0.217956
0.177847
0.268644
0.265475
0.265098
0.330546
0.342487
0.300782
0.409264
0.365574
0.348776
0.449134
0.401661
0.403549
0.373213
0.367460
0.500193
0.465031
0.460474
0.436581
0.395958
0.440251
0.368548
0.354307
0.317871
0.404424
0.327669
0.323312
0.325245
0.268602
0.211977
0.158318
0.271171
0.247618
0.241561
0.198326
0.154194
0.105986
0.081330
0.129310
0.095454
0.091167
0.000281
0.057461
0.070985
-0.003665
-0.036488
-0.035168
-0.110507
-0.049866
-0.037006
-0.114158
-0.093324
-0.100885
-0.079724
-0.050254
-0.134626
-0.061887
-0.095811
-0.119763
-0.122828
-0.088232
-0.019550
0.001761
-0.103539
-0.055208
-0.103684
-0.111001
-0.168033
-0.123679
-0.158534
-0.107753
-0.037573
-0.144863
-0.114382
-0.061412
0.034389
-0.130974
-0.059541
-0.063605
-0.093771
-0.116862
-0.043798
-0.051186
-0.034645
-0.078771
-0.080774
-0.061484
-0.096961
-0.091942
-0.072297
-0.103978
-0.106978
-0.062886
-0.140761
-0.060587
-0.040343
-0.201393
-0.127188
-0.085048
-0.072444
-0.090034
-0.075894
-0.088188
-0.037697
-0.185527
-0.243118
-0.166880
-0.112010
-0.129035
-0.105146
-0.050034
-0.090915
-0.070972
-0.123681
-0.093450
-0.124875
-0.141256
0.017828
-0.193466
-0.119746
-0.106971
-0.136308
0.024114
-0.168845
-0.057852
-0.134285
-0.079860
-0.050199
-0.071429
-0.034969
-0.075379
0.063104
0.048109
-0.050318
0.033769
0.023332
0.037169
0.001288
0.023292
0.144433
0.026969
-0.031225
0.139829
0.105315
0.126437
0.062292
0.122981
0.117552
0.044818
0.152715
-0.028721
0.109731
0.044515
0.070585
0.037974
0.048155
0.160516
0.079956
0.038247
0.039125
0.002522
-0.045754
0.014723
-0.002097
-0.033048
-0.083907
-0.021156
-0.109438
-0.086725
-0.142804
-0.006219
-0.011377
0.035468
-0.025499
-0.013486
-0.040018
-0.127395
-0.093088
-0.073521
-0.000833
-0.072417
-0.122681
-0.124136
-0.078030
-0.158801
-0.078340
-0.055666
0.083595
0.334565
0.659177
0.952601
1.271247
1.385074
1.367858
1.150335
0.753106
0.412349
0.031511
-0.285157
-0.313556
-0.387498
-0.379536
-0.284894
-0.157474
-0.067534
-0.121943
-0.052948
0.029732
-0.045883
0.070977
-0.114175
-0.030406
-0.077255
0.023059
-0.009086
0.014142
-0.076282
-0.021508
0.033803
-0.010894
-0.078904
-0.014170
0.003456
0.099265
0.089130
0.117046
0.084459
0.111452
0.084455
0.109966
0.117365
0.209173
0.170791
0.276352
0.305338
0.219837
0.284036
0.365763
0.325754
0.300531
0.422032
0.421751
0.426564
0.488921
0.423402
0.416438
0.486824
0.494164
0.448389
0.487725
0.522626
0.455151
0.479835
0.504981
0.489386
0.472067
0.503879
0.459308
0.386695
0.405027
0.455225
0.447383
0.341105
0.363185
0.260505
0.275150
0.353721
0.263728
0.249464
0.197248
0.217962
0.233748
0.164713
0.211936
0.179763
0.101071
0.081367
0.078911
0.130954
0.048409
0.121072
0.057719
0.174752
0.112363
0.042461
0.011259
0.011816
0.033403
0.070979
0.075393
0.078963
-0.036201
0.010990
0.023576
0.021761
-0.012280
0.038075
0.019149
0.085615
0.002510
0.005002
0.032558
-0.034349
0.052021
0.076753
0.064664
0.041512
0.047787
0.049488
-0.010089
0.103904
0.082034
0.012967
0.045371
0.011519
0.085755
0.038654
0.060181
-0.013207
0.039680
-0.031072
0.049256
-0.085863
0.051424
0.037794
-0.005090
0.080170
0.082800
0.057120
0.050451
-0.006457
0.056383
0.074396
0.134204
0.028340
0.103504
0.058191
0.011408
0.097101
0.052755
0.010946
0.080889
-0.005755
0.084226
0.076003
0.007313
0.087826
0.054791
0.066896
0.046809
-0.006617
0.077506
0.019717
0.056908
0.071890
0.068991
0.040898
0.093197
0.042256
0.007942
0.120362
0.114846
0.033471
0.095680
0.062491
0.089569
0.140622
0.198266
0.231944
0.236175
0.231814
0.134205
0.156510
0.273387
0.161051
0.262513
0.183729
0.191140
0.246184
0.178633
0.205396
0.240785
0.204728
0.216258
0.145993
0.196330
0.144587
0.116240
0.193814
0.126039
0.177052
0.157561
0.167978
0.076765
0.081858
0.117102
0.126757
0.051776
0.099103
0.054536
0.045776
0.044608
0.025494
0.073795
0.100279
0.096848
-0.035959
0.088205
0.068688
0.154832
0.060691
-0.006528
0.083092
-0.014049
0.057582
0.115341
0.025536
0.064763
0.087849
0.019130
0.089021
0.090257
0.288058
0.597645
0.993939
1.344184
1.457540
1.500000
1.341614
1.021893
0.636511
0.233597
0.001050
-0.132109
-0.205833
-0.252954
-0.107697
-0.029971
0.040791
-0.019616
0.051776
0.072418
0.047003
0.066642
0.018249
0.097890
0.091281
0.046702
0.027550
0.138636
0.007728
0.193727
0.172698
0.131956
0.197775
0.144271
0.236220
0.127805
0.157322
0.187484
0.216477
0.206005
0.193607
0.235787
0.292588
0.254490
0.241401
0.407393
0.347736
0.358154
0.296443
0.397850
0.482682
0.455136
0.500940
0.459138
0.579892
0.559980
0.556413
0.522555
0.581859
0.535343
0.568536
0.715840
0.558796
0.563741
0.566017
0.660114
0.580233
