-0.017756
-0.001673
-0.021630
-0.004404
-0.008290
-0.024185
0.011862
0.049650
-0.000296
-0.025979
-0.041267
-0.026170
-0.029308
-0.028180
0.022717
-0.011458
0.037682
0.090129
0.018060
0.043751
-0.013365
0.065979
0.054114
0.022152
0.060649
0.053401
-0.006278
0.074895
0.089529
0.145842
0.105505
0.098905
0.194473
0.142128
0.078114
0.269324
0.173804
0.175591
0.141986
0.234622
0.224290
0.214642
0.165251
0.208951
0.161007
0.252969
0.174547
0.204091
0.194785
0.165984
0.207954
0.223352
0.213837
0.136779
0.119116
0.210808
0.151523
0.073806
0.101881
0.106510
0.098583
0.004014
0.088379
0.013789
0.074632
0.014397
0.044547
0.034117
0.038381
0.103758
0.044717
0.038457
0.063247
0.057372
-0.045658
0.040532
0.038145
0.115536
0.088462
0.382218
0.677032
1.021120
1.282105
1.344881
1.472341
1.197416
0.943968
0.482864
0.280073
-0.060367
-0.213913
-0.211871
-0.152559
-0.007350
0.024486
0.011325
0.111502
-0.005160
0.111344
0.102979
0.104865
0.100166
0.087111
0.144936
0.141419
0.147730
0.116701
0.182057
0.183705
0.203741
0.141230
0.158659
0.235434
0.237873
0.254344
0.199642
0.241887
0.330997
0.376806
0.446115
0.377787
0.474173
0.455683
0.436309
0.478919
0.421131
0.511356
0.417195
0.539196
0.509606
0.570269
0.543779
0.558111
0.522643
0.623568
0.540249
0.580148
0.540296
0.632601
0.665143
0.559239
0.560065
0.568797
0.512871
0.536705
0.522458
0.475774
0.492269
0.448140
0.446583
0.423533
0.423415
0.371986
0.432932
0.394123
0.303940
0.268290
0.221532
0.270778
0.183727
0.245160
0.148904
0.205762
0.199891
0.124355
0.127730
0.124272
0.142584
0.094377
0.118410
0.138090
0.107313
0.167871
0.082787
0.054354
0.009657
0.127219
0.123498
0.085222
0.042983
0.165819
0.139396
0.084202
0.110219
0.112417
0.122689
0.082944
0.142562
0.170846
-0.004375
0.076375
0.085256
0.134883
0.080104
0.093485
0.113963
0.062925
0.121642
0.041972
0.097801
0.047259
-0.018549
0.126828
0.032880
0.115479
0.122624
0.063468
0.112081
0.135883
0.149245
0.023171
0.045918
0.020724
0.030177
0.100396
0.094151
0.195818
0.068785
0.101573
0.066602
0.032951
0.008095
0.092468
0.112552
0.096477
0.094133
0.050227
0.082808
0.098287
0.120976
0.031545
0.179797
0.129980
0.192471
0.120954
0.118104
0.244875
0.195730
0.160670
0.230802
0.122793
0.215555
0.172538
0.290936
0.245523
0.314006
0.218534
0.150586
0.192425
0.250971
0.218751
0.202090
0.244871
0.258891
0.210441
0.208627
0.197422
0.153133
0.144852
0.182549
0.187860
0.178426
0.047768
0.155329
0.074719
0.140653
0.086133
0.180820
0.113586
0.068665
0.100215
0.089320
0.100970
0.093668
0.108690
0.085800
0.091420
-0.043606
0.106800
0.080181
0.101019
-0.011369
0.024414
0.137758
-0.024380
0.055104
0.143900
0.334675
0.519163
0.836568
1.123492
1.473353
1.463561
1.341594
1.085772
0.736259
0.244195
0.027874
-0.095051
-0.272321
-0.170204
-0.051277
0.066014
0.043008
0.115779
0.117115
0.079622
0.044034
0.145981
0.141899
0.119914
0.095464
0.132646
0.122813
0.092621
0.142649
0.136416
0.207833
0.175818
0.192599
0.267026
0.177638
0.233171
0.292947
0.281384
0.318493
0.282692
0.325275
0.293669
0.353169
0.374737
0.353881
0.379976
0.462751
0.447562
0.582988
0.488565
0.557579
0.525468
0.534785
0.485098
0.486069
0.464148
0.517583
0.572465
0.454552
0.585763
0.451924
0.578295
0.557841
0.447139
0.556962
0.498918
0.510608
0.480231
0.444817
0.416300
0.452991
0.324092
0.313569
0.289567
0.256002
0.245719
0.338622
0.280380
0.104183
0.190450
0.142036
0.108052
0.226456
0.106015
0.117668
0.027890
0.138050
0.136174
0.134487
0.038189
0.030922
0.054915
0.016204
0.039440
0.016463
0.087097
0.032842
-0.016921
-0.005428
0.063875
0.030637
-0.032916
0.034039
0.022318
0.028239
0.004358
0.039015
-0.041069
-0.015001
-0.002838
0.001739
0.020630
-0.034474
0.041616
0.165888
0.043668
0.035383
0.025990
0.000143
0.067873
0.020671
-0.041477
0.005115
0.024636
0.019028
-0.002506
-0.051646
0.011854
-0.032279
0.027460
0.076274
-0.001008
0.055707
-0.080048
0.042742
0.039340
0.007342
-0.021608
0.078055
0.061788
0.050943
-0.087293
-0.067805
0.044849
0.008499
-0.017906
0.033196
-0.051318
-0.019926
0.000593
-0.036867
-0.007983
0.059728
0.000659
0.061925
0.080976
0.038015
0.133413
0.079481
0.101459
0.067316
0.103848
0.089596
0.146851
-0.059825
0.071806
0.108796
0.168606
0.127221
0.156181
0.066140
0.131418
0.146970
0.123637
0.161324
0.177924
0.173233
0.268330
0.154139
0.104539
0.073364
0.085883
0.058104
0.058095
0.073939
0.030700
0.040819
0.070630
0.012768
0.037396
0.022747
-0.008625
-0.093915
0.010801
-0.066519
-0.059714
-0.060077
0.029261
-0.009270
-0.001082
-0.048497
-0.078452
-0.088419
-0.032325
-0.063096
-0.054790
-0.061499
0.018499
0.153551
0.378917
0.701813
0.970498
1.272683
1.378485
1.284420
1.040349
0.762347
0.353571
-0.005007
-0.244392
-0.300134
-0.283292
-0.200991
-0.156383
-0.106143
-0.023762
-0.080459
-0.002849
0.037677
-0.031603
-0.043480
0.034014
0.065565
0.036512
0.058627
0.058731
0.071385
0.006141
0.021064
0.038605
0.117383
0.140701
0.050565
0.125334
0.104521
0.095094
0.216393
0.218325
0.223451
0.250844
0.250430
0.314006
0.274466
0.381614
0.302313
0.355810
0.435668
0.384543
0.409827
0.452191
0.440423
0.454325
0.474464
0.412361
0.491104
0.490885
0.458698
0.464043
0.420388
0.432651
0.497301
0.414442
0.388927
0.401387
0.431355
0.356425
0.318674
0.356966
0.273622
0.256563
0.243156
0.279907
0.220101
0.165779
0.224783
0.142728
0.152434
0.087315
0.142111
0.073120
0.118093
0.039304
0.094640
0.123620
0.159074
0.050298
0.018011
0.000382
-0.003904
0.067598
-0.038927
0.028380
0.005649
0.008213
0.008635
-0.005404
-0.033885
-0.046404
-0.033285
-0.010101
0.016787
-0.074474
-0.082899
-0.050768
-0.093509
-0.008300
-0.068709
-0.058543
-0.037066
-0.095574
-0.106703
-0.059901
-0.035544
-0.027493
-0.111229
-0.043067
-0.082212
0.013200
-0.016185
-0.023040
-0.013442
-0.060218
-0.103375
-0.051873
-0.051292
-0.124082
-0.104173
-0.062265
-0.065187
-0.008874
-0.050832
-0.115411
-0.093996
0.027345
0.015683
-0.090570
-0.070041
-0.049683
-0.028372
0.008041
0.000982
0.077876
-0.021685
-0.058567
-0.093940
0.011231
-0.050198
-0.104130
0.017708
0.055623
-0.054408
-0.006410
0.038162
0.005052
0.039387
0.055435
0.024771
0.104958
0.036614
0.094070
0.054729
0.051509
0.183651
0.091605
0.169116
0.124880
0.095431
0.178192
0.155039
0.177154
0.147407
0.175581
0.136957
0.133100
0.199682
0.169453
0.103697
0.122851
0.107870
0.059957
0.018337
0.080292
0.071073
0.124611
0.034708
0.001125
0.030923
0.059211
0.009686
0.031430
0.025717
0.018987
0.013482
-0.029231
-0.127550
-0.051261
-0.032988
-0.032631
-0.005657
-0.027588
0.079695
0.028245
-0.044059
0.018090
-0.026223
0.036158
0.111552
0.403311
0.643036
0.932279
1.287846
1.371338
1.407343
1.197352
0.865701
0.517976
0.060260
-0.115287
-0.229281
-0.220719
-0.116462
-0.180163
-0.115803
-0.029675
0.019850
-0.038904
0.075230
0.034266
-0.019766
0.067135
0.057706
0.090574
0.113286
0.103224
0.113647
0.031665
0.150511
0.143234
0.163714
0.101186
0.169283
0.205662
0.212022
0.205482
0.219109
0.197383
0.319692
0.317724
0.312094
0.311869
0.390730
0.428813
0.317522
0.443102
0.476226
0.405048
0.573960
0.474235
0.501498
0.544574
0.569811
0.570234
0.623718
0.546606
0.498363
0.525158
0.559440
0.562771
0.529667
0.514681
0.479790
0.472061
0.511518
0.522767
0.406183
0.405025
0.412261
0.337780
0.442526
0.387308
0.367932
0.321059
0.311189
0.198001
0.319188
0.260837
0.194979
0.226609
0.169444
0.204829
0.156647
0.163800
0.124595
0.078624
0.127324
0.085639
0.102339
0.112712
0.053212
0.017633
0.095081
0.137005
0.099769
0.087426
0.102077
0.119918
0.055848
0.086864
0.108236
-0.022149
-0.001030
0.034923
-0.002928
0.011635
0.036775
0.096309
-0.037600
0.066530
0.031039
0.057951
0.093499
0.056524
0.038480
0.091576
0.111099
0.019305
0.091366
0.041387
0.113528
0.021651
0.102887
0.098748
0.076974
0.041582
0.107750
0.136180
0.115140
0.094301
-0.023136
0.186982
0.034476
0.146113
0.008814
0.109346
0.026529
0.111688
0.087188
0.090905
0.066941
0.074673
0.035036
0.085151
0.081167
0.038697
0.072179
0.096336
0.140357
0.102218
0.075679
0.113274
0.168795
0.119102
0.036679
0.135651
0.141345
0.146456
0.260676
0.239891
0.228168
0.240110
0.216962
0.240979
0.265854
0.340761
0.241840
0.298554
0.243889
0.396817
0.170056
0.218171
0.335589
0.305681
0.251466
0.330044
0.225223
0.236102
0.229880
0.120709
0.194130
0.173757
0.273738
0.153124
0.184530
0.194984
0.129038
0.151360
0.136735
0.147951
0.145416
0.124482
0.131290
0.052266
0.148289
0.165365
0.147621
0.191331
0.141598
0.147740
0.132745
0.077296
0.055439
0.086693
0.128647
0.072006
0.088881
0.362113
0.632265
0.914372
1.137152
1.467834
1.471432
1.434917
1.107679
0.717059
0.429069
0.119289
-0.098433
-0.242847
-0.105530
-0.038909
-0.029497
0.119596
0.113392
0.172585
0.188745
0.114668
0.091893
0.143181
0.097750
0.066981
0.116925
0.173496
0.146258
0.169013
0.256956
0.268175
0.272750
0.160369
0.210169
0.316534
0.227336
0.305856
0.249989
0.349376
0.362790
0.419578
0.421944
0.460333
0.455001
0.441099
0.640408
0.527337
0.513131
0.531457
0.489056
0.541890
0.564764
0.650405
0.630310
0.534164
0.511865
0.556650
0.563959
0.669031
0.580261
0.561334
0.647099
0.539598
0.581947
0.591743
0.630934
0.544583
0.481867
0.519970
0.533132
0.507749
0.425713
0.447543
0.402258
0.374712
0.341644
0.306138
0.217524
0.301831
0.231618
0.204710
0.096247
0.159725
0.244072
0.110167
0.118271
0.097570
0.174715
0.209773
0.142568
0.067958
0.133342
0.129203
0.184125
0.088746
0.029953
0.071938
0.041842
0.130661
0.056551
0.030841
0.015691
0.017853
0.105759
0.041665
0.058478
0.073005
0.111561
0.140764
0.052150
0.031668
0.084517
0.032641
0.104630
0.145633
0.100078
0.040714
0.084933
0.056915
0.078132
0.093319
0.121067
-0.038334
0.074208
0.124553
0.059688
0.045360
0.102828
0.132932
0.116207
0.109622
0.205816
0.021768
0.002289
0.030632
0.015147
0.079442
0.081187
0.056565
0.056204
0.064424
0.068813
0.072210
0.103294
0.068206
0.090237
0.082264
0.038194
0.033937
0.165628
0.073892
0.074680
0.103700
0.032582
0.100833
0.092770
0.178267
0.148031
0.131353
0.158527
0.177012
0.098754
0.133869
0.141247
0.100046
0.235035
0.160081
0.101066
0.199352
0.162884
0.179697
0.269422
0.195224
0.313768
0.223761
0.175836
0.195646
0.186499
0.161997
0.189796
0.117969
0.117851
0.156311
0.160819
0.136254
0.112705
0.004418
0.077328
0.080119
0.092273
0.056793
0.126132
0.108549
0.060123
0.127885
0.063602
-0.011872
0.020786
0.084806
-0.032539
0.057596
0.020928
0.019425
0.012534
-0.039471
0.022243
0.031099
0.069465
0.194666
0.406169
0.710643
1.104766
1.345358
1.392938
1.350659
1.112439
0.683146
0.403718
-0.017511
-0.208106
-0.116041
-0.333645
-0.156403
-0.137223
-0.092438
-0.002852
0.028624
0.035498
-0.031770
-0.020749
0.108182
0.018090
0.006625
-0.029782
0.041978
0.102120
0.017264
0.135630
0.090456
0.104710
0.137550
0.154508
0.133133
0.135704
0.180015
0.229607
0.153106
0.252129
0.261183
0.237001
0.294392
0.369819
0.349666
0.351989
0.361573
0.363455
0.420906
0.480840
0.506291
0.450332
0.538023
0.379541
0.502431
0.493840
0.480499
0.457726
0.556539
0.367273
0.506891
0.522377
0.432635
0.442626
0.495523
0.400479
0.386554
0.391210
0.305188
0.415200
0.351395
0.303098
0.263167
0.269190
0.246091
0.215325
0.207008
0.183731
0.215719
0.198137
0.070201
0.129926
0.081878
0.035012
-0.028953
-0.008405
0.031535
0.007571
0.036106
-0.028347
-0.019372
-0.054236
0.037484
-0.064337
-0.063017
-0.092013
-0.001610
-0.090827
-0.012517
-0.052586
-0.046089
-0.121384
-0.087127
-0.081241
-0.075299
-0.014338
-0.076562
-0.088690
-0.052636
-0.022484
-0.099980
-0.034026
-0.055370
-0.007819
0.017570
-0.003895
-0.027869
-0.066553
0.036259
-0.175101
-0.116866
-0.107248
-0.095355
0.029844
-0.093267
-0.014584
-0.005972
-0.058190
-0.052917
-0.078003
-0.085566
-0.045845
-0.025180
-0.045585
-0.097662
-0.026588
-0.077331
-0.046903
0.011837
-0.083922
-0.047057
-0.061071
-0.049366
-0.055748
-0.095149
-0.041772
-0.104290
0.006721
-0.151461
-0.088173
-0.069133
-0.043306
0.007165
0.046702
-0.013345
0.037683
-0.018331
0.006527
-0.076358
-0.034240
0.040370
0.048301
0.060245
0.120791
0.024075
0.063111
0.034092
0.072644
0.076820
0.039000
0.051356
0.111307
0.108624
0.077766
0.144400
0.168592
0.055406
0.067947
0.086340
0.109617
0.047802
0.013549
0.105804
0.046064
-0.055065
-0.054686
0.005747
0.047199
-0.059901
0.007745
-0.130106
-0.009659
-0.105745
-0.113935
-0.108365
-0.031142
-0.090172
-0.057284
0.013394
-0.090592
-0.050833
-0.171149
-0.038319
-0.129495
-0.082999
-0.077036
-0.091526
-0.049580
0.028403
0.188141
0.507165
0.888811
1.141285
1.361686
1.339556
1.116953
0.730047
0.380429
0.080623
-0.108591
-0.298384
-0.337274
-0.317133
-0.113887
-0.181480
-0.114140
-0.041045
-0.063947
-0.077512
-0.019296
-0.113586
-0.005501
-0.039284
-0.005078
-0.086440
0.001597
-0.042608
0.052036
0.031415
-0.044435
0.060419
0.140930
0.072227
0.133709
0.048226
0.146054
0.077515
0.140151
0.146981
0.157177
0.246931
0.229769
0.215556
0.353946
0.375936
0.478902
0.327414
0.329037
0.399288
0.382819
0.412835
0.416755
0.385742
0.481333
0.419290
0.520280
0.392223
0.416958
0.414256
0.466208
0.358281
0.468215
0.308920
0.371807
0.379123
0.344105
0.339860
0.314291
0.284702
0.195999
0.265854
0.211619
0.205585
0.165212
0.164857
0.102559
0.148594
0.064208
0.061391
0.078801
0.141253
0.095927
-0.050396
-0.000672
0.052055
-0.012898
-0.047082
0.022772
-0.048874
0.019697
-0.014626
-0.083934
-0.086102
-0.055310
-0.068316
0.011830
-0.069913
-0.054111
-0.075753
-0.033991
-0.009076
-0.079966
-0.097012
0.069154
-0.054480
-0.060219
-0.130251
-0.055551
-0.045089
-0.090519
-0.022447
-0.109616
-0.062798
-0.078259
-0.023603
-0.155450
0.083935
-0.035624
-0.060817
-0.027867
-0.049752
-0.046818
-0.027065
-0.058123
-0.067942
0.005550
-0.076406
-0.089841
0.008009
-0.065102
-0.055138
0.008617
-0.023901
0.030309
-0.071360
-0.065481
-0.100627
-0.048600
-0.051133
-0.060673
0.022281
-0.012874
-0.040970
-0.161027
-0.046662
-0.006702
-0.085585
0.019493
-0.001707
0.004645
0.049760
0.052252
0.024049
0.033891
-0.040408
0.024217
-0.026808
0.081988
0.016222
0.112891
0.007988
0.129985
0.039165
0.181851
0.114341
0.095312
0.192311
0.138986
0.120054
0.150376
0.184741
0.167564
0.133245
0.080379
0.137521
0.111796
0.160821
0.120823
0.108671
0.064023
0.151865
0.028394
0.024125
0.008240
0.089722
0.091446
0.020359
0.049443
-0.043415
0.084830
0.101937
0.002703
0.008495
0.101908
0.020614
0.032698
-0.020382
-0.058102
-0.030690
-0.057204
-0.007135
-0.031623
-0.083133
-0.041187
-0.136627
-0.075736
0.032374
0.266881
0.497140
0.870156
1.139098
1.358999
1.368799
1.173612
0.917682
0.590437
0.204330
-0.041631
-0.233952
-0.305847
-0.180592
-0.152797
-0.059039
-0.036969
0.030873
0.068576
-0.027808
0.011004
0.026549
0.072552
-0.070817
0.101913
0.118812
0.085880
0.045781
0.076937
0.219473
0.119302
0.119482
0.197491
0.216003
0.229641
0.240101
0.263360
0.240935
0.244863
0.308596
0.293827
0.318547
0.344794
0.382390
0.367754
0.453224
0.468728
0.565142
0.537468
0.422328
0.494031
0.453423
0.478011
0.526542
0.535811
0.546231
0.652928
0.451032
0.593698
0.564106
0.517794
0.506288
0.572804
0.491260
0.499551
0.465550
0.445284
0.488766
0.434971
0.345802
0.367313
0.364293
0.387739
0.361216
0.367082
0.187545
0.236020
0.219121
0.258482
0.234377
0.184185
0.161969
0.193128
0.160900
0.179516
0.150412
0.070922
0.072032
0.045922
0.146727
0.142044
0.112793
0.017272
0.123567
0.093110
0.060091
-0.029709
0.076854
-0.000694
0.056404
0.024952
0.048308
0.033942
0.118489
0.005984
0.024856
-0.089541
0.037124
0.034535
-0.007027
0.011946
0.102568
0.004841
0.058013
-0.122261
0.033670
0.006814
0.084234
0.056725
0.046982
0.044097
0.014385
0.072405
0.047747
0.044961
0.058492
0.026896
0.065479
0.069306
0.074628
0.033576
0.053088
0.037008
0.090512
0.090744
-0.033146
0.088960
0.100272
-0.047807
0.039724
0.041375
0.126612
0.058782
0.008228
0.077635
0.052870
0.054282
0.134402
0.121788
0.035810
0.045616
0.104232
0.058937
0.067196
0.126877
0.100186
0.155795
0.173597
0.190667
0.146594
0.228699
0.081124
0.147030
0.187320
0.193538
0.189556
0.201905
0.133227
0.282848
0.215258
0.198079
0.143160
0.286532
0.219540
0.194523
0.175539
0.206917
0.164468
0.087911
0.103410
0.195231
0.155554
0.141607
0.205666
0.110119
0.087810
0.144173
0.073536
0.134427
0.146697
0.087862
0.014992
0.089970
0.014077
0.041552
-0.016083
0.062741
0.066853
0.047637
0.059747
0.044666
0.012679
0.139829
0.118147
0.045216
0.008321
0.005615
0.092042
0.170040
0.486395
0.738290
1.030338
1.294331
1.457231
1.350024
1.101738
0.830925
0.362102
0.147770
-0.129023
-0.167279
-0.159618
-0.120869
-0.047335
0.032062
0.047735
0.052595
0.050191
0.085072
0.122057
0.104601
0.015194
0.097664
0.002811
0.099630
0.110382
0.109053
0.085744
0.164505
0.218020
0.180003
0.128651
0.225659
0.275477
0.189279
0.203875
0.367308
0.205874
0.325824
0.302054
0.236147
0.450184
0.323806
0.345185
0.538375
0.431574
0.407275
0.480703
0.515606
0.495473
0.604008
0.514124
0.505248
0.475256
0.556616
0.544960
0.524520
0.494603
0.556581
0.612188
0.473966
0.488081
0.525379
0.472177
0.514438
0.392319
0.479443
0.371803
0.483522
0.385829
0.309312
0.341698
0.262119
0.380144
0.180347
0.239336
0.295685
0.219430
0.167045
0.258454
0.126246
0.138584
0.163784
0.072350
0.101071
0.014653
0.101627
0.043693
0.041873
0.042324
-0.047910
0.012558
0.077279
-0.003613
-0.069105
0.003411
-0.005690
0.003082
-0.005536
-0.019017
0.009940
-0.018635
0.001173
0.006608
-0.118281
0.044210
0.018471
-0.021781
-0.047420
-0.004663
0.038654
0.039648
0.009263
0.044401
-0.068435
-0.045157
-0.010410
-0.032689
-0.045975
-0.030605
-0.036022
0.028709
0.010579
-0.066265
-0.014098
-0.045243
0.009916
0.087777
-0.065148
0.000283
0.013020
-0.039525
0.011027
-0.072370
-0.031750
-0.001375
-0.012126
0.019684
-0.059408
0.040039
-0.062418
0.018049
-0.076653
-0.031414
-0.039672
0.022928
-0.045365
0.031708
-0.019521
-0.025582
0.026858
-0.086254
-0.038949
-0.070933
-0.011270
-0.002507
0.058519
0.101701
0.021369
0.047964
0.026838
0.093513
0.151328
0.158376
0.101693
0.082350
0.151319
0.171302
0.173699
0.174983
0.100172
0.167054
0.121510
0.100702
0.117915
0.122481
0.150594
0.100190
0.163834
0.047795
0.139720
0.059803
0.020397
0.013002
-0.054340
-0.001685
-0.028502
0.032202
-0.040985
-0.075559
-0.108864
-0.039913
-0.108671
-0.013714
-0.050152
-0.091257
0.009764
0.055478
-0.101375
-0.111079
-0.085161
-0.091682
-0.086732
-0.123084
-0.029264
-0.074901
0.008915
0.239420
0.522310
0.833757
1.229567
1.374416
1.393221
1.197209
0.800240
0.408964
0.102639
-0.095363
-0.330128
-0.283962
-0.294785
-0.247987
-0.081088
-0.115407
-0.095782
-0.033892
-0.077114
-0.052906
-0.035359
-0.008837
-0.065776
-0.050395
-0.014180
-0.036017
-0.035810
-0.034177
0.072058
0.064010
0.026792
0.097580
-0.005163
0.078787
0.139142
0.142958
0.225459
0.234685
0.108165
0.213932
0.317398
0.241023
0.257959
0.293506
0.313004
0.317063
0.367724
0.432181
0.387145
0.397746
0.399514
0.431118
0.432987
0.443323
0.460324
0.404278
0.456338
0.379355
0.377519
0.487062
0.411183
0.305649
0.375286
0.409823
0.414028
0.308383
0.283933
0.263084
0.269245
0.264496
0.245646
0.200522
0.138037
0.125175
0.140712
0.033683
0.147241
0.131005
0.066675
0.003844
0.046307
-0.010305
0.088364
-0.039253
-0.071655
-0.013266
-0.042800
-0.074294
-0.018087
-0.068976
-0.094237
-0.029405
-0.082347
-0.047321
-0.046968
-0.070006
-0.044947
-0.065926
-0.176400
-0.103254
-0.119362
-0.035762
-0.140227
-0.104609
-0.172244
0.002502
-0.129617
-0.119431
-0.112078
-0.000822
-0.085541
-0.040024
-0.065686
-0.072170
-0.175290
-0.140708
-0.128916
-0.062741
-0.156075
-0.057652
-0.150848
-0.064554
-0.035029
-0.077135
-0.131391
-0.190476
-0.160774
-0.109494
-0.148641
-0.083251
-0.065896
-0.104795
-0.121800
-0.090503
-0.098433
-0.066822
-0.014556
-0.083922
-0.210127
-0.132463
-0.085332
-0.111857
-0.045527
-0.071632
-0.116612
-0.073316
-0.061663
-0.088190
-0.159677
-0.104467
-0.123275
-0.043424
0.009443
-0.016599
-0.125106
0.020530
-0.044311
-0.032407
0.018416
0.047585
0.021390
0.042229
-0.032725
0.101003
0.038141
0.123870
0.132171
0.098998
0.048387
0.237048
0.071639
0.108300
0.074552
0.122462
0.147629
0.083331
0.019201
0.069088
0.016327
-0.017307
0.058629
0.081806
-0.038109
0.057502
-0.094637
-0.022242
-0.089363
-0.141425
0.010932
-0.078451
-0.079883
-0.122611
-0.040987
-0.123551
-0.074108
-0.042711
-0.067118
-0.117959
-0.119562
-0.054759
-0.074682
-0.123823
-0.004685
-0.148737
-0.118429
-0.180068
-0.035771
0.148394
0.389865
0.726274
1.030917
1.306657
1.362960
1.237508
0.907973
0.553533
0.191825
-0.196979
-0.231168
-0.342941
-0.400228
-0.252394
-0.188400
-0.061785
-0.127489
-0.115549
-0.034646
-0.094039
-0.044703
-0.011980
0.050359
-0.064957
-0.015579
-0.073047
-0.040920
0.024393
-0.011626
0.052789
0.117549
0.077229
0.084637
0.092572
0.091853
0.132741
0.147161
0.107328
0.207381
0.186900
0.122252
0.171657
0.262040
0.259493
0.359810
0.406405
0.335092
0.377699
0.435015
0.413595
0.424019
0.470062
0.449874
0.410390
0.547573
0.474973
0.524268
0.523001
0.534401
0.493971
0.400785
0.382934
0.381733
0.298139
0.436722
0.423986
0.370699
0.268210
0.345802
0.331718
0.258476
0.272335
0.206810
0.188423
0.282498
0.231267
0.139674
0.150598
0.147363
0.102162
0.210919
0.098472
0.103023
0.076517
0.074005
0.049549
0.068925
0.137505
-0.001748
-0.005430
0.044190
-0.025507
0.067510
-0.041802
0.024847
-0.044115
-0.005903
0.014040
-0.081966
-0.111483
-0.012186
0.011316
0.005410
-0.053793
-0.000668
0.014258
-0.028867
-0.006105
-0.000151
-0.077007
-0.045065
-0.008117
-0.043521
-0.059926
-0.015711
0.000200
-0.051701
0.044123
-0.010491
-0.034351
-0.020906
-0.024901
0.073974
0.001013
0.012750
0.028209
0.098404
0.063322
0.035380
0.005968
-0.079682
0.048820
0.021785
0.023915
-0.115971
0.011375
-0.039970
0.030746
-0.000178
-0.003908
-0.025183
0.017418
0.046590
0.084239
-0.018620
0.087755
-0.050546
-0.007874
0.050751
0.056064
0.047223
0.020602
0.043218
0.039712
0.069381
0.117932
0.162479
0.108189
0.138911
0.187343
0.161282
0.141376
0.167738
0.226535
0.212713
0.269892
0.188347
0.233214
0.187898
0.155139
0.173672
0.221829
0.237991
0.235205
0.239155
0.182938
0.223625
0.186092
0.213859
0.189701
0.089100
0.137118
0.142814
0.084990
0.100385
0.100946
0.124240
0.037211
0.107919
0.181884
0.045232
0.038176
-0.010714
0.089109
0.034005
0.077105
0.026163
0.062409
0.068133
0.079889
0.003560
0.029155
0.001095
0.054641
0.122259
0.077834
0.168675
0.149796
0.446539
0.825472
1.146435
1.395182
1.500000
1.363241
1.104108
0.780298
0.404311
0.125188
-0.116301
-0.207872
-0.247993
-0.089707
-0.140417
0.071964
0.051937
0.002149
0.098264
0.075546
0.086164
0.095638
0.163376
0.064702
0.108758
0.048338
0.177383
0.094798
0.199309
0.161404
0.175297
0.143496
0.109231
0.218228
0.151612
0.217366
0.236128
0.365885
0.359920
0.319135
0.353672
0.313956
0.416948
0.404341
0.502175
0.479743
0.483990
0.487231
0.463561
0.492581
0.614547
0.542076
0.640209
0.541922
0.518000
0.585380
0.524626
0.612821
0.587565
0.617492
0.537460
0.534272
0.523316
0.519206
0.567150
0.475504
0.472970
0.471711
0.371667
0.532481
0.467361
0.405838
0.332861
0.350655
0.355818
0.321033
0.288658
0.205895
0.234601
0.179985
0.232299
0.216248
0.239900
0.161673
0.233841
0.240130
0.174272
0.113821
0.129277
0.143524
0.050832
0.129403
0.071952
0.090751
0.105544
0.038734
0.119362
0.021039
0.088961
0.145694
0.051521
0.119610
0.077033
0.034044
-0.014451
0.049391
0.089755
0.078873
0.160131
0.114366
0.003882
0.005304
0.070780
0.000430
0.078546
0.029924
0.115970
0.087598
0.153963
0.057766
0.009345
-0.001075
0.071406
0.059551
0.110323
0.034753
0.090873
0.048146
0.154479
