-0.021051
-0.003228
-0.073856
-0.006480
-0.001561
0.017932
-0.085152
0.012034
0.041874
0.029455
0.075519
0.086610
0.050218
-0.023238
0.039291
0.032800
0.017149
0.041962
0.042425
0.013392
0.044835
0.121370
0.095530
0.062099
0.041026
0.087523
0.126617
0.132284
0.078880
0.089654
0.133849
0.168020
0.155341
0.085415
0.135771
0.214561
0.215613
0.156162
0.153723
0.199686
0.287394
0.228786
0.215493
0.237186
0.119713
0.197664
0.122463
0.121127
0.075338
0.205173
0.067470
0.125595
0.143833
0.124838
0.136493
0.026467
0.089727
0.099000
0.073694
0.055248
0.059285
0.036248
0.111649
0.037463
0.018332
0.104063
0.033845
0.128994
0.047363
0.036121
0.005071
0.070344
0.119816
0.240197
0.462262
0.725739
1.014839
1.289507
1.500000
1.311621
1.115101
0.683784
0.333205
0.013587
-0.183617
-0.155401
-0.173077
-0.088771
-0.008783
0.003953
0.082993
0.147858
0.071726
0.101562
0.050767
0.088692
0.152013
0.130060
0.135145
0.135411
0.224873
0.170328
0.293246
0.235538
0.263880
0.256525
0.245752
0.222802
0.317832
0.331541
0.319467
0.423698
0.456511
0.402868
0.426513
0.417170
0.513602
0.508448
0.535430
0.465332
0.586454
0.560710
0.519358
0.537368
0.623560
0.595916
0.624191
0.559539
0.590845
0.568425
0.571010
0.561760
0.595507
0.558052
0.581170
0.441510
0.568531
0.443899
0.470739
0.466154
0.410779
0.378566
0.389888
0.369102
0.287775
0.239531
0.264521
0.284482
0.334429
0.278630
0.288076
0.233836
0.077660
0.128425
0.206117
0.119438
0.214012
0.107279
0.161726
0.190285
0.113094
0.133110
0.064141
0.085771
0.162209
0.073966
0.111288
0.070898
0.079770
0.048424
0.078436
0.096570
0.090171
0.077415
0.050464
0.062587
0.150365
0.091550
0.131271
0.132885
0.102347
0.049368
0.036525
0.072582
0.114452
0.075819
0.115413
0.102302
0.129462
0.046367
0.115262
0.144334
0.157181
0.105410
0.120807
0.079303
0.061320
0.113945
0.119820
0.101881
0.090181
0.096111
0.055180
0.034256
0.193212
0.107313
0.012196
0.005846
0.151351
0.127358
0.087464
0.162048
0.033732
0.162475
0.145470
0.096811
0.147464
0.128241
0.102928
0.203561
0.103420
0.180309
0.116837
0.176431
0.242340
0.183470
0.195155
0.189374
0.189303
0.266971
0.264841
0.279789
0.287394
0.217819
0.167552
0.200557
0.263642
0.278400
0.225873
0.164003
0.257000
0.252610
0.263623
0.240274
0.197745
0.167121
0.137588
0.185265
0.120708
0.074832
0.155091
0.112994
0.238126
0.096150
0.065517
0.072354
0.146518
0.096525
0.112680
0.042049
0.121065
0.122504
0.076704
0.017499
0.078267
0.068662
0.025858
0.156440
0.223389
0.549060
0.859991
1.157534
1.328730
1.413713
1.330089
0.987074
0.661156
0.274812
0.057744
-0.160817
-0.174165
-0.163284
-0.020677
0.087878
0.062072
0.071311
0.082659
0.104192
0.108488
0.118701
0.117795
0.147885
0.144432
0.117514
0.132535
0.148086
0.158835
0.161122
0.147690
0.237466
0.281394
0.297950
0.398317
0.384116
0.324485
0.303397
0.454488
0.427971
0.342506
0.487129
0.446000
0.435328
0.504509
0.524397
0.528543
0.467877
0.490853
0.604266
0.591076
0.622846
0.528817
0.594726
0.588810
0.515453
0.529666
0.623912
0.601227
0.625975
0.606720
0.473675
0.448915
0.514468
0.399301
0.403262
0.338045
0.380518
0.336566
0.230581
0.345384
0.266326
0.232421
0.229606
0.216549
0.212772
0.165464
0.202522
0.212349
0.170345
0.191878
0.158751
0.159955
0.085263
0.085291
0.107659
0.036258
0.061594
0.121606
0.089452
0.051422
0.011864
-0.006421
0.032880
0.073653
0.031552
-0.006876
0.095194
0.067299
0.018982
0.042531
-0.013408
0.146731
0.080852
-0.028505
0.066302
-0.001130
0.052730
-0.004814
-0.041659
0.031974
-0.011201
0.051493
0.005030
-0.003858
0.075647
0.035131
-0.008603
0.013875
-0.011815
-0.010585
-0.060417
0.027885
0.001262
-0.056427
0.042149
0.087065
-0.049311
-0.026586
0.051491
0.023797
0.057477
0.051667
-0.019623
-0.030415
0.048689
-0.009143
0.043408
0.052308
-0.038993
0.023999
0.037742
-0.007978
0.055213
0.026039
0.142447
0.034997
0.032767
0.053640
0.150580
0.080785
0.069059
0.118220
0.108626
0.122209
0.215407
0.102763
0.165802
0.198523
0.214685
0.229905
0.225013
0.213572
0.228761
0.195005
0.182456
0.222784
0.174843
0.133310
0.126659
0.068137
0.120753
0.049861
0.058954
0.100637
-0.007320
0.077773
0.025458
0.049366
-0.025729
0.074822
0.050222
-0.042559
-0.083723
0.012807
-0.014836
-0.017614
-0.074025
-0.070250
-0.070621
-0.052142
-0.051198
-0.019870
-0.070669
0.107332
0.246440
0.541343
0.830126
1.121050
1.356367
1.356377
1.133882
0.892195
0.581216
0.104610
-0.020454
-0.208774
-0.222853
-0.188869
-0.140510
-0.058508
-0.016996
0.056642
-0.012935
0.022824
0.036714
0.029167
0.059386
0.008176
0.046343
0.136311
0.117108
0.079047
0.100926
0.138309
0.114522
0.104313
0.169414
0.191521
0.199027
0.247967
0.133911
0.229036
0.335699
0.298022
0.360047
0.354022
0.361452
0.378333
0.410718
0.391188
0.437848
0.503511
0.420887
0.444753
0.375784
0.468061
0.459069
0.417922
0.458641
0.409001
0.434994
0.526128
0.438229
0.464809
0.371285
0.447196
0.424949
0.428355
0.375829
0.307508
0.444760
0.292468
0.333984
0.255627
0.217070
0.250752
0.219299
0.196260
0.183582
0.173417
0.136293
0.219746
0.089170
0.135600
0.095065
0.099325
-0.014154
0.025408
-0.004898
-0.008126
-0.044115
0.116998
0.032611
0.036658
0.035284
0.000947
0.013175
-0.061096
-0.050099
-0.003747
-0.078186
-0.008623
-0.050881
0.003390
-0.021336
-0.017951
-0.083451
-0.001640
-0.024077
-0.030779
-0.047285
-0.045203
-0.078988
-0.088190
-0.000328
-0.021118
0.118130
-0.065540
0.050758
-0.108780
-0.030947
-0.078535
-0.071662
-0.115073
-0.014346
0.002237
-0.071742
-0.047722
-0.030554
-0.056520
-0.067869
-0.134398
-0.041343
-0.018894
-0.062772
-0.070324
-0.035115
0.052247
0.028819
-0.057361
0.044191
-0.000605
-0.060573
-0.047715
-0.100106
0.046687
-0.077097
-0.004037
0.006834
0.010250
0.020608
0.011186
0.096475
0.137079
0.051659
0.062615
0.015794
0.055775
0.127784
0.150862
0.069770
0.062081
0.063582
0.126077
0.105291
0.164760
0.174268
0.186467
0.226566
0.135610
0.083614
0.080033
0.185879
0.056243
0.149346
0.091383
0.049088
0.011978
0.121379
-0.031056
0.038305
0.057562
0.007772
0.017692
0.007970
0.037467
-0.010691
0.055133
0.019765
-0.067775
-0.051498
-0.069406
-0.070365
-0.009664
-0.074148
-0.097829
0.018060
-0.105519
0.055210
0.235903
0.563667
0.896072
1.274492
1.277873
1.315307
1.049587
0.747638
0.438199
0.077196
-0.132068
-0.222010
-0.346539
-0.169361
-0.164327
-0.084792
0.044481
0.025383
0.031626
0.027727
-0.018702
0.058944
-0.015317
0.079808
0.049037
0.100149
0.153014
0.145348
0.088436
0.159895
0.129728
0.161779
0.223104
0.238091
0.211078
0.176830
0.245411
0.323611
0.227358
0.319995
0.362738
0.446579
0.339002
0.374558
0.442064
0.399632
0.479604
0.498814
0.545490
0.456540
0.500581
0.535151
0.462400
0.508049
0.447044
0.544521
0.468470
0.475847
0.569621
0.440503
0.504775
0.447011
0.446843
0.514433
0.409223
0.375347
0.367358
0.368088
0.344974
0.256543
0.273684
0.204835
0.234905
0.214829
0.228441
0.252061
0.124166
0.203071
0.172118
-0.012535
0.076426
0.093974
0.104805
-0.009191
0.048903
0.090423
0.051829
0.018233
-0.032378
0.047558
0.048266
0.067373
0.002910
0.075587
0.013429
0.007914
0.021449
0.064936
0.025655
0.064056
0.024967
0.104416
-0.025996
0.039844
0.046129
0.011292
0.088457
0.057128
0.064062
0.004408
0.076787
0.040385
0.010157
0.027379
0.023243
0.028506
-0.054821
0.062276
0.028269
0.123639
0.109132
0.018646
0.013794
0.098793
0.102654
0.072306
0.037890
-0.004163
-0.052146
0.006936
0.093186
0.107166
0.028547
0.075741
0.064782
0.023137
0.037411
0.002432
0.054826
0.125181
0.008697
0.117940
0.142334
0.107012
0.042594
0.075059
0.107336
0.096808
0.171738
0.172066
0.156836
0.119978
0.076816
0.217121
0.180771
0.253003
0.186906
0.298193
0.289210
0.235226
0.217164
0.322320
0.222583
0.166289
0.236568
0.300911
0.119671
0.230532
0.239932
0.098630
0.220061
0.181235
0.113306
0.149349
0.112368
0.147351
0.173249
0.133475
0.186044
0.006599
0.032961
0.075771
0.088066
0.109326
0.066391
0.086811
0.059127
0.112914
0.104374
0.016194
0.045892
0.075652
0.002326
0.056772
0.211712
0.334038
0.728890
1.072575
1.339789
1.429530
1.425123
1.141528
0.792880
0.510316
0.169824
-0.081604
-0.197265
-0.086534
-0.066224
-0.040135
-0.030979
0.143577
0.097464
0.120831
0.043200
0.190249
0.144748
0.185739
0.234649
0.217880
0.150831
0.200646
0.256787
0.219630
0.170986
0.320795
0.230096
0.235458
0.277563
0.255574
0.389927
0.427549
0.343117
0.405794
0.481851
0.482597
0.424202
0.455804
0.553972
0.485223
0.554581
0.652216
0.614583
0.553475
0.585006
0.565920
0.608637
0.580089
0.727687
0.683383
0.642327
0.566429
0.691997
0.583849
0.558364
0.539761
0.532648
0.461790
0.501134
0.518708
0.414564
0.444816
0.406335
0.351696
0.379768
0.414170
0.397966
0.316104
0.348414
0.286689
0.256612
0.293141
0.206235
0.239751
0.234707
0.100108
0.195815
0.135124
0.236229
0.208307
0.123222
0.162470
0.099585
0.092822
0.114677
0.099292
0.111583
0.217621
0.094294
0.126379
0.110815
0.053749
0.049094
0.040708
0.067908
0.130776
0.095084
0.004365
0.128136
0.128620
0.064164
0.099386
0.112015
0.082483
0.082252
0.079637
0.109942
0.066047
0.066727
0.058351
0.064362
0.068560
0.071864
0.097348
0.003314
0.120550
0.016002
0.066725
0.039398
0.060599
0.108372
-0.002735
0.121647
0.126887
0.122743
0.161607
0.119023
0.103727
0.054862
0.031859
0.034886
0.098170
0.137954
0.107005
0.101386
0.072842
0.164121
0.073865
0.124836
0.153627
0.132660
0.140936
0.097178
0.223629
0.248171
0.154386
0.250325
0.244201
0.124436
0.263557
0.207209
0.224791
0.278865
0.344943
0.230605
0.339451
0.249196
0.281325
0.191334
0.295134
0.249548
0.202932
0.211357
0.192714
0.176308
0.212091
0.165335
0.170977
0.168249
0.189660
0.124403
0.100558
0.128626
0.093533
0.135701
0.045303
0.060083
0.093426
0.090931
0.097911
0.052897
0.059814
0.041885
0.047958
0.044553
0.034812
0.021177
0.090130
0.088148
0.262211
0.437023
0.808540
1.161623
1.302039
1.409917
1.333445
1.083876
0.685851
0.372068
0.103803
-0.029526
-0.158727
-0.134162
-0.013956
-0.030492
0.014212
0.034164
0.174772
0.091135
0.030256
-0.006761
0.160900
0.068207
0.163621
0.165610
0.133513
0.070449
0.102924
0.207863
0.247406
0.209604
0.225179
0.246041
0.192824
0.294566
0.299627
0.261120
0.378432
0.317489
0.458222
0.379291
0.430947
0.452155
0.502218
0.453507
0.505174
0.399023
0.455924
0.509902
0.520040
0.573002
0.611269
0.558263
0.473465
0.519516
0.564742
0.533251
0.521051
0.556310
0.479708
0.425995
0.530829
0.500500
0.559908
0.358393
0.377712
0.351172
0.325105
0.399457
0.381421
0.298563
0.281789
0.157342
0.141030
0.188985
0.241234
0.152471
0.108569
0.133121
0.118418
0.150418
0.046866
0.051419
0.078475
0.090217
0.015007
0.007087
0.038597
0.005582
0.079746
0.074469
0.020901
0.008825
0.011831
0.027589
0.065910
0.050543
-0.043825
-0.048313
0.053421
-0.068374
-0.020679
-0.041192
0.017217
-0.012218
0.025892
0.007418
-0.023868
-0.099574
0.002897
-0.056821
-0.061305
0.003038
0.071788
-0.072885
-0.011602
-0.051158
0.067525
-0.016695
-0.018738
-0.022651
-0.033858
0.014283
0.009463
-0.058766
-0.066844
0.017413
-0.028587
-0.057603
0.027959
-0.001336
-0.088329
0.049046
-0.038212
-0.032303
0.009732
-0.023224
0.012287
-0.027349
-0.026790
-0.029136
-0.026234
0.047397
0.017943
-0.025194
0.041495
-0.044864
-0.013119
0.039661
0.065887
0.072619
0.048418
0.103148
0.103770
0.110616
0.110250
0.133974
0.173832
0.228128
0.153384
0.191226
0.107014
0.202300
0.177895
0.152596
0.077751
0.182105
0.115006
0.077663
0.091029
0.043975
0.018843
0.076894
-0.013995
0.034717
0.014362
-0.060780
0.081080
0.034184
-0.034524
-0.029457
-0.039153
-0.047412
-0.027140
-0.001102
-0.070978
-0.064721
-0.024863
-0.082956
-0.040768
-0.126687
-0.127668
-0.030517
0.095165
0.205191
0.375791
0.691257
1.006719
1.233889
1.287272
1.191850
0.793150
0.597793
0.117008
-0.063708
-0.238458
-0.327783
-0.302716
-0.177888
-0.071046
-0.079298
-0.083856
-0.087500
-0.068406
-0.006400
0.015000
-0.078568
-0.003488
0.057033
0.017616
-0.005459
0.070298
-0.009413
0.077207
0.007183
0.067070
0.084579
0.184501
0.119668
0.247903
0.268808
0.227163
0.200540
0.277131
0.272901
0.320614
0.268015
0.348053
0.296938
0.317288
0.374594
0.413419
0.400742
0.441038
0.423360
0.368320
0.493455
0.405338
0.414440
0.449322
0.475204
0.425553
0.362417
0.416552
0.401273
0.451644
0.312723
0.417320
0.272021
0.310998
0.241406
0.320063
0.230063
0.244775
0.146724
0.181408
0.068177
0.133129
0.100290
0.109885
0.066515
0.112935
0.055335
0.060965
0.075797
-0.011879
0.037332
-0.090386
0.030431
-0.057856
-0.120250
0.006941
-0.098139
-0.114032
0.021114
-0.010872
-0.052680
-0.116912
-0.095560
-0.048400
-0.056529
-0.048398
-0.030882
-0.052600
-0.035023
-0.057729
-0.075019
-0.074697
-0.076334
-0.115954
-0.112026
-0.125381
-0.000961
-0.115082
-0.004609
-0.036049
-0.020723
0.002185
-0.071482
-0.030225
-0.055124
-0.154540
-0.104844
-0.077174
-0.104117
-0.098746
-0.106379
-0.094409
-0.160476
-0.074421
-0.052973
-0.050047
-0.080984
-0.091099
-0.024776
-0.046996
-0.078280
-0.050463
-0.056194
-0.085597
-0.022286
-0.146342
-0.016604
-0.106046
-0.028700
0.028587
0.043315
0.000296
-0.052234
-0.011140
-0.020756
-0.015490
0.032181
-0.034006
-0.010009
0.071425
0.061518
0.020954
0.096155
0.098597
0.052200
0.019857
0.093903
0.082119
0.076203
0.123259
0.188038
0.081570
0.091353
0.108007
0.066323
0.049573
0.089850
0.116058
0.053265
0.011375
-0.013773
0.035541
0.052827
0.031217
-0.002260
0.053388
-0.066375
-0.039464
-0.080695
-0.077211
-0.035938
-0.028805
-0.042871
-0.058055
-0.007719
-0.083312
-0.077929
0.020930
-0.135585
-0.041496
-0.123397
-0.071955
-0.020366
0.124675
0.451337
0.810247
1.048504
1.262166
1.272133
1.196110
0.905020
0.467845
0.099836
-0.170529
-0.290222
-0.248380
-0.200724
-0.137529
-0.066462
-0.045534
0.006899
0.010724
-0.027377
-0.013926
-0.014441
-0.026379
0.007540
-0.015262
0.083747
0.016007
-0.008408
0.053378
0.150558
0.050242
0.081922
0.167654
0.110805
0.169931
0.192804
0.290570
0.258750
0.231198
0.300891
0.285409
0.348807
0.371678
0.396823
0.438091
0.431033
0.398857
0.447867
0.432997
0.407036
0.468009
0.462326
0.401313
0.481650
0.472662
0.476190
0.409007
0.503563
0.443393
0.461688
0.368971
0.325258
0.405590
0.304752
0.405240
0.340145
0.360033
0.378110
0.294705
0.279681
0.266543
0.217048
0.176528
0.254327
0.231844
0.142530
0.176353
0.196121
0.104244
0.069272
0.115158
0.056810
0.048778
0.070490
0.026692
0.013407
0.019837
0.054629
-0.055029
0.052382
0.097447
-0.033803
-0.030080
-0.013719
-0.056439
-0.028722
-0.024996
-0.033122
-0.045980
0.003152
0.012746
0.027000
-0.025317
0.048490
0.015785
0.000523
0.037475
-0.062164
-0.029384
0.043843
0.050202
0.042247
-0.057402
-0.021196
-0.023543
-0.027057
-0.003509
-0.031603
-0.045439
0.068725
0.064655
0.003522
-0.036255
0.064135
-0.008336
0.048518
-0.042822
-0.002779
-0.017820
0.008215
-0.007522
0.032935
0.014334
0.064465
0.021550
0.011698
-0.049384
0.052585
0.073030
0.038585
0.064233
-0.007589
0.013301
0.079596
0.123195
0.093434
0.074867
0.065106
0.118430
0.158661
0.187655
0.076751
0.089893
0.165385
0.250577
0.173321
0.190939
0.204437
0.278655
0.127479
0.208408
0.228184
0.109430
0.281863
0.233328
0.171168
0.120135
0.295275
0.073866
0.144925
0.191619
0.147347
0.163522
0.102039
0.140903
0.097741
0.058550
0.084213
0.050967
0.119299
0.045044
0.107973
0.041887
0.157420
0.111745
-0.013875
-0.021145
0.024141
0.057743
0.042773
-0.048076
0.026969
0.037167
0.048479
0.118959
0.304708
0.562296
0.920683
1.212101
1.408764
1.433429
1.238111
0.938584
0.540682
0.103801
-0.061796
-0.210388
-0.154321
-0.126256
-0.097546
-0.022120
0.002549
0.003266
0.119866
0.115929
0.087880
0.081663
0.061038
0.099948
0.145063
0.128137
0.190218
0.188646
0.117788
0.208413
0.218038
0.224968
0.316989
0.221655
0.247501
0.309455
0.240705
0.342387
0.355785
0.355822
0.404585
0.365714
0.477623
0.395078
0.508230
0.456974
0.580720
0.488674
0.605038
0.568952
0.565902
0.568943
0.557950
0.600994
0.544515
0.596356
0.573318
0.592340
0.578028
0.458078
0.460545
0.449923
0.409214
0.477123
0.527798
0.458242
0.465994
0.443861
0.363958
0.384253
0.299435
0.290897
0.297736
0.276324
0.170569
0.225063
0.215561
0.221716
0.153640
0.176922
0.171811
0.095928
0.131089
0.200913
0.052958
0.086608
0.018236
0.125941
0.096926
0.098939
0.120267
0.012147
0.085146
0.100512
0.069219
0.050905
0.072743
0.007503
0.059167
0.080239
0.022962
0.002512
-0.007267
0.056258
0.112842
0.075566
0.056184
0.025030
0.038257
0.039141
0.089976
-0.027023
0.038195
0.089656
0.095838
-0.000711
0.067060
0.044297
0.096045
0.002308
0.123561
0.104451
0.027986
0.052683
0.004621
0.004850
0.001841
0.040128
-0.018026
0.067239
0.097708
0.011184
-0.049768
0.026308
0.060290
0.048029
-0.037942
0.051987
-0.014872
0.033104
0.067932
0.081085
0.047315
0.086840
0.055208
0.136231
0.178117
0.103787
0.035760
0.053469
0.198042
0.055818
0.026033
0.182505
0.146246
0.207736
0.225905
0.234038
0.200728
0.220118
0.144542
0.244384
0.114406
0.189156
0.122998
0.138815
0.123045
0.130424
0.116390
0.167225
0.047897
0.147501
0.120776
0.073551
0.114234
0.084926
-0.026848
0.035825
0.065910
0.047205
-0.068226
0.037598
0.053345
0.031047
-0.055896
-0.013948
0.053674
-0.085574
0.040381
0.042758
0.000392
0.053442
-0.017463
-0.033000
0.166861
0.317825
0.587304
0.937026
1.263533
1.327767
1.323656
1.143911
0.687440
0.413109
0.056074
-0.095159
-0.207385
-0.236380
-0.140808
-0.033269
-0.003596
-0.033732
0.083769
-0.038552
0.054153
0.019803
0.043089
0.075637
0.052028
0.161266
0.023279
0.118590
0.143392
0.060600
0.076369
0.119979
0.211884
0.218293
0.270795
0.232286
0.231065
0.325164
0.210541
0.365279
0.294442
0.306190
0.395316
0.377523
0.413320
0.384638
0.522715
0.446890
0.517532
0.463963
0.482048
0.434622
0.493117
0.467018
0.544944
0.540709
0.479552
0.490854
0.413500
0.466011
0.460271
0.463839
0.413954
0.400140
0.276677
0.379152
0.404960
0.343355
0.325116
0.255487
0.246995
0.272734
0.213642
0.208814
0.184787
0.160779
0.013035
0.121978
0.096134
0.052360
0.085177
0.042234
0.014860
0.030629
-0.020013
0.058760
-0.049230
-0.021033
-0.039440
-0.018977
0.013103
-0.028292
0.019801
-0.051688
-0.048442
-0.060865
-0.046020
-0.090211
0.019207
-0.070168
-0.069607
-0.086853
-0.105003
-0.097566
0.014111
-0.044131
-0.038263
-0.090690
-0.007366
0.004844
-0.134350
0.038675
-0.066912
-0.039881
-0.120530
-0.078320
-0.085724
-0.081707
0.014539
-0.072533
-0.026157
-0.097875
-0.022831
-0.080380
-0.130530
-0.117527
-0.077754
-0.013119
-0.062262
-0.112108
0.005980
-0.076184
0.031881
-0.086194
-0.134208
-0.052529
-0.043076
0.022547
-0.021299
-0.058594
-0.030710
0.051323
-0.071167
-0.022091
-0.009373
0.058339
0.042761
-0.023584
0.020224
-0.070927
-0.031425
0.033050
-0.018089
-0.016659
-0.004749
-0.035397
0.136221
0.099433
0.008062
0.095634
0.099960
0.138040
0.015536
0.076173
0.061857
0.121077
0.007392
0.122937
0.056872
-0.050436
0.046819
0.029408
0.015643
-0.035265
-0.030965
-0.101745
0.103816
-0.051343
-0.058223
-0.065756
-0.054503
-0.001130
-0.059482
-0.024436
-0.082867
-0.045692
-0.081125
-0.116556
-0.048985
-0.083979
-0.066203
-0.147983
-0.180652
-0.111715
-0.009441
0.120966
0.328639
0.590350
0.865351
1.224135
1.245585
1.200137
0.966905
0.545722
0.240662
0.017646
-0.253253
-0.267636
-0.242203
-0.204085
-0.143205
-0.121672
-0.053261
-0.015020
-0.108506
-0.020217
0.008512
-0.013511
-0.067060
0.032444
-0.005489
-0.007050
0.068765
-0.047599
0.017461
0.047357
0.097360
0.071751
0.049720
0.153384
0.174637
0.193949
0.167825
0.288633
0.244752
0.286885
0.301177
0.273736
0.319377
0.340680
0.402525
0.313926
0.391119
0.444479
0.341782
0.437049
0.439921
0.448717
0.390947
0.416499
0.399964
0.441228
0.339666
0.398929
0.361950
0.457889
0.435453
0.412485
0.352096
0.306516
0.206120
0.265454
0.203746
0.249663
0.224399
0.101276
0.146358
0.207376
0.137893
0.107563
0.038207
0.013345
0.085225
0.047981
-0.011026
-0.030510
-0.014788
-0.003752
0.044465
-0.076540
-0.040624
-0.024667
-0.042258
-0.096388
-0.063328
-0.044120
-0.086458
-0.115487
-0.018167
-0.122849
-0.083010
-0.029099
-0.160751
-0.132791
-0.077334
-0.044511
-0.168438
-0.082645
-0.081271
-0.050470
-0.022436
-0.106773
-0.040766
-0.049047
-0.028020
-0.091405
-0.058178
-0.180603
-0.105213
-0.044600
-0.054533
-0.001997
-0.082431
0.004530
-0.141251
-0.092313
-0.133252
-0.073461
-0.046792
-0.074987
-0.099475
-0.078074
-0.002711
-0.118124
-0.131515
-0.034391
-0.053197
-0.145989
-0.045190
-0.129862
-0.075803
-0.008771
-0.069238
-0.013281
-0.064903
-0.033066
-0.029448
-0.073961
-0.063957
-0.057174
0.043916
-0.045537
0.005282
-0.015605
0.011266
-0.023699
0.069418
0.115896
0.030741
0.084002
0.026072
0.070093
0.063428
0.099870
0.083552
0.043676
0.110670
0.050044
0.162956
0.103750
0.084273
0.085800
0.075470
0.080464
0.087856
-0.008484
0.060012
0.002457
-0.002536
0.031921
0.031123
0.029922
-0.012211
-0.050519
-0.014702
-0.025555
-0.024334
-0.000226
-0.075808
-0.073657
-0.086047
0.032731
-0.137087
-0.096169
-0.033928
-0.063450
-0.036743
-0.007746
-0.087868
0.039917
0.139104
0.462508
0.771416
1.055327
1.157047
1.334432
1.218283
0.938360
0.453348
0.242058
-0.016782
-0.202882
-0.282535
-0.241953
-0.096106
-0.130401
-0.084788
0.021342
0.030975
0.032321
0.006391
-0.095230
-0.003828
-0.038974
0.088400
0.095377
0.110007
0.014592
0.038875
-0.013730
0.097195
0.150811
0.162014
0.190300
0.136103
0.165824
0.181576
0.315328
0.236052
0.248903
0.291891
0.297657
0.402382
0.320516
0.386529
0.374344
0.416095
0.451719
0.508833
0.500051
0.471858
0.422137
0.374829
0.444797
0.511143
0.511929
0.531392
0.478188
0.456723
0.516991
0.470206
0.440638
0.347754
0.491305
0.407348
0.402955
0.497652
0.297241
0.338933
0.305129
0.228824
0.247992
0.217897
0.171887
0.243693
0.105656
0.185738
0.166667
0.092397
0.147262
0.178949
0.118604
0.113995
0.064934
0.070658
0.072008
0.126589
-0.066262
0.081577
-0.027074
0.024693
0.100112
0.065133
-0.036715
0.051832
0.099589
-0.043540
-0.032874
-0.033325
0.027195
-0.017790
0.068547
0.025349
-0.026928
0.031824
0.013793
-0.039038
-0.012182
0.078507
0.007200
-0.009963
-0.044753
0.041442
0.046181
0.057697
0.058064
0.100990
-0.031051
0.056362
-0.031715
0.050394
0.076774
0.009846
0.081729
-0.003904
0.058972
0.049267
0.045310
0.096181
0.082930
0.079169
0.022574
0.128218
0.056783
-0.016573
0.055574
0.050757
-0.028044
0.099801
0.078613
0.050292
-0.034440
0.072171
0.029118
0.093870
0.086033
0.049854
0.181025
0.141685
0.163425
0.107166
0.127760
0.170854
0.203619
0.192250
0.060051
0.171257
0.274156
0.234031
0.219150
0.247810
0.274101
0.253803
0.129632
0.274349
0.227926
0.196910
0.242617
0.182787
0.164600
0.185203
0.118054
0.135360
0.047387
0.107708
0.130219
0.136670
0.107314
0.110935
0.125225
0.012645
0.125086
0.091997
0.065258
-0.005424
0.101274
0.081629
0.147245
0.134581
0.046340
0.065170
0.123732
0.014554
0.120143
0.103719
0.301589
0.498117
0.896642
1.184131
1.376800
1.453316
1.310882
0.995640
0.585658
0.220302
0.115370
-0.228119
-0.142453
-0.116923
-0.019666
-0.002680
0.038833
0.138942
0.046370
0.129368
0.074040
0.162105
0.128562
0.077843
0.120860
0.127040
0.164858
0.198731
0.178893
0.248971
0.296748
0.231487
0.279742
0.305787
0.376532
0.278769
0.377429
0.370635
0.329323
0.363334
0.477231
0.378517
0.484206
0.376723
0.427339
0.493439
0.522874
0.580548
0.586593
0.475524
0.598281
0.530183
0.576871
0.502925
0.517505
0.621524
0.551175
0.512514
0.531976
0.554047
0.468708
0.512674
0.529187
0.448984
0.517319
0.510779
0.443768
0.377607
0.428700
0.427224
0.378996
0.298226
0.200624
0.265776
0.298879
0.249261
0.181373
0.222547
0.236277
0.233859
0.173918
0.119299
0.222796
0.132961
0.105283
0.097017
0.094440
0.061179
0.062242
