-0.009630
-0.065306
0.025979
0.078585
-0.041298
-0.103356
-0.009951
-0.025275
-0.003597
-0.062486
0.009058
0.014929
-0.079590
-0.038781
0.083982
-0.019261
0.053330
-0.050936
0.070572
-0.012248
0.045602
-0.044965
0.010558
0.051256
0.089099
0.014963
0.043305
0.018014
0.022856
0.065898
0.082188
0.111619
0.079096
0.109057
0.165669
0.148694
0.183734
0.215712
0.243432
0.168377
0.242398
0.162687
0.113888
0.191163
0.166120
0.169557
0.220539
0.123728
0.211389
0.168222
0.147330
0.146261
0.163179
0.185528
0.194867
0.111328
0.132241
0.086353
0.151550
0.021119
0.126141
0.059698
0.086743
0.008710
0.065060
0.124640
0.055286
0.045256
0.092742
0.032574
0.031138
0.039392
0.073490
0.058430
0.053412
0.009097
0.042486
0.005613
0.008242
0.010674
0.077546
0.265012
0.484215
0.931076
1.120824
1.298004
1.369933
1.293904
1.010728
0.676617
0.271459
0.135202
-0.126931
-0.171777
-0.183520
-0.040402
-0.056703
0.020714
0.047808
-0.008584
0.017876
0.153255
0.065804
0.120896
0.115315
0.090003
0.037354
0.179631
0.094275
0.183560
0.156097
0.140088
0.131328
0.197594
0.150289
0.142633
0.213751
0.150920
0.244703
0.232890
0.246040
0.352961
0.276228
0.355125
0.344380
0.429821
0.491641
0.380874
0.419796
0.428504
0.485984
0.426451
0.503603
0.540447
0.446007
0.545940
0.556204
0.503658
0.505723
0.543377
0.584129
0.611433
0.565973
0.617168
0.560976
0.514270
0.548642
0.489078
0.527526
0.493485
0.423886
0.484659
0.405980
0.388304
0.357626
0.351897
0.342620
0.273345
0.328344
0.314563
0.248551
0.361332
0.183269
0.204280
0.198861
0.167435
0.101998
0.217014
0.163092
0.122204
0.086491
0.084097
0.124471
0.123948
0.100850
0.172533
0.047228
0.106103
0.164267
0.036047
0.071407
0.130338
0.096552
0.014905
0.108206
0.079755
0.041924
0.097430
0.155500
0.070950
0.121709
0.021787
0.101685
0.054457
0.155042
0.186646
0.112266
0.073475
0.075886
0.115745
0.049172
0.027998
0.034296
0.047907
0.115175
0.119053
0.043383
0.097524
0.081150
0.001658
0.114784
0.153484
0.065607
0.139911
0.031010
-0.011824
0.096992
0.068676
0.109222
0.123225
0.049728
0.081072
0.102226
0.116145
0.065873
0.048491
0.101292
0.153440
0.108887
0.098965
-0.005287
0.061010
0.069108
0.159573
0.028276
0.100295
0.143920
0.125565
0.101075
0.082348
0.071986
0.027246
0.148758
0.164663
0.154406
0.199516
0.127868
0.203908
0.114629
0.235310
0.202391
0.272994
0.292166
0.207326
0.282410
0.229559
0.249384
0.209210
0.249027
0.238873
0.291914
0.306892
0.273075
0.293672
0.208080
0.221445
0.263618
0.203490
0.124238
0.197270
0.136154
0.113706
0.117804
0.049151
0.089686
0.113511
0.131874
0.053832
0.135323
0.053701
0.049220
0.103932
0.132660
0.051776
0.097043
0.058166
0.037651
0.046876
0.211701
0.073430
0.033632
0.158919
0.004596
0.032546
0.128004
0.163769
0.455401
0.702579
1.085314
1.294369
1.445372
1.289510
1.079716
0.739366
0.352814
0.092485
-0.096669
-0.202518
-0.109241
-0.124345
0.007646
0.021914
0.058139
0.122415
0.121788
0.121231
0.098240
0.143458
0.098241
0.069370
0.043548
0.093811
0.125756
0.106954
0.183605
0.084322
0.151376
0.136772
0.236647
0.247342
0.131688
0.223317
0.220274
0.193153
0.308297
0.223381
0.352812
0.315872
0.354057
0.393821
0.378934
0.378020
0.325044
0.455219
0.512820
0.495389
0.347585
0.516040
0.531582
0.513349
0.496886
0.545840
0.538015
0.613687
0.556286
0.499563
0.515000
0.507164
0.461883
0.472623
0.489880
0.528226
0.490061
0.453573
0.394770
0.326956
0.435483
0.389934
0.324710
0.391873
0.363841
0.257121
0.246643
0.281639
0.306481
0.328180
0.172052
0.175704
0.172554
0.193264
0.209343
0.074185
0.153202
0.039520
0.056239
0.111557
0.075143
0.053979
0.087116
0.029972
0.041107
0.001537
0.018625
0.099023
-0.042738
0.050620
0.062606
0.029358
0.029735
0.057138
0.015782
-0.035471
-0.038319
0.065620
0.076883
-0.001974
0.070214
-0.013456
0.002188
0.022100
0.004883
0.075315
0.027532
-0.019969
0.000632
-0.047644
-0.035420
0.001446
0.059592
-0.072587
-0.039402
0.007771
-0.048408
0.046773
0.053317
0.015054
0.042805
-0.044620
-0.007900
-0.052523
0.079195
-0.020371
0.047188
0.058949
0.064593
-0.019993
-0.034378
0.023580
0.006791
-0.013115
-0.026671
-0.084388
0.007511
-0.017439
-0.063357
0.007167
0.042305
0.015261
0.008370
0.001593
0.085616
-0.037497
0.041922
0.029307
0.057764
0.006980
0.029327
-0.021459
-0.010299
0.083418
0.036004
0.009658
0.104105
0.090143
0.055194
0.111166
0.194201
0.136535
0.044446
0.112374
0.068132
0.234603
0.189746
0.100618
0.170072
0.110683
0.159313
0.128073
0.188587
0.163430
0.099510
0.131626
0.081919
0.081463
0.066679
0.037519
0.032174
-0.067313
-0.033113
-0.054054
-0.031526
-0.007055
-0.017223
-0.122327
-0.062064
-0.009400
-0.012500
0.011658
0.011083
-0.069696
-0.020893
-0.027701
-0.029556
-0.038989
0.012069
-0.018054
-0.125735
-0.124093
-0.040065
0.111081
0.247315
0.545790
0.924066
1.128106
1.353753
1.269126
1.079524
0.750473
0.462449
0.091432
-0.118540
-0.293458
-0.229114
-0.260675
-0.253056
-0.177062
-0.048644
-0.013858
-0.034889
-0.056454
0.021767
0.020671
-0.004864
-0.044472
-0.000707
-0.001331
0.001180
0.096391
0.069475
0.117655
-0.022729
0.082957
0.088296
0.060980
0.090815
0.090387
0.181832
0.226537
0.195234
0.197006
0.199637
0.269224
0.320152
0.258643
0.305549
0.403067
0.281361
0.346604
0.328115
0.393057
0.378100
0.462937
0.366381
0.497110
0.381037
0.439058
0.390957
0.412425
0.523935
0.357347
0.432922
0.458574
0.395118
0.460729
0.393682
0.429675
0.384807
0.308902
0.417791
0.330647
0.384848
0.374582
0.233754
0.233109
0.254064
0.207550
0.143210
0.219259
0.192136
0.140832
0.067267
0.128511
0.035127
0.138986
0.118659
0.077852
0.091071
0.042851
0.010302
0.008387
0.048400
0.003804
0.022818
0.051944
-0.053037
-0.021713
-0.030570
-0.014753
-0.041099
-0.107142
0.022077
-0.034326
-0.067538
-0.086710
-0.049209
-0.038212
-0.016071
0.031743
0.021993
-0.092191
0.009221
0.027974
0.062928
0.004461
-0.095713
0.069307
-0.037575
-0.015287
-0.032517
-0.011448
0.011253
-0.044378
-0.096143
-0.017499
-0.030386
-0.033871
-0.120515
-0.000087
-0.073163
-0.077076
-0.017054
-0.045525
0.006031
0.025658
-0.044632
0.053791
0.063539
0.015785
-0.065789
-0.064684
-0.087553
0.027402
0.062586
-0.024694
-0.121043
0.031951
-0.001336
0.039772
-0.064046
-0.116463
0.025507
-0.040506
0.040053
-0.027970
-0.015843
-0.021599
0.049465
0.007750
-0.040841
-0.029582
-0.032661
0.018611
0.069607
0.059683
0.053776
0.110735
0.164618
0.072956
0.111850
0.194887
0.186855
0.060412
0.111502
0.127595
0.057063
0.187259
0.192580
0.189743
0.135825
0.167908
0.117302
0.159878
0.141951
0.147025
0.063900
0.131616
0.074008
0.091114
0.089213
-0.003589
0.047337
0.063773
0.002500
0.065655
0.024423
0.051188
-0.012444
0.034957
-0.012268
0.009795
0.020359
0.005243
0.004695
0.014836
0.058425
0.078315
-0.043820
-0.010996
0.027955
-0.041425
-0.072545
-0.037860
0.038385
0.051561
0.313876
0.521214
0.850021
1.070714
1.313528
1.350601
1.132178
0.879717
0.533905
0.196583
-0.024094
-0.143171
-0.266759
-0.244824
-0.113578
-0.181195
-0.017590
0.116226
0.010074
0.043937
0.018237
0.097048
0.007247
-0.006997
-0.027420
0.065603
-0.000450
0.122688
0.110764
0.072022
0.131385
0.123431
0.129780
0.116235
0.118556
0.195187
0.155477
0.209245
0.188841
0.212434
0.315268
0.286509
0.309211
0.364080
0.335707
0.341461
0.392727
0.445388
0.421718
0.445328
0.462391
0.469730
0.511776
0.553292
0.519652
0.452623
0.497304
0.487578
0.564854
0.558569
0.599759
0.525564
0.471534
0.570175
0.514581
0.414105
0.438591
0.417219
0.465254
0.391002
0.356647
0.345377
0.300837
0.368906
0.320724
0.287575
0.306399
0.254047
0.238873
0.221818
0.312102
0.172412
0.149605
0.145582
0.190315
0.128919
0.202025
0.086437
0.092500
0.072573
0.148830
0.081485
0.112226
0.086645
0.078573
0.095771
0.056757
0.084488
-0.001585
0.114327
0.042509
-0.035831
0.020587
0.077836
0.071413
0.087312
0.079599
0.121935
0.077898
0.090951
0.108490
0.035553
0.078405
0.003545
0.061478
0.044889
0.043579
0.095053
0.102766
0.089097
0.097824
0.051351
0.107435
0.020691
0.125444
0.085992
0.061019
0.036540
0.033643
0.091536
0.048002
0.136305
0.054410
0.106302
0.059361
0.096761
0.095423
0.048282
0.088916
0.012861
0.055909
0.021437
0.055712
0.046350
0.040459
0.104615
0.105069
0.058057
0.037616
0.150988
0.129989
0.118851
0.110806
0.072794
0.116334
0.048756
0.058026
0.150365
0.103024
0.107407
0.186094
0.117505
0.087840
0.174992
0.229937
0.126732
0.144251
0.190564
0.216243
0.159445
0.189673
0.226904
0.285870
0.192402
0.168791
0.357772
0.274579
0.276791
0.351529
0.225059
0.210394
0.245888
0.154815
0.172650
0.175467
0.254961
0.131116
0.231985
0.264037
0.156491
0.093058
0.118642
0.183888
0.097350
0.132878
0.066936
0.170659
0.113274
0.078085
0.142364
0.070463
0.059348
0.077658
0.122306
0.077026
0.152271
0.115673
0.064016
0.049506
0.032723
0.028710
0.053910
0.046628
0.145454
0.228317
0.514207
0.740421
1.105692
1.350597
1.500000
1.337324
1.104634
0.757388
0.372786
0.086219
-0.108605
-0.158270
-0.181541
-0.075981
-0.003571
0.067470
0.076082
0.112297
0.049827
0.069402
0.097091
0.060683
0.112005
0.171659
0.169315
0.128166
0.123331
0.146654
0.123812
0.155614
0.137225
0.196676
0.200415
0.187542
0.237340
0.252474
0.212876
0.354145
0.333243
0.313074
0.390628
0.306390
0.398877
0.324439
0.390424
0.426130
0.424916
0.501191
0.478407
0.499114
0.512360
0.483401
0.492394
0.499529
0.566054
0.497202
0.611173
0.654340
0.599961
0.569593
0.541882
0.517853
0.499488
0.581998
0.516525
0.503593
0.449702
0.491106
0.486864
0.434249
0.496374
0.415062
0.391205
0.353976
0.351796
0.292535
0.334411
0.242327
0.286052
0.276691
0.227724
0.222129
0.168762
0.241929
0.277005
0.190517
0.186372
0.187357
0.136698
0.072497
0.175465
0.110080
0.058178
0.045389
0.131213
0.085155
0.054273
0.129370
0.132137
0.055227
0.061682
0.102601
0.053884
0.006769
0.124645
0.044946
0.063085
0.072353
0.039809
0.043583
-0.026297
0.055724
0.050490
0.042657
0.082319
0.079247
0.089600
0.073066
0.003330
0.056769
0.072361
0.058545
0.074904
0.037928
-0.033828
0.002948
0.049850
0.096101
0.114016
-0.032908
0.044751
0.046544
0.067833
0.066151
0.124056
0.021799
0.056815
-0.015484
0.021657
0.019532
0.046706
0.041474
0.047601
0.044302
-0.048826
0.092393
0.022248
-0.017536
0.087416
0.047082
0.040811
0.073682
0.050823
0.050523
0.045973
0.012664
0.031673
0.084027
0.077051
0.061655
0.105841
0.061362
0.180082
0.149573
0.161796
0.068672
0.185818
0.063089
0.187857
0.148920
0.076233
0.188832
0.211695
0.189233
0.216571
0.142501
0.224920
0.301426
0.231960
0.161873
0.226353
0.139979
0.162155
0.130150
0.157794
0.137477
0.158813
0.146524
0.031438
0.124503
0.068519
0.012261
0.043235
0.048276
0.007710
-0.017127
0.001607
0.049720
0.027477
-0.105882
0.013690
0.009545
-0.019399
0.053556
-0.039766
0.002410
-0.019020
-0.002565
0.052484
-0.057528
-0.048144
0.011691
-0.017504
0.079775
0.402861
0.610927
0.964584
1.201580
1.267504
1.325472
1.038010
0.790218
0.411677
0.053681
-0.155646
-0.260894
-0.319277
-0.164308
-0.169750
-0.120778
0.016998
-0.096501
-0.012172
-0.035333
0.023510
0.015478
0.015472
0.020803
0.001839
0.019248
0.073252
0.041267
0.016034
0.166968
0.037993
0.012791
0.029739
0.058878
0.085373
0.041787
0.227914
0.126361
0.145372
0.276261
0.223365
0.221075
0.268861
0.268304
0.282437
0.262982
0.326597
0.324918
0.359390
0.392547
0.450450
0.403393
0.451557
0.472359
0.345364
0.417492
0.409222
0.475994
0.452191
0.456523
0.464518
0.472673
0.436413
0.377429
0.412153
0.375883
0.351996
0.399495
0.316522
0.254161
0.221976
0.319005
0.270282
0.284299
0.173187
0.208192
0.194526
0.155606
0.213293
0.168002
0.216059
0.109484
0.113507
0.042493
0.009013
0.075368
0.014809
-0.056423
0.034725
-0.001243
-0.050923
-0.001047
-0.005579
-0.004055
-0.050156
0.003866
-0.067357
-0.005147
-0.067603
-0.087460
0.019003
0.023680
-0.064888
-0.056310
-0.052792
-0.118978
-0.061614
-0.033711
-0.117233
-0.081333
-0.088038
-0.140214
-0.096265
-0.074301
0.000183
-0.065479
-0.001355
0.039271
-0.085609
-0.101006
-0.052489
-0.055082
-0.002915
-0.115650
-0.087991
-0.031891
-0.091349
0.024693
-0.039434
-0.020430
-0.042200
-0.127749
-0.080522
-0.096710
-0.032998
-0.003245
-0.150549
-0.101828
-0.057946
-0.047354
-0.089236
-0.030878
0.002979
-0.126117
-0.120076
-0.061253
-0.089300
-0.118189
-0.147580
-0.095990
-0.069712
-0.092813
-0.061667
-0.064519
-0.040443
-0.063923
0.038493
0.022994
0.032735
-0.044797
-0.036923
-0.048657
-0.013853
-0.031291
-0.008561
0.158261
0.039564
0.069059
0.000614
0.026090
0.124073
-0.005241
0.086888
0.057747
0.064302
0.104323
0.129966
0.112848
0.064568
0.062181
0.054869
0.035524
0.019039
0.046200
0.065212
0.089049
0.066381
0.040699
0.023779
0.015121
0.020064
-0.115452
-0.016685
-0.018867
-0.087267
-0.042998
-0.023703
-0.070704
-0.037683
-0.038463
-0.150743
-0.039836
-0.039561
-0.116630
-0.065223
-0.064492
-0.076016
-0.118534
-0.094404
-0.131194
-0.098245
-0.181327
-0.061295
-0.052612
0.168685
0.525889
0.833356
1.041271
1.277859
1.230790
1.092400
0.777974
0.345265
0.088964
-0.104405
-0.338162
-0.284096
-0.297024
-0.252094
-0.215321
-0.111243
-0.087287
-0.079975
-0.059145
-0.045125
-0.041670
-0.080308
-0.057924
-0.061149
-0.065164
0.005219
-0.071242
-0.006515
0.016786
0.013205
0.060422
0.065510
0.020773
0.035939
0.089473
0.106617
0.224834
0.165174
0.170113
0.173616
0.154160
0.202086
0.268989
0.275964
0.221288
0.329309
0.391075
0.305481
0.385308
0.368779
0.335753
0.400195
0.371136
0.380257
0.409530
0.392041
0.396340
0.371269
0.467468
0.393326
0.427983
0.366987
0.420972
0.399995
0.386231
0.390557
0.358264
0.301193
0.278626
0.362508
0.285036
0.265455
0.226303
0.249374
0.194294
0.244697
0.153776
0.252920
0.117233
0.089454
0.150830
0.033867
0.048940
0.051552
-0.041599
0.004542
-0.005825
-0.027035
0.006441
0.003413
0.051942
0.062488
-0.078117
-0.102102
0.027804
0.011530
-0.012385
0.018715
-0.100861
-0.020601
0.018473
-0.107231
0.036070
-0.085247
-0.025501
-0.038707
-0.069777
-0.046388
-0.075361
-0.043146
-0.008038
-0.061003
-0.020503
-0.065128
-0.062179
-0.074271
-0.042857
0.049994
-0.015259
-0.082855
0.003183
-0.059377
-0.078487
0.012504
-0.057650
-0.004409
-0.056964
0.012391
-0.025337
-0.045349
-0.026790
0.011069
-0.071304
-0.081917
-0.023866
-0.108927
-0.062372
-0.077315
0.025996
-0.047092
-0.037541
-0.030349
0.022527
-0.045419
-0.016450
-0.041111
0.021668
-0.011232
-0.011870
0.008853
0.031362
0.063650
-0.096369
0.002982
0.031054
-0.048962
-0.027529
-0.067417
-0.004961
0.053520
0.061900
-0.017907
0.093192
0.051135
0.008194
0.083481
0.073123
0.098338
0.072169
0.125966
0.115782
0.141618
0.158797
0.103724
0.110204
0.152381
0.204158
0.183341
0.206056
0.134162
0.118428
0.053277
0.126063
0.134554
0.090259
0.118889
0.049394
0.154733
0.063167
0.138669
0.046646
0.032470
0.015279
0.044621
0.076459
0.049643
-0.068119
0.058337
0.132517
-0.060915
-0.042675
0.053923
0.027198
0.057045
-0.001046
0.047978
-0.029012
0.082796
0.014925
0.035076
-0.116578
0.040115
0.037404
0.193636
0.419041
0.793529
1.062738
1.314352
1.384145
1.220719
0.967709
0.651317
0.297110
-0.029615
-0.213949
-0.229418
-0.240874
-0.100980
-0.092710
-0.067243
-0.036812
0.092425
0.085181
0.007258
0.121957
0.086228
0.153530
0.074633
0.089466
0.029069
-0.000265
0.003612
0.109664
0.049414
0.104329
0.089924
0.147163
0.118905
0.159357
0.174566
0.206150
0.220691
0.299482
0.258122
0.264913
0.326062
0.322860
0.346486
0.392445
0.337810
0.356599
0.422778
0.457434
0.464168
0.456414
0.438832
0.545552
0.463464
0.493490
0.493613
0.416003
0.490536
0.561774
0.497822
0.571267
0.500018
0.529672
0.486256
0.521077
0.500143
0.423233
0.421353
0.380600
0.343532
0.455751
0.363899
0.376846
0.306574
0.277455
0.316109
0.330584
0.250268
0.181196
0.237721
0.231379
0.250811
0.147317
0.136007
0.211849
0.183173
0.106221
0.073984
0.144362
0.083328
0.128751
0.041669
0.094898
0.026649
0.106505
0.097130
0.078949
0.100567
0.096267
0.068473
0.080862
0.101227
0.031580
0.053701
0.055039
0.017740
0.073494
0.056756
0.090486
0.101164
0.068561
0.099675
0.061185
0.042954
-0.026499
-0.005976
0.117031
0.073967
0.037623
0.009705
-0.012033
0.066974
0.111999
0.036847
0.082577
0.037878
0.094154
0.118445
0.087681
0.109308
0.112078
0.045932
-0.008554
0.139105
0.036809
0.102722
-0.034262
0.037713
0.026907
0.110793
0.035199
0.119260
0.026502
0.084873
0.000940
0.077719
0.002509
-0.029875
0.050182
0.094255
-0.036594
0.029831
0.122732
0.058952
0.043379
0.078880
0.093282
0.048138
0.049512
0.063532
0.087950
0.101177
0.103779
0.219104
0.237546
0.124532
0.097773
0.177580
0.208159
0.187688
0.235204
0.250174
0.151613
0.147466
0.222372
0.196629
0.246849
0.118180
0.193349
0.155682
0.241700
0.160560
0.176380
0.227623
0.139656
0.170432
0.113420
0.131793
0.091344
0.024973
0.087247
0.100886
0.126658
0.091531
0.085427
-0.032846
0.040339
0.035261
0.028726
0.100649
0.058536
0.042962
0.044745
0.016480
0.084662
0.085393
0.054128
0.012458
0.009077
0.046390
-0.042606
0.016899
-0.044491
0.181661
0.357790
0.679841
1.057381
1.232702
1.446855
1.307447
1.002231
0.755201
0.326977
0.052224
-0.063495
-0.126590
-0.240142
-0.210100
-0.123500
-0.045876
-0.067571
-0.058921
0.021954
0.087163
0.077821
-0.013715
0.027647
0.072630
0.022519
0.087400
0.036486
0.105367
0.050229
0.063213
0.082619
0.037316
0.126651
0.187240
0.141568
0.193722
0.233245
0.283161
0.245255
0.294936
0.301034
0.239225
0.286853
0.340669
0.312966
0.353397
0.306317
0.433590
0.404315
0.459635
0.420795
0.470370
0.441832
0.461467
0.494335
0.474760
0.519758
0.532745
0.513279
0.507029
0.472847
0.411630
0.496622
0.486191
0.260006
0.344582
0.350085
0.396132
0.389786
0.335643
0.369865
0.318388
0.326675
0.198075
0.319148
0.184274
0.256530
0.259765
0.183516
0.167405
0.146171
0.037996
0.146847
0.051882
0.187264
0.052362
0.094196
0.036708
-0.010042
0.029287
0.059478
0.025589
-0.030070
-0.061952
0.047502
-0.093900
-0.081589
0.016839
-0.025334
0.010173
-0.011041
0.009905
0.044747
0.011841
0.005550
-0.084556
-0.032072
-0.033576
-0.024096
-0.089598
-0.057221
-0.031250
-0.083870
-0.026576
-0.030853
-0.065437
-0.019169
-0.018067
-0.033874
0.003450
-0.127491
-0.031781
-0.037035
-0.024683
-0.047855
-0.040238
-0.023564
-0.063475
-0.032480
0.052308
-0.075466
-0.069447
-0.003238
-0.062239
-0.000870
-0.022258
-0.055396
-0.003864
-0.050781
-0.068926
-0.013035
-0.056515
-0.060992
-0.091436
-0.022714
-0.055404
-0.104562
-0.056009
-0.032495
-0.074083
-0.082956
-0.029406
-0.023813
0.007847
0.048947
-0.082989
-0.083212
0.044724
0.012017
-0.014732
-0.033886
-0.025591
-0.006064
0.013615
0.049883
-0.000189
0.040106
-0.047325
0.095079
0.101233
-0.005043
0.118555
0.065526
0.084210
0.120059
0.131238
0.096837
0.171409
0.087533
0.132208
0.097521
0.119078
0.065134
0.084056
0.048228
0.006328
0.063771
0.036037
0.004229
-0.025225
0.015275
-0.062655
0.009484
-0.034730
-0.058151
-0.013583
-0.015024
-0.088878
-0.038842
-0.037576
-0.114312
-0.067054
-0.095063
-0.053288
-0.056308
0.022210
-0.078563
-0.111075
-0.055906
-0.141840
-0.032784
-0.125464
-0.155791
0.052487
0.280855
0.545699
0.841692
1.115868
1.240329
1.227786
1.046651
0.709613
0.362890
0.042520
-0.119678
-0.306677
-0.336813
-0.392915
-0.206750
-0.149877
-0.108928
-0.022902
-0.080869
-0.075114
-0.083585
-0.090387
-0.066619
-0.128284
-0.071957
-0.115164
-0.029792
-0.056181
-0.057409
0.077219
-0.045728
0.008948
0.029741
0.095474
0.043579
0.128723
0.153069
0.079447
0.078615
-0.011309
0.105177
0.201367
0.163093
0.183556
0.323310
0.286837
0.250866
0.365547
0.292656
0.341367
0.287133
0.342898
0.348562
0.349530
0.383030
0.408329
0.353858
0.382593
0.401729
0.374750
0.362692
0.374587
0.370314
0.387817
0.461567
0.402666
0.327119
0.356232
0.313877
0.240474
0.269967
0.295979
0.204824
0.203968
0.241320
0.120083
0.156891
0.130945
0.051296
0.075114
0.085229
0.034575
0.021050
0.054467
-0.006423
0.043087
-0.059979
-0.023765
0.008708
0.026718
0.004736
-0.028981
-0.097397
-0.075351
-0.132680
-0.085656
-0.068567
-0.086749
-0.080525
-0.080387
-0.115360
-0.126558
-0.119991
-0.097356
-0.095174
-0.121892
-0.083631
-0.076013
-0.047368
-0.124052
-0.100441
-0.046084
-0.106611
-0.086966
-0.064931
-0.110467
-0.119918
-0.078000
-0.080619
-0.131835
-0.054727
-0.028948
-0.082626
-0.117910
-0.028433
-0.002226
-0.057645
-0.099864
-0.146088
-0.025883
-0.024960
-0.080323
-0.095341
-0.114448
-0.111118
-0.110034
-0.049502
-0.112425
-0.124866
-0.149321
-0.082611
-0.100463
-0.092635
0.042101
-0.005505
-0.148951
-0.031632
0.017573
-0.114249
-0.084115
-0.103064
-0.068340
-0.057109
-0.126174
-0.096095
-0.083254
-0.017690
-0.060955
-0.019968
0.021168
-0.071964
0.058176
0.030183
-0.024073
0.032779
0.075941
-0.030550
0.001013
0.076617
0.102525
0.074240
0.093877
0.052397
0.191200
0.065950
0.119392
0.159261
0.098374
0.073519
0.108458
0.057452
0.086951
0.065162
0.101919
0.052515
-0.048769
0.008852
0.033496
0.061894
0.038275
0.044914
-0.003879
-0.028770
-0.077888
0.016928
0.015176
-0.038351
-0.067664
-0.072930
-0.079403
-0.042202
-0.178045
-0.160745
-0.046721
-0.027964
-0.099245
-0.051953
-0.047100
-0.055332
-0.063434
-0.087799
-0.083189
-0.002770
0.024030
0.211582
0.396377
0.687272
1.048862
1.283770
1.334982
1.089542
0.901031
0.521366
0.145748
-0.056622
-0.247985
-0.279932
-0.267946
-0.151069
-0.140851
-0.028805
-0.018139
-0.003104
-0.026829
0.041476
-0.040249
0.017142
-0.021147
0.003531
0.089494
0.001089
0.040652
0.042315
0.089951
0.019814
0.111917
0.027838
0.110677
0.104101
0.219374
0.184200
0.088285
0.247839
0.159677
0.292154
0.249230
0.248947
0.272126
0.237807
0.305826
0.351697
0.385744
0.417955
0.452338
0.385892
0.462767
0.461433
0.389057
0.383218
0.519673
0.499668
0.536742
0.523010
0.494594
0.503144
0.442742
0.471247
0.489146
0.458762
0.383080
0.460852
0.413359
0.453353
0.378728
0.406170
0.350670
0.290158
0.235967
0.238813
0.254175
0.307889
0.183909
0.206999
0.227153
0.176311
0.199592
0.123981
0.158761
0.146473
0.173576
0.082968
0.092932
0.075477
0.142682
0.102117
0.003268
0.003074
0.030278
0.064639
0.023855
-0.018670
0.004816
0.006109
0.052282
-0.053667
0.084248
-0.043589
0.064398
0.002668
-0.084870
0.071053
0.001770
0.043306
0.055304
0.023505
0.064260
0.053912
0.079350
0.003678
0.053472
0.050118
0.023061
0.035694
0.016776
0.072384
0.014906
0.069465
0.074833
0.014986
0.031541
-0.000132
-0.010886
0.013107
0.022427
-0.043528
0.004275
0.011687
0.012453
0.029636
0.117033
0.081931
0.034529
0.015603
0.097654
-0.016911
-0.076108
0.079591
0.011560
-0.006119
-0.011057
0.048825
0.118977
0.027713
0.074867
0.065412
0.039021
0.066408
0.086099
0.029390
0.096053
0.075243
0.011337
0.053640
0.152386
0.065322
0.085503
0.074147
0.116075
0.147543
0.211940
0.211015
0.179792
0.182647
0.219761
0.178870
0.249056
0.209206
0.201890
0.189605
0.207940
0.158704
0.125745
0.201448
0.165795
0.180567
0.178423
0.243564
0.210279
0.094227
0.160598
0.207020
0.090263
0.077825
0.120039
0.103909
0.092821
0.135493
0.084973
0.190707
0.108350
0.053050
0.134952
0.076104
0.079020
0.027542
0.038025
-0.006772
0.142421
0.041598
0.066233
0.030355
0.047110
0.015245
0.096182
0.054200
-0.030629
0.129546
0.064622
0.303734
0.453782
0.783554
1.084108
1.284362
1.414278
1.276584
1.118330
0.753925
0.333560
0.137528
-0.105963
-0.153183
-0.164491
-0.073572
-0.072370
0.021600
0.012040
0.049300
0.061512
0.120345
0.076910
0.106207
0.083798
0.043693
0.033522
0.164901
0.070584
0.174586
0.164293
0.062695
0.136388
0.199682
0.234211
0.171249
0.172235
0.219070
0.177975
0.282622
0.343903
0.310133
0.241871
0.264982
0.313912
0.432059
0.379552
0.499809
0.462822
0.486115
0.486218
0.517230
0.554945
0.429904
0.487961
0.501289
0.521239
0.539781
0.546367
0.543068
0.668694
0.567594
0.589373
