0.017690
-0.106789
0.034710
-0.025070
0.065334
0.037481
0.088684
0.012598
0.002952
-0.017273
0.037015
0.007040
0.031025
0.037159
0.023473
0.027313
0.025701
0.026626
0.027189
0.043835
-0.023439
0.039153
0.100988
0.057560
0.018742
0.061637
0.001479
0.043873
0.084656
0.025114
0.140241
0.087579
0.048725
0.011475
0.113305
0.095550
0.081535
0.160010
0.178247
0.201070
0.128534
0.166532
0.220043
0.166768
0.159731
0.206519
0.123729
0.242163
0.177297
0.240387
0.175545
0.137177
0.269444
0.138166
0.181635
0.139035
0.186552
0.078539
0.129931
0.137469
0.100919
0.125340
0.108627
0.084785
0.160974
0.037010
0.009133
0.104600
0.114842
0.141732
0.046520
0.027409
0.008730
-0.004096
0.012558
0.123809
-0.019585
-0.007444
0.016037
0.015547
0.080959
0.013525
0.030899
0.032939
0.000283
-0.013126
0.001297
0.038798
0.107935
0.245877
0.488711
0.839637
1.198690
1.500000
1.410887
1.298369
1.056803
0.715687
0.335735
0.128792
-0.163402
-0.195621
-0.262952
-0.141144
-0.067111
-0.033501
0.073619
0.021829
0.067473
0.035317
0.030802
0.129558
0.069467
0.145175
0.124666
0.025756
0.076910
0.156184
0.213633
0.115190
0.067460
0.138988
0.213088
0.101091
0.149596
0.074885
0.184161
0.169545
0.175445
0.169751
0.268471
0.341582
0.251272
0.262611
0.266431
0.300869
0.323638
0.324650
0.306990
0.361973
0.381563
0.401073
0.496398
0.492068
0.560662
0.530969
0.536772
0.597448
0.588223
0.535702
0.537414
0.605499
0.579991
0.592530
0.671878
0.582685
0.569236
0.641988
0.592795
0.530537
0.518295
0.528677
0.628678
0.533344
0.485920
0.454109
0.408547
0.390487
0.384933
0.382326
0.343625
0.325975
0.321088
0.234072
0.259749
0.285645
0.199737
0.174361
0.251123
0.197997
0.096786
0.183946
0.189046
0.190388
0.109982
0.120511
0.117462
0.040846
0.096083
0.153013
0.131968
0.094246
0.090752
0.107095
0.093418
0.135314
0.155853
0.093004
0.114580
0.093148
0.176084
0.084177
0.079749
0.095870
0.050289
0.108067
-0.000546
0.103696
0.096632
0.049851
0.061113
0.075566
0.020236
0.073881
0.111940
-0.026273
0.057807
0.204355
0.062986
0.131808
0.147743
0.051007
0.047665
0.152483
0.137727
0.097418
0.106737
0.092601
0.042449
0.055241
0.127652
-0.015116
0.062278
0.065558
0.057941
0.020182
0.008010
0.054562
0.063797
-0.000864
0.082749
0.133297
0.077590
0.083739
0.046390
0.070838
0.081042
0.097180
0.056277
0.091920
0.058126
0.152302
0.108600
0.107358
0.114672
0.117688
0.037613
0.076436
0.122477
0.067645
0.055283
0.090458
0.168835
0.087779
0.059016
0.174114
0.179754
0.119814
0.182251
0.116211
0.120769
0.198301
0.162393
0.224415
0.282636
0.214020
0.275564
0.171425
0.238514
0.270449
0.246564
0.283451
0.206799
0.207840
0.293258
0.237339
0.216390
0.166319
0.241190
0.160539
0.199470
0.191867
0.151099
0.125070
0.118846
0.136441
0.000568
0.108225
0.084357
0.059729
0.100776
0.090032
0.076752
0.072944
0.123894
0.072114
0.068710
-0.053834
0.110906
0.063723
0.076745
0.095720
0.055988
0.033924
0.070955
-0.050267
0.134328
0.086398
0.006230
0.031698
0.023618
0.067187
0.070528
0.244684
0.388282
0.675054
1.050564
1.292175
1.463777
1.499537
1.170929
0.880962
0.587416
0.186628
-0.081404
-0.246051
-0.276451
-0.175380
-0.108160
-0.027849
-0.002385
0.072334
0.045498
0.113480
0.067811
-0.009243
0.065775
0.060113
0.043589
0.045153
0.032831
0.164811
0.046068
0.146046
0.170228
0.177552
0.077828
0.078844
0.157235
0.118011
0.196681
0.190732
0.107065
0.037733
0.141830
0.289403
0.273101
0.156042
0.215414
0.322032
0.297225
0.321096
0.353245
0.361031
0.363584
0.381261
0.434809
0.433457
0.440089
0.423746
0.466490
0.475260
0.516111
0.488705
0.546521
0.585531
0.533399
0.483277
0.509950
0.535601
0.553590
0.418172
0.519640
0.451247
0.487361
0.484695
0.435694
0.406935
0.389073
0.406336
0.438277
0.392053
0.325533
0.350236
0.307689
0.264352
0.276051
0.271831
0.251434
0.083929
0.221974
0.180227
0.199536
0.100894
0.049462
0.121149
0.069764
0.060327
0.113535
0.058121
0.009351
0.064745
-0.003456
-0.028251
0.046028
-0.024608
-0.069274
0.024494
-0.039531
0.006935
0.005707
0.074820
-0.015334
0.047539
-0.006367
-0.068945
0.009281
0.071935
-0.036270
0.036014
-0.075190
-0.088702
0.035071
-0.038680
-0.070771
-0.064077
-0.023021
-0.015713
-0.041090
-0.049477
0.008623
0.014594
0.019241
-0.049649
-0.108434
-0.010155
-0.050831
0.019620
0.007800
0.041259
-0.016395
0.004121
0.076668
-0.063713
-0.038514
-0.065242
-0.021778
-0.023955
-0.082470
0.048400
-0.004022
-0.065336
-0.129921
-0.010223
0.038772
0.045907
-0.007612
0.021429
0.034934
0.014766
-0.087848
0.019803
-0.044780
-0.081991
-0.059750
-0.026065
0.006447
0.004783
0.003442
-0.012812
0.018048
0.037877
-0.014373
0.066294
-0.013436
0.058884
-0.062497
-0.001325
-0.012012
0.012275
0.017128
0.049659
-0.001612
0.051747
0.086217
0.097164
0.161179
0.047152
0.085564
0.026629
0.125939
0.117927
0.093222
0.174043
0.163973
0.143853
0.128142
0.177924
0.169377
0.112243
0.151261
0.174567
0.110452
0.128525
0.046736
0.044480
0.037605
0.044784
0.055247
0.047961
-0.009140
0.072761
-0.033203
0.015695
0.067308
-0.053573
-0.107043
-0.011868
-0.032422
0.021003
-0.010785
-0.023008
-0.059760
-0.018517
-0.042003
-0.048863
-0.082246
0.007635
0.005252
-0.104049
-0.020796
-0.084522
-0.095807
-0.112625
-0.109364
-0.086881
-0.122370
0.119287
0.220680
0.518510
0.883035
1.225652
1.382921
1.350247
1.248118
0.890970
0.543265
0.243681
-0.147138
-0.225224
-0.278942
-0.351286
-0.241370
-0.205917
-0.140264
-0.028276
-0.037125
-0.039269
0.007388
-0.021642
0.000664
-0.070607
-0.034004
0.023111
-0.018755
-0.110070
-0.054838
-0.040497
-0.017830
0.006772
0.049262
0.114966
0.095222
0.032891
0.071142
0.107714
0.072815
0.073443
0.061850
0.121760
0.099010
0.176907
0.188999
0.168781
0.242414
0.296795
0.269388
0.232728
0.259027
0.337947
0.394307
0.346403
0.322833
0.464044
0.363088
0.456800
0.455799
0.557242
0.480881
0.469649
0.512423
0.498723
0.341532
0.482247
0.392826
0.470855
0.404387
0.438401
0.416543
0.339655
0.408861
0.382563
0.366979
0.358422
0.329616
0.268235
0.217616
0.259908
0.241613
0.253845
0.182123
0.166804
0.204660
0.133686
0.110532
0.068177
0.090851
0.071877
0.041169
0.034380
0.064111
0.012021
0.070653
0.014829
0.005633
-0.008736
0.001201
-0.048208
-0.008492
0.103162
-0.020090
-0.077706
0.032448
-0.027674
-0.015544
-0.068031
-0.030329
0.028206
-0.043469
-0.047643
0.007031
0.032464
-0.065274
-0.054171
0.003478
-0.078861
-0.004218
-0.014248
-0.037118
-0.046466
-0.045813
-0.032664
-0.017569
-0.014633
-0.117286
0.014467
0.134769
0.030387
0.031773
0.031412
0.012702
0.025454
0.044792
-0.019520
-0.018423
-0.018397
-0.030677
-0.037071
-0.049331
-0.026060
-0.051510
0.042195
-0.041476
0.021370
-0.022386
0.053471
0.039411
0.027223
0.007406
0.047057
0.021794
-0.004683
0.114295
0.026161
-0.004777
-0.009007
-0.013770
-0.030389
-0.035383
0.013706
-0.008975
0.038994
-0.064022
0.023082
0.028627
0.070707
0.048102
-0.006753
-0.037980
0.004785
0.080323
-0.032887
0.024650
0.059202
0.136705
0.090280
0.092549
0.123057
0.017738
0.170896
0.116940
0.072586
0.056322
0.118994
0.124068
0.206478
0.197340
0.269393
0.240159
0.140837
0.138590
0.141470
0.167138
0.174694
0.219741
0.227684
0.174120
0.150498
0.140850
0.134387
0.191499
0.251712
0.183022
0.101594
0.128517
0.132354
0.121797
0.093848
0.040683
0.063040
0.033928
0.050408
-0.007224
0.060724
0.032069
0.006020
-0.009801
-0.006089
-0.002300
0.080629
0.059352
-0.009829
0.066054
0.039773
0.036743
0.013771
0.068618
0.030954
0.069689
0.012352
0.026769
0.132497
0.254068
0.415338
0.759619
1.128784
1.435679
1.476426
1.278997
1.165103
0.775251
0.389001
0.153590
-0.119354
-0.187381
-0.271208
-0.123825
-0.075337
-0.084302
-0.017615
-0.008940
0.096709
0.119951
0.062265
-0.047344
0.045176
0.115587
0.067627
0.135548
0.069152
0.164255
0.082079
0.095321
0.089707
0.137554
0.159318
0.154383
0.232485
0.201028
0.200190
0.228350
0.205240
0.198172
0.204128
0.188810
0.209253
0.264167
0.338157
0.396986
0.329742
0.379811
0.349097
0.418065
0.430463
0.430190
0.503199
0.466070
0.524069
0.493453
0.464024
0.570435
0.600691
0.583659
0.657882
0.503720
0.537894
0.590307
0.527339
0.571120
0.597686
0.578997
0.593431
0.526623
0.575333
0.499907
0.497852
0.468804
0.459600
0.422523
0.400623
0.359715
0.399393
0.360025
0.329137
0.260984
0.363187
0.253659
0.227777
0.268073
0.224652
0.132599
0.152055
0.207293
0.209908
0.173433
0.062751
0.169497
0.153993
0.113144
0.057259
0.070450
0.160631
0.160756
0.213419
0.157348
0.171930
0.139631
0.085922
0.093384
0.093892
0.084213
0.125392
0.092120
0.076005
0.108371
0.110519
0.016583
0.110347
0.139159
0.133463
0.020167
0.100259
0.101871
0.106327
0.083111
0.076913
0.038693
0.000991
0.080074
0.046807
-0.020081
0.004100
0.128685
0.123284
0.024201
0.148953
0.094268
0.076192
0.170212
0.123574
0.060212
0.069044
0.068440
0.007344
0.058414
0.067814
0.123730
0.118353
0.073852
0.150273
0.065902
0.043520
0.185740
0.079471
0.142731
0.082205
0.059262
0.127172
0.075245
0.123282
0.089299
0.105206
0.115961
0.073437
0.068966
0.116631
0.081325
0.049196
0.072796
0.033118
0.101681
0.087432
0.059510
0.118967
0.142380
0.104800
0.079428
0.143991
0.130513
0.133701
0.146445
0.184687
0.190770
0.204371
0.189732
0.165792
0.240268
0.226684
0.276680
0.259216
0.214260
0.236698
0.253077
0.241393
0.241341
0.335552
0.274530
0.285931
0.245470
0.235044
0.184061
0.208237
0.095119
0.187974
0.133209
0.174332
0.213823
0.182200
0.219491
0.178986
0.085428
0.057390
0.076112
0.115388
0.048463
0.112228
0.072062
0.117071
0.145052
0.047855
0.061302
0.045660
0.141694
0.020083
0.098291
0.134991
0.073474
0.057560
0.103262
0.149998
0.106451
0.070536
0.053803
-0.028128
0.146205
0.070568
0.159461
0.433392
0.706330
1.014989
1.297036
1.441677
1.427507
1.213404
0.842570
0.584990
0.231947
-0.058481
-0.217635
-0.261214
-0.112223
-0.070334
-0.028690
0.038049
0.119908
0.046528
-0.048591
0.056410
0.108580
0.019329
0.058214
0.081828
0.078734
0.135251
0.020646
0.055963
-0.026002
0.100519
0.133002
0.125616
0.135900
0.170387
0.090028
0.195512
0.172003
0.223739
0.153407
0.227018
0.249713
0.238605
0.297428
0.343388
0.303889
0.340831
0.357941
0.389758
0.342036
0.430193
0.404956
0.397912
0.470765
0.498555
0.516828
0.512451
0.554273
0.509613
0.585378
0.585491
0.533893
0.499616
0.519839
0.599242
0.392662
0.493035
0.602546
0.508673
0.507969
0.529141
0.459415
0.407880
0.392457
0.441952
0.366475
0.360545
0.382043
0.372268
0.275178
0.269931
0.343054
0.249602
0.235729
0.111737
0.232446
0.150143
0.093748
0.148644
0.198832
0.140527
0.044373
-0.005753
0.107196
0.096531
0.089082
-0.032935
0.013615
-0.017434
0.054966
-0.051367
0.079822
0.013248
-0.053261
-0.126520
-0.069869
-0.003874
0.028452
0.070649
0.005959
0.033546
0.017954
-0.009819
-0.022780
0.008918
-0.046777
-0.008319
-0.003136
0.122078
-0.029570
0.005697
-0.037184
-0.042940
-0.057741
0.004344
0.064075
-0.078318
-0.087806
-0.013839
-0.039418
0.048195
0.024028
-0.007799
-0.029368
-0.100145
-0.062592
-0.002542
-0.042443
-0.040817
-0.005038
-0.023671
-0.001721
0.004743
-0.029048
-0.032291
-0.017355
-0.059003
0.005082
-0.056682
-0.035190
0.016739
0.070726
0.008033
-0.112376
-0.007200
0.035124
-0.036490
0.032888
-0.016331
-0.066470
-0.021676
-0.103210
-0.062141
-0.056595
0.127898
-0.002008
-0.010720
-0.010799
-0.049109
-0.029757
-0.015355
0.019567
0.015875
0.029726
0.014764
0.022126
0.021662
0.045885
0.026804
-0.026661
0.031896
0.048510
0.114810
0.057213
0.093651
0.131101
0.123041
0.072095
0.120344
0.097194
0.206415
0.114778
0.087710
0.186707
0.118052
0.110551
0.012263
0.133057
0.133914
0.105412
0.059052
0.096962
-0.020481
0.058152
0.024925
0.001052
-0.006493
-0.022265
-0.018499
-0.040250
-0.043260
-0.007749
-0.064856
0.024738
-0.066026
-0.032255
-0.094174
-0.046261
-0.010895
-0.012579
-0.084313
0.016811
-0.047533
-0.097743
-0.016286
-0.105103
-0.063034
-0.097389
-0.070156
0.004252
-0.117030
-0.191447
-0.089884
0.013448
0.131518
0.466243
0.736940
1.050969
1.267705
1.329263
1.129696
0.871207
0.596073
0.256578
-0.151289
-0.267814
-0.333204
-0.348290
-0.313281
-0.162427
-0.127542
-0.040111
-0.089624
-0.089281
-0.096430
-0.066987
-0.070891
-0.096646
-0.033294
-0.065374
-0.032076
-0.022480
-0.067638
-0.022830
0.056750
-0.059081
0.086821
-0.071175
-0.005570
0.053471
0.037533
0.001118
0.087109
0.019810
0.072154
0.034730
0.138005
0.183576
0.156872
0.144322
0.213081
0.261028
0.286774
0.278145
0.288980
0.341026
0.267476
0.311441
0.289244
0.290699
0.382987
0.429208
0.438533
0.393688
0.415504
0.419947
0.355306
0.395000
0.402884
0.459820
0.481249
0.385604
0.361097
0.406920
0.454153
0.285885
0.368491
0.351750
0.304874
0.347989
0.314696
0.221079
0.258421
0.220154
0.183548
0.225299
0.136725
0.150482
0.067531
0.185813
0.127472
0.025962
0.082729
0.121027
0.032462
0.062528
-0.050607
0.021946
-0.016383
0.064787
-0.057816
-0.047885
-0.036669
-0.177199
-0.059167
-0.026814
-0.068685
-0.136998
-0.056254
-0.059553
-0.129924
-0.171387
-0.060615
-0.033067
-0.110163
-0.034332
-0.054169
-0.052098
-0.144123
-0.075415
-0.071625
-0.122641
-0.114110
-0.049882
-0.026631
0.017285
-0.073474
-0.061229
-0.085767
-0.034436
-0.063550
-0.072688
-0.072682
-0.102785
-0.033594
-0.111033
-0.096659
-0.079097
-0.043006
-0.074419
-0.080946
-0.095547
0.034884
-0.069557
-0.097784
-0.033099
-0.063753
-0.169522
-0.076263
-0.076884
-0.071212
-0.032219
-0.085039
-0.036976
-0.056305
-0.050078
-0.131518
-0.076915
0.006997
-0.163071
-0.105151
-0.060730
-0.152030
-0.063401
-0.119110
-0.054369
-0.024893
-0.069440
-0.056000
-0.056114
-0.032762
-0.094494
-0.043695
-0.045693
-0.066278
-0.009285
-0.017793
-0.091045
-0.057437
-0.014670
-0.031069
0.046360
-0.014700
-0.012111
0.057571
0.023172
0.019977
0.066610
0.092481
0.100958
0.046350
0.131675
0.091425
0.075826
-0.001014
0.148934
0.141111
0.059697
0.160361
0.160504
0.124701
0.103701
0.061450
0.063489
0.085883
0.019893
0.117255
0.158012
0.033621
0.033347
0.051835
0.001343
0.067812
-0.038244
-0.003924
0.008391
-0.033264
-0.006015
0.009797
-0.052527
-0.020020
-0.010786
-0.068793
0.007852
-0.028824
-0.004193
0.007404
-0.051567
-0.049619
0.081259
0.044133
0.048804
-0.078485
-0.074976
0.006296
-0.066907
-0.041610
-0.004929
0.130480
0.347468
0.686449
0.990256
1.257707
1.333491
1.260518
1.058967
0.704567
0.374437
0.044874
-0.133862
-0.272737
-0.280268
-0.227755
-0.172225
-0.179404
-0.091209
-0.037204
-0.000811
0.141686
0.059822
0.033272
-0.051369
0.065007
0.024744
0.016163
-0.015477
-0.052416
0.020475
-0.042189
0.033788
0.055200
0.070992
0.032154
0.043191
0.101727
0.090415
0.077592
0.108816
0.081910
0.171504
0.134626
0.163022
0.211584
0.202255
0.245601
0.313533
0.312133
0.268108
0.328581
0.367284
0.302185
0.336193
0.447888
0.444064
0.376930
0.515365
0.505046
0.458803
0.488151
0.405484
0.526136
0.552424
0.416916
0.551479
0.496495
0.548191
0.491190
0.407387
0.473107
0.432570
0.433405
0.353558
0.389812
0.390885
0.299782
0.337475
0.324528
0.337324
0.307337
0.262053
0.232973
0.171739
0.153046
0.259017
0.232730
0.119799
0.118846
0.112890
0.120623
0.173126
0.077164
0.081838
0.111209
0.105513
0.049587
0.070030
0.054756
0.157645
0.086350
0.031005
0.060661
0.060334
0.079173
0.041301
0.037441
0.114285
0.077642
0.086814
0.070308
0.044664
-0.031718
-0.029229
-0.024842
0.026543
0.023030
0.026553
0.062238
0.005357
-0.026894
-0.007007
0.077313
-0.033019
0.012299
-0.010179
-0.030655
0.038016
0.077759
-0.052807
0.114615
-0.080383
0.033173
0.090258
0.081494
0.117353
-0.014044
0.079822
0.076496
-0.016271
0.050339
0.120857
0.046832
-0.016525
0.036034
0.006456
-0.040096
0.015529
0.069025
0.005788
0.031783
0.031038
0.030286
-0.002864
0.130463
0.074547
0.016803
0.031164
-0.024775
0.051871
0.077555
0.012051
0.028533
0.055477
0.027840
0.063028
0.057732
0.075918
0.076349
0.038431
0.060513
0.099389
-0.000542
0.159989
0.062534
0.089470
0.153074
0.084905
0.082179
0.062086
0.140834
0.188994
0.122937
0.139717
0.210644
0.199559
0.191680
0.090435
0.183918
0.240453
0.230460
0.230422
0.187333
0.222801
0.248456
0.191768
0.240122
0.221519
0.169154
0.219713
0.141005
0.174527
0.141908
0.169625
0.142586
0.106593
0.066156
0.113419
0.034209
0.144618
0.069760
0.091992
0.031413
0.084720
0.133710
0.052508
0.070920
0.045542
0.061000
-0.001490
0.099983
0.028111
0.042571
0.020862
0.034652
0.062709
0.007861
-0.014353
0.064495
0.029090
0.078860
0.048004
-0.002924
0.023607
0.170665
0.427576
0.665651
1.031221
1.221489
1.407077
1.461769
1.242869
0.936995
0.509744
0.297766
-0.022519
-0.177520
-0.276844
-0.231833
-0.099397
-0.060157
-0.042448
-0.015688
-0.022868
0.103835
0.015995
0.039946
0.106216
0.053072
0.064299
0.157546
0.041107
0.085388
0.082786
0.130376
0.082623
0.133958
0.064466
0.188196
0.109508
0.072055
0.168230
0.128369
0.162569
0.126802
0.242382
0.136346
0.308738
0.222760
0.315602
0.291561
0.305189
0.315591
0.275829
0.419752
0.402871
0.290682
0.401127
0.395433
0.497694
0.449889
0.465055
0.440587
0.541517
0.562335
0.617508
0.513502
0.594145
0.530026
0.413400
0.516595
0.517407
0.542859
0.504429
0.444740
0.520302
0.413548
0.449976
0.482560
0.397557
0.418619
0.389226
0.371488
0.345468
0.300713
0.341382
0.275471
0.284083
0.250178
0.176269
0.187766
0.177153
0.113696
0.080631
0.072436
0.089296
0.100859
0.032499
0.119164
0.070979
0.071592
0.040713
0.086798
0.037659
0.021566
-0.007861
0.024914
-0.008504
0.052693
-0.008494
-0.022975
0.013327
0.036401
0.080984
0.000572
-0.045010
-0.030598
0.010744
-0.014733
-0.003543
0.020633
-0.018500
0.046630
0.053785
0.000932
-0.007811
-0.069709
0.019131
-0.032749
-0.029182
-0.028433
0.024562
-0.008183
-0.005384
0.041842
0.010052
0.048297
0.056286
-0.020607
-0.062288
0.072873
-0.015623
0.000006
0.004051
-0.000568
-0.060751
-0.004143
0.032302
-0.129279
-0.025900
-0.017953
0.039644
-0.137967
-0.023773
0.029269
-0.042441
0.044285
-0.005671
-0.083466
-0.071455
-0.009114
-0.070130
-0.055130
0.014755
-0.041511
-0.038499
-0.045431
-0.054798
-0.068752
-0.045460
-0.005481
-0.123086
-0.087923
0.017905
-0.034882
-0.012775
-0.051939
0.001697
0.055913
0.040295
-0.023886
-0.019821
0.003950
0.079164
-0.045099
0.005236
-0.047548
0.080796
0.096116
0.092680
0.175391
0.133565
0.095848
0.088483
0.091311
0.132356
0.202046
0.140953
0.150375
0.129953
0.148164
0.107495
0.092345
0.068991
0.152355
0.066409
0.033193
0.038880
0.090873
-0.051942
0.009226
-0.047709
-0.034385
0.003461
0.052494
-0.041506
-0.049947
0.026285
-0.143955
-0.061998
-0.077629
-0.031410
-0.043186
-0.062639
-0.079481
-0.015810
0.013645
-0.111756
-0.072856
-0.009366
-0.103210
-0.037635
-0.110723
-0.137289
-0.098284
-0.094949
-0.096611
-0.166913
0.067766
0.126535
0.427206
0.745073
1.041097
1.245735
1.249187
1.182167
0.964899
0.581790
0.255552
-0.067208
-0.287852
-0.400762
-0.394347
-0.348933
-0.247856
-0.131071
-0.163925
-0.056570
-0.115868
-0.146771
-0.079014
-0.099515
-0.142390
-0.061564
-0.067539
-0.006039
-0.054320
-0.033886
-0.098643
-0.029539
-0.038605
-0.060151
-0.070644
0.003390
0.085120
0.044068
-0.003727
-0.001685
0.016685
0.056611
0.134051
0.124686
0.172255
0.131907
0.138512
0.208856
0.155642
0.228897
0.195989
0.190002
0.292722
0.283452
0.354831
0.356780
0.352088
0.385643
0.384706
0.423832
0.382619
0.445952
0.389536
0.478156
0.430880
0.439570
0.404320
0.488951
0.353081
0.369913
0.280689
0.383392
0.386181
0.352921
0.284588
0.256073
0.257246
0.258356
0.280122
0.287407
0.254847
0.208964
0.124680
0.076338
0.090132
0.075733
0.012701
0.037957
0.067528
0.018551
0.041626
-0.031551
-0.032531
-0.029706
-0.038200
-0.042282
-0.027966
-0.076695
-0.122911
0.009322
-0.104251
-0.036689
-0.029311
-0.053395
-0.079953
-0.059283
-0.047464
-0.156183
-0.106965
-0.107424
-0.148732
-0.117932
-0.070305
-0.043370
-0.121561
-0.093363
-0.082538
-0.115897
-0.057275
-0.067874
-0.030159
-0.131493
-0.088901
-0.134873
-0.123826
-0.137875
-0.049329
-0.145565
-0.108233
-0.125692
-0.074636
-0.119239
-0.148503
-0.013505
-0.118809
-0.086309
-0.084008
-0.052192
-0.022566
-0.085150
-0.024717
-0.133365
-0.117850
-0.101600
-0.165617
-0.076539
-0.101040
-0.207753
-0.118797
-0.057915
-0.095076
-0.107219
-0.041475
-0.025200
-0.080661
-0.139162
-0.078831
-0.068058
-0.066312
-0.019008
-0.094992
-0.078199
-0.146436
-0.062594
-0.100553
-0.046339
-0.078881
-0.075343
-0.165379
-0.204660
-0.085616
-0.086673
-0.096202
-0.130881
-0.084367
-0.112631
-0.041152
-0.171217
0.003504
0.024073
-0.037757
0.020007
0.053900
-0.114244
0.012613
0.064336
0.072904
0.039504
0.137889
0.070271
0.116042
-0.002032
0.039248
0.125453
0.082195
0.063445
0.049426
0.061827
0.042348
0.110101
0.085334
0.011100
0.041660
0.026637
0.015350
0.028059
-0.063602
0.039173
0.030128
-0.053395
-0.065916
-0.091288
-0.031979
-0.058299
-0.035662
-0.031400
-0.130092
-0.036002
-0.052344
-0.031786
-0.056147
-0.041374
-0.059540
-0.066170
-0.086191
-0.088021
-0.116277
-0.022856
-0.127778
-0.093470
-0.135560
-0.066159
-0.105450
-0.142413
-0.062017
0.089932
0.307984
0.639873
0.921567
1.275347
1.339808
1.340279
1.060390
0.774475
0.401079
0.140092
-0.141504
-0.371696
-0.401241
-0.288715
-0.263880
-0.156296
-0.050597
-0.026248
-0.045650
0.001708
-0.122138
0.028041
-0.094840
-0.033603
-0.045054
0.006267
0.002398
-0.011957
0.058938
-0.016653
-0.012159
0.107041
-0.009593
0.020894
0.025556
0.014212
0.022232
0.110971
0.103842
0.155610
0.121548
0.040065
0.161741
0.163089
0.212735
0.305763
0.281532
0.273165
0.270324
0.279514
0.269654
0.327818
0.397188
0.335715
0.424262
0.358105
0.450387
0.432711
0.434408
0.435829
0.532080
0.454373
0.532220
0.524915
0.501492
0.402340
0.505004
0.435943
0.407496
0.509879
0.414802
0.486906
0.392121
0.401498
0.429624
0.310272
0.297283
0.365897
0.342443
0.282623
0.207178
0.239563
0.122523
0.138973
0.229106
0.137607
0.081078
0.166456
0.079034
0.089080
0.111530
0.059412
0.084179
0.066631
-0.020280
0.006622
0.054883
-0.010074
0.010792
0.014390
0.064131
-0.054671
-0.025702
0.020266
0.034152
-0.026664
0.080115
0.016964
0.060436
-0.038692
0.000109
0.103312
0.072946
0.057139
0.032912
0.072680
0.000433
0.016673
-0.033158
0.009773
-0.050970
-0.026876
0.071176
0.022053
-0.033326
0.005920
0.061811
0.022782
0.015049
0.027582
0.034735
-0.003185
-0.033766
-0.030216
0.035897
0.074191
0.006867
0.049744
-0.053510
-0.018575
-0.045921
0.009523
0.064951
0.037832
0.123323
0.019011
0.013259
0.055338
0.090793
0.055512
0.061797
0.045210
0.030225
0.041550
0.056544
0.032045
0.037472
-0.009599
-0.019285
0.013363
0.103398
0.062821
0.015472
0.076394
0.044493
0.019907
0.109036
0.026662
0.040562
0.068711
0.002952
0.046387
0.052820
0.127904
0.129300
0.147724
0.090427
-0.002144
0.142134
0.065195
0.172640
0.215981
0.134847
0.143844
0.196137
0.176809
0.237937
0.220410
0.270690
0.209646
0.235937
0.233727
0.215059
0.242840
0.150868
0.178401
0.208621
0.145756
0.218226
0.139458
0.146470
0.171275
0.149943
0.104804
0.119867
0.027097
0.125377
0.093825
0.064246
0.180506
0.100469
0.075545
0.089612
0.027419
0.077049
-0.021224
0.096448
0.078873
0.005824
0.036386
0.156965
0.109576
0.045267
-0.002797
0.018907
0.030473
0.065416
0.044162
0.003276
0.001156
-0.013256
0.063786
0.020646
0.081192
0.318782
0.603848
0.933160
1.318848
1.359216
1.428592
1.298332
0.984559
0.675881
0.246111
0.064485
-0.133453
-0.254793
-0.163668
-0.166427
-0.078051
0.038162
0.022339
0.097630
0.052772
0.018346
0.143056
0.107532
0.018668
-0.028042
0.135930
0.081821
0.082055
0.078654
0.070740
0.046208
0.103942
0.136462
0.083939
0.139810
0.168147
0.183874
0.152779
0.141124
0.231083
0.226037
0.225092
0.271584
0.294388
0.295966
0.315382
0.366580
0.368003
0.390575
0.424026
0.348393
0.463659
0.458275
0.524075
0.459871
0.453339
0.499520
0.569857
0.513170
0.552639
0.557584
0.513106
0.585622
0.542835
0.572843
0.672216
0.521963
