-0.014532
0.086594
0.009559
0.002364
-0.078387
0.041071
0.010227
-0.016047
-0.002669
0.109679
-0.000430
-0.022575
-0.006259
0.055121
0.002041
-0.038660
0.024118
0.011795
0.044300
0.058111
0.003547
0.082645
0.033574
0.135266
0.042978
0.154045
0.141148
0.053692
0.105574
0.179948
0.200858
0.190419
0.122708
0.204251
0.217037
0.131789
0.151279
0.157265
0.225230
0.296011
0.156766
0.250104
0.232415
0.141562
0.211302
0.189509
0.153281
0.177759
0.092964
0.109271
0.177570
0.090104
0.127161
0.055723
0.172190
0.123670
0.083132
0.102604
0.051431
-0.005788
0.043420
0.106095
0.017047
-0.028092
0.053624
0.052760
0.002637
0.068476
0.087121
0.074327
0.026933
0.032730
0.041563
0.222331
0.454902
0.775209
1.142499
1.388526
1.415336
1.421864
1.107208
0.696278
0.365126
0.016892
-0.139604
-0.196097
-0.125692
-0.103051
-0.006830
0.071760
0.079450
0.095627
0.138316
0.139960
0.135641
0.124753
0.159912
0.164703
0.059784
0.144640
0.166122
0.188456
0.265743
0.210644
0.186468
0.216820
0.289044
0.286615
0.293271
0.289912
0.317800
0.328912
0.400943
0.541947
0.417557
0.380259
0.552958
0.470530
0.502772
0.514905
0.531820
0.514892
0.572616
0.649011
0.598208
0.588574
0.621963
0.557585
0.711899
0.583717
0.567079
0.606938
0.514259
0.588070
0.557905
0.492065
0.496064
0.512055
0.498863
0.422774
0.407741
0.445140
0.360659
0.306371
0.336493
0.335725
0.210903
0.307126
0.284798
0.267876
0.236313
0.176222
0.170770
0.134825
0.206423
0.166687
0.174031
0.070470
0.127653
0.141216
0.223745
0.080722
0.158242
0.222315
0.070405
0.084812
0.149962
0.153679
0.091527
0.179600
0.028864
0.076046
0.058825
0.053866
0.057809
0.122621
0.044335
0.086672
0.032239
0.128604
0.073940
0.110875
0.111848
0.114804
0.099362
-0.000301
0.090651
0.109680
0.043900
0.083295
0.026462
0.132461
0.071055
0.082993
0.163773
0.085538
0.096489
0.175561
0.050117
-0.039312
0.103276
0.129018
0.022441
0.095509
0.043802
0.090470
0.072655
0.110473
0.139776
0.027997
0.119919
0.087266
0.079505
0.010866
0.079944
0.126299
0.155077
0.081419
0.159136
0.157129
0.237863
0.192863
0.135025
0.233279
0.284572
0.238587
0.286020
0.154416
0.210369
0.266597
0.165317
0.230947
0.265926
0.273419
0.242221
0.209233
0.224157
0.304310
0.274041
0.339289
0.239225
0.180050
0.095598
0.235591
0.233812
0.238912
0.166290
0.163652
0.211519
0.180499
0.142469
0.080566
0.177202
0.156206
0.082208
0.077391
0.160815
0.045929
0.093756
0.009545
0.033091
0.098804
0.145430
0.086435
0.033779
0.038434
0.044906
0.102634
0.259013
0.563986
0.942439
1.178509
1.293943
1.468741
1.312841
1.048694
0.660584
0.344670
-0.006510
-0.139726
-0.201971
-0.101300
-0.090766
-0.035275
0.098267
0.054253
0.062772
0.131060
0.160959
0.134148
0.164653
0.102676
0.123109
0.157502
0.153554
0.188306
0.152425
0.198463
0.154328
0.244830
0.216295
0.273164
0.261340
0.276272
0.351993
0.388155
0.348362
0.385367
0.392602
0.396995
0.478173
0.419093
0.528363
0.449791
0.519476
0.487326
0.578288
0.589245
0.584441
0.510944
0.537130
0.546783
0.518772
0.578738
0.586363
0.600732
0.609604
0.510153
0.497091
0.487812
0.452678
0.353632
0.417960
0.343108
0.462765
0.301259
0.418735
0.317705
0.273010
0.307930
0.314498
0.389232
0.259487
0.292359
0.194982
0.254885
0.267121
0.210131
0.184829
0.126756
0.100208
0.184869
0.166297
0.163486
0.150401
0.029549
0.065596
0.045776
0.102459
0.031570
0.119782
0.124042
0.133708
0.049997
0.027604
0.127365
0.058132
0.044785
0.004483
0.032674
0.013039
0.031784
-0.045097
0.043512
0.030209
0.080280
0.020854
0.007258
0.029038
-0.019188
0.007907
0.051291
-0.039725
0.012272
-0.023767
0.068118
-0.073560
-0.079411
-0.071169
0.060244
0.033816
0.056995
-0.019232
0.032945
0.029345
0.064692
0.044382
0.011476
-0.038934
0.096590
0.044891
0.065877
0.043953
0.020588
0.023972
0.057504
-0.019228
0.043051
0.025446
0.059993
-0.004403
0.106351
0.045952
0.082959
0.060182
0.019364
0.095646
0.068155
0.099816
0.080956
0.114385
0.094734
0.145634
0.139740
0.219915
0.192998
0.092017
0.193302
0.155359
0.149386
0.213952
0.136985
0.151718
0.227468
0.191799
0.194913
0.096624
0.097223
0.088330
0.051726
0.022395
0.088885
0.053021
-0.026159
0.028821
0.040208
0.063628
0.031702
0.045769
0.018114
-0.042541
-0.041757
0.000213
-0.016173
-0.040486
-0.009117
0.004711
0.000510
-0.057091
-0.005698
-0.051274
-0.054959
0.113086
0.242376
0.455090
0.760160
1.205602
1.352866
1.423018
1.181292
0.936998
0.511575
0.118985
-0.170031
-0.227190
-0.283391
-0.150561
-0.147744
0.019460
-0.026008
-0.024534
-0.067289
-0.016106
-0.050809
0.029617
0.150466
0.133783
0.064894
0.023458
0.117187
0.105686
0.131877
0.126016
0.058458
0.108850
0.126262
0.160157
0.301508
0.282760
0.223815
0.226105
0.216551
0.253580
0.236484
0.383067
0.372817
0.370918
0.385673
0.424957
0.501763
0.322725
0.421768
0.510133
0.484296
0.475036
0.427314
0.490669
0.545336
0.444496
0.484589
0.499134
0.442155
0.463807
0.426677
0.445296
0.354572
0.322641
0.415388
0.360449
0.355470
0.326840
0.367890
0.243427
0.228134
0.205224
0.190683
0.149414
0.193896
0.117627
0.094416
0.104013
0.036561
0.057504
0.073490
0.064981
0.075759
0.010980
-0.036374
-0.040742
-0.007830
0.044513
0.006492
0.011379
0.025954
0.042768
-0.014324
0.038241
-0.022903
0.065264
-0.076383
-0.053459
0.006876
-0.053090
-0.114226
-0.025347
0.007623
-0.056717
-0.099975
-0.003482
-0.067066
-0.094169
-0.068846
-0.001497
-0.096445
0.013886
-0.090501
-0.024792
0.025719
-0.086854
-0.071371
-0.046069
-0.094947
-0.061524
0.073714
-0.075836
0.021041
0.037430
-0.042384
-0.036417
-0.082452
-0.080176
-0.080422
0.046058
-0.076020
-0.091110
-0.029986
-0.042912
-0.047970
-0.053498
0.048076
-0.098416
-0.053964
-0.088296
-0.062242
0.055227
0.003545
-0.024527
0.021529
-0.009770
0.031324
0.022291
0.142447
0.072920
0.027531
0.131328
0.175099
0.131472
0.056303
0.113633
0.107577
0.196477
0.129598
0.172250
0.191975
0.185595
0.192037
0.138988
0.161232
0.052718
0.106121
0.082900
0.079161
0.044091
0.018465
0.040709
-0.006947
0.011809
0.009192
-0.007065
0.005485
0.011730
0.028545
-0.026405
-0.075310
-0.035589
0.032520
-0.042897
-0.067587
-0.032710
-0.003677
0.023860
0.017276
-0.029767
-0.108753
-0.085322
-0.088541
-0.005567
0.107738
0.289506
0.567149
0.925509
1.183124
1.380770
1.380627
1.204158
0.929497
0.481133
0.078002
-0.088391
-0.248182
-0.224396
-0.249150
-0.036034
0.028454
-0.090240
0.018931
0.000617
-0.029452
0.062182
0.044407
0.051203
0.005092
0.036520
0.161389
0.092605
0.061451
0.130096
0.186254
0.170908
0.226501
0.215747
0.139806
0.275955
0.234238
0.299051
0.312090
0.346527
0.351131
0.336450
0.367124
0.374846
0.449920
0.471471
0.460534
0.445923
0.450340
0.505532
0.559629
0.461840
0.490549
0.425614
0.518055
0.526066
0.521493
0.553867
0.499062
0.494968
0.512353
0.487623
0.560442
0.456569
0.497697
0.425276
0.331350
0.379791
0.360285
0.256723
0.320218
0.230114
0.301081
0.289353
0.269180
0.275008
0.305300
0.166246
0.073567
0.127870
0.130427
0.096787
0.113485
0.128113
0.121660
0.062875
0.089374
0.047605
0.054285
-0.001823
0.060174
0.032894
0.079221
0.037633
0.081757
-0.026674
0.025116
0.016145
-0.018740
0.020412
0.000144
0.001073
0.020349
-0.018788
0.057713
0.042266
0.086364
0.040305
-0.012322
-0.039649
0.083936
0.095734
0.059795
0.030386
0.010408
0.009762
-0.000514
0.038746
0.049600
0.066841
0.009227
0.038103
-0.013238
0.048578
0.003736
0.046964
-0.009690
0.075389
0.090816
0.035966
0.067434
0.016378
0.038926
0.112286
0.032437
0.095226
0.016315
-0.017482
0.041824
0.063966
0.105065
0.076619
0.098320
-0.006507
0.087595
0.140896
0.070553
0.170051
0.130013
0.152258
0.105651
0.111849
0.293150
0.223887
0.159129
0.233811
0.213022
0.220653
0.217236
0.270297
0.220353
0.304000
0.254715
0.221205
0.231273
0.223690
0.188359
0.180393
0.290787
0.082284
0.229077
0.176783
0.157428
0.151472
0.152146
0.130505
0.154446
0.223523
0.121704
0.126750
0.098529
0.109741
0.104962
0.016740
0.084307
0.140697
0.105312
0.019844
0.104190
0.084654
0.123557
0.124879
0.064650
0.030509
0.015978
0.238305
0.426014
0.751022
1.007113
1.394759
1.500000
1.436785
1.198550
0.774995
0.483223
0.116035
-0.139750
-0.209626
-0.203279
-0.027591
-0.013030
0.048591
0.105299
0.170601
0.134008
0.188054
0.163255
0.106275
0.125748
0.156989
0.136912
0.090650
0.191648
0.214628
0.300388
0.243317
0.320808
0.231583
0.257508
0.255328
0.432105
0.346894
0.310296
0.403457
0.446526
0.411915
0.432759
0.491764
0.489424
0.415695
0.494926
0.623660
0.608512
0.494150
0.595153
0.563217
0.658868
0.601329
0.656968
0.656674
0.571794
0.593724
0.639743
0.630530
0.598842
0.560863
0.638381
0.615400
0.447828
0.481864
0.440954
0.488552
0.469533
0.381346
0.425768
0.424768
0.436789
0.386380
0.341523
0.274630
0.333750
0.379149
0.343135
0.213717
0.159220
0.199317
0.141310
0.152431
0.209500
0.160220
0.211321
0.106363
0.165906
0.109657
0.120884
0.165056
0.096480
0.101217
0.113261
0.080325
0.056655
0.065905
0.091515
0.150651
0.113145
0.123867
0.003307
0.153869
0.044385
0.062674
0.074305
0.114047
0.133175
0.079549
0.142080
0.097179
0.181450
0.075322
0.090204
0.126956
-0.000346
0.065666
0.155128
0.106065
0.156075
0.077934
0.101846
0.100475
0.115882
0.177738
0.098183
0.162463
0.148041
0.083766
0.111282
0.038769
0.136491
0.148514
0.026817
0.074694
0.124868
0.030985
0.136574
0.178934
0.059046
0.188091
0.109021
0.123063
0.013701
0.154965
0.077362
0.199028
0.204742
0.179406
0.209490
0.173700
0.180878
0.145283
0.258381
0.259672
0.249861
0.327476
0.242019
0.247204
0.286070
0.231852
0.247603
0.271878
0.270295
0.228499
0.213230
0.337413
0.165597
0.160445
0.253890
0.221570
0.192445
0.222733
0.117453
0.129292
0.230169
0.171856
0.039328
0.206954
-0.006526
0.186246
0.128125
0.087472
0.070266
0.074200
-0.029763
0.138589
0.094201
0.048209
0.093974
0.063225
0.046743
0.053029
0.054043
0.030905
0.225888
0.375440
0.734071
1.128906
1.351559
1.394937
1.397622
1.170144
0.766056
0.423727
0.016057
-0.116372
-0.141658
-0.146599
-0.068850
-0.075945
0.095468
0.033621
0.083724
0.161147
0.090694
0.070206
0.083792
0.122430
0.189310
0.150925
0.119282
0.141347
0.092590
0.177080
0.185487
0.199327
0.273063
0.284998
0.235304
0.270326
0.226694
0.266692
0.383671
0.336805
0.377109
0.357091
0.409033
0.542835
0.557362
0.499155
0.435388
0.513564
0.461637
0.614820
0.581393
0.469529
0.604979
0.593608
0.573517
0.478814
0.523534
0.633896
0.495350
0.557719
0.512768
0.499857
0.484836
0.499020
0.371263
0.453444
0.443594
0.356485
0.335589
0.353892
0.312472
0.313254
0.297622
0.236453
0.201667
0.156098
0.205291
0.241920
0.159931
0.110460
0.180892
0.133037
0.117515
0.020060
0.087663
0.065672
0.002892
0.061587
-0.006531
0.016674
-0.044243
0.012071
0.009654
0.019017
-0.020926
0.006139
-0.016247
0.057007
-0.055008
-0.049025
-0.004721
-0.025696
-0.042482
-0.000263
0.007896
-0.043704
0.032907
-0.046308
-0.024083
0.012555
0.018743
-0.000240
0.061282
-0.036346
-0.022226
-0.044898
-0.022624
0.003334
0.040864
-0.001830
-0.013454
-0.037047
-0.006843
-0.011584
-0.050399
-0.057986
0.014233
-0.052602
0.040012
0.010147
0.024979
-0.006880
0.012195
0.043674
-0.060775
0.050090
-0.105201
-0.033463
-0.028622
-0.090353
0.038860
0.026674
0.037828
-0.086579
-0.045753
-0.009438
0.013364
-0.082180
-0.025957
-0.028598
0.125382
0.047182
-0.034540
0.108659
0.079353
0.124191
0.079644
0.136553
0.110492
0.071858
0.122273
0.076223
0.123220
0.073008
0.152271
0.180640
0.026663
0.100145
0.151580
0.029393
0.113930
0.084811
0.098394
0.084607
0.024325
-0.028981
0.067088
-0.069366
0.000998
-0.019738
-0.021997
-0.030155
-0.046821
-0.019009
-0.103424
-0.151750
-0.001813
-0.019182
0.021633
-0.028834
-0.011114
-0.034157
-0.086439
-0.064224
0.026394
0.076645
0.388646
0.715148
0.982762
1.328828
1.361372
1.213905
0.889235
0.573729
0.245397
-0.123318
-0.210798
-0.187250
-0.317559
-0.118885
-0.109992
-0.068483
-0.081312
-0.082455
0.001616
-0.036390
-0.031463
0.017420
0.008224
0.096633
0.056311
0.097217
0.088931
0.059388
0.095513
0.064509
0.101995
0.087752
0.082717
0.121424
0.159363
0.162833
0.152149
0.292577
0.243541
0.282289
0.334620
0.257264
0.391676
0.350902
0.320477
0.356336
0.441081
0.476458
0.420828
0.440239
0.446668
0.399006
0.454094
0.424086
0.413436
0.321418
0.413636
0.476899
0.441737
0.380452
0.340241
0.336760
0.381645
0.294845
0.295561
0.249009
0.169076
0.228262
0.248597
0.231670
0.135283
0.244888
0.142841
0.088600
0.090628
0.113851
0.005662
0.047723
0.003500
0.041380
0.009242
-0.054360
0.033167
-0.008147
0.014281
-0.006507
-0.082043
-0.059293
-0.086800
0.031751
-0.114664
-0.065465
-0.061497
-0.006492
-0.123598
-0.090279
-0.073900
-0.055569
-0.030441
-0.026994
-0.038780
-0.067202
-0.053179
-0.147980
-0.085669
-0.089934
-0.196563
-0.135341
0.003347
-0.110996
-0.160204
-0.061954
-0.007746
-0.098180
-0.008548
-0.055343
-0.071420
-0.025855
-0.156234
-0.021023
-0.099417
-0.105916
-0.130426
-0.087098
-0.074620
-0.024175
-0.080520
-0.087916
-0.008843
-0.022429
0.016417
-0.103517
-0.098248
-0.051435
-0.005259
-0.035293
-0.073325
-0.059795
-0.103553
-0.103492
-0.062539
-0.108976
-0.066074
-0.003444
0.049805
-0.076912
-0.044992
-0.014873
-0.016448
-0.030002
0.076507
-0.006940
0.079903
0.075135
0.142869
0.078790
0.044708
0.092849
0.051888
0.113026
0.106140
0.146766
0.101733
0.070602
0.110950
0.102948
0.116607
0.137826
0.061340
0.061627
0.026671
0.037294
0.094700
0.011467
-0.054924
-0.003880
-0.040359
-0.001689
-0.042137
-0.071742
-0.045781
-0.010456
-0.094099
-0.068476
-0.095396
-0.043685
-0.092498
-0.060916
-0.134235
-0.068856
-0.070152
-0.013399
-0.039036
0.048063
0.202552
0.471627
0.715253
1.054428
1.359936
1.347563
1.192689
0.867273
0.494506
0.113564
-0.128009
-0.316914
-0.236002
-0.304634
-0.235927
0.021020
-0.005882
-0.060060
0.024230
0.031442
-0.025125
0.042892
-0.039644
0.008659
-0.029833
0.124186
0.054506
0.063108
0.127499
0.013696
-0.028827
0.136548
0.138816
0.198530
0.163001
0.148648
0.262626
0.227609
0.179229
0.312200
0.395427
0.317864
0.361791
0.362743
0.308072
0.334001
0.388258
0.451793
0.446807
0.592082
0.448356
0.494086
0.516409
0.444635
0.418337
0.449736
0.505398
0.474172
0.483280
0.488468
0.482342
0.403958
0.357126
0.393757
0.433082
0.293852
0.428991
0.291186
0.264582
0.274673
0.267539
0.209951
0.203878
0.203481
0.224154
0.211613
0.091354
0.107104
0.146105
0.119486
0.126142
0.060364
0.029611
-0.007961
0.129105
0.068779
0.015258
0.013104
0.036680
0.004559
-0.024296
0.138026
0.014707
-0.027617
0.005647
-0.039765
-0.005319
-0.010892
-0.047464
0.054075
0.022462
0.038416
-0.001096
0.023321
-0.038471
-0.075347
-0.030796
-0.002875
0.048838
-0.028461
-0.070251
-0.009769
0.070534
0.040339
0.041529
0.017392
0.004537
0.089372
0.065232
-0.030275
-0.013752
-0.007004
0.015571
0.003429
0.035630
-0.044391
0.008609
0.020960
-0.047756
-0.046662
0.033324
0.027075
-0.008101
-0.051567
-0.000438
-0.062498
0.045920
0.068134
-0.017141
0.000259
0.069013
0.006199
0.104898
0.010393
0.080420
0.121930
0.104001
0.099993
0.138845
0.113446
0.136648
0.134925
0.087539
0.133984
0.143428
0.186042
0.200825
0.149868
0.269273
0.176155
0.250688
0.174622
0.185895
0.179239
0.207647
0.275498
0.217835
0.104784
0.088073
0.170426
0.222888
0.190375
0.076057
0.036867
0.119635
0.045680
0.071825
0.080975
0.120053
-0.019626
0.046262
0.068083
0.069224
0.009084
0.078020
-0.025830
-0.031770
0.006766
0.071105
-0.007753
-0.020771
0.031748
0.066219
0.083831
0.183316
0.344131
0.605106
0.893986
1.227186
1.454091
1.400311
1.246345
0.902297
0.453600
0.134119
-0.027389
-0.247487
-0.122784
-0.206007
0.029001
0.020484
0.002774
0.136338
0.034379
0.095688
0.106804
0.081835
0.103524
0.146245
0.127350
0.061410
0.151163
0.118041
0.153228
0.198345
0.207040
0.164080
0.248349
0.188985
0.274170
0.268830
0.315749
0.344417
0.317682
0.421879
0.417668
0.430265
0.430255
0.442381
0.496117
0.512694
0.548418
0.479623
0.569142
0.627938
0.594353
0.511472
0.651288
0.556454
0.588298
0.535270
0.560541
0.619665
0.655587
0.460833
0.468076
0.508254
0.510204
0.432175
0.576274
0.394678
0.414919
0.320462
0.300998
0.346672
0.400503
0.266146
0.266049
0.228343
0.245037
0.163955
0.228896
0.174506
0.216327
0.169610
0.222530
0.157002
0.104178
0.178917
0.098219
0.190835
0.093424
0.020998
0.047305
0.096394
0.144816
0.040822
0.075868
0.110571
0.115515
0.085360
0.029313
-0.013332
0.107347
0.057891
0.057892
0.051601
0.070922
0.058579
-0.030369
0.043343
0.080090
0.011422
0.055570
-0.042720
0.039640
-0.007653
0.048480
0.003524
0.088858
0.157520
0.036916
0.028135
0.005928
0.040495
0.005525
0.069115
0.051070
0.044602
0.035051
0.012475
0.022234
0.041732
0.102794
0.096038
0.022255
0.101342
0.096412
-0.011319
0.102290
-0.012603
0.002753
0.041838
0.072944
-0.021757
0.076615
0.024131
0.033969
0.099323
0.060914
0.032833
0.138899
0.113573
0.167210
0.172881
0.176360
0.079058
0.124489
0.148766
0.179356
0.225668
0.185686
0.249947
0.148865
0.153606
0.118522
0.142099
0.138221
0.185915
0.142596
0.246400
0.179314
0.091608
0.136191
0.182613
0.169394
0.148844
0.130193
0.018337
0.048402
0.144465
0.028140
0.119713
0.107379
0.019198
0.050571
0.061904
0.075277
0.041370
0.060944
-0.016795
0.079252
0.039630
-0.009809
0.011355
-0.010940
-0.009571
0.004980
0.123512
0.172504
0.283895
0.638141
0.946318
1.236311
1.429957
1.398397
1.163431
0.824660
0.323176
0.069709
-0.191956
-0.168090
-0.199777
-0.225796
-0.145888
-0.005328
-0.004837
0.075521
-0.040619
0.060332
-0.013311
0.053446
0.054303
0.093573
0.058825
0.156627
0.085181
0.125046
0.059802
0.211120
0.114642
0.210550
0.205971
0.208191
0.205002
0.197366
0.294353
0.205614
0.255720
0.359348
0.327016
0.436211
0.462081
0.338331
0.471390
0.416655
0.382492
0.433453
0.484936
0.540184
0.419374
0.529709
0.539341
0.390940
0.527831
0.526312
0.483023
0.448492
0.488657
0.479655
0.474267
0.493445
0.406928
0.324977
0.361209
0.359372
0.336212
0.275679
0.274151
0.223595
0.270554
0.256986
0.151427
0.181610
0.206052
0.141043
0.094934
0.041234
0.087624
0.113552
0.009683
0.000389
-0.015098
0.095865
-0.014990
0.040400
-0.035003
-0.045128
-0.009251
0.030053
0.099694
-0.051081
-0.069252
-0.020257
-0.020183
-0.063235
-0.065454
-0.039171
-0.067732
-0.003290
-0.053569
0.013771
-0.032623
-0.042765
0.071256
-0.003849
-0.047678
-0.064971
-0.097364
-0.054512
-0.056144
-0.041285
-0.113217
0.003021
-0.026644
-0.099880
-0.019937
-0.097400
-0.095647
0.004911
-0.021055
-0.076660
-0.077615
-0.036247
-0.037679
-0.096214
-0.105389
-0.081222
-0.089766
-0.041415
-0.016483
-0.069411
-0.061138
-0.094220
0.024459
-0.062260
-0.114780
-0.119337
-0.017845
-0.108616
-0.095604
0.033429
-0.078491
0.052231
-0.009222
-0.041321
-0.001577
-0.012058
-0.034182
0.032121
0.002177
0.098883
0.065335
0.062258
0.140552
0.055536
0.049955
0.145765
0.121588
0.156505
0.119852
0.117258
0.127668
0.141117
0.106824
0.045914
0.147983
0.078042
0.125381
-0.059650
0.091239
0.053026
0.002139
-0.052880
0.012933
-0.023143
-0.047898
-0.104390
-0.097448
-0.049749
-0.091177
-0.067789
-0.100605
0.050016
-0.166790
-0.073401
-0.075290
-0.074296
-0.056443
-0.146154
-0.163937
-0.094372
-0.105107
-0.065811
0.043679
0.310038
0.605568
0.894472
1.171161
1.253764
1.199351
1.000755
0.632760
0.237247
-0.151415
-0.174041
-0.419706
-0.228435
-0.275350
-0.181953
-0.168508
-0.090224
-0.013151
-0.160519
-0.069509
-0.116423
-0.045299
0.034655
-0.066484
-0.007504
-0.108110
0.011576
0.111688
-0.017726
0.070156
0.099040
0.025785
0.114450
0.154420
0.113811
0.138085
0.226051
0.221157
0.241817
0.254348
0.237246
0.265295
0.322758
0.289612
0.343663
0.385492
0.450381
0.422606
0.432182
0.384435
0.460701
0.472199
0.399549
0.355280
0.381071
0.468158
0.353188
0.332312
0.368039
0.349287
0.391410
0.324558
0.336169
0.264323
0.274008
0.411908
0.233459
0.230079
0.310044
0.146405
0.130614
0.146129
0.131338
0.114371
0.091899
0.068636
0.064374
-0.034316
0.037483
0.064366
0.023073
-0.004315
-0.016900
-0.042721
0.014934
-0.118732
0.007462
-0.079046
-0.062607
-0.049704
-0.030909
-0.060291
-0.072168
-0.084308
-0.094258
-0.039581
-0.065074
-0.089857
-0.089729
-0.069338
-0.181380
-0.113618
-0.046793
-0.188886
-0.139009
-0.057267
-0.070271
-0.149216
-0.105240
-0.045662
-0.133831
-0.134363
-0.048674
-0.093437
-0.021492
-0.134721
-0.102282
-0.074077
-0.049953
-0.051337
-0.058158
-0.001043
-0.159379
-0.058645
-0.121286
-0.160187
-0.061284
-0.049487
-0.036911
-0.122185
-0.065190
-0.118076
-0.109146
-0.065834
-0.082248
-0.104616
-0.051626
-0.009017
-0.033699
0.015549
-0.064572
-0.148022
-0.028256
-0.039472
-0.019920
-0.021401
0.012272
0.030734
0.025835
-0.014944
0.015732
0.006926
0.006432
0.019549
0.066088
0.117401
0.091560
0.049963
0.090073
0.136932
0.145522
0.104077
0.149700
0.172542
0.144651
0.082595
0.068177
0.067437
0.098351
0.110630
0.120537
-0.034776
0.067145
-0.025265
0.031825
-0.017440
0.032244
0.034663
0.003819
-0.123449
-0.093064
0.007678
-0.060804
-0.088768
0.011495
-0.088486
-0.059221
-0.114268
-0.019435
-0.084302
-0.052327
-0.055164
-0.103954
0.014364
0.184356
0.434017
0.760780
1.090460
1.244622
1.344833
1.230342
1.046933
0.549786
0.299612
-0.062998
-0.257953
-0.212962
-0.299613
-0.128443
-0.131800
-0.113176
-0.052870
0.035691
-0.034704
0.068941
0.044164
0.053702
0.066843
0.044819
-0.017212
0.055466
0.062385
0.171721
0.172194
0.172087
0.191096
0.119025
0.218515
0.165966
0.267544
0.211876
0.220373
0.309388
0.276848
0.304053
0.365685
0.354357
0.415696
0.450947
0.400732
0.413860
0.490796
0.519846
0.467577
0.378877
0.463593
0.396129
0.529640
0.499902
0.487331
0.421142
0.522067
0.553095
0.449073
0.416557
0.456036
0.406085
0.374352
0.415856
0.395921
0.377685
0.396212
0.245519
0.300580
0.279831
0.227214
0.223131
0.169017
0.167908
0.183433
0.215268
0.208355
0.163624
0.108994
0.038927
0.094633
0.107768
0.110311
0.026558
0.136702
0.136200
0.065004
-0.002385
0.029446
-0.011666
0.014295
0.048648
0.041313
-0.052999
0.060874
0.039448
0.005679
0.102930
-0.040939
-0.013540
-0.023010
0.024073
0.011820
0.056352
0.007298
-0.048345
-0.001808
-0.009146
0.003725
0.041634
-0.016730
0.010551
0.060989
-0.026885
0.013158
0.099965
0.029422
-0.008191
0.038488
-0.042477
0.022859
0.065535
0.077925
0.036946
0.005377
0.007805
0.003796
0.032600
0.018230
0.041650
0.009401
0.048951
0.025272
0.081622
0.063358
0.000399
-0.043479
0.085405
0.042393
0.088493
0.051937
0.067269
0.101447
0.056144
0.055426
0.165879
0.053380
0.128176
0.137235
0.117455
0.185039
0.198643
0.183974
0.207930
0.258225
0.266863
0.286389
0.186257
0.197455
0.198802
0.242197
0.287038
0.186471
0.239704
0.262235
0.228226
0.188543
0.236753
0.067341
0.169529
0.189228
0.167257
0.180538
0.072124
0.180240
0.138279
0.138072
0.152076
0.062709
0.058512
0.134156
0.017025
0.097676
0.008506
0.178727
0.097606
0.033123
0.014886
0.097207
0.083853
0.035768
0.112289
0.215081
0.187203
0.319173
0.527237
0.890176
1.225036
1.390740
1.458826
1.280956
0.989126
0.547563
0.250744
-0.001635
-0.059915
-0.198559
-0.126234
-0.128969
0.050620
0.122174
0.069204
0.114441
0.111495
0.124587
0.037425
0.036159
0.166877
0.096085
0.197306
0.252322
0.149238
0.230567
0.153735
0.249690
0.292510
0.257269
0.313546
0.350170
0.281544
0.382138
0.352588
0.413568
0.403582
0.460097
0.305365
0.397741
0.407334
0.481655
0.537627
0.498033
0.500383
0.541636
0.568050
0.588006
0.637541
0.706249
0.573231
0.568708
0.594654
0.624726
0.634655
0.595026
0.579526
0.561452
0.516960
0.423180
0.457563
0.487034
0.461406
0.419298
0.429277
0.340932
0.372373
0.335739
0.297939
0.312641
0.254414
0.237219
0.226417
0.233224
0.254492
0.227854
0.154413
0.192723
0.153151
0.132023
0.068385
0.196160
0.178536
0.080531
0.145237
0.000141
