-0.006966
-0.051905
0.018009
0.043908
0.026797
0.046512
-0.010045
-0.025990
0.089764
-0.009498
-0.003939
-0.027217
0.055922
-0.057175
0.015823
0.040847
0.025423
0.009995
0.026244
-0.065584
0.043923
-0.023286
0.088790
0.019912
0.006257
0.017806
-0.018707
0.022823
0.070463
0.015260
0.048077
0.042161
0.006818
0.014198
0.044960
-0.004761
0.080759
0.065649
0.056679
0.174249
0.065963
0.044815
0.047846
0.156709
0.156472
0.043050
0.132958
0.095233
0.145094
0.179221
0.211186
0.186382
0.128546
0.216674
0.223146
0.139166
0.130296
0.201306
0.161064
0.139421
0.205357
0.165330
0.191499
0.142400
0.099534
0.171578
0.066773
0.122350
0.106138
0.151478
0.055996
0.128441
0.108275
0.102364
0.032745
-0.023918
0.066507
0.069886
0.069970
0.054799
0.017302
0.130570
0.078365
0.055239
-0.031617
0.096881
0.073811
0.053668
0.060135
0.032391
0.090942
0.141954
0.078426
0.021738
0.030194
0.035175
0.107247
0.080859
0.097935
0.044605
0.033163
0.018550
-0.010406
-0.019473
0.230694
0.476740
0.751908
1.147451
1.383806
1.475602
1.500000
1.215993
0.893410
0.559186
0.407761
-0.013985
-0.137317
-0.241077
-0.306845
-0.157094
-0.019612
-0.098812
-0.035648
0.001971
0.022439
0.008661
0.047324
0.023708
0.092148
0.085357
0.100657
0.047454
0.087763
0.096272
0.047507
0.053329
0.059862
0.098588
0.116242
0.143305
0.092305
0.095521
0.168266
0.103165
0.212416
0.149011
0.158913
0.110443
0.163803
0.092880
0.181861
0.176802
0.177563
0.238508
0.206679
0.225964
0.255138
0.305264
0.298738
0.279169
0.397095
0.242270
0.368476
0.328237
0.418290
0.410229
0.514576
0.458949
0.459692
0.499123
0.578660
0.517289
0.541543
0.602963
0.584540
0.559631
0.575568
0.639936
0.567582
0.562585
0.612937
0.586816
0.573027
0.536871
0.537990
0.514441
0.480661
0.459773
0.481032
0.437076
0.463518
0.450777
0.443583
0.372168
0.316224
0.387338
0.310347
0.273788
0.280278
0.249245
0.187106
0.260296
0.231209
0.205792
0.126364
0.135383
0.133504
0.080198
0.109232
0.250333
0.056011
0.086012
0.182966
0.101877
0.194257
0.064889
0.114120
0.140322
0.118312
0.056384
0.175691
0.135615
0.106167
0.012873
0.042786
0.148707
0.088060
0.105178
0.076794
0.040119
0.130089
-0.010987
0.121932
0.108668
0.108414
0.093940
0.031609
0.101905
0.114911
0.067565
0.046007
0.134692
0.067546
-0.004446
0.066317
0.087172
0.056933
0.023724
0.064000
0.137015
0.083358
0.120731
0.098568
0.089535
0.029234
0.100162
0.162940
0.063520
0.042471
0.116848
0.009355
0.037102
0.089392
0.070930
0.116773
0.112096
0.084686
0.071508
0.014371
0.075515
0.045539
0.022740
0.009957
0.086346
0.067663
0.036751
0.083979
0.122806
-0.048144
0.098090
0.016552
0.085726
0.000757
0.032945
0.120255
0.039100
0.097944
0.036987
0.071041
0.020548
0.080225
0.100323
0.010966
0.026498
0.006635
0.066430
0.068833
0.034690
0.064598
0.122761
0.053860
0.126356
0.081230
0.047123
0.049806
0.034369
0.097624
0.167658
0.132528
0.034722
0.094861
0.144532
0.150312
0.112243
-0.003524
0.205823
0.205743
0.204560
0.093145
0.089977
0.229017
0.226285
0.088536
0.177785
0.131444
0.225403
0.208677
0.239690
0.242203
0.247256
0.241522
0.148229
0.123641
0.136683
0.187465
0.203042
0.174928
0.182616
0.106464
0.098888
0.180148
0.170019
0.120873
0.003670
0.032683
0.114439
-0.020059
0.076769
0.093478
0.029913
0.109144
0.048814
0.013636
0.160422
0.051670
0.081550
0.056767
0.069098
0.032663
0.125502
-0.023314
-0.008455
0.041917
-0.004237
-0.055343
0.027115
0.068515
0.023013
-0.014945
0.042175
0.090612
-0.045413
-0.005039
-0.036670
-0.092090
-0.076576
0.055727
0.212066
0.538647
0.796412
1.184940
1.393163
1.447048
1.353780
1.145105
0.762762
0.507658
0.146100
0.019523
-0.273752
-0.269127
-0.341789
-0.249086
-0.248276
-0.023735
-0.049493
-0.010901
0.013120
0.002040
-0.027945
0.118404
0.000792
0.066432
0.056700
-0.047948
-0.011498
0.008851
0.087792
0.028542
0.003783
-0.012477
-0.004036
0.083750
0.053491
0.063544
0.076561
0.040325
-0.001905
0.025145
0.027327
0.040770
0.153124
0.030303
0.178490
0.045316
0.034891
0.075595
0.166223
0.174336
0.205064
0.137841
0.188862
0.210745
0.319958
0.391543
0.351467
0.317613
0.363081
0.347650
0.436115
0.415490
0.395043
0.453955
0.470886
0.483790
0.367036
0.482973
0.490167
0.458465
0.483305
0.454970
0.443148
0.475346
0.443161
0.459499
0.457301
0.412026
0.405596
0.463459
0.398129
0.373885
0.371552
0.360865
0.337990
0.323381
0.225992
0.150657
0.293773
0.246940
0.188247
0.200456
0.235878
0.124034
0.141310
0.170747
0.054052
0.080933
0.064105
0.003186
0.030185
0.008607
0.047035
0.066388
0.048811
-0.040396
-0.000900
0.062379
-0.030538
-0.040029
0.052816
0.061412
-0.009452
0.027463
0.022380
-0.020431
-0.025689
-0.073516
-0.066737
0.012263
-0.001198
-0.055144
-0.081602
-0.019417
-0.084833
-0.022537
-0.036505
-0.105465
-0.058261
-0.018453
-0.072025
-0.085250
-0.076833
-0.021885
-0.009004
-0.078675
-0.016015
-0.115510
-0.013544
0.008280
0.006436
-0.088481
0.024001
-0.072655
0.060880
-0.080761
-0.023007
0.016439
-0.133008
-0.042776
-0.004524
-0.064619
0.002853
-0.137912
0.005496
-0.087376
-0.091657
-0.050609
-0.047891
-0.038083
-0.074527
-0.046798
-0.100156
-0.043658
0.007287
-0.061322
-0.024316
-0.054235
-0.010149
-0.077585
-0.039978
-0.058310
-0.063485
0.033073
-0.050989
-0.055152
-0.054477
-0.025186
-0.025923
-0.065426
-0.090875
-0.009261
-0.079430
-0.000953
-0.054222
-0.014348
-0.048405
-0.033933
0.014202
-0.017163
0.056399
-0.048178
-0.098089
-0.044886
0.000786
-0.047639
-0.000687
-0.080083
0.025909
-0.000647
0.007115
-0.054857
-0.009571
0.013982
0.004024
0.001096
-0.105506
0.005396
-0.023503
0.066918
0.037257
0.113262
0.045649
0.131025
0.017904
0.126286
0.130324
0.048726
0.112023
0.110303
0.168091
0.092163
0.113778
0.088928
0.110006
0.022176
0.123644
0.122602
0.069695
0.085696
0.152215
0.081949
0.072238
0.085682
0.052693
0.030762
0.003808
-0.036431
0.056759
-0.071273
-0.018889
-0.012462
-0.028856
-0.021957
-0.110496
-0.019371
-0.030353
0.001213
-0.155650
-0.035858
0.030791
0.044332
-0.055933
-0.020397
-0.085143
-0.011771
-0.027625
-0.047082
0.066888
0.022991
-0.039497
-0.070372
-0.046745
-0.169552
-0.014171
-0.064489
-0.060592
-0.078863
-0.123193
-0.070567
-0.039693
0.246700
0.520100
0.887140
1.169987
1.289819
1.356054
1.225498
1.039304
0.581976
0.268317
-0.017010
-0.137467
-0.246237
-0.291437
-0.293265
-0.317084
-0.104562
-0.138302
-0.028481
-0.065732
0.022640
-0.032544
-0.029736
0.019377
-0.059405
0.002707
-0.021246
-0.019890
0.086161
0.092112
0.051405
-0.005800
0.004415
0.023580
-0.048571
0.045566
0.054392
-0.035460
0.062466
0.045253
0.041599
-0.000910
0.100215
0.016269
0.071502
0.056777
0.126123
0.102990
0.093350
0.063624
0.162418
0.168365
0.259300
0.175672
0.210775
0.290083
0.229751
0.293601
0.342217
0.364830
0.342859
0.396644
0.402705
0.469409
0.481976
0.402339
0.467670
0.403624
0.424127
0.495338
0.489226
0.545736
0.491234
0.450976
0.430318
0.472388
0.484656
0.500234
0.542443
0.485308
0.455753
0.413171
0.415584
0.426977
0.389564
0.354579
0.378505
0.354219
0.306371
0.312869
0.248493
0.291902
0.220000
0.178383
0.277471
0.206376
0.126576
0.034449
0.156914
0.100006
0.146608
0.138552
0.173482
0.077514
0.133395
0.048342
0.049511
0.035594
0.026646
0.109210
0.072243
0.042933
0.058082
0.045907
0.050595
0.046511
0.092914
0.021583
0.104938
0.103931
0.031431
0.077585
0.002024
0.008577
0.102926
0.086298
0.038837
-0.027123
0.139024
0.101375
0.003021
-0.042088
-0.025033
0.108186
-0.004504
0.039972
-0.049512
0.034772
-0.024046
0.035053
0.062496
-0.021366
0.072587
-0.012947
0.012424
0.019506
0.080854
0.063157
0.010075
0.082086
0.063659
0.069916
0.011419
0.020713
0.059527
0.072239
0.079669
-0.003472
0.044040
0.024840
0.104862
0.054685
0.070223
0.045442
0.028613
0.007547
0.071231
0.098307
0.079240
0.084616
0.064176
0.090552
0.055146
0.014913
0.067713
0.072364
0.064651
0.133998
0.064730
0.035204
0.092004
0.029862
0.096330
0.057240
0.038446
0.140935
0.085898
0.037276
0.118078
0.060902
0.022027
0.031547
0.067404
0.041865
0.128114
0.052546
-0.027769
0.086437
0.075135
0.075854
0.075424
0.052470
0.079925
0.115689
0.184860
0.143805
0.120656
0.201931
0.208830
0.165655
0.189841
0.126266
0.134055
0.194072
0.205850
0.188592
0.199671
0.138663
0.171163
0.268032
0.254275
0.302235
0.237947
0.193839
0.266836
0.213589
0.272839
0.232260
0.282606
0.186630
0.309523
0.169134
0.065245
0.224414
0.179012
0.153140
0.092364
0.128871
0.130742
0.140705
0.117185
0.131346
0.144674
0.094291
0.107821
0.105851
0.060975
0.118445
0.120311
0.136392
0.050997
0.144495
0.157029
0.079645
0.115035
0.145823
0.069825
0.097008
0.075575
0.103471
0.110521
0.098398
0.062016
0.188033
0.084284
0.129373
0.067736
0.069893
0.033102
0.015388
-0.001482
0.024543
0.102398
0.391774
0.775230
1.105219
1.340937
1.482841
1.351049
1.283501
0.943270
0.678228
0.345749
0.061246
-0.054032
-0.125713
-0.252765
-0.207583
-0.116710
-0.039886
0.013988
0.039799
0.040360
0.115792
0.093250
0.027162
0.157421
0.059924
0.031359
0.067234
0.110296
0.083989
0.066705
0.065872
0.098755
0.161085
0.062509
0.052119
0.127238
0.138552
0.099685
0.161918
0.075039
0.180008
0.074766
0.180973
0.228594
0.174371
0.194536
0.253748
0.204555
0.155040
0.202968
0.226265
0.252209
0.247504
0.363684
0.339807
0.345312
0.311682
0.402489
0.390564
0.424244
0.414158
0.472007
0.470716
0.516014
0.508145
0.518159
0.545057
0.566539
0.636065
0.665685
0.510750
0.617373
0.547846
0.578725
0.609099
0.572340
0.568234
0.482408
0.481484
0.497972
0.567891
0.511995
0.490662
0.431220
0.446157
0.422367
0.363574
0.370717
0.360677
0.369654
0.355246
0.273772
0.279876
0.207617
0.266270
0.262392
0.129620
0.237323
0.161546
0.143176
0.183223
0.207028
0.167164
0.122459
0.153441
0.154825
0.177509
0.074889
0.117533
0.079042
0.100625
-0.019320
0.023352
0.116638
0.049631
0.076921
0.099757
0.091211
0.076854
0.092758
0.032763
0.057180
0.116126
0.014398
0.037476
0.035471
0.095255
0.106114
0.081577
0.088119
0.021080
0.064612
0.054446
-0.006928
0.043092
0.057780
0.029406
0.053774
0.078454
0.026219
0.033734
0.089513
0.144430
0.010806
0.039791
0.046475
0.094290
0.086679
0.149027
0.106554
0.051873
-0.019860
-0.013164
0.025856
0.082730
0.099082
0.042948
-0.018986
0.094659
-0.083226
0.008738
0.098043
0.059623
0.058839
0.045157
0.016264
-0.006897
-0.081798
0.042193
0.031927
0.082510
-0.008534
0.056391
-0.032089
0.150483
0.052698
0.010300
0.009317
-0.042270
0.029024
0.037750
0.042992
0.051970
0.048129
0.022396
-0.058346
0.080746
-0.012822
0.040369
0.079353
0.008164
-0.080147
0.010054
0.087364
0.032207
0.081537
0.027517
0.073582
-0.018044
-0.045210
-0.080242
-0.023470
0.047268
0.166185
-0.021240
0.039941
0.022708
0.028156
0.075473
0.069032
0.130450
-0.035166
0.185526
0.164097
0.149260
0.151574
0.077458
0.120744
0.119307
0.185218
0.200241
0.167271
0.176500
0.231877
0.143776
0.196215
0.135526
0.124867
0.211165
0.117014
0.127154
0.086235
-0.002945
0.152907
0.035201
0.002318
0.068613
0.049370
0.111113
0.122508
0.027855
0.017270
-0.067935
0.041611
0.010502
-0.009287
0.071526
-0.022291
-0.025205
0.017985
-0.000475
-0.128456
-0.040222
-0.020037
0.048888
-0.025030
0.008428
-0.019602
-0.046616
0.019491
0.010104
-0.074978
0.031468
-0.030146
-0.051911
-0.067178
-0.112120
0.026844
-0.140405
-0.170994
-0.091179
-0.041074
0.121095
0.400340
0.751650
1.026469
1.285076
1.408055
1.269573
1.001462
0.770671
0.492767
0.167064
-0.044094
-0.286380
-0.350081
-0.367210
-0.294989
-0.275006
-0.155174
-0.036629
0.049673
-0.006582
-0.096652
-0.077509
-0.035959
-0.005657
0.009532
-0.021581
-0.089540
-0.039331
-0.048824
-0.031200
0.006903
-0.040295
0.010172
-0.043062
0.040038
-0.059531
-0.036264
-0.035498
-0.110310
-0.059965
0.007111
-0.063659
0.026267
0.049329
0.095660
0.033398
0.084585
0.054980
-0.028330
0.087415
0.102677
0.154611
0.153700
0.175587
0.208382
0.162124
0.184907
0.267336
0.319426
0.284366
0.282476
0.344792
0.275848
0.403300
0.364379
0.330947
0.379049
0.409205
0.427090
0.452401
0.465021
0.385735
0.390214
0.431371
0.499500
0.410190
0.467422
0.378898
0.357559
0.430230
0.278905
0.310759
0.367901
0.307406
0.241248
0.259640
0.283372
0.241327
0.279442
0.276726
0.143444
0.117693
0.138174
0.092428
0.147592
0.122803
0.101295
-0.005237
0.002561
0.058929
0.031007
0.024472
-0.038623
-0.064460
-0.024927
-0.077433
0.066572
-0.088933
-0.060726
-0.125252
-0.040287
-0.059181
-0.104932
-0.065952
-0.024639
-0.110916
-0.022502
-0.160492
-0.074532
-0.216741
-0.024317
-0.063395
-0.061788
-0.074673
-0.109612
-0.091123
-0.032256
-0.032583
-0.061423
-0.076628
-0.106103
-0.136438
0.018523
-0.108331
-0.072625
-0.069339
-0.019890
-0.076508
-0.109449
-0.017615
-0.100946
-0.101256
-0.049472
-0.158535
-0.170167
0.027043
-0.107215
-0.029496
-0.047016
-0.047564
-0.108628
-0.040809
-0.119355
-0.092103
-0.048022
-0.059171
-0.122896
-0.083615
-0.030353
-0.115842
-0.112115
-0.048949
-0.138427
-0.051002
-0.029105
0.002059
-0.063421
-0.101786
-0.070962
-0.042283
-0.067856
-0.108824
-0.111720
-0.010025
-0.073566
-0.076756
-0.130526
-0.084465
-0.120048
-0.079524
-0.030422
-0.026496
-0.093818
-0.085251
-0.054524
-0.083532
-0.141648
-0.095218
-0.018113
-0.011964
-0.081312
-0.068744
-0.106947
-0.099430
-0.037403
-0.074556
0.019142
-0.021361
-0.132219
-0.128811
-0.055488
-0.040815
-0.043869
-0.095665
-0.070223
-0.006311
0.022889
0.020626
0.020811
-0.025442
0.044758
0.014339
0.061143
0.122706
0.106966
0.023017
0.090025
0.036895
0.078615
0.136313
0.077489
0.120187
0.114608
0.084654
0.144807
0.121881
0.075811
0.033881
0.077186
0.111496
0.081231
-0.007777
0.012810
-0.045955
0.012792
-0.000988
-0.039808
0.023832
-0.006129
-0.032792
-0.029369
0.011690
-0.007935
0.007137
-0.045693
-0.006303
-0.067538
-0.008320
-0.011161
-0.092806
0.006614
-0.036823
0.039983
-0.030848
-0.012417
-0.068171
-0.080828
-0.075833
-0.017484
-0.024297
-0.023010
-0.065244
-0.064728
-0.020110
-0.016726
-0.047923
-0.041718
-0.058071
-0.153553
-0.122976
-0.088230
-0.033639
0.199496
0.516274
0.815732
1.005532
1.285515
1.378927
1.212791
1.057530
0.632299
0.408489
0.104229
-0.121032
-0.282640
-0.353386
-0.296770
-0.268351
-0.224679
-0.128041
-0.057580
-0.058671
0.042143
-0.028219
-0.032490
-0.081241
0.013670
-0.026534
-0.005004
-0.071191
-0.060718
0.001606
0.039247
0.022468
0.038874
-0.005761
-0.008001
0.006891
0.067656
-0.031929
-0.068963
0.060188
0.003833
0.039962
0.045205
0.018341
-0.014232
-0.013007
0.103074
0.019347
0.097698
0.222986
0.132112
0.162481
0.225152
0.153563
0.147915
0.174865
0.279067
0.215125
0.267735
0.302676
0.373746
0.337675
0.373538
0.399095
0.448593
0.378972
0.409427
0.402652
0.517103
0.499333
0.476390
0.535642
0.508233
0.398689
0.511216
0.493278
0.440824
0.487986
0.507849
0.498852
0.481750
0.454646
0.380951
0.413190
0.415884
0.290033
0.359709
0.269712
0.265917
0.259958
0.306372
0.256692
0.247805
0.198242
0.162628
0.217848
0.154910
0.221875
0.159067
0.072968
0.126708
0.079881
0.065172
0.031514
0.079302
0.139247
0.131831
0.103457
0.015461
0.078378
-0.025217
0.026912
0.078639
0.053509
-0.008586
0.030904
0.001487
0.067419
0.085722
0.090456
0.037022
0.004592
-0.035928
-0.012527
0.044753
0.072203
0.036702
0.036248
0.025230
0.062719
0.009034
0.026913
0.027801
-0.014053
0.026203
0.031207
0.020053
0.027226
0.010595
0.089294
0.091475
0.042466
0.034705
0.061398
0.060871
-0.023245
0.016952
0.051020
0.061570
0.106378
-0.058305
0.030447
-0.013386
0.068200
0.063140
0.090711
0.069706
0.077300
0.058997
-0.023427
0.061586
0.064125
0.030609
0.060429
-0.021616
0.049296
0.031777
0.012097
-0.027233
-0.057784
0.067084
0.006569
0.030643
0.025338
0.062809
-0.018660
0.053012
0.090939
0.023436
0.075995
0.028973
0.049579
0.086993
0.043080
0.042087
0.001542
0.054897
0.134430
-0.011933
0.047580
-0.004212
0.009019
0.066293
0.018465
0.080712
0.051308
0.047698
0.039308
0.119592
-0.019493
0.034635
-0.008478
0.041833
0.148389
0.085512
0.070262
0.024083
0.045217
0.092270
0.034524
0.053563
0.106123
0.035655
0.115336
0.167743
0.173823
0.134405
0.187447
0.165802
0.212102
0.215459
0.185984
0.200718
0.251493
0.154345
0.261692
0.207456
0.193502
0.176760
0.217160
0.134438
0.158996
0.180318
0.138862
0.115314
0.166861
0.093454
0.061205
0.133401
0.104874
0.095146
0.060861
0.122775
0.127279
0.085171
0.071216
0.107431
0.123323
0.111365
0.133117
0.061613
0.009680
0.072264
0.062168
0.137014
0.048208
0.061673
0.027569
0.042358
0.021486
0.035002
0.056181
0.038789
0.078438
0.062502
0.127107
0.124836
-0.014986
0.001515
-0.011582
-0.083064
0.036889
0.044621
0.356456
0.683331
1.028731
1.218188
1.436918
1.394022
1.270066
0.960361
0.683412
0.408713
0.161247
-0.114443
-0.277687
-0.298505
-0.285158
-0.187493
-0.037999
-0.017631
0.024425
0.040066
0.059285
0.043121
0.008134
0.031464
0.071551
0.036615
0.007492
-0.020834
0.088252
0.032409
0.030118
-0.047660
0.047019
0.032420
0.050842
0.008698
0.022401
0.086563
0.087809
0.088264
0.036464
0.091939
0.159341
0.133419
0.083253
0.106564
0.085152
0.088204
0.129291
0.117110
0.161123
0.110229
0.164849
0.251884
0.252738
0.255144
0.320594
0.270719
0.334957
0.343664
0.400141
0.365065
0.432448
0.518382
0.470078
0.454951
0.418087
0.424750
0.440724
0.526533
0.485110
0.532354
0.518754
0.531972
0.504745
0.546007
0.525940
0.531701
0.483175
0.435868
0.391029
0.453759
0.473097
0.399148
0.417302
0.354059
0.318666
0.350328
0.297658
0.233460
0.294488
0.288143
0.224058
0.194702
0.201416
0.205540
0.153239
0.097838
0.055489
0.123060
0.056824
0.056872
0.063356
0.083552
0.060103
0.066442
0.043306
0.014705
-0.022546
0.046867
0.014848
0.066450
-0.013995
0.029275
0.075001
-0.011259
0.009344
-0.021609
0.050359
-0.014817
-0.036978
-0.031108
0.045745
0.023565
0.066647
-0.096926
-0.061584
-0.019188
0.024056
-0.022123
-0.020906
-0.006238
0.026365
0.019871
-0.057134
-0.022544
-0.069687
-0.085601
0.004792
-0.012846
-0.030770
0.034876
0.038906
-0.029715
0.004888
0.011281
-0.083919
-0.016248
-0.050480
-0.054656
0.015821
-0.053144
-0.056040
-0.097371
-0.018161
-0.110636
-0.050350
-0.012957
0.016413
-0.077131
-0.010081
-0.030621
0.031243
0.005090
-0.033343
-0.083223
-0.087127
-0.021509
-0.072724
-0.085618
0.002202
-0.076473
-0.058528
-0.028773
-0.018482
-0.047974
0.012404
-0.063474
0.024405
-0.085010
-0.015243
-0.121866
-0.000389
-0.084568
-0.144342
-0.114893
-0.044594
0.001103
-0.111789
-0.041912
-0.087211
-0.008830
-0.014115
-0.111467
-0.041894
-0.069890
-0.080868
-0.120973
-0.131792
-0.035962
-0.047577
-0.057427
-0.083135
-0.031371
-0.056615
-0.045708
0.015056
0.008218
-0.016015
-0.061873
0.102960
0.022133
0.012065
0.064156
0.058129
0.102180
0.057632
0.125203
0.168513
0.094707
0.096166
0.142983
0.100568
0.128897
0.123903
0.097554
0.021220
0.066844
0.111411
0.044150
0.102245
0.054132
0.068479
0.074091
0.022739
-0.006525
0.062592
-0.019441
-0.032666
0.017963
-0.081585
-0.032746
-0.040549
-0.056678
-0.025900
-0.067608
-0.071381
-0.072277
-0.020773
-0.100125
-0.017475
-0.071683
-0.121303
-0.016637
-0.090364
-0.128062
-0.092969
-0.130151
-0.077757
-0.091941
-0.127388
-0.091248
0.017057
-0.093801
-0.058683
-0.108838
-0.060055
-0.144135
-0.141333
-0.163626
-0.088578
-0.146051
0.051542
0.269204
0.645665
0.905200
1.209560
1.238294
1.359084
1.090247
0.817009
0.436472
0.159001
-0.176745
-0.299434
-0.464081
-0.387387
-0.446643
-0.266639
-0.202756
-0.137580
-0.105757
-0.135372
-0.066229
-0.042024
-0.045752
-0.097646
-0.104925
-0.056192
-0.096338
-0.042299
-0.092921
-0.044603
-0.017997
-0.085571
-0.031721
-0.136453
-0.109198
-0.092411
-0.081832
-0.094630
-0.112590
-0.148153
-0.053367
-0.066928
-0.111017
0.068162
-0.059613
-0.008258
0.021754
0.051160
0.040944
0.113293
-0.024587
0.068755
0.131095
0.121124
0.144803
0.090126
0.236148
0.178141
0.215286
0.284467
0.278626
0.221869
0.371259
0.346782
0.360963
0.352849
0.295134
0.446586
0.429556
0.439059
0.316580
0.370890
0.349393
0.345434
0.337533
0.381812
0.349239
0.443667
0.408912
0.301853
0.407967
0.364962
0.277326
0.306224
0.211782
0.209793
0.240765
0.309361
0.137805
0.173025
0.182534
0.170943
0.102725
0.108692
0.167153
-0.025220
0.019903
0.068360
-0.014002
0.056877
-0.016184
0.012932
-0.011047
-0.036902
-0.004811
-0.023812
-0.071929
-0.063200
-0.123304
-0.095326
-0.017497
-0.041937
-0.099883
-0.069640
-0.067030
-0.098477
-0.091117
-0.099125
-0.063235
-0.053992
0.009841
-0.022071
-0.098539
-0.097559
-0.024920
-0.081305
-0.082268
-0.085779
-0.071392
-0.189048
-0.029931
-0.070220
-0.086495
-0.116418
-0.082680
-0.059331
-0.088435
-0.194669
-0.096713
-0.075159
-0.075718
-0.039094
-0.029653
-0.178799
-0.112764
-0.123024
-0.074750
-0.099874
-0.086514
-0.111906
-0.132773
-0.064224
-0.066351
-0.092231
-0.035210
-0.163343
-0.022431
-0.047707
-0.077448
-0.061419
-0.138311
-0.094492
-0.071928
-0.022535
-0.063723
-0.088515
-0.043579
-0.111808
-0.010465
-0.015521
-0.112730
-0.071546
-0.060850
-0.084989
0.008758
-0.036147
-0.079653
-0.100129
-0.076138
-0.022353
-0.004415
-0.045163
-0.008907
-0.078907
-0.019577
-0.029943
-0.018120
-0.079897
-0.037308
-0.083526
-0.029215
-0.039247
0.009263
-0.001542
-0.029107
-0.097832
-0.099451
0.024755
-0.032775
-0.001701
-0.122268
-0.059641
0.017915
-0.080160
-0.096261
-0.093425
0.022544
-0.000431
-0.021318
0.081053
0.105598
0.022531
0.052166
0.088965
0.028568
0.065109
0.042142
0.151046
0.142819
0.072460
0.109233
0.164976
0.110103
0.080358
0.089474
0.152136
0.106065
0.117910
0.090732
0.152251
0.045909
0.123947
0.053844
0.078306
0.049574
0.049798
0.087132
0.090793
0.015962
0.118866
-0.079667
0.036989
0.016239
-0.011200
-0.047128
-0.019565
-0.033298
-0.078207
0.084908
-0.027295
-0.042774
-0.033318
0.033715
0.045721
-0.018644
-0.041417
-0.005689
0.032849
-0.007258
-0.058678
0.041146
-0.062375
-0.008692
-0.032667
-0.075484
0.020088
0.060084
-0.075882
-0.022077
-0.125809
-0.106649
0.004900
0.208357
0.340017
0.798214
1.078015
1.286771
1.435424
1.370664
1.128025
0.759564
0.456463
0.163582
-0.177162
-0.223054
-0.385129
-0.326919
-0.276918
-0.123996
-0.045807
-0.026684
-0.049958
0.058433
0.000880
0.035796
-0.074948
0.003935
-0.002929
-0.004697
-0.018704
0.091983
0.000900
0.021798
0.010414
0.050375
0.064119
0.118765
0.009112
0.110960
0.044761
0.077461
0.080129
0.127181
0.059980
0.115275
0.171536
0.034228
0.155689
0.148105
0.156071
0.092002
0.162448
0.131933
0.268847
0.194889
0.188214
0.182134
0.345345
0.316276
0.311210
0.319970
0.341607
0.360105
0.415095
0.361408
0.510588
0.440209
0.441595
0.444053
0.511708
0.465341
0.473446
0.520067
0.535796
0.421898
0.534379
0.620818
0.465825
0.476757
0.585624
0.477749
0.479521
0.416933
0.401590
0.448751
0.366716
0.400980
0.384936
0.367718
0.356939
0.437504
0.203311
0.338557
0.242551
0.335250
0.195951
0.303888
0.219522
0.200978
0.210132
0.214669
0.168100
0.072844
0.155003
0.122908
0.141436
0.037840
0.068924
0.101386
0.111958
0.076860
0.018222
0.098323
0.048999
0.096265
0.070106
0.112101
0.081790
0.038881
0.101755
0.053836
0.037789
0.089133
0.112253
-0.043511
0.063426
0.062918
0.029719
0.117467
0.113081
0.017051
0.007370
-0.018182
0.000609
0.059929
0.064560
0.089746
0.026242
0.038701
0.025039
0.053220
0.082992
0.030423
0.003326
0.055314
0.087622
-0.020787
0.010702
0.073737
0.104339
0.062013
0.102997
0.050788
0.063503
0.100296
0.050413
0.004779
0.012513
0.015490
0.031227
0.044089
-0.007421
0.068936
0.103487
0.057418
0.050739
0.100919
0.084737
0.034270
0.033852
0.086630
0.016432
0.091935
0.060826
0.171876
0.022120
0.077271
0.042805
0.140305
0.088399
0.086829
0.041337
0.063376
0.022414
0.028432
0.192567
0.141426
0.119480
0.125418
0.087348
0.092757
0.107222
0.003502
0.055563
0.103707
0.078905
0.063168
0.111144
0.006803
0.074080
0.056028
0.111558
0.105948
0.066619
0.124418
0.092747
0.125605
0.088764
0.127734
0.122220
0.119807
0.178795
0.199303
0.095813
0.128209
0.224940
