-0.001742
0.032141
0.035527
0.011051
-0.012258
-0.017895
-0.003278
-0.055652
0.066403
0.003196
-0.008941
0.060301
-0.005282
0.063314
0.087194
0.031686
0.024524
0.048337
0.059192
0.085511
0.164589
0.054183
0.088859
0.128403
0.090574
0.114202
0.096200
0.159774
0.085722
0.196141
0.152789
0.189632
0.132588
0.178440
0.243987
0.167326
0.186832
0.112367
0.216474
0.169664
0.172781
0.208799
0.150952
0.129403
0.112683
0.152707
0.147198
0.155885
0.173826
0.131219
0.087289
0.094225
0.010800
0.036504
0.069148
0.092311
0.023391
0.093804
0.072523
0.027206
0.056081
-0.007631
0.001343
0.102157
0.045305
0.015171
0.030080
0.032190
0.076040
0.207987
0.382334
0.718617
1.031787
1.397436
1.355143
1.316352
1.117689
0.739082
0.390017
0.107173
-0.151324
-0.171818
-0.173055
-0.030083
0.048476
0.029390
0.110088
0.153930
0.043786
0.154129
0.129904
0.221700
0.122960
0.129851
0.123982
0.189060
0.147104
0.258258
0.259726
0.260032
0.402117
0.340947
0.301184
0.323455
0.373280
0.314153
0.450617
0.393353
0.462400
0.449925
0.445485
0.471281
0.545526
0.562632
0.554400
0.596807
0.554251
0.548877
0.597694
0.630962
0.649280
0.568409
0.604492
0.588126
0.622650
0.637543
0.518281
0.545925
0.512038
0.552291
0.604178
0.505862
0.573973
0.451939
0.399063
0.374866
0.338995
0.381044
0.440159
0.296943
0.283156
0.255035
0.229298
0.295771
0.241131
0.230485
0.157243
0.161560
0.194215
0.259559
0.187869
0.124359
0.094359
0.162626
0.170271
0.155367
0.094236
0.123138
0.129456
0.107915
0.186204
0.092798
0.082157
0.061040
0.095344
0.037304
0.050424
0.010103
0.081908
0.127796
0.073745
0.163822
0.055514
0.003287
0.041010
0.159151
0.150522
0.209966
0.055931
0.019265
0.113112
0.011103
0.114537
0.123349
0.072350
0.181886
0.043056
0.199328
0.147949
0.067906
0.058716
0.148035
0.013998
0.062442
0.040873
0.192785
0.207277
0.189052
0.103081
0.149076
0.103237
0.072179
0.150958
0.195076
0.063022
0.104236
0.175949
0.159378
0.200059
0.162584
0.104779
0.252071
0.274462
0.207646
0.285026
0.260431
0.221501
0.201497
0.211174
0.258594
0.257706
0.267264
0.279561
0.270806
0.298425
0.216383
0.266561
0.184121
0.206720
0.241040
0.169847
0.225955
0.227699
0.207472
0.152097
0.095053
0.173952
0.166357
0.127684
0.113351
0.172963
0.090750
0.091095
0.063637
0.116888
0.122227
0.084777
0.024954
0.120605
0.107806
0.037291
0.091194
0.073108
0.162057
0.247946
0.386884
0.720906
0.989970
1.381351
1.365323
1.452645
1.239017
0.860400
0.506183
0.177325
-0.026148
-0.087419
-0.141498
0.036920
-0.021044
0.061991
0.123270
0.130439
0.124504
0.159548
0.119385
0.160647
0.142463
0.157702
0.175076
0.140675
0.228865
0.212935
0.211480
0.353826
0.213827
0.240734
0.320409
0.386848
0.431707
0.402799
0.437353
0.414979
0.421804
0.455302
0.492705
0.516077
0.454192
0.549854
0.447517
0.562563
0.554229
0.516894
0.579824
0.590879
0.623475
0.557067
0.559218
0.581036
0.544635
0.577735
0.564378
0.520099
0.493332
0.526756
0.566401
0.473977
0.408197
0.380356
0.449097
0.322535
0.367695
0.346308
0.236464
0.314103
0.326712
0.251662
0.210050
0.236088
0.309768
0.220316
0.255794
0.206931
0.146853
0.154800
0.169519
0.098868
0.090854
0.145988
0.091319
0.136716
0.137781
0.059963
0.106711
0.108026
0.013306
0.013832
0.018851
-0.038470
-0.002192
-0.004494
0.074995
0.041255
0.015877
0.022294
0.076609
-0.010022
0.072528
-0.018485
0.073656
-0.056682
0.061892
-0.041950
0.052176
0.058021
0.005026
-0.018761
0.073775
0.028528
-0.002529
-0.018814
0.019194
0.027399
0.089558
0.019004
-0.026756
-0.016648
-0.017762
0.016404
0.128559
0.047857
0.057556
-0.014621
0.025674
-0.021676
0.076849
0.019712
0.067695
0.028999
0.049488
0.071242
0.141940
0.046387
0.058489
0.125774
0.120172
0.065913
0.120205
0.170122
0.113229
0.111349
0.205732
0.179234
0.190322
0.216213
0.218800
0.246003
0.176237
0.199330
0.268125
0.232040
0.213986
0.141154
0.156772
0.133467
0.201656
0.201604
0.122819
0.133506
0.089326
0.099457
0.107448
0.028055
0.069490
-0.003566
-0.006856
-0.006877
0.027151
0.073275
-0.029614
0.054294
-0.011474
-0.113907
0.010081
-0.001159
-0.063960
-0.052382
-0.024199
0.069807
0.101854
0.272326
0.609426
0.861501
1.138659
1.456590
1.462602
1.145187
0.760605
0.429652
0.102072
-0.102882
-0.216976
-0.251247
-0.072497
-0.030065
0.035856
0.000669
-0.004426
0.145182
0.100934
0.075323
0.039207
0.025469
0.065362
0.116611
0.114951
0.087389
0.129112
0.165961
0.128070
0.212564
0.231973
0.275086
0.229446
0.248348
0.306221
0.268340
0.313898
0.311912
0.447063
0.353582
0.442189
0.359905
0.452300
0.418217
0.447464
0.471987
0.462756
0.466847
0.437177
0.479659
0.446028
0.472730
0.508714
0.400564
0.508635
0.481088
0.404209
0.416667
0.448355
0.366482
0.420640
0.390162
0.297638
0.368594
0.283006
0.231322
0.374773
0.272286
0.272693
0.166602
0.156518
0.242106
0.133907
0.062078
0.062352
0.069378
0.050814
0.029482
0.028211
0.031005
0.087450
0.106582
0.119394
0.047332
-0.022606
-0.074331
-0.028250
-0.001557
-0.056186
0.004890
0.022721
-0.063486
-0.051447
-0.007621
0.034110
-0.030552
-0.042401
-0.090691
-0.034825
-0.005468
-0.108076
-0.047960
-0.091177
-0.033095
-0.035077
0.120363
-0.081138
-0.121358
-0.049855
-0.091816
-0.038231
-0.052381
-0.039969
-0.060249
-0.037601
0.010181
-0.038024
0.015170
-0.145438
-0.074618
-0.063152
-0.041777
-0.080366
-0.071306
-0.078938
-0.110158
-0.009157
-0.029094
-0.080925
0.009792
-0.053972
-0.013278
-0.007963
-0.036656
0.019554
0.032543
0.036386
-0.057147
-0.022949
0.046997
0.069982
0.040518
0.100331
0.104228
0.085074
0.070647
0.084095
0.243221
0.106331
0.117005
0.123790
0.140995
0.173823
0.154746
0.158977
0.088983
0.173633
-0.016400
0.106407
0.117435
0.000443
0.059174
0.020479
0.026380
-0.018688
0.086524
0.037289
-0.031363
-0.021214
0.042090
0.024849
-0.055221
-0.005431
-0.026478
-0.059247
0.024077
0.024059
-0.015088
-0.051909
0.000714
-0.059231
-0.018690
0.008961
0.023818
0.169024
0.442195
0.858990
1.174074
1.326734
1.339616
1.180580
0.901472
0.474889
0.153830
0.009601
-0.273716
-0.154842
-0.166604
-0.231777
-0.081043
-0.027659
-0.010746
0.027139
-0.027705
0.075400
-0.001803
0.034002
0.161143
0.034758
0.045717
0.162816
0.056988
0.102893
0.212378
0.176041
0.162100
0.262684
0.224626
0.205226
0.314462
0.224248
0.401864
0.359680
0.327974
0.359246
0.427279
0.436141
0.514724
0.519250
0.456429
0.526465
0.442015
0.453799
0.435737
0.443418
0.554246
0.469939
0.444666
0.426624
0.513825
0.540000
0.495783
0.458656
0.443757
0.418546
0.431832
0.405700
0.418618
0.333102
0.350810
0.334057
0.306581
0.323745
0.236166
0.175963
0.227694
0.158015
0.161698
0.149079
0.169522
0.127979
0.119527
0.199944
0.103646
0.100972
0.044192
0.064567
0.130766
0.059040
0.012755
0.012588
0.003544
0.042987
0.041483
0.037102
-0.000167
0.084536
-0.012525
-0.026806
0.062818
0.029482
-0.004096
0.052420
-0.019542
0.065290
-0.107441
0.041455
-0.062490
-0.001996
-0.028952
0.065352
-0.001159
0.015068
0.032583
-0.035664
0.023890
0.001265
0.040877
-0.013977
-0.021833
0.030487
-0.057628
0.061544
0.035342
-0.055781
0.004125
-0.020176
0.122170
0.013554
-0.015348
-0.014753
0.030716
0.027492
-0.061470
0.028321
0.046073
0.110394
0.098764
0.118241
0.068012
0.039616
0.196947
0.038210
0.096719
0.153979
0.162818
0.193010
0.177551
0.151364
0.148018
0.226260
0.328827
0.221560
0.197796
0.154233
0.277725
0.240775
0.221178
0.195709
0.188676
0.198993
0.203772
0.192107
0.179653
0.267449
0.215188
0.275474
0.125663
0.200971
0.089064
0.157094
0.051747
0.111980
0.115825
0.097249
0.036402
0.033024
0.056444
0.059441
0.144383
0.001123
0.142162
0.092272
0.074969
0.059801
0.034831
0.057549
0.082272
0.135311
0.188014
0.513328
0.810166
1.152134
1.330092
1.462946
1.437500
1.065996
0.721346
0.332923
0.000672
-0.103116
-0.067289
-0.063683
-0.031244
0.045534
0.060750
0.086194
0.055452
0.212971
0.196498
0.126171
0.158147
0.137659
0.192655
0.176912
0.114850
0.238455
0.198873
0.207810
0.333567
0.315584
0.321577
0.283013
0.395639
0.392534
0.353946
0.464118
0.441304
0.459461
0.510299
0.475174
0.585477
0.476470
0.480114
0.637020
0.614892
0.694610
0.689731
0.600668
0.667683
0.650337
0.649114
0.658147
0.600678
0.647092
0.579717
0.530469
0.602440
0.472065
0.483841
0.542550
0.462201
0.437663
0.485292
0.491809
0.439652
0.428015
0.243424
0.296517
0.301945
0.322396
0.258395
0.311059
0.229851
0.314672
0.220223
0.161128
0.179387
0.235333
0.140444
0.108735
0.144233
0.077899
0.080269
0.088165
0.140928
0.118974
0.050940
0.086231
0.148131
0.127377
0.061463
0.078629
0.068740
0.117694
0.083986
0.012299
0.093373
0.073674
0.094612
0.062017
0.088518
0.112383
0.030172
0.028453
0.062925
0.087566
0.081899
0.085833
0.087361
0.184129
0.172743
0.129373
0.066266
0.058898
0.079976
0.057253
0.081590
0.134097
0.096825
0.072965
-0.016851
0.174618
0.068037
0.167128
0.117005
0.089618
0.170459
0.103688
0.035320
0.089432
0.171160
0.098898
0.160158
0.155232
0.135425
0.187885
0.184792
0.122875
0.201259
0.235313
0.194269
0.248530
0.217663
0.178527
0.226351
0.300341
0.238156
0.208122
0.283792
0.289097
0.252279
0.335512
0.216908
0.313030
0.267113
0.302092
0.276519
0.227879
0.253806
0.307170
0.234703
0.276104
0.190738
0.150323
0.165419
0.198523
0.102089
0.152484
0.008475
0.154410
0.090408
0.150036
0.144644
0.133824
0.121372
0.061665
0.140865
0.144246
0.089016
0.104820
0.078520
0.105901
0.112490
0.256789
0.452554
0.700086
1.160811
1.334247
1.400713
1.384689
1.224879
0.881011
0.447275
0.047615
0.035402
-0.112574
-0.050335
0.058731
0.079295
0.123053
0.051414
0.192839
0.152734
0.113089
0.143207
0.119838
0.094542
0.106902
0.179997
0.188678
0.187545
0.273859
0.174012
0.237427
0.333970
0.270893
0.429549
0.360528
0.313861
0.384573
0.436984
0.405637
0.594864
0.497457
0.539289
0.515091
0.547038
0.511489
0.540582
0.622347
0.605964
0.534915
0.649504
0.616820
0.605247
0.616532
0.587973
0.607220
0.569659
0.613861
0.516535
0.547681
0.523795
0.487211
0.543321
0.509268
0.463111
0.398606
0.371624
0.359522
0.319626
0.377144
0.342501
0.300232
0.198438
0.216345
0.240950
0.237355
0.148270
0.205550
0.129540
0.135327
0.166640
0.103824
0.181610
0.149963
0.054186
0.053614
0.033093
0.088778
0.016264
0.044667
0.006487
-0.020571
0.049634
0.044893
0.109276
0.071643
-0.010798
0.094619
-0.011748
0.126492
-0.018646
0.088822
-0.005343
0.057668
0.113281
0.053206
-0.016827
0.036657
0.067370
0.108379
-0.023842
0.031205
0.035735
0.065922
0.050735
0.002301
0.000886
-0.031761
0.020112
0.034495
0.032165
0.081256
0.033427
0.051431
0.021152
0.034852
0.035388
-0.002420
-0.041583
-0.000444
0.148529
0.109831
0.009773
0.064263
-0.025477
-0.003976
-0.017591
0.105002
0.140403
0.088096
0.120276
0.094641
0.116577
0.079775
0.049130
0.168997
0.262988
0.159798
0.157686
0.181248
0.214136
0.212431
0.154003
0.188336
0.217460
0.256847
0.280277
0.154598
0.210687
0.046166
0.080623
0.175000
0.113488
0.130339
0.049957
0.058958
0.102696
0.044788
0.105819
-0.021623
0.000921
-0.045267
0.079048
0.018730
0.137321
0.010544
-0.018492
0.119383
0.050137
0.032537
-0.031288
-0.111242
0.008357
0.015125
-0.029687
-0.012715
0.091264
0.346298
0.630002
0.933219
1.220730
1.351793
1.342151
1.121693
0.722690
0.381248
0.008868
-0.110662
-0.185099
-0.182993
-0.110228
-0.056690
-0.058694
-0.062356
0.079601
0.026093
0.000814
0.050847
0.072319
0.066860
0.055181
0.062577
0.141918
0.018527
0.128540
0.130773
0.139900
0.205202
0.208187
0.170973
0.221462
0.274419
0.275808
0.291575
0.270084
0.319368
0.302903
0.326127
0.351917
0.486789
0.528220
0.396026
0.463124
0.488373
0.470637
0.437302
0.510906
0.458354
0.518497
0.434824
0.468224
0.358988
0.524455
0.403466
0.415562
0.385046
0.502435
0.471230
0.393630
0.295562
0.296065
0.323965
0.297104
0.209440
0.215918
0.204749
0.230457
0.111778
0.196728
0.109309
0.102158
0.076342
0.075440
0.110317
0.001189
0.090857
0.006611
0.021465
-0.059490
0.028395
-0.076156
0.100172
-0.056601
0.031531
-0.186047
-0.040304
-0.070408
-0.046212
-0.061402
-0.045488
-0.027485
-0.073472
-0.023746
-0.035360
-0.066359
0.026495
-0.096713
-0.089406
-0.036042
-0.074866
-0.047452
-0.152271
-0.088967
-0.133497
-0.105922
-0.075041
-0.143818
-0.074122
-0.033945
-0.063396
-0.143534
-0.105656
-0.049415
-0.144058
-0.019035
-0.082540
-0.085207
-0.123598
-0.088178
-0.039736
-0.080137
-0.061719
-0.121560
-0.115885
-0.116331
-0.136161
-0.133554
-0.004319
-0.104129
-0.021862
-0.046757
0.020791
0.042803
-0.020551
-0.056850
0.079590
-0.021323
-0.008334
-0.010464
0.012736
0.055784
0.080893
-0.073454
0.112065
0.089788
0.068518
0.103828
0.130898
0.140030
0.211408
0.054950
0.076290
0.078656
0.025294
0.108234
0.025381
0.054822
0.025186
0.043790
0.024031
-0.122772
0.012118
-0.042132
-0.024234
0.021700
-0.066642
-0.069980
-0.024365
-0.076103
-0.012253
-0.128438
-0.146309
-0.065542
-0.021116
-0.081210
-0.122045
-0.022242
-0.065420
-0.133142
-0.083996
0.024715
0.080398
0.174492
0.352319
0.911734
1.182908
1.381863
1.336385
1.153915
0.774717
0.337517
0.026982
-0.254534
-0.270252
-0.336362
-0.279521
-0.172152
-0.097673
-0.025025
-0.034031
-0.024351
-0.078921
-0.046715
-0.007639
-0.136349
0.067627
0.093936
0.080654
-0.004026
0.083764
0.141550
0.139954
0.125177
0.088478
0.238963
0.151927
0.223285
0.258568
0.252900
0.307696
0.330562
0.321779
0.413286
0.310788
0.343469
0.352238
0.459767
0.453258
0.476389
0.452340
0.402271
0.405165
0.480230
0.454026
0.388130
0.355636
0.425645
0.368234
0.362112
0.464084
0.444247
0.426612
0.368233
0.334426
0.333906
0.251807
0.274687
0.224102
0.241562
0.176293
0.189526
0.152673
0.159156
0.132575
0.144126
0.048548
0.079333
0.088003
0.011882
0.060327
0.048916
0.088866
0.005318
-0.000831
-0.039306
-0.001004
-0.039886
0.033348
0.003436
-0.013157
-0.057345
-0.043849
-0.026276
-0.044227
-0.054634
-0.046696
-0.011174
0.021096
-0.106954
-0.059775
-0.043054
-0.056435
-0.097659
-0.051353
-0.063188
-0.031433
-0.174659
-0.112344
-0.016305
-0.035065
-0.069852
-0.109941
-0.076543
-0.137525
0.041354
-0.115067
-0.046921
0.028271
-0.023409
-0.000479
0.010005
-0.075204
-0.033864
-0.016450
-0.049235
0.000812
0.056739
-0.009148
0.007954
-0.106681
-0.034780
-0.023937
-0.001323
0.072408
-0.098120
-0.028321
0.021970
-0.107603
0.007507
0.076188
0.065082
0.054221
0.007095
0.094500
0.067733
0.115794
0.122104
0.078412
0.116752
0.072634
0.122428
0.225911
0.245063
0.136396
0.254730
0.191383
0.154950
0.172647
0.158456
0.154610
0.225776
0.090957
0.217181
-0.008020
0.148899
0.039542
0.080271
0.097757
0.059363
0.042907
0.037199
0.057360
-0.030875
-0.036528
-0.036944
0.108335
0.035617
0.028585
0.068349
0.042724
-0.004262
0.046085
-0.008314
0.090120
-0.029460
0.050867
0.108625
0.293533
0.579457
0.885587
1.169260
1.337762
1.370366
1.237155
0.940081
0.543819
0.203378
-0.103919
-0.289449
-0.195419
-0.073056
-0.051841
-0.065045
0.042177
0.030775
0.047095
0.117484
0.071652
0.072144
0.107636
0.136388
0.100326
0.024714
0.157634
0.118847
0.241675
0.151925
0.277308
0.232166
0.274272
0.299628
0.432947
0.300374
0.306475
0.375415
0.405080
0.413228
0.428279
0.461438
0.506622
0.431113
0.520177
0.544649
0.520012
0.621675
0.516368
0.559738
0.546253
0.589552
0.607475
0.549418
0.468757
0.544452
0.549193
0.530156
0.527747
0.444593
0.499250
0.481108
0.427092
0.445419
0.363698
0.468158
0.383537
0.289806
0.355778
0.272121
0.259909
0.325748
0.196767
0.188617
0.231432
0.165752
0.199492
0.099592
0.151931
0.106627
0.133768
0.167201
0.113998
0.128783
0.113743
0.079326
0.041932
0.039939
0.094067
0.033192
0.040999
0.021445
0.047827
0.082722
0.057722
0.064079
0.022136
0.026878
0.102471
0.052042
0.094175
0.034290
0.048762
0.100031
0.023027
0.094384
0.031276
0.053918
0.038545
0.060619
-0.004522
0.088191
0.007470
0.041370
0.012271
0.052539
0.034182
0.052818
-0.002999
0.074299
0.046744
0.090652
0.029069
0.075226
-0.013978
0.006400
0.022413
0.038967
0.125677
0.096379
0.066479
0.101694
0.083480
0.093724
0.100019
0.073869
0.158426
0.181690
0.025419
0.055827
0.156238
0.060269
0.161831
0.157452
0.188209
0.229980
0.159644
0.238198
0.322688
0.272466
0.240706
0.247976
0.258903
0.249529
0.219185
0.211877
0.191085
0.284175
0.243124
0.172621
0.233689
0.197758
0.178210
0.141090
0.152390
0.130645
0.101701
0.124679
0.030560
0.047644
0.118498
0.113253
0.039882
0.050550
0.040844
0.035480
0.128936
0.021909
0.048067
0.014169
0.017244
0.017229
0.033079
0.016757
0.086458
0.278383
0.510454
0.859007
1.189167
1.343427
1.500000
1.328514
1.046973
0.681999
0.261866
0.028571
-0.143875
-0.123270
-0.166458
-0.024014
0.021755
0.032700
0.054447
0.080946
0.032334
0.054235
0.147832
0.198251
0.102143
0.108888
0.184007
0.166720
0.299532
0.266713
0.272880
0.217140
0.315869
0.302265
0.231038
0.416005
0.430491
0.371868
0.314782
0.445453
0.411884
0.476401
0.562179
0.415585
0.493786
0.549947
0.471487
0.452171
0.616604
0.521521
0.489346
0.528850
0.600594
0.604404
0.546975
0.592371
0.487940
0.485618
0.496286
0.523012
0.457986
0.401613
0.439835
0.447832
0.422798
0.416183
0.314541
0.369036
0.312140
0.292590
0.318647
0.337424
0.240133
0.261061
0.225851
0.185493
0.197155
0.137518
0.147339
0.063859
0.051878
0.020486
0.031558
0.149039
0.102653
0.007733
0.022726
0.004627
0.105254
-0.008976
0.068196
0.029493
-0.044078
0.055284
-0.033253
-0.031458
0.021793
0.091518
0.044228
-0.012737
-0.048549
-0.024527
-0.009918
-0.114163
0.021260
-0.034935
-0.014824
0.062041
0.040245
-0.023839
0.044090
-0.065054
-0.022800
0.038659
-0.047042
0.026617
-0.030584
0.079157
-0.077012
-0.055111
-0.077801
-0.062669
0.088347
0.021701
-0.057232
-0.041991
-0.051717
0.024956
-0.010253
0.015083
-0.033112
-0.027679
0.017842
-0.022101
0.071476
0.001622
0.030262
0.034751
-0.006673
0.065790
0.062300
0.031811
0.065640
0.096810
-0.002306
0.054227
0.125788
0.137445
0.060610
0.116996
0.191425
0.170549
0.177393
0.170971
0.199914
0.199062
0.160647
0.097863
0.094985
0.180063
0.080437
0.083039
0.095194
0.084138
0.094371
0.029781
-0.003834
0.020560
-0.033674
0.044368
0.035360
0.051928
0.018117
-0.000959
-0.033285
-0.020220
0.074060
-0.034053
0.011243
-0.044724
-0.053710
-0.006167
0.002941
-0.056347
-0.060922
0.030035
0.135893
0.288836
0.674277
1.011136
1.208988
1.385060
1.219783
0.981386
0.544499
0.266616
-0.004206
-0.212029
-0.289628
-0.271856
-0.100346
-0.115141
-0.069764
-0.038686
-0.058161
-0.033137
0.025667
0.080905
0.055754
0.015775
0.009958
0.078901
0.018179
-0.034789
0.138847
0.173136
0.131152
0.285550
0.100563
0.115452
0.169022
0.276908
0.241513
0.317082
0.318151
0.282789
0.354741
0.345435
0.331955
0.340337
0.310519
0.370743
0.407689
0.460994
0.492236
0.534115
0.519547
0.468717
0.480018
0.423693
0.440057
0.525448
0.453158
0.385902
0.365862
0.398872
0.459946
0.410451
0.369678
0.336721
0.361592
0.341123
0.233855
0.238850
0.224588
0.212580
0.232383
0.079588
0.050561
0.038204
0.121280
0.117966
0.025508
0.052648
0.007686
-0.014682
-0.102097
-0.072216
-0.037510
0.013063
0.033479
-0.000250
-0.047703
-0.023821
-0.044344
-0.033834
-0.023030
-0.054294
-0.047760
-0.070574
-0.028153
-0.009550
-0.024535
-0.100751
-0.098947
-0.138116
0.010811
-0.067565
0.007031
-0.096664
-0.091051
-0.021246
-0.059274
-0.062418
-0.044057
-0.014942
-0.124297
-0.130708
-0.123222
-0.073546
-0.136745
-0.094723
0.020760
-0.149311
-0.093133
-0.071516
-0.039473
-0.016584
-0.122723
-0.149311
-0.114976
-0.129053
-0.135463
-0.085013
-0.033622
-0.066886
-0.138145
-0.004439
-0.049754
-0.095985
-0.062885
-0.007911
-0.136175
-0.031770
-0.016166
-0.049398
-0.019101
0.002444
0.016088
0.008118
-0.017867
-0.010001
-0.003021
0.025332
0.089124
0.098663
0.073273
0.132003
0.113633
0.079623
0.004519
0.125721
0.114018
0.057125
0.043347
0.041205
0.032177
0.094766
0.030454
-0.075403
0.048936
-0.035832
0.016876
-0.063529
-0.058467
-0.100035
-0.063180
-0.024146
-0.104585
-0.067751
-0.117027
-0.046432
-0.073607
-0.053780
-0.053674
-0.070619
-0.120791
-0.145722
-0.085970
-0.038785
-0.027634
-0.023594
0.228510
0.567298
0.909016
1.229415
1.283245
1.285553
1.054970
0.598146
0.359421
-0.047305
-0.310494
-0.269506
-0.268971
-0.232066
-0.117466
-0.158486
-0.134627
0.008054
-0.047302
-0.032443
0.025182
-0.100880
0.042037
0.078187
0.043958
0.004940
0.015688
0.127169
0.008272
0.095420
0.137264
0.173643
0.160037
0.174311
0.189265
0.185520
0.335790
0.315785
0.227889
0.291831
0.361424
0.299556
0.379148
0.408355
0.477632
0.477061
0.405298
0.413811
0.391797
0.407063
0.391554
0.505190
0.485161
0.424834
0.396743
0.378826
0.410554
0.363709
0.313921
0.255635
0.393731
0.309954
0.212414
0.294093
0.279969
0.312319
0.210956
0.177392
0.268899
0.194688
0.139737
0.169967
0.097528
0.108777
0.119210
0.119245
-0.064623
0.049577
0.113213
0.018066
0.001408
0.064991
0.018210
-0.107565
-0.008046
-0.108821
0.018866
-0.017608
0.036897
-0.014068
-0.066997
-0.070992
-0.088883
-0.112736
-0.036801
-0.084645
-0.071195
0.014802
-0.037848
-0.059872
-0.049928
0.027327
-0.114359
-0.068261
-0.037822
-0.051792
-0.108446
-0.110589
0.028296
-0.045989
-0.102467
-0.096014
0.048665
-0.125073
-0.120281
-0.054429
-0.067094
-0.068637
-0.082449
-0.043243
-0.075227
-0.038842
-0.044172
-0.140147
-0.068535
-0.000866
-0.023990
0.035579
-0.075598
-0.007200
-0.042294
0.018202
-0.027747
0.025427
0.036846
0.007692
0.041757
-0.001702
-0.023068
0.098758
0.048616
0.087792
0.064178
0.144857
0.154622
0.077203
0.097554
0.164371
0.185060
0.101829
0.169342
0.176639
0.119742
0.137968
0.142811
0.137391
0.136263
0.146538
0.145296
0.081069
0.104882
0.180845
0.043675
0.088042
0.124723
0.053833
-0.025141
0.034700
0.005875
0.037412
-0.060428
0.080024
0.035833
-0.025019
-0.035599
-0.004870
0.050962
-0.039924
-0.042465
0.024054
-0.000209
0.010190
-0.020906
0.129364
0.098850
0.289030
0.618119
0.877687
1.277531
1.428267
1.390169
1.104460
0.819085
0.407164
0.152500
-0.119502
-0.166228
-0.172663
-0.090463
0.008354
0.021753
-0.012666
0.068092
0.063167
0.114337
0.128880
0.134590
0.135038
0.211013
0.055757
0.219325
0.129707
0.207890
0.180794
0.097652
0.194934
0.261631
0.237142
0.267345
0.274279
0.273145
0.345312
0.426528
0.352901
0.426348
0.416624
0.440257
0.544808
0.419474
0.546158
0.458164
0.636655
0.556485
0.503992
0.552120
0.598842
0.513661
0.625369
0.597258
0.593334
0.551496
0.546294
0.589746
0.463672
0.531210
0.453302
0.375845
0.453577
0.496634
0.420346
0.481737
0.364088
0.383592
0.307452
0.281009
0.235230
0.300877
0.252064
0.208529
0.150582
0.198592
0.224897
0.152651
0.154060
0.144182
0.154091
0.110278
0.069355
0.099311
0.024469
0.093121
0.115939
0.053718
0.170478
0.091607
0.174072
-0.002255
0.076272
0.166285
0.066898
-0.012750
0.016703
0.071126
0.062505
0.111628
0.062001
0.049080
0.076207
0.040910
0.067587
0.077351
0.100873
0.057365
0.054392
0.084527
-0.025240
0.035340
0.123841
0.043748
-0.018275
0.075082
0.089250
0.062993
-0.026323
0.084384
-0.023559
0.047526
0.039544
0.147530
0.071092
0.105617
0.076282
0.065229
0.091825
0.094158
0.088991
0.043338
0.144743
0.116430
0.142871
0.084208
0.137900
0.085101
0.090831
0.099308
0.139115
0.285620
0.104393
0.263412
0.141282
0.237192
0.214985
0.251874
0.226521
0.206607
0.201816
0.265644
0.209074
0.218534
0.238709
0.249027
0.315329
0.261126
0.177735
0.160532
0.257396
0.246499
0.166218
0.144466
0.160128
0.124729
0.139820
0.171542
0.171813
0.051891
0.172507
0.040887
0.048677
0.080205
0.032699
0.143123
0.064046
0.133097
0.082989
0.055205
0.074946
0.013599
0.006050
0.103628
0.154937
0.349064
0.608509
1.059364
1.249379
1.445932
1.414265
1.290116
0.970624
0.591635
0.213509
0.010080
-0.116230
-0.089554
-0.115552
-0.022268
0.049164
0.065488
0.158444
0.095330
0.076610
0.102731
0.223082
0.287463
