-0.052872
0.037786
0.023601
-0.011114
0.060407
0.044409
0.003006
0.104990
0.096511
-0.024887
0.057958
-0.018373
0.070142
-0.016007
0.014183
0.028795
-0.050107
0.002128
-0.107916
0.049571
0.002690
0.063116
0.034596
0.075856
0.057851
0.041118
0.107145
0.078857
0.147824
0.050602
0.132617
0.151017
0.158077
0.099073
0.169133
0.136820
0.254996
0.141792
0.157847
0.140002
0.254044
0.158332
0.180390
0.198906
0.148799
0.199399
0.202403
0.249362
0.182605
0.157867
0.114144
0.099737
0.080032
0.046871
0.174580
0.113747
0.061452
0.099671
0.068600
0.069738
0.069877
0.056880
0.006560
0.059155
0.024967
0.066299
0.076084
0.055238
0.114756
0.094512
0.075837
0.047997
0.157390
-0.086432
0.018186
0.066054
-0.030364
0.025944
0.109683
0.281710
0.641478
0.923344
1.221158
1.410805
1.422080
1.181723
0.860882
0.542685
0.162792
-0.082208
-0.135012
-0.179256
-0.062981
-0.100058
-0.035345
0.001432
0.121393
0.095886
0.056403
0.075377
0.076739
-0.015336
0.130397
0.083925
0.233628
0.115014
0.139313
0.119768
0.227807
0.172616
0.162309
0.211909
0.159220
0.200581
0.298487
0.279846
0.271501
0.333903
0.289784
0.435246
0.421174
0.396382
0.380992
0.375839
0.518363
0.446695
0.447651
0.494384
0.499728
0.489734
0.550991
0.556281
0.574412
0.524447
0.565566
0.625385
0.525083
0.530317
0.618186
0.691648
0.650042
0.616090
0.520423
0.490440
0.528264
0.510016
0.484894
0.473130
0.313418
0.344970
0.384412
0.369940
0.266315
0.344411
0.287015
0.383111
0.259058
0.217249
0.226691
0.242775
0.231209
0.151732
0.110997
0.112055
0.150733
0.074806
0.065743
0.130784
0.121527
0.099011
0.074179
0.079450
0.034640
0.096064
0.121337
0.019340
0.082033
0.084000
0.114932
0.050665
0.097975
0.071402
0.111600
0.118624
0.133445
0.065368
0.160946
0.142986
0.079146
0.073853
0.119496
0.084259
0.046397
0.051514
0.041331
0.075692
0.088548
0.009997
0.093831
0.017231
0.064638
0.106694
0.044936
0.136132
0.074698
0.122406
0.149661
0.116723
0.005271
0.212338
0.095895
0.183843
0.092727
0.145878
0.086855
0.060530
0.060741
0.091626
0.121487
0.023413
0.018458
0.049005
0.151458
0.081410
0.109303
0.061393
0.175410
0.104801
0.150235
0.058921
0.118134
0.086163
0.122710
0.136438
0.105626
0.122899
0.161244
0.209379
0.156529
0.127274
0.209124
0.140708
0.287554
0.206813
0.235813
0.204038
0.242513
0.253610
0.265351
0.299663
0.268633
0.212317
0.306611
0.301557
0.147760
0.253686
0.315414
0.194662
0.147654
0.157369
0.228324
0.182169
0.185856
0.204230
0.142082
0.118147
0.111658
0.127555
0.173014
0.075635
0.104518
0.133327
0.051710
0.137228
0.178774
0.166290
0.030937
0.011853
0.110505
0.133111
0.059501
0.034170
0.058685
0.040277
0.010958
0.090381
0.134817
0.326284
0.563809
0.862509
1.140355
1.322709
1.367726
1.381039
1.040426
0.663817
0.349285
-0.006975
-0.132671
-0.179300
-0.119871
-0.088964
0.011176
-0.012558
0.082730
0.106744
0.147425
0.059239
0.053481
0.105894
0.123042
0.098033
0.121539
0.107226
0.097357
0.115776
0.175836
0.156413
0.193286
0.203960
0.213828
0.214300
0.214963
0.306619
0.252031
0.260774
0.347456
0.281971
0.343185
0.307090
0.302269
0.365142
0.421665
0.425535
0.511246
0.507030
0.517847
0.460418
0.448546
0.470913
0.521033
0.494803
0.568232
0.574138
0.525083
0.571810
0.520809
0.565018
0.504745
0.522636
0.446123
0.475991
0.450678
0.445935
0.401588
0.398527
0.405431
0.302679
0.357527
0.401106
0.283410
0.380105
0.261782
0.309710
0.296519
0.216811
0.223127
0.196346
0.128181
0.149483
0.094211
0.014211
0.179817
-0.005555
0.158460
0.138130
0.023729
0.046347
0.078876
0.058395
0.107478
-0.050129
0.054309
0.075262
-0.001290
0.071758
-0.051014
-0.022310
0.012107
-0.001881
0.028164
0.007407
0.020543
-0.028803
0.017320
0.060590
0.062567
-0.016527
0.011386
-0.002038
0.037526
-0.010889
0.032492
-0.006506
-0.059069
-0.006951
-0.010039
-0.046080
0.042343
0.024432
-0.031217
-0.017688
-0.045830
0.032563
0.026003
-0.015468
-0.021183
-0.014225
-0.040022
-0.081993
-0.000019
-0.048028
0.004787
-0.008075
-0.046934
0.006215
0.031915
0.064241
0.045249
-0.003756
-0.059510
0.014239
0.056019
0.032573
0.015139
0.007444
-0.078896
-0.014886
-0.014062
-0.097485
0.029555
-0.009204
0.055886
0.074094
-0.022177
0.146399
0.082003
0.071447
-0.019104
0.027825
0.118545
0.088042
0.114377
0.064626
0.129103
0.125596
0.098479
0.201261
0.199420
0.115053
0.143996
0.155443
0.112038
0.169070
0.111986
0.177476
0.097603
0.072953
0.075045
0.058763
0.150678
0.081918
0.009062
-0.013548
0.028615
0.033478
-0.042257
0.016994
0.040618
0.021445
0.015476
-0.029935
-0.034065
-0.011033
-0.068444
-0.060505
-0.008164
-0.071249
-0.009641
0.017288
-0.048917
-0.087353
-0.068446
-0.086403
-0.035591
0.138648
0.375923
0.722183
0.980230
1.182284
1.312957
1.324413
1.019934
0.703278
0.277846
0.040837
-0.270516
-0.260132
-0.285461
-0.217685
-0.070268
-0.064947
-0.034104
-0.065185
-0.015715
0.019666
-0.014852
0.021819
0.076006
0.046283
-0.020282
-0.054761
-0.013706
0.047537
0.039447
0.066586
0.004317
0.107265
0.127557
0.055171
0.185704
0.212448
0.182377
0.222244
0.116031
0.202363
0.279036
0.220896
0.201644
0.325799
0.311412
0.340297
0.343099
0.415024
0.487988
0.405097
0.508309
0.474698
0.480514
0.436571
0.414129
0.423309
0.481186
0.540128
0.429601
0.476014
0.428469
0.481979
0.542856
0.406519
0.411834
0.405793
0.327097
0.366812
0.426178
0.349126
0.316728
0.267142
0.221335
0.260581
0.185544
0.107388
0.173272
0.154858
0.105521
0.144027
0.077506
0.107080
0.107582
0.005168
-0.014959
0.054676
0.039708
0.018655
-0.012157
0.038856
-0.015508
0.013123
0.023625
-0.086062
-0.042282
0.061978
-0.160957
-0.057794
-0.076127
0.000152
-0.085729
-0.060640
-0.074216
-0.029573
0.045700
-0.001743
-0.083136
0.004353
-0.059787
-0.038085
-0.025607
-0.041714
0.046615
-0.025406
-0.004290
-0.000176
-0.093492
-0.025349
-0.000672
0.034978
-0.016222
0.010867
0.032306
-0.076909
-0.026891
-0.067623
-0.029343
-0.033909
-0.055531
-0.048182
-0.044221
-0.131058
-0.044787
-0.081833
-0.066847
-0.006402
-0.104157
-0.004153
-0.017741
-0.051378
-0.067579
-0.012482
-0.095236
0.027037
0.011108
0.013299
-0.000836
-0.014511
0.068446
0.025036
-0.019115
0.016125
0.059549
-0.067254
-0.000143
0.041005
0.030976
0.103306
0.087565
0.098519
0.052248
0.055793
0.054215
0.033454
0.081621
0.114519
0.092217
0.057042
0.098557
0.188615
0.171445
0.141890
0.137579
0.108097
0.092228
0.141601
0.179487
0.114441
0.083179
0.127694
0.101831
0.116336
0.137176
0.036357
0.063644
-0.027453
-0.015439
0.009702
-0.023261
-0.046548
-0.006897
0.076704
0.011054
-0.042149
0.031142
-0.005150
-0.001241
-0.075675
-0.069585
0.015268
-0.048953
0.032145
-0.101830
-0.030703
-0.060443
-0.062854
0.040559
0.147125
0.303122
0.583470
0.920708
1.133259
1.356868
1.290844
1.145715
0.856035
0.376155
0.179806
-0.044764
-0.174198
-0.243112
-0.213033
-0.097528
-0.061573
0.048232
-0.012649
0.018970
0.012826
-0.040546
0.049069
0.024291
0.022995
0.051132
0.080623
0.033883
0.144075
0.068084
0.143527
0.057611
0.150361
0.140658
0.158637
0.136215
0.215986
0.184138
0.193596
0.214061
0.301321
0.282890
0.278188
0.363701
0.291264
0.368592
0.387249
0.344100
0.480203
0.400831
0.435429
0.427107
0.570003
0.572167
0.518840
0.592015
0.511008
0.524911
0.486922
0.470577
0.595577
0.536839
0.503868
0.499840
0.459096
0.463065
0.484839
0.391466
0.443141
0.411465
0.381328
0.393699
0.323278
0.338281
0.355959
0.296894
0.334474
0.253489
0.298509
0.287572
0.164155
0.254446
0.171442
0.151912
0.152393
0.089250
0.091104
0.208248
0.076405
0.032884
0.148515
0.164552
0.093748
0.138220
0.004267
0.101595
0.110981
0.110134
0.054560
0.074313
0.019575
0.080116
0.010999
0.099840
0.096642
0.010610
0.065106
0.041486
0.021833
0.086968
0.046682
0.129654
0.044956
0.031041
0.026494
0.070624
0.126697
0.034059
0.100483
0.103220
-0.019125
0.012450
0.032362
-0.018288
0.050693
0.111826
0.058648
0.105960
0.135830
0.091651
0.008551
0.045645
0.057366
0.104789
0.125376
0.107245
0.033878
0.055123
0.074765
0.115419
0.039892
0.053243
0.070232
0.026768
0.120984
0.125308
0.062023
0.079096
0.037547
0.079779
0.129558
0.071065
0.115718
0.116102
0.127192
0.171335
0.091509
0.180379
0.109462
0.072932
0.120069
0.274266
0.282944
0.171809
0.342545
0.199065
0.246269
0.210539
0.219699
0.180718
0.302999
0.342212
0.287286
0.214578
0.214923
0.218309
0.281202
0.174521
0.231253
0.167854
0.188356
0.213439
0.116837
0.153592
0.101707
0.108230
0.141242
0.120608
0.154713
0.155281
0.115081
0.092342
0.175162
0.134287
0.079089
0.052660
0.063183
0.082559
0.133969
0.020973
0.106521
0.142037
0.047212
0.057843
0.055716
0.143556
0.145085
0.040016
0.115889
0.343801
0.571149
0.893318
1.190230
1.500000
1.416768
1.385674
0.899020
0.687240
0.262457
0.015815
-0.106141
-0.116525
-0.169500
-0.021505
0.016856
0.107445
0.165164
0.136356
0.178908
0.096240
0.120344
0.148797
0.168780
0.157787
0.225715
0.147672
0.184022
0.147519
0.162802
0.160789
0.281763
0.262722
0.249643
0.252977
0.213091
0.343780
0.315553
0.315675
0.331826
0.292165
0.419418
0.432317
0.388580
0.420219
0.468661
0.509981
0.532430
0.460902
0.490168
0.501033
0.634628
0.657225
0.549721
0.560667
0.642633
0.635690
0.613644
0.618053
0.572008
0.622177
0.526145
0.513800
0.589455
0.539511
0.552687
0.507293
0.435703
0.474237
0.408558
0.481027
0.364391
0.460066
0.353855
0.313032
0.383502
0.261986
0.245998
0.275294
0.236171
0.275064
0.185807
0.177249
0.181409
0.194989
0.184339
0.173976
0.187866
0.112568
0.071114
0.097304
0.092101
0.083786
0.075100
0.069745
0.084147
-0.002036
0.187546
0.037022
0.007653
0.158913
0.079942
0.106476
0.042095
-0.000147
0.156516
0.061687
0.049285
0.154205
0.021838
0.067701
0.113303
0.104537
0.089611
0.041705
0.078178
0.104480
0.053966
0.122001
0.065081
0.027664
0.021743
0.055285
0.056037
0.066249
0.053598
0.001617
0.077718
0.063333
0.068342
0.033370
0.068377
0.034067
0.017948
0.078283
0.018047
0.015933
0.029386
0.110372
0.130016
0.046422
0.052107
0.091659
0.072168
0.065257
0.073088
0.077325
0.090429
0.102291
0.016586
0.035196
0.096947
0.076121
0.037024
0.047028
0.075485
0.111240
0.009574
0.133028
0.100978
0.184364
0.203002
0.180544
0.201104
0.148037
0.167010
0.206051
0.216488
0.214534
0.206458
0.179642
0.265789
0.224590
0.163640
0.249668
0.166124
0.193408
0.162874
0.121238
0.175081
0.179638
0.118622
0.147053
0.075334
0.036611
0.134980
0.107833
0.136266
0.021702
0.129956
-0.031885
0.082610
0.073851
0.000256
-0.025086
0.075758
-0.040858
-0.010191
0.018791
-0.026521
0.094948
0.001438
0.100969
0.067974
0.020075
-0.049908
-0.001905
0.017777
0.194368
0.388563
0.690042
0.988638
1.286832
1.397743
1.287259
1.061689
0.655352
0.360179
0.044042
-0.135005
-0.266887
-0.308898
-0.284505
-0.134180
-0.032636
-0.051879
0.040778
-0.009697
0.053997
0.041922
0.035989
0.045590
-0.029310
0.036895
0.042992
0.081087
0.087781
0.112066
0.103777
0.071876
0.195478
0.102945
0.059511
0.111046
0.240558
0.189545
0.248379
0.168134
0.221083
0.320452
0.325660
0.312825
0.341059
0.360975
0.382693
0.358578
0.379303
0.477145
0.478868
0.424382
0.468539
0.444953
0.501636
0.437735
0.445010
0.501954
0.448251
0.514307
0.457347
0.467283
0.444088
0.407165
0.406028
0.479137
0.469533
0.364668
0.456703
0.296043
0.308320
0.319525
0.250002
0.309019
0.241446
0.194206
0.163025
0.140453
0.188226
0.227746
0.122173
0.146385
0.063000
0.020233
0.071462
0.054523
0.065422
0.034195
-0.062616
-0.042277
0.073289
-0.034330
0.033796
0.088322
-0.000108
-0.023210
-0.057850
0.001956
0.029123
-0.022936
-0.104286
-0.059987
-0.020966
-0.138598
-0.048271
-0.023116
-0.147577
-0.066252
-0.000000
-0.032781
-0.070486
-0.068853
-0.088491
-0.076626
-0.043700
-0.125220
0.025456
-0.094116
0.014087
-0.103945
-0.029771
-0.025854
-0.120662
-0.120008
-0.067267
-0.014483
-0.143262
-0.052699
-0.033407
-0.081564
-0.034833
-0.044533
-0.060409
-0.057269
-0.031356
-0.098094
-0.093853
0.048690
-0.154995
-0.025915
-0.095435
0.057100
-0.054138
-0.019063
-0.062095
0.021586
-0.080199
-0.070176
0.034839
-0.072282
-0.047848
-0.028513
-0.098232
-0.069481
-0.049564
-0.037819
0.005777
-0.000927
-0.045925
0.055915
0.102617
0.051735
0.132196
0.005438
0.059194
0.166473
0.191459
0.083038
0.123984
0.045957
0.063080
0.092540
0.055054
0.179440
0.105284
0.119731
0.124996
0.083548
0.059672
0.100466
0.062617
0.094432
0.031675
-0.032242
0.003448
0.016614
-0.068692
0.006887
-0.084391
-0.021447
0.023620
-0.087933
-0.066921
-0.076329
-0.057394
-0.002590
-0.068823
-0.026996
-0.064582
-0.116633
-0.094016
-0.177082
-0.093611
-0.154081
-0.084791
-0.130648
-0.118178
-0.079858
0.005667
0.214669
0.476303
0.887714
1.073924
1.266953
1.294002
1.043088
0.778484
0.390857
0.051142
-0.116944
-0.236341
-0.253758
-0.178276
-0.198024
-0.210716
-0.087392
-0.082780
-0.032177
-0.049684
-0.013696
-0.123192
-0.102741
-0.046831
-0.033069
-0.085349
0.063704
-0.114323
0.024972
-0.036628
0.014007
0.091970
0.066949
0.047974
0.117369
0.099911
0.063549
0.077317
0.147771
0.215274
0.208027
0.210613
0.244420
0.197065
0.247109
0.213169
0.345938
0.378422
0.326811
0.427452
0.321718
0.500822
0.424475
0.347775
0.377554
0.357214
0.420056
0.495715
0.364005
0.420735
0.513024
0.436983
0.348154
0.394060
0.439585
0.370968
0.378808
0.324506
0.232480
0.289885
0.268231
0.159601
0.253919
0.235802
0.145031
0.205146
0.131043
0.146502
0.149514
0.113083
0.077200
0.115379
-0.024303
0.107763
0.101440
-0.002302
0.031477
0.016945
-0.029113
0.004145
0.005053
-0.046782
-0.061072
-0.012072
-0.048214
-0.054294
-0.046377
-0.109336
-0.026593
-0.105240
-0.032610
-0.059441
-0.087194
-0.059329
-0.068233
-0.120532
-0.026697
-0.079073
-0.020646
-0.092610
-0.097587
-0.051576
-0.037884
-0.052353
-0.062220
-0.030756
-0.047330
-0.043192
-0.053854
-0.015328
-0.086651
-0.163846
-0.027918
-0.079924
0.017680
-0.026926
0.010100
-0.026236
-0.075629
0.004147
-0.062289
-0.055114
-0.082787
-0.067904
-0.052909
0.002342
-0.028453
-0.044450
-0.108879
-0.083293
-0.052979
-0.041692
0.000986
-0.074543
-0.039546
-0.012003
-0.125918
0.029197
0.017977
-0.018764
0.035419
-0.079041
-0.066337
0.000786
0.025102
0.036256
0.046923
0.007163
0.095105
0.043470
0.010785
0.052184
0.094446
0.052744
0.129148
0.101053
0.191915
0.031373
0.177296
0.180046
0.089722
0.221890
0.160952
0.175777
0.153902
0.156451
0.181181
0.025670
0.141804
0.082388
0.100792
0.053199
0.083007
0.013106
0.087168
0.013526
0.061958
0.037795
-0.002743
-0.044255
0.042809
-0.015150
0.001742
0.049174
0.033740
-0.011841
-0.018690
-0.003102
0.043520
0.043047
0.013840
0.017040
-0.022966
-0.099861
-0.037640
-0.006834
0.037189
0.027102
0.247827
0.514571
0.809175
1.154875
1.289256
1.331635
1.178002
0.922583
0.596937
0.176314
-0.072702
-0.183302
-0.208294
-0.153635
-0.194233
-0.117462
-0.103029
-0.000712
0.029712
-0.005276
-0.022442
0.029672
0.062518
0.012077
0.093262
0.125834
-0.001078
0.056926
0.008364
0.084061
0.256075
0.206013
0.243704
0.242976
0.100282
0.173470
0.222805
0.274261
0.267402
0.311014
0.303028
0.353937
0.298538
0.308646
0.393900
0.399791
0.387855
0.429982
0.443020
0.405993
0.515776
0.501444
0.513907
0.521621
0.512668
0.572801
0.563761
0.447475
0.508351
0.559948
0.570814
0.487354
0.483918
0.455342
0.425701
0.494465
0.425722
0.435419
0.445575
0.376126
0.344094
0.386788
0.296010
0.279650
0.277118
0.250754
0.195532
0.315410
0.186511
0.202165
0.248097
0.109292
0.154880
0.056015
0.090673
0.148517
0.206308
0.081046
0.069226
0.097464
0.108062
0.093483
0.100398
0.102359
0.007825
0.017756
0.072417
0.047837
-0.029145
0.148753
0.056482
0.041414
0.083310
-0.017738
0.048225
-0.034434
0.105756
0.082638
0.097678
-0.013181
0.084980
-0.007598
0.066018
0.019062
0.045856
0.065848
-0.048702
0.043144
0.029376
0.082526
0.051864
0.071795
0.091757
0.087973
0.067852
0.056730
0.099519
0.049831
0.031680
0.077614
0.087150
0.118306
0.113676
0.004342
0.078541
0.061578
0.013236
-0.026571
-0.028825
0.026606
0.032727
0.019104
-0.030403
0.060307
-0.003602
0.122282
0.073311
0.037965
0.049976
0.108785
0.059759
0.076582
0.111691
0.085577
0.106547
0.078527
0.068698
0.170759
0.095687
0.172640
0.207656
0.161697
0.170611
0.186370
0.182683
0.152408
0.208555
0.218043
0.245665
0.151686
0.266805
0.180270
0.245369
0.209548
0.132346
0.275449
0.232665
0.169706
0.138975
0.235624
0.191250
0.195755
0.175518
0.082242
0.130453
0.141008
0.107511
0.054416
0.112590
0.111256
0.077913
0.031193
0.080396
0.079590
0.046256
0.061984
0.080996
0.076905
0.054671
0.070276
0.027854
0.033608
0.065581
0.067924
0.110339
0.058000
0.003011
0.019942
0.171729
0.399207
0.708654
1.067204
1.346144
1.404319
1.350529
1.110111
0.747959
0.361091
0.069076
-0.058258
-0.172255
-0.176796
-0.202159
0.019476
-0.066689
0.010749
0.088163
0.044480
0.087098
0.080735
0.018239
0.065613
0.088570
-0.011535
0.077260
0.030941
0.128323
0.168398
0.096226
0.242706
0.211212
0.245092
0.241107
0.233032
0.170983
0.289203
0.235496
0.276200
0.351695
0.308302
0.275332
0.321839
0.383576
0.354095
0.363316
0.347244
0.493434
0.455780
0.464671
0.470181
0.542261
0.486782
0.520771
0.516168
0.538504
0.570692
0.536519
0.563881
0.475918
0.524839
0.406936
0.471478
0.405944
0.485645
0.480221
0.429056
0.388604
0.379129
0.375136
0.415555
0.319100
0.237002
0.241961
0.196772
0.287465
0.212209
0.238198
0.157028
0.247030
0.141681
0.209024
0.151531
0.151261
0.117019
0.138542
0.128497
0.107169
-0.008265
0.008619
0.043546
0.148039
0.029023
0.095401
-0.005504
0.028887
0.025259
-0.000782
0.024528
-0.045562
0.072188
0.035673
0.039185
0.090482
-0.078987
0.024414
0.009369
-0.003841
0.034408
-0.019469
-0.043419
0.048343
0.067250
0.026111
-0.002572
0.032992
0.023637
-0.010405
-0.002062
0.042352
-0.037701
-0.020131
0.040958
0.016257
-0.078492
-0.023391
0.020625
0.004525
-0.006561
0.005488
-0.051888
-0.091679
-0.028203
0.026039
-0.003914
0.002900
-0.040103
-0.020954
-0.102148
-0.009313
0.016336
0.051218
-0.001101
0.018817
-0.029934
0.056950
-0.066531
0.002285
-0.105848
-0.030851
-0.045555
-0.041532
-0.011954
-0.036729
0.084824
0.055664
0.045599
0.049092
0.015627
0.058158
0.096988
0.079272
0.099102
0.022310
0.149019
0.125191
0.104213
0.095183
0.074314
0.160348
0.071208
0.187456
0.185733
0.104000
0.069632
0.044910
0.054672
0.015920
0.073550
0.069330
0.117109
0.062389
0.013974
-0.006084
0.134212
-0.033982
-0.066155
-0.003137
0.004443
-0.022148
-0.027708
-0.018002
-0.083707
-0.110906
-0.039469
-0.096367
-0.098831
-0.047915
-0.106788
-0.182574
-0.132273
-0.030000
-0.024579
-0.049606
-0.090233
-0.108695
-0.107503
0.084973
0.229538
0.608458
0.802048
1.184835
1.281853
1.360857
1.163434
0.674099
0.433207
0.039376
-0.184581
-0.332791
-0.318300
-0.276645
-0.188266
-0.107217
-0.094015
-0.104839
-0.053189
-0.078342
-0.073443
-0.009720
-0.018069
-0.037829
0.015883
-0.006089
-0.012291
-0.042356
0.055979
0.090294
0.055187
0.050184
0.001542
0.051287
0.174660
0.118655
0.113054
0.078437
0.195732
0.196970
0.251562
0.198706
0.195482
0.270325
0.309810
0.292340
0.278795
0.275100
0.419262
0.463474
0.372527
0.407859
0.358300
0.372390
0.479780
0.411961
0.492129
0.369212
0.409571
0.363093
0.465536
0.433446
0.375552
0.410293
0.286077
0.250218
0.380972
0.262728
0.286578
0.283872
0.257826
0.203640
0.175652
0.186404
0.177763
0.116698
0.112695
0.099696
0.096558
0.090083
0.041133
0.008646
0.061187
0.024060
0.037300
-0.018032
0.011064
-0.013673
0.012408
-0.010358
-0.042201
-0.027815
-0.059105
-0.114133
-0.126418
0.028892
-0.029319
-0.118328
-0.069648
-0.022031
-0.018152
-0.089185
-0.127772
-0.081871
-0.078292
-0.014909
-0.080921
-0.075332
-0.017145
-0.122346
-0.087632
-0.003676
-0.064332
-0.055146
-0.123539
-0.036772
-0.057881
-0.109362
-0.099104
-0.034522
-0.099631
-0.081415
0.014586
-0.129521
-0.128035
-0.004800
-0.077190
-0.088774
-0.115547
-0.208762
-0.138828
-0.058617
-0.041060
-0.080655
-0.083741
-0.037790
-0.036055
-0.117185
-0.096752
-0.155606
-0.091263
-0.061842
-0.058435
-0.098589
-0.161945
-0.083266
-0.089543
-0.137072
-0.148535
-0.027062
-0.126248
-0.130369
-0.114741
-0.027524
-0.060321
-0.040445
-0.052939
-0.095859
-0.043456
-0.035802
-0.018744
0.049690
-0.004399
0.068623
0.092422
0.052185
0.102474
-0.036416
0.059140
0.097665
0.063103
0.066356
0.123199
0.080004
0.036236
0.076357
0.057744
0.098504
0.030054
0.014675
0.074894
-0.004254
0.023460
0.011894
-0.032852
-0.014631
-0.077020
-0.017799
-0.011702
-0.070242
-0.094310
-0.066359
-0.033596
-0.065564
-0.032435
-0.047184
-0.034013
-0.014199
-0.119027
-0.048574
-0.114928
-0.055093
-0.061388
-0.117774
-0.153750
-0.108204
-0.034669
0.052974
0.060076
0.370316
0.783148
1.029115
1.226155
1.323244
1.192217
0.814059
0.493223
0.087755
-0.051966
-0.338309
-0.347825
-0.345788
-0.237012
-0.145032
-0.195439
-0.035499
-0.118733
-0.038527
-0.131649
0.006752
-0.012452
-0.067154
0.000515
0.047766
-0.003738
0.037603
0.024491
0.012499
0.098828
-0.025328
0.112650
0.079521
0.091517
0.065710
0.147893
0.107565
0.064839
0.205947
0.136282
0.168237
0.273102
0.306415
0.248252
0.337895
0.413210
0.292963
0.447983
0.381439
0.310052
0.360169
0.375635
0.468619
0.464560
0.473275
0.450251
0.446208
0.506709
0.486511
0.427494
0.433790
0.426995
0.386739
0.399814
0.425255
0.400326
0.306445
0.380866
0.303321
0.235085
0.249754
0.236020
0.211305
0.214081
0.270339
0.189862
0.145602
0.140487
0.136134
0.121635
0.053639
0.027463
0.108412
0.040562
0.005300
0.055829
0.035470
0.095178
0.021394
0.027384
0.049569
-0.008526
0.064702
-0.065508
-0.008533
-0.005052
-0.079200
0.031058
-0.062341
-0.015429
-0.004042
-0.049417
-0.046353
0.027126
-0.035412
0.016824
-0.067307
-0.013261
-0.003326
0.014081
-0.057607
-0.017218
-0.033686
0.070477
-0.013586
-0.014718
-0.049605
-0.008581
0.000356
0.055109
0.028495
0.021476
0.025948
0.032496
-0.044408
0.026835
-0.050931
-0.019741
0.020588
0.031961
-0.033991
0.028692
-0.020512
-0.011635
-0.085296
-0.013138
-0.007670
0.047334
0.005684
-0.010820
0.044405
-0.021203
0.049064
0.018260
-0.002128
-0.016068
0.024318
-0.011100
0.091957
-0.016455
0.017614
-0.047698
0.026992
0.056903
0.027384
0.031411
0.093998
0.099509
0.086051
0.206138
0.075964
0.079762
0.086376
0.187589
0.105999
0.165109
0.197691
0.208873
0.184908
0.195680
0.217245
0.258682
0.245929
0.186399
0.164868
0.199013
0.164303
0.245620
0.205087
0.114575
0.124307
0.062346
0.132129
0.071615
0.099006
0.099800
0.055978
0.074699
0.047788
0.088253
0.053778
-0.019596
0.011532
0.022159
0.045804
-0.070097
0.003309
-0.062397
-0.010417
0.046959
0.058755
0.088280
0.053768
0.082856
0.078896
0.001805
0.098774
0.213383
0.448276
0.769160
1.009750
1.302348
1.388342
1.352698
1.160272
0.746571
0.382869
0.108998
-0.078647
-0.244427
-0.108867
-0.089508
-0.016462
-0.049222
0.051688
0.021274
0.076007
0.088033
0.112055
0.116197
0.098041
0.155680
0.060731
0.087229
0.159814
0.198473
0.125265
0.102618
0.167090
0.092711
0.223119
0.185886
0.183452
0.226019
0.313029
0.291660
0.256211
0.358580
0.327732
0.400663
0.356618
0.374175
0.398828
0.553267
0.464359
0.492857
0.491149
0.512958
0.603896
0.507917
0.599101
0.498158
0.550335
0.566028
0.605626
0.561457
0.552587
0.554261
0.569441
0.541222
0.504663
0.562535
0.596180
0.474312
0.409565
0.357076
0.400438
0.437065
0.436722
0.383443
0.339563
0.295204
0.216980
0.350689
0.249983
0.162852
0.256009
0.263346
0.170862
0.162062
0.141495
0.119907
0.185708
0.053368
0.113483
0.094389
0.127723
0.093868
0.194721
0.126258
0.079574
0.072542
0.138952
0.092138
0.066691
0.086461
0.072176
0.077578
0.061161
0.102651
-0.000240
0.066183
0.066137
0.109783
0.052413
0.037939
0.103156
0.087586
0.112176
0.153653
0.132585
0.103693
0.064259
0.023541
-0.005576
0.042496
0.135366
0.022703
0.021201
0.091647
0.126098
0.014249
0.138399
0.028266
0.052142
0.042006
0.124063
