0.089690
0.084511
-0.054186
-0.001970
-0.010782
0.080182
-0.033799
-0.083094
-0.009550
-0.069345
0.032684
0.053305
-0.006826
-0.043160
-0.055745
-0.029248
-0.006895
0.042107
0.006195
0.016518
0.016470
-0.047352
-0.035513
0.067276
0.080794
0.021761
0.028376
0.002001
0.040161
-0.003793
0.022808
0.049901
-0.028689
0.011135
-0.002400
0.042895
0.077423
0.093780
0.122967
0.203094
0.058596
0.088381
0.176677
0.161444
0.253573
0.183789
0.164036
0.203302
0.149984
0.164511
0.255081
0.178226
0.102354
0.252771
0.271380
0.161857
0.181875
0.242604
0.254077
0.183065
0.115159
0.183519
0.161487
0.085808
0.164670
0.097502
0.104416
0.100580
0.091313
0.123090
0.115517
0.034114
0.066532
0.121353
0.018885
0.117574
0.159551
0.178391
0.050407
0.090436
0.067502
-0.009711
0.066373
-0.014282
0.010779
0.036779
0.073835
0.099099
0.062589
0.081872
0.028016
0.032197
-0.038305
0.033064
-0.005211
-0.004830
0.005879
0.227293
0.565989
0.851367
1.240746
1.381073
1.369420
1.299130
1.084560
0.761370
0.424521
0.062529
-0.080636
-0.247027
-0.215028
-0.241393
-0.127940
-0.018101
0.048519
0.068562
-0.003948
0.052561
0.084858
0.065376
0.075840
0.136330
0.058898
0.112943
0.089974
0.033045
0.077619
0.121391
0.152502
0.119905
0.146216
0.128490
0.159481
0.070132
0.086397
0.214544
0.181149
0.106296
0.147258
0.174147
0.118732
0.183628
0.268471
0.237371
0.248719
0.267905
0.338259
0.290015
0.346554
0.332471
0.382988
0.407343
0.493756
0.385403
0.429522
0.493672
0.571559
0.385010
0.534471
0.580717
0.590517
0.541474
0.580070
0.568194
0.581614
0.606733
0.650047
0.593531
0.479688
0.543499
0.540744
0.575178
0.517882
0.557285
0.513497
0.506918
0.462484
0.446170
0.414749
0.345366
0.442551
0.335668
0.353981
0.277062
0.281046
0.390470
0.310874
0.232695
0.184331
0.268393
0.180496
0.238727
0.142835
0.165192
0.269397
0.171902
0.098865
0.118648
0.184428
0.138493
0.066818
0.156671
0.086946
0.057731
0.094418
0.138928
0.145716
0.142152
0.132291
0.165154
0.102857
0.082302
0.064987
0.119484
0.075871
0.125351
0.075376
0.068981
0.156958
0.057039
0.112947
0.075869
0.121920
0.129173
0.139927
0.035545
0.015209
0.135538
0.060795
0.072269
0.046397
0.142320
0.071548
0.052513
0.112310
0.120698
0.090969
0.048418
0.097658
0.158545
0.048877
0.123764
0.086829
0.113352
0.077699
0.103129
0.104603
0.085583
0.212574
0.120008
0.130164
0.064150
0.063708
0.044883
0.144042
0.115159
0.088639
0.047383
0.076740
0.056202
0.095992
0.123049
0.027068
0.110079
0.080314
0.054441
0.094119
0.046069
0.152795
0.034142
0.054239
0.079649
0.130141
0.112135
0.039927
0.030875
0.135824
0.076781
0.074588
0.101420
0.141038
-0.019273
0.072036
-0.003589
0.109188
0.020830
0.078186
0.112486
0.119587
0.113086
0.064695
0.070753
0.122122
0.147040
0.186524
0.181240
0.246829
0.157722
0.178552
0.165636
0.286190
0.231958
0.277098
0.219825
0.189373
0.232683
0.256694
0.271943
0.231143
0.152707
0.158050
0.206671
0.204652
0.180369
0.114368
0.116712
0.098031
0.108425
0.074753
0.145412
0.153645
0.166241
0.123367
0.113975
0.014235
0.020880
0.105501
0.018387
-0.008450
0.012014
0.049487
0.100958
0.026185
0.111433
0.043005
0.037273
0.058061
-0.010841
0.010450
-0.049744
0.098663
-0.019214
0.045347
-0.020299
0.046207
0.040449
0.061803
-0.031429
0.078531
-0.025662
0.015737
0.228797
0.510882
0.778622
1.141430
1.375368
1.336259
1.284889
1.136784
0.790114
0.531777
0.123090
-0.137191
-0.219314
-0.291374
-0.291283
-0.192662
-0.148507
-0.038986
-0.023092
-0.015644
0.073837
0.086698
0.081681
0.048600
0.010719
-0.021285
0.002513
0.027216
-0.010983
0.088963
0.032891
0.000772
0.026837
0.042049
0.027709
0.126557
0.033800
0.056837
-0.012729
0.110217
0.131416
0.129943
0.170441
0.159550
0.161665
0.157214
0.110522
0.149553
0.201377
0.184876
0.182481
0.242077
0.351641
0.260933
0.212555
0.359393
0.351513
0.423565
0.404159
0.417721
0.466761
0.425974
0.407185
0.448396
0.475121
0.464566
0.505959
0.489094
0.524095
0.520763
0.441771
0.473133
0.544184
0.518038
0.508266
0.413314
0.426739
0.419448
0.402395
0.367137
0.370162
0.425124
0.290087
0.320591
0.269978
0.299887
0.238824
0.305231
0.167297
0.140659
0.221162
0.093590
0.176139
0.060950
0.116617
0.136440
0.070905
0.042665
0.077926
0.042333
0.049161
0.088319
0.044915
-0.031782
0.036064
-0.004352
0.048903
0.021769
-0.024945
-0.068345
-0.040701
-0.067952
0.020746
-0.052439
0.036537
0.015709
-0.014806
-0.087227
-0.036378
-0.000192
-0.029004
-0.031733
-0.047039
-0.043954
-0.033599
-0.034081
0.045619
-0.047918
-0.034311
-0.027317
-0.069500
-0.078519
-0.072222
-0.061491
-0.006992
-0.099706
-0.058186
0.015703
-0.006919
-0.034493
-0.069334
-0.097082
-0.077701
-0.073816
-0.035368
-0.000598
-0.072292
-0.056470
-0.066293
-0.044154
-0.051725
-0.009006
-0.051796
-0.030860
-0.056895
-0.013988
-0.004531
-0.042078
-0.099897
-0.144819
-0.023268
-0.047271
-0.006511
0.033284
-0.055777
-0.007139
-0.023910
-0.092094
-0.043055
-0.085666
-0.028467
-0.063317
-0.078825
-0.036064
-0.085915
-0.036502
-0.062258
-0.045123
-0.059560
0.004108
0.011543
-0.043776
-0.112520
-0.036174
0.019570
0.001787
0.083699
-0.087343
-0.000775
-0.010447
-0.031241
0.012026
0.000930
0.014542
0.055759
-0.000090
-0.046894
0.088170
0.062741
0.043296
0.065680
0.088205
0.107815
0.117374
0.131508
0.097580
0.057072
0.065006
0.136221
0.180084
0.072856
0.110286
0.060030
0.061385
0.065831
0.007135
0.058017
0.127884
0.054581
0.027953
0.010793
0.058475
-0.078353
0.001824
0.059319
0.005680
-0.085672
0.006701
0.010242
-0.027033
-0.069291
-0.064155
-0.004193
0.045190
0.056442
-0.099246
0.001971
-0.076646
-0.050486
-0.046383
-0.027953
-0.063483
-0.005386
0.025685
-0.040516
-0.108878
-0.072250
-0.054466
-0.072193
0.007218
-0.150897
-0.094108
-0.049608
-0.054903
0.066760
0.299384
0.618508
0.980454
1.219301
1.422747
1.303437
1.191141
0.819539
0.418081
0.080855
-0.072540
-0.214421
-0.339985
-0.280585
-0.221228
-0.155662
-0.251780
-0.078861
-0.048364
-0.006547
-0.028932
-0.017034
0.013022
-0.058113
-0.053694
-0.042856
0.023356
-0.031776
-0.025112
-0.017663
0.030154
0.033180
-0.079104
0.009475
0.055843
-0.001107
-0.050801
-0.020174
0.046331
0.031976
0.026893
0.112364
0.044176
0.128097
0.150066
0.086247
0.249907
0.187950
0.322182
0.247107
0.218857
0.304614
0.231877
0.267449
0.277583
0.336750
0.350868
0.385774
0.436533
0.446498
0.418982
0.334096
0.512464
0.440584
0.457980
0.569354
0.461778
0.479794
0.534392
0.503063
0.471743
0.445586
0.555941
0.493477
0.481429
0.467451
0.484413
0.425671
0.372831
0.381691
0.387987
0.248595
0.362429
0.313703
0.348360
0.211333
0.195868
0.232854
0.256029
0.168047
0.116502
0.147347
0.122325
0.076066
0.110164
0.090095
0.126362
0.120165
0.080349
0.095570
0.096175
0.016501
-0.049791
0.066911
-0.019248
0.064543
-0.005238
0.036742
0.006316
0.058853
-0.057247
-0.018379
0.034309
0.000467
-0.059293
0.012725
-0.012261
0.036494
0.055626
0.045592
-0.031319
0.038338
-0.015434
-0.049517
-0.009662
0.015859
0.050656
0.101945
0.015256
-0.022562
0.000315
-0.023792
-0.088280
0.018334
0.073741
0.017771
-0.022960
0.139656
-0.029832
0.024691
0.061927
0.082774
-0.034665
-0.016396
-0.024045
-0.067812
0.046797
0.007798
0.034217
-0.020904
0.001809
0.072031
0.067737
0.064943
0.012178
0.037039
0.022215
0.007480
-0.005598
-0.012091
0.044358
0.031357
-0.006164
0.009768
0.064252
-0.013547
-0.024550
-0.034673
0.073831
0.049922
-0.022152
0.051239
0.023621
0.053137
0.071371
-0.095288
-0.024905
0.072502
0.076641
0.054845
0.057671
-0.024255
0.015985
0.075564
0.011687
0.118819
0.065264
0.087971
0.111018
0.077668
0.084404
0.072616
0.188634
0.054680
0.099055
0.096049
0.183329
0.149557
0.186140
0.156812
0.209321
0.244269
0.221453
0.191228
0.309159
0.212740
0.249345
0.249412
0.292242
0.188154
0.207200
0.262008
0.303944
0.184963
0.167288
0.237647
0.214096
0.136826
0.170463
0.110521
0.123114
0.155850
0.167404
0.170152
0.199202
0.107540
0.090676
0.109056
0.073452
0.199630
0.110712
0.068809
0.033195
0.126249
0.012587
0.168373
0.094136
0.053193
0.002809
0.070569
0.128076
0.064694
0.091963
0.011234
0.023571
0.103625
0.080595
0.052599
0.115788
0.057961
0.009666
0.056847
0.030236
0.132209
0.338835
0.653848
1.049941
1.205474
1.500000
1.459922
1.374379
0.968648
0.620720
0.389220
0.052548
-0.170275
-0.208811
-0.167121
-0.200475
-0.011199
-0.099219
0.081592
0.078203
0.092713
0.045024
0.059611
0.061920
0.120255
0.122435
0.143404
0.111583
0.124918
0.126672
0.138306
0.046144
0.032963
0.171877
0.064648
0.189427
0.141314
0.210703
0.174145
0.143838
0.076705
0.203210
0.198710
0.246645
0.192777
0.242682
0.253371
0.229061
0.257993
0.225171
0.266594
0.400444
0.362940
0.395234
0.314602
0.352419
0.415731
0.425343
0.496132
0.514826
0.431844
0.496145
0.558970
0.547244
0.577493
0.624818
0.659169
0.556174
0.637912
0.626393
0.567283
0.656933
0.540239
0.586330
0.545708
0.518568
0.458054
0.447773
0.518843
0.453207
0.447826
0.446134
0.390214
0.419862
0.366228
0.403671
0.277493
0.343058
0.310509
0.312224
0.280079
0.230654
0.276702
0.200555
0.149401
0.180368
0.193609
0.209480
0.199158
0.148675
0.099005
0.135716
0.045235
0.166832
0.051180
0.183941
0.115397
0.100231
0.093491
0.078529
0.105101
0.051458
0.074330
0.038824
0.135008
0.064440
0.106288
0.187920
0.123054
0.063087
0.102748
0.097789
0.044497
0.069039
0.168697
0.051554
0.117379
0.064608
0.126279
0.118594
0.107022
0.083533
0.084580
-0.000536
0.096615
0.071535
-0.007388
0.081877
0.079062
0.153244
0.097789
0.021450
0.064660
0.094863
0.081295
0.114553
0.064296
0.096203
0.088251
0.107127
0.066868
0.068867
0.097217
-0.016445
0.061500
0.058978
-0.000164
-0.002432
0.130676
0.172387
0.022766
0.005244
0.112119
0.096304
0.178184
0.044161
0.060282
0.109713
0.062176
0.051527
0.093560
0.085413
0.100484
0.124737
0.038969
0.041975
0.100905
0.129850
0.056118
0.087549
0.087037
0.015098
-0.014453
0.080215
0.079264
0.034213
0.032745
0.003758
0.068981
0.044266
0.011290
0.154840
0.073101
0.122099
0.160216
0.157292
0.120339
0.118830
0.155771
0.111424
0.128210
0.187760
0.177653
0.159134
0.270654
0.210117
0.199174
0.220006
0.294207
0.216768
0.256781
0.199160
0.178362
0.213267
0.202567
0.108348
0.098977
0.178292
0.092644
0.166800
0.132552
0.123026
0.134960
0.115742
0.055549
0.036840
0.084229
0.088405
0.070280
0.083939
0.028281
-0.040850
0.043739
-0.017173
0.098564
0.054913
0.086647
0.006980
0.095032
0.024086
-0.007702
0.049055
0.053300
0.029949
0.046560
-0.002520
0.062022
0.045067
-0.023243
0.021278
-0.040110
0.067208
0.036196
-0.037552
0.039562
0.259450
0.441941
0.884391
1.132385
1.360406
1.370899
1.250818
1.081894
0.778281
0.353136
0.080470
-0.179103
-0.314244
-0.346079
-0.220805
-0.115989
-0.042602
-0.036031
0.036339
0.073586
-0.001320
0.008231
-0.008499
0.021284
-0.108064
0.029851
0.021158
0.048076
0.055234
0.039638
0.048229
0.005201
-0.013014
0.039536
-0.007510
0.130021
0.118274
0.048699
0.020812
-0.003820
0.036520
0.063309
0.141612
0.102703
0.146197
0.165151
0.175850
0.144468
0.227456
0.184042
0.232837
0.311919
0.345636
0.288874
0.375989
0.257773
0.390563
0.345927
0.418855
0.442864
0.434798
0.417547
0.463526
0.430910
0.418116
0.463653
0.469827
0.470089
0.570409
0.475106
0.470518
0.489058
0.449342
0.412654
0.554417
0.406832
0.390387
0.418907
0.399812
0.395062
0.371629
0.317408
0.341532
0.255497
0.212537
0.236503
0.216080
0.234091
0.169864
0.084365
0.173342
0.089580
0.081259
0.091656
0.090263
0.152004
0.005182
0.041033
0.083223
0.002006
0.001949
0.068436
-0.045648
0.030407
-0.063031
-0.014830
-0.049231
0.013271
-0.022462
-0.023869
-0.042092
-0.046094
0.007564
-0.030607
-0.030378
-0.096338
-0.022179
-0.035295
-0.006966
-0.095072
-0.036558
-0.052068
-0.038972
-0.000456
-0.004521
-0.073378
0.036075
-0.067761
-0.033416
-0.072062
-0.043123
-0.139423
-0.089884
-0.001368
0.025393
-0.028770
-0.032839
-0.166322
-0.117558
-0.020328
0.007189
-0.032233
0.015617
-0.018248
-0.098711
-0.119280
-0.120946
-0.066652
-0.049891
-0.021005
0.014954
0.041585
-0.045347
-0.048645
-0.026992
-0.086737
-0.013402
-0.055696
-0.045449
-0.105618
-0.065239
-0.101708
-0.057397
-0.082547
-0.080170
0.051035
-0.071165
-0.059748
0.014204
-0.090236
0.000287
-0.010777
-0.070285
-0.077329
0.007863
-0.103388
-0.017942
-0.059699
-0.039005
-0.105870
-0.024677
-0.108622
-0.079561
-0.072749
-0.027424
-0.075068
-0.132848
-0.160375
-0.042600
-0.064987
-0.038543
-0.071536
-0.011973
0.061381
0.001688
0.005563
0.014533
0.106699
0.154290
0.045471
0.080902
0.042012
0.091902
-0.008010
0.106916
0.092518
0.023922
0.159694
0.076616
0.085460
0.182624
0.103512
0.112999
0.081137
0.003412
0.063518
0.098356
0.183758
-0.016411
-0.021037
0.009310
-0.040498
-0.014609
0.019234
-0.083265
-0.039446
-0.041703
-0.042598
-0.009627
-0.132984
-0.025195
-0.021559
-0.051283
-0.140931
-0.087391
-0.052423
-0.057285
-0.066492
-0.089124
-0.093875
-0.109975
-0.107588
-0.065951
-0.080486
-0.160273
-0.039293
-0.120621
-0.085982
0.018680
-0.097741
-0.192714
-0.113065
-0.152665
-0.040639
0.142410
0.324376
0.677873
0.937220
1.223072
1.347267
1.157178
1.022088
0.741663
0.302830
-0.009237
-0.224276
-0.380606
-0.364440
-0.315183
-0.354850
-0.151339
-0.102979
-0.108832
-0.119995
-0.023288
-0.068200
-0.018484
-0.005526
-0.091583
-0.023736
-0.082299
-0.127436
-0.077130
-0.030273
-0.043585
-0.042908
-0.050259
-0.032395
-0.081403
-0.077965
-0.000506
0.002194
-0.018003
-0.034336
0.006105
0.031747
0.110437
0.093501
-0.026043
0.156629
0.109276
0.115995
0.103726
0.150641
0.100719
0.187041
0.233520
0.218079
0.191366
0.209419
0.262068
0.251208
0.285535
0.306372
0.444535
0.268031
0.421269
0.373508
0.368536
0.440524
0.433272
0.455862
0.528500
0.429986
0.469962
0.525000
0.497239
0.427559
0.374424
0.405994
0.404455
0.381053
0.357226
0.339481
0.338944
0.251196
0.317784
0.210176
0.252898
0.305445
0.212344
0.200326
0.174378
0.173758
0.099990
0.183715
0.106728
0.088830
0.101740
0.083713
0.062895
0.042442
-0.007123
0.050889
0.018508
-0.038028
0.045994
-0.035176
0.075248
-0.046784
-0.022384
-0.033437
-0.029773
-0.053523
-0.053721
-0.089645
-0.026634
-0.071428
0.003405
-0.062314
-0.046975
0.033601
-0.068439
-0.023835
-0.017696
-0.088928
-0.033606
-0.005634
-0.061118
0.082337
-0.007294
-0.058989
-0.027911
-0.015628
-0.068778
-0.040925
-0.025410
-0.058148
-0.034585
-0.018357
0.004216
-0.040174
-0.034047
0.003463
0.034537
-0.027694
-0.042242
0.037848
-0.043782
-0.031983
-0.034846
0.000665
0.002709
-0.022104
-0.014384
0.057495
0.003597
-0.083118
0.000032
-0.013590
-0.044035
0.026133
-0.069041
-0.004268
-0.011850
0.002847
-0.105256
0.006233
-0.008239
0.024574
0.006484
0.016091
-0.062412
0.060337
-0.000662
0.004075
-0.004716
0.013411
0.085142
-0.073145
-0.016279
-0.055949
-0.046922
0.065891
-0.035197
0.068329
-0.057427
-0.030762
0.015088
0.022208
-0.018172
-0.079853
0.013951
0.039953
0.047448
0.080784
0.109360
0.089616
-0.004023
0.060468
0.066786
0.140049
0.143470
0.137971
0.131176
0.120047
0.056966
0.141959
0.200539
0.064325
0.232244
0.157766
0.164316
0.194718
0.215157
0.144082
0.132229
0.140763
0.172405
0.167392
0.236370
0.146616
0.200284
0.136971
0.143561
0.145138
0.147654
0.012538
0.016456
0.033825
0.042152
0.039393
0.019999
0.056397
0.043745
0.084949
0.073165
0.042298
-0.023568
0.005523
0.148502
0.022478
0.024448
0.107757
-0.060328
-0.000908
0.040399
0.156098
0.026221
-0.035412
0.078033
0.096529
-0.009065
0.068839
0.018449
-0.033368
0.023081
0.065640
0.131697
0.344125
0.660812
1.048206
1.235985
1.411790
1.384837
1.090657
0.886257
0.568886
0.277192
-0.015578
-0.198667
-0.278053
-0.416878
-0.154099
-0.102845
-0.095221
0.004777
-0.055712
0.002653
-0.006612
0.012089
0.006700
0.056309
0.034861
0.082311
0.043751
0.104700
0.137441
0.096072
0.104280
-0.031217
0.057819
0.034296
0.125733
0.017696
0.138980
0.096305
0.064986
0.160027
0.155992
0.054124
0.159103
0.068933
0.183330
0.232388
0.238697
0.212540
0.240705
0.311400
0.271949
0.320382
0.415147
0.414702
0.392018
0.366231
0.360329
0.388451
0.450189
0.501614
0.439202
0.503909
0.571466
0.511971
0.483415
0.506864
0.601008
0.589072
0.595489
0.497741
0.533910
0.549098
0.559565
0.497489
0.506419
0.432251
0.475922
0.484927
0.403162
0.418392
0.463924
0.381856
0.363905
0.280683
0.397912
0.287157
0.207154
0.265953
0.233630
0.306259
0.219000
0.141521
0.179289
0.121465
0.218834
0.115303
0.125009
0.128850
0.115310
0.114870
0.100083
0.116983
0.102229
0.110692
0.022619
0.036587
0.138759
0.017786
0.094358
0.064444
0.116728
-0.030320
0.049051
0.042197
0.026450
0.068220
0.018807
0.064427
0.050180
0.021720
0.016210
0.038526
0.016459
0.082756
0.068439
0.062459
0.013759
-0.054137
0.110286
-0.007135
0.052889
0.063197
0.043517
0.028036
-0.013512
0.063888
0.032938
0.068911
0.072818
0.019063
0.054199
0.054294
0.024479
0.010790
-0.021744
-0.018082
0.112008
0.011308
0.054044
0.001888
0.031836
0.000975
0.049585
0.014901
0.029465
0.045767
-0.014389
-0.018852
0.060361
0.059492
-0.006579
-0.010112
-0.072969
0.028371
0.037224
0.076976
-0.003940
-0.005681
0.009390
0.022596
0.034445
-0.122348
0.065636
0.066042
0.065542
0.100143
0.041289
-0.024393
0.062176
0.013289
-0.037809
-0.041727
-0.021677
0.112651
0.099357
0.028745
-0.018405
0.009092
0.085812
0.125644
0.016841
0.022158
0.124612
0.083839
0.141713
0.069672
0.050549
0.085611
0.128914
0.155336
0.082871
0.244646
0.239343
0.141960
0.154951
0.137618
0.106910
0.140366
0.222729
0.206811
0.231192
0.165589
0.177632
0.182085
0.151542
0.097732
0.124138
0.160866
0.103774
0.003171
0.056845
0.088814
0.025916
0.093169
0.118722
0.057348
0.050883
0.050282
0.031840
0.038520
0.035360
0.002054
-0.044474
-0.010159
-0.054304
0.089942
-0.064753
-0.005546
-0.002488
-0.048781
-0.064909
-0.057118
0.016645
-0.026055
-0.013185
-0.008813
0.064250
-0.052504
-0.053661
-0.062100
-0.156330
-0.100221
-0.001060
0.100850
0.264502
0.570668
0.910384
1.206614
1.397806
1.391667
1.235397
0.931897
0.542746
0.242618
-0.030560
-0.255012
-0.315056
-0.298277
-0.364616
-0.166687
-0.184040
-0.142983
-0.066038
0.055831
-0.057242
-0.049223
-0.066434
0.027096
-0.060659
-0.045449
0.004350
-0.044973
0.023466
-0.021474
-0.023409
-0.054753
-0.003197
0.017145
-0.015217
0.098592
0.018643
0.061435
0.076526
0.025925
0.072388
0.072682
0.103075
0.123623
0.087727
0.107547
0.038360
0.083936
0.167372
0.210845
0.154565
0.233611
0.197471
0.257440
0.281319
0.284643
0.330783
0.318446
0.365598
0.430735
0.344890
0.318003
0.345764
0.466994
0.440113
0.426350
0.346069
0.496613
0.475133
0.336269
0.407549
0.480595
0.378258
0.454120
0.462983
0.289250
0.417409
0.393934
0.378968
0.350238
0.348213
0.255322
0.295225
0.209889
0.229434
0.142811
0.140878
0.137053
0.163129
0.100938
0.149338
0.057417
0.070075
0.070399
0.001586
0.014815
-0.013628
-0.028405
0.046883
-0.021261
-0.069423
-0.027124
-0.058411
-0.037394
-0.041901
-0.026640
0.032388
-0.127530
-0.096315
-0.122083
-0.046622
-0.003280
-0.029166
-0.078578
-0.016779
-0.135153
-0.006553
-0.024984
-0.135136
-0.142354
-0.089575
-0.117383
-0.142171
-0.075121
-0.051806
-0.061209
-0.142574
-0.058668
-0.015818
-0.050821
-0.071590
-0.094071
-0.086531
-0.057950
-0.116747
-0.118281
-0.145840
-0.084361
-0.121428
-0.078746
-0.213292
-0.091095
-0.037473
-0.068811
-0.104220
-0.073458
-0.122749
-0.176360
-0.112625
-0.066718
-0.056865
-0.111173
-0.071598
-0.075287
-0.067559
-0.049965
-0.083120
-0.055054
-0.151786
-0.164743
-0.025611
-0.039505
-0.126936
-0.148686
-0.042990
-0.044771
-0.064014
-0.072890
-0.102941
-0.083700
-0.132963
-0.115396
-0.110266
-0.147104
-0.151015
0.004572
-0.106517
-0.106002
-0.064498
-0.130576
-0.089319
-0.058861
-0.134776
-0.076301
-0.077656
-0.147547
-0.068293
0.034061
-0.076117
-0.146398
-0.055029
-0.009539
-0.059410
-0.072910
-0.105418
-0.036197
0.018756
-0.054109
0.031252
0.058568
0.044089
0.041691
0.028373
0.089764
0.061933
0.107499
0.070525
0.048569
0.052637
0.022166
-0.000438
0.049984
0.105729
0.056586
0.082545
0.023182
0.017177
-0.008383
-0.007323
0.040967
-0.037861
0.034152
-0.022205
0.004086
-0.105903
-0.025179
-0.048682
-0.037731
-0.083011
-0.082420
-0.113789
-0.105812
-0.111891
-0.041086
-0.147821
-0.026973
-0.073728
-0.075900
-0.174433
-0.126208
-0.095094
-0.027083
-0.157574
-0.164772
-0.129576
-0.160232
-0.107887
-0.028120
-0.146407
-0.122599
-0.164460
-0.195377
-0.196999
-0.047607
0.110157
0.494491
0.768756
1.014020
1.267112
1.291755
1.191449
0.885778
0.613250
0.236406
-0.062198
-0.187727
-0.330650
-0.379704
-0.332264
-0.300014
-0.179729
-0.068299
-0.041908
-0.161640
-0.126840
-0.067510
-0.072577
-0.004134
-0.101730
-0.123846
-0.043128
0.049958
-0.026734
-0.121081
-0.036106
-0.057610
-0.111119
-0.041564
0.028814
-0.060730
-0.029814
0.019336
-0.122973
0.004771
-0.006465
-0.071937
0.149019
0.078364
0.057735
0.104640
0.105988
0.054105
0.118883
0.084085
0.134689
0.221700
0.200622
0.187165
0.334791
0.253998
0.302096
0.384701
0.332406
0.361728
0.399309
0.469008
0.377677
0.477729
0.449641
0.480707
0.442162
0.470895
0.515297
0.445894
0.452978
0.437811
0.443449
0.359816
0.402100
0.373335
0.347322
0.429694
0.344683
0.309084
0.351710
0.352975
0.202634
0.311899
0.205961
0.240913
0.134230
0.187706
0.122166
0.105682
0.165739
0.038779
0.070605
-0.005472
0.083671
0.007832
0.049284
0.133393
0.035296
0.050686
-0.024482
-0.035910
-0.044458
-0.030575
0.043146
0.041071
-0.016478
-0.039472
-0.068602
-0.010653
-0.013723
-0.102111
-0.032164
-0.010352
-0.054177
-0.035297
-0.059508
0.030924
-0.082436
-0.065046
-0.051343
0.000870
-0.126051
-0.019882
-0.031414
0.029797
-0.017315
-0.031730
-0.066505
0.023465
-0.000818
0.016883
-0.053644
-0.043686
0.012104
-0.015926
0.048445
0.010776
0.069175
-0.076284
0.026946
-0.026102
-0.007550
-0.041976
-0.027312
-0.007299
0.021112
0.038039
0.041025
0.005697
-0.009344
-0.041802
-0.000656
-0.059713
0.009115
0.019361
-0.028921
-0.021924
-0.028170
0.011069
0.025622
-0.034834
-0.037702
-0.015919
-0.065340
0.047588
0.000950
0.013400
0.027495
-0.003484
0.093527
-0.064564
0.030172
0.039604
0.004659
-0.024837
-0.030695
0.026591
0.064884
-0.036500
0.069750
0.030096
0.037459
0.046625
0.079445
0.024512
-0.001573
-0.000744
0.057335
0.095944
0.089274
0.070468
-0.000698
0.132416
0.030559
0.146131
0.142342
0.080636
0.104400
0.029951
0.199678
0.127941
0.140744
0.233967
0.214472
0.157438
0.198244
0.215835
0.140493
0.334558
0.170809
0.143823
0.151810
0.183312
0.271727
0.195874
0.140839
0.164712
0.215564
0.090981
0.099646
0.127295
0.098685
0.130083
0.069761
0.142442
0.093168
0.035323
-0.017959
0.054960
0.062669
0.031872
0.088792
0.118587
0.030435
0.032924
0.035264
0.035865
0.025280
0.090038
0.014011
-0.018643
0.036037
-0.004474
0.047181
0.055375
0.066866
0.051729
0.034594
0.000253
0.052412
0.001672
0.104734
0.067385
0.303317
0.513820
0.838394
1.135137
1.384880
1.440176
1.308552
1.082173
0.836438
0.457229
0.271555
-0.064333
-0.209478
-0.329939
-0.223897
-0.205739
-0.024156
0.033794
0.032386
0.106523
0.092402
0.049143
0.104965
0.051964
0.097394
0.021739
0.049945
0.097057
0.102702
0.040391
0.114842
0.098913
0.065082
0.114551
0.029763
0.123012
0.145267
0.146294
0.214954
0.061129
0.114864
0.113763
0.092981
0.127435
0.145771
0.314199
0.249581
0.256084
0.182396
0.259055
0.210235
0.331516
0.395741
0.306966
0.327989
0.355804
0.415544
0.479150
0.538487
0.430048
0.478339
0.469448
0.606250
0.522797
0.569500
0.619303
0.538139
0.563995
0.535833
0.567888
0.512873
0.537680
0.585679
0.517664
0.574715
0.482818
0.507883
0.468715
0.455795
0.492038
0.413199
0.369760
0.396859
0.446235
0.333464
0.319013
0.282927
0.298170
0.276604
0.351234
0.257928
0.178249
0.199180
0.186707
0.216582
0.165429
0.097504
0.143728
0.104536
0.129184
0.192222
0.198559
0.150463
0.128821
0.143000
0.113327
0.107892
0.005436
-0.029565
0.077773
0.155390
0.098367
0.079677
0.021446
0.110195
