-0.003373
0.049338
-0.137495
0.007320
-0.011646
-0.027323
-0.000969
0.021068
0.041496
0.022514
0.028641
0.106210
0.013070
0.033872
0.028226
0.016371
-0.034389
0.070584
0.033704
-0.004915
0.028280
0.044543
0.093879
0.038139
0.094597
0.070530
0.056113
0.094343
0.118537
0.143746
0.107007
0.135028
0.153515
0.173945
0.209941
0.208222
0.200875
0.240384
0.157991
0.206928
0.216063
0.206467
0.138067
0.124493
0.266079
0.146892
0.178887
0.169594
0.133140
0.100469
0.169524
0.076359
0.162460
0.038652
0.071917
-0.010149
0.050911
0.095176
0.088067
0.077874
0.108425
0.014094
0.072507
0.005673
0.065795
0.054648
0.059874
-0.025785
0.040446
0.191963
0.424470
0.676886
0.988896
1.289986
1.374044
1.388011
1.051871
0.705640
0.326035
0.063373
-0.143688
-0.132786
-0.099882
-0.051408
-0.022837
-0.023803
0.129952
0.035256
0.113844
0.120563
0.047415
0.025370
0.187613
0.119180
0.185719
0.149770
0.201663
0.226310
0.290150
0.242822
0.223644
0.221057
0.220493
0.323634
0.309238
0.450377
0.448121
0.421251
0.495381
0.524030
0.500501
0.528930
0.519464
0.517929
0.436528
0.577051
0.617322
0.569060
0.611924
0.569881
0.581584
0.585316
0.591942
0.590274
0.548407
0.637139
0.543747
0.576164
0.500029
0.506254
0.436556
0.439043
0.492293
0.439432
0.377097
0.395295
0.271409
0.332475
0.313576
0.334537
0.286682
0.318023
0.317373
0.234902
0.196234
0.191894
0.257692
0.178139
0.140257
0.123647
0.103509
0.139388
0.095510
0.100108
0.149602
0.116451
0.173103
0.130513
0.113752
0.150502
0.090660
0.079665
0.125104
0.099365
0.114313
0.163690
0.028374
0.150830
0.060689
0.060535
0.110229
0.134314
0.096993
0.092520
0.180707
0.115500
0.122701
0.122542
-0.008489
0.143176
0.211959
0.136035
0.066370
0.110651
0.122013
0.081607
0.081892
0.138210
0.099447
0.173541
0.146176
0.015950
0.042334
0.096777
0.039087
0.052266
0.076936
0.017184
0.057950
0.081781
0.085933
0.119117
0.120260
0.077298
0.057722
0.165113
0.135448
0.103360
0.187761
0.178332
0.219627
0.186250
0.141945
0.199378
0.251484
0.302771
0.198952
0.162561
0.279233
0.231004
0.261194
0.236681
0.195020
0.252198
0.359864
0.204452
0.319748
0.254478
0.254121
0.178780
0.190989
0.140962
0.179614
0.128692
0.176101
0.214450
0.133573
0.029624
0.152411
0.181117
0.082441
0.104467
0.122554
0.063357
0.138169
0.060972
0.026871
0.090314
0.116611
0.128847
0.045063
0.086631
0.096716
0.142916
0.262876
0.363544
0.682189
0.948719
1.282926
1.500000
1.403916
1.132380
0.855420
0.433962
0.156882
0.039233
-0.093874
-0.108612
-0.106978
0.046807
-0.049148
0.024103
0.139665
0.108305
0.176054
0.162558
0.056927
0.113682
0.158525
0.134355
0.278970
0.247645
0.185142
0.262448
0.242317
0.327570
0.255185
0.304415
0.266089
0.280597
0.368280
0.341673
0.330574
0.412871
0.536181
0.374941
0.456683
0.544641
0.410339
0.490443
0.557540
0.500923
0.497845
0.640111
0.614339
0.555251
0.541898
0.512470
0.570214
0.549260
0.498661
0.472322
0.501591
0.504307
0.472553
0.371402
0.404357
0.464023
0.378979
0.381857
0.369376
0.296194
0.261028
0.262873
0.242347
0.207685
0.318761
0.181428
0.122094
0.247113
0.131924
0.172350
0.080662
0.170800
0.074911
0.136954
0.161585
0.144328
0.041868
0.025800
0.070559
0.078978
0.140783
0.054430
-0.037358
0.055752
0.026418
0.117722
0.013070
0.090196
0.065635
0.142175
0.039678
0.060653
0.049702
0.037490
0.040961
-0.010049
-0.007478
0.028879
0.026916
0.090503
0.066258
0.008341
0.032698
-0.011791
-0.005118
0.033161
-0.021088
0.051871
0.028192
0.042282
0.021886
0.032328
-0.000694
-0.039520
0.124152
0.043301
0.075259
0.081596
0.076656
-0.023814
-0.105493
0.011461
0.006356
0.033791
0.029632
0.033269
0.016701
0.033708
0.067102
0.066153
0.071147
0.052447
0.114846
0.063844
0.215656
0.181272
0.070555
0.179676
0.199630
0.169429
0.166645
0.162703
0.184385
0.198995
0.134824
0.201511
0.222499
0.238665
0.182035
0.179209
0.077556
0.132012
0.140118
0.137461
0.095711
0.123623
0.160824
0.065654
0.012229
0.051740
0.049949
0.010311
0.026145
-0.001730
0.080415
0.034543
-0.011852
0.019057
0.006611
0.008879
0.036848
-0.040562
-0.040873
-0.066279
0.038215
-0.031594
0.047712
0.120466
0.260649
0.546556
0.863532
1.092994
1.303807
1.332560
1.158098
0.822035
0.443409
0.102157
-0.163752
-0.257570
-0.139420
-0.072930
-0.133944
-0.104137
0.013376
0.050768
0.020481
0.054116
-0.069922
0.107718
0.074062
0.040302
0.050088
0.026765
0.116156
0.075444
0.068770
0.150842
0.193624
0.238604
0.156930
0.217031
0.195417
0.188437
0.277772
0.289700
0.292610
0.348996
0.296610
0.345908
0.407521
0.389819
0.425941
0.534933
0.498553
0.465461
0.516411
0.310335
0.541436
0.428621
0.418388
0.507655
0.450264
0.458050
0.434157
0.417425
0.380993
0.399246
0.394353
0.351141
0.405579
0.359827
0.300568
0.221645
0.226248
0.210864
0.223965
0.212896
0.152494
0.186972
0.092613
0.155811
0.161869
0.008278
0.102386
0.035726
0.052425
0.085772
0.089471
-0.042813
-0.028640
0.049751
0.068619
-0.008164
-0.026386
0.011351
-0.050163
-0.037661
-0.034722
-0.012327
0.066425
-0.059449
-0.084253
0.005841
-0.055770
-0.126977
-0.011895
-0.032028
-0.065326
-0.031633
-0.023242
-0.093825
-0.068921
-0.108166
-0.052995
-0.028984
-0.074596
-0.032091
-0.041935
-0.033816
-0.061800
-0.016937
-0.042528
-0.025970
-0.027602
-0.043248
-0.004151
-0.052399
-0.079890
-0.052571
-0.037868
-0.070688
-0.044903
-0.068851
-0.036267
-0.033388
-0.108459
-0.025555
-0.035081
-0.055541
-0.006969
0.015522
-0.028855
-0.033341
0.043000
0.003677
-0.020761
-0.047617
0.016783
0.047230
0.101590
0.061902
0.125146
0.072610
0.136245
0.148493
0.120671
0.150934
0.156318
0.101967
0.129198
0.207500
0.151431
0.088671
0.112246
0.088146
0.129981
0.062832
0.084173
0.126752
0.007763
-0.001209
0.023479
0.094373
-0.033648
0.070335
0.024953
-0.005629
-0.037771
0.035931
0.011104
-0.065369
-0.029019
-0.054747
0.013036
-0.003893
-0.056579
-0.054177
-0.071494
0.030371
-0.027606
0.089133
0.031218
0.251966
0.429190
0.755670
1.110270
1.259136
1.265503
1.110865
0.932865
0.575138
0.193684
-0.037950
-0.246826
-0.226748
-0.092571
-0.148580
-0.041590
-0.034082
-0.037241
0.005720
0.005336
0.011013
0.059357
0.143590
0.097238
0.105405
0.029461
0.095087
0.028809
0.161806
0.085360
0.154042
0.145384
0.213889
0.178799
0.232679
0.169193
0.264600
0.273867
0.266721
0.407423
0.400880
0.280720
0.343965
0.418940
0.407032
0.439348
0.483073
0.503481
0.485645
0.465831
0.485006
0.459133
0.544772
0.426203
0.500107
0.417658
0.433187
0.459028
0.385818
0.435048
0.514166
0.399731
0.360198
0.301386
0.307062
0.274964
0.334012
0.285551
0.257771
0.268432
0.230208
0.205819
0.185091
0.189141
0.142397
0.182907
0.099471
0.075916
0.076350
0.034233
0.118853
0.007764
0.077578
0.017680
0.045824
-0.000497
0.108381
0.095862
-0.005012
0.019150
0.009251
0.029003
-0.003223
0.042619
0.047778
0.014680
0.116076
-0.039934
-0.019821
0.017400
0.015937
-0.039110
0.039768
0.033783
0.092013
0.085654
-0.006480
0.078202
0.017852
-0.075264
0.037811
0.025406
0.049455
-0.015640
-0.001300
0.071605
-0.022000
0.035748
0.049987
0.019182
0.042252
0.051869
-0.036386
-0.037194
0.054541
0.031824
0.055858
0.021432
-0.038687
0.127009
-0.016219
0.065098
0.013392
0.069172
0.038637
0.077750
0.070350
0.051648
0.112483
0.069225
0.117357
0.079715
0.088501
0.138995
0.255393
0.149589
0.213501
0.209956
0.219671
0.142678
0.225767
0.212154
0.197801
0.205975
0.205062
0.238696
0.171188
0.201152
0.290528
0.125544
0.212360
0.198283
0.185166
0.082117
0.150303
0.064566
0.145755
0.004193
0.103545
0.088005
0.087104
0.105009
0.057206
0.017298
0.025793
0.112063
0.101829
0.023998
0.036221
-0.002000
0.116093
0.089683
0.060032
0.019425
0.228606
0.206205
0.503262
0.823355
1.038160
1.229034
1.391781
1.295014
1.041676
0.658094
0.348935
0.010502
-0.071221
-0.171394
-0.023055
0.051943
0.009103
0.083205
0.085704
0.054422
0.142284
0.198370
0.061060
0.098421
0.190189
0.161739
0.209118
0.208133
0.152897
0.202248
0.194217
0.239367
0.386129
0.278374
0.254585
0.334456
0.386831
0.384742
0.399932
0.451387
0.478247
0.501603
0.457837
0.572682
0.473118
0.472830
0.499353
0.514385
0.526559
0.576415
0.615613
0.558143
0.524978
0.571401
0.579063
0.531086
0.564070
0.505364
0.563250
0.487551
0.490566
0.552019
0.534717
0.461933
0.411236
0.437656
0.448224
0.424375
0.414341
0.389334
0.251180
0.272169
0.281556
0.307910
0.227283
0.212797
0.165364
0.251294
0.169826
0.193147
0.203877
0.183657
0.146959
0.220045
0.177197
0.137069
0.233552
0.148466
0.126227
0.231219
0.136312
0.095080
0.070703
0.059528
0.095974
0.130695
0.072320
0.200314
0.044366
0.112768
0.140787
0.035264
0.090801
0.103342
0.011156
0.100940
0.086590
0.130448
0.038575
0.184038
0.064351
0.092219
0.031047
0.076765
0.125598
0.048385
0.149167
0.120795
0.140019
0.126573
0.084553
0.083484
0.128151
0.065135
0.114922
0.110242
0.091317
0.115554
0.220871
0.072874
0.110457
0.057288
0.141058
0.099771
0.096745
0.103629
0.159954
0.126049
0.165943
0.115826
0.154412
0.134684
0.140790
0.111208
0.178952
0.300531
0.227215
0.275010
0.175178
0.281634
0.213920
0.230404
0.298673
0.224719
0.272528
0.231285
0.170688
0.285294
0.301822
0.252950
0.151939
0.193043
0.211922
0.223889
0.237643
0.202706
0.253203
0.165986
0.153216
0.187891
0.086828
0.128702
0.104170
0.069800
0.129577
0.062591
0.067273
0.134242
0.151855
0.062986
0.170591
0.037413
0.085633
-0.024557
0.023557
0.156256
0.259333
0.566565
0.786249
1.077415
1.229795
1.496186
1.366434
1.107595
0.725452
0.386801
0.142025
-0.073774
-0.093992
-0.066336
-0.110943
0.048568
0.004606
0.156219
0.096700
0.180053
0.164885
0.171962
0.131481
0.111579
0.137246
0.169081
0.127202
0.207321
0.289501
0.246012
0.258441
0.276369
0.297264
0.319659
0.324316
0.288431
0.385600
0.388783
0.448230
0.506988
0.447535
0.391617
0.516464
0.497219
0.525762
0.533548
0.493027
0.577984
0.576283
0.492215
0.618505
0.557517
0.471197
0.582609
0.555053
0.570076
0.475312
0.536283
0.531167
0.465618
0.550362
0.471617
0.405160
0.429696
0.348689
0.437667
0.378552
0.344938
0.313367
0.338531
0.291493
0.262565
0.115728
0.266215
0.291417
0.110896
0.145677
0.076583
0.217500
0.103517
0.121999
0.131790
0.110775
0.104398
0.120211
0.037522
0.103926
0.067203
0.040840
0.058898
0.099085
0.105171
0.076658
0.041345
0.032099
0.027723
0.001717
0.066925
0.082888
-0.000801
-0.020716
-0.056470
0.040042
0.035401
0.062567
0.052494
0.013637
0.040721
0.043738
0.072704
0.043238
-0.042591
0.103002
0.040073
0.091353
-0.029420
-0.025318
0.126909
-0.032031
0.145093
0.029500
0.017469
0.024491
0.027088
0.056310
-0.019152
0.003315
-0.002275
0.005000
-0.012529
0.007064
0.061191
0.028537
0.068246
0.009302
0.055804
0.021310
0.044986
0.046453
0.056292
0.066895
0.123767
0.142083
0.106945
0.054636
0.099405
0.171364
0.221497
0.203655
0.171309
0.209372
0.188894
0.225764
0.192865
0.117734
0.303012
0.199386
0.136877
0.147474
0.088140
0.118804
0.184321
0.135507
0.186664
0.178632
0.095893
0.123811
0.022017
0.085481
0.036769
0.076833
0.021512
0.049935
0.059266
0.026980
-0.011970
-0.009875
-0.041192
-0.081142
0.049508
-0.073429
-0.002882
0.043785
0.055656
0.039420
0.117310
0.340883
0.479021
0.867039
1.149271
1.319614
1.334211
1.001421
0.677477
0.292642
0.090657
-0.182615
-0.182198
-0.178342
-0.193408
-0.034038
-0.031956
0.034888
-0.032703
-0.012595
0.083740
0.074735
-0.001818
-0.046507
0.045207
0.078970
-0.014125
0.109804
0.082843
0.064477
0.208665
0.065986
0.196551
0.234244
0.218746
0.212981
0.189906
0.230123
0.242234
0.349296
0.357810
0.391468
0.370890
0.329526
0.383339
0.432207
0.458404
0.324110
0.517873
0.453727
0.396749
0.499461
0.531179
0.377784
0.457259
0.467564
0.392335
0.430480
0.416492
0.483164
0.400148
0.293410
0.401911
0.306792
0.317850
0.275905
0.229693
0.213775
0.233732
0.183563
0.195775
0.110105
0.209417
0.075108
0.126319
0.217224
0.042108
0.119713
-0.000839
0.052687
0.031233
-0.001588
-0.018407
0.054980
-0.010998
-0.011756
-0.042637
-0.062602
-0.155459
-0.021245
-0.028029
-0.061720
-0.030624
-0.039538
-0.072036
0.041156
-0.061290
-0.070179
-0.016085
-0.030486
-0.032799
-0.096645
-0.112283
-0.079002
-0.040774
-0.090051
-0.001330
-0.049452
-0.080377
-0.138629
-0.129672
-0.043877
-0.097711
-0.043608
-0.045768
0.000546
-0.036176
-0.026470
-0.101733
-0.085939
-0.048581
-0.097431
-0.013491
-0.068855
-0.118526
-0.120020
-0.095973
-0.068217
-0.070012
-0.049081
-0.070453
-0.174549
-0.097862
-0.027671
-0.049520
-0.114731
0.040750
0.022867
-0.026278
-0.034842
0.064266
-0.023418
0.005492
-0.021218
0.030206
-0.028592
0.129869
0.055283
0.080165
0.099737
0.141831
0.096283
0.085271
0.138930
0.082543
0.012473
0.073992
-0.030778
0.100290
0.046730
0.085486
-0.012777
0.015611
0.028826
0.046126
0.012541
-0.114864
-0.094983
-0.061331
0.023690
-0.053184
0.015234
-0.081462
-0.088104
-0.056205
-0.015445
-0.107240
-0.114746
-0.047054
-0.011735
-0.047859
-0.009227
-0.130508
-0.111681
-0.106360
0.084760
0.233289
0.495349
0.811304
1.050599
1.215310
1.237043
1.004848
0.757419
0.403278
0.047811
-0.213920
-0.274062
-0.326492
-0.219516
-0.127138
-0.132997
-0.040994
-0.102046
-0.051763
-0.039462
-0.008882
0.005280
-0.013314
-0.032973
0.042277
0.026338
0.061980
0.087259
0.122219
0.103855
0.104184
0.163695
0.177448
0.167166
0.145586
0.216150
0.189100
0.169734
0.259826
0.236696
0.225586
0.373854
0.386368
0.420151
0.426791
0.293917
0.446994
0.504773
0.455860
0.517886
0.468620
0.455269
0.439686
0.440814
0.404789
0.463796
0.376808
0.361406
0.375028
0.424029
0.377332
0.347836
0.401528
0.244263
0.318244
0.274429
0.327611
0.188207
0.246250
0.166091
0.124352
0.106322
0.071574
0.155089
0.104825
0.087187
0.078500
0.017457
0.117707
0.020961
0.031569
0.014746
-0.096741
0.072180
0.070282
0.009161
0.008949
-0.019066
-0.026281
-0.025858
0.032030
-0.049785
0.038784
-0.092174
-0.035174
0.022442
-0.070123
0.034411
-0.043301
-0.081604
-0.127825
-0.036396
-0.067831
0.021438
0.006356
-0.041413
-0.050207
-0.083178
0.023038
-0.051904
-0.132112
-0.038111
-0.058199
0.002024
0.069113
-0.099917
-0.015144
0.023729
-0.048571
0.012881
-0.033519
-0.062118
-0.024719
-0.061737
-0.025338
-0.057618
0.005628
0.004467
0.031754
0.018677
-0.021654
-0.066165
0.013107
-0.042491
0.079508
-0.012307
0.039278
0.033543
0.027201
0.089339
0.125485
0.029860
0.051518
0.101839
0.079721
0.046245
0.080247
0.187199
0.087615
0.140030
0.111662
0.177081
0.092339
0.166669
0.234053
0.163810
0.114242
0.149201
0.106439
0.081839
0.097993
0.178216
0.037143
0.101280
0.108565
0.096276
0.030116
0.055509
0.130976
-0.008467
0.086529
-0.012275
-0.049302
0.033831
0.045706
0.030103
0.024427
-0.031777
-0.032423
0.007998
-0.024709
-0.007692
-0.070437
0.060592
0.141627
0.311017
0.508771
0.772817
1.135886
1.331763
1.370548
1.142326
0.922052
0.453482
0.091608
-0.069338
-0.196514
-0.175096
-0.176025
-0.110797
-0.014328
0.066390
0.109142
0.021419
0.051434
0.033533
0.058214
0.041882
0.097278
0.143077
0.145051
0.197108
0.217146
0.123927
0.257152
0.195632
0.241892
0.236346
0.269362
0.326950
0.267664
0.288065
0.318199
0.369019
0.394803
0.354003
0.418875
0.410551
0.403718
0.491060
0.521883
0.532232
0.384154
0.519380
0.497960
0.589835
0.494360
0.492029
0.555688
0.563340
0.548325
0.520690
0.473908
0.430143
0.419397
0.498908
0.424609
0.293734
0.369822
0.404018
0.318417
0.293958
0.293584
0.251062
0.210197
0.254263
0.260102
0.217011
0.186865
0.234925
0.160486
0.157815
0.158714
0.105977
0.113208
0.127572
0.065510
0.064474
0.105262
0.135402
0.048463
0.116521
0.045419
0.087262
0.133932
0.051713
0.068027
0.005403
0.000808
0.162590
0.051231
0.077477
0.082083
0.009331
-0.060777
0.047171
0.010580
0.036331
0.025062
0.077825
0.025819
0.056266
0.005733
0.045530
0.116658
-0.002784
-0.003268
0.035190
0.088644
0.061075
0.099896
0.078997
0.015749
0.027860
0.083858
0.116748
0.046088
-0.038563
0.068680
0.054643
0.054200
0.041149
0.073965
0.040450
0.038072
0.056308
0.071363
0.021466
0.119610
0.039158
0.058810
0.043433
0.121738
0.085083
0.136202
0.136691
0.029348
0.139747
0.153089
0.181125
0.200277
0.218017
0.218509
0.177323
0.181140
0.232892
0.171393
0.195974
0.247248
0.217969
0.249177
0.173133
0.174793
0.244685
0.215463
0.198328
0.211767
0.138230
0.224474
0.131160
0.140012
0.130725
0.090682
0.080427
0.064621
0.070007
0.070439
0.038334
0.072182
0.159265
0.035817
0.032745
0.083781
0.025915
0.085307
0.009748
0.033514
-0.033783
-0.002202
0.145529
0.159945
0.519589
0.687209
1.128711
1.309556
1.374864
1.286159
0.927495
0.620718
0.277971
-0.044979
-0.066241
-0.177215
-0.113202
-0.079455
0.030701
0.012032
0.133700
0.069697
0.102317
0.060367
0.103618
0.110963
0.158679
0.099293
0.049374
0.144272
0.201234
0.233696
0.179322
0.315081
0.292996
0.308532
0.288469
0.293750
0.312756
0.392837
0.430249
0.417447
0.456528
0.468910
0.395109
0.463506
0.513379
0.509426
0.484976
0.532542
0.528960
0.573217
0.527827
0.544306
0.496349
0.523443
0.473987
0.557936
0.537900
0.499667
0.504300
0.476620
0.444893
0.382229
0.442078
0.380454
0.439451
0.329040
0.312245
0.270704
0.303482
0.296007
0.312355
0.179023
0.314580
0.153627
0.158144
0.143218
0.099407
0.125161
0.172162
0.037281
0.040117
0.135531
0.101357
0.115662
0.047328
0.032042
0.086251
0.055493
-0.000802
0.054129
0.039674
-0.018262
0.099714
-0.071927
0.011520
0.005652
-0.022774
0.015049
-0.000760
-0.066809
0.058522
0.042190
-0.004088
-0.005917
0.045846
-0.045163
0.039581
0.022598
-0.016584
0.034330
0.083813
0.046183
0.028518
0.048315
-0.103558
-0.032109
-0.031333
-0.081292
-0.004056
-0.058676
0.017346
-0.004343
-0.047052
0.059908
-0.031457
-0.031317
-0.043658
-0.010308
0.070335
0.033204
-0.012720
-0.045574
-0.065100
-0.004883
-0.000096
-0.000301
0.089914
0.016954
-0.004298
-0.005908
-0.009222
0.033320
0.050835
0.045367
0.113673
0.057292
0.181983
0.119934
0.097423
0.109602
0.108186
0.130599
0.127504
0.151982
0.144303
0.215590
0.095917
0.188326
0.197534
0.109437
0.056290
0.155338
0.109865
0.045392
0.052576
0.039782
0.050629
0.021401
0.102960
-0.058186
0.018497
-0.039580
0.005031
-0.042659
-0.010172
0.031034
-0.041840
-0.079521
-0.063487
0.029882
-0.053897
-0.057341
-0.039033
-0.054998
-0.049004
-0.001172
0.156349
0.425976
0.663483
0.878871
1.257986
1.305295
1.139723
1.026996
0.653305
0.224680
-0.057861
-0.108842
-0.199536
-0.229517
-0.081061
-0.156336
-0.143953
-0.034017
-0.029020
-0.028932
-0.042208
0.054325
0.074374
0.031116
0.051269
0.090296
0.116785
0.039289
0.078572
0.132863
0.088912
0.162155
0.137349
0.130650
0.187200
0.204574
0.205021
0.218507
0.256231
0.214160
0.319986
0.358597
0.340986
0.424276
0.324371
0.346642
0.374387
0.460276
0.511915
0.421413
0.518969
0.458597
0.444355
0.363114
0.415067
0.373665
0.491536
0.327670
0.467882
0.308117
0.338335
0.325844
0.327206
0.265322
0.299463
0.209024
0.200081
0.220948
0.168363
0.180060
0.127352
0.125504
0.071163
0.065179
0.114169
0.027946
0.014538
0.003351
0.056068
-0.058484
0.016414
-0.008650
-0.030743
-0.037046
-0.138387
0.005002
-0.038049
-0.089585
-0.069221
-0.088116
-0.035726
-0.037498
-0.063639
-0.089471
-0.072065
-0.125729
-0.122486
-0.071515
-0.024374
-0.033519
-0.067864
-0.140240
-0.091543
-0.082100
-0.113138
-0.114461
-0.067248
-0.148175
-0.112208
-0.133338
-0.049721
-0.032478
-0.086036
0.041108
-0.004158
-0.057777
-0.014523
-0.094908
-0.021828
-0.116163
-0.076008
-0.101871
-0.076637
-0.080807
-0.119740
-0.034890
-0.013608
-0.066913
-0.142579
-0.067863
-0.117220
-0.093973
-0.091850
0.007062
-0.159037
-0.076751
-0.005513
0.006533
-0.107764
-0.059196
-0.060908
-0.049929
-0.011684
0.014825
0.042688
0.017676
0.044545
0.116367
0.093975
0.087972
0.068873
0.061853
0.032616
0.132623
0.023765
0.033979
0.009907
0.116506
-0.081714
0.090650
0.066441
0.024822
-0.030772
-0.045874
0.045089
-0.006217
-0.037831
-0.013190
-0.068343
0.020854
-0.089915
-0.020402
-0.044491
-0.056554
-0.053002
-0.098504
-0.036402
-0.144883
-0.106938
-0.073750
-0.061980
-0.109481
-0.098870
-0.045076
-0.050650
0.051188
0.327773
0.524580
0.803883
1.118002
1.287973
1.211304
0.890378
0.633440
0.245317
0.007869
-0.171352
-0.320111
-0.201943
-0.148450
-0.125788
-0.104760
-0.127878
-0.096600
-0.067357
-0.024411
-0.008547
0.013463
0.043012
-0.015389
0.051187
0.065108
0.080878
0.062947
0.102305
0.068532
0.159871
0.146985
0.114618
0.218978
0.156912
0.221469
0.212316
0.223437
0.242421
0.261890
0.316051
0.272964
0.391186
0.427798
0.432134
0.378485
0.430470
0.417419
0.421036
0.431279
0.409876
0.389141
0.398450
0.367473
0.408095
0.409762
0.331353
0.395274
0.366324
0.353504
0.353938
0.341684
0.327488
0.290314
0.289371
0.214512
0.227790
0.159242
0.102981
0.156797
0.152971
0.095030
0.053314
0.120419
0.134293
0.099005
0.066709
0.043879
0.023999
0.034860
0.067547
-0.019929
0.012731
-0.049437
-0.021848
-0.133602
-0.099300
-0.045949
-0.009468
-0.079176
-0.018314
0.045827
-0.045723
-0.118708
-0.088520
-0.087959
-0.015828
-0.059802
-0.120821
-0.018242
-0.028754
-0.007877
-0.056017
-0.074198
-0.018305
-0.014137
0.003387
-0.035360
-0.121632
0.035354
-0.060144
-0.024052
-0.045960
-0.080658
0.032500
0.018296
-0.069912
-0.015156
-0.067131
-0.043262
-0.003554
0.000329
-0.037022
0.009785
-0.107801
-0.021393
0.023768
-0.113545
-0.014737
-0.095078
-0.047000
0.006671
0.006993
-0.011990
0.065799
0.064368
0.026560
0.036731
-0.011619
-0.021830
0.053316
0.086760
0.037485
0.058655
0.139821
0.217174
0.129041
0.074525
0.197260
0.132562
0.134510
0.082957
0.151976
0.155492
0.094892
0.194969
0.138456
0.147035
0.174648
0.173165
0.163269
0.133704
0.184442
0.084336
0.070942
0.087372
0.037508
-0.012876
0.018618
0.069151
0.001453
-0.000644
0.001823
-0.003102
0.024602
0.103991
0.057785
0.027790
0.022392
0.013954
0.024549
-0.003175
0.007631
0.012240
0.022637
0.340154
0.590738
0.868848
1.252395
1.358778
1.379941
1.083583
0.793079
0.430853
0.097763
-0.117733
-0.267345
-0.188213
-0.085854
0.004196
-0.043409
0.065812
-0.003470
0.079919
0.049935
0.127723
0.117942
0.025927
0.162627
0.098863
0.096347
0.197010
0.222632
0.087190
0.126076
0.190532
0.256636
0.209519
0.318118
0.299761
0.271050
0.237867
0.305146
0.463308
0.390429
0.406069
0.418641
0.367654
0.511021
0.549701
0.455982
0.557908
0.498139
0.489973
0.522217
0.490386
0.564515
0.538140
0.482115
0.548552
0.443120
0.515878
0.604755
0.571826
0.469090
0.446277
0.434912
0.395629
0.382506
0.382766
0.416061
0.382625
0.287035
0.282413
0.259764
0.300163
0.222024
0.267585
0.157916
0.190843
0.224880
0.202515
0.158953
0.158616
0.127464
0.219327
0.046536
0.033113
0.096833
0.048025
0.102339
0.088455
0.042300
-0.001555
-0.034626
0.071972
0.054424
0.037557
0.034695
0.020952
0.079472
0.105641
0.054484
0.016664
0.016651
0.058355
0.053867
0.120414
0.017092
0.072770
0.086057
0.055804
0.059471
0.071121
0.024452
0.124357
0.061869
0.007662
0.110689
0.109653
0.101882
0.068310
0.088237
0.099875
0.098697
0.046785
0.070248
0.079945
0.055182
0.061119
0.123990
0.024953
0.049915
0.035431
0.106703
0.089306
0.111843
0.123195
0.096663
0.164578
0.078520
0.106329
0.137959
0.137793
0.167864
0.142432
0.161281
0.231364
0.280714
0.157585
0.156389
0.237194
0.247417
0.146826
0.182267
0.267313
0.238542
0.198992
0.199635
0.231006
0.245333
0.298534
0.275324
0.197598
0.237258
0.166013
0.236229
0.208866
0.211038
0.165347
0.058610
0.143762
0.077820
0.117936
0.045253
0.098166
0.074387
0.107863
0.017149
0.180639
0.136492
0.009282
0.113794
0.098429
-0.018336
0.172747
0.140633
0.103160
0.046662
0.213880
0.342012
0.543356
0.855902
1.144818
1.398812
1.370249
1.375628
0.892252
0.493988
0.249841
0.000423
-0.121227
-0.160619
-0.072642
0.092345
0.086086
0.065523
0.029325
0.128619
0.202833
0.122437
0.181634
0.098394
