0.067257
-0.002353
0.023103
-0.052072
-0.005828
-0.024960
0.055909
-0.004365
-0.087124
-0.023191
-0.053249
0.006503
0.073037
-0.117113
0.050916
0.002014
0.022118
0.034107
0.056004
0.085939
0.027038
0.010172
0.029288
0.009040
0.022666
0.025671
0.062082
-0.004380
0.019433
0.106300
0.032032
0.133713
0.076835
0.041399
0.064591
0.106779
0.064850
0.201428
0.180438
0.112884
0.223602
0.163489
0.178172
0.132557
0.161066
0.165573
0.222098
0.190793
0.184889
0.264796
0.196748
0.218379
0.118425
0.144804
0.260711
0.080998
0.151623
0.152018
0.120604
0.057062
0.139437
0.173109
0.178189
0.103249
0.134199
0.031377
0.089179
0.058526
0.120806
0.026366
-0.054815
0.020463
0.110815
0.051756
0.013852
0.075943
0.136393
0.075965
0.050012
0.046812
0.054684
0.047515
0.043513
0.034014
0.035181
0.051207
0.015405
-0.017196
0.027993
0.079939
0.218505
0.336098
0.650339
1.049851
1.336524
1.388593
1.384830
1.268566
0.865581
0.576106
0.170913
-0.003326
-0.179593
-0.209329
-0.257041
-0.139653
-0.085328
0.062580
0.043192
0.056860
0.028749
0.083968
0.125903
0.062637
0.070317
0.085113
0.070144
0.093323
0.117482
0.077478
0.125822
0.070247
0.108108
0.107398
0.175032
0.116742
0.136341
0.121679
0.118528
0.182554
0.197347
0.196680
0.287543
0.296269
0.270105
0.307899
0.336925
0.284292
0.398430
0.302123
0.413979
0.369550
0.426884
0.427894
0.431720
0.422684
0.467950
0.493266
0.550501
0.560175
0.467942
0.547092
0.608002
0.613481
0.606563
0.664943
0.594784
0.547745
0.538587
0.559810
0.524816
0.566934
0.518133
0.471589
0.470944
0.493754
0.439825
0.446266
0.409027
0.411767
0.366012
0.348058
0.379310
0.411825
0.320526
0.216730
0.240347
0.188823
0.186783
0.224681
0.208454
0.261612
0.237736
0.152352
0.160778
0.146972
0.152645
0.150633
0.157384
0.159936
0.216026
0.134270
0.101311
0.109346
0.110018
0.074324
0.150696
0.047065
0.030225
0.088789
0.102394
0.096845
0.071275
0.118679
0.058587
0.031577
0.154191
0.066172
0.135313
0.092680
0.072578
0.093743
-0.011154
0.047799
0.147174
0.136033
0.068060
0.082366
0.081989
0.123610
0.117124
0.056856
0.116419
0.070129
0.005724
0.116160
0.083658
0.123141
0.025209
0.053499
0.161944
0.095364
0.137460
0.184266
0.113188
0.046651
0.077716
0.129437
0.065275
0.074156
0.150370
0.051922
0.085571
0.073255
0.132184
0.066204
0.064722
0.077997
0.103030
-0.022271
0.035330
0.102931
0.115422
0.064166
0.096507
0.009448
0.111161
0.069004
0.133438
0.009817
0.040062
0.116281
0.153740
0.130253
0.077878
0.069436
0.089162
0.156717
0.123526
0.123609
0.123191
0.104255
0.149520
0.135977
0.174670
0.129022
0.156846
0.175707
0.175272
0.190290
0.179516
0.243820
0.194248
0.208531
0.250767
0.220475
0.205819
0.182271
0.313631
0.268926
0.226229
0.223628
0.226987
0.229702
0.140016
0.154921
0.156696
0.200501
0.107461
0.171171
0.191315
0.212241
0.130085
0.156115
0.162040
0.119280
0.026966
0.098006
0.119528
-0.010599
0.034533
0.115546
0.093638
0.052650
0.075003
0.068918
0.118064
0.056934
0.137289
0.091799
0.077244
0.103417
-0.007230
0.086701
0.040516
-0.001165
0.051340
0.052156
0.143195
0.398818
0.587070
0.863261
1.322739
1.413222
1.394393
1.261045
0.950351
0.546785
0.274335
-0.103843
-0.140501
-0.278612
-0.225649
-0.131901
-0.142769
-0.008354
-0.023096
-0.071399
-0.022427
0.026741
0.062387
0.049540
-0.002702
0.014402
0.034382
0.076435
0.029817
0.041959
0.033899
0.111798
0.030581
0.026333
0.154458
0.075007
0.144550
0.097720
0.079040
0.149179
0.107396
0.148373
0.194385
0.119002
0.174067
0.266245
0.216970
0.233703
0.320964
0.240342
0.338254
0.313801
0.304264
0.318839
0.313844
0.430566
0.340937
0.451014
0.449290
0.507933
0.524743
0.517936
0.604218
0.471466
0.549992
0.484385
0.510688
0.544719
0.471419
0.516108
0.523589
0.447062
0.454296
0.397591
0.389587
0.352569
0.352626
0.365590
0.304300
0.357667
0.339516
0.269134
0.242867
0.160769
0.196845
0.304931
0.133267
0.194993
0.126598
0.199628
0.163595
0.072627
0.106700
0.083066
0.099969
0.058991
0.091194
0.026123
0.011264
0.036320
0.005731
0.033722
0.065115
0.029526
-0.091593
-0.015656
0.004622
0.014432
0.038147
-0.019022
-0.014916
-0.021532
-0.051325
-0.020302
0.005770
-0.125932
0.085580
0.003759
0.055193
-0.017820
0.023905
-0.009879
-0.095292
-0.002233
0.150988
-0.004428
-0.053539
-0.018038
-0.087490
-0.018865
-0.001084
0.005529
-0.066151
0.006931
-0.050375
-0.030602
0.014287
-0.007522
-0.099684
0.000825
-0.005861
-0.023936
-0.010313
-0.045711
-0.066209
-0.086530
-0.038762
0.014771
0.034336
-0.068009
-0.051945
-0.024928
-0.067372
0.017498
0.016447
-0.035010
-0.051541
-0.027966
0.022264
-0.086185
0.013858
-0.014242
-0.092432
-0.017111
-0.032671
-0.043329
-0.021841
-0.038945
-0.057749
-0.083872
-0.042719
-0.082560
-0.007327
-0.089780
-0.061125
-0.040479
0.015400
0.015790
-0.031511
0.012369
0.058883
0.019807
0.079218
-0.050674
0.133460
0.013132
0.064788
0.051254
0.032541
0.089849
0.218510
0.117532
0.104213
0.160178
0.136930
0.108337
0.150577
0.125750
0.266811
0.108581
0.144570
0.128545
0.013094
0.010555
-0.015024
0.073381
0.053786
0.142757
0.109464
0.069287
0.099549
-0.015828
-0.005344
0.038603
0.058219
-0.080544
0.038853
-0.060123
0.023725
-0.070961
0.011369
-0.036431
-0.017059
-0.053778
0.000954
-0.106324
-0.010432
-0.023248
-0.075385
-0.057609
-0.077216
-0.103412
-0.058846
-0.118607
-0.141726
-0.057923
-0.127941
-0.031248
-0.045373
0.304875
0.490173
0.859560
1.117411
1.366888
1.374293
1.156296
0.893164
0.497907
0.290143
-0.094592
-0.266062
-0.315807
-0.305554
-0.266349
-0.234088
-0.113072
-0.032800
-0.007917
-0.032578
-0.032968
0.008313
-0.100735
-0.015454
-0.003439
-0.048202
-0.058388
-0.013651
0.011325
0.014390
0.032142
-0.016341
0.070256
0.042573
0.016074
0.064690
0.010341
0.038126
0.009258
0.035327
0.040260
0.088727
0.105552
0.132229
0.149669
0.190729
0.223034
0.345369
0.319298
0.291199
0.220924
0.264722
0.386223
0.341246
0.406181
0.383832
0.342178
0.394659
0.334207
0.468344
0.450085
0.475204
0.441203
0.433795
0.568009
0.394128
0.503319
0.420275
0.429254
0.518346
0.417387
0.464114
0.417581
0.298745
0.306629
0.378612
0.320094
0.297464
0.289203
0.242476
0.197955
0.274936
0.228820
0.182228
0.135552
0.145732
0.210668
0.151415
0.100467
0.118150
0.093700
0.024934
0.104383
0.040820
0.003860
0.133150
0.026771
0.015056
0.016902
0.086516
-0.038813
-0.031060
-0.025912
-0.093249
0.020513
0.021221
-0.005097
-0.025384
-0.040822
0.046542
-0.036023
-0.092385
0.011877
-0.044249
0.026230
0.036458
-0.091028
-0.000695
0.068042
0.034917
0.018380
-0.074165
-0.014802
-0.043161
-0.074028
-0.038269
-0.002934
-0.039010
-0.007172
-0.081201
-0.029076
-0.058731
-0.030748
0.011346
0.024388
0.026087
0.079038
0.007350
-0.021426
-0.016154
-0.037392
0.020090
0.012650
-0.074083
0.063861
0.008514
0.025318
0.012464
-0.024933
-0.088519
-0.012193
0.017324
0.055093
0.013990
0.036852
0.019548
-0.028495
0.026442
-0.029548
-0.068444
0.009962
-0.000956
0.013250
-0.075976
-0.032489
0.064631
0.052485
0.068991
0.015775
0.016960
0.045510
0.058232
0.022764
0.028070
0.070957
0.090129
-0.042210
0.058309
0.045600
0.149164
0.130252
0.064005
0.060558
0.116271
0.131560
0.099184
0.132355
0.177661
0.195525
0.131210
0.205408
0.163457
0.205773
0.208514
0.226507
0.224446
0.184917
0.259581
0.219662
0.170641
0.194556
0.138877
0.205513
0.204339
0.177475
0.137115
0.117964
0.095817
0.067728
0.099476
0.123562
0.031888
0.155218
0.083256
0.069232
0.083573
0.059191
0.053843
0.077012
0.051554
0.125827
0.093912
0.051891
0.028010
-0.006340
0.161262
0.087494
0.109717
-0.015318
-0.003678
-0.016249
0.029138
0.064546
0.034611
0.052000
-0.030443
-0.025225
0.069900
0.333427
0.557209
0.865802
1.184776
1.384374
1.451904
1.314671
1.033246
0.696135
0.329988
-0.033642
-0.066641
-0.240602
-0.219411
-0.150787
-0.136866
-0.069107
0.091028
0.075561
0.128508
0.051739
0.170645
-0.000959
0.115720
0.068933
0.099322
0.092633
0.108603
0.047343
0.118979
0.161742
0.062232
0.037282
0.211329
0.087220
0.124843
0.163701
0.157476
0.243874
0.173570
0.216765
0.286398
0.280474
0.241712
0.273074
0.304150
0.246573
0.308814
0.356786
0.324948
0.314621
0.454029
0.457295
0.507371
0.520483
0.528520
0.569794
0.527773
0.487231
0.540909
0.529469
0.640793
0.609851
0.629134
0.594209
0.587304
0.588617
0.667241
0.597428
0.567188
0.633575
0.497543
0.495016
0.455091
0.503530
0.490705
0.482888
0.536590
0.342858
0.364002
0.398916
0.207312
0.290352
0.314394
0.325969
0.335361
0.305422
0.291006
0.252775
0.209668
0.176556
0.093624
0.202455
0.199433
0.090153
0.170624
0.087669
0.213616
0.134541
0.138675
0.126666
0.195253
0.135516
0.060143
0.113861
0.141077
0.114332
0.071780
0.093694
0.044217
0.159103
0.133701
0.046742
0.068752
0.005252
0.099040
0.064457
0.128107
0.074125
0.148406
0.074353
0.174558
0.131779
0.063338
0.032593
0.115996
0.083124
0.151843
0.159299
0.116339
0.049146
0.124596
0.070568
0.090286
0.174747
0.075509
0.106880
0.144419
0.058237
0.103463
0.112691
0.094402
0.119829
0.111707
0.067186
0.131842
0.122130
0.139223
0.091561
0.047330
0.127469
0.066285
-0.004981
0.113133
0.031566
0.073885
0.064787
0.043522
0.084944
0.083832
0.074625
0.030351
0.105409
0.093778
0.104325
0.100493
0.073534
0.159473
0.060121
0.093596
0.037100
0.101978
0.141534
0.128070
0.134106
0.114471
0.042684
0.095877
0.101266
0.147176
0.203921
0.198674
0.168043
0.181128
0.173873
0.248930
0.299426
0.164750
0.175906
0.146399
0.287482
0.227966
0.237589
0.222469
0.290412
0.320981
0.296729
0.234220
0.210079
0.209216
0.225970
0.203055
0.169473
0.185049
0.158072
0.199189
0.208321
0.139280
0.187827
0.162836
0.199395
0.045224
0.116510
0.130621
0.073587
0.124481
0.107772
0.077889
0.145320
0.128167
0.011897
0.087877
0.077486
0.093878
0.077314
0.078746
0.099349
0.045525
0.046897
0.082598
0.039830
0.049067
0.117807
0.092025
0.055507
-0.028085
0.066671
0.102963
0.244335
0.564839
0.891889
1.234746
1.370593
1.446367
1.320714
1.030586
0.658206
0.363355
0.026050
-0.128051
-0.303501
-0.208041
-0.302383
-0.045698
-0.044697
0.053581
0.014933
0.063971
-0.029745
0.048161
0.000335
0.109454
0.020089
0.058960
0.053617
0.105201
0.083894
0.089325
0.065276
0.071207
0.035711
0.044738
0.039962
0.176373
0.107282
0.072797
0.147621
0.226695
0.173639
0.235190
0.201759
0.207765
0.272115
0.247875
0.200627
0.202249
0.259247
0.305439
0.349275
0.409793
0.416410
0.480970
0.384540
0.462080
0.427978
0.447290
0.506570
0.476128
0.513142
0.501198
0.499469
0.595582
0.563285
0.455558
0.504239
0.548163
0.562613
0.487921
0.430506
0.484218
0.438787
0.350562
0.449835
0.376297
0.361312
0.406355
0.335449
0.416359
0.316140
0.223186
0.259846
0.193908
0.285072
0.166676
0.117630
0.166526
0.175034
0.138672
0.175604
0.106368
0.131613
0.114961
0.090962
0.023726
0.083121
0.028427
0.052250
0.040677
0.102887
0.040645
0.064157
0.031230
-0.044412
0.031604
0.022203
0.113317
0.061734
0.029407
0.073322
0.001298
0.005977
0.005770
0.006546
-0.049491
-0.092843
0.054253
0.023568
0.012168
-0.005589
-0.028657
-0.036917
-0.028132
-0.037521
-0.032032
0.011186
-0.100800
0.044531
-0.001076
-0.010232
0.039216
-0.005838
0.006174
0.002189
-0.057558
0.003584
0.002449
-0.051191
-0.090864
0.051047
-0.055908
-0.036984
-0.022783
-0.068242
-0.057219
-0.011047
-0.038192
0.012028
-0.094436
-0.037106
-0.055301
-0.065773
-0.050392
-0.000157
-0.083472
-0.002926
-0.105796
0.011860
-0.118187
-0.032232
-0.023538
0.011593
0.021706
-0.070233
-0.070285
0.054087
-0.032368
-0.095124
0.032083
0.008792
-0.095147
-0.018448
0.007331
0.071012
0.015387
-0.029272
-0.006367
-0.027698
0.026298
0.012349
0.011212
0.020640
0.078094
0.038395
0.004373
0.151581
0.096393
0.104217
0.079636
0.144243
0.067937
0.038442
0.144891
0.042847
0.068123
0.210424
0.109814
0.186213
0.088263
0.118852
0.159143
0.086972
0.083199
0.092238
0.051683
0.083993
-0.001222
0.052368
-0.018724
0.064885
-0.028160
-0.019331
-0.027529
-0.061439
-0.019252
-0.005696
-0.048214
-0.024271
-0.029228
0.015632
-0.002895
-0.113064
-0.089591
-0.005452
-0.097166
-0.099065
-0.063919
-0.079976
0.012424
-0.075989
0.012361
-0.028086
-0.101571
-0.147165
-0.021308
-0.087393
-0.036824
0.190973
0.456268
0.679490
1.079716
1.267490
1.294222
1.162075
0.982658
0.629331
0.277013
-0.105390
-0.319434
-0.287525
-0.309448
-0.325490
-0.246443
-0.220580
-0.152943
-0.027773
-0.066986
-0.065455
-0.127946
-0.025757
-0.004832
-0.050424
-0.116500
-0.091295
-0.110070
-0.035947
-0.047384
-0.110423
0.002275
-0.096781
-0.003274
-0.058357
-0.022227
-0.016585
-0.026092
0.073437
0.076374
0.113888
0.034310
0.078939
0.076851
0.110753
0.112496
0.288793
0.180986
0.121538
0.221985
0.223393
0.244282
0.312584
0.383366
0.366922
0.286933
0.355421
0.341049
0.459247
0.447706
0.323972
0.452024
0.501788
0.378849
0.411549
0.489083
0.411153
0.429733
0.411266
0.338790
0.371799
0.389081
0.389331
0.261237
0.329661
0.329598
0.220696
0.237590
0.251802
0.246343
0.179171
0.120801
0.102552
0.161233
0.070975
0.156151
0.059053
0.088943
0.044544
0.066791
0.066533
0.068306
0.014623
-0.046643
0.035333
0.000583
-0.030074
-0.000228
-0.071299
-0.062534
-0.081887
-0.057539
-0.042404
-0.077783
-0.108747
-0.035921
-0.139655
-0.068065
-0.114450
-0.051214
-0.001725
-0.041478
-0.116786
-0.062244
-0.094860
-0.087621
-0.106637
0.025570
-0.035503
-0.084962
-0.024510
-0.114938
-0.072039
-0.052518
-0.015092
-0.078694
-0.105799
-0.042713
-0.077782
-0.061043
-0.051951
-0.045119
-0.030506
-0.094289
-0.089497
-0.101412
-0.051275
-0.080947
-0.080871
-0.119437
-0.099348
-0.009992
-0.130722
-0.036564
-0.066375
-0.011930
-0.047007
-0.055146
0.011402
-0.047369
-0.127726
-0.037209
-0.094262
-0.074507
-0.024538
-0.028050
-0.001596
-0.010523
-0.060652
-0.062812
-0.095358
-0.000245
-0.069124
-0.060558
0.015174
-0.135477
-0.033319
0.040490
-0.051465
-0.020405
0.061763
-0.025088
-0.021199
0.039304
-0.044630
-0.000686
-0.027692
-0.033033
0.027275
0.044235
0.007269
-0.026260
0.080011
0.017373
0.037837
0.017622
0.075762
0.082845
0.046257
0.083996
0.133126
0.172729
0.131972
0.138503
0.148486
0.154427
0.138648
0.138420
0.110932
0.179270
0.084139
0.083436
0.117178
0.056503
0.067683
0.064730
0.080110
0.029445
0.034711
0.023509
0.075924
0.030016
-0.053404
0.006003
0.004117
0.045002
0.016669
0.068277
-0.059231
0.066249
-0.029518
-0.015513
-0.022493
0.008553
-0.088126
-0.034083
0.031364
-0.135862
-0.068710
-0.060323
-0.031464
-0.006216
-0.045253
-0.085717
-0.052839
-0.090779
-0.049222
0.008181
0.164747
0.400603
0.708646
1.006503
1.244627
1.370570
1.329567
1.004334
0.680669
0.377748
0.110457
-0.211640
-0.239561
-0.159164
-0.234856
-0.219290
-0.110721
-0.032125
-0.032337
-0.014408
-0.059100
-0.001498
-0.109578
0.002654
0.027703
-0.035343
0.072399
-0.016654
-0.073502
0.036857
-0.042259
0.063674
0.020550
0.051443
0.057045
0.145053
0.061700
0.043997
0.161485
0.154052
0.113908
0.075756
0.203386
0.169505
0.203032
0.231354
0.351410
0.261114
0.283775
0.294796
0.361825
0.404195
0.424866
0.382546
0.517310
0.458703
0.442625
0.504032
0.484399
0.556738
0.525237
0.559152
0.521909
0.508072
0.583632
0.481208
0.455020
0.441826
0.490354
0.421965
0.473368
0.478174
0.466277
0.504267
0.446829
0.344716
0.389190
0.293760
0.328032
0.343546
0.276827
0.267935
0.297605
0.305786
0.158127
0.275405
0.283415
0.144986
0.211905
0.150845
0.180264
0.163432
0.134522
0.094295
0.080877
0.129013
0.104979
0.052001
0.115286
0.035010
0.040504
0.084256
0.097394
0.094036
0.058424
0.065613
0.064648
0.029119
0.004575
0.115980
0.063939
0.078652
0.005528
-0.011605
0.037369
0.014580
0.097816
0.087380
0.123701
0.075793
0.042914
0.071242
0.030647
0.079759
0.078244
-0.006598
0.032468
0.014646
0.076859
-0.033420
0.028917
0.002272
0.001950
-0.003223
-0.020238
0.092395
0.076778
0.067060
0.082320
0.021938
0.093693
0.025539
0.074952
0.073109
0.047228
0.079221
0.033125
0.013812
0.026161
0.043085
0.001521
0.028166
0.049400
0.097962
0.113033
0.045946
0.060305
0.103081
-0.021134
0.016149
0.035613
-0.021099
0.054205
0.051479
0.130909
-0.018788
0.073887
0.052920
0.015925
0.036230
0.028700
0.082076
0.082934
0.068848
0.034084
0.013404
0.045778
0.075981
0.068233
0.151883
0.090000
0.120316
0.076584
0.117853
0.218140
0.151163
0.216883
0.119691
0.179725
0.153890
0.222708
0.176641
0.226341
0.287612
0.199346
0.251958
0.202249
0.211914
0.243468
0.160634
0.163403
0.165926
0.225457
0.262355
0.198937
0.174238
0.102707
0.118844
0.121874
0.126748
0.157010
0.040667
0.132230
0.084291
0.043681
0.022563
0.061592
0.090219
0.019800
0.092803
0.089850
0.093003
0.032112
0.051959
0.071307
0.105955
0.052711
0.074503
0.095375
0.012746
0.104708
0.077806
0.011325
-0.002504
0.024974
0.016035
-0.022278
0.074313
0.204116
0.428597
0.777042
1.112407
1.311288
1.411368
1.297903
1.106043
0.782836
0.436280
0.172123
-0.137155
-0.241587
-0.304746
-0.307032
-0.131073
-0.102670
-0.044682
0.001620
-0.065198
0.139921
0.054409
0.085752
0.054753
0.066210
0.067244
-0.022907
0.109483
0.074829
0.052485
0.041482
0.053383
0.097286
0.082647
0.021805
0.124473
0.156059
0.096049
0.134023
0.163818
0.139329
0.188665
0.187707
0.238014
0.229802
0.205279
0.295013
0.216680
0.295113
0.271019
0.344167
0.366282
0.313478
0.415617
0.439410
0.411862
0.394462
0.474473
0.443555
0.596773
0.456179
0.487205
0.503131
0.506108
0.557311
0.508077
0.523874
0.663011
0.499924
0.485115
0.483025
0.413258
0.428866
0.458716
0.420775
0.450253
0.343509
0.387187
0.337537
0.266575
0.246535
0.354169
0.357383
0.221604
0.249323
0.208086
0.099902
0.221250
0.131702
0.156695
0.047690
0.047538
0.107793
0.170903
0.044304
0.089929
-0.009310
-0.000488
-0.002077
0.009209
-0.001536
-0.035231
-0.006894
0.024791
-0.003070
-0.027257
0.019263
-0.070451
0.020434
0.013311
-0.002589
0.038148
-0.062238
-0.038111
0.049153
-0.048505
-0.085342
-0.040139
-0.065736
-0.020883
-0.065788
-0.022775
0.041830
0.001858
-0.023022
-0.074791
-0.024712
0.016634
-0.031209
0.033864
-0.039989
-0.087276
0.023075
-0.048937
-0.012825
-0.043812
-0.106699
-0.040882
0.090091
0.026033
-0.062938
-0.018849
0.029896
0.034554
-0.063348
-0.068770
-0.010324
-0.044445
-0.028935
-0.021802
-0.061542
-0.006449
-0.022078
-0.125572
-0.047404
0.005071
-0.115133
-0.055778
-0.070314
-0.027870
-0.041133
-0.095808
-0.092027
-0.059009
-0.043055
-0.076188
-0.064718
-0.038819
-0.034522
-0.062828
-0.079191
-0.009660
-0.093019
-0.101904
-0.052567
-0.021157
-0.061246
0.013656
-0.065034
0.010435
0.027705
-0.104627
0.031283
-0.033679
0.034271
0.099436
0.024639
0.116911
0.024223
0.121565
0.038592
0.041919
0.137850
0.068008
0.201136
0.113533
0.132024
0.085722
0.187480
0.101797
0.029540
0.184242
0.077110
0.021997
0.023410
0.051008
-0.002933
-0.006933
-0.058901
-0.002035
0.057102
-0.019537
-0.075890
-0.025599
-0.106328
-0.042728
-0.077080
-0.079452
-0.008177
-0.079874
-0.019484
-0.064654
-0.071420
-0.175338
-0.042725
-0.138438
-0.078593
-0.012845
-0.048204
-0.135871
-0.086101
0.002543
-0.135431
-0.075985
-0.120555
-0.217787
-0.158599
-0.062748
0.159711
0.297242
0.603381
0.996355
1.278948
1.278269
1.283154
1.020127
0.617860
0.393721
0.003396
-0.191412
-0.393397
-0.397386
-0.386922
-0.276281
-0.252913
-0.131689
-0.186010
-0.120517
-0.159091
-0.118950
-0.090171
-0.062667
-0.072524
-0.080802
-0.073185
-0.117001
-0.064201
-0.020658
-0.113028
-0.058070
-0.083922
-0.014482
0.052082
0.003634
0.063004
-0.002747
0.122327
0.076191
0.045388
0.070130
0.083937
0.055351
0.071740
0.092488
0.196031
0.214217
0.160031
0.183888
0.149946
0.296473
0.294266
0.256195
0.283439
0.258938
0.336668
0.292921
0.390106
0.413963
0.430009
0.369437
0.361392
0.366343
0.406595
0.375124
0.383121
0.374657
0.346681
0.369685
0.379636
0.339912
0.335656
0.338770
0.280400
0.336129
0.282207
0.279893
0.237394
0.175923
0.175888
0.177737
0.155961
0.127818
0.084658
0.110109
0.104655
0.011619
0.044287
0.068529
-0.043733
0.036921
-0.016997
0.030374
-0.037747
-0.073284
-0.056471
-0.033021
-0.034648
-0.066227
-0.085855
-0.150916
-0.075617
-0.003066
-0.003457
-0.116317
-0.109049
-0.133002
-0.109601
-0.143047
-0.069679
-0.039862
-0.055347
-0.156496
-0.046579
-0.094678
-0.075887
-0.114308
-0.100033
-0.087469
-0.137691
-0.003473
-0.144381
-0.107919
-0.077633
-0.052907
0.001434
-0.043059
-0.093044
-0.112494
-0.070042
-0.120730
-0.064698
-0.106302
-0.108509
-0.124611
-0.144937
-0.041642
-0.139971
-0.113721
-0.099210
-0.104431
-0.186159
-0.095637
-0.122214
-0.065207
-0.078097
-0.042268
-0.078034
-0.145629
-0.137080
-0.064930
-0.088333
-0.128440
-0.092053
-0.021624
-0.045959
-0.109085
0.027938
-0.104295
0.059030
-0.065143
0.003590
-0.094098
-0.146941
-0.139676
-0.155597
-0.123183
-0.091266
-0.045462
-0.004866
-0.100299
-0.046402
-0.045566
-0.095727
-0.022900
-0.084490
-0.027056
-0.116518
-0.012629
-0.047395
-0.020423
0.032113
0.009861
-0.103117
0.024551
0.070255
0.037032
0.030986
0.186535
0.197272
0.065146
0.094291
0.038070
0.098750
0.120585
0.044121
0.057305
0.091011
0.088029
0.142513
0.214090
0.114366
0.066091
-0.035823
0.077944
0.048049
0.028473
0.001181
0.015142
0.026927
0.062366
0.021237
-0.015820
-0.040233
-0.022247
-0.086605
0.007342
-0.083052
0.002924
0.022131
-0.062499
0.000715
0.002322
-0.006959
-0.079009
-0.082136
-0.050026
-0.036889
-0.000094
-0.013287
-0.013036
-0.050741
-0.003821
-0.074149
-0.136481
-0.059043
-0.097881
0.082192
0.363173
0.627270
1.018658
1.224244
1.378433
1.343050
1.104208
0.764565
0.442504
0.214714
-0.128394
-0.333609
-0.317013
-0.317495
-0.255685
-0.170595
-0.071444
-0.013932
-0.128185
-0.021132
-0.023126
0.017145
0.010422
-0.038573
0.029388
0.016403
0.006669
-0.013897
-0.019063
0.050136
0.005217
-0.010399
-0.000496
0.020247
0.091413
0.045025
0.037495
0.092754
0.074454
0.099442
0.128183
0.183238
0.131624
0.257721
0.175826
0.156296
0.252091
0.299162
0.230011
0.253908
0.329056
0.312262
0.354954
0.401609
0.449259
0.370135
0.420648
0.545123
0.500434
0.522624
0.463270
0.465058
0.537823
0.523305
0.509033
0.416538
0.449848
0.528562
0.526666
0.474655
0.551519
0.450793
0.372061
0.376215
0.403764
0.384560
0.440152
0.420397
0.276424
0.280577
0.324560
0.312571
0.266233
0.211537
0.191081
0.210020
0.215981
0.217912
0.159251
0.108420
0.147653
0.142177
0.102091
0.094294
0.065533
0.026448
0.089029
0.044465
0.046581
-0.006346
0.015070
0.010619
0.025765
-0.056957
0.084551
-0.042006
-0.013049
-0.066360
0.038928
0.107191
0.051199
-0.049758
0.058606
-0.027778
0.096961
-0.010434
0.030575
0.017550
0.044234
0.024001
0.021696
-0.030525
0.087013
0.042265
0.029780
0.093599
0.131743
0.016861
0.012198
0.022042
-0.004243
0.050063
0.092933
0.091975
-0.016038
0.101215
0.026647
0.043510
0.021381
-0.026345
-0.022942
0.077552
0.058861
0.035419
-0.057456
0.079169
0.074032
0.062268
0.117583
0.040443
0.068886
0.068639
0.066076
0.060730
0.107961
0.002337
0.041470
0.113362
0.078759
0.102535
0.017569
0.092630
0.017746
0.131127
0.029754
0.000045
0.080632
0.078088
0.168282
0.025125
0.101118
0.051494
0.095586
0.078136
0.047640
0.088346
0.098252
0.111367
0.111167
0.132294
0.110948
0.134006
0.145237
0.153792
0.151223
0.130411
0.198694
0.164073
0.150822
0.235876
0.204784
0.205930
0.225800
0.279356
0.163858
0.233683
0.270505
0.284336
0.272604
0.163735
0.136166
0.221505
0.196525
0.144738
0.131098
0.190691
0.167693
0.096614
0.187776
0.101720
0.103896
0.028927
0.082014
0.108345
0.104916
0.118867
0.023055
0.123271
0.083133
0.074154
0.008099
0.089480
0.079247
0.156177
0.009440
0.062720
0.109798
0.017772
0.111084
0.054554
0.066537
0.056943
0.062715
0.045210
-0.029844
0.009923
0.074929
0.200001
0.317696
0.663870
1.052486
1.259205
1.500000
1.448208
1.224680
1.013786
0.541192
0.227260
0.008824
-0.112648
-0.233171
-0.228888
-0.061066
-0.045925
0.039286
-0.049091
0.007435
0.095204
0.072066
0.095329
0.085258
0.117268
0.048907
0.043140
0.083937
0.068410
