-0.039668
0.010466
-0.010467
-0.015442
0.042878
-0.023691
0.041393
-0.026216
-0.048222
0.065690
0.031940
0.029726
-0.068394
0.004000
0.015919
0.018854
0.071868
0.051890
0.074939
0.006520
0.040594
0.067024
-0.016350
0.005451
0.081058
0.032866
0.032646
0.085597
0.072501
0.176907
0.015946
0.106649
0.082630
0.120853
0.163458
0.084933
0.199696
0.148441
0.151101
0.133919
0.262069
0.202953
0.147882
0.093501
0.164594
0.301486
0.287691
0.211173
0.198994
0.207999
0.210113
0.135852
0.129803
0.162383
0.136890
0.197804
0.135004
0.090524
0.098388
0.108136
0.069444
0.163356
0.041393
0.048296
0.142157
-0.006366
0.105692
-0.019817
0.089251
0.014449
0.103049
0.050510
0.017393
-0.064752
0.041663
0.007697
0.042329
0.020013
0.038532
0.024673
0.076320
0.158384
0.177491
0.485188
0.782023
1.088944
1.291254
1.440302
1.361165
1.100497
0.782272
0.472593
0.090701
-0.082268
-0.172681
-0.220658
-0.108590
-0.172423
0.054011
0.032033
0.093048
0.023553
0.092438
0.037825
0.088770
0.023837
0.009668
0.103097
0.121655
0.082823
0.143639
0.166644
0.079195
0.157631
0.151008
0.230204
0.171580
0.241210
0.228829
0.278070
0.253530
0.263508
0.196875
0.365929
0.388078
0.342465
0.395138
0.412263
0.370320
0.411191
0.449941
0.545507
0.443802
0.465774
0.486377
0.496449
0.567913
0.538527
0.513511
0.513055
0.546067
0.568580
0.631939
0.514341
0.616275
0.488873
0.513019
0.519547
0.504416
0.552801
0.523472
0.494372
0.489694
0.433273
0.401502
0.361720
0.431406
0.343494
0.312190
0.286954
0.277044
0.220450
0.216439
0.197437
0.266784
0.156865
0.261789
0.192174
0.146089
0.212703
0.176964
0.144111
0.124366
0.124213
0.194632
0.091770
0.090350
0.136662
0.084721
0.090323
0.161079
0.156879
0.044826
0.140021
0.129598
0.112410
0.119889
0.150717
0.121874
0.035412
0.147805
0.142035
0.141067
0.055742
0.051093
0.074404
0.131272
0.100684
0.058378
0.066504
0.094532
0.083952
0.015192
0.084835
0.131763
0.202949
0.049582
0.121137
-0.004742
0.130008
0.076358
0.125246
0.027802
0.002678
0.025825
0.097747
0.094808
0.075490
0.097672
0.099292
0.089753
0.071812
0.184732
0.106458
0.043036
0.155770
0.125618
0.058312
0.088262
0.095427
0.065435
0.108574
0.067457
0.158404
0.051821
0.129370
0.052657
0.143811
0.051975
0.109173
0.092775
0.116727
0.072358
0.129006
0.066891
0.160765
0.120474
0.127011
0.154749
0.166811
0.167030
0.153359
0.174708
0.173728
0.197977
0.224634
0.269819
0.216046
0.259671
0.138682
0.245207
0.245834
0.244856
0.213035
0.222199
0.326040
0.252845
0.188939
0.193019
0.120644
0.132581
0.168464
0.161957
0.080151
0.108469
0.174747
0.052728
0.017439
0.169397
0.130232
0.174514
0.123155
0.085843
0.047508
0.088927
0.066312
0.113670
0.116713
0.103972
0.044912
0.069945
0.041498
0.039380
0.055811
0.090063
-0.017565
0.039129
0.037707
0.135886
0.172736
0.462259
0.637495
0.936742
1.243939
1.365636
1.413670
1.157169
0.962940
0.579709
0.249630
0.011911
-0.195668
-0.171033
-0.276627
-0.147594
0.035264
0.152634
0.095535
-0.025816
0.037956
0.097698
0.098544
0.102048
0.080418
0.081289
0.058739
0.088740
0.154088
0.187665
0.088259
0.143599
0.183404
0.120859
0.189382
0.258479
0.272163
0.207244
0.231155
0.282222
0.225718
0.330950
0.352385
0.334990
0.298273
0.360726
0.334031
0.428042
0.384920
0.391172
0.469260
0.369009
0.437754
0.515138
0.484974
0.533015
0.526370
0.515449
0.514620
0.545393
0.505969
0.499254
0.619087
0.413325
0.478391
0.588164
0.559039
0.498297
0.434765
0.491460
0.453694
0.410809
0.472469
0.338240
0.335716
0.329496
0.319941
0.273979
0.232554
0.276835
0.248305
0.179824
0.198477
0.154608
0.213023
0.128609
0.047244
0.075691
0.124517
0.140909
0.140975
0.025332
0.068404
0.092640
0.144635
-0.046260
0.040625
0.117129
0.083483
0.011757
0.056855
0.002257
0.019969
-0.004177
0.022427
-0.048650
0.085107
0.025600
-0.045719
0.071604
0.023014
-0.000014
-0.007100
0.020528
0.006765
0.025844
0.066016
0.091887
-0.005578
-0.056193
-0.036267
-0.005372
0.024526
-0.053625
-0.020607
-0.060298
-0.042210
0.030986
-0.007101
-0.006014
0.012922
-0.039663
0.039738
0.038351
0.016927
-0.086603
-0.017245
0.033781
-0.049852
0.005901
-0.038676
0.071681
-0.044589
0.022732
-0.016109
0.078101
-0.059581
0.041899
0.004397
-0.064807
-0.058257
-0.061839
0.019757
-0.008868
0.007875
0.001316
-0.002066
-0.049489
-0.057568
0.056295
0.000461
-0.081753
0.004042
0.048229
0.132970
0.071762
0.070489
0.009573
0.052892
0.128403
0.081445
0.143769
0.090438
0.124859
0.094608
0.148844
0.230941
0.080368
0.099938
0.163592
0.124947
0.213427
0.161881
0.119724
0.194840
0.085457
0.028930
0.087942
0.064824
0.087660
0.039986
0.046078
0.093800
0.006877
0.015172
-0.049407
-0.022962
-0.034716
0.006355
0.034243
-0.004038
-0.073709
-0.051835
-0.048635
0.051233
-0.018582
-0.051409
-0.106890
-0.106530
-0.044982
-0.054845
-0.083880
-0.140602
0.001198
-0.072475
-0.001450
-0.018960
-0.002879
0.239615
0.468855
0.696528
1.098199
1.326632
1.294139
1.196734
1.005457
0.642877
0.301696
-0.066567
-0.213684
-0.358396
-0.232636
-0.243646
-0.056207
-0.072462
-0.046775
-0.046474
-0.104721
0.027971
-0.087882
-0.049853
-0.107072
-0.014936
-0.054431
-0.017010
0.021015
0.062235
0.028121
-0.002878
0.009048
0.048918
0.041421
0.121951
0.096122
0.131151
0.120868
0.192536
0.169232
0.240885
0.223010
0.226901
0.242243
0.276994
0.309655
0.346141
0.325559
0.348701
0.422306
0.428574
0.335644
0.397628
0.452063
0.387505
0.449188
0.474138
0.501142
0.522481
0.481785
0.466529
0.424667
0.478103
0.470856
0.440372
0.376406
0.308125
0.403768
0.321003
0.315135
0.451314
0.324763
0.234818
0.309443
0.295553
0.160173
0.126410
0.217227
0.166270
0.142785
0.269895
0.125274
0.165936
0.165262
0.174370
0.166668
0.114552
0.070689
0.043622
0.004925
-0.006970
0.007992
-0.049964
-0.024253
0.064488
-0.037037
-0.091934
-0.003386
0.014395
-0.017170
-0.038038
-0.060354
0.015996
-0.019040
0.013972
0.028749
-0.015945
-0.042193
-0.074350
-0.025330
0.025346
0.037713
-0.069592
-0.046319
0.021588
-0.052062
-0.049220
-0.116951
-0.055128
0.036737
-0.079973
0.043288
-0.065236
-0.098251
0.030701
-0.048342
0.040742
0.041642
0.036693
-0.013931
-0.028269
0.006690
-0.014187
-0.073381
-0.003080
-0.040477
-0.054939
-0.041191
0.033947
0.012758
-0.074410
-0.031696
-0.026032
-0.001192
-0.015207
-0.013384
-0.035869
0.002731
-0.003595
-0.011298
-0.074822
-0.032020
-0.028404
-0.027041
-0.032973
0.049142
-0.025671
0.007739
-0.001877
-0.028798
0.029896
0.036704
0.024300
0.009520
0.059521
0.074755
0.102674
-0.011649
0.167050
0.072775
0.084190
0.091105
0.118293
0.145672
0.042884
0.101738
0.011308
0.237185
0.188157
0.082721
0.227573
0.178792
0.100244
0.091893
0.127014
0.077115
0.119675
0.121450
0.101145
0.082555
0.103360
0.041466
0.059678
0.124823
0.087989
0.052313
-0.055796
0.080191
-0.034236
0.070625
-0.011360
0.019117
-0.006516
0.068650
0.035432
-0.054353
-0.016926
0.023637
-0.035115
0.062644
-0.000328
0.012582
0.007858
-0.031924
0.017828
0.001039
-0.040685
0.119581
0.326138
0.715788
0.995007
1.244562
1.411952
1.319798
1.216991
0.791984
0.438370
0.154104
-0.063803
-0.244109
-0.300549
-0.227488
-0.135813
-0.033977
-0.024791
-0.030720
0.000544
-0.057624
0.058595
0.119122
0.026958
0.081424
0.099685
0.106330
0.132093
0.018896
0.122394
0.126499
0.062990
0.093391
0.150689
0.138252
0.111972
0.194449
0.250712
0.213390
0.178853
0.337141
0.245904
0.294874
0.375997
0.420608
0.368345
0.399967
0.452905
0.478914
0.468189
0.483419
0.503492
0.422092
0.481246
0.488119
0.568747
0.490034
0.556912
0.579988
0.555475
0.530573
0.517091
0.572954
0.465766
0.461741
0.534095
0.485386
0.531147
0.534319
0.455921
0.507459
0.404668
0.414662
0.358764
0.375781
0.341156
0.321069
0.286551
0.251118
0.317592
0.260314
0.196561
0.173768
0.170152
0.172318
0.215401
0.203562
0.111644
0.203016
0.056564
0.136691
0.097259
0.070361
0.067416
0.057089
0.131191
0.088015
0.039957
0.129370
0.127762
0.041452
0.005280
0.065428
0.118322
0.105959
0.075701
0.070278
0.143962
0.108835
0.066074
0.079509
0.070503
0.051608
0.156808
0.043646
0.073202
0.116532
0.080159
0.099906
0.096118
0.050394
0.101385
0.082120
0.080265
0.094702
0.164313
0.161977
0.022183
0.079920
0.086501
0.096448
0.127152
0.084389
0.029709
0.075479
0.095549
0.032613
0.118082
0.100935
0.033054
0.028704
0.076969
0.114986
0.121703
0.101698
0.042196
0.092955
0.112601
0.030379
0.053896
0.109768
0.038415
0.099441
0.107740
0.057822
-0.027868
0.073960
0.131982
0.050934
0.149043
0.078099
0.151347
0.214099
0.189207
0.175309
0.175850
0.167461
0.211820
0.158310
0.218323
0.217044
0.196303
0.182892
0.169459
0.264069
0.297236
0.213808
0.361269
0.262203
0.246521
0.302691
0.269590
0.275123
0.272789
0.218108
0.244104
0.197300
0.229266
0.132530
0.206531
0.213680
0.273556
0.138069
0.106277
0.043697
0.135083
0.247472
0.174720
0.157692
0.014893
0.128890
0.112438
0.065965
0.078429
0.047834
0.088589
0.114457
0.105578
0.168087
0.086104
0.124566
0.153089
0.141872
0.087742
0.020603
0.093255
0.022921
0.136901
0.315082
0.615455
0.972623
1.270154
1.480197
1.500000
1.291191
0.932570
0.613599
0.270025
0.022027
-0.118485
-0.154729
-0.129992
-0.049520
0.016781
0.002007
0.113757
0.062319
0.112124
0.143157
0.101198
0.106081
0.111862
0.087886
0.132677
0.092176
0.058331
0.095384
0.205793
0.108698
0.214557
0.199987
0.222255
0.194110
0.234744
0.234113
0.188550
0.246488
0.234737
0.181487
0.333621
0.328580
0.339813
0.407831
0.475640
0.409343
0.479032
0.559695
0.518546
0.443130
0.477239
0.587667
0.483442
0.520896
0.539375
0.505620
0.414495
0.566397
0.592874
0.568402
0.642931
0.600569
0.611602
0.527364
0.527774
0.546652
0.520083
0.505140
0.462578
0.456895
0.441682
0.411386
0.433024
0.348007
0.403860
0.344100
0.269029
0.269651
0.333723
0.231097
0.223030
0.214706
0.253995
0.251037
0.159096
0.151628
0.202603
0.199893
0.114973
0.132468
0.118681
0.176054
0.060088
0.126024
0.028769
0.080348
0.060351
0.152407
0.088244
0.086704
-0.017564
0.075382
0.097607
0.098586
0.091996
0.029383
0.102877
0.004005
0.062448
0.055819
0.098703
0.047574
0.077915
0.081403
0.027671
-0.029026
0.014924
0.058592
0.118603
0.066867
0.012588
0.090246
0.092982
0.073503
0.062698
0.100603
0.030917
0.050461
0.074388
-0.003459
0.077626
-0.008272
0.040610
0.010607
0.024320
0.039973
0.027366
0.030275
0.000657
0.125856
0.093638
0.072906
0.097681
0.034498
0.027455
0.072631
-0.017597
0.033815
-0.009435
0.020888
0.052573
0.066677
-0.046458
0.003339
0.056001
0.020699
0.029447
0.064451
0.059030
0.000783
0.066897
0.000055
0.032551
0.160557
0.108855
0.086352
0.157475
0.158670
0.148348
0.134024
0.077872
0.195777
0.209507
0.167114
0.151316
0.095679
0.139329
0.196700
0.209842
0.186618
0.194835
0.199739
0.240100
0.070821
0.156246
0.122445
0.158569
0.144866
0.120865
0.155948
0.024216
0.084376
-0.003892
0.098996
-0.016539
0.025283
-0.021981
0.072429
0.064052
-0.015271
0.031489
-0.026446
-0.006906
0.088237
-0.016873
-0.042890
0.037108
0.022559
-0.055349
0.013705
-0.006802
-0.111912
-0.087114
-0.025704
-0.079010
0.144093
0.159872
0.325446
0.698264
1.059483
1.266859
1.305308
1.254059
0.956170
0.681682
0.368164
0.033648
-0.237800
-0.321926
-0.280085
-0.263315
-0.118551
-0.081259
-0.098453
-0.109400
-0.062012
-0.027534
0.065367
-0.002646
0.020517
-0.011117
-0.031528
0.039902
-0.093637
-0.003746
0.101487
0.046659
0.031307
0.144061
0.056351
0.044954
0.118564
0.124737
0.131239
0.114646
0.125374
0.152242
0.159394
0.240346
0.217003
0.232178
0.294199
0.291432
0.260278
0.404476
0.381508
0.388565
0.383762
0.346503
0.448161
0.486339
0.421579
0.426465
0.414585
0.448795
0.553587
0.333469
0.472058
0.488481
0.386893
0.431320
0.367363
0.366229
0.415124
0.320397
0.329450
0.375189
0.348339
0.208777
0.245030
0.309350
0.226883
0.162237
0.236108
0.258280
0.175958
0.071978
0.121710
0.085882
0.084757
0.122762
0.037416
0.147186
-0.065793
-0.026441
-0.029325
-0.069056
0.029840
-0.061145
0.028858
-0.075844
-0.056047
-0.026107
-0.014874
0.005717
-0.116539
-0.102909
-0.094009
-0.058137
-0.090515
-0.066193
0.045075
-0.071008
-0.082123
-0.021184
-0.077777
-0.021862
-0.122187
-0.017122
-0.091984
-0.037212
-0.133091
-0.066341
-0.068544
-0.032984
-0.051018
-0.179926
-0.078981
-0.089742
-0.054391
-0.127089
-0.083322
-0.127661
-0.011123
-0.120154
0.006803
-0.036111
-0.032049
-0.111450
-0.094251
-0.068162
-0.160133
-0.058532
-0.042611
-0.108166
-0.151665
-0.049904
-0.130231
-0.031253
-0.053953
-0.089587
-0.041185
-0.059987
-0.017003
-0.065360
-0.015386
-0.110522
-0.076705
-0.027897
-0.076742
-0.074475
-0.095800
-0.103353
-0.142473
0.022195
-0.017476
-0.058096
-0.085645
-0.021712
-0.015883
-0.005194
0.051520
0.052781
-0.025327
-0.041364
-0.027512
0.108184
-0.002562
0.057771
0.092751
0.034165
0.063164
0.019610
0.087536
0.132159
0.106988
0.099215
0.128730
0.083699
0.119107
0.048281
0.002022
0.008002
0.073189
-0.004585
0.099633
-0.033832
0.014349
-0.018256
0.010467
-0.040109
0.004099
-0.124714
-0.062264
-0.075053
-0.093973
-0.053055
-0.054347
-0.064055
-0.055244
0.004209
-0.036668
-0.057758
0.039979
-0.082529
-0.204646
-0.103104
-0.059993
-0.112855
-0.059316
-0.130079
-0.085075
-0.112150
-0.003926
0.281704
0.507135
0.815815
1.097012
1.333539
1.191166
1.031932
0.776548
0.465662
0.022731
-0.180942
-0.276505
-0.338626
-0.317430
-0.271193
-0.139268
-0.065795
-0.123509
-0.077753
-0.033885
-0.113469
-0.053063
-0.035181
-0.033408
0.004694
0.003097
-0.056043
0.073387
0.001632
-0.032564
0.086200
0.014230
-0.030867
0.015981
0.024452
0.140543
0.106825
0.139434
0.124991
0.243570
0.206716
0.211460
0.218707
0.251138
0.228025
0.222036
0.328758
0.317214
0.380998
0.353561
0.386818
0.310910
0.428430
0.367056
0.441350
0.437832
0.395789
0.427913
0.490453
0.510003
0.448073
0.474788
0.436270
0.444722
0.387315
0.420782
0.419898
0.334389
0.409368
0.376556
0.423817
0.291166
0.271752
0.224357
0.276360
0.276481
0.175780
0.202495
0.164463
0.088140
0.224073
0.124427
0.081523
0.058563
0.047396
0.087148
-0.011934
0.055509
0.035495
0.045106
0.013712
-0.035905
-0.032155
0.088175
0.020387
-0.107906
-0.022262
-0.063117
-0.005074
0.017405
-0.022310
0.003469
-0.040849
0.002037
-0.030900
0.001677
-0.088368
-0.094454
-0.004516
-0.033249
-0.010026
0.037160
0.079729
-0.000560
-0.013653
-0.052863
-0.041497
-0.001113
-0.067650
-0.052451
0.081491
-0.046754
-0.114842
0.004478
-0.001215
-0.033071
0.027117
-0.009542
0.036115
-0.003339
0.044563
0.006171
-0.010330
-0.034681
-0.018485
-0.028988
0.032721
0.016753
-0.022942
0.012565
-0.047921
-0.043365
-0.083779
-0.073398
-0.026593
-0.033570
-0.067156
-0.109703
-0.045813
-0.036012
-0.031917
0.015345
-0.039362
0.003883
0.016977
-0.022873
0.059507
0.023982
0.013189
-0.013297
0.006599
-0.016235
0.100755
0.114210
0.077627
0.021960
0.081612
0.136413
0.146886
0.175531
0.121205
0.148149
0.082429
0.155540
0.212155
0.160350
0.147238
0.078654
0.187012
0.157573
0.189223
0.153697
0.209607
0.134683
0.202539
0.135963
0.153995
0.115478
0.192661
0.155192
0.090330
0.033939
0.130970
0.086993
0.110688
0.063040
0.105730
0.101097
0.044967
0.052943
0.007069
0.009332
0.063226
0.041164
-0.076919
0.039572
0.038316
0.020780
0.062069
-0.037338
0.008360
-0.063665
-0.010038
0.020386
0.022878
0.002612
0.064427
0.274698
0.471704
0.779883
1.119234
1.342528
1.439822
1.277587
0.978342
0.649834
0.267735
-0.029548
-0.174106
-0.230856
-0.174510
-0.165869
0.022790
0.011449
0.025009
0.052883
-0.006498
0.106470
0.003396
0.054488
0.025042
0.081958
0.055510
0.115206
0.055486
0.117032
0.056589
0.101514
0.120465
0.075872
0.128778
0.180733
0.093375
0.155855
0.154506
0.226892
0.251023
0.273878
0.321272
0.321258
0.301085
0.249186
0.415553
0.421148
0.400476
0.477834
0.465229
0.460483
0.507200
0.589794
0.513531
0.556149
0.506119
0.458931
0.463314
0.502462
0.553221
0.459643
0.542528
0.563315
0.541975
0.543519
0.582054
0.484555
0.509327
0.490124
0.404957
0.388903
0.444085
0.419837
0.477681
0.384008
0.373297
0.288670
0.315823
0.332104
0.205686
0.257300
0.210761
0.176096
0.193357
0.189597
0.169233
0.163067
0.145057
0.113806
0.026391
0.125136
0.112394
0.186596
0.086110
0.075734
0.030024
0.029579
0.048604
0.053316
0.086818
0.083115
0.119886
0.013311
0.062283
0.051185
0.106410
0.097225
0.000086
0.102992
-0.003872
0.029836
0.055052
0.080487
0.047360
0.048472
0.126253
0.116198
0.086333
0.081377
0.004474
0.018827
0.066652
0.082430
0.042581
0.071418
0.057674
0.021327
0.080318
0.027397
0.072071
-0.032651
0.023043
-0.021521
0.027363
0.032725
0.117225
0.049547
0.085971
0.083066
-0.020533
0.037498
0.008142
0.001088
0.022482
0.070246
0.022563
0.071563
-0.013174
0.097354
0.033847
0.049398
0.033077
-0.028216
0.071955
0.021966
-0.016278
0.136246
0.149286
0.065501
-0.025080
0.009371
0.042831
0.030991
0.124862
0.124655
0.080403
0.088192
0.202232
0.077867
0.138406
0.114359
0.177214
0.144488
0.212315
0.143074
0.243635
0.218436
0.263963
0.202008
0.220484
0.239032
0.159293
0.139808
0.132940
0.182993
0.199102
0.143607
0.165823
0.123054
0.112661
0.100490
0.163151
0.125549
0.040755
0.059043
0.001132
0.059359
0.045441
0.003173
0.007043
0.018786
-0.020803
0.018103
0.003438
-0.018291
0.052177
-0.029020
0.051152
0.069092
0.024526
0.080259
0.107943
0.024633
-0.020472
0.046996
-0.150516
-0.025161
0.213752
0.379556
0.680369
1.010008
1.295774
1.330907
1.300656
1.075909
0.725612
0.408127
0.092871
-0.160478
-0.287588
-0.201475
-0.211554
-0.036637
-0.052361
-0.019798
-0.076276
-0.011519
0.011908
0.036900
0.067232
-0.016967
0.021931
0.003138
-0.002187
0.056103
0.116575
-0.001871
0.060897
0.093858
0.067503
0.146150
0.087887
0.177482
0.133060
0.145751
0.197461
0.224609
0.193558
0.176842
0.196787
0.296615
0.289536
0.273742
0.318372
0.365685
0.331606
0.366724
0.357572
0.473587
0.358083
0.475322
0.450422
0.453693
0.528760
0.450045
0.510064
0.492982
0.545468
0.461698
0.530286
0.454240
0.451152
0.447414
0.415792
0.472040
0.319062
0.429740
0.371673
0.288496
0.318356
0.334229
0.307427
0.256925
0.211378
0.234942
0.116480
0.239239
0.267582
0.122067
0.047068
0.062760
0.124746
0.058358
0.028544
0.069122
0.037567
-0.024810
0.000043
-0.057008
0.045097
-0.070739
-0.061881
-0.029596
-0.018265
-0.036208
-0.049848
-0.004013
-0.085692
-0.071541
-0.034008
-0.043062
0.005846
0.021097
-0.039344
-0.058886
-0.085720
-0.050510
-0.044135
-0.058305
0.010190
-0.071617
-0.082934
-0.070036
-0.134751
-0.031433
-0.068944
-0.163200
-0.034194
-0.055626
-0.098705
-0.031687
-0.031367
-0.070805
-0.040478
-0.092577
-0.058967
-0.138166
-0.041935
-0.064908
-0.046774
-0.070334
-0.066108
-0.095424
-0.087599
-0.151914
-0.068846
-0.089439
-0.088114
-0.041847
-0.093595
-0.103063
-0.026911
-0.121221
0.036950
0.010980
-0.109115
-0.099283
-0.119181
-0.086857
-0.009145
-0.082378
-0.041023
-0.122173
-0.107291
-0.084063
-0.006668
-0.029458
-0.038706
-0.072180
-0.040063
0.075427
-0.006992
0.039035
-0.065891
0.040511
0.032745
0.019150
0.060642
0.037954
0.067894
0.087493
0.152185
0.077316
0.106408
0.111248
0.149127
0.082967
0.025882
0.101477
0.104103
0.087974
0.059608
0.019954
0.074949
0.055396
0.023104
0.045633
-0.065740
-0.041347
0.009894
0.015833
-0.055859
-0.011685
-0.107158
-0.079526
-0.060767
-0.088203
-0.055355
-0.142819
-0.029112
-0.088674
-0.039712
-0.101025
-0.038878
-0.093280
-0.037586
-0.140617
-0.088798
-0.081647
-0.082813
-0.072471
-0.152161
-0.064487
-0.133713
0.021707
0.081862
0.371765
0.695914
1.059181
1.238395
1.295630
1.150480
0.841164
0.567807
0.152656
-0.111406
-0.324161
-0.390501
-0.361838
-0.265398
-0.080899
-0.161744
-0.159364
-0.093446
-0.065011
-0.106172
-0.049775
-0.073896
-0.100130
-0.075676
-0.035792
-0.068314
-0.029924
-0.079488
-0.078493
-0.018751
-0.049277
-0.014403
0.068577
0.040998
0.023058
0.081565
0.103827
0.107485
0.102231
0.203306
0.156169
0.197127
0.221017
0.277317
0.230859
0.218909
0.267988
0.292640
0.277674
0.369893
0.307018
0.331542
0.403007
0.321335
0.380852
0.315508
0.354681
0.373107
0.432952
0.447199
0.386690
0.407848
0.389427
0.369459
0.353152
0.333440
0.434286
0.306545
0.340534
0.237233
0.242849
0.220878
0.178847
0.231045
0.269619
0.118200
0.116423
0.109616
0.096931
0.125819
0.022401
0.094462
0.022556
-0.030489
-0.035407
0.028044
-0.011692
-0.039556
-0.051123
0.028027
-0.013522
-0.084365
-0.055849
-0.072637
-0.014087
-0.041760
-0.082823
-0.067003
-0.029434
-0.186275
-0.049285
-0.107999
-0.084964
-0.105757
-0.087983
-0.052692
-0.045719
-0.153672
-0.086500
-0.054621
0.004024
-0.057688
-0.148686
-0.104761
-0.034295
-0.006163
-0.019462
-0.051867
-0.026266
-0.179110
-0.101745
-0.057140
-0.082057
-0.086976
-0.059580
-0.119008
-0.068461
-0.068803
-0.074287
-0.005481
-0.014397
-0.045600
-0.041108
-0.016970
-0.067870
-0.105942
-0.110665
-0.130862
-0.072438
-0.004170
-0.071584
-0.047943
-0.072748
-0.054065
-0.068702
-0.052334
-0.060887
-0.100364
-0.044315
-0.011474
-0.020708
-0.055424
-0.082628
-0.051191
-0.118520
0.001684
-0.029419
-0.023236
-0.018897
0.025255
-0.014494
-0.000745
-0.025712
0.039619
0.044417
0.013725
0.016403
0.135586
0.127487
0.083558
0.005547
0.074380
0.122790
0.122842
0.087882
0.080000
0.132841
0.100236
0.119442
0.134655
0.078905
0.124438
0.177278
0.156550
0.079436
0.089044
0.112394
0.029974
0.031932
-0.000555
0.025698
0.061288
0.034717
-0.040091
-0.034373
0.012539
0.036391
0.004311
-0.029852
-0.052060
0.007041
-0.038285
-0.013262
0.021833
0.012366
-0.013975
-0.042788
-0.036799
0.017643
-0.061991
0.008764
-0.007720
-0.034483
-0.065218
-0.042360
-0.005166
0.096963
0.454976
0.630788
0.983103
1.252091
1.317324
1.282227
0.993842
0.596949
0.336130
0.075445
-0.181144
-0.320257
-0.241201
-0.118955
-0.111402
-0.063454
0.011844
-0.017339
-0.004293
0.050445
0.008142
0.022735
0.027105
0.079780
0.008822
0.091869
0.041453
0.045060
0.091223
0.036321
0.137311
0.110879
0.112833
0.103340
0.037762
0.056322
0.228434
0.132804
0.181849
0.172743
0.239835
0.202991
0.298330
0.317677
0.335601
0.345284
0.406134
0.363595
0.379877
0.394909
0.465549
0.420205
0.440340
0.417808
0.520057
0.506499
0.458422
0.550027
0.578699
0.501552
0.524804
0.515765
0.601263
0.495401
0.448879
0.426932
0.463403
0.436498
0.420516
0.427355
0.462231
0.412995
0.356036
0.324319
0.251899
0.320253
0.331831
0.247659
0.256821
0.173266
0.213711
0.175081
0.113664
0.175979
0.207521
0.132823
0.066424
0.178480
0.083551
0.092601
0.118022
0.147582
0.150208
0.065508
0.041035
-0.026012
-0.052716
0.061556
-0.039856
0.088316
0.097408
0.091068
0.063895
0.021452
0.011514
0.016417
0.059875
0.105838
-0.015580
0.065581
-0.030851
-0.003184
-0.085187
0.030900
0.026785
0.129496
0.034108
0.121481
0.114708
0.139166
-0.006026
0.078095
0.031196
0.037823
0.023441
0.039050
0.020604
0.078765
0.119526
0.062389
0.023138
0.107307
0.096677
0.049950
0.119486
0.013946
0.026792
0.000496
0.060622
0.070122
0.095625
0.099051
0.090556
0.055250
-0.024821
-0.016271
0.049583
0.085593
0.088379
0.094047
0.070131
0.084644
0.034446
0.077421
0.068182
0.075913
0.097635
-0.003884
0.061704
0.095974
0.099924
0.119033
0.193870
0.122254
0.144679
0.114781
0.171787
0.138145
0.236970
0.180211
0.193552
0.206516
0.187170
0.169360
0.202422
0.244848
0.207048
0.210757
0.254063
0.270836
0.185841
0.202926
0.183859
0.174550
0.240481
0.190968
0.210066
0.173558
0.160180
0.159385
0.130107
0.081966
0.121232
0.080548
0.189934
0.136146
0.125064
0.082358
0.138511
0.116842
0.061434
0.111038
0.105684
0.056249
0.159942
0.109508
0.097479
0.123441
0.083259
0.011726
0.041990
0.067560
0.039265
-0.005328
0.007886
0.041147
0.142742
0.462834
0.576285
1.048840
1.232670
1.352118
1.448578
1.196308
0.879708
0.498050
0.209476
-0.042200
-0.204576
-0.248488
-0.120376
0.051105
-0.015414
0.023823
0.072734
0.111816
0.071082
0.068187
0.133659
0.114240
0.051256
0.108974
0.039225
