0.026984
-0.083371
0.066875
-0.069248
-0.003711
0.057291
-0.049154
0.044085
-0.023250
-0.126635
-0.031580
-0.054045
-0.020015
-0.033020
0.014223
0.086174
0.101970
0.021209
-0.015307
0.077898
0.036699
0.046280
0.046415
0.073280
0.003963
0.129693
0.070402
0.041525
0.053108
0.092605
0.141707
0.116668
0.102325
0.185145
0.121563
0.151855
0.202894
0.108774
0.217876
0.191142
0.228849
0.250540
0.270540
0.155636
0.148374
0.193430
0.216998
0.213065
0.180186
0.162988
0.192965
0.105245
0.083300
0.100946
0.199627
0.156108
0.140118
0.019512
0.102249
0.073757
0.053281
0.095706
0.044528
0.080523
0.054847
0.095316
0.045985
0.021052
0.075128
0.055298
-0.018488
0.022761
0.072243
0.025135
0.066058
0.020961
0.034164
0.054778
0.192142
0.348946
0.733871
0.990981
1.225927
1.366106
1.429186
1.243738
0.921538
0.485761
0.194641
-0.100774
-0.067386
-0.218148
-0.132542
-0.147328
-0.081042
-0.011096
0.094161
0.089841
0.047824
0.118942
0.114489
0.126570
0.134974
0.091556
0.111604
0.164102
0.128994
0.138117
0.077272
0.212136
0.079854
0.196385
0.203788
0.170353
0.256285
0.267354
0.306257
0.267404
0.309105
0.383286
0.352190
0.378963
0.469056
0.438142
0.416065
0.508075
0.408888
0.521414
0.511563
0.514896
0.550850
0.603262
0.613325
0.458575
0.611602
0.554832
0.613775
0.555433
0.487825
0.569472
0.564315
0.555512
0.528010
0.467434
0.527619
0.465269
0.391447
0.441424
0.412473
0.408862
0.352828
0.348673
0.322540
0.366517
0.307117
0.275836
0.274303
0.227070
0.220958
0.198646
0.217006
0.223717
0.284721
0.161658
0.230445
0.133523
0.158223
0.186177
0.125911
0.201912
0.115542
0.176402
0.163629
0.127000
0.143138
0.046553
0.153990
0.158513
0.065153
0.095721
0.080833
0.101515
0.026350
0.012285
0.024042
0.139593
0.066455
0.070745
0.096678
-0.028187
0.081234
0.079863
0.106266
0.014513
0.017160
0.153609
0.137382
0.159018
0.150268
0.136085
0.082840
0.070806
0.081755
0.002752
0.027315
0.074563
0.130019
0.039273
0.067929
0.051569
0.025291
0.082648
0.096760
0.090171
0.084989
0.084199
0.113941
-0.014961
0.182649
0.011597
0.091474
0.037806
0.095209
0.072571
0.110915
0.103472
0.031351
0.129135
0.045147
0.188384
0.178647
0.103217
0.154815
0.099299
0.169743
0.179770
0.112390
0.127198
0.181559
0.210370
0.200621
0.215943
0.134429
0.173326
0.231675
0.235834
0.276118
0.217711
0.274307
0.245656
0.232121
0.196328
0.200597
0.224182
0.160527
0.231620
0.212849
0.199765
0.267854
0.203474
0.198832
0.202322
0.073174
0.251483
0.144396
0.168114
0.175667
0.189316
0.103299
0.144131
0.145925
0.135148
0.089372
0.098601
0.092409
0.075922
0.075453
0.106695
-0.024851
0.065903
0.082641
0.047067
0.040852
0.001168
-0.021783
0.039516
0.170175
0.272412
0.554592
0.875704
1.144029
1.409640
1.474612
1.208078
0.973555
0.672238
0.241199
0.040460
-0.150516
-0.204291
-0.178747
-0.087815
-0.064805
0.005898
0.135920
0.071207
0.087222
0.117255
0.081405
0.119831
0.036018
0.064650
0.065486
0.153446
0.104955
0.112478
0.173766
0.160409
0.244378
0.211734
0.152363
0.190786
0.281690
0.254595
0.388238
0.287416
0.344961
0.303986
0.411614
0.336209
0.426296
0.425936
0.448710
0.427377
0.513763
0.484616
0.442085
0.488974
0.600593
0.538306
0.530802
0.577148
0.438040
0.582370
0.566171
0.552702
0.528657
0.571004
0.539375
0.475148
0.508491
0.503037
0.538611
0.441938
0.362194
0.339665
0.380571
0.392707
0.306253
0.369186
0.370282
0.320391
0.280182
0.213851
0.262381
0.205109
0.220780
0.179503
0.178928
0.171159
0.163479
0.173721
0.222496
0.108591
0.094074
0.079617
0.026829
0.165650
0.110151
0.009594
0.058270
-0.074585
0.088856
0.123311
-0.006648
0.108640
-0.015864
0.129671
-0.050118
0.061482
0.072614
0.096676
-0.044337
0.049458
-0.011284
-0.021672
0.039800
-0.004117
0.024600
0.057166
-0.005155
0.038116
-0.113217
0.050694
0.010437
-0.004772
-0.041850
0.032371
-0.019264
-0.040186
0.023866
0.034403
-0.000066
0.020690
-0.000205
0.024587
-0.123621
0.026539
0.065256
0.007915
-0.005962
0.033377
0.011290
0.031203
0.016751
0.049643
0.000861
-0.053587
0.021880
-0.041647
-0.024367
-0.016572
0.007062
-0.008993
0.091686
-0.038176
-0.057491
-0.003706
-0.050960
0.042397
0.068546
0.027959
0.016370
-0.024287
0.075971
0.079472
0.050650
0.143963
0.206785
0.135793
0.164002
0.148824
0.211963
0.139091
0.219499
0.089852
0.114122
0.176319
0.242957
0.125816
0.204295
0.082323
0.172793
0.197742
0.111503
0.177178
0.095898
0.083994
0.094127
0.035093
0.048138
0.097507
0.064873
0.022813
0.043392
0.009411
0.089467
0.004506
0.011081
-0.042993
-0.004630
0.013762
0.020776
-0.057942
-0.027488
-0.068282
-0.003137
-0.031252
-0.027674
-0.035673
0.040368
-0.012117
-0.052515
-0.030088
-0.015202
0.123518
0.406978
0.632289
0.978157
1.218676
1.372457
1.329165
0.975628
0.720017
0.320341
-0.023625
-0.103505
-0.250454
-0.278630
-0.231195
-0.167689
-0.130718
-0.094734
-0.035943
-0.003821
-0.006889
0.005118
0.024722
-0.009464
0.062770
-0.039298
0.005106
-0.004435
0.054529
0.034786
0.011179
0.040038
0.095996
0.148359
0.121340
0.119426
0.192730
0.125553
0.220274
0.255173
0.180361
0.240573
0.189286
0.257261
0.277633
0.302540
0.254761
0.340598
0.396168
0.314025
0.407042
0.491994
0.417373
0.425281
0.445140
0.467807
0.485108
0.471533
0.460355
0.519321
0.489512
0.467581
0.389163
0.398673
0.383609
0.404642
0.409158
0.330855
0.342676
0.319564
0.404912
0.334593
0.253728
0.224107
0.211168
0.172879
0.185639
0.165803
0.165747
0.099427
0.099246
0.111503
0.057545
0.091248
0.009420
0.116840
-0.021671
0.064935
-0.009829
-0.002539
-0.030248
0.032000
-0.031509
-0.084421
-0.010278
-0.048619
-0.027483
-0.048097
0.008349
-0.039065
-0.086109
-0.033692
-0.006061
-0.020735
-0.080470
-0.094936
-0.031457
-0.041884
-0.047649
0.024322
-0.059161
0.000711
0.002776
-0.046293
0.025200
-0.019047
0.018268
-0.037223
-0.085649
-0.050659
-0.038502
-0.064388
0.153738
-0.016612
-0.028898
-0.036370
-0.077424
-0.092601
-0.140090
-0.073746
-0.045090
0.017023
0.007583
-0.043063
-0.017950
-0.042659
-0.031693
-0.001418
-0.042876
-0.037578
-0.051975
0.001085
-0.052316
-0.020702
-0.067143
0.035745
0.029980
0.052610
-0.016538
0.034420
0.054788
-0.028112
-0.052079
-0.013338
0.041097
-0.050520
-0.018260
-0.021554
-0.016771
0.003798
0.000543
0.071930
0.059308
0.068711
0.107177
0.120468
0.084474
0.068979
0.054341
0.159582
0.152022
0.145911
0.162329
0.066924
0.139208
0.107722
0.144796
0.050654
0.079743
0.126330
0.032901
0.153690
0.061998
0.106679
0.022868
0.100921
0.016202
-0.029050
0.074690
0.061049
-0.038222
0.099597
0.024839
0.013560
0.014844
0.020502
0.039379
-0.014027
-0.007094
0.077498
-0.043833
0.039720
-0.013513
-0.094095
-0.064392
0.020277
-0.067109
-0.044604
0.182283
0.268476
0.609699
0.905612
1.224152
1.366510
1.384876
1.113031
0.837509
0.496561
0.154883
-0.134923
-0.247149
-0.334407
-0.225024
-0.153704
-0.116500
-0.025832
-0.031989
0.023703
0.011785
0.023663
0.076622
0.047976
0.051393
0.076070
0.136203
0.056751
0.133188
0.151538
0.091682
0.167113
0.087159
0.153841
0.205123
0.224361
0.177880
0.200404
0.252094
0.356540
0.204102
0.379497
0.332017
0.320475
0.364933
0.425700
0.425101
0.459905
0.361916
0.570486
0.364050
0.493409
0.594731
0.539306
0.496828
0.562845
0.519727
0.599457
0.585662
0.554679
0.523248
0.523433
0.507805
0.468611
0.444159
0.494232
0.465971
0.492907
0.396469
0.435052
0.347345
0.332978
0.382696
0.303209
0.357416
0.213614
0.240968
0.264547
0.247012
0.222267
0.156259
0.206847
0.222399
0.222415
0.193210
0.157411
0.085696
0.146185
0.054209
0.110914
0.155661
0.049942
0.102769
0.041147
0.009967
0.073625
0.063877
0.150664
0.042691
0.088794
0.055469
0.053690
0.035977
0.064492
0.032459
0.076352
0.074527
0.100099
0.103641
0.116615
0.034235
-0.005865
0.116875
0.110276
0.033291
0.038017
0.059686
0.040416
0.076931
0.054125
0.144000
0.044863
-0.023780
0.023237
0.009724
0.048183
0.040982
0.093320
0.053790
0.037473
0.074672
0.078742
0.040973
0.078156
0.103716
0.002880
-0.007823
0.038636
0.034895
0.140236
0.070678
0.064116
0.155887
0.031624
-0.008549
-0.018490
0.116819
0.093289
0.047812
0.044712
0.098302
0.041675
0.121047
0.122180
0.096095
0.057225
0.133897
0.091832
0.216397
0.161619
0.135216
0.182390
0.202598
0.203879
0.152704
0.270201
0.262507
0.319705
0.274395
0.222329
0.293849
0.232851
0.148525
0.194062
0.252750
0.254590
0.199930
0.292740
0.184955
0.188230
0.318279
0.173018
0.213659
0.122680
0.233085
0.187995
0.200027
0.214445
0.077670
0.125183
0.108292
0.144646
0.169652
0.126209
0.143763
0.156493
0.124045
0.127752
0.128622
0.160610
0.168674
0.038333
0.027395
0.093935
0.119930
0.081660
0.089437
0.079996
0.186244
0.331534
0.539818
0.898489
1.235763
1.446252
1.500000
1.305036
1.004414
0.758316
0.356204
0.073239
-0.195720
-0.131497
-0.106724
-0.047776
0.049461
0.145597
0.092490
0.135192
0.117398
0.090612
0.125091
0.096216
0.152634
0.218236
0.084465
0.138536
0.247102
0.141968
0.170495
0.222131
0.121896
0.202366
0.276534
0.222042
0.326777
0.317757
0.295595
0.387023
0.295933
0.334249
0.375207
0.437445
0.461562
0.463995
0.464432
0.427835
0.536182
0.428544
0.611241
0.567604
0.647146
0.564742
0.647512
0.672975
0.577285
0.615220
0.574500
0.546945
0.480962
0.637383
0.490066
0.553479
0.545905
0.503759
0.514779
0.537669
0.546172
0.419001
0.467239
0.438902
0.409872
0.335249
0.346863
0.317594
0.357546
0.290780
0.270018
0.303309
0.307057
0.237599
0.196719
0.161814
0.165736
0.220141
0.149518
0.150548
0.112441
0.169400
0.126131
0.155560
0.112930
0.135103
0.026663
0.111403
0.062569
0.046602
0.042762
0.020737
0.082272
0.045573
0.012468
0.076961
0.034079
0.060492
0.072261
0.070289
0.036949
0.112185
0.077113
0.094924
0.098398
0.010333
0.030634
-0.027230
0.037764
0.077257
0.041895
0.039059
0.115277
0.043535
0.096540
0.089222
0.059229
0.059880
0.088222
0.097998
0.109349
0.081543
0.036933
0.115562
0.096991
0.001391
0.003907
0.069581
0.066969
0.088082
0.115872
0.198460
0.076182
0.131631
0.053612
0.070878
0.059462
0.022818
0.031073
0.114768
0.094378
0.058503
0.055103
0.031953
0.018177
0.014639
0.090204
0.070859
0.055778
0.093524
0.129368
0.065248
0.153583
0.187488
0.129401
0.189997
0.099745
0.169452
0.125395
0.137907
0.180669
0.216595
0.229233
0.162297
0.211091
0.160037
0.154525
0.225677
0.271885
0.242696
0.184198
0.123362
0.085178
0.080985
0.188654
0.131904
0.156755
0.090537
0.045929
0.154244
0.096447
0.086179
0.033468
0.016203
0.014930
0.038236
0.033457
-0.009115
-0.013674
0.051340
-0.016944
0.020959
0.094356
0.007302
0.005251
-0.016160
0.028348
0.060659
-0.094010
-0.007213
0.030341
0.150419
0.346709
0.739205
1.046563
1.307888
1.393390
1.355609
1.094208
0.660728
0.432161
0.091838
-0.078299
-0.292648
-0.267942
-0.202281
-0.059152
-0.059881
-0.007191
0.013938
0.025799
0.054943
0.031788
0.147291
0.021013
0.054703
-0.027312
0.026875
0.105293
0.136842
0.042216
0.134019
0.169236
0.176008
0.091139
0.167739
0.157442
0.232712
0.107091
0.136968
0.266693
0.256193
0.254728
0.321714
0.332352
0.300523
0.281477
0.411686
0.417132
0.383383
0.381773
0.451193
0.378712
0.464114
0.399836
0.462213
0.425456
0.481513
0.419995
0.519982
0.475086
0.547713
0.450765
0.394273
0.494580
0.440349
0.346397
0.415916
0.445680
0.387632
0.335105
0.283945
0.320159
0.332442
0.350505
0.215619
0.141906
0.200477
0.105596
0.177380
0.151811
0.079647
0.085367
0.088605
0.096451
0.073727
0.110685
0.026186
-0.009486
0.009367
0.041126
0.003942
-0.066759
-0.022841
-0.023836
-0.017980
0.069951
-0.023647
-0.036459
-0.051147
-0.008016
-0.060450
-0.043353
-0.074964
0.007212
-0.116731
-0.001668
-0.044335
-0.042763
-0.017618
-0.051924
-0.088441
-0.040805
0.024348
-0.056261
-0.134837
0.037889
0.001651
-0.030822
-0.042147
-0.038342
-0.056999
-0.034288
-0.049645
0.003537
-0.000855
-0.030401
-0.005705
-0.071226
-0.018337
-0.001443
-0.044931
0.046006
-0.066259
-0.129529
-0.057208
-0.110914
-0.073219
-0.123446
-0.041780
-0.102754
-0.078751
-0.008500
-0.061838
-0.063960
0.034029
-0.101037
0.008370
-0.045152
-0.051729
-0.035825
-0.082334
-0.009355
-0.102426
-0.080301
-0.005614
-0.066414
-0.031425
-0.031780
0.109508
0.086043
0.027026
0.070925
-0.018101
0.070481
0.057469
0.047899
0.063582
0.055928
0.120515
0.048176
0.133493
0.136576
0.123641
0.103952
0.130638
0.122612
0.040745
-0.008679
-0.003346
0.017982
-0.004184
-0.034655
0.037870
0.038274
0.052124
-0.003857
-0.003505
-0.062544
-0.003350
-0.013760
0.001187
-0.008749
-0.091282
-0.036611
-0.089921
-0.058648
-0.081327
-0.126569
-0.066401
-0.138886
-0.115345
-0.066446
-0.138357
-0.122904
-0.083985
-0.005876
-0.192001
-0.125608
0.036812
0.241750
0.498934
0.826384
1.052935
1.264259
1.257402
1.067080
0.868290
0.422295
0.056066
-0.202861
-0.296947
-0.335428
-0.306348
-0.208119
-0.185757
-0.145569
-0.109306
-0.149332
-0.068068
0.013598
-0.030538
-0.066884
-0.008029
-0.026790
-0.030622
0.004057
-0.048363
-0.022614
0.040970
0.007342
-0.000933
0.039587
0.104592
0.165934
0.060339
0.088460
0.184907
0.188021
0.150468
0.209019
0.250128
0.186959
0.286190
0.344038
0.243180
0.315439
0.337810
0.397985
0.432701
0.406683
0.377897
0.425797
0.372932
0.418704
0.361942
0.421266
0.490789
0.373781
0.444824
0.381592
0.392108
0.421261
0.419939
0.409032
0.417418
0.364536
0.291748
0.249503
0.281595
0.343279
0.153447
0.240709
0.209736
0.219395
0.196799
0.188174
0.159648
0.188886
0.078116
0.042208
0.036442
0.026214
0.048652
0.061167
0.023653
-0.028754
-0.106036
-0.046660
-0.001809
0.021637
0.064063
0.044384
-0.012464
0.002932
-0.012755
-0.041487
-0.015464
-0.032204
-0.087628
0.039705
-0.004159
-0.050860
-0.023688
-0.153976
-0.057796
-0.045366
-0.147747
0.055015
-0.094274
-0.024139
-0.085855
-0.018948
0.004249
-0.032772
-0.037397
-0.039660
-0.029041
-0.096762
0.031297
-0.110579
-0.065654
-0.029763
-0.038533
-0.022960
-0.105498
-0.074003
-0.013366
0.045188
0.012870
-0.057794
-0.073622
-0.093202
-0.069413
0.003626
-0.054894
-0.015189
-0.097284
-0.003775
-0.019801
-0.038769
0.051163
-0.033645
0.027227
-0.064476
-0.069031
-0.042866
-0.031701
-0.037538
0.029651
-0.020973
-0.011623
-0.045684
-0.001871
0.070423
0.026738
0.056929
0.030556
0.058475
0.061698
0.065091
0.138750
0.042771
0.042965
0.134786
0.124248
0.099902
0.164691
0.054233
0.130920
0.176361
0.196990
0.119888
0.142012
0.158557
0.191246
0.086301
0.132203
0.083277
0.132853
0.074609
0.109518
0.052352
0.090269
0.030626
0.005919
0.020465
0.064132
0.072564
-0.073462
-0.050668
-0.023187
0.026685
-0.001185
0.073672
-0.094991
-0.022698
0.005258
-0.054655
0.015182
-0.019574
-0.051980
0.034360
-0.016343
-0.018878
-0.027283
-0.034609
0.047861
0.180659
0.402892
0.844573
0.977330
1.403405
1.343066
1.171897
0.988648
0.601382
0.283896
0.007219
-0.155641
-0.157447
-0.222185
-0.190257
-0.036557
-0.003318
0.000178
-0.002199
-0.016790
0.003119
0.053559
0.061270
0.017520
0.094221
0.056391
0.052560
0.026906
0.110812
0.046635
0.090996
0.070998
0.042069
0.095654
0.206308
0.141701
0.212781
0.292827
0.241359
0.344013
0.316516
0.311176
0.333477
0.315368
0.331758
0.431490
0.341689
0.419494
0.579078
0.459394
0.546521
0.521323
0.505969
0.609874
0.547179
0.405799
0.590558
0.598989
0.510413
0.558477
0.510066
0.538129
0.491036
0.474060
0.446827
0.500502
0.468953
0.418511
0.390832
0.395290
0.394193
0.328553
0.226322
0.326494
0.285846
0.331182
0.231322
0.227411
0.230227
0.259901
0.148099
0.127352
0.174859
0.180299
0.128428
0.061531
0.133533
0.163463
0.118842
0.039359
0.124648
0.055414
0.095516
0.067977
0.047297
0.028881
0.109154
-0.010862
0.086354
0.053340
0.092972
0.055675
-0.010675
0.002294
0.059163
0.029277
0.075190
0.063841
0.003063
0.153055
0.030256
-0.019381
-0.052550
0.061700
0.023519
0.056934
-0.000942
-0.061365
0.084198
0.091687
-0.083634
-0.016724
-0.001265
0.019863
-0.036102
0.106227
0.100000
0.082586
0.013715
0.136814
-0.012348
0.018133
0.120976
0.014612
-0.020301
0.054287
0.095961
0.056221
0.026911
0.024922
0.139735
0.120479
0.063833
0.112138
0.094453
0.031495
-0.029240
0.075225
0.075674
0.068478
0.035290
0.015354
0.041345
0.130468
0.110643
0.073229
0.102807
0.102328
0.166550
0.148786
0.161137
0.168088
0.206302
0.220105
0.139858
0.206479
0.253037
0.290178
0.189151
0.318817
0.264274
0.251245
0.122370
0.181866
0.188593
0.278416
0.234271
0.287690
0.199806
0.145674
0.193440
0.163669
0.153228
0.180709
0.110242
0.009915
0.134824
0.152523
0.140658
0.074437
0.039883
0.028215
0.037895
0.009740
0.048270
0.058146
0.060072
0.027238
0.067766
0.072437
0.068181
0.070682
0.006797
0.040012
0.106474
-0.003857
0.025621
0.120101
0.221568
0.460674
0.782492
1.124543
1.305557
1.408449
1.389812
1.083317
0.739645
0.388588
0.143371
-0.146171
-0.192250
-0.271950
-0.148168
-0.095598
0.054821
0.027013
0.031092
0.018280
0.038548
0.106285
0.108257
0.134766
-0.052978
0.124066
0.028275
0.046566
0.084587
0.126126
0.127783
0.133785
0.210570
0.196040
0.055663
0.203729
0.178750
0.248033
0.276907
0.205768
0.297296
0.287522
0.295084
0.340541
0.313077
0.489628
0.457233
0.489274
0.437879
0.553071
0.478284
0.499299
0.435252
0.487644
0.546327
0.491556
0.589815
0.470049
0.650688
0.606005
0.521483
0.587796
0.440544
0.480028
0.512141
0.495325
0.409669
0.461388
0.445850
0.350108
0.373682
0.344827
0.396809
0.300603
0.206082
0.306467
0.153326
0.136843
0.224316
0.148617
0.186616
0.176066
0.100537
0.092839
0.144348
0.083010
0.087882
-0.002284
0.092643
0.148155
-0.000738
0.079061
0.023421
0.053745
0.038995
0.057472
-0.020439
-0.003412
-0.041246
0.117361
0.009959
0.055897
-0.040355
-0.077786
0.012099
-0.008752
0.020352
-0.045283
0.016051
-0.007267
-0.037721
0.006176
0.069416
-0.042051
-0.008532
0.027056
-0.039373
-0.014078
0.118332
0.025790
-0.010409
0.015560
-0.017899
-0.035579
0.018639
-0.043177
-0.057660
-0.030502
0.053481
0.022852
-0.008127
-0.022632
-0.055822
0.014490
0.023308
0.044823
-0.017793
0.021158
-0.025873
0.017435
-0.008999
-0.053071
-0.012019
-0.127457
-0.015958
-0.019585
-0.049821
-0.034635
-0.014830
-0.026604
-0.036984
-0.052615
0.007676
0.047698
0.087288
0.015279
-0.028660
0.017966
0.055760
0.119982
0.011802
0.054380
0.041827
0.156669
0.138026
0.048613
0.027636
0.156705
0.157843
0.087271
0.116806
0.114245
0.095449
0.200135
0.102785
0.039756
0.085565
0.071471
0.094003
0.073033
0.076817
0.086910
0.083586
0.048038
0.067281
0.041714
-0.019503
0.018607
-0.049265
-0.080252
-0.007494
-0.048243
0.019387
0.046026
-0.034242
-0.071842
-0.145735
-0.032361
-0.060450
-0.114202
-0.063816
-0.096118
-0.129962
-0.088124
-0.047379
-0.068727
-0.033741
-0.053803
0.041319
0.246604
0.583502
0.860494
1.100001
1.302982
1.326128
1.155563
0.724672
0.381723
0.094899
-0.137029
-0.258416
-0.325087
-0.217301
-0.149656
-0.080438
0.027888
-0.171331
-0.041329
-0.030075
-0.092248
-0.092569
-0.068228
-0.005582
-0.006481
0.004196
-0.039977
-0.025360
0.063844
0.096907
0.027628
0.008134
0.019960
0.075547
0.041431
0.059234
0.096336
0.151447
0.132799
0.174458
0.187183
0.244632
0.220963
0.313491
0.272894
0.261894
0.378920
0.281942
0.289204
0.362930
0.419588
0.281195
0.451043
0.360972
0.420435
0.401887
0.378138
0.418690
0.472455
0.414745
0.395924
0.372918
0.378185
0.337308
0.409220
0.327772
0.305637
0.320211
0.341960
0.235849
0.149448
0.170963
0.245670
0.169806
0.142286
0.138782
0.159373
0.138971
0.120762
0.005793
0.105206
0.084217
0.037485
0.104730
0.026879
-0.047470
-0.031846
-0.050956
-0.059560
0.022695
-0.111526
-0.070510
-0.083347
-0.132013
-0.057948
-0.095810
-0.083427
-0.047132
-0.073235
-0.204072
-0.121056
-0.075724
-0.087411
-0.087742
-0.092771
-0.050533
-0.076311
-0.121540
-0.139173
-0.171443
-0.107059
-0.137740
-0.158242
-0.108995
-0.057256
-0.147102
-0.158012
-0.077129
-0.122958
-0.068117
-0.151604
-0.118122
-0.075126
-0.119771
-0.059344
-0.082103
-0.024761
-0.077257
-0.080142
-0.069111
-0.106318
-0.079755
-0.116700
-0.048837
-0.132226
-0.052291
-0.004327
-0.112307
-0.160642
-0.055901
-0.060617
-0.097512
-0.102308
-0.021208
-0.126152
-0.150529
-0.115950
-0.082384
-0.020342
-0.035448
-0.077637
-0.082603
-0.039897
-0.093733
-0.014004
-0.097311
-0.139211
0.048198
0.064633
0.061692
-0.012630
-0.064863
0.068988
0.031319
0.131103
0.035030
0.069689
0.135754
0.102729
0.048516
0.007777
0.084460
0.173485
0.067269
0.060395
0.077892
0.062152
0.036372
-0.011058
-0.017812
0.042996
0.037239
0.017575
-0.026511
-0.001565
-0.068979
-0.084243
-0.017752
-0.091726
-0.053431
-0.045371
-0.117827
0.015492
-0.147395
-0.130211
-0.072402
-0.157519
-0.131377
-0.059919
-0.101528
-0.085045
-0.021315
-0.133338
-0.076978
-0.049881
-0.149999
-0.020985
0.073269
0.115201
0.388249
0.728951
1.067643
1.206699
1.306515
1.175652
0.838748
0.540899
0.169953
-0.175147
-0.224016
-0.381115
-0.230340
-0.207511
-0.106325
-0.137815
-0.024907
-0.042720
-0.073390
0.006376
-0.063949
-0.043645
-0.016943
-0.047192
-0.050503
-0.032424
0.027690
0.026385
0.012343
0.042449
0.080732
0.075951
0.074061
0.150714
0.083065
0.117235
0.180343
0.138193
0.215843
0.169282
0.245514
0.223950
0.303503
0.301893
0.336993
0.306034
0.326022
0.317327
0.374460
0.302965
0.447581
0.418045
0.427524
0.398584
0.477738
0.494954
0.426191
0.459033
0.445391
0.424022
0.380673
0.428474
0.479697
0.433626
0.345560
0.297885
0.366182
0.362087
0.295995
0.263123
0.335053
0.291666
0.302046
0.145013
0.132684
0.164568
0.126069
0.116367
0.096046
0.102580
0.049749
0.094910
0.019187
0.163537
-0.012513
0.163887
0.066801
0.036532
0.033575
0.013324
0.031616
-0.052027
-0.013852
-0.029206
-0.022362
-0.097858
-0.029249
0.056515
0.045658
-0.010785
0.017389
0.066142
-0.027537
-0.004311
0.010072
0.013880
0.020316
-0.080544
0.027088
-0.034940
-0.036468
-0.012669
-0.174913
0.006832
-0.054344
-0.097520
0.043417
-0.022486
-0.022883
-0.050216
-0.004588
0.014955
-0.017185
0.015119
-0.055556
0.024846
-0.027430
0.026585
0.021418
-0.001002
-0.054073
-0.005835
0.030899
0.018660
-0.020781
-0.056925
-0.024450
0.050057
-0.001427
-0.083845
0.024129
0.024431
0.030866
0.063365
0.044096
0.033460
-0.012912
0.017775
0.011991
-0.042895
0.051987
0.061706
0.070043
0.091582
0.011323
0.059128
0.074082
0.137546
0.141068
0.160409
0.083852
0.074628
0.133181
0.236100
0.133959
0.132932
0.176863
0.168137
0.112517
0.192091
0.186208
0.277258
0.184400
0.201703
0.145970
0.183257
0.205208
0.275578
0.173619
0.191719
0.116059
0.135145
0.184743
0.144575
0.084476
0.036741
0.100279
0.108908
0.002903
0.007650
0.011375
0.084358
-0.013691
0.044160
0.120718
0.071561
0.108604
0.041215
-0.033460
0.073634
0.041378
-0.012944
-0.010826
0.004633
0.024118
0.035931
0.010374
0.200970
0.378693
0.760342
1.047979
1.384967
1.428204
1.418140
1.065820
0.863189
0.369547
0.112820
-0.070994
-0.243032
-0.157660
-0.072226
-0.028543
-0.021251
0.102428
0.053512
0.095466
0.069189
0.146879
0.090510
0.063427
0.152389
0.023394
0.121744
0.096811
0.119067
0.179556
0.251052
0.182618
0.209344
0.132110
0.213074
0.264902
0.215449
0.223907
0.377873
0.330399
0.356313
0.370330
0.321241
0.379720
0.349449
0.396182
0.532215
0.495090
0.447092
0.410222
0.569826
0.492232
0.558257
0.567208
0.593758
0.587455
0.586682
0.574356
0.621559
0.532376
0.588292
0.604536
0.510248
0.507684
0.465252
0.576359
0.522871
0.508431
0.555989
0.375898
0.490008
0.444138
0.373242
0.446619
0.328348
0.256827
0.269805
0.270155
0.259344
0.288330
0.248601
0.230272
0.228585
0.298908
0.128252
0.103186
0.104019
0.144615
0.083576
0.139409
0.105685
0.043173
0.052206
0.112770
0.145209
0.100571
0.147389
0.057344
0.139313
0.105768
0.032001
0.054204
0.027165
0.022571
0.101484
0.074174
0.075126
0.091897
0.101301
0.123385
0.032700
0.049576
0.063402
0.024533
0.015962
0.099576
0.049049
0.037542
0.037089
0.058036
0.082662
0.102285
0.023420
0.058080
0.138686
0.046396
0.042329
0.039166
0.009438
0.019697
