-0.010130
-0.104249
0.083714
0.034566
-0.010524
0.028294
-0.039109
-0.033478
-0.013900
0.033675
0.024968
0.065434
-0.028965
-0.001111
0.051972
0.040696
0.025523
0.003734
0.029611
0.033822
0.044917
0.048155
0.007351
0.053912
0.054129
0.136150
0.150819
0.122659
0.109290
0.124654
0.114184
0.148503
0.151042
0.021470
0.258054
0.101182
0.199980
0.207638
0.210814
0.288545
0.195883
0.173559
0.168328
0.190737
0.243476
0.238069
0.226123
0.171572
0.087657
0.127257
0.218474
0.125060
0.112692
0.032297
0.083915
0.089456
0.107774
0.070275
0.096348
0.092271
0.001322
0.004708
0.040786
0.074916
0.090416
0.009610
0.093138
-0.001722
0.009145
0.122356
-0.032825
0.049414
-0.007433
0.015891
0.052967
0.199950
0.418335
0.745815
1.075622
1.304472
1.424712
1.388028
1.097375
0.786183
0.426033
0.117056
-0.132596
-0.183978
-0.177599
-0.166332
-0.054884
0.007343
0.071572
0.094757
0.087818
0.091112
0.067646
0.199179
0.076822
0.107037
0.151363
0.242431
0.254343
0.180270
0.276260
0.130620
0.283270
0.220866
0.192417
0.238300
0.269734
0.276575
0.358611
0.391503
0.389218
0.263009
0.429788
0.456314
0.422941
0.460779
0.491736
0.431066
0.500565
0.588067
0.578356
0.539278
0.539051
0.576641
0.633802
0.582674
0.560153
0.584473
0.624256
0.607178
0.577136
0.523585
0.613252
0.545591
0.622818
0.529604
0.443924
0.478603
0.489917
0.474596
0.385227
0.418717
0.395430
0.367019
0.322564
0.365706
0.226198
0.291977
0.271591
0.243684
0.207472
0.153608
0.145782
0.127429
0.205181
0.195588
0.200285
0.190864
0.090114
0.138825
0.155241
0.150064
0.101325
0.128731
0.143228
0.210730
0.046691
0.126358
0.096937
0.098241
0.106789
0.102636
0.126747
0.074163
0.110902
0.057762
0.125556
0.078326
0.069344
0.113147
0.143003
0.068784
0.077523
0.110759
0.107432
0.095842
0.009995
0.031223
0.110145
0.074256
0.093363
0.046958
0.052395
0.116930
0.074507
0.081747
0.122686
0.128413
-0.006471
0.086412
0.096945
0.185039
0.136048
0.039845
0.062831
0.102691
0.204312
0.092603
0.020965
0.138209
0.060215
0.069194
0.045305
0.103020
0.044763
0.011918
0.166768
0.101204
0.087687
0.118993
0.135112
0.177857
0.147195
0.115322
0.200301
0.238157
0.241699
0.241183
0.151327
0.179733
0.243650
0.231556
0.295263
0.369029
0.229104
0.257423
0.250195
0.225501
0.339307
0.280696
0.209495
0.323000
0.180128
0.196376
0.261406
0.208036
0.163888
0.153605
0.230006
0.179313
0.171107
0.069032
0.134582
0.120294
0.111493
0.081157
0.097182
0.175757
0.113451
0.119950
0.117653
0.085515
0.110344
0.076099
0.106397
0.040018
0.113943
-0.014615
0.036044
-0.000541
0.074989
0.190469
0.485805
0.638313
1.007170
1.270647
1.500000
1.378611
1.240612
0.810026
0.278298
0.119086
-0.078683
-0.165389
-0.093015
-0.086987
0.001137
0.031476
0.099877
0.127369
0.025182
0.114342
0.143002
0.085652
0.116632
0.086638
0.227012
0.134527
0.104167
0.098806
0.185451
0.206509
0.217032
0.216751
0.216405
0.226256
0.275384
0.298239
0.322536
0.288631
0.404840
0.389223
0.387845
0.425839
0.427093
0.457261
0.431244
0.520727
0.492617
0.502044
0.625157
0.518818
0.573702
0.569531
0.507141
0.511269
0.568516
0.616808
0.541077
0.470242
0.599752
0.489601
0.465603
0.604632
0.442581
0.449301
0.430739
0.501307
0.486961
0.428909
0.369869
0.357413
0.388970
0.315454
0.241951
0.253859
0.283898
0.289646
0.246072
0.173842
0.192758
0.136781
0.019247
0.084343
0.147623
0.126913
0.076975
0.042925
0.055976
0.091750
0.122444
0.106472
-0.000463
0.059310
0.004511
0.119975
0.019786
0.038186
-0.004921
0.024709
0.047803
-0.027423
-0.011508
0.055316
0.024019
0.090224
-0.049266
0.086978
0.043303
0.036332
-0.009347
0.022127
0.022258
0.009681
0.020009
-0.000017
0.001814
-0.021496
0.007314
0.037333
-0.039724
-0.021360
0.030404
-0.027275
0.002433
0.028377
0.091662
-0.012443
-0.045449
0.037405
0.028215
0.104645
-0.038757
0.072371
-0.014264
0.082234
-0.028907
0.000779
-0.000136
0.057028
-0.069212
0.033578
0.040848
-0.025839
-0.023358
0.059252
0.020112
0.049857
0.110102
0.057132
0.061466
0.005231
0.035010
0.040060
0.016452
0.090939
0.182050
0.127756
0.066421
0.144622
0.166088
0.160596
0.156410
0.140684
0.212178
0.145501
0.292070
0.117915
0.156743
0.219664
0.159948
0.092545
0.100452
0.101267
0.108732
0.142125
0.081038
0.037014
0.179805
0.087669
0.039639
0.062282
0.014113
0.010046
0.014244
-0.013677
0.038741
-0.031231
-0.003895
0.007599
0.001921
-0.035074
-0.022298
-0.030117
0.006186
-0.011650
0.015274
-0.061246
-0.054493
-0.007701
-0.029757
0.152776
0.391081
0.614547
0.912728
1.353882
1.297070
1.383007
1.021367
0.690062
0.278489
-0.013154
-0.187399
-0.282658
-0.241204
-0.185543
-0.041142
-0.044478
0.021208
-0.006365
0.013548
0.026719
0.136872
0.007630
-0.048901
0.008322
-0.017572
0.078713
0.105759
0.056565
0.150413
0.071967
0.051684
0.172407
0.132364
0.155117
0.207807
0.226243
0.231006
0.234318
0.299762
0.343806
0.322790
0.318241
0.310670
0.376635
0.391243
0.324494
0.459044
0.345737
0.529724
0.414923
0.415064
0.451368
0.507588
0.486255
0.429194
0.484584
0.465713
0.496423
0.427682
0.414991
0.448477
0.435802
0.356400
0.399340
0.355784
0.325797
0.304810
0.402565
0.305759
0.315324
0.211526
0.197166
0.213598
0.187630
0.154960
0.090125
0.150777
0.064245
0.127740
0.107013
0.113364
-0.008386
-0.024753
-0.000872
0.020560
-0.000884
-0.027648
0.057717
0.039609
0.052881
0.003488
0.008761
-0.071491
-0.039604
-0.062385
-0.035361
-0.144228
-0.030587
-0.023353
-0.008851
-0.060344
-0.087920
-0.098165
-0.087264
-0.033859
-0.005648
-0.093554
-0.096500
-0.028227
-0.027554
-0.017838
-0.082438
0.000255
-0.043390
-0.033047
0.011609
-0.001772
-0.011478
0.029034
-0.020873
-0.006915
-0.071171
-0.090191
-0.033189
-0.025912
0.007545
-0.109532
-0.117957
0.090524
-0.035856
-0.034976
-0.062850
-0.037380
-0.057309
0.072358
-0.093240
-0.129894
-0.059064
-0.059392
-0.039143
-0.049217
-0.062346
-0.075746
-0.034439
-0.000199
-0.036432
-0.043705
0.010012
0.035950
0.003971
-0.015866
0.075202
0.010509
0.129634
0.082812
0.060128
0.115863
0.146752
0.031063
0.129381
0.157933
0.105672
0.139113
0.077775
0.184076
0.175878
0.129217
0.108797
0.099791
0.074864
0.085852
0.072617
0.051652
0.077079
0.083195
0.183096
0.086156
0.022215
0.094117
0.035657
-0.002317
-0.050301
0.068807
0.008532
0.054042
0.044040
0.018233
0.025138
0.060595
-0.040454
0.001745
0.006175
-0.005288
-0.045917
0.003022
-0.105561
-0.069846
-0.077434
0.036736
0.122313
0.336182
0.666702
1.009865
1.202800
1.443175
1.345729
1.002336
0.674914
0.313192
-0.038369
-0.137121
-0.258198
-0.173397
-0.106150
-0.073192
-0.033793
-0.059053
0.108402
-0.039714
0.074456
0.085679
0.041709
0.041651
0.121728
0.065329
0.039753
0.122496
0.071875
0.125610
0.133419
0.133752
0.050028
0.190830
0.184051
0.095477
0.264606
0.154102
0.343808
0.295418
0.403032
0.408152
0.340112
0.485235
0.357223
0.425940
0.458976
0.438173
0.490963
0.435480
0.426664
0.550538
0.574405
0.597425
0.529216
0.562456
0.560065
0.408290
0.549143
0.482218
0.451906
0.534850
0.378373
0.433590
0.443707
0.401867
0.418954
0.326813
0.364829
0.380237
0.304388
0.248249
0.312099
0.249301
0.254020
0.207338
0.274300
0.210361
0.271554
0.181291
0.152159
0.179231
0.077648
0.119729
0.060561
0.066208
0.204761
0.045987
0.116832
0.066097
0.099391
0.055946
0.020499
-0.008500
0.027805
0.023477
0.034033
0.085825
0.099035
-0.014312
0.020935
-0.007772
0.046908
0.054220
0.052024
0.055189
0.120192
0.154141
-0.052651
0.049182
0.036194
0.093817
0.015809
0.100327
0.129519
0.050778
0.076162
0.018894
0.093924
0.076070
0.017368
0.091874
-0.010537
0.113925
0.014698
0.020121
0.118380
0.014674
0.072713
0.152776
0.045113
0.071741
0.065862
0.125280
-0.050296
0.051537
0.014746
0.022900
0.139099
0.096913
0.019247
-0.023656
0.080888
0.103792
0.112805
0.141733
0.092357
0.047156
0.092095
0.103423
0.142757
0.181344
0.179597
0.133453
0.108989
0.110180
0.132647
0.122827
0.289832
0.229841
0.272122
0.308493
0.335757
0.304206
0.258143
0.197654
0.253072
0.304237
0.287439
0.223022
0.280081
0.188309
0.258425
0.144225
0.152782
0.200210
0.126393
0.165870
0.175038
0.157666
0.179354
0.100596
0.146614
0.084675
0.059908
0.061764
0.164195
0.080697
-0.013509
0.082886
0.127041
0.142403
0.019000
0.131276
0.071250
0.079966
0.091434
0.057254
-0.062368
0.145085
0.223280
0.433080
0.766746
1.164788
1.300926
1.493986
1.330562
1.183299
0.812071
0.394578
0.227065
-0.120734
-0.214216
-0.223527
0.013141
-0.050365
0.029985
0.095253
0.123465
0.151049
0.114602
0.069072
0.139840
0.041464
0.184661
0.127575
0.118159
0.091245
0.291630
0.186620
0.250795
0.232943
0.333481
0.228808
0.341122
0.297689
0.363445
0.380470
0.276535
0.376728
0.338340
0.476225
0.381811
0.485506
0.516480
0.600574
0.510955
0.597318
0.617065
0.531929
0.616025
0.530055
0.604728
0.534259
0.615662
0.610755
0.630325
0.587433
0.503102
0.586089
0.578878
0.620107
0.541309
0.566667
0.495126
0.470290
0.453712
0.495988
0.418770
0.473444
0.337193
0.382048
0.259367
0.347078
0.322793
0.364229
0.263625
0.238537
0.271381
0.316171
0.194872
0.248010
0.261708
0.143414
0.145102
0.181011
0.130379
0.064720
0.115307
0.151840
0.097567
0.120279
0.031711
0.110003
0.047406
0.111910
0.070716
0.090589
0.125002
0.121762
0.061947
0.045148
0.136812
0.115082
0.113563
0.032289
0.106941
0.130766
0.048239
0.080405
0.099495
0.099963
0.158462
0.142218
0.077873
0.082764
0.068217
0.121398
0.131727
0.167646
0.066773
0.106531
0.038481
0.092672
0.106284
0.063339
0.124300
0.105468
0.082265
0.052381
0.048074
0.093220
0.071066
0.043238
0.047051
0.089323
0.116317
0.113124
0.081165
0.120735
0.076286
0.133369
0.148104
0.076077
0.078570
0.144960
0.091903
0.145359
0.079142
0.143121
0.185717
0.034559
0.142726
0.203094
0.220410
0.173022
0.196173
0.104599
0.246157
0.264511
0.360137
0.248505
0.296559
0.186910
0.191979
0.306201
0.252164
0.196518
0.259098
0.225313
0.272990
0.189888
0.185204
0.235798
0.194290
0.157334
0.108768
0.107270
0.116910
0.116323
0.064711
0.136303
0.073724
0.058797
0.091681
0.056080
0.039798
0.070356
0.077801
0.100103
0.018730
0.028412
-0.003165
-0.057915
0.063702
-0.004464
0.022476
0.080039
0.090199
0.111247
0.241874
0.409482
0.691619
1.114879
1.343269
1.410867
1.322446
1.060708
0.747725
0.380227
0.063946
-0.186633
-0.151197
-0.118930
-0.179375
0.011919
-0.001776
0.061768
0.036726
0.112043
0.096321
0.082541
0.137028
0.057584
0.091730
0.059434
0.085278
0.122480
0.091294
0.160219
0.209400
0.179262
0.224213
0.150762
0.173042
0.195207
0.223387
0.242244
0.331966
0.317459
0.313676
0.332952
0.323771
0.386979
0.433088
0.454082
0.519494
0.472779
0.478749
0.516483
0.477638
0.516601
0.522514
0.483799
0.607710
0.451868
0.502657
0.426868
0.540940
0.370393
0.432507
0.537660
0.449820
0.475880
0.414808
0.372179
0.382960
0.289066
0.389643
0.379589
0.266463
0.309495
0.220682
0.320132
0.215764
0.206143
0.119249
0.148548
0.207017
0.155433
0.091254
0.112645
0.032757
0.098226
0.060820
0.117187
0.043072
0.031784
0.073080
0.060767
0.025343
0.036857
-0.008849
0.066150
0.022685
0.019104
-0.039056
-0.002068
0.012229
0.033739
-0.080736
-0.016175
0.010542
-0.040677
-0.043411
0.040220
-0.081423
-0.092315
-0.075909
-0.030435
0.005588
-0.040798
0.027157
-0.020818
0.017182
-0.019106
-0.088529
-0.102927
0.005884
-0.046433
-0.006447
-0.098303
0.021380
-0.058924
-0.118755
-0.032764
-0.050107
-0.063654
-0.036208
-0.052520
-0.047237
-0.037597
-0.001090
-0.021595
-0.042689
-0.129340
-0.000856
-0.007589
-0.088462
-0.026784
-0.024395
-0.032700
-0.100493
-0.088429
-0.047256
-0.027771
-0.085067
-0.043509
-0.032249
0.020624
0.043410
0.024436
0.002368
-0.018155
0.068391
0.126169
0.134848
0.073757
0.059810
0.096276
0.110823
0.105216
0.099356
0.101382
0.079275
0.110212
0.146746
0.172864
0.040271
0.104510
0.070269
0.028654
0.040838
0.034762
0.092436
0.027460
0.085036
-0.007498
0.029524
-0.060360
0.073183
-0.021746
-0.003483
-0.015095
-0.060136
-0.085999
-0.000280
-0.081853
-0.047631
-0.099130
-0.123934
-0.044874
-0.004290
-0.137170
-0.046642
-0.028028
-0.071931
-0.125101
-0.054372
0.024501
0.026585
0.307125
0.623108
0.922526
1.255825
1.312004
1.223384
1.016446
0.693154
0.240226
-0.022598
-0.300990
-0.284206
-0.377920
-0.185797
-0.165698
-0.110196
-0.067084
-0.103543
-0.076810
-0.109162
-0.031086
-0.080991
-0.084398
-0.009991
-0.010307
0.052166
0.043818
0.002423
0.077439
0.016212
-0.028381
0.151344
0.036791
0.114308
0.133720
0.075297
0.136058
0.135514
0.149193
0.248305
0.274100
0.267339
0.242318
0.326027
0.320762
0.369601
0.365366
0.295183
0.407531
0.370777
0.471908
0.356672
0.550258
0.399180
0.489338
0.465602
0.442751
0.464567
0.404808
0.484759
0.353987
0.382299
0.353328
0.361677
0.309416
0.327682
0.343083
0.379791
0.267058
0.236961
0.202944
0.183822
0.101433
0.148819
0.085629
0.119352
0.060655
0.021175
0.131358
0.129218
0.055265
-0.079073
0.002050
0.016691
-0.041675
0.033205
0.014923
-0.041617
0.020927
-0.052411
-0.114491
-0.031695
-0.039793
-0.091958
-0.189358
-0.040022
-0.158173
0.022186
-0.088928
-0.011257
-0.030728
-0.083983
-0.094141
-0.021971
-0.111888
-0.067473
-0.109591
-0.056273
-0.085982
-0.048025
-0.090940
-0.035393
-0.035338
-0.092687
-0.075711
-0.122451
-0.036086
-0.099183
-0.112926
-0.077356
-0.050848
-0.030533
-0.091905
-0.061145
-0.167153
-0.037893
-0.111133
-0.017516
0.001553
-0.108758
-0.116710
-0.082191
-0.046494
-0.100846
-0.155995
-0.037094
-0.115596
-0.051677
-0.033979
-0.034545
-0.135935
-0.050340
-0.043218
-0.123647
-0.020299
0.008290
-0.058439
-0.091160
0.000502
0.076152
0.002431
-0.019037
0.015536
-0.008728
-0.002082
0.096536
0.014413
-0.008554
0.062170
0.151236
0.060526
0.101064
0.072351
0.142085
0.120167
0.135554
0.154335
0.184070
0.055630
0.050879
0.080283
0.030321
0.051553
0.142801
0.090056
0.067441
0.025750
0.016549
0.037499
0.047006
0.063795
-0.017198
0.063520
0.040614
-0.043947
-0.020254
-0.094795
-0.022182
-0.038975
-0.066584
-0.111066
-0.109199
-0.140290
-0.049899
0.039030
-0.087678
-0.075188
-0.013546
0.017993
0.104074
0.378131
0.596671
0.988020
1.198636
1.384737
1.255145
1.068309
0.631105
0.372069
0.044999
-0.212042
-0.294032
-0.218234
-0.160909
-0.156711
-0.073285
-0.021342
-0.040149
0.064083
-0.004854
-0.026420
-0.033629
0.061170
0.044475
0.061649
0.079575
0.035347
0.124300
0.145508
0.073714
0.152929
0.182965
0.212148
0.222910
0.154009
0.200764
0.233933
0.280872
0.218137
0.261765
0.338154
0.265043
0.369554
0.401636
0.413659
0.390540
0.451465
0.454358
0.382802
0.496515
0.522597
0.460171
0.470518
0.496604
0.485906
0.474660
0.506303
0.462808
0.515045
0.405614
0.476462
0.446511
0.421388
0.417717
0.433952
0.422682
0.462892
0.319448
0.353913
0.291829
0.242230
0.260712
0.264119
0.191944
0.243560
0.166050
0.182578
0.180532
0.155321
0.168232
0.098831
0.091259
0.061083
0.090069
0.136660
0.110943
0.136998
0.078531
0.043329
0.007114
-0.080863
0.106807
0.056580
0.034130
0.095700
0.010588
0.053260
0.005834
0.075926
-0.032096
0.040015
0.031492
0.050531
-0.012985
0.076430
-0.028342
0.038607
0.023003
0.033464
-0.046349
0.006070
0.027385
-0.008915
-0.037941
0.051765
0.050997
0.037741
0.033007
0.068432
0.066525
0.133080
-0.025922
-0.048824
0.022099
-0.004817
0.078374
0.003970
-0.055219
0.094261
-0.039490
-0.035058
0.111751
0.095093
-0.016630
0.022322
0.083482
0.018739
0.047921
0.095295
0.001101
0.091374
0.016566
-0.001318
0.107241
0.066346
0.054260
0.125483
0.092209
0.138849
0.078182
0.091401
0.019181
0.189084
0.154295
0.068140
0.190689
0.090373
0.201847
0.198308
0.190131
0.242559
0.234967
0.224178
0.266321
0.162261
0.220965
0.229073
0.249514
0.205812
0.220277
0.172617
0.163377
0.177699
0.137387
0.166673
0.109242
0.129539
0.117966
0.082826
0.033321
0.052514
0.066008
-0.014576
0.090450
0.100751
0.002501
0.042842
0.017611
0.116781
0.069891
0.093365
0.061950
0.065166
0.078059
0.048652
0.016881
-0.015256
0.007750
0.097388
0.168957
0.420574
0.768625
1.033239
1.264992
1.372132
1.416271
1.126704
0.706595
0.415291
0.066304
-0.125670
-0.186433
-0.106350
-0.175401
-0.044340
0.000846
0.064437
0.037439
0.106510
0.053618
0.037045
0.115157
0.000715
0.101975
0.114342
0.082810
0.123528
0.161151
0.164865
0.183022
0.190912
0.264929
0.130470
0.260276
0.247616
0.221596
0.265150
0.296000
0.356076
0.408684
0.332136
0.421356
0.391784
0.464248
0.474799
0.525077
0.459478
0.566544
0.540595
0.544877
0.561097
0.547311
0.582423
0.683706
0.617079
0.596503
0.604879
0.613038
0.572638
0.580626
0.518232
0.489585
0.465090
0.519967
0.419712
0.461562
0.476164
0.415693
0.420156
0.331532
0.336641
0.351240
0.242460
0.278539
0.243650
0.347423
0.189963
0.242619
0.206169
0.089819
0.183593
0.083342
0.193787
0.153423
0.122763
0.098314
0.186663
0.078160
0.029579
0.048380
0.089277
0.142272
-0.042904
-0.038020
0.133470
0.018093
0.076200
0.038129
0.103782
0.014945
0.049376
0.000609
0.044172
0.056626
0.085541
0.101772
-0.008484
0.063933
0.046841
0.092133
-0.035097
0.109491
0.070602
0.008730
0.004519
0.009405
0.083528
-0.045760
0.095028
0.050800
0.130370
-0.036082
0.014957
0.013232
-0.007414
0.061346
0.029137
0.019028
0.018502
-0.122270
0.100279
0.018874
0.068157
0.050851
0.055819
0.060299
0.082445
0.018574
0.048589
0.044351
0.025094
-0.008095
0.041904
0.085709
0.010541
0.032053
-0.001069
0.089076
0.118322
0.138669
0.056694
0.123782
0.107517
0.171865
0.193332
0.092413
0.091808
0.109694
0.052765
0.107005
0.195050
0.188675
0.157180
0.203512
0.215272
0.159180
0.195640
0.212900
0.086227
0.203876
0.112879
0.080041
0.107449
0.114942
0.108804
0.099395
0.139332
0.104237
0.002734
0.141564
0.093470
0.031025
0.040489
0.079568
0.011921
-0.000987
-0.021269
0.012679
0.051768
0.016156
-0.019095
-0.058330
0.015057
0.019283
-0.041662
-0.004060
0.012191
0.022681
-0.023147
0.164878
0.364220
0.660874
0.959662
1.288754
1.330273
1.217086
1.037635
0.657449
0.313065
0.073110
-0.164301
-0.324383
-0.186163
-0.184980
-0.063542
-0.084448
0.011401
-0.085360
-0.086504
0.065508
0.015200
0.064025
0.010012
0.073958
0.029580
0.080337
0.034860
0.074139
0.186069
0.135048
0.094225
0.082130
0.066300
0.175140
0.076921
0.174949
0.153231
0.249647
0.233588
0.261352
0.409945
0.254656
0.311537
0.327775
0.391624
0.367126
0.427291
0.369386
0.476609
0.338871
0.399616
0.426992
0.450049
0.547613
0.382025
0.475847
0.444523
0.370273
0.430237
0.405238
0.404779
0.396944
0.376258
0.360350
0.386031
0.362819
0.377777
0.195303
0.275585
0.293766
0.244509
0.281609
0.152380
0.178395
0.162077
0.219331
0.139319
0.124031
0.078583
-0.034199
0.026228
0.024717
0.064946
0.024955
-0.040012
-0.022882
-0.024996
-0.007585
-0.041502
-0.087513
-0.032961
-0.101645
-0.060853
-0.061039
-0.071164
-0.037134
-0.094107
-0.072323
-0.080473
-0.083285
-0.053435
-0.106241
-0.058688
-0.139811
-0.043785
-0.001976
-0.057366
-0.070595
-0.071824
-0.112031
-0.046353
-0.099939
-0.115029
0.002892
-0.041358
-0.078885
-0.144199
0.029056
-0.126816
-0.063360
-0.055345
-0.144506
-0.053620
-0.026423
-0.061459
-0.097605
-0.069190
-0.095864
-0.129025
-0.075507
-0.101492
-0.145705
-0.120592
-0.070105
-0.111112
-0.178343
-0.107964
-0.085801
-0.119499
-0.124119
-0.097494
-0.061326
-0.162278
-0.052103
-0.102398
-0.023452
-0.016016
-0.142078
-0.050826
-0.058732
-0.012499
-0.037647
0.016776
-0.011639
0.021453
0.049352
0.043898
0.082419
0.148615
0.091067
0.070185
0.109488
0.087983
0.138585
0.097292
0.062602
-0.057277
0.047520
0.058730
0.106116
0.051637
0.015731
-0.034112
0.042032
0.054214
-0.049951
-0.096185
-0.047251
-0.040042
-0.068638
-0.089855
-0.128480
-0.102062
-0.022143
-0.042960
-0.032285
0.014251
-0.132685
-0.077404
-0.125164
-0.066648
-0.113533
-0.107792
-0.119011
-0.113541
-0.036302
-0.097883
-0.115167
-0.092603
0.174561
0.230595
0.665578
0.921474
1.172434
1.313377
1.133130
0.960719
0.568344
0.200329
0.012414
-0.317636
-0.361696
-0.336167
-0.250937
-0.103561
-0.169788
-0.054909
-0.094237
-0.075403
-0.136729
-0.044995
-0.032051
-0.051489
0.062304
0.032566
0.001092
-0.009647
-0.035053
0.081157
0.013511
-0.011462
0.095491
0.041148
0.062784
0.155373
0.132582
0.124513
0.233824
0.167122
0.227214
0.150720
0.287554
0.248891
0.256760
0.271288
0.347634
0.388255
0.284910
0.343876
0.385604
0.438037
0.391727
0.433402
0.441464
0.405963
0.475752
0.467787
0.368595
0.369448
0.349010
0.363862
0.365109
0.403722
0.275701
0.324800
0.347996
0.304690
0.305550
0.231952
0.283116
0.207039
0.153301
0.161749
0.174217
0.131648
0.083403
0.077174
0.059065
0.051387
0.029837
0.076320
0.044232
0.127843
0.076340
0.023064
-0.050897
-0.110731
-0.019044
0.006411
-0.025649
-0.120040
-0.068752
-0.048482
-0.093744
-0.029576
-0.114618
-0.103249
-0.125028
-0.086153
-0.009410
-0.098116
-0.089708
-0.110812
-0.051507
-0.097040
-0.079560
-0.076133
-0.081667
-0.062845
-0.023742
-0.053907
-0.048814
-0.096445
-0.125002
-0.030522
-0.119795
-0.054674
-0.072619
0.004799
-0.157877
-0.060750
-0.021204
-0.053495
-0.054344
-0.103486
-0.184082
-0.059722
-0.092870
0.018731
-0.139881
-0.012591
-0.074564
-0.063762
-0.149321
-0.063951
-0.061225
-0.131955
-0.032672
-0.064848
-0.134939
-0.104986
-0.002506
-0.080288
-0.041304
0.014011
-0.024130
0.022559
-0.060478
-0.027951
0.079731
0.009824
-0.010050
0.033082
0.046782
0.048276
0.069783
0.097166
0.151713
0.133775
0.129831
0.150891
0.084061
0.072876
0.098082
0.186954
0.111197
0.096129
0.225688
0.064091
0.129886
0.132021
0.072567
0.141987
0.041099
0.110063
0.068074
-0.049608
0.172636
0.056952
0.009664
0.068140
-0.030843
0.049265
0.008131
-0.000739
0.100841
-0.093609
0.028958
0.005595
-0.077667
0.014244
-0.056443
0.065145
-0.003901
0.034946
-0.024908
0.034707
-0.014189
0.058713
0.139820
0.330654
0.731412
1.025016
1.210650
1.409082
1.299192
1.041516
0.659155
0.351275
-0.031882
-0.199154
-0.299254
-0.211840
-0.160212
-0.137775
0.050691
0.035594
0.034767
0.077167
0.003394
0.022669
0.028558
-0.031987
0.085734
0.140235
0.030108
0.108967
0.087176
0.132295
0.244937
0.099546
0.187410
0.217509
0.226348
0.274228
0.241731
0.281734
0.308241
0.304656
0.358355
0.341322
0.293085
0.388269
0.322312
0.432771
0.471151
0.410490
0.604568
0.475853
0.448643
0.541072
0.468993
0.517628
0.565878
0.575158
0.553413
0.520374
0.545500
0.507649
0.486441
0.501880
0.414367
0.393649
0.429954
0.417088
0.343372
0.397387
0.364645
0.302153
0.275232
0.429272
0.234866
0.244698
0.248281
0.219714
0.180234
0.225509
0.175004
0.207311
0.145231
0.144576
0.151927
0.144128
0.035487
0.171755
0.155315
0.090394
0.115347
0.062489
-0.013349
0.050600
0.132141
0.087474
0.157030
0.148371
0.087814
0.097179
0.036484
0.097542
0.046509
0.095607
0.043940
0.018625
0.031469
0.019983
0.086823
0.053222
0.010341
0.066707
0.049052
0.086912
0.023820
-0.035796
-0.001313
0.007488
0.083633
0.102645
0.019025
0.033739
0.040334
0.098654
0.075754
-0.000697
0.107474
0.072760
0.130681
0.041960
0.061464
0.100750
0.086026
0.118549
0.138776
0.118107
0.003604
0.061298
0.037874
0.114745
0.072092
0.090617
0.054113
0.047351
0.076160
0.123927
0.061797
0.016816
0.150255
0.130854
0.272534
0.165074
0.104394
0.155398
0.223065
0.094515
0.195680
0.149813
0.191816
0.166309
0.254178
0.217748
0.183959
0.229516
0.198396
0.292910
0.276618
0.229958
0.260291
0.245268
0.205429
0.292895
0.212211
0.232274
0.219557
0.152067
0.227428
0.147486
0.153317
0.248594
0.127084
0.146025
0.157767
0.132538
0.099118
0.170249
0.142424
0.064951
0.075830
0.094994
-0.005055
0.139316
0.163533
0.121425
0.099176
0.076453
0.104044
0.021159
-0.023139
0.030311
0.071264
0.043853
0.249073
0.535579
0.738174
1.079669
1.352320
1.459641
1.340570
1.084333
0.742288
0.375332
0.060547
-0.137845
-0.138580
-0.209362
-0.077759
0.041836
0.064451
0.068533
0.065313
0.082173
0.134477
0.126322
0.092903
0.099746
0.152764
