-0.017675
0.003759
0.010750
-0.044072
0.038251
0.021354
0.042434
-0.087362
0.077841
0.019668
-0.001053
0.007388
0.124104
-0.024659
0.054777
0.031137
0.059982
0.129785
-0.037702
-0.000861
0.032990
0.033518
0.061103
0.082651
0.111508
0.029548
0.092100
0.016331
0.137485
0.154315
0.065325
0.122507
0.140607
0.265255
0.173098
0.132406
0.164660
0.204086
0.260091
0.144180
0.132043
0.249513
0.161644
0.106144
0.214048
0.108202
0.114675
0.076368
0.208793
0.145860
0.080910
0.087573
0.055568
0.126594
0.025080
0.054758
0.039236
0.042295
0.056937
0.051197
-0.018974
0.096385
0.019311
0.000474
0.036960
0.029890
0.071325
0.144479
0.056663
0.148526
0.071248
0.043215
0.049025
0.094774
0.285617
0.466631
0.725312
1.110454
1.340377
1.500000
1.371684
1.051523
0.829839
0.332414
0.120603
-0.164174
-0.153995
-0.234493
-0.061082
-0.009083
0.061693
0.128887
0.045662
0.115418
0.129927
0.059399
0.106938
0.050115
0.133727
0.132601
0.159898
0.202914
0.182071
0.189583
0.194014
0.229484
0.252813
0.227789
0.258193
0.211581
0.304473
0.306985
0.363384
0.343372
0.361900
0.377332
0.496796
0.438885
0.552643
0.524439
0.489959
0.533881
0.565753
0.512342
0.562503
0.601710
0.500845
0.612728
0.539169
0.527508
0.553342
0.474286
0.593496
0.570688
0.605541
0.566882
0.541811
0.496379
0.447322
0.544265
0.377766
0.436854
0.457773
0.397141
0.419373
0.303240
0.373281
0.314326
0.354927
0.245917
0.302411
0.265300
0.224595
0.263887
0.170762
0.165235
0.230728
0.167926
0.099579
0.076569
0.168209
0.115243
0.153839
0.191492
0.112034
0.120571
0.045410
0.066436
0.103206
0.075367
0.034416
0.101310
0.094628
0.105455
0.141457
-0.016457
0.038225
0.041605
0.162174
0.104046
0.058538
0.041175
0.090168
0.112294
0.094490
0.064180
0.108644
0.047959
0.010770
0.099949
0.126259
0.069911
0.006694
0.123015
0.220284
0.013766
0.119622
0.069786
0.087555
0.062483
0.100758
0.149353
0.107851
0.081692
0.064833
0.004533
0.094372
0.159844
0.102333
0.094549
0.081861
0.170513
0.129699
0.136347
0.071772
0.015775
0.085157
0.169893
0.017047
0.160375
0.140826
0.066755
0.083496
0.101605
0.112397
0.163024
0.203795
0.150315
0.187576
0.212525
0.317535
0.241677
0.218569
0.237868
0.225288
0.233642
0.217658
0.241031
0.265623
0.234817
0.340386
0.240346
0.210706
0.280913
0.265713
0.290501
0.212000
0.130559
0.202321
0.180834
0.138889
0.134817
0.122666
0.095150
0.112586
0.060976
0.146308
0.117937
0.109623
0.109564
0.028751
0.164940
0.002265
0.116132
0.073159
-0.001675
0.056620
0.122450
0.016046
0.039249
0.125403
0.152565
0.362510
0.622237
1.065001
1.335531
1.454560
1.426107
1.261556
0.844181
0.557625
0.171577
-0.005648
-0.069615
-0.143495
-0.087371
-0.036684
0.050888
0.007390
0.091000
0.060854
0.163299
0.141683
0.183877
0.097283
0.065439
0.134070
0.156845
0.158739
0.174416
0.244573
0.221608
0.212567
0.253707
0.197771
0.234443
0.315505
0.363253
0.335406
0.300967
0.320341
0.417187
0.365215
0.400804
0.374934
0.416022
0.503534
0.475558
0.484868
0.519771
0.611443
0.599528
0.496081
0.589092
0.574012
0.540888
0.536828
0.624172
0.597373
0.529720
0.518030
0.481547
0.616747
0.514019
0.516740
0.445964
0.423572
0.410496
0.469217
0.364379
0.419801
0.324193
0.258483
0.396945
0.304317
0.315393
0.210371
0.262748
0.151506
0.142753
0.195574
0.141646
0.162325
0.194939
0.126086
0.125251
0.137916
0.089693
0.119923
0.049876
-0.037365
0.042024
0.077225
0.073012
0.012282
0.008849
0.052504
0.041807
0.076138
0.006235
-0.040501
-0.008568
0.080195
0.023647
0.109394
0.035572
0.009452
0.064286
0.020185
0.040352
0.032522
0.015980
0.048784
0.031029
0.027268
-0.003683
-0.064623
-0.046668
0.052630
-0.055901
-0.019787
0.068805
-0.000130
-0.043722
-0.018633
0.024257
0.038958
0.040213
-0.001473
0.011377
-0.005678
0.027912
0.012044
-0.071990
-0.006855
0.057038
-0.051956
-0.025608
0.049905
0.101660
-0.003416
0.097658
0.080766
0.027033
-0.033165
0.085435
0.045130
0.083180
0.044294
0.085742
0.072962
0.057142
0.063172
0.123580
0.125262
0.139691
0.148962
0.164795
0.175655
0.177463
0.108536
0.220323
0.217380
0.095365
0.113371
0.169533
0.192994
0.214456
0.198270
0.120084
0.087925
0.117322
0.133930
0.116648
0.034207
0.080177
0.019551
0.104645
0.079842
0.142874
0.046022
0.038250
0.065991
0.038122
-0.026103
0.024242
-0.005619
0.090513
0.049414
-0.002425
-0.047736
0.017912
0.021035
0.059013
-0.083966
0.070333
-0.100486
-0.029317
-0.014278
0.178065
0.395864
0.721007
1.147560
1.254537
1.296392
1.147645
0.968864
0.569211
0.250773
-0.061031
-0.266847
-0.310409
-0.208335
-0.121792
-0.095103
-0.097232
0.014189
-0.037077
0.015325
-0.051190
-0.028300
-0.018838
-0.034536
0.034286
0.040634
0.125157
0.085596
0.142172
0.071701
0.095948
0.134251
0.182552
0.190734
0.063873
0.174910
0.234263
0.203179
0.299278
0.283374
0.199827
0.245990
0.334194
0.338822
0.322823
0.445245
0.440829
0.452026
0.371799
0.464907
0.408392
0.399286
0.440175
0.426711
0.555714
0.486158
0.456838
0.461131
0.441214
0.417190
0.455506
0.352785
0.360233
0.379606
0.422363
0.353443
0.345414
0.307986
0.266259
0.312497
0.253976
0.208614
0.209513
0.154982
0.189716
0.209486
0.095638
0.065025
0.145217
0.109005
0.103989
0.047473
0.046199
0.044941
0.047370
0.070763
-0.017158
-0.047203
0.025574
-0.043822
0.037826
-0.006006
-0.075607
-0.077438
0.018457
0.010974
-0.031565
0.019018
0.010796
0.027124
-0.050135
0.043383
-0.044355
-0.096260
-0.117493
0.003483
-0.020797
-0.086778
-0.078092
-0.054415
-0.084900
-0.083608
-0.090708
-0.011649
-0.023102
0.042793
-0.128727
-0.048710
-0.089563
-0.003950
-0.002910
-0.052763
-0.038357
-0.028326
-0.110720
0.011174
-0.038940
-0.080799
0.049611
-0.006658
-0.043907
-0.014858
0.009610
-0.135140
0.004980
-0.003118
-0.032213
-0.082699
-0.055783
-0.048682
0.009303
-0.048607
-0.049009
0.076403
0.004900
0.033841
0.069296
-0.006227
-0.008121
0.064307
0.053993
0.045474
0.126444
0.083217
0.033670
0.087983
0.158390
0.162325
0.111297
0.136554
0.132216
0.071309
0.201196
0.164817
0.173532
0.084546
0.120016
0.087732
0.148877
0.033610
0.111029
0.038479
0.123041
0.083618
-0.020447
0.080980
0.005510
0.021410
0.082081
0.016989
-0.004929
0.016731
-0.110847
-0.052738
-0.052099
-0.022330
0.071582
-0.012215
-0.000937
-0.074738
0.021373
-0.017167
-0.027738
-0.053622
-0.017818
-0.077563
-0.058839
0.080508
0.306611
0.601385
0.999936
1.211208
1.305101
1.304848
1.103620
0.724439
0.350874
0.080081
-0.171092
-0.341806
-0.222466
-0.182524
-0.121163
-0.041934
-0.001597
-0.000363
0.029738
0.016847
0.053771
0.056245
0.006269
0.080157
0.062577
0.043271
0.039440
0.109555
0.182017
0.121784
0.116636
0.133183
0.167819
0.135308
0.210485
0.224962
0.315095
0.227247
0.300014
0.347478
0.327831
0.267705
0.399409
0.493512
0.345271
0.387367
0.512178
0.481525
0.543124
0.531043
0.453779
0.493613
0.416065
0.434207
0.527194
0.580645
0.617277
0.464665
0.530322
0.471211
0.507189
0.458033
0.422898
0.493348
0.391842
0.345761
0.375723
0.360287
0.353414
0.310552
0.371317
0.310732
0.247161
0.190850
0.214008
0.215761
0.196426
0.199572
0.140365
0.110416
0.123762
0.033129
0.186642
0.053951
0.156014
0.037879
0.101368
0.094320
0.102213
0.007827
0.060435
0.080194
0.033566
-0.030742
0.035722
0.106938
0.013766
-0.043608
-0.010544
0.021082
0.055338
0.096974
0.014099
0.108936
0.084509
0.010056
0.047820
0.023737
-0.000872
0.052268
-0.013025
0.096642
0.126672
-0.052045
-0.042922
0.045496
0.036232
0.106950
0.036803
0.014831
0.045042
-0.013704
0.036538
-0.015221
0.049406
0.077269
0.037558
0.155031
-0.017120
0.019082
0.058269
0.010926
0.065788
0.099368
0.093238
0.051140
0.050869
-0.032543
0.037409
0.086183
0.116305
0.075463
0.075859
0.138050
0.065112
0.111254
0.157166
0.107364
0.168254
0.131470
0.163939
0.172261
0.104722
0.181435
0.180488
0.195267
0.216815
0.183793
0.182960
0.219220
0.294412
0.305542
0.160256
0.310017
0.258541
0.268975
0.317457
0.189310
0.218814
0.242055
0.203827
0.210158
0.200396
0.194640
0.220533
0.140469
0.032685
0.156505
0.061290
0.124631
0.132244
0.051516
0.030383
-0.031308
0.084303
0.100494
0.157240
0.133699
0.011060
0.055361
0.075651
0.114890
0.076325
0.126554
0.153618
0.136280
0.211224
0.433873
0.543682
0.957402
1.232746
1.448812
1.422235
1.270134
0.911203
0.648590
0.263610
-0.018681
-0.097709
-0.187923
-0.122730
-0.066389
0.104253
0.033124
0.134838
0.132397
0.063734
0.184421
0.115548
0.130334
0.150902
0.094763
0.145363
0.224634
0.109631
0.211452
0.273957
0.231852
0.231909
0.254291
0.256284
0.310299
0.282121
0.395877
0.357131
0.414934
0.451827
0.487390
0.471908
0.541127
0.517974
0.520970
0.523616
0.492439
0.508378
0.472451
0.657258
0.668062
0.589124
0.631062
0.677003
0.552969
0.605299
0.618660
0.565664
0.626756
0.575856
0.569684
0.506036
0.509134
0.530956
0.417974
0.486161
0.445048
0.430286
0.469095
0.454630
0.384335
0.371936
0.376803
0.325756
0.312620
0.239909
0.294544
0.199214
0.215399
0.207418
0.138237
0.314588
0.175780
0.129425
0.145933
0.115075
0.159733
0.141194
0.184816
0.108622
0.120812
0.054635
0.090947
0.069107
0.162879
0.082780
0.099065
0.093585
0.073539
0.165390
0.119977
0.161652
0.175314
0.129543
0.085446
0.008543
0.144517
0.047406
0.016455
0.088913
0.079610
0.105899
0.117978
0.057701
0.069766
0.078441
0.064168
0.134593
0.013346
0.085058
0.032920
0.081798
0.032137
0.031190
0.081777
0.156025
0.113220
0.145987
0.105321
0.109793
-0.002212
0.121262
0.027346
0.097772
0.063010
0.106331
0.163286
0.063297
0.049673
0.111246
0.108708
0.199517
0.095150
0.140447
0.123368
0.149229
0.115677
0.085664
0.192616
0.094490
0.257471
0.232534
0.075116
0.171802
0.212890
0.326135
0.217931
0.220918
0.249189
0.304827
0.210343
0.299104
0.288164
0.252037
0.225789
0.252710
0.311446
0.217410
0.277345
0.161236
0.225898
0.218296
0.208240
0.250013
0.136337
0.178192
0.208451
0.140831
0.141662
0.109885
0.118575
0.151290
0.095826
0.034590
-0.010348
0.117005
-0.016389
0.033258
0.081216
-0.012929
0.025380
0.061958
0.068446
0.060791
0.069878
0.068045
0.046642
0.202929
0.511926
0.946616
1.092193
1.302770
1.411441
1.381038
1.024419
0.705426
0.297914
0.003333
-0.162936
-0.098455
-0.177103
-0.060598
-0.029328
0.109943
0.070895
0.040191
0.090947
0.070579
0.120769
0.102380
0.121136
0.124676
0.090603
0.188515
0.141287
0.180179
0.166952
0.171366
0.237560
0.207596
0.246372
0.220373
0.165439
0.250368
0.240975
0.297864
0.326062
0.308205
0.293268
0.507713
0.394616
0.403293
0.473711
0.442198
0.426565
0.450204
0.498370
0.521174
0.455230
0.454924
0.446788
0.535149
0.546639
0.576805
0.510940
0.500787
0.487980
0.463773
0.506495
0.358465
0.367960
0.404612
0.481511
0.370797
0.374586
0.363798
0.372392
0.228895
0.186713
0.266648
0.231684
0.219612
0.207598
0.143377
0.204915
0.215795
0.142873
0.131467
0.148654
0.121902
0.131932
0.115461
0.043359
0.058352
0.058611
0.079637
0.005696
-0.055278
0.009286
0.093326
0.063172
0.002990
-0.006720
-0.046429
0.008922
0.010693
-0.034715
0.002142
-0.006070
-0.060861
0.001166
-0.026773
0.002687
-0.005224
-0.059630
-0.002354
0.020529
-0.019120
-0.101693
-0.161684
-0.059377
0.002619
-0.031583
-0.016815
-0.045877
0.051529
-0.030524
-0.036211
0.034473
-0.053758
0.089079
-0.041887
-0.003244
-0.077449
-0.039744
0.019738
-0.014829
-0.101141
0.015511
-0.076297
-0.036778
-0.047472
-0.066606
0.029650
-0.029178
-0.077492
-0.053599
-0.034568
0.011510
-0.008035
-0.010068
-0.010149
0.013646
0.014886
0.018746
-0.035790
0.010395
-0.028089
-0.011151
0.105376
0.024709
0.055217
0.143814
0.057046
0.040629
0.139923
0.125531
0.152190
0.102559
0.159134
0.150757
0.105537
0.071039
0.105064
0.068164
0.138621
0.018221
0.041862
0.095008
0.047996
0.018798
0.038280
0.089113
0.016981
-0.012217
-0.073936
-0.005391
0.012303
-0.091104
0.025086
-0.055970
0.032012
-0.027429
-0.074492
-0.039575
-0.036515
0.034474
-0.098435
-0.072750
-0.051288
-0.117200
-0.101157
-0.072283
-0.036881
0.136036
0.218243
0.541061
0.847777
1.132163
1.323144
1.233156
1.019418
0.737585
0.436090
-0.020232
-0.174878
-0.283956
-0.329178
-0.178836
-0.185295
-0.046274
-0.022352
-0.103032
-0.098948
-0.026417
-0.043794
0.010403
0.041774
-0.113714
0.036875
-0.009212
-0.068386
0.044462
0.037063
0.043429
0.080123
0.130842
0.106240
0.187313
0.068359
0.150197
0.203451
0.218438
0.343616
0.215686
0.323440
0.258147
0.395906
0.332965
0.399841
0.396591
0.412572
0.356660
0.407676
0.473800
0.422896
0.581165
0.457444
0.456706
0.451399
0.409831
0.459439
0.398248
0.421201
0.366339
0.343330
0.423063
0.285837
0.302841
0.314681
0.371572
0.317817
0.237067
0.267230
0.206825
0.202787
0.175944
0.124468
0.206868
0.182581
0.123932
0.124044
0.054182
0.096257
0.028859
-0.032202
0.016984
0.018242
-0.060333
-0.010026
-0.064997
-0.014104
-0.028470
-0.072066
-0.071583
-0.165581
-0.052794
-0.068300
-0.122382
-0.071469
-0.110335
-0.090126
-0.154067
-0.075107
-0.122924
-0.026426
-0.064092
-0.090129
-0.015788
-0.022013
-0.029431
-0.129688
-0.127041
-0.078147
-0.100143
-0.078484
-0.103679
-0.120582
-0.072730
-0.025320
-0.136611
-0.105963
-0.129153
0.005161
-0.095522
-0.134417
-0.045750
-0.075464
-0.093458
-0.083518
-0.093789
-0.091637
-0.132789
-0.081433
-0.028073
-0.039750
-0.085953
-0.074777
0.052632
-0.127606
-0.059130
-0.112896
-0.062828
-0.102550
-0.114363
-0.022085
-0.016963
-0.073451
-0.091616
-0.100492
0.033358
-0.077888
-0.016106
-0.057327
-0.056368
0.002216
0.017204
0.040623
0.028261
-0.000771
0.085024
0.109812
0.142563
0.110386
0.190178
0.195444
0.100573
0.118465
0.076658
0.094835
0.123873
0.095310
0.097187
0.073574
0.170356
0.190364
0.101742
0.033645
0.062629
-0.000538
-0.079929
0.025946
-0.013441
0.033201
-0.038544
-0.037584
0.009130
-0.018530
-0.051561
-0.014230
-0.094610
-0.018905
0.004427
-0.111286
-0.043413
-0.124250
-0.042002
-0.095889
-0.117753
-0.168026
-0.092223
-0.025637
0.178419
0.521704
0.731584
1.058793
1.336382
1.305519
1.157998
0.851142
0.480646
0.146745
-0.062573
-0.245512
-0.234418
-0.100001
-0.153963
-0.024685
-0.136432
-0.045193
-0.059532
-0.000114
-0.044906
-0.052279
0.064962
0.026777
-0.000005
0.072513
0.070418
0.078213
0.085491
0.037425
0.095303
0.130743
0.199944
0.172195
0.104091
0.189314
0.189108
0.218690
0.270710
0.269825
0.281853
0.326219
0.319388
0.331238
0.415275
0.343065
0.413628
0.363719
0.501729
0.377752
0.433073
0.484663
0.465025
0.485849
0.469769
0.402992
0.547437
0.416013
0.435429
0.441464
0.480350
0.384510
0.433382
0.456673
0.366594
0.397756
0.263900
0.362204
0.296523
0.268620
0.253421
0.280228
0.182210
0.225273
0.167519
0.189071
0.154612
0.188103
0.155395
0.136491
0.081042
0.140523
0.065166
0.065352
0.145857
0.068835
0.023594
0.022063
-0.024013
-0.034060
0.042377
0.020232
0.031439
0.068935
0.007452
0.026954
0.062088
-0.066345
0.039079
0.087405
0.064050
0.004113
-0.028086
0.023090
-0.057578
0.081179
-0.001628
0.087428
-0.011738
0.013333
0.017990
-0.013447
-0.002401
0.004476
-0.009304
-0.070772
0.007805
-0.013120
-0.065582
-0.057967
0.031010
0.011361
0.042694
-0.022759
0.065386
-0.028795
0.035493
0.059717
-0.025697
-0.004355
0.034496
-0.038769
0.073644
-0.012412
0.065659
0.081364
0.050923
0.098816
0.073498
-0.014214
-0.018003
0.007268
0.028794
-0.015977
0.042940
0.130242
0.010283
0.070520
0.069480
0.085329
0.139312
0.111030
0.151211
0.176841
0.122363
0.170828
0.136889
0.190288
0.222609
0.156850
0.277006
0.186577
0.193983
0.189077
0.206819
0.210704
0.158080
0.233389
0.220097
0.152535
0.182075
0.219444
0.170860
0.133909
0.113578
0.093740
0.039658
0.125834
0.140858
0.046850
0.118420
0.108145
0.124244
0.115188
-0.048481
0.027550
0.108392
-0.040358
-0.033009
0.070059
0.037769
0.130236
0.032252
0.011650
0.094627
0.017986
0.098124
0.225454
0.402210
0.785370
1.046329
1.348921
1.489170
1.324590
1.173217
0.682066
0.260919
0.014907
-0.110150
-0.198306
-0.156112
-0.175902
-0.073312
0.094775
0.051825
0.045483
0.041306
0.137209
0.111375
0.120409
0.067184
0.127753
0.180711
0.286604
0.107450
0.139880
0.226905
0.107497
0.221171
0.276904
0.206189
0.241358
0.271897
0.265408
0.286475
0.253713
0.320981
0.390081
0.277025
0.427338
0.483262
0.431807
0.468298
0.504087
0.512670
0.520446
0.476566
0.581725
0.592294
0.589400
0.558869
0.601144
0.488563
0.554915
0.534429
0.498692
0.559564
0.494984
0.500033
0.507822
0.467070
0.515229
0.423449
0.399329
0.379040
0.402787
0.368440
0.373268
0.352261
0.231114
0.243658
0.274604
0.306071
0.130980
0.217161
0.262854
0.114627
0.202743
0.203370
0.080201
0.197339
0.084260
0.060907
0.096224
0.019046
0.039698
0.104843
0.085246
0.036245
0.065255
0.056620
0.048988
0.100911
0.071198
0.057990
0.027976
-0.022954
0.005636
0.144750
0.011913
0.059613
0.043875
0.112221
0.035919
0.064345
0.088200
0.047633
0.027166
0.073859
-0.008963
0.080694
0.015996
-0.018685
0.049296
0.077297
0.049965
0.040026
-0.006474
-0.028951
0.004780
0.025493
0.001555
-0.056643
0.022281
0.086006
-0.003218
0.012858
0.011762
0.039380
-0.005271
0.103233
-0.006750
-0.101919
0.024090
0.054118
0.058493
-0.014276
0.079657
-0.084834
0.019070
0.052517
0.115499
0.039744
0.096676
0.133639
0.071499
0.088200
0.067984
0.138242
0.087361
0.068846
0.137872
0.118411
0.070359
0.172075
0.141552
0.127851
0.198019
0.105374
0.197529
0.234385
0.236133
0.230540
0.209131
0.200557
0.241078
0.165346
0.170362
0.169074
0.164080
0.079991
0.064628
0.095973
0.049531
0.052856
0.013938
0.063073
0.015078
0.006218
0.057221
0.001219
-0.009645
0.021705
-0.007553
-0.063655
-0.030097
0.028642
0.063504
-0.040318
0.092381
-0.058256
-0.078624
-0.087280
0.024065
0.116941
0.389722
0.523837
0.990906
1.226356
1.378136
1.422778
1.197072
0.850855
0.394264
0.087224
-0.056854
-0.187443
-0.246675
-0.204903
-0.085095
-0.038811
0.018866
-0.012529
0.040817
-0.017101
-0.004000
0.037186
-0.005452
-0.034926
0.066641
-0.005746
0.085359
0.024146
0.129392
0.105770
0.145673
0.204375
0.173197
0.116678
0.164726
0.289216
0.232259
0.281341
0.317208
0.359381
0.242192
0.341692
0.405287
0.444730
0.357886
0.385209
0.419002
0.443340
0.482202
0.422700
0.405008
0.507524
0.447697
0.469574
0.462024
0.414706
0.490654
0.457997
0.414623
0.460163
0.455463
0.415465
0.410070
0.429965
0.389047
0.276069
0.353366
0.283382
0.278140
0.192285
0.100466
0.208065
0.298579
0.174920
0.190937
0.148060
0.158576
0.064763
0.079677
0.086244
-0.003998
0.032756
-0.002591
-0.010917
0.044587
0.059417
-0.030975
-0.043684
0.034560
-0.000633
0.015013
-0.003336
0.005457
0.000952
-0.051645
-0.103823
-0.031624
0.024305
-0.093101
-0.076062
-0.044603
-0.046154
-0.043501
-0.027750
-0.057625
-0.137297
-0.061748
-0.054693
-0.066600
-0.050443
-0.060653
-0.122799
-0.016413
-0.167702
-0.009138
-0.093196
-0.037568
-0.012498
-0.070755
-0.101866
-0.075117
0.011810
-0.097619
-0.033648
-0.076509
-0.091671
-0.047079
-0.077621
-0.155300
-0.073169
-0.066461
-0.186220
-0.106414
-0.039119
-0.055048
-0.070518
-0.043184
-0.043010
-0.075999
-0.068501
-0.128866
-0.104091
-0.027004
-0.089106
-0.013325
-0.032364
-0.072456
0.024533
0.002700
0.067999
-0.019478
0.039081
0.023200
0.017427
0.059620
-0.036184
0.079715
0.101149
0.132407
0.065645
0.140638
0.063455
0.101279
0.089618
0.140178
0.061085
-0.012011
0.021223
-0.027407
0.045891
0.097088
0.022639
0.071900
-0.099231
-0.031467
0.017830
-0.038279
0.003796
-0.070055
-0.016574
-0.056723
-0.119368
-0.052041
-0.003243
-0.125225
-0.087290
-0.121241
-0.100702
-0.079347
-0.086879
-0.113433
-0.148262
-0.042953
-0.089962
-0.057478
-0.101452
0.012390
0.180733
0.436005
0.701999
0.976230
1.274158
1.246373
1.117652
0.901806
0.406856
0.057322
-0.088017
-0.282095
-0.312594
-0.350288
-0.179990
-0.178152
-0.149114
-0.085126
-0.026389
-0.084779
-0.062749
-0.055774
-0.089064
-0.036397
0.037594
-0.017888
-0.043639
0.089902
0.020164
-0.008177
0.038941
0.104314
0.134677
0.128586
0.057203
0.111994
0.217924
0.185096
0.231919
0.190743
0.240966
0.266680
0.249579
0.276428
0.321143
0.331529
0.309522
0.364819
0.382222
0.478247
0.374303
0.369103
0.444631
0.417631
0.459130
0.463748
0.385805
0.447331
0.404007
0.389412
0.425887
0.364026
0.343001
0.307931
0.424747
0.419026
0.265430
0.229206
0.230968
0.230051
0.134804
0.159071
0.133013
0.103635
0.081323
0.068025
0.049148
0.037796
-0.022497
0.053387
0.070297
0.035815
0.060580
0.031919
-0.053680
-0.107219
0.019861
-0.058789
0.002435
-0.079622
-0.051920
0.007833
0.005359
-0.023562
-0.092332
-0.106242
-0.075043
-0.066514
-0.122491
-0.066926
-0.182539
-0.114946
-0.043549
-0.127776
-0.103327
0.006486
-0.065520
-0.048780
-0.155038
-0.111666
-0.086558
-0.049646
-0.069519
-0.065414
0.000157
-0.099811
-0.082914
-0.170129
-0.042737
-0.029594
-0.035660
-0.125041
-0.027070
-0.092939
-0.129582
-0.051728
-0.009620
-0.147340
-0.144563
0.013304
-0.070910
-0.088764
-0.107623
-0.131053
-0.065928
-0.035390
-0.066147
0.022124
-0.037873
-0.028604
-0.108704
-0.077673
-0.055056
-0.080255
0.055566
-0.009077
0.014500
-0.023304
0.002264
0.030159
0.032739
0.065143
0.058887
0.049440
0.065654
0.111423
0.038196
0.128443
0.134755
0.120009
0.070351
0.009702
0.134523
0.139974
0.161367
0.043235
0.132310
0.082452
0.149627
0.125345
0.102914
0.077534
0.078193
-0.027851
0.065956
0.107967
-0.008068
0.039880
-0.051694
0.007623
0.017206
-0.083023
-0.040558
-0.065372
-0.040371
-0.018244
-0.024053
-0.042921
-0.089230
0.075058
-0.010497
-0.026211
-0.057569
0.033823
-0.033951
-0.083714
-0.008459
0.161812
0.278943
0.641153
1.045940
1.282032
1.360085
1.293731
1.128310
0.713409
0.289411
0.048790
-0.118002
-0.251552
-0.180265
-0.273093
-0.118371
-0.046760
0.031360
0.055131
0.029323
0.031811
0.027368
-0.015615
0.041969
0.054536
0.079855
0.043845
0.124499
0.009320
0.069178
0.166709
0.222176
0.153026
0.120979
0.187833
0.260060
0.316165
0.252913
0.230146
0.320449
0.361445
0.311335
0.445536
0.368651
0.410872
0.466275
0.418529
0.448311
0.392704
0.444019
0.506583
0.473859
0.508357
0.596682
0.543929
0.487063
0.563384
0.469782
0.523649
0.494533
0.504744
0.531964
0.443729
0.324018
0.485400
0.450906
0.310982
0.335587
0.444373
0.474010
0.352422
0.277972
0.326491
0.318670
0.221992
0.269898
0.165465
0.177335
0.187647
0.140860
0.144002
0.125589
0.089475
0.056512
-0.014348
0.093926
0.083414
0.180176
0.001283
0.079753
0.066809
0.002094
0.004307
-0.030604
0.086919
0.023124
0.044528
0.044350
0.063002
0.032475
0.131635
0.023636
0.025326
-0.104532
0.081058
-0.004686
-0.069347
-0.002295
0.055162
0.027135
0.018375
0.089145
0.050771
0.051420
0.088709
-0.015438
0.014191
0.005619
0.029284
0.014116
0.124118
-0.019687
-0.038464
0.041203
-0.004567
0.031828
0.002686
0.042519
0.000461
0.039321
0.045797
0.043810
0.057929
0.072944
0.154568
0.000994
0.106777
0.092389
0.098420
0.104026
0.065329
0.059352
0.009505
0.089205
0.038498
0.036785
0.109709
0.064830
0.143501
0.092810
0.204470
0.076565
0.131592
0.079653
0.192311
0.180911
0.163509
0.234982
0.210486
0.171922
0.160631
0.271067
0.241499
0.311447
0.228306
0.262536
0.271421
0.251575
0.158339
0.285856
0.251579
0.196903
0.259955
0.172719
0.183667
0.102728
0.100945
0.150988
0.179431
0.105785
0.051377
0.155417
0.096313
0.081934
0.126321
0.007907
0.117696
-0.002544
0.041172
0.106184
0.061071
0.125178
0.114070
-0.032209
0.075955
0.056975
0.103752
0.203801
0.390872
0.563532
1.091322
1.259458
1.348974
1.390377
1.267830
0.877020
0.567344
0.240969
0.007348
-0.146850
-0.134586
-0.080317
-0.001116
0.024057
0.013135
0.023003
0.134539
0.071735
0.084851
0.113726
0.144740
0.137915
0.214082
0.155900
0.147296
0.179632
0.223735
0.187797
0.299283
0.269042
0.256617
0.326752
0.313770
0.281016
0.315457
0.357420
0.427368
0.370374
0.400702
0.398948
0.516478
0.441881
0.494832
0.486426
0.492894
0.577538
0.540734
0.548375
0.499022
0.563876
0.658944
0.600431
0.631350
0.564736
0.550104
