-0.059913
-0.574275
-0.096140
-0.195593
0.378884
0.541094
0.049376
0.228191
0.116922
-0.236108
0.291027
0.385247
0.300223
-0.538334
0.448837
0.383974
0.043863
0.050107
-0.012600
0.495122
0.237110
-0.092395
-0.804439
0.019121
0.277075
-0.790763
0.214088
0.201229
-0.052347
-0.334234
0.293776
-0.485542
0.397071
-0.187376
-0.166425
0.152253
0.292321
0.993057
-0.058095
0.054269
-0.153463
0.558470
0.035498
0.075392
0.653600
-0.019911
-0.602916
-0.050546
0.065494
0.649200
-0.510559
0.488168
-0.168041
0.179348
-0.002435
-0.013557
0.574478
0.182888
0.173286
0.530475
-0.254387
-0.279271
-0.460987
-0.097761
0.037147
-0.368298
0.056111
0.172683
-0.133749
-0.222633
0.299018
-0.488078
0.732678
-0.393143
0.932331
0.398077
0.480567
1.059356
0.281729
0.431732
0.271578
-0.225275
-0.435876
-0.184821
-0.043371
0.143218
0.604534
0.128659
0.213316
0.297375
-0.041069
0.484084
0.265920
0.518919
0.058045
0.508082
-0.316249
0.116380
-0.284294
0.270039
0.546799
-0.740770
-0.229201
0.846728
-0.056725
0.253134
-0.089223
0.304821
0.173936
-0.272229
-0.534549
0.052813
0.299084
-0.042293
-0.572664
-0.130853
0.055536
0.564793
0.434799
0.608874
0.828028
0.090109
0.723219
-0.676048
-0.029821
-0.155725
0.243049
0.627659
-0.005228
0.782208
0.370437
0.740924
0.424761
0.369216
0.321396
0.524969
0.517218
0.072203
0.530680
0.698724
0.054133
0.852301
-0.264063
-0.052307
-0.183210
-0.268067
-0.064242
0.131826
-0.270122
-0.193503
-0.004420
-0.406491
0.525807
0.039660
-0.204814
0.264687
0.922922
-0.191139
0.096616
0.096733
-0.669493
-0.044595
-0.114074
0.493501
-0.279598
-0.170218
-0.083417
-0.372935
-0.216161
-0.105510
-0.011443
0.628651
0.146577
0.199688
-0.275757
0.019027
-0.247221
-0.330095
0.622036
0.435823
0.270836
0.871906
-0.482309
0.080834
-0.227485
-0.290469
-0.490332
0.370432
-0.186509
0.150526
-0.257170
0.234180
-0.106374
0.146800
-0.594895
-0.222603
0.237116
-0.144206
0.740937
0.284163
0.459660
0.489578
0.096728
-0.241546
0.162218
-0.101753
0.184339
0.188133
0.526517
0.703243
-0.023245
-0.580258
0.093035
0.176704
0.552518
-0.212640
0.191831
-0.020337
-0.170680
0.547331
0.800119
-0.147908
-0.239725
-0.240631
-0.138824
-0.432386
-0.379967
-0.276308
0.534911
-0.033325
0.211533
0.767307
-0.303692
0.026015
0.424848
0.323758
-0.746910
0.194925
0.318164
0.126291
0.282921
0.147374
-0.128165
-0.378204
0.186447
-0.890852
0.355146
-0.345257
-0.523194
0.517459
-0.067500
0.452016
-0.091164
-0.446436
-0.203269
-0.097704
0.228102
0.043648
-0.075653
0.266165
-0.183775
-0.438351
0.519721
0.062698
0.033319
-0.166570
0.155028
0.222523
0.909071
0.116781
0.238026
0.561477
0.169963
-0.298231
0.239856
0.406945
-0.054616
-0.213017
0.112105
0.148764
0.698106
0.280486
-0.514363
0.664347
0.424927
0.042636
-0.019983
0.573723
0.148339
0.089077
-0.244370
-0.700935
-0.323011
0.200582
0.078140
-0.351834
0.164062
0.517952
-0.043385
0.033562
-0.202099
0.124650
0.248421
0.291312
-0.122897
-0.407556
-0.460610
0.226266
0.641198
0.591047
0.384193
0.645560
0.343082
0.194287
-0.081175
0.465332
0.186386
-0.075376
0.345112
0.336343
0.408379
0.456249
0.648208
-0.115346
0.026912
0.147765
0.109739
0.773279
-0.333230
0.638721
-0.005968
0.238744
0.560039
0.129613
0.320723
0.421361
0.165725
0.550615
0.622725
0.092804
0.372957
0.209547
-0.095519
-0.164315
-0.254646
0.034237
-0.014511
-0.368635
0.177369
1.016329
-0.057015
-0.129254
0.012275
-0.197009
0.046662
-0.664898
-0.284257
0.224038
-0.224781
-0.658674
-0.204587
-0.416649
-0.506042
0.381332
0.062202
0.502889
0.036749
0.390408
0.535375
0.421769
0.230567
0.423961
0.149596
-0.316930
0.131341
0.378252
-0.299155
0.363999
-0.350273
-0.119006
-0.529484
-0.398668
0.249822
-0.615964
-0.680197
0.249546
0.034465
-0.372394
-0.261222
0.179066
0.014880
-0.019415
-0.172730
-0.351536
-0.226854
0.294973
0.405806
-0.055126
0.063934
0.467065
0.000757
-0.348838
-0.306067
-0.412547
-0.085081
-0.047276
0.391823
-0.244281
-0.050058
0.418168
-0.325682
-0.006255
-0.523744
0.175291
0.700829
-0.036896
0.432976
-0.095848
-0.421428
0.400874
-0.010572
0.171929
-0.072329
0.287249
0.477392
0.040901
0.007590
0.305883
-0.536941
-0.088226
0.331295
0.085247
0.345832
-0.114396
-0.145081
0.212030
0.193348
0.804676
0.454165
0.901286
-0.253816
-0.730700
-0.154980
0.006214
-0.163116
-0.946059
0.606559
0.010417
-0.082545
-0.152935
0.683871
-0.447260
-0.613989
0.402748
0.141157
0.687667
0.371749
0.156142
0.084278
0.472850
0.989721
0.280691
0.747474
0.853008
-0.012218
0.019719
0.518450
-0.232062
0.476614
-0.441809
0.409335
-0.432834
0.160337
-0.008616
0.028789
-0.536486
0.468774
-0.186690
-0.133861
0.334925
0.489184
0.382609
-0.548722
0.033627
0.489206
0.099622
0.052299
-0.191717
0.073483
0.045558
0.375972
0.217713
0.490642
-0.208969
-0.021449
0.226421
-0.455452
0.384546
0.596629
0.086810
-0.718378
0.400325
-0.429908
-0.271907
0.335378
0.673166
0.056326
-0.088826
-0.157988
-0.155981
0.127273
0.407297
-0.223566
0.087475
0.533060
-0.489998
0.246838
0.077948
0.075453
0.115406
-0.058239
-0.249376
-0.086814
-0.301496
-0.020350
0.138206
-0.031780
0.740823
0.690315
-0.053559
0.053968
-0.377523
0.565894
0.631609
-0.306821
-0.361683
-0.641820
0.194858
-0.456894
0.389096
-0.285764
-0.346284
-0.010381
-0.077710
0.374967
-0.114511
-0.098248
-0.232243
-0.184534
-0.563727
-0.474808
-0.398997
0.320313
-0.320050
-0.258052
-0.446237
-0.257922
-0.239175
0.388224
0.250552
0.043352
-0.233501
0.671300
-0.309304
0.151854
0.167449
0.112535
-0.559466
-0.499891
-0.342343
0.358056
-0.194446
0.619909
0.073855
0.240285
0.062548
0.323308
0.572114
0.110057
0.104111
0.561517
-0.055097
-0.145916
-0.359313
0.313855
0.167090
-0.262321
0.493035
-0.983682
-0.566309
0.166532
-0.010064
-0.225287
0.707223
0.053167
-0.145170
0.673492
-0.324406
-0.209793
0.030243
0.571476
0.494448
-0.553156
-0.068276
0.574958
0.739722
-0.087646
-0.484575
0.752580
-0.370362
-0.461085
0.178776
0.112992
0.545184
0.528796
0.315976
0.066546
0.219439
0.022757
-0.256701
-0.091322
-0.289517
-0.016599
0.175258
0.207795
0.059763
0.030897
-0.043244
0.136657
-0.266578
-0.204209
0.126590
0.101249
0.572406
-0.079166
0.344131
-0.132565
-0.385291
0.016364
-0.312243
0.109871
-0.701339
0.281521
-0.424288
0.123521
0.229292
-0.406572
0.335872
0.065723
0.106178
0.383448
0.431945
0.821389
1.045218
0.293020
0.486236
1.086435
0.688904
-0.666198
0.251013
-0.379899
0.198336
-0.098815
0.092810
0.129759
-0.659248
-0.100495
-0.353695
-0.049432
0.206075
-0.425674
0.183584
-0.013860
-0.021214
0.172000
0.448927
-0.011481
-0.423713
0.213656
-0.217374
-0.199047
0.354609
-0.137436
0.976603
-0.100419
0.025093
0.005349
0.400358
0.043326
0.290276
0.127550
-0.727800
0.294490
-0.023196
0.197309
0.559253
0.619479
0.208292
0.126999
0.304489
-0.096927
0.066426
0.760418
0.742481
0.367278
0.798210
-0.503892
0.000875
0.616484
0.775364
-0.082160
-0.429707
0.065416
-0.134612
-0.176233
0.603678
-0.172007
-0.103626
0.618339
-0.039725
-0.625720
-0.412253
0.291337
-0.205306
-0.108230
0.515209
1.064571
-0.041339
0.010796
-0.540773
0.040054
-0.172092
-0.198566
0.390069
-0.016629
-0.567106
-0.709832
-0.162414
-0.506141
0.410442
0.011747
0.573607
0.078152
-0.192109
0.260574
-0.279401
0.114996
0.306714
-0.464327
0.243487
0.035721
-0.261208
-0.259073
-0.556281
-0.553244
0.432405
-0.008105
0.395601
0.121091
-0.139833
-0.607300
0.487553
-0.035322
-0.292467
-0.468838
-0.197572
-0.036036
1.006857
0.199866
0.693781
0.691841
0.451374
-0.585112
0.136659
-0.796550
-0.130065
0.436967
-0.280305
-0.252149
-0.004839
-0.387811
0.224409
-0.209464
-0.352368
0.118763
0.565654
-0.582060
0.005367
0.067215
-0.121087
-0.081796
-0.170080
-0.034336
0.197621
0.243067
-0.435060
0.200737
-0.072966
0.478137
0.328658
-0.363792
0.345103
-0.359756
0.639337
-0.157219
-0.673709
0.036183
0.348876
-0.209862
0.109179
-0.056051
0.284424
0.475347
0.302681
-0.086043
-0.523100
0.000844
0.292327
0.260656
0.438358
0.077317
-0.190823
0.199001
0.524909
0.115416
-0.193620
0.098906
-0.011319
0.673320
0.299816
-0.023070
-0.392394
-0.139059
0.473093
0.138300
0.332999
-0.481784
0.107595
-0.455840
-0.044573
-0.115517
-0.210431
-0.035182
0.540396
0.050428
0.703812
0.191202
0.517894
0.165121
0.139643
-0.359960
-0.315947
0.205658
0.808931
0.087024
-0.199159
0.155095
-0.132562
0.048028
-0.811811
0.592593
0.031615
-0.069795
0.022662
-0.048612
0.016635
0.001380
0.042567
0.458707
0.029430
-0.675643
0.191982
0.135924
-0.252443
-0.286453
-0.153127
0.133065
0.433572
-0.061672
0.585819
0.683997
0.221084
0.590819
0.466809
0.389576
-0.258112
0.314630
0.464921
0.052865
-0.171964
0.104808
0.270459
0.834751
0.866820
0.456893
0.526208
0.296190
-0.032966
-0.269907
0.669401
0.133196
0.467689
-0.090114
0.559243
0.192087
0.223475
-0.011593
0.441683
0.498321
0.539267
0.214739
-0.366362
0.092239
0.608499
0.190907
0.243045
0.651617
-0.328802
0.692929
-0.146285
0.343693
-0.021149
0.127590
0.249882
0.428016
-0.258556
0.397435
0.315166
-0.276782
0.277219
0.606655
0.441546
0.222622
0.129905
0.081959
0.584504
-0.393216
0.176490
0.506764
0.917159
-0.149397
-0.598984
0.451579
0.021441
0.276179
0.111427
0.442578
-0.324483
-0.427000
0.289013
-0.046782
0.040559
0.014783
-0.187780
0.029890
-0.309197
-0.017897
0.365135
-0.249732
-0.039371
0.133255
0.036795
0.642757
0.678669
0.045720
-0.080515
0.431181
-0.441479
0.864404
0.310278
-0.329574
0.450063
-0.005462
0.111776
-0.327718
-0.003949
0.404061
-0.221756
0.309851
0.635122
0.233465
0.217967
-0.092803
0.078982
0.711538
0.484117
-0.083410
-0.665441
0.341339
0.334766
0.501556
0.670744
-0.317519
-0.378555
0.066960
0.498268
0.296355
0.392058
0.227806
0.031758
0.890279
-0.260758
-0.115563
0.237291
0.592026
0.347694
-0.159453
0.472181
-0.146443
0.028835
-0.280748
-0.033379
0.103623
-0.009907
0.211192
-0.034396
0.658299
-0.057103
0.387195
-0.158042
0.428590
1.048557
-0.117928
0.051022
-0.448813
0.351887
-0.030051
-0.402432
-0.150966
0.495809
-0.455959
0.180725
0.311226
-0.426926
0.349536
0.370489
0.396284
0.717149
0.591226
1.011353
0.372693
0.073028
0.406340
0.666224
0.417994
-0.083617
0.211157
0.025976
0.017822
-0.153212
-0.698640
0.472058
0.288297
-0.431144
0.158225
0.645074
0.491578
0.630465
0.333264
0.148362
1.103640
0.293290
0.165092
0.017733
0.188352
0.299345
0.108462
0.375012
0.546791
0.070519
0.100501
0.136561
0.289775
-0.081829
0.562713
0.846255
0.378971
-0.595754
0.300055
0.250532
0.317647
0.011781
0.296043
0.385987
0.673872
0.166463
0.043114
0.033734
0.003935
-0.373575
0.161931
0.042774
0.705974
0.297821
0.558734
-0.412368
-0.095664
-0.155810
0.775948
-0.053030
0.390905
0.232172
0.326518
-0.420405
-0.022189
0.144037
0.145179
0.371811
0.146342
0.680008
0.161910
-0.205118
-0.140237
-0.011688
0.143724
0.978999
-0.003589
0.273675
-0.128942
-0.333032
0.122026
0.489172
-0.184896
-0.651686
0.199832
0.251206
0.029857
0.502148
0.430198
-0.154674
0.390102
0.435862
-0.032640
-0.616375
-0.154217
-0.199155
0.407590
0.025910
-0.204631
-0.049806
0.427333
-0.003645
0.617850
-0.297330
0.270521
-0.485143
-0.235144
0.404258
-0.801261
0.012679
-0.224999
-0.260347
-0.366210
0.031426
-0.576195
0.012883
0.260458
0.344026
0.356247
-0.169320
0.528309
0.286402
-0.574739
-0.076459
0.688153
0.261669
0.153866
-0.029861
-0.451040
0.334659
0.201498
0.044932
0.161511
0.375477
0.102976
-0.321489
-0.016453
0.159053
0.255489
0.549682
0.313374
0.019113
0.133618
0.140139
-0.549294
-0.332873
-0.193589
-0.163468
-0.124114
0.536281
-0.062100
-0.047511
-0.254116
-0.139648
0.502392
-0.301249
-0.088829
0.486773
0.055461
-0.778728
0.241869
0.419479
0.191125
0.643837
0.462598
-0.197777
-0.131171
0.204595
0.668333
0.050339
-0.506275
0.066286
0.106825
0.335255
0.069805
0.091098
-0.270235
0.346841
-0.725154
0.058136
0.212560
-0.074641
0.255600
0.229092
0.064170
-0.013133
0.318946
0.636096
0.253399
-0.027589
0.385373
0.941101
0.276137
1.145531
0.608860
0.347043
-0.175816
-0.077117
-0.511531
-0.001803
-0.091911
0.503823
-0.050425
0.418046
-0.370314
-0.171990
-0.490876
0.138839
0.390923
0.127864
0.386575
0.359091
-0.049071
0.890944
0.246731
-0.228643
0.409515
0.106561
-0.284330
-0.199767
0.183156
0.483903
0.418817
0.249400
0.384430
-0.177677
0.306795
-0.155778
0.129137
0.492705
0.602987
-0.120423
0.060390
-0.358319
0.307395
0.281980
-0.372681
-0.168104
0.817479
-0.052118
-0.044663
-0.335905
-0.586196
0.664280
-0.065203
-0.169925
-0.432964
0.629698
-0.081281
-0.029348
0.185823
0.125822
0.078156
0.157760
0.526359
-0.301640
-0.326527
0.318707
-0.266994
-0.249176
-0.122527
0.727081
-0.449312
0.389075
-0.638555
-0.176068
0.267938
-0.004052
-0.124019
-0.257228
0.122608
0.769041
0.020829
0.345763
-0.280929
-0.546132
-0.370230
0.450326
-0.021439
-0.171491
-0.099705
0.008807
-0.826171
-0.357434
0.215701
0.551515
0.301311
-0.155363
0.316383
0.005710
-0.529632
0.369662
0.488815
-0.140840
-0.723638
0.084706
-0.499915
0.247754
-0.018302
-0.007211
0.250749
-0.261898
-0.286201
-0.076415
0.454253
0.336255
-0.131445
0.226470
-0.603254
-0.188144
0.535118
-0.047536
0.658773
-0.392662
0.169707
-0.263221
-0.502114
0.395777
0.276669
0.329350
0.074534
-0.012781
0.154107
-0.251857
-0.308904
0.233156
0.404036
-0.170482
-0.023409
0.378313
0.616635
0.453178
0.026452
-0.156981
-0.575334
-0.091601
-0.076871
-0.558772
0.104389
-0.301733
0.447961
-0.669046
0.501110
-0.554636
0.045949
-0.086590
0.416795
0.095833
0.072829
0.559930
0.002496
0.367520
0.318565
0.280649
0.082074
0.368625
0.565194
0.260565
0.244038
0.091953
0.062977
0.303950
0.096433
-0.638298
-0.459114
-0.478356
-0.241544
-0.223868
0.074204
-0.311744
-0.053790
-0.219819
0.616433
-0.038154
0.046368
-0.535583
0.801178
0.015024
0.047436
0.035918
0.429579
0.115076
0.634867
0.605907
0.491936
0.898886
0.888940
-0.087649
-0.313945
-0.905109
-0.130588
-0.069949
0.358825
-0.617221
-0.303647
-0.460221
-0.864951
0.496959
-0.054462
0.250577
0.164620
-0.035954
-0.382031
0.091979
0.093301
-0.108807
0.058841
-0.413558
-0.011807
-0.054690
-0.598840
0.223581
0.096756
-0.213939
0.528001
-0.064823
0.704709
-0.363514
0.332975
0.307303
0.297705
0.468510
0.229523
0.137447
1.056024
-0.028400
0.128912
0.274020
0.950053
0.193925
0.147586
0.136974
0.983819
0.304535
0.018558
0.155922
0.508379
0.300880
0.442836
0.181024
0.385852
-0.048185
-0.032801
-0.085998
0.350963
0.270296
-0.189766
0.284819
0.511523
0.104733
0.522102
-0.016894
0.046190
-0.174212
-0.218400
0.133270
-0.072789
-0.205057
-0.149232
0.250701
-0.055147
-0.026589
0.229808
0.419267
0.099596
0.098979
-0.315387
0.705007
0.088852
-0.869623
-0.157845
0.626302
-0.138656
-0.598479
-0.118235
0.187326
-0.274547
-0.103744
0.220073
0.219690
0.054708
0.018451
0.175801
-0.145826
-0.245999
-0.280756
-0.031734
-0.064068
0.018846
0.300013
-0.170922
0.300187
0.315715
-0.276622
-0.424956
-0.873355
-0.240266
0.149389
0.078451
-0.088910
0.136895
-0.025047
0.256276
-0.083498
-0.527907
0.627405
0.223576
-0.320734
-0.305983
0.342873
-0.219665
0.464235
0.094220
-0.139091
0.076876
0.549471
0.035513
-0.262779
0.242340
0.081913
0.185221
0.649853
0.369738
-0.111536
-0.366994
0.208510
-0.096575
0.547035
0.234494
0.149752
0.219264
-0.416792
-0.095943
0.630377
0.259371
0.015104
0.543959
-0.585174
0.200888
-0.287398
-0.847977
-0.094979
-0.159767
-0.062329
-0.234658
0.006171
-0.125886
0.158764
0.266622
-0.069730
-0.105145
-0.181690
-0.374736
0.494611
-0.220292
-0.415054
-0.217181
-0.420989
-0.123981
-0.201985
0.218761
-0.540634
0.322352
0.332314
-0.030464
0.377069
-0.051853
0.070069
0.337192
-0.196422
0.354243
0.237535
0.685296
0.882723
0.748053
0.716256
1.061240
0.669070
0.865670
0.220012
0.046276
0.402304
-0.395570
-0.369223
-0.569220
0.125875
0.117930
0.114406
-0.140197
0.186104
0.590252
0.373619
-0.283547
-0.623273
0.158903
0.079653
0.584537
0.211416
0.446755
-0.715770
-0.028707
0.091431
0.030738
0.118182
-0.056785
0.432160
0.295532
-0.242776
-0.258404
0.351745
0.350788
0.376555
0.249514
0.072089
-0.226073
0.276880
-0.109096
0.563305
0.426720
0.776502
0.176531
-0.260070
0.178052
0.077290
-0.409663
0.210119
-0.639522
0.599090
0.712848
-0.132291
-0.370086
-0.240696
0.718763
0.471834
0.213933
0.029344
0.255562
0.301287
-0.005382
0.617758
-0.324863
0.334381
-0.033756
-0.124535
0.424477
0.158980
0.203082
-0.061357
0.112124
0.427416
-0.217907
0.599017
-0.362679
0.393631
0.071068
-0.296008
0.130877
-0.027406
-0.191600
-0.418308
0.423944
0.071443
-0.425444
0.038633
0.139274
-0.318294
0.812055
0.127776
0.139798
-0.030896
-0.648107
-0.166762
0.119995
-0.041515
0.620078
0.046530
-0.029407
-0.200239
0.618615
-0.451745
-0.137239
0.474619
0.006100
0.275087
-0.127003
-0.143386
0.777256
0.075405
-0.080061
0.440489
-0.089295
0.515017
-0.340669
0.108700
-0.152043
-0.046518
0.003865
0.211655
0.256798
0.449986
-0.232359
0.172844
-0.327303
-0.794665
-0.068049
-0.106484
-0.425841
0.133235
-0.348177
-0.437045
-0.056052
-0.349525
0.591813
0.110007
0.463978
0.370491
-0.330557
-0.487914
-0.040850
0.659314
-0.159103
-0.116540
0.065600
-0.158059
-0.233052
0.381408
-0.462198
-0.031955
0.740831
-0.100928
-0.604042
0.249066
-0.373676
0.026586
0.184855
0.131821
0.080244
-0.103595
-0.498776
-0.256300
0.023947
-0.043033
0.397527
0.256300
0.630797
0.075871
0.219542
-0.132102
0.262981
0.624492
-0.930123
0.006874
-0.173222
-0.122486
0.100392
-0.051420
0.061545
0.174692
-0.076361
0.072893
-0.049861
-0.088255
0.282532
0.761719
0.382810
0.290252
1.232756
0.890632
0.263041
0.438201
0.941190
0.189619
0.264052
-0.027928
-0.457011
-0.280873
-0.217022
0.255802
0.042596
-0.304677
-0.166751
0.080057
-0.147737
-0.221694
-0.509482
-0.097727
0.458820
0.253726
0.307583
0.312690
-0.126524
0.407228
0.173326
-0.074247
0.501614
-0.400477
0.136715
0.631892
0.570942
-0.028422
0.933112
0.142309
0.382410
0.085392
-0.051743
0.099137
-0.321868
0.280040
0.182960
0.627709
0.053959
-0.184802
0.343641
0.429294
-0.052417
-0.206497
0.903742
-0.501747
0.787887
0.142161
0.313067
0.130608
0.775499
-0.345456
0.636983
0.526160
-0.150145
0.762357
-0.159559
0.689422
0.198869
0.053776
0.047183
0.383762
-0.174284
-0.206045
-0.247789
0.057949
0.411323
-0.114588
0.259565
-0.051590
-0.003397
-0.032703
0.527265
-0.034557
-0.091619
0.271295
-0.664621
0.737968
0.362603
-0.175544
0.086149
0.381404
0.223663
0.366893
0.436319
-0.316707
-0.276013
0.084849
-0.478577
0.166158
-0.046387
-0.336648
0.319463
-0.270468
-0.529177
-0.331235
-0.118173
-0.289032
0.042979
0.624599
-0.297421
0.069086
-0.355834
-0.164828
0.085314
0.028335
0.409502
-0.490490
0.007208
-0.333914
0.092904
0.315580
-0.007216
-0.300639
0.131042
0.589426
0.198925
0.149690
-0.229214
-0.073906
-0.163514
0.137387
-0.223103
0.057243
0.086623
-0.129488
0.017416
0.206898
-0.410448
-0.287642
-0.529088
0.461274
-0.068983
-0.209781
0.371571
0.292045
0.152557
-0.000452
0.281748
-0.002833
-0.434410
-0.316166
0.029142
-0.168813
-0.121045
0.125100
-0.069179
-0.231485
-0.564290
-0.150101
0.522809
-0.093569
-0.120447
-0.589537
0.029933
-0.528143
0.147680
0.172761
0.299481
0.280262
0.099850
-0.147901
0.190724
-0.464860
-0.108848
0.270359
0.124517
-0.314782
-0.103738
-0.521630
-0.677554
0.329977
-0.207466
0.147097
-0.308278
-0.115500
-0.027948
0.089742
0.157591
-0.200782
0.006427
-0.314573
-0.040644
0.300582
0.522578
0.408841
0.223160
0.597024
0.901777
0.149267
0.834034
-0.198009
-0.084391
-0.239764
0.167567
-0.117963
0.107432
0.203511
0.459727
-0.126526
-0.634454
0.146638
0.428353
-0.019633
0.559061
0.519622
0.081610
-0.675224
0.510469
-0.100802
-0.236217
-0.022497
-0.244727
0.199038
0.276189
0.089861
0.123767
-0.056962
-0.059896
0.180305
-0.139628
-0.142866
-0.004148
0.113799
0.178863
0.519281
0.414439
0.077570
0.141478
-0.228801
0.035828
0.056717
0.595570
-0.014017
-0.450628
0.266893
0.041408
0.101048
0.397316
0.699815
0.088470
-0.420438
-0.132811
0.355732
0.307012
0.169092
0.060373
0.086172
0.153192
0.131046
0.035609
-0.159642
-0.286291
0.176006
-0.061650
-0.709340
-0.139646
-0.097940
0.032689
0.222911
-0.589764
0.000384
0.105335
0.034872
-0.287935
0.246970
0.132496
0.090620
0.565771
-0.167361
0.315453
-0.751583
0.426098
0.105447
-0.314670
0.504770
0.295312
-0.695392
-0.135558
-0.655444
0.056544
0.085724
-0.271419
-0.125501
-0.373583
-0.627949
0.032690
0.055714
-0.027720
0.524867
0.081553
0.095273
-0.273453
-0.155271
-0.639365
0.338733
-0.340964
-0.688013
1.229355
0.322865
-0.087264
-0.528895
-0.184880
-0.511376
0.122150
-0.311596
0.614854
0.169677
0.417880
-0.017337
-0.017699
-0.154523
0.010731
0.444918
0.532387
0.208456
0.130843
-0.308843
-0.212248
-0.118347
0.016166
0.185748
0.266746
-0.458097
0.532569
-0.102336
-0.290811
0.249010
0.128623
-0.134392
0.041924
0.057052
0.810756
-0.366054
-0.352138
-0.173272
0.487372
-0.063627
0.170635
0.006292
0.243206
0.146686
0.271349
0.044095
-0.608821
-0.026641
0.050242
-0.423847
-0.293038
-0.362715
0.232556
-0.197383
-0.389777
-0.425912
0.115169
0.413611
-0.928826
-0.050750
-0.412879
-0.083011
-0.236551
-0.418978
-0.070944
0.155575
0.922359
0.274663
0.707221
0.124807
0.270897
0.008679
-0.471970
-0.228432
0.488048
0.022200
-0.147932
-0.345127
0.195114
0.534800
0.873193
0.891398
0.450434
0.211689
0.502354
0.712109
0.026549
-0.236539
0.099878
-0.055851
-0.305681
0.103797
-0.188331
0.076768
-0.191727
-0.078210
-0.211932
-0.255586
0.044838
-0.810047
0.299197
0.226621
-0.455165
0.446142
-0.315531
0.362515
0.147344
-0.256868
0.238059
0.193097
0.221218
0.457313
-0.396463
-0.281399
0.144031
0.321769
-0.329317
-0.067479
0.293908
0.193550
0.814922
0.498849
0.691145
-0.358109
0.406534
0.428782
0.325785
0.364660
1.055580
0.441083
0.048362
-0.074894
-0.087820
-0.337226
-0.196168
-0.237561
0.425422
-0.057236
0.011041
-0.395699
-0.079258
0.587110
0.480268
0.889620
0.127512
0.236892
0.083099
-0.596056
0.108455
0.342215
-0.317322
-0.400258
-0.176502
0.351465
0.069216
0.373261
0.366871
0.162849
0.016493
0.631289
0.381021
-0.308226
-0.908890
-0.019736
-0.075747
-0.027092
0.205655
0.272314
-0.505436
0.135697
-0.675974
-0.119648
0.263601
0.256082
0.553340
-0.196771
-0.157018
0.065672
0.020503
0.352491
0.248220
0.626691
0.155993
0.542488
0.051892
0.437193
-0.274866
-0.424998
0.067936
-0.293741
-0.075594
-0.113486
0.352214
-0.250369
0.073676
-0.207649
0.444469
-0.115401
-0.309916
-0.245890
-0.239287
0.161189
-0.418861
0.238790
0.024296
0.249290
-0.146018
-0.324238
0.510916
-0.367375
0.211263
-0.192040
-0.186733
0.055936
-0.130446
0.956459
-0.352271
0.071299
0.420155
-0.450514
-0.284200
-0.226336
-0.091484
0.490973
-0.550179
-0.213729
-0.045731
0.058106
0.233563
0.684785
-0.167748
0.371540
0.321769
0.131305
-0.385146
0.299324
-0.468987
-0.236484
0.291251
0.007772
-0.021599
0.069805
0.033702
0.562905
-0.332131
0.503970
-0.000352
-0.614809
0.008745
0.307551
0.040576
0.583574
0.429340
0.422544
0.116100
-0.388669
0.215021
0.267632
-0.024275
0.094463
0.198155
0.759615
0.378942
0.523787
0.287425
0.065262
-0.228996
-0.359105
-0.029907
0.484131
-0.607979
0.255715
0.375230
-0.157507
1.062739
1.500000
-0.169567
0.562756
-0.045541
0.112617
-0.210092
0.191061
0.308816
0.131125
-0.118102
-0.072453
-0.219364
-0.035023
-0.226823
0.750771
0.114145
0.195312
0.052077
-0.149905
0.114005
0.317531
-0.048938
0.085388
-0.053804
-0.291962
-0.155685
-0.124788
0.783713
0.123223
0.549820
0.800235
0.115718
0.302705
-0.048698
0.610054
0.480661
-0.367699
0.611047
0.775819
0.114732
0.465907
0.702179
0.456695
1.021342
0.509043
0.226743
0.005868
0.527840
0.028806
0.585823
0.057108
0.257541
0.877621
0.107702
-0.157107
-0.148005
0.572283
0.307992
0.115714
0.218656
0.942623
0.622317
-0.277025
0.765875
-0.124680
-0.176588
-0.177717
0.714605
-0.566061
-0.494811
0.080881
0.485670
0.157020
0.479445
-0.183562
0.477531
0.696482
0.023955
-0.678497
-0.481194
0.194307
0.345538
-0.038522
-0.206904
0.284394
0.389616
-0.464263
0.056139
-0.558720
-0.045132
0.026408
0.442844
0.329159
-0.094234
0.237633
-0.370100
-0.089787
-0.540432
-0.130524
-0.488612
0.491282
0.163239
-0.057870
0.125205
-0.239993
0.014819
-0.089140
-0.229028
-0.123182
0.386355
0.874401
-0.166748
-0.110175
-0.150494
-0.443096
