0.040790
-0.043030
0.042488
-0.007973
0.048518
-0.007158
0.014940
0.019592
0.017494
0.040634
-0.046739
-0.046750
-0.011432
-0.046986
0.044417
-0.010653
-0.013905
0.012793
0.057229
0.044114
-0.001700
0.065588
0.038111
-0.004005
0.004214
0.022472
-0.022085
-0.002534
0.081394
0.061476
0.067611
0.062097
0.095390
0.128453
0.084371
0.103902
0.127654
0.121632
0.165405
0.225951
0.148618
0.224673
0.122891
0.139171
0.149469
0.122316
0.188706
0.125906
0.200559
0.139473
0.121037
0.232011
0.196122
0.088397
0.154820
0.064879
0.055475
0.063262
0.115586
0.144438
0.012213
0.101926
0.089701
0.139661
0.039689
0.108851
-0.009409
0.048801
-0.015618
0.120151
0.034230
-0.020065
0.091376
0.071977
0.076270
0.084499
0.041061
0.091028
0.051311
0.071048
0.018879
0.073831
0.063000
-0.003012
0.005599
0.040177
0.184423
0.404481
0.645602
0.879968
1.160790
1.284782
1.131612
0.895059
0.731519
0.386555
0.089956
-0.077077
-0.136642
-0.160170
-0.094001
0.015774
-0.043758
0.024220
0.037386
0.102396
0.092342
0.123478
0.056692
0.027435
0.089983
0.065532
0.083958
0.098969
0.064296
0.119993
0.085324
0.152528
0.127520
0.138505
0.124322
0.180790
0.179448
0.174300
0.202381
0.113006
0.273326
0.284347
0.317965
0.261238
0.370200
0.265137
0.355450
0.315130
0.367850
0.435930
0.402823
0.388753
0.412495
0.434836
0.427527
0.525039
0.484742
0.510015
0.547757
0.433810
0.568720
0.490293
0.444646
0.535356
0.519330
0.468991
0.466637
0.488937
0.466247
0.480229
0.470650
0.424331
0.490230
0.365614
0.427585
0.377425
0.405055
0.320851
0.313672
0.365106
0.283081
0.252361
0.263360
0.207318
0.217814
0.192950
0.212333
0.216615
0.174640
0.175692
0.143806
0.202520
0.161540
0.066380
0.122169
0.180601
0.099324
0.041638
0.076486
0.205297
0.131743
0.155360
0.114232
0.199708
0.092964
0.167951
0.144112
0.065032
0.154321
0.094983
0.086306
0.115650
0.073626
0.033907
0.113672
0.087515
0.077252
0.201668
0.122597
0.070184
0.101326
0.116435
0.072065
0.131626
0.165233
0.122187
0.138595
0.119894
0.127119
0.100605
0.152517
0.167238
0.085752
0.107381
0.075554
0.114080
0.109072
0.222208
0.109385
0.127802
0.087238
0.154199
0.130164
0.076072
0.124461
0.137640
0.164108
0.118766
0.094625
0.109847
0.093222
0.118436
0.074472
0.076373
0.150599
0.108390
0.123194
0.113116
0.141744
0.064009
0.117481
0.079896
0.093410
0.130890
0.139666
0.199313
0.136768
0.102883
0.190790
0.115535
0.101708
0.160527
0.187138
0.142200
0.072611
0.164579
0.139466
0.151838
0.155367
0.246980
0.285897
0.208984
0.157944
0.233479
0.261389
0.346339
0.199369
0.149129
0.255025
0.287161
0.235876
0.276465
0.255611
0.218010
0.219334
0.155221
0.200917
0.212839
0.205987
0.190492
0.182112
0.144594
0.094690
0.161140
0.111949
0.112001
0.168151
0.156494
0.089700
0.125103
0.114267
0.113746
0.113835
0.107976
0.123123
0.134713
0.138202
0.170474
0.099200
0.144892
0.057791
0.026551
0.123715
0.067611
0.056218
0.130315
0.148815
0.225573
0.374619
0.596158
0.883383
1.135847
1.232324
1.256387
1.041222
0.811238
0.531131
0.226303
0.048784
-0.076872
-0.148533
-0.106829
-0.076746
-0.062821
0.098985
0.028959
0.105885
0.081178
0.075917
0.063040
0.062756
0.127929
0.183539
0.110406
0.136281
0.085286
0.185900
0.046452
0.148967
0.228465
0.168276
0.201351
0.267779
0.206705
0.209295
0.185538
0.164163
0.224472
0.245482
0.274738
0.290387
0.329770
0.232066
0.317446
0.366302
0.379880
0.389293
0.400849
0.430514
0.466235
0.429121
0.449477
0.457192
0.413537
0.482041
0.512966
0.509218
0.449724
0.480556
0.509177
0.453574
0.564661
0.420272
0.531033
0.501089
0.474775
0.443954
0.499088
0.423563
0.412089
0.462580
0.395107
0.363444
0.357391
0.407309
0.363748
0.317191
0.259495
0.239000
0.165009
0.274447
0.245770
0.229856
0.204220
0.207985
0.192985
0.162388
0.129171
0.125587
0.142967
0.093656
0.044715
0.155313
0.063450
0.079018
0.137669
0.140738
0.094347
0.055111
0.082959
0.124593
0.024255
0.175376
0.088876
0.057136
0.168322
0.096961
0.074869
0.067718
0.060470
0.034331
0.061783
0.069325
0.117579
0.062296
0.105650
0.016599
0.010458
0.062072
0.050649
0.100727
0.084318
0.120485
0.059985
0.070040
0.032081
0.027463
0.123097
0.082670
0.037153
0.093919
0.119178
0.069052
0.127549
0.033005
0.108570
0.144448
0.090013
0.058955
0.039061
-0.007340
0.039650
0.078289
0.058361
0.038652
0.084931
0.009519
0.064480
0.038961
0.069236
0.020358
0.119628
0.087101
0.013848
0.041741
0.101139
0.064032
0.076536
0.024074
0.079657
0.035630
0.072526
0.023044
0.081073
0.079811
0.097669
0.096468
0.127073
0.066162
0.100973
0.189458
0.087840
0.123159
0.162800
0.179907
0.194937
0.180893
0.139119
0.172973
0.116452
0.245677
0.173942
0.227845
0.247108
0.247193
0.106860
0.222554
0.234455
0.193833
0.200751
0.169013
0.130706
0.136345
0.120912
0.187196
0.180164
0.108698
0.107446
0.154771
0.112712
0.053314
0.072475
0.197413
0.067200
0.089256
0.091531
0.146141
0.089285
0.068459
0.075530
0.054258
0.035169
0.042882
0.044884
-0.029680
0.059143
0.065235
0.044300
0.005816
0.029853
-0.008542
0.010516
0.036668
-0.015439
0.105021
0.252624
0.486528
0.806351
0.996245
1.186687
1.181627
1.076630
0.856564
0.567717
0.275037
0.017895
-0.080426
-0.094246
-0.184753
-0.030139
-0.090631
0.077150
0.030611
0.078655
0.051267
0.051120
0.127323
0.094067
0.135901
0.083987
0.101772
0.040665
0.043713
0.101216
0.078925
0.120810
0.091713
0.081117
0.124456
0.132728
0.205492
0.156041
0.212776
0.240079
0.295709
0.307918
0.233784
0.242928
0.258984
0.352865
0.274411
0.331454
0.340980
0.342831
0.306196
0.413560
0.404204
0.438322
0.446168
0.480919
0.500760
0.469821
0.467353
0.557916
0.452445
0.488047
0.485403
0.460031
0.443616
0.526190
0.454164
0.505883
0.514530
0.423498
0.471001
0.482510
0.436101
0.484119
0.395837
0.338586
0.291629
0.296027
0.339455
0.292745
0.259281
0.283934
0.288374
0.209515
0.177669
0.241336
0.154470
0.166216
0.162642
0.182930
0.149836
0.192110
0.207618
0.182682
0.182286
0.156517
0.099619
0.175960
0.136805
0.144882
0.063834
0.128900
0.098955
0.106355
0.118542
0.089087
0.087441
0.080386
0.067511
0.106340
0.082646
0.097355
0.107191
0.112059
0.042061
0.125224
0.081191
0.076051
0.086566
0.110831
0.093169
0.073802
0.059785
0.097556
0.059242
0.081131
0.164959
0.149080
0.076419
0.111469
0.095897
0.068508
0.062832
0.179732
0.005133
0.112523
0.125291
0.105938
0.132527
0.074527
0.136374
0.110789
0.102673
0.095421
0.133112
0.133541
0.123232
0.167893
0.102860
0.077222
0.067080
0.154482
0.087585
0.135562
0.169266
0.127667
0.103703
0.056698
0.111087
0.060709
0.146001
0.045025
0.085225
0.124050
0.107004
0.127009
0.152825
0.068745
0.171660
0.121364
0.180356
0.139965
0.199232
0.192935
0.194114
0.241953
0.257103
0.213259
0.271510
0.248642
0.316774
0.257697
0.295998
0.135152
0.251711
0.326841
0.332292
0.236071
0.293592
0.260566
0.253256
0.298900
0.184385
0.299622
0.286292
0.283237
0.246077
0.283706
0.241353
0.215352
0.227293
0.277503
0.135993
0.194835
0.157862
0.208822
0.174062
0.184382
0.181025
0.154508
0.163816
0.129249
0.127899
0.158878
0.164752
0.181431
0.216337
0.226453
0.120457
0.061943
0.117382
0.199030
0.112951
0.227663
0.103640
0.092798
0.183280
0.154834
0.283954
0.600335
0.833685
1.066953
1.201949
1.331313
1.223719
0.995369
0.686175
0.416311
0.164622
0.026428
0.001677
0.029738
0.001511
0.085829
0.096568
0.157527
0.111304
0.139488
0.170615
0.131592
0.175949
0.179816
0.262409
0.143246
0.246228
0.212643
0.221483
0.250845
0.250710
0.213531
0.275853
0.259876
0.209416
0.264701
0.370595
0.308225
0.330174
0.339293
0.337288
0.416119
0.407535
0.339757
0.373600
0.374659
0.409465
0.383463
0.442306
0.495273
0.447370
0.506834
0.510262
0.558142
0.604313
0.597069
0.581933
0.625335
0.586973
0.583719
0.552934
0.583574
0.639349
0.578668
0.550759
0.580927
0.575701
0.555513
0.571894
0.501968
0.545579
0.573446
0.559466
0.461443
0.529215
0.502234
0.458166
0.486778
0.429610
0.393885
0.457044
0.419210
0.328560
0.327305
0.352157
0.317530
0.332739
0.316259
0.311541
0.234048
0.295190
0.217745
0.250234
0.187322
0.272492
0.233882
0.272593
0.270545
0.205180
0.230731
0.207686
0.275336
0.151870
0.242571
0.197787
0.200086
0.254165
0.211971
0.266913
0.217208
0.232776
0.256597
0.214206
0.257832
0.224298
0.203545
0.252788
0.212673
0.234415
0.233937
0.216712
0.165307
0.254882
0.151237
0.212450
0.187836
0.277613
0.212029
0.220084
0.214014
0.230963
0.277212
0.199129
0.139234
0.271642
0.253930
0.234634
0.224461
0.226108
0.186694
0.215999
0.238711
0.242401
0.194441
0.228856
0.225917
0.264532
0.324521
0.260332
0.228808
0.215781
0.235240
0.271587
0.207342
0.243298
0.188822
0.213930
0.227302
0.193997
0.256743
0.254040
0.209579
0.258049
0.212698
0.236095
0.242108
0.260753
0.263312
0.253165
0.338884
0.237639
0.292462
0.276801
0.357874
0.317607
0.292547
0.337694
0.323951
0.348026
0.308737
0.344316
0.411200
0.350497
0.302674
0.361107
0.405799
0.385734
0.317324
0.393912
0.402056
0.424648
0.414437
0.345768
0.332123
0.365042
0.341853
0.256072
0.292724
0.337897
0.280038
0.317179
0.242222
0.280877
0.296720
0.284547
0.280902
0.328566
0.279491
0.234554
0.239740
0.219832
0.250809
0.285079
0.196766
0.194236
0.171102
0.256204
0.200076
0.225391
0.255582
0.177206
0.167359
0.178968
0.258971
0.149603
0.208926
0.245987
0.378240
0.561912
0.775974
1.072345
1.355481
1.461348
1.388061
1.136065
0.856446
0.557196
0.271524
0.120050
0.003293
-0.012803
0.032401
0.115993
0.157007
0.230682
0.183859
0.273142
0.251082
0.202930
0.270161
0.300367
0.271962
0.208952
0.259131
0.205338
0.209264
0.246741
0.257621
0.312571
0.309630
0.294740
0.255713
0.306015
0.336235
0.352242
0.356331
0.359021
0.383402
0.404241
0.413258
0.448547
0.421826
0.469393
0.475890
0.543359
0.533839
0.523594
0.616823
0.564417
0.549431
0.572191
0.573412
0.559348
0.627520
0.656000
0.597156
0.630107
0.613343
0.672195
0.631707
0.664505
0.596277
0.662713
0.612341
0.674319
0.595821
0.533414
0.560055
0.586077
0.539120
0.516014
0.535876
0.484034
0.461995
0.466927
0.422528
0.390540
0.418655
0.401195
0.387890
0.383408
0.357449
0.388872
0.352117
0.381236
0.247435
0.337331
0.353345
0.335545
0.234939
0.263893
0.239054
0.175807
0.238329
0.261876
0.217035
0.185415
0.148665
0.252744
0.226802
0.231995
0.203307
0.200545
0.242455
0.268464
0.222794
0.193368
0.210842
0.230097
0.249643
0.173516
0.191008
0.199190
0.227400
0.176802
0.183638
0.175237
0.178553
0.131504
0.217154
0.157956
0.196992
0.224509
0.242516
0.184080
0.191350
0.198185
0.175504
0.264556
0.203135
0.176310
0.167137
0.195702
0.229535
0.212687
0.216944
0.207198
0.193177
0.208678
0.168188
0.155795
0.229192
0.174133
0.210079
0.121703
0.202496
0.151478
0.171254
0.157996
0.137011
0.194010
0.160024
0.217488
0.224242
0.165866
0.124660
0.212984
0.172442
0.181537
0.210720
0.213513
0.203629
0.235800
0.191619
0.244476
0.142540
0.169019
0.234258
0.202216
0.215347
0.225820
0.226957
0.243256
0.237371
0.201627
0.298269
0.320497
0.283867
0.305864
0.304914
0.321340
0.303279
0.297175
0.339730
0.239892
0.318317
0.302789
0.286996
0.287884
0.323571
0.326100
0.309832
0.264143
0.269460
0.231277
0.221095
0.244580
0.250561
0.156693
0.173137
0.191743
0.152946
0.228463
0.232957
0.212891
0.132340
0.114698
0.185357
0.106945
0.130701
0.170602
0.209090
0.187097
0.135325
0.170550
0.142634
0.131101
0.141150
0.172855
0.147850
0.177805
0.100295
0.126902
0.154493
0.232621
0.412087
0.620656
0.946684
1.199259
1.327502
1.291893
1.157760
0.848599
0.592788
0.313423
0.091723
-0.025345
-0.069047
-0.032131
0.011327
0.049066
0.070800
0.147418
0.157111
0.171434
0.160285
0.144641
0.170735
0.162680
0.155807
0.170986
0.169032
0.205542
0.167461
0.098338
0.144058
0.266841
0.181646
0.249251
0.219795
0.197641
0.258216
0.268001
0.265975
0.228995
0.260411
0.263634
0.362452
0.278602
0.332650
0.365736
0.386995
0.441745
0.487501
0.475885
0.474945
0.487562
0.509973
0.545486
0.589375
0.508207
0.593466
0.561604
0.588211
0.616270
0.536872
0.600868
0.567476
0.511790
0.509212
0.541564
0.533927
0.472915
0.548846
0.419364
0.435814
0.555749
0.393758
0.460027
0.399892
0.418377
0.317499
0.410689
0.391356
0.374849
0.330022
0.335474
0.287402
0.259970
0.209188
0.283583
0.209386
0.251668
0.238592
0.206573
0.181420
0.170400
0.221782
0.173529
0.191132
0.171378
0.222690
0.204752
0.260220
0.107433
0.158643
0.185581
0.140362
0.131630
0.132900
0.091373
0.155878
0.164780
0.091814
0.201873
0.107831
0.092992
0.087104
0.153856
0.088328
0.077625
0.071456
0.052513
0.140882
0.147204
0.067125
0.205047
0.185384
0.188732
0.112398
0.172127
0.133848
0.228012
0.138429
0.129100
0.108284
0.091024
0.132992
0.137656
0.196606
0.136717
0.135281
0.204691
0.177274
0.075496
0.070426
0.141716
0.126078
0.153235
0.117434
0.189247
0.058037
0.084183
0.089898
0.149116
0.175917
0.154592
0.115632
0.137813
0.122331
0.155802
0.121400
0.117292
0.155284
0.121525
0.126016
0.166495
0.116405
0.109019
0.111883
0.188163
0.107799
0.222200
0.110621
0.181303
0.157077
0.211656
0.219234
0.221895
0.173959
0.249642
0.295166
0.267270
0.239418
0.266494
0.232462
0.265297
0.361432
0.324851
0.243650
0.305852
0.340256
0.252694
0.355521
0.288985
0.300151
0.360613
0.297970
0.325062
0.203231
0.282757
0.240461
0.213580
0.244245
0.215529
0.202389
0.210992
0.150583
0.167500
0.196803
0.186306
0.170248
0.161736
0.191338
0.201847
0.160667
0.233077
0.114639
0.083372
0.165590
0.189225
0.146403
0.197408
0.125042
0.189893
0.125218
0.179463
0.102665
0.169368
0.142854
0.214455
0.190122
0.362917
0.548606
0.826562
1.093276
1.322011
1.275028
1.185876
0.982416
0.634364
0.407953
0.125706
0.020087
-0.065622
0.004329
-0.005126
0.063979
0.162167
0.139407
0.197016
0.181595
0.233731
0.167931
0.176571
0.178180
0.172010
0.180278
0.206600
0.208836
0.171375
0.226597
0.211980
0.254249
0.242680
0.248811
0.276156
0.211561
0.249437
0.323674
0.330071
0.371989
0.358804
0.344390
0.395595
0.420952
0.364055
0.424538
0.492775
0.445595
0.476989
0.504307
0.517283
0.519593
0.521283
0.545453
0.545626
0.604141
0.626294
0.643802
0.544546
0.621833
0.590676
0.591743
0.621580
0.598791
0.636143
0.577746
0.558279
0.567614
0.566563
0.573324
0.504847
0.566342
0.494893
0.496722
0.506076
0.454595
0.483654
0.469155
0.393338
0.465858
0.446333
0.352520
0.332042
0.367319
0.380414
0.341090
0.358939
0.294614
0.319760
0.359206
0.283076
0.209028
0.293161
0.242322
0.294681
0.242630
0.285202
0.253542
0.195144
0.247460
0.200808
0.234682
0.265217
0.225723
0.214020
0.219019
0.269387
0.282847
0.191292
0.296300
0.280393
0.262422
0.208144
0.166020
0.212195
0.243121
0.300468
0.253168
0.221786
0.244015
0.232559
0.212677
0.225909
0.251799
0.256872
0.246590
0.265423
0.189140
0.223942
0.332072
0.254453
0.132907
0.316303
0.219019
0.256152
0.304574
0.266072
0.253036
0.198761
0.220237
0.227526
0.231680
0.210959
0.282061
0.243981
0.283835
0.255170
0.236898
0.266263
0.265116
0.300036
0.268042
0.242106
0.265425
0.268288
0.307967
0.227950
0.252625
0.206044
0.276818
0.224550
0.223980
0.242407
0.250269
0.271157
0.262735
0.324454
0.287639
0.326863
0.276321
0.330381
0.357548
0.307361
0.391409
0.290624
0.349197
0.326857
0.262586
0.313264
0.330460
0.388131
0.426132
0.360983
0.340042
0.357153
0.395093
0.441951
0.417815
0.399146
0.347523
0.410873
0.339117
0.379502
0.402022
0.423917
0.384388
0.350238
0.256395
0.286949
0.330196
0.337051
0.323284
0.288310
0.335492
0.308228
0.278772
0.284175
0.275659
0.248018
0.341230
0.243655
0.333012
0.264010
0.262118
0.208508
0.306469
0.250574
0.246355
0.257664
0.222374
0.306669
0.248950
0.257387
0.257199
0.179507
0.283793
0.288498
0.406677
0.610045
0.897261
1.141513
1.321262
1.500000
1.299389
1.105315
0.898666
0.559440
0.295720
0.136703
0.011664
0.038517
0.089577
0.153870
0.146321
0.235108
0.257570
0.254000
0.259211
0.266012
0.266553
0.246718
0.255069
0.306601
0.279162
0.298081
0.348731
0.228862
0.196328
0.319233
0.267103
0.326047
0.364564
0.351163
0.369146
0.370771
0.355046
0.440159
0.406090
0.362855
0.478714
0.445889
0.483274
0.511682
0.602931
0.507521
0.575102
0.558355
0.621028
0.600673
0.599942
0.569476
0.643231
0.642450
0.621219
0.743643
0.676057
0.714893
0.677246
0.628888
0.668814
0.704533
0.648450
0.753744
0.659841
0.664402
0.572664
0.664423
0.669523
0.600787
0.564803
0.591556
0.575856
0.542199
0.539812
0.552901
0.453434
0.473918
0.467648
0.371674
0.355657
0.441559
0.449632
0.427758
0.334462
0.385321
0.352992
0.335795
0.305488
0.362695
0.263356
0.361602
0.238557
0.294778
0.330456
0.291733
0.269734
0.283391
0.251695
0.327549
0.266706
0.264292
0.262337
0.258692
0.252221
0.249928
0.251172
0.210175
0.216236
0.251008
0.253449
0.301539
0.238301
0.262384
0.364088
0.237882
0.252199
0.219144
0.218677
0.249127
0.261934
0.185609
0.211306
0.305611
0.287778
0.224094
0.299375
0.264656
0.340934
0.213399
0.240024
0.266762
0.266159
0.313783
0.213264
0.230929
0.274386
0.177142
0.286514
0.286448
0.290173
0.305288
0.216169
0.212131
0.201378
0.227066
0.214489
0.258347
0.241408
0.210494
0.257166
0.259880
0.286557
0.240280
0.273020
0.201738
0.235766
0.232698
0.261323
0.239065
0.240876
0.265369
0.259951
0.237869
0.209056
0.277906
0.245106
0.281365
0.281811
0.262180
0.308666
0.243138
0.326024
0.357826
0.308897
0.326855
0.293351
0.304106
0.398653
0.470570
0.356103
0.346938
0.352296
0.359574
0.401751
0.402060
0.413696
0.383549
0.267820
0.365875
0.386049
0.378579
0.373669
0.322809
0.280195
0.306681
0.339999
0.244076
0.265709
0.196837
0.245668
0.331164
0.247780
0.266174
0.215745
0.210748
0.265530
0.251615
0.202442
0.206142
0.271474
0.174458
0.174780
0.213535
0.239087
0.187507
0.179819
0.218176
0.194239
0.194716
0.200373
0.148909
0.210511
0.149957
0.296948
0.281577
0.471580
0.759134
1.016388
1.218150
1.299748
1.353502
1.078601
0.879963
0.594615
0.354444
0.095942
-0.058144
0.007279
0.029930
0.045095
0.104146
0.226209
0.194171
0.215416
0.175387
0.181638
0.188725
0.161224
0.274975
0.246825
0.271473
0.259852
0.169341
0.199362
0.222003
0.183441
0.267568
0.281203
0.260519
0.315683
0.280107
0.240416
0.345282
0.391419
0.249591
0.386827
0.368857
0.379655
0.368080
0.394793
0.401551
0.503756
0.472265
0.488018
0.539957
0.532914
0.570243
0.497837
0.551747
0.619330
0.590756
0.603053
0.716411
0.643325
0.581246
0.632216
0.653648
0.605500
0.556671
0.560497
0.576888
0.606146
0.608310
0.577887
0.590513
0.521521
0.501871
0.527989
0.531317
0.492753
0.416604
0.415558
0.420668
0.393748
0.332893
0.349521
0.315501
0.353270
0.309341
0.280231
0.343636
0.252958
0.252876
0.265649
0.300560
0.204470
0.261533
0.217674
0.236489
0.254428
0.153569
0.165134
0.187814
0.201042
0.159139
0.169445
0.270634
0.162542
0.271616
0.160525
0.173351
0.129214
0.207761
0.208940
0.147098
0.203803
0.187334
0.208583
0.179403
0.149960
0.172642
0.200281
0.161339
0.118937
0.086133
0.154196
0.161758
0.130906
0.177742
0.208822
0.214251
0.209738
0.181086
0.206121
0.161685
0.221794
0.184166
0.166525
0.108027
0.173721
0.217788
0.131459
0.147629
0.159198
0.140541
0.100950
0.198054
0.164781
0.093720
0.156738
0.198199
0.248420
0.110620
0.106712
0.182146
0.197683
0.086167
0.208539
0.129049
0.165730
0.220909
0.146288
0.196906
0.129127
0.113832
0.162165
0.091773
0.177289
0.122252
0.148867
0.149845
0.138698
0.176335
0.192646
0.238871
0.203008
0.229248
0.164868
0.250597
0.256090
0.234490
0.292018
0.214476
0.284880
0.241643
0.327697
0.289990
0.283766
0.348738
0.242100
0.259714
0.297829
0.279771
0.310445
0.319252
0.309071
0.346347
0.275778
0.283946
0.218793
0.269097
0.249333
0.240381
0.249644
0.222219
0.186675
0.198497
0.217135
0.182942
0.151288
0.186495
0.146012
0.163187
0.185033
0.099503
0.143104
0.232164
0.189037
0.193990
0.200054
0.191987
0.168391
0.128052
0.159216
0.204353
0.160606
0.160047
0.205799
0.214818
0.139208
0.145955
0.225437
0.430123
0.677324
0.927382
1.174834
1.329352
1.364775
1.165113
0.859311
0.632066
0.316269
0.119521
-0.011786
-0.030332
-0.010564
-0.010382
0.112429
0.094694
0.183700
0.162905
0.143957
0.194991
0.158747
0.172947
0.164506
0.156121
0.206940
0.197083
0.222947
0.313109
0.183640
0.225496
0.223326
0.253930
0.237765
0.310625
0.296979
0.241118
0.272750
0.333983
0.360959
0.293118
0.296767
0.348985
0.447209
0.339345
0.383436
0.362692
0.448106
0.491749
0.483503
0.557666
0.470580
0.553964
0.568169
0.495130
0.575801
0.669492
0.598684
0.575654
0.624639
0.555933
0.653456
0.620690
0.626087
0.604374
0.579129
0.586286
0.540182
0.561849
0.528273
0.522850
0.505105
0.478703
0.509894
0.508476
0.464013
0.423921
0.415923
0.403119
0.396085
0.287619
0.402444
0.368796
0.334527
0.275351
0.277623
0.320783
0.335658
0.270974
0.200578
0.286725
0.260738
0.269828
0.268001
0.220952
0.200446
0.272249
0.248192
0.232478
0.282911
0.268665
0.229757
0.202683
0.183759
0.238947
0.218742
0.240256
0.224000
0.209074
0.221810
0.172904
0.191989
0.142700
0.195916
0.147024
0.222780
0.208718
0.156065
0.240899
0.185534
0.186129
0.231526
0.234301
0.212436
0.222457
0.224081
0.217789
0.225670
0.184725
0.212050
0.206110
0.180385
0.244307
0.189561
0.229140
0.251202
0.224637
0.220065
0.167820
0.244626
0.256824
0.134227
0.194679
0.230442
0.256829
0.227969
0.257386
0.178824
0.252313
0.241728
0.225071
0.182719
0.190177
0.318069
0.226498
0.191704
0.229808
0.237703
0.324836
0.164118
0.269856
0.297373
0.203248
0.284305
0.324737
0.315428
0.285325
0.282952
0.256692
0.243688
0.297462
0.270493
0.291754
0.284880
0.323617
0.282632
0.320899
0.312312
0.369108
0.411686
0.380058
0.330288
0.379046
0.306795
0.353917
0.434833
0.397443
0.427728
0.335403
0.416353
0.412102
0.431283
0.390330
0.441907
0.340387
0.313154
0.249335
0.340703
0.334692
0.244235
0.279890
0.316869
0.318110
0.332985
0.246105
0.316751
0.230310
0.216296
0.241085
0.197469
0.244090
0.255045
0.287767
0.237250
0.292086
0.284965
0.270388
0.257934
0.287037
0.285046
0.251315
0.278763
0.224415
0.249830
0.269494
0.191253
0.272634
0.439095
0.744000
0.910505
1.232711
1.397186
1.406107
1.287506
1.074348
0.758854
0.456912
0.226701
0.094335
-0.001212
0.024511
0.123881
0.145027
0.227397
0.206680
0.274789
0.243889
0.229815
0.340794
0.309002
0.285677
0.326919
0.224209
0.255347
0.248463
0.343289
0.289930
0.280032
0.349974
0.364691
0.353086
0.359648
0.363491
0.420967
0.391181
0.466670
0.454870
0.452634
0.405690
0.475627
0.517865
0.526048
0.511217
0.484808
0.441135
0.489161
0.627801
0.586847
0.632999
0.665663
0.680476
0.600499
0.648177
0.667685
0.688763
0.718665
0.709035
0.672799
0.706361
0.622935
0.680223
0.752506
0.685130
0.634457
0.661762
0.658601
0.625399
0.572069
0.601567
0.618987
0.534722
0.609378
0.548090
0.563901
0.551411
0.515568
0.513083
0.520272
0.435493
0.489491
0.448270
0.412850
0.475034
0.382795
0.400835
0.376835
0.400272
0.350622
0.361770
0.334510
0.423155
0.281374
0.377525
0.368639
0.304975
0.285590
0.305841
0.298502
0.191999
0.361305
0.335638
0.265419
0.289806
0.266172
0.302758
0.289593
0.334663
0.326284
0.262000
0.335063
0.325786
0.323325
0.294565
0.264214
0.297239
0.308308
0.243149
0.251119
0.315331
0.305393
0.271656
0.263488
0.231674
0.306185
0.385981
0.328773
0.288812
0.297615
0.290356
0.309746
0.245768
0.321893
0.315164
0.223199
0.222850
0.242637
0.259261
0.299948
