-0.023364
-0.026395
0.076393
-0.004268
0.062012
0.035195
0.067722
0.020338
0.029287
-0.041448
-0.004756
0.053926
0.014648
0.026990
-0.060935
-0.058035
-0.028764
-0.002026
0.030665
0.031007
0.050032
0.065440
-0.017888
0.040967
0.041550
0.054001
0.060643
0.086009
0.082806
0.059526
0.046639
0.088360
0.053597
0.104079
0.088221
0.037008
0.041724
0.098391
0.205383
0.205352
0.113014
0.143997
0.117934
0.207497
0.191245
0.200211
0.200153
0.142098
0.138165
0.170015
0.277129
0.200875
0.202497
0.179112
0.213856
0.134691
0.173827
0.131772
0.180853
0.115689
0.141390
0.206865
0.120924
0.046890
0.170836
0.089876
0.147110
0.078132
0.063177
0.033734
0.033311
0.076829
0.054758
0.072237
0.043592
-0.030922
0.143989
0.071803
-0.027733
0.077111
-0.004861
0.075182
0.038791
0.009646
-0.016699
-0.007295
0.122229
0.070021
-0.008606
0.011488
-0.007272
0.074252
0.305104
0.568004
0.785971
1.153897
1.477062
1.492257
1.328428
1.166528
0.787705
0.445603
0.131766
-0.034901
-0.179395
-0.223274
-0.133108
-0.079637
0.017831
0.016712
0.095721
0.024187
0.105431
0.109097
0.118024
0.044411
0.146804
0.122047
0.168764
0.093043
0.076650
0.097961
0.124910
0.116018
0.119276
0.154804
0.126003
0.183145
0.172996
0.179915
0.174094
0.208457
0.184273
0.182140
0.212966
0.204717
0.221384
0.287153
0.254136
0.334431
0.337793
0.369420
0.319778
0.351115
0.458717
0.434961
0.407225
0.514550
0.465593
0.541875
0.569123
0.442668
0.539139
0.579154
0.648726
0.536237
0.658285
0.596444
0.633832
0.623988
0.618109
0.513040
0.590517
0.621674
0.501453
0.591514
0.426384
0.517576
0.442243
0.439977
0.467551
0.442061
0.476915
0.299167
0.393181
0.379449
0.322750
0.338793
0.340087
0.211074
0.242188
0.226312
0.134670
0.138151
0.228121
0.294482
0.168429
0.082872
0.169344
0.171130
0.182477
0.136999
0.144433
0.113199
0.156032
0.112070
0.139637
0.035533
0.100935
0.126838
0.115886
0.114709
0.077757
0.071474
0.077995
0.047767
0.125234
0.116078
0.098024
0.019824
0.059420
0.189172
0.094103
0.114779
0.088826
0.120714
0.108576
0.063215
0.159859
0.104144
0.063295
0.063610
0.050772
0.092193
0.038419
0.124186
0.026881
0.087876
-0.011950
0.048449
0.000848
0.070415
0.085173
0.117814
0.111458
0.065930
0.151734
0.045916
0.148230
0.024911
0.099659
0.063295
0.073042
0.079554
0.106817
0.061505
0.119106
0.098780
0.073843
0.142393
0.163284
0.029149
0.003153
0.098205
0.039828
0.044002
-0.004201
0.146265
-0.015534
0.119415
0.078454
0.150838
0.097899
0.073385
0.058606
0.045973
0.147847
0.032595
0.094595
0.040210
0.096670
0.051526
0.069145
0.156002
0.098583
0.085639
0.179586
0.097236
0.150342
0.260797
0.183283
0.187151
0.192834
0.228378
0.227466
0.239329
0.179120
0.190469
0.283194
0.171722
0.299845
0.262185
0.275015
0.322700
0.181439
0.217868
0.226978
0.194067
0.190196
0.153647
0.101579
0.172736
0.154579
0.205825
0.099343
0.073481
0.141928
0.066154
0.114682
0.127233
-0.001727
0.044041
0.075195
0.064900
-0.003835
-0.029363
0.089625
0.109507
0.115085
0.061920
0.011516
0.076617
0.053040
0.068790
0.078428
0.041039
0.090815
0.056465
0.018790
-0.006639
-0.047778
0.068909
0.023456
0.083561
0.209635
0.540103
0.869295
1.200758
1.428845
1.477353
1.270234
1.111912
0.769081
0.408049
0.034244
-0.164694
-0.290970
-0.129631
-0.223239
-0.048087
-0.078170
0.057589
0.081725
0.042810
0.057184
0.055572
-0.004438
0.073024
0.116512
0.096626
0.000517
0.068321
0.102814
0.081878
0.004377
0.061150
0.082109
0.069423
0.114833
0.034330
0.113054
0.085815
0.133558
0.097880
0.138788
0.198070
0.178154
0.160394
0.270469
0.201439
0.204918
0.238480
0.262308
0.296791
0.299782
0.337309
0.322371
0.459028
0.327940
0.437913
0.445627
0.512535
0.515438
0.464519
0.486773
0.454504
0.529573
0.432488
0.554683
0.540090
0.486794
0.547466
0.489462
0.526575
0.482487
0.494732
0.481606
0.527729
0.465949
0.396714
0.373281
0.337983
0.391729
0.316445
0.336883
0.284865
0.248905
0.212663
0.235338
0.255543
0.176033
0.186989
0.142281
0.055777
0.099413
0.173933
0.086323
0.051212
0.137164
0.037278
0.074445
0.063238
0.099575
0.067971
0.058440
-0.077171
0.015268
0.056444
0.040646
0.114345
-0.050408
0.024147
0.056517
-0.029769
0.074818
-0.002324
0.013114
-0.027807
0.002966
-0.018962
-0.047743
0.083262
-0.048690
0.058818
-0.038160
0.031316
0.039952
0.023724
0.197969
-0.030957
-0.007942
-0.014930
0.020233
-0.045735
-0.007973
-0.053727
0.022418
-0.003137
-0.020764
-0.067513
-0.068461
0.000831
0.016552
0.038223
-0.004195
0.017832
-0.025563
-0.016546
0.074982
-0.076059
-0.068521
-0.043560
-0.000765
-0.054928
-0.042279
-0.076336
-0.028464
-0.069861
-0.042927
0.031113
0.086736
0.035349
-0.013483
-0.014950
0.020414
-0.001456
-0.012334
-0.031888
-0.060657
-0.014479
-0.056890
-0.089909
-0.125686
-0.129858
-0.089610
-0.069594
-0.052302
0.028247
-0.047968
0.061898
-0.109238
-0.025065
-0.087987
-0.050887
-0.015966
0.079232
-0.003581
-0.017309
0.013510
-0.067171
0.035207
-0.000152
0.120250
0.046389
0.083599
0.083268
0.080516
0.096331
0.084680
0.113497
0.186220
0.174590
0.166882
0.131557
0.201489
0.135819
0.147892
0.072014
0.090017
0.040956
0.103766
0.047065
0.049141
0.017611
0.024906
0.097164
-0.013270
-0.030172
-0.028500
0.002664
-0.038121
-0.040458
-0.033661
-0.027192
0.005945
-0.055233
-0.046978
-0.015890
-0.054407
-0.046305
-0.057751
-0.015772
-0.053892
0.003828
-0.064688
-0.060565
-0.076509
-0.073276
-0.042740
-0.101715
-0.030600
-0.077802
-0.093211
-0.176005
-0.014432
-0.034997
0.152844
0.506241
0.792932
1.133064
1.338589
1.444664
1.370127
0.932245
0.673205
0.224822
0.037420
-0.322152
-0.329806
-0.280945
-0.306176
-0.160643
-0.192342
0.010089
-0.090213
0.006242
-0.046231
-0.075918
-0.027499
0.030154
-0.029306
-0.001966
-0.076561
0.030490
-0.037367
-0.031206
-0.044846
-0.050838
0.030269
0.072915
0.025682
0.129745
0.029046
0.112995
0.087964
0.030398
0.032313
0.077288
0.139908
0.092929
0.192442
0.177989
0.284587
0.141619
0.225045
0.321503
0.228002
0.277980
0.378745
0.412850
0.363880
0.281295
0.374955
0.432507
0.465328
0.405342
0.437540
0.430807
0.549051
0.457554
0.515335
0.483499
0.440060
0.415148
0.476859
0.404723
0.410003
0.443259
0.405426
0.408279
0.387514
0.403138
0.414028
0.388069
0.358852
0.216067
0.265223
0.210259
0.244543
0.290612
0.208036
0.184954
0.181033
0.195923
0.066623
0.181096
0.165517
0.021832
0.126522
0.082304
0.041067
-0.014589
0.074720
-0.007829
0.052050
0.064700
0.027442
0.031421
-0.087544
-0.006758
-0.002159
0.019533
-0.041893
-0.005907
0.066870
-0.051509
0.022205
0.049221
0.088224
0.051585
0.051685
-0.077110
-0.008991
-0.022576
-0.021530
0.033179
-0.028631
0.039678
-0.067040
-0.036838
-0.017113
0.065624
0.000814
0.062604
-0.005340
-0.002715
-0.040607
0.070945
-0.093860
0.011397
0.049789
-0.000578
-0.046330
-0.089719
0.043407
0.033828
0.073135
-0.065002
-0.023708
0.077957
-0.009109
0.025212
-0.065762
-0.061404
0.032776
-0.025296
-0.020600
0.055554
0.081301
-0.032550
-0.052012
-0.004739
-0.010532
-0.079838
0.010260
0.093366
0.024100
0.013258
0.060912
0.026299
0.039699
-0.038790
0.003024
0.034460
0.040700
0.014227
0.040786
0.008595
0.021191
0.075267
0.043646
0.105238
-0.083155
0.073145
0.086800
0.027627
0.083670
0.112345
0.099691
0.151909
0.096167
0.083690
0.120688
0.106323
0.125012
0.107173
0.136347
0.190320
0.152736
0.261456
0.193502
0.160863
0.255567
0.242362
0.251022
0.174884
0.229835
0.143817
0.171954
0.136308
0.175999
0.217812
0.171391
0.152163
0.122342
0.186188
0.116560
0.033846
0.142297
0.101901
0.038317
0.137380
0.078664
0.068625
0.078743
0.121842
0.041298
0.109732
0.113522
0.093761
0.118136
0.046935
0.075026
0.122379
0.142401
0.076466
0.005005
0.105848
-0.051199
-0.004354
0.054304
0.082384
0.032077
0.046068
0.110032
0.024525
0.095969
0.122176
0.217035
0.589175
0.939243
1.164837
1.421353
1.500000
1.285846
0.975002
0.749430
0.424810
0.104424
-0.114091
-0.323452
-0.197243
-0.202565
-0.163010
-0.014665
-0.022824
0.046077
0.159583
0.114030
0.070968
-0.021790
0.092144
0.082568
0.007080
0.095239
0.069074
0.062974
0.044803
0.135748
0.084237
0.148438
0.150128
0.083036
0.037091
0.169196
0.209196
0.166206
0.133265
0.121218
0.190730
0.231813
0.233347
0.291516
0.247400
0.363051
0.304237
0.359954
0.331141
0.357047
0.400370
0.367468
0.468430
0.435291
0.549716
0.500534
0.511991
0.545073
0.583293
0.568656
0.543878
0.582645
0.588383
0.590979
0.605479
0.622477
0.645533
0.575979
0.573728
0.640944
0.571760
0.501673
0.550333
0.506579
0.421305
0.510470
0.450362
0.421149
0.470787
0.358404
0.392422
0.401720
0.336634
0.293780
0.211685
0.342351
0.311699
0.159162
0.173066
0.292264
0.184369
0.214891
0.148862
0.189265
0.143687
0.148738
0.145522
0.106513
0.070027
0.186490
0.189620
0.160551
0.122405
0.085781
0.114732
0.143675
0.086829
0.139520
0.114536
0.051287
0.090468
0.226418
0.087653
0.068983
0.046507
0.058806
0.070828
0.081301
0.122059
0.113018
0.105393
0.107447
0.083197
0.121903
0.050821
0.128430
0.103137
0.031006
0.038626
0.031317
0.114207
0.098954
0.156370
0.068065
0.034787
0.057608
0.110647
0.113290
0.182542
0.022641
0.106618
0.119666
0.113243
0.080945
0.154168
0.076754
0.101115
0.180442
0.148814
0.043316
0.078307
0.125090
0.142500
0.037324
0.093268
0.099897
0.099592
0.184410
0.153613
0.168811
0.073407
0.094401
-0.001630
0.061651
0.042194
0.087273
0.017613
0.008544
0.046977
0.026399
0.103534
0.101277
0.085097
0.098198
0.107324
0.122106
0.081253
0.131312
0.080026
0.093973
0.057880
0.233727
0.154848
0.163024
0.092054
0.218335
0.114652
0.228565
0.174648
0.151451
0.185188
0.216782
0.203579
0.184344
0.264016
0.327398
0.227527
0.256160
0.318425
0.198173
0.338864
0.242720
0.216480
0.221142
0.152926
0.175134
0.140992
0.131879
0.146560
0.179052
0.153700
0.093901
0.124625
0.180874
0.133069
0.184080
0.052728
0.041054
0.111256
0.071815
0.075224
0.019233
0.111679
0.131265
0.098363
0.040708
0.050093
0.072190
0.089517
0.060226
0.072210
0.044831
0.005339
-0.012585
-0.007921
0.090670
0.059180
0.014012
-0.033842
-0.044829
0.179815
0.335679
0.596077
0.937354
1.226801
1.474651
1.427607
1.328628
1.074494
0.628118
0.375425
0.078008
-0.156853
-0.268067
-0.258154
-0.152384
-0.083006
-0.038187
0.009881
-0.023253
0.148648
0.105788
0.062597
0.106338
0.130884
0.043307
0.013249
0.108080
0.067667
0.006122
0.073731
0.144047
0.052535
0.123672
0.112657
0.148868
0.069342
0.045028
0.073707
0.162467
0.113679
0.101916
0.171739
0.157871
0.253672
0.334890
0.270343
0.177475
0.300653
0.297538
0.309337
0.270200
0.430113
0.286867
0.373603
0.449771
0.450947
0.482900
0.469759
0.506977
0.447908
0.491877
0.540449
0.500872
0.535352
0.522812
0.501054
0.596261
0.533576
0.500556
0.431197
0.477068
0.353294
0.534426
0.484586
0.403857
0.460146
0.330946
0.335285
0.334895
0.325135
0.310525
0.326427
0.257861
0.151928
0.278884
0.227750
0.132166
0.165838
0.184568
0.113925
0.111923
0.121179
0.151657
0.003407
0.109508
-0.007785
0.034802
-0.045639
0.061157
0.018350
-0.010504
0.057934
0.026057
0.039331
0.023158
0.020053
0.056235
-0.011411
-0.079314
0.015670
-0.066898
-0.003763
-0.031387
-0.032462
-0.000566
0.000151
-0.020660
0.006350
-0.105579
-0.004154
0.000973
-0.038747
-0.064533
0.026546
-0.043788
-0.045896
-0.023890
-0.045576
0.002365
-0.038804
-0.027063
-0.039308
-0.001113
-0.043528
-0.057768
-0.036546
-0.015985
0.032745
0.017108
-0.106406
-0.007643
-0.087749
-0.131189
0.037817
-0.094825
-0.004107
0.055058
-0.124943
-0.045779
-0.013289
-0.062615
-0.099995
-0.087697
-0.053144
-0.089225
-0.019189
0.012662
-0.052559
0.007203
-0.074424
-0.047492
-0.093995
-0.053884
-0.103296
-0.040907
-0.001943
-0.060054
-0.018693
-0.027749
-0.060558
-0.130580
-0.013272
-0.126588
0.019352
-0.028785
-0.007351
-0.037215
-0.034725
-0.082490
0.000323
-0.063453
-0.047158
0.033690
-0.010796
0.065712
0.007946
0.081989
-0.012973
0.055506
0.054020
0.108392
0.077016
0.076760
0.148334
0.105145
0.061414
0.122098
0.111669
0.137608
0.182891
0.097076
0.046303
0.106278
0.066783
0.117077
0.114249
0.071788
-0.004038
0.073027
0.138900
0.008407
-0.006853
0.035939
0.010746
-0.035502
-0.018136
-0.042763
0.097288
-0.001307
-0.014316
0.025334
-0.095417
-0.030427
-0.031454
-0.014071
-0.057321
-0.126607
-0.038899
0.027686
-0.039350
-0.099905
-0.052433
-0.062719
-0.067738
-0.066635
-0.092369
-0.123779
-0.123256
-0.165721
-0.163900
-0.187665
-0.015466
0.127461
0.515266
0.804311
1.058558
1.267711
1.326772
1.094705
0.841671
0.476177
0.158197
-0.179411
-0.331827
-0.348757
-0.340546
-0.312567
-0.231929
-0.099465
-0.099445
-0.068432
-0.088536
-0.098581
-0.136439
-0.048588
-0.044629
-0.122247
-0.091824
-0.046373
-0.119284
-0.067564
-0.070080
-0.022581
-0.075151
-0.001231
0.030431
-0.080824
0.032930
-0.075665
-0.026672
0.000774
0.068660
0.061975
0.008657
0.122329
0.107534
0.136840
0.157086
0.127472
0.146414
0.168511
0.195203
0.242131
0.234573
0.210016
0.365363
0.279011
0.395248
0.422114
0.354781
0.432535
0.358808
0.344147
0.434120
0.422390
0.393054
0.401196
0.449223
0.474300
0.440186
0.447151
0.401382
0.356515
0.338249
0.333701
0.391245
0.366205
0.305052
0.321894
0.276363
0.253306
0.336211
0.284732
0.238829
0.189968
0.176647
0.127759
0.096963
0.091293
0.126772
0.127383
0.067543
0.042324
0.078186
0.032853
0.035550
-0.021351
-0.008387
-0.109730
-0.012624
-0.000393
0.013748
-0.025680
0.060334
-0.025281
-0.047732
-0.019665
-0.014044
-0.003061
-0.100557
-0.094315
-0.050228
-0.085294
-0.043693
-0.023620
-0.077580
-0.035382
-0.014096
-0.045646
-0.052800
-0.077491
-0.065989
-0.091659
-0.097472
-0.048991
-0.066336
-0.032485
-0.142501
-0.007480
0.024758
-0.000482
-0.049631
-0.042470
0.031884
-0.042753
-0.112996
-0.040391
-0.032527
-0.072534
0.019041
-0.063568
0.054606
-0.052166
-0.032401
-0.085242
-0.076013
-0.023110
-0.032300
-0.015889
-0.061818
-0.018541
-0.089098
0.036491
-0.097539
-0.080302
-0.002431
-0.093990
-0.018703
0.052183
-0.052003
0.008360
-0.041468
-0.080885
-0.106785
-0.083047
-0.009386
-0.061428
-0.091926
-0.073508
-0.020216
-0.017722
-0.054402
-0.001396
0.007571
0.006646
-0.060154
-0.031753
-0.028922
-0.056032
0.019761
-0.032388
0.012774
-0.036510
0.058015
0.006155
-0.019493
0.002302
0.026800
0.126227
0.088134
0.188190
0.199295
0.117332
0.107637
0.069195
0.072043
0.150457
0.230024
0.135391
0.235151
0.119111
0.163695
0.195132
0.086683
0.113206
0.229774
0.159151
0.086371
0.136064
0.067186
0.110319
0.093824
0.126833
0.037978
0.059100
0.083794
0.108252
0.086831
0.031629
-0.018955
0.018643
-0.005677
0.004285
0.064165
-0.049047
0.006814
-0.029720
0.014305
-0.077237
0.029289
0.047819
0.028240
-0.021165
0.045705
0.072088
0.016988
-0.018390
0.072485
-0.066730
-0.068574
-0.019178
-0.099771
-0.037249
0.047012
0.337921
0.531523
0.990300
1.260584
1.380437
1.364910
1.162203
0.943506
0.612101
0.254205
0.026170
-0.232590
-0.360291
-0.270713
-0.148945
-0.062161
-0.030571
-0.028713
-0.051208
0.032269
-0.070525
0.107608
0.082918
-0.081034
0.042306
0.067522
-0.006907
0.011068
0.047937
0.003082
0.060892
0.066719
0.070213
0.091070
0.114007
0.054347
0.167760
0.092831
0.160278
0.200988
0.175428
0.248825
0.202129
0.207572
0.183797
0.261915
0.174885
0.221606
0.275540
0.286909
0.255017
0.412939
0.321845
0.361805
0.404914
0.464934
0.463458
0.446500
0.519714
0.506322
0.423159
0.528569
0.473224
0.573572
0.527744
0.580756
0.578454
0.500590
0.572484
0.559776
0.469017
0.489784
0.421600
0.594044
0.408945
0.454033
0.458871
0.405749
0.417527
0.340691
0.309980
0.360239
0.222261
0.318548
0.265151
0.229015
0.240352
0.274005
0.176414
0.163919
0.148994
0.163084
0.126309
0.124382
0.101839
0.096829
0.092104
0.151434
-0.014953
0.109326
0.037315
0.139417
0.147840
0.014775
0.045580
0.062715
0.090472
0.020365
-0.021479
0.120790
0.027782
0.031083
0.062677
0.108628
0.064931
0.094969
-0.010372
0.085516
0.067082
0.043653
0.100319
0.096610
0.107561
0.114551
-0.021034
0.036512
0.004781
0.084314
0.087336
0.120332
-0.004289
0.079026
0.016658
0.096711
0.023181
0.092696
0.124791
0.107413
0.086501
-0.020811
0.011344
0.043289
0.057400
-0.003931
0.047029
-0.008697
0.070478
0.062885
0.035817
0.042414
0.027824
0.079406
0.046204
0.022831
0.083927
0.062957
0.008753
0.026753
0.068703
0.117143
0.007077
0.096308
0.089814
0.003579
0.026248
0.058068
0.082580
0.139737
-0.006269
0.016845
0.036808
0.037103
-0.006585
0.002802
0.100851
0.029664
0.058201
0.108326
0.023644
0.027908
0.070394
0.090867
0.180331
0.035727
0.115807
0.122061
0.234662
0.168615
0.137429
0.119700
0.128547
0.176962
0.187317
0.249130
0.129638
0.216120
0.182611
0.253095
0.223422
0.267447
0.232510
0.182409
0.166460
0.310401
0.177933
0.171074
0.180992
0.115006
0.226074
0.078940
0.186044
0.101540
0.130742
0.165674
0.138818
0.061833
0.028138
-0.002147
-0.008601
0.135494
0.057543
0.141242
0.012162
0.022190
0.107560
0.036727
0.040689
0.020219
0.028513
-0.045988
0.035659
0.030040
0.083763
-0.008066
-0.011895
-0.002917
0.018081
0.044743
-0.013383
-0.072183
-0.065813
0.097692
0.305256
0.689512
0.866239
1.213487
1.416087
1.482718
1.276917
0.945186
0.529198
0.294655
0.017528
-0.252114
-0.253388
-0.328420
-0.194463
-0.094700
-0.013092
-0.059769
0.021289
-0.011414
0.013366
0.011017
0.032801
0.030337
0.011015
-0.008221
0.065770
-0.020223
0.045625
0.054494
0.008224
0.029740
0.068231
0.072116
0.106416
0.177265
0.145616
0.031600
0.073829
0.093868
0.131863
0.129331
0.130307
0.189540
0.201947
0.247272
0.263406
0.188859
0.207718
0.332928
0.305385
0.347667
0.398582
0.357090
0.401094
0.373547
0.410991
0.468557
0.493631
0.467552
0.428931
0.483431
0.650869
0.532523
0.552843
0.502750
0.550210
0.475722
0.465350
0.490272
0.439268
0.458729
0.447552
0.474736
0.411346
0.397208
0.400196
0.344877
0.395127
0.313774
0.279605
0.323652
0.248370
0.294490
0.180046
0.225210
0.177698
0.158916
0.126734
0.150577
0.248153
0.131813
0.053405
-0.026128
0.101177
0.076026
0.048469
0.028174
-0.071449
0.004599
-0.003686
-0.031459
0.039828
-0.063163
-0.012685
-0.093611
0.054672
-0.072434
0.029867
-0.076337
-0.005880
-0.087504
-0.032158
-0.035936
-0.071978
-0.072404
-0.064528
-0.076292
-0.038501
0.020551
-0.024804
-0.055578
-0.105225
-0.086796
-0.000801
-0.089555
0.026411
-0.008753
-0.103137
-0.049565
-0.088385
-0.051847
-0.042007
-0.064436
-0.113898
-0.072888
-0.055260
-0.087279
-0.053815
-0.075546
-0.041616
-0.012255
-0.096642
-0.042181
0.065985
-0.105734
-0.063931
-0.028869
0.002953
-0.158280
-0.049068
-0.156907
-0.051015
-0.039104
-0.055122
-0.096962
-0.157103
-0.032705
-0.011027
-0.011783
-0.076410
-0.086532
-0.119850
-0.076162
-0.073593
-0.054910
-0.060778
-0.059336
-0.063260
-0.059993
-0.016157
-0.047146
-0.051952
-0.104228
0.017002
-0.088198
-0.086953
-0.095297
-0.003034
-0.070764
-0.025734
0.005156
-0.055960
0.093438
-0.016778
-0.000947
0.042626
0.016107
-0.003006
0.068874
0.021689
0.088771
-0.015886
0.015356
0.156538
0.073275
0.124026
0.097635
0.085808
0.167793
0.122478
0.154878
0.092628
0.025739
0.087215
0.075821
0.104230
-0.015053
0.063436
0.006937
-0.007086
-0.007466
-0.048065
0.006839
-0.107505
0.024680
-0.080902
0.001837
-0.032659
-0.046336
0.034705
-0.026064
-0.021106
-0.070056
-0.055594
-0.091650
-0.127542
-0.096662
-0.056696
-0.096194
-0.032794
-0.094644
-0.092853
-0.141262
-0.073448
-0.098196
-0.099054
-0.096620
-0.070341
-0.263462
-0.178122
0.012321
0.192369
0.496837
0.904153
1.187747
1.314512
1.293113
1.107905
0.796542
0.507450
0.143263
-0.155438
-0.374256
-0.339601
-0.384513
-0.287112
-0.272162
-0.258149
-0.152434
-0.161204
-0.049001
-0.085563
-0.166965
-0.112326
-0.013883
-0.033072
-0.101788
-0.019939
-0.018947
-0.114239
-0.099224
-0.014983
0.036823
-0.139390
0.028065
-0.002392
-0.047684
-0.007429
-0.049142
-0.026435
0.082787
-0.004358
0.070896
0.064373
0.156625
0.117804
0.061591
0.130299
0.196964
0.223546
0.175154
0.229408
0.199840
0.280936
0.281865
0.301063
0.287255
0.339875
0.318815
0.399513
0.353319
0.395921
0.405181
0.452750
0.393670
0.363020
0.442444
0.410631
0.435928
0.430113
0.382449
0.404276
0.401136
0.402403
0.386365
0.316520
0.419334
0.232630
0.336202
0.303947
0.232322
0.185638
0.236926
0.225196
0.178500
0.110228
0.212811
0.171925
-0.030574
0.066034
0.051301
-0.027213
0.018043
-0.052369
0.013042
-0.061213
-0.033281
0.046212
-0.058489
-0.038328
-0.052914
-0.132201
-0.036699
0.027109
-0.002823
-0.079177
-0.100765
-0.172043
-0.077421
-0.052238
-0.118220
-0.100324
-0.011519
-0.017614
-0.077597
-0.090482
-0.135019
-0.121530
-0.087809
-0.015606
-0.129793
-0.087102
-0.020923
-0.077411
-0.088425
-0.159378
-0.089082
-0.113220
-0.070899
-0.054522
0.015817
-0.032314
-0.032271
-0.076984
-0.092266
-0.077081
-0.087185
-0.050170
-0.086849
-0.055886
-0.113620
-0.073311
-0.054541
-0.097002
-0.007308
-0.092717
-0.118265
-0.063285
-0.115668
-0.171215
-0.069689
-0.061336
-0.049403
-0.068975
-0.011570
-0.095735
-0.044497
-0.023577
-0.059450
-0.095022
-0.058469
-0.163241
-0.101187
-0.085575
-0.041101
0.018569
-0.057711
-0.107591
-0.029899
-0.104819
-0.076733
-0.041567
-0.091355
-0.083522
-0.037061
-0.037253
-0.069450
-0.101804
-0.011343
-0.101062
-0.004623
0.011218
-0.077226
0.013879
0.122957
-0.064553
-0.043275
0.046414
0.117950
0.046879
0.085589
0.048307
0.126583
0.104408
0.216906
0.138708
0.206732
0.112501
0.144787
0.072085
0.134979
0.176616
0.110318
0.080365
0.060177
0.075768
0.094056
0.139371
0.122959
-0.015595
0.047790
0.036092
0.031731
-0.013010
0.019152
0.001679
-0.035214
-0.015088
0.093520
0.000015
0.004201
0.000689
-0.016635
0.010234
0.002980
-0.136696
-0.002913
-0.033332
-0.025277
-0.033068
0.018254
-0.023868
-0.084872
-0.043189
0.033283
-0.063690
0.002955
-0.017068
-0.004514
-0.054101
-0.102425
-0.033265
0.049877
0.278787
0.661713
0.948426
1.355832
1.331322
1.387620
1.172473
0.885875
0.533164
0.125601
0.024079
-0.246859
-0.355167
-0.323008
-0.214616
-0.110716
-0.143543
-0.082792
0.001880
0.013209
0.015339
0.060791
0.020911
-0.048796
0.027393
0.054892
0.020361
0.037581
0.072811
0.022275
0.061380
-0.006798
0.023738
0.099510
0.099121
0.095491
0.182925
0.057006
0.104580
0.115000
0.160744
0.177393
0.157694
0.155275
0.178029
0.291053
0.261923
0.253092
0.298759
0.276937
0.382260
0.398604
0.383788
0.341699
0.457803
0.395395
0.412971
0.510436
0.518081
0.390474
0.451011
0.521514
0.516835
0.506683
0.543886
0.486298
0.571791
0.510862
0.543437
0.475316
0.469687
0.514760
0.526949
0.386113
0.451738
0.441601
0.362990
0.328182
0.335056
0.363941
0.376334
0.233927
0.346353
0.232646
0.328520
0.232498
0.276020
0.197071
0.163565
0.165254
0.203405
0.114334
0.159473
0.135985
0.198414
0.102533
0.156832
0.112683
0.059785
-0.032648
0.027335
0.095753
0.045564
0.007711
-0.006935
0.074477
0.006302
0.000614
0.005185
0.014868
-0.008127
0.095577
0.038531
0.058451
0.091298
0.059826
0.012495
0.100749
0.062167
0.047098
0.131391
0.046666
0.055951
0.079847
0.184519
0.036958
0.042106
0.022095
0.052296
0.047263
0.010324
0.093841
0.082329
0.056632
0.000265
0.045329
0.124168
0.049810
-0.010493
0.026321
0.038388
0.092148
0.070103
0.079250
0.068679
0.071179
0.033241
0.097116
0.087824
0.112777
0.027614
0.055468
0.119677
0.060461
0.011092
0.110420
0.054408
0.004238
0.037163
0.104998
0.026994
0.095440
0.031053
0.113427
0.094999
0.122970
0.101970
0.098282
0.091751
0.068835
0.134927
0.056087
0.071431
0.000609
0.116795
0.094069
0.104940
0.110556
0.106002
0.044100
0.140458
0.172299
0.105607
0.191895
0.114992
0.173808
0.162756
0.204020
0.245888
0.241974
0.123024
0.184179
0.210394
0.147628
0.202210
0.252976
0.277351
0.346861
0.247906
0.220972
0.230926
0.265526
0.166491
0.217806
0.195063
0.071358
0.216613
0.231532
0.173399
0.205419
0.126414
0.114749
0.149666
0.114555
0.084033
0.080501
0.111509
0.202535
0.020236
0.090422
0.114845
0.037803
0.088050
0.114401
0.150732
0.093470
-0.061832
0.027822
0.086830
0.091305
