-0.041442
-0.002438
-0.003101
-0.018450
-0.064369
-0.025853
0.060656
-0.036724
0.013542
-0.028066
-0.012109
0.084356
0.052185
0.006181
0.069439
0.002231
0.077898
0.069951
-0.015629
0.084335
0.004899
0.071740
0.090607
0.135295
0.084587
0.113563
0.096450
0.073850
0.141112
0.140664
0.111944
0.125929
0.168343
0.117263
0.193289
0.120352
0.193644
0.220937
0.146975
0.217751
0.155668
0.161871
0.181560
0.175389
0.180798
0.152588
0.217227
0.144475
0.071314
0.193780
0.162438
0.102112
0.132446
0.140255
0.099319
0.058508
0.071284
0.118521
0.076161
0.076323
0.099345
0.025957
0.013751
0.100883
0.060734
0.032334
0.016739
0.032913
-0.043155
0.111200
0.117105
0.002003
0.021644
0.256159
0.437726
0.755080
1.090291
1.308904
1.441528
1.291635
1.065439
0.633530
0.370862
0.143658
-0.086991
-0.157585
-0.136687
-0.081571
-0.006211
0.044670
0.057563
0.088997
0.037318
0.146076
0.159305
0.136384
0.102350
0.107161
0.153299
0.192283
0.200590
0.212987
0.187459
0.289054
0.153594
0.273622
0.320385
0.241992
0.362020
0.337340
0.283810
0.317069
0.397995
0.461296
0.435587
0.437115
0.472710
0.438509
0.444645
0.511638
0.551648
0.522046
0.516323
0.554099
0.532843
0.564029
0.475030
0.626805
0.608289
0.528482
0.553663
0.580426
0.606450
0.607547
0.576913
0.576918
0.472604
0.425914
0.436713
0.389753
0.413485
0.429322
0.366927
0.323822
0.352559
0.339594
0.329071
0.199630
0.262038
0.244740
0.255069
0.202839
0.209069
0.080519
0.242287
0.175910
0.174835
0.176453
0.168654
0.161752
0.103288
0.047373
0.085687
0.105199
0.167460
0.132390
0.110369
0.087899
0.088991
0.041675
0.058448
0.125693
0.115930
-0.018970
0.108944
0.138418
0.143562
0.169328
0.012880
0.113064
0.071522
0.086187
0.142041
0.080467
0.081769
0.094410
0.125070
0.101623
0.098707
0.149443
0.110370
0.022204
0.119908
0.070830
0.139946
0.054783
0.052290
0.046824
0.132712
0.109724
0.066504
0.068269
0.046977
0.050666
0.104526
0.149430
0.051380
0.086649
0.156949
0.079299
0.066695
0.103810
0.037494
0.130909
0.024632
0.117105
0.117292
0.187104
0.051358
0.153714
0.263030
0.110595
0.219152
0.251407
0.252818
0.253081
0.253906
0.202575
0.271404
0.268389
0.261118
0.233363
0.290070
0.268735
0.201107
0.317425
0.298121
0.215134
0.164405
0.225082
0.163682
0.222477
0.168345
0.176176
0.191507
0.217982
0.130757
0.152603
0.208689
0.110143
0.170711
0.092043
0.104898
0.183069
0.088708
0.128092
0.110585
0.134952
0.076546
0.120722
0.103508
0.041785
0.043781
0.095739
0.036688
0.063065
0.095966
0.113450
0.274919
0.439540
0.836576
1.142041
1.500000
1.477939
1.373766
1.028533
0.680511
0.250536
0.021786
-0.113043
-0.156788
-0.137586
-0.073915
-0.032060
0.030641
0.111168
0.043001
0.090337
0.180129
-0.020176
0.103224
0.141907
0.134955
0.120093
0.126331
0.129160
0.190896
0.211941
0.303348
0.191674
0.237193
0.283306
0.244196
0.285150
0.370017
0.309638
0.339440
0.448927
0.399130
0.444551
0.344205
0.492984
0.457147
0.432344
0.519773
0.662075
0.547708
0.518746
0.619074
0.584767
0.494411
0.577009
0.562932
0.574257
0.519516
0.470368
0.630142
0.553953
0.505985
0.516087
0.386175
0.427559
0.420889
0.336753
0.367920
0.392447
0.391130
0.400904
0.363767
0.333301
0.216419
0.285310
0.246852
0.226564
0.174839
0.249893
0.167744
0.153412
0.116686
0.186052
0.175831
0.168087
0.053326
0.101286
0.148826
0.105913
0.070431
0.099091
0.054167
0.081588
0.040738
0.052523
0.116418
0.025698
0.072271
0.079434
0.113409
0.016916
0.024895
0.119297
0.049550
0.024193
-0.000260
0.021183
-0.001115
-0.038076
0.058284
0.012384
0.050342
0.107763
0.009844
0.065121
0.026301
0.104349
0.073728
-0.026039
0.041345
-0.000314
0.066892
0.081470
0.069269
-0.077048
0.027618
0.079265
-0.002150
0.088003
0.012515
0.030504
-0.040990
-0.032324
0.065000
-0.038929
0.025342
0.087605
0.009032
-0.003218
0.079701
0.004453
0.056436
0.005852
0.014628
0.024867
0.000167
0.044825
0.104915
0.071631
0.067708
0.091552
0.132033
0.126250
0.135817
0.130539
0.176250
0.206034
0.181022
0.073697
0.126888
0.137446
0.126183
0.156201
0.226118
0.164527
0.267116
0.106962
0.123100
0.194438
0.161343
0.181161
0.120071
0.068450
0.115552
0.082521
0.080526
0.044229
-0.012216
0.012930
0.011072
-0.021270
0.026622
-0.066525
0.042765
-0.022034
-0.061334
0.058240
0.008882
-0.054930
-0.023695
-0.045945
0.036446
-0.038905
-0.079375
-0.016675
0.065707
0.219708
0.500215
0.865680
1.068766
1.219332
1.322169
1.125744
0.897565
0.564566
0.247964
-0.087744
-0.261948
-0.266116
-0.077241
-0.047502
-0.085834
0.047032
-0.006608
-0.016411
0.042712
-0.026168
0.012287
0.009377
0.020831
0.087786
0.034401
-0.027010
0.120193
-0.011183
-0.033573
0.116118
0.141296
0.162008
0.171725
0.235812
0.225784
0.270890
0.322701
0.159778
0.223558
0.292372
0.346666
0.325034
0.352561
0.535876
0.403977
0.402258
0.436428
0.453030
0.478419
0.515586
0.423143
0.480852
0.435725
0.418222
0.397326
0.522418
0.462951
0.477255
0.474920
0.379342
0.355985
0.474763
0.347671
0.405066
0.309941
0.301072
0.220496
0.312956
0.236757
0.266036
0.177299
0.194099
0.134929
0.131045
0.148678
0.099151
0.100802
0.137334
-0.050009
0.042150
0.003686
0.120541
0.042726
0.054176
-0.069907
0.037620
-0.006587
0.023682
-0.115679
-0.065077
0.043825
-0.067268
-0.072570
-0.028242
0.032227
0.002525
-0.019933
0.000557
-0.048575
-0.075864
0.004619
-0.111242
-0.029413
-0.027458
-0.012785
-0.134195
-0.025919
-0.059685
0.005934
-0.023512
0.043433
-0.091929
-0.002235
-0.005206
-0.025062
-0.053987
-0.061893
-0.000576
-0.071833
-0.043617
-0.018666
-0.008354
-0.074390
-0.096393
0.060810
-0.024431
-0.088503
0.012605
-0.033148
-0.025108
-0.100052
-0.067974
-0.053804
-0.116065
-0.046556
-0.058521
0.012778
0.052531
0.007872
-0.002156
0.013557
-0.013057
-0.044740
0.025908
0.026458
0.064009
0.035335
0.080896
0.050060
0.071353
0.045017
0.206689
0.145933
0.153247
0.221794
0.036934
0.214687
0.079848
0.060675
0.129859
0.129559
0.154600
0.162560
0.153555
0.161532
0.121822
0.163375
0.118150
0.088130
0.037898
0.038247
0.078497
0.021817
-0.041211
0.011483
0.035427
-0.037784
-0.019617
-0.043646
-0.092908
0.041986
0.002618
-0.114831
-0.006754
-0.019673
-0.011495
-0.069674
-0.006542
-0.039567
-0.065239
0.028623
0.044589
-0.029442
0.027559
0.255819
0.594289
0.855263
1.132037
1.381478
1.337650
1.129346
0.764433
0.493678
0.070107
-0.090910
-0.157138
-0.247920
-0.239950
0.033243
-0.055063
0.068141
-0.035463
-0.005493
0.004604
0.117236
0.009524
0.128690
0.009426
0.114551
0.055654
0.175879
0.061833
0.057566
0.163569
0.157474
0.193164
0.251584
0.279174
0.320229
0.265453
0.186064
0.283313
0.281653
0.350899
0.401687
0.333325
0.363537
0.419478
0.355826
0.470641
0.451767
0.479715
0.438693
0.603488
0.501450
0.545526
0.448302
0.546738
0.470527
0.606623
0.523464
0.534894
0.470880
0.544894
0.468545
0.474236
0.361333
0.326858
0.420356
0.432197
0.420292
0.356755
0.424897
0.342895
0.256742
0.265933
0.228158
0.163314
0.297443
0.135356
0.206629
0.172797
0.135959
0.173402
0.042114
0.101555
0.014077
0.082052
0.147436
0.102957
0.096683
0.077398
0.013864
0.059541
0.090091
0.079588
-0.011917
0.036147
-0.005524
0.123790
0.093520
0.085835
0.127440
0.020939
-0.006215
0.020930
0.077598
0.039699
-0.006632
0.053287
0.050362
0.036552
0.018587
0.102115
0.020401
0.096289
-0.020839
0.058900
0.100035
0.062896
0.043176
0.054646
0.011403
0.022202
0.025734
0.002361
0.017187
0.087082
0.047840
-0.085408
0.039536
-0.054260
0.000980
0.089424
0.074232
0.027902
0.032140
0.052496
0.023153
0.110893
0.047516
0.042111
0.050892
0.098842
0.125738
0.074862
0.127212
0.056392
0.092661
0.157041
0.074157
0.146465
0.129333
0.135700
0.201294
0.176364
0.210659
0.135812
0.176439
0.179849
0.228144
0.251920
0.210993
0.283754
0.276249
0.197439
0.282581
0.243166
0.194431
0.200813
0.178770
0.299525
0.258278
0.194911
0.178816
0.208310
0.126214
0.107670
0.184550
0.147396
0.152290
0.073817
0.063221
0.110977
0.005203
0.079521
0.107796
0.118511
0.119144
0.117682
0.128660
0.040121
0.083776
0.006625
0.070981
0.053414
0.014699
0.092730
0.180680
0.395391
0.667319
1.039642
1.332299
1.452148
1.340199
1.242430
0.875845
0.479639
0.210178
-0.063457
-0.139861
-0.194701
-0.112951
0.063500
0.098884
0.103296
0.046935
0.095094
0.054301
0.128741
0.238910
0.114656
0.193232
0.082228
0.186649
0.188209
0.190798
0.269451
0.227667
0.223846
0.292923
0.215844
0.329563
0.348703
0.297631
0.392045
0.364279
0.397622
0.429864
0.432233
0.487514
0.445594
0.516476
0.464912
0.580617
0.584193
0.651709
0.606722
0.641897
0.531613
0.626627
0.588495
0.552858
0.635578
0.549177
0.619126
0.518280
0.630881
0.595166
0.548355
0.547651
0.530055
0.466624
0.492857
0.537271
0.400372
0.425541
0.392002
0.403449
0.446039
0.336912
0.286872
0.327348
0.250298
0.254806
0.217771
0.266647
0.244652
0.187507
0.211281
0.263299
0.116281
0.076611
0.139522
0.167839
0.143488
0.107560
0.066655
0.051781
0.140806
0.024864
0.233316
0.057812
0.104015
0.118403
0.083182
0.083366
0.187846
0.137651
0.073402
0.084034
0.099839
0.072927
0.156778
0.096120
0.029687
0.060694
0.137784
0.120664
0.090929
0.015877
0.173695
0.059820
0.071927
0.077706
0.137692
0.167415
0.119920
0.104387
0.079514
0.100386
0.107338
0.066363
0.048280
0.110140
0.091849
0.131764
0.094975
0.077083
0.085591
0.105032
0.115215
0.146451
0.085028
0.080450
0.133044
0.083208
0.089856
0.080082
0.106309
0.158128
0.160179
0.091081
0.161032
0.155375
0.121008
0.076176
0.187646
0.207161
0.185266
0.156711
0.238634
0.163160
0.215815
0.215100
0.268031
0.240786
0.309507
0.305158
0.258030
0.297991
0.263780
0.230798
0.296750
0.225184
0.285487
0.191920
0.191932
0.203539
0.176218
0.216073
0.186663
0.215899
0.080227
0.174020
0.133136
0.172334
0.059635
0.053068
0.103616
0.135458
0.078831
0.050810
0.046043
0.101297
-0.003159
0.038639
0.087848
0.130003
0.008881
0.079926
0.083438
0.053389
0.289186
0.502292
0.795572
1.121096
1.401367
1.402984
1.388717
1.103983
0.736456
0.369542
0.090057
-0.010642
-0.170201
-0.140814
-0.060391
0.004424
0.043281
0.090282
0.120995
0.121575
0.161746
0.135501
0.098320
0.201645
0.119192
0.127550
0.184882
0.190097
0.150058
0.237805
0.186861
0.176705
0.242650
0.171230
0.276822
0.335849
0.277494
0.293543
0.395731
0.357986
0.291251
0.375833
0.404961
0.455370
0.527146
0.516847
0.535882
0.528656
0.502289
0.513300
0.552736
0.552058
0.552062
0.520693
0.480687
0.534438
0.553717
0.591272
0.534367
0.573389
0.520053
0.443914
0.477704
0.462190
0.392680
0.454824
0.399702
0.279755
0.417347
0.280050
0.279292
0.279473
0.320609
0.265949
0.166044
0.262486
0.180058
0.222031
0.145211
0.161676
0.160657
0.172744
0.080652
0.116239
0.020618
0.139991
0.012591
-0.010444
0.050492
0.021986
0.055906
0.005365
0.075920
0.026485
0.058007
0.037870
-0.001032
-0.024338
-0.004695
0.194085
0.048125
0.001211
-0.009992
0.021223
0.013694
-0.012199
-0.105862
0.018522
0.065712
0.036843
0.017155
-0.016264
-0.091013
-0.038587
-0.069495
-0.019507
0.042884
0.012388
-0.014588
-0.013982
-0.068513
-0.065367
0.061357
0.039026
0.012675
0.026957
-0.044392
-0.033342
-0.005587
-0.019165
-0.032354
-0.023823
-0.049980
-0.048187
-0.055196
-0.041122
-0.035556
0.006864
-0.018908
-0.049986
0.024985
-0.026842
-0.035923
-0.051235
-0.035779
0.108461
0.043405
-0.023365
-0.004918
0.031496
0.085756
0.015825
0.042104
0.119598
0.107406
0.184653
0.081688
0.087630
0.165600
0.114383
0.140500
0.100925
0.165283
0.200354
0.146810
0.166704
0.169819
0.121901
0.202706
0.043247
0.042109
0.048835
0.050764
0.017048
0.083300
0.086906
0.003819
0.084823
0.020378
0.009609
0.026214
0.025035
-0.030788
0.034473
-0.062075
-0.135552
0.000548
-0.026196
-0.044786
-0.148550
-0.050673
0.055772
0.013075
-0.066801
0.098508
0.187165
0.366969
0.783865
0.997602
1.327530
1.364599
1.222012
0.940950
0.543420
0.133062
0.012493
-0.223438
-0.235665
-0.211000
-0.125110
-0.059833
-0.029241
-0.029840
-0.036390
-0.071526
-0.023469
-0.112428
-0.006243
-0.025826
0.060150
-0.001044
-0.037997
0.059079
0.074196
0.072957
0.058961
0.171344
0.055733
0.152940
0.128615
0.158872
0.123449
0.187249
0.215601
0.196167
0.255608
0.258611
0.355328
0.353028
0.368005
0.403219
0.387159
0.316670
0.420281
0.416634
0.457258
0.390313
0.480624
0.402636
0.450986
0.425505
0.405206
0.352878
0.418101
0.360336
0.401189
0.389283
0.364679
0.369014
0.406348
0.265761
0.292054
0.286815
0.189773
0.236361
0.207927
0.183839
0.173054
0.179568
0.059207
0.062015
0.117081
0.124845
0.125051
0.040881
0.014913
0.006633
0.002154
-0.009256
0.044493
-0.014656
0.077827
-0.060951
-0.104921
-0.111430
-0.055964
-0.088257
-0.020698
-0.062844
-0.148666
-0.141553
-0.099386
0.010335
0.041284
-0.076197
-0.049239
-0.025434
-0.075421
-0.137912
-0.031771
-0.052376
-0.066088
-0.104648
-0.071592
-0.048252
-0.047037
-0.067761
-0.056328
-0.030828
-0.060499
-0.113672
-0.109615
-0.115787
-0.041119
0.002874
-0.119946
-0.045875
-0.089488
-0.066212
-0.035462
-0.076390
0.002624
-0.072224
-0.010878
-0.127217
-0.061143
-0.011954
-0.082410
-0.023107
-0.026211
-0.057865
-0.116447
0.020012
-0.119694
-0.145888
-0.075229
-0.098250
-0.093033
-0.062027
0.028544
-0.027363
-0.042857
0.015357
0.041724
0.031718
0.055153
0.048281
-0.030805
0.030378
0.020397
0.055460
0.061899
0.115406
0.153169
0.085660
0.122190
0.078023
0.176173
0.079763
0.091804
0.062632
0.005757
0.051268
0.058779
0.109816
0.039151
0.053506
0.034145
0.063208
-0.044861
0.028857
0.011120
-0.039344
-0.021064
0.028050
0.011406
-0.091579
-0.050926
0.002191
-0.003763
-0.041595
0.049759
-0.011676
-0.021117
-0.078062
-0.062569
-0.075819
-0.078926
-0.084320
0.050210
0.215023
0.481152
0.747765
1.069843
1.275015
1.369163
1.180681
0.957611
0.461259
0.132730
-0.139119
-0.306537
-0.347571
-0.240049
-0.122809
-0.099374
0.028446
-0.103583
-0.008581
0.040263
0.018818
-0.032824
-0.094405
-0.000277
0.016210
0.032513
0.025259
0.131362
0.114985
0.076712
0.098077
0.093922
0.162286
0.138347
0.261198
0.203471
0.261329
0.213062
0.216074
0.330935
0.306723
0.353992
0.409469
0.366902
0.412510
0.381369
0.485742
0.403109
0.484580
0.480899
0.455164
0.499139
0.476776
0.447504
0.481203
0.482653
0.402364
0.497609
0.405704
0.518476
0.470643
0.487755
0.515527
0.344075
0.392116
0.431715
0.343328
0.262498
0.357366
0.310097
0.250399
0.239058
0.307945
0.092312
0.174429
0.186331
0.089204
0.206920
0.130892
0.046055
0.074896
0.110371
0.075871
0.045226
0.020053
0.109807
-0.041686
0.140038
0.060967
0.032280
0.000940
0.037308
-0.018982
-0.003126
0.050921
-0.100811
0.044251
0.051070
0.043606
0.000805
0.020657
0.017626
-0.016456
0.025119
-0.022412
-0.006910
0.054720
0.023282
-0.053872
0.047596
-0.059347
-0.019574
-0.093456
-0.051071
-0.040420
-0.004020
0.011388
0.012017
0.053110
-0.133847
0.044326
0.051554
-0.094612
-0.024269
0.047024
-0.016805
-0.013685
0.022113
0.049996
-0.003524
0.060004
0.000311
-0.003407
-0.027367
0.065449
0.024741
-0.052663
-0.003509
0.065178
0.052654
0.014781
-0.028346
0.040981
0.044599
-0.006882
0.061992
0.040211
0.010567
0.101975
0.148881
0.163141
0.168061
0.178624
0.094323
0.119201
0.158586
0.146795
0.152826
0.129266
0.248523
0.213432
0.208225
0.133135
0.194838
0.179146
0.091708
0.187771
0.165913
0.123951
0.152901
0.234319
0.154691
0.134034
0.087454
0.033540
0.116754
0.131792
0.044376
0.025147
0.066645
-0.005778
0.076695
0.072101
0.061752
0.050261
0.039336
0.029158
0.094909
-0.011001
-0.019055
0.061888
0.011177
-0.024486
0.035696
0.024738
0.327527
0.636648
0.915688
1.182769
1.320009
1.409619
1.162843
0.884462
0.486215
0.212911
0.005558
-0.072004
-0.115676
-0.102966
-0.013891
0.062758
0.103083
0.014962
0.060001
0.115109
0.120431
0.085881
0.018078
0.127640
0.090455
0.137674
0.162085
0.138572
0.154224
0.249976
0.219352
0.201906
0.260592
0.228547
0.329520
0.307883
0.289208
0.351674
0.305121
0.221766
0.347414
0.420027
0.508438
0.546342
0.468244
0.491382
0.409288
0.517287
0.539773
0.585011
0.514879
0.565245
0.615393
0.561341
0.528177
0.530381
0.537259
0.549148
0.509025
0.545270
0.529618
0.495394
0.412594
0.499774
0.509226
0.397879
0.437352
0.330697
0.450863
0.313173
0.231107
0.246986
0.253367
0.234225
0.241150
0.122313
0.199923
0.235156
0.188499
0.159983
0.180045
0.131462
0.166490
0.123126
0.153345
0.092723
0.105959
0.169988
0.021197
0.102515
0.069963
0.012380
0.009811
-0.013242
0.015761
0.054605
0.101801
0.089679
0.040136
0.154210
0.095217
0.070580
0.057478
0.021138
0.057534
0.024221
0.102019
0.035136
0.153221
-0.013716
0.023719
0.036261
0.046507
0.055574
0.046460
0.019942
0.080643
-0.048397
0.016771
0.057042
0.024452
-0.030158
-0.058769
0.029466
-0.002203
0.051577
0.085429
-0.046554
0.027110
0.033220
-0.045057
0.095943
0.080883
0.023718
-0.032793
0.059154
0.059145
0.055798
0.082002
0.057749
-0.026405
0.047177
0.028730
0.052487
0.073091
0.068399
0.095875
0.135175
0.091732
0.158930
0.111700
0.131800
0.221917
0.180596
0.171794
0.192143
0.165097
0.162939
0.283339
0.202168
0.250221
0.219813
0.250663
0.163470
0.212577
0.223410
0.214280
0.289022
0.136680
0.147536
0.200494
0.142609
0.083223
0.086480
0.068709
0.093142
0.098176
0.038472
0.046307
-0.068178
0.041250
0.032531
0.104144
-0.009286
0.027026
-0.028461
0.006754
-0.033156
0.014926
0.034110
0.006405
0.076216
0.021938
-0.043146
0.187536
0.329861
0.598966
0.981043
1.211738
1.341209
1.306131
1.080412
0.799927
0.379668
0.042419
-0.147796
-0.217593
-0.237418
-0.153081
0.021855
-0.037151
-0.024607
0.018653
0.101808
0.047941
0.074023
0.028396
0.096352
0.057318
0.047924
0.029043
0.007382
0.125296
0.079499
0.050009
0.174045
0.207733
0.227574
0.277157
0.193889
0.257846
0.281375
0.330182
0.318016
0.330623
0.294273
0.346923
0.309562
0.425871
0.427734
0.416903
0.401855
0.517987
0.443713
0.494680
0.544246
0.578705
0.533792
0.491649
0.515045
0.453227
0.468400
0.531136
0.505750
0.503623
0.371502
0.364264
0.480894
0.469317
0.333025
0.316959
0.280865
0.382790
0.272503
0.249771
0.216720
0.248993
0.248330
0.117342
0.163454
0.139918
0.065133
0.122336
0.043953
0.088596
0.048058
-0.000318
0.017254
0.100833
0.050749
-0.035299
0.081838
-0.114222
0.008337
0.004991
-0.109006
-0.071691
-0.006986
-0.058066
0.028953
-0.028683
-0.047277
-0.086858
-0.015399
-0.119237
0.005380
-0.024234
-0.033222
-0.117182
-0.025131
0.006369
-0.057513
-0.035146
-0.025947
-0.022785
-0.100027
-0.016865
0.001476
0.026555
0.051448
0.031359
-0.076579
-0.104335
-0.079142
-0.061258
-0.092981
-0.009538
-0.031271
-0.104490
-0.045067
-0.020414
-0.023590
-0.054670
-0.036864
-0.066905
0.035642
-0.116968
-0.022894
-0.093939
-0.026273
-0.044259
-0.090868
-0.147635
-0.094840
-0.060893
0.011425
-0.014535
-0.019049
0.000536
-0.030084
-0.064560
-0.024122
-0.051314
0.042530
0.071925
0.039134
-0.046555
0.030955
0.022910
0.030145
0.009199
0.139435
0.035224
-0.022985
0.097950
0.143145
0.068100
0.051393
0.101681
0.111473
0.038532
0.079577
0.095569
0.119219
0.077436
0.081887
0.084974
-0.014865
-0.026361
0.017199
-0.065428
-0.097180
-0.071474
-0.049543
-0.090435
-0.054284
-0.035236
-0.038673
-0.111159
-0.084035
-0.108215
-0.059791
-0.037202
-0.123930
-0.121230
-0.063877
-0.104314
-0.115909
-0.102724
0.112048
0.259809
0.555914
0.943185
1.201653
1.253523
1.270806
1.058856
0.547125
0.218309
-0.068144
-0.252684
-0.383569
-0.295793
-0.289937
-0.185993
-0.110415
-0.086658
-0.031481
-0.074568
-0.123490
0.003541
-0.140138
-0.082471
-0.013752
0.020953
-0.004659
0.050591
0.022867
0.094666
0.053589
0.074860
0.000071
0.079080
0.160573
0.179986
0.116507
0.155928
0.193401
0.171391
0.293474
0.263142
0.301325
0.291027
0.248663
0.304484
0.358952
0.368748
0.398948
0.304959
0.416239
0.473018
0.421216
0.433857
0.407319
0.385398
0.439103
0.426724
0.432736
0.465488
0.372849
0.363263
0.407693
0.408731
0.335508
0.251751
0.187626
0.266526
0.163113
0.232472
0.130816
0.130712
0.170364
0.152090
-0.003563
0.106391
0.046803
0.063518
0.126133
0.101592
0.052003
0.072037
0.012013
-0.044291
-0.037908
-0.054077
0.013177
-0.020566
-0.041748
0.005378
-0.064894
-0.004044
-0.034051
-0.076245
-0.112294
-0.099413
-0.162395
-0.030015
-0.070664
-0.109133
-0.054388
-0.156003
-0.125249
-0.026865
-0.022739
-0.136363
-0.139064
-0.167804
-0.140334
-0.049095
-0.178414
-0.076117
-0.143763
-0.166109
-0.064047
-0.134148
-0.111032
-0.072893
-0.063272
-0.072962
-0.068660
-0.088545
-0.125941
-0.051488
-0.047011
-0.046843
-0.089031
-0.083876
-0.033190
-0.079769
-0.036298
-0.069530
-0.037833
-0.121204
-0.134047
-0.152861
-0.093398
-0.115210
0.009411
-0.053861
-0.064740
-0.053122
-0.084365
-0.075776
-0.097190
-0.034548
-0.063140
-0.051545
-0.001730
-0.023163
0.103596
0.053878
0.068510
0.011244
0.080401
0.095623
0.079892
0.089965
0.091281
0.160562
0.098770
0.137825
0.154534
0.161126
0.062696
0.127561
0.136730
0.054095
0.074127
0.052834
-0.018596
-0.041310
0.075267
0.063661
0.007556
0.025972
0.002436
-0.006071
-0.034259
-0.063441
-0.034220
-0.050284
-0.024848
-0.031351
-0.080522
-0.072954
-0.058487
-0.055652
-0.066456
-0.007577
-0.100208
-0.005498
-0.142188
-0.090409
-0.043384
0.173190
0.413016
0.723538
0.985387
1.289311
1.354928
1.198955
0.919926
0.500028
0.235190
-0.048962
-0.230323
-0.279890
-0.144760
-0.126930
-0.011190
0.001651
-0.001299
-0.088323
-0.004113
0.000980
0.033538
-0.066348
0.118567
-0.027223
0.037512
0.091937
0.073172
0.072232
0.083362
0.206574
0.126140
0.096398
0.176117
0.221380
0.226103
0.267684
0.261066
0.321290
0.324719
0.382623
0.299098
0.395681
0.372309
0.378694
0.421751
0.375201
0.427228
0.354990
0.432656
0.476535
0.503854
0.521141
0.450719
0.507834
0.423698
0.501596
0.491761
0.458003
0.484561
0.348595
0.409061
0.386181
0.446228
0.362210
0.369844
0.380483
0.363440
0.306301
0.288053
0.310350
0.253795
0.231760
0.257424
0.181876
0.236610
0.179022
0.163615
0.157919
0.097760
0.092033
0.066105
0.127732
0.087788
0.063897
0.066491
0.075875
-0.026256
0.088709
0.061713
-0.000340
0.038277
0.021250
0.033592
-0.027825
0.029880
-0.066083
0.030283
0.107169
0.028604
0.073275
0.030414
-0.038928
-0.011895
0.033523
0.004040
-0.024040
-0.006801
0.007086
0.009517
-0.069456
0.045265
0.043779
-0.053791
-0.002887
-0.022317
0.013385
-0.048881
-0.023403
0.000782
0.075070
-0.024804
0.049355
0.021837
0.001737
0.083292
-0.038106
-0.003280
0.044132
0.005378
-0.021762
0.081856
0.078663
0.097392
0.144959
0.021131
0.085634
0.072310
0.108055
0.073054
0.076362
0.079381
0.066472
0.049611
0.010777
0.110611
0.037837
0.030506
0.096248
0.118193
0.119506
0.141909
0.237624
0.163532
0.187650
0.197094
0.199223
0.302945
0.250283
0.233036
0.160975
0.178022
0.270496
0.314435
0.150921
0.186837
0.230232
0.148352
0.201154
0.186650
0.194127
0.118151
0.180582
0.150950
0.089423
0.069814
0.129575
0.177389
0.054093
0.117544
0.067608
0.066314
0.180921
0.088164
0.040854
0.031132
0.068905
0.070566
0.089139
0.117998
0.060804
0.091024
0.075776
0.130809
0.142388
0.370167
0.593349
0.896919
1.192716
1.396785
1.410036
1.268417
0.968092
0.548097
0.276530
-0.015124
-0.129461
-0.213785
-0.135820
-0.046059
-0.014696
0.123759
0.132046
0.125904
0.018025
0.154780
0.078738
0.176952
0.121767
0.102246
0.173286
0.182522
0.218539
0.237031
0.204124
0.233592
0.246292
0.291061
0.280803
0.330205
0.284725
0.301455
0.319822
0.315604
0.425540
0.452703
0.475594
0.460933
0.439472
0.485333
0.517740
0.557065
0.555402
0.608312
0.509455
0.513087
0.584233
0.601183
0.601806
0.594579
0.617290
0.567140
0.577443
0.545888
0.633858
0.512941
0.422216
0.531084
0.555526
0.494249
0.394375
0.464747
0.333005
0.358425
0.376713
0.302742
0.268489
0.319695
0.276959
0.268922
0.297503
0.229122
0.193802
0.198866
0.221893
0.235684
0.172788
0.213430
0.191855
0.176604
0.152075
0.060256
0.138006
0.110414
