0.006204
-0.046041
0.066734
0.020969
-0.048099
-0.028932
-0.010287
0.002892
-0.043065
0.056372
0.060960
0.016151
0.010309
0.011875
0.034549
-0.127860
0.076851
-0.006355
0.050036
-0.038722
0.047513
0.049132
0.043135
0.029482
0.036310
0.029954
0.102873
-0.074552
0.004738
0.025648
0.094040
0.037352
0.051687
0.033320
0.142859
0.070865
0.153676
0.180908
0.123872
0.173338
0.118663
0.163053
0.161549
0.114783
0.143735
0.201743
0.209016
0.164109
0.198108
0.173804
0.191250
0.205831
0.221809
0.121379
0.227889
0.205779
0.098584
0.164721
0.124872
0.087687
0.076733
0.073111
0.120925
0.118397
-0.003629
0.092160
0.087935
0.065976
0.075968
0.101603
0.081657
0.075976
0.077685
-0.009456
-0.003754
0.047885
0.032322
0.070696
-0.011525
-0.031326
0.069022
0.119080
0.034393
0.007585
-0.001189
0.024061
0.008459
-0.013082
0.104789
0.191130
0.557948
0.843805
1.122790
1.368777
1.460184
1.371957
1.075538
0.810496
0.378399
0.149492
-0.132438
-0.173798
-0.214462
-0.110638
-0.099445
0.035808
-0.028028
0.030175
0.038586
0.129803
0.097197
0.014353
0.069036
0.093912
0.154198
0.108440
0.121477
0.135125
0.141740
0.090257
0.109255
0.146922
0.080644
0.183120
0.057224
0.092884
0.214414
0.221267
0.205805
0.177536
0.290068
0.261061
0.377240
0.313890
0.329199
0.365767
0.339514
0.417511
0.296474
0.400453
0.483733
0.444967
0.401989
0.511940
0.501179
0.576053
0.469966
0.579714
0.575073
0.544009
0.568777
0.608261
0.535104
0.582410
0.552025
0.665218
0.583157
0.581935
0.537053
0.632617
0.475011
0.579127
0.486769
0.410579
0.448332
0.423501
0.362199
0.354356
0.454141
0.378884
0.371185
0.346955
0.257437
0.301013
0.251749
0.232099
0.240081
0.204061
0.151500
0.214566
0.126078
0.260641
0.205658
0.172958
0.129039
0.153015
0.121046
0.083091
0.079684
0.041982
0.126968
0.049688
0.088222
0.114955
0.129948
0.127294
0.077538
0.086499
0.054861
0.077294
0.126734
0.072021
0.024588
0.079798
0.131506
0.139505
0.043681
0.114416
0.097918
0.079805
0.093564
0.107772
0.155441
0.058225
0.077611
0.136072
0.156467
0.089088
0.154153
0.144216
0.040272
0.094835
0.045813
0.113392
0.037060
0.018464
0.054770
0.106627
-0.020186
0.057899
0.134444
0.062808
0.109990
0.052111
0.105265
0.164506
0.102775
0.065583
-0.001393
0.023058
0.025031
0.042007
0.121033
0.125047
0.066273
0.109091
0.094697
0.039949
0.093437
0.169816
0.145989
0.113133
0.057701
0.094535
0.100652
0.069478
0.018034
0.028118
0.072048
0.084405
0.031099
0.133447
0.103916
0.101875
0.074799
0.151940
0.117667
0.214668
0.066688
0.135775
0.176948
0.208905
0.194435
0.270189
0.232905
0.201040
0.234675
0.236510
0.208870
0.199962
0.223353
0.272842
0.224697
0.206133
0.182640
0.154312
0.202040
0.226289
0.191320
0.266683
0.190534
0.162307
0.127418
0.040553
0.090599
0.155941
0.177278
0.104410
0.147618
0.086873
0.057067
0.108044
0.097201
0.121683
0.123028
0.041841
0.071644
0.091396
0.034276
0.051807
0.032220
0.094132
0.012684
0.116495
0.092218
0.067631
0.034066
0.035358
0.035733
0.055773
0.049061
0.027699
-0.014306
0.175657
0.376707
0.751699
1.010834
1.336786
1.428567
1.420435
1.167136
0.843473
0.595595
0.223820
-0.063843
-0.208011
-0.298391
-0.170649
-0.053583
-0.117881
-0.020643
0.053517
0.051432
0.141271
0.111983
0.137893
0.044125
-0.028317
0.057738
0.056548
0.041798
0.085454
0.095227
0.066582
0.101400
0.185508
0.097502
0.135217
0.090015
0.136701
0.193887
0.142164
0.195354
0.197599
0.219328
0.128347
0.255845
0.180030
0.263021
0.249763
0.304929
0.179847
0.287967
0.335069
0.467556
0.413764
0.492546
0.434991
0.424352
0.411603
0.506579
0.478923
0.552327
0.541828
0.426408
0.528329
0.563381
0.485291
0.627263
0.582672
0.419841
0.501104
0.499244
0.511054
0.443801
0.508089
0.414565
0.375681
0.398053
0.392050
0.334131
0.351976
0.366356
0.257943
0.318563
0.267532
0.269832
0.232991
0.209961
0.162162
0.175396
0.094552
0.112639
0.072765
0.068188
0.068889
-0.022515
0.098912
0.137740
0.046304
0.100297
0.024295
0.039173
-0.023952
-0.023480
-0.041490
0.007124
0.008808
0.020928
-0.065389
0.022979
0.050342
0.059560
0.040414
-0.050567
0.016920
-0.064437
-0.039050
-0.000767
-0.061736
0.011892
-0.038433
-0.034688
0.021030
0.000226
0.070298
-0.065917
0.027176
-0.045204
-0.068074
-0.032968
-0.007646
-0.088196
0.011781
-0.003880
-0.020678
0.025030
-0.044771
0.048604
-0.055909
-0.073125
0.010304
-0.018548
-0.034417
-0.014422
-0.023521
-0.000664
0.007372
-0.072273
0.003879
-0.074892
-0.049439
0.048549
-0.028740
0.072271
-0.052137
-0.030483
0.018267
-0.007433
0.017687
0.031370
-0.061688
-0.029906
-0.008619
-0.016829
-0.009973
-0.015300
0.058220
-0.013741
-0.001289
0.023858
-0.009612
0.014792
-0.028645
-0.045121
0.025890
0.034485
0.054369
0.055303
0.005865
-0.026574
-0.014285
-0.020645
0.029682
0.034963
0.009701
0.068560
0.072936
0.087590
0.148646
0.183122
0.079722
0.175600
0.136170
0.064983
0.063751
0.085088
0.101189
0.055636
0.052036
0.091918
0.129178
0.149698
0.094272
0.122192
0.094757
0.036445
0.029519
0.036956
0.067734
0.047308
0.098196
0.002561
0.001864
-0.016874
0.059847
-0.028121
-0.037817
-0.057858
-0.038427
-0.050560
-0.063866
-0.057604
-0.042883
-0.034959
-0.103693
-0.045821
-0.070580
-0.101230
-0.056287
0.014365
-0.068817
-0.008466
-0.059612
-0.034160
-0.068284
-0.099568
0.030926
0.251693
0.431732
0.716646
1.053094
1.334234
1.303286
1.223065
0.878673
0.457041
0.220788
-0.074510
-0.263161
-0.399443
-0.329740
-0.223084
-0.213073
-0.028593
-0.039688
-0.044868
-0.008658
0.025345
-0.028587
-0.054303
-0.066359
-0.045825
-0.043662
-0.004111
-0.063075
0.012754
-0.015277
-0.056301
-0.035222
0.003416
0.042785
0.029630
0.109966
0.151026
0.082935
0.124230
0.042706
0.094814
0.092856
0.101806
0.144320
0.182813
0.224265
0.184868
0.235953
0.314222
0.237908
0.286237
0.317856
0.413556
0.404931
0.401506
0.343993
0.413249
0.422793
0.409700
0.491087
0.352736
0.480513
0.570238
0.609551
0.397496
0.450595
0.359404
0.449353
0.387701
0.469642
0.319747
0.431491
0.367361
0.468081
0.426981
0.345542
0.271436
0.301085
0.225778
0.280089
0.238571
0.162733
0.218902
0.172040
0.079185
0.196693
0.095023
0.077131
0.161905
0.083518
0.040029
0.057869
0.027936
0.006407
0.025835
-0.094279
0.043731
-0.002238
0.109224
0.037987
-0.111275
-0.048481
-0.030907
0.069764
0.056117
0.068907
0.025497
0.018469
0.003569
-0.071288
-0.029017
-0.047870
0.013107
-0.054901
0.053887
-0.016822
0.017069
0.038243
0.046075
0.065793
-0.017763
0.040683
0.026047
-0.021801
0.026293
0.028206
-0.004793
-0.016585
-0.044442
-0.010360
0.001190
-0.070769
0.035798
0.000556
-0.079883
-0.020284
-0.033686
-0.042195
0.019878
-0.014397
0.024265
0.017887
-0.013493
-0.042687
-0.049498
0.045649
-0.014602
0.021962
-0.044096
0.015690
-0.000803
-0.020643
-0.002367
0.032308
0.081409
0.077439
0.009130
-0.059288
0.049186
-0.072002
-0.021686
0.038987
0.094395
0.047165
0.040136
-0.001087
-0.047493
0.011905
0.072055
0.034088
0.003512
0.012108
0.064937
0.042025
0.012218
0.045334
0.046984
0.012576
0.066763
0.116328
0.140653
0.062637
0.156738
0.133312
0.076940
0.101968
0.107799
0.188601
0.231536
0.147647
0.116558
0.215700
0.257741
0.122960
0.156439
0.183797
0.134650
0.136664
0.181299
0.170606
0.153713
0.145722
0.132864
0.027000
0.059949
0.116608
0.157493
0.049078
0.000559
0.141518
0.141070
0.054029
0.143558
-0.018828
0.008802
-0.017182
0.014951
0.070921
0.065864
0.065278
0.005951
0.021332
-0.013236
0.043559
-0.004577
0.085911
-0.004918
0.128398
0.080266
-0.024219
0.066582
0.029831
0.050100
0.085626
0.187502
0.364894
0.811844
1.193941
1.404589
1.500000
1.319482
1.055982
0.814252
0.426245
0.108149
-0.105730
-0.194658
-0.256122
-0.151504
-0.152833
0.012903
-0.043073
0.004322
0.096838
0.025929
0.058113
0.047110
0.030548
0.060868
0.061818
0.041110
0.133034
0.062627
0.158581
0.099753
0.058342
0.117301
0.174149
0.133180
0.211811
0.063525
0.116134
0.222709
0.160079
0.220341
0.253234
0.212664
0.360268
0.309121
0.249497
0.372953
0.271709
0.309925
0.479194
0.416725
0.337968
0.438358
0.423708
0.443451
0.495129
0.515733
0.596039
0.403837
0.518393
0.589809
0.619104
0.573547
0.555797
0.593059
0.607477
0.575868
0.562712
0.467279
0.567966
0.578217
0.574447
0.456466
0.429812
0.413784
0.500305
0.453828
0.376878
0.374699
0.342889
0.404637
0.373933
0.295887
0.311914
0.238249
0.237463
0.252566
0.236944
0.202317
0.152184
0.285756
0.157957
0.199657
0.154995
0.114774
0.159817
0.160029
0.119437
0.112156
0.093981
0.086990
-0.004778
0.077560
0.121892
0.082123
0.168277
0.160357
0.119976
0.183397
0.049316
0.003831
0.133648
0.098301
0.154149
0.093884
0.104360
0.094973
0.086385
0.131981
0.111781
0.053541
0.046865
0.141560
0.048525
-0.005733
0.066480
0.078752
0.077207
0.060009
0.120810
0.096630
0.076130
0.092118
0.114849
0.165658
0.064357
0.102321
0.110813
0.075032
0.131238
0.149191
0.000801
0.048789
0.107027
0.095307
0.130345
0.125326
0.081180
0.086077
0.094545
0.079942
0.113718
0.113993
0.148547
0.015334
0.207904
0.099302
0.100657
0.068465
0.094717
0.110405
0.034970
0.081293
0.014350
0.020757
0.021278
0.061309
0.121496
0.108731
0.118163
0.096017
0.086535
0.187770
0.136056
0.162992
0.120786
0.119216
0.065815
0.137385
0.156259
0.157709
0.199963
0.202450
0.218328
0.236764
0.266802
0.259409
0.208065
0.326909
0.204314
0.247246
0.274139
0.212902
0.255504
0.258987
0.283743
0.266617
0.181648
0.180569
0.271037
0.227759
0.274862
0.228878
0.170754
0.183262
0.145969
0.088372
0.170364
0.161002
0.148877
0.126340
0.187966
0.085953
0.133098
0.064369
0.166459
0.068605
0.081649
0.086446
0.068495
0.013104
0.066651
0.073073
0.065769
0.139752
-0.002587
0.127764
0.025577
0.058549
0.097020
0.120527
0.080183
-0.027005
-0.072368
0.253594
0.365520
0.673474
1.018495
1.313188
1.384606
1.456992
1.191653
0.955054
0.494488
0.204030
-0.046256
-0.260995
-0.291624
-0.139649
-0.084557
-0.084841
0.046797
0.122224
0.066194
0.068655
0.047982
0.040730
0.069905
0.065002
0.002025
0.023880
0.095560
0.113849
0.119667
0.178321
0.112556
0.111481
0.061058
0.141349
0.182956
0.130458
0.177245
0.173059
0.195466
0.129672
0.259231
0.203153
0.173194
0.202031
0.265231
0.340335
0.248434
0.274615
0.360213
0.343583
0.406941
0.392958
0.413352
0.496037
0.469164
0.501744
0.476154
0.480467
0.439356
0.474426
0.474423
0.506851
0.539588
0.474393
0.524051
0.544210
0.560784
0.515678
0.463590
0.527391
0.531485
0.519874
0.534213
0.351352
0.391314
0.325974
0.395963
0.360769
0.299081
0.351236
0.318790
0.256573
0.192954
0.162640
0.184301
0.250768
0.170740
0.185268
0.104327
0.162046
0.116395
0.026880
0.170746
0.057761
0.050873
0.023188
0.093301
0.050154
0.094684
0.106108
-0.054722
0.035835
0.047176
0.064354
0.027399
0.040352
-0.025655
0.060654
-0.007491
-0.054682
0.004637
-0.011275
0.030371
0.020139
0.040164
0.035522
0.042794
-0.038457
-0.016834
0.009228
-0.038192
0.013251
-0.002662
0.015373
-0.066788
-0.008123
-0.013200
-0.000756
-0.026616
-0.007818
-0.081652
-0.018148
0.005748
-0.026539
-0.034126
0.002122
-0.005234
-0.041316
0.024660
0.025547
0.077574
-0.046995
-0.005812
-0.071406
0.027370
-0.012578
-0.042535
0.006469
-0.018994
0.034533
-0.035956
-0.021554
-0.028809
0.013044
-0.061068
-0.028803
0.048810
-0.052255
0.004489
0.001278
-0.006647
-0.067532
0.015656
0.025827
0.015087
-0.022045
-0.012206
0.017197
0.031312
-0.034839
0.036149
0.040334
-0.049495
0.009611
-0.036765
0.027364
0.020484
0.058434
0.026239
0.045136
0.042743
0.017513
0.034448
0.117956
0.134967
0.050285
0.185245
0.045078
0.024006
0.189625
0.079307
0.101320
0.190212
0.159263
0.073207
0.165024
0.128958
0.116692
0.098486
0.076566
0.029231
0.040543
0.113280
0.086811
0.012114
0.065463
0.060726
0.026586
-0.011910
0.008751
-0.033790
-0.037273
-0.021778
0.033012
-0.047383
-0.026490
-0.049131
-0.026736
-0.049470
-0.036700
-0.067820
-0.042393
-0.076474
-0.069018
-0.051511
0.010975
-0.045513
-0.010918
-0.051699
-0.061429
-0.108986
-0.128921
-0.069690
-0.026156
0.127026
0.511809
0.743127
1.107928
1.254140
1.285129
1.181947
0.968239
0.542334
0.168917
-0.038028
-0.292598
-0.298351
-0.396338
-0.404407
-0.186402
-0.120659
-0.106952
-0.094165
-0.051884
-0.035120
-0.041452
-0.106957
-0.064451
-0.068709
-0.017873
0.016816
-0.041105
-0.010214
-0.078005
-0.015560
-0.057624
-0.017098
-0.013167
-0.008510
0.000209
0.003671
0.000915
0.008061
0.091190
0.049090
0.160374
0.082468
0.107477
0.161739
0.134774
0.293349
0.229930
0.228935
0.285205
0.296690
0.266034
0.271009
0.347535
0.376501
0.267312
0.359858
0.440252
0.383342
0.410153
0.404062
0.388475
0.424250
0.464506
0.415796
0.457252
0.449747
0.411965
0.468873
0.392987
0.380455
0.351235
0.322191
0.283611
0.332801
0.329006
0.264244
0.249013
0.273140
0.197621
0.160332
0.195479
0.167836
0.131488
0.091978
0.158824
0.143899
0.099730
0.024024
0.076022
-0.028164
0.086507
-0.006648
0.026937
0.018161
-0.111483
-0.057246
0.000826
-0.017004
-0.094861
-0.079464
-0.032637
-0.008138
-0.104543
-0.111035
-0.085022
-0.082615
-0.113443
-0.058338
0.034609
-0.059344
-0.123975
-0.073375
-0.116746
-0.063858
-0.016302
-0.039019
-0.146014
-0.060405
-0.055744
-0.040539
-0.019861
-0.047344
-0.059745
-0.129572
-0.048629
-0.125569
-0.117397
-0.063585
-0.161078
-0.103997
-0.034942
-0.108697
-0.085937
-0.058914
-0.122063
-0.012753
-0.115818
-0.068350
-0.079400
-0.114220
-0.062168
-0.095510
-0.045762
-0.018504
-0.062689
-0.115654
-0.063462
-0.141216
-0.077597
-0.015425
-0.128675
-0.029091
-0.038735
-0.069012
-0.059446
-0.092991
-0.099373
-0.019164
-0.072129
-0.078836
-0.060902
-0.148867
-0.024408
-0.074539
-0.038884
-0.072689
-0.070420
-0.069832
-0.062457
-0.029047
-0.033119
-0.069112
-0.039425
-0.074731
0.022684
0.048378
-0.008903
0.017754
-0.020531
0.039097
0.016988
-0.011149
0.045415
0.071021
0.076761
0.100291
0.099304
0.123637
0.178341
0.048293
0.163859
0.137966
0.105319
0.076342
0.138479
0.162165
0.040554
0.107164
0.062062
0.012109
0.013307
0.066185
0.073404
-0.007515
-0.062368
-0.028998
-0.059132
-0.000936
-0.006849
0.000788
-0.020315
-0.025508
-0.047648
-0.009936
-0.027705
0.018031
-0.064129
0.037034
0.049916
-0.027746
-0.076080
0.041156
-0.021216
-0.015534
0.011796
0.004874
-0.024356
-0.003747
0.003861
-0.119903
-0.038730
-0.176128
-0.140818
0.133274
0.390028
0.609245
0.998837
1.317539
1.393663
1.330246
0.996322
0.748686
0.316763
0.092340
-0.143992
-0.228139
-0.262308
-0.304495
-0.092094
-0.156553
-0.066386
-0.039975
-0.053520
-0.019995
-0.022716
-0.029920
-0.024880
-0.026252
0.062042
0.026302
0.085182
0.089760
-0.007209
0.066562
0.000863
0.096155
0.047419
0.069128
0.068799
0.080877
0.088354
0.117463
0.114058
0.116524
0.170107
0.135107
0.204040
0.203603
0.257869
0.325674
0.280519
0.273260
0.283607
0.390429
0.370628
0.338292
0.431957
0.384394
0.358836
0.444964
0.453585
0.498424
0.501916
0.529729
0.532115
0.527039
0.523049
0.551694
0.552563
0.472383
0.450564
0.455458
0.454377
0.521061
0.521537
0.514340
0.475917
0.463907
0.313272
0.340180
0.430432
0.302874
0.323479
0.297803
0.267547
0.230831
0.256704
0.243372
0.182844
0.149592
0.121320
0.222612
0.043526
0.143620
0.129766
0.087043
0.132451
0.126899
0.106307
0.012578
0.033951
0.035068
0.007822
0.002831
0.046975
0.013592
0.029071
0.038388
0.001737
0.000631
0.093713
0.030458
-0.039014
0.090018
0.037075
0.055223
0.010944
0.035457
-0.039652
0.094540
0.050834
-0.054392
-0.040380
-0.080105
0.008419
0.027599
0.041912
-0.000906
0.092592
0.037988
0.071698
0.066285
0.009384
0.033824
-0.006839
0.099734
0.051085
0.085692
0.060675
0.005348
0.042300
0.056334
0.064297
0.106725
0.077409
-0.009267
0.037399
0.021792
0.006895
0.019728
-0.024981
-0.000924
0.070458
0.019643
0.044347
0.035568
0.056152
-0.012551
-0.007901
0.067761
0.060191
0.035711
0.034362
0.027021
0.067655
0.006537
0.006435
0.044331
0.078788
-0.006944
-0.043825
0.113295
-0.000258
0.133947
0.039957
0.040331
0.067267
0.084924
0.078311
0.087714
0.142351
0.065317
0.196592
0.092628
0.104155
0.135681
0.175848
0.205866
0.194964
0.127029
0.190016
0.245920
0.213575
0.222267
0.309607
0.203368
0.223400
0.302841
0.139872
0.183665
0.211153
0.202511
0.192128
0.113714
0.222266
0.131972
0.135516
0.157062
0.030024
0.182300
0.135970
0.010026
-0.010650
0.099522
0.073984
0.017339
0.094177
0.065488
0.139894
0.068230
0.058996
0.082253
0.084370
0.082371
0.041539
0.002437
0.055256
0.062655
0.036736
0.082411
0.169276
0.046819
0.050117
-0.002917
0.002195
-0.003677
0.038920
0.151752
0.310896
0.569949
0.960520
1.233955
1.440858
1.379256
1.282983
0.909358
0.556943
0.211556
-0.045235
-0.131745
-0.300803
-0.175154
-0.181995
-0.081937
-0.095973
0.038325
0.026578
0.079877
-0.018235
0.018706
0.118866
-0.018992
-0.011094
0.085786
0.035660
0.104841
0.125962
-0.008193
0.107409
0.042436
0.229966
0.110143
0.159976
0.176514
0.142180
0.126223
0.179807
0.189345
0.141946
0.218370
0.259001
0.243795
0.261046
0.303467
0.319250
0.307791
0.353442
0.327269
0.315787
0.430421
0.408943
0.398719
0.432123
0.453179
0.488671
0.483627
0.444685
0.448387
0.604526
0.517985
0.589182
0.553784
0.616483
0.454445
0.486281
0.406512
0.515703
0.513553
0.527366
0.426583
0.396069
0.438563
0.424154
0.335657
0.340528
0.326546
0.348245
0.383988
0.262353
0.279871
0.233888
0.220190
0.248131
0.197785
0.187215
0.180584
0.171791
0.150262
0.112389
0.103728
0.172378
0.077745
0.058444
0.044215
0.106552
0.058281
0.005242
0.025523
-0.018877
0.062589
-0.111888
-0.002156
0.062942
-0.026204
0.037047
0.029743
0.045027
0.056837
0.030234
0.025683
0.017255
-0.044941
0.055743
-0.088153
-0.016267
-0.045407
-0.059536
0.009560
-0.036393
0.032206
-0.030942
0.084150
-0.047077
0.003827
-0.030544
-0.013516
0.052680
-0.021295
-0.023038
0.023551
-0.054515
0.034938
-0.056549
-0.010486
0.022457
-0.042853
0.066982
-0.075188
-0.093406
-0.091070
0.019289
-0.025431
0.008164
-0.031652
-0.064050
0.013248
-0.010842
-0.024269
-0.069878
-0.047135
-0.027048
-0.106420
-0.007719
-0.040916
-0.032048
0.030898
0.008421
-0.094108
-0.093122
-0.049540
-0.010410
-0.063934
0.043231
-0.012110
-0.062076
0.023150
-0.015040
-0.083188
-0.073316
0.008484
-0.022158
0.002463
0.001993
-0.052163
-0.007808
-0.053220
0.079358
0.073341
0.060134
0.081909
0.043223
0.058582
0.043514
0.056087
0.076490
0.064703
0.099938
0.140764
0.149730
0.146720
0.106968
0.071292
0.144694
0.170021
0.116848
0.162077
0.145986
0.057161
-0.019574
0.056318
-0.001236
-0.016766
0.053998
-0.021241
0.026754
0.029953
0.023895
0.012165
-0.061868
-0.006599
0.000751
-0.042690
-0.072281
0.027377
-0.063726
-0.028388
-0.077127
0.002900
0.006963
-0.092066
-0.027384
-0.004080
-0.055868
-0.118690
-0.071386
-0.082697
-0.115017
-0.050980
-0.051072
-0.124401
-0.131051
0.010088
0.050115
0.356049
0.702116
1.077163
1.226686
1.382775
1.247982
0.948390
0.611143
0.169383
-0.065707
-0.232156
-0.322877
-0.335256
-0.311621
-0.278685
-0.194939
-0.118576
-0.005493
-0.080536
-0.021273
-0.015407
-0.045772
-0.098324
-0.051534
-0.023546
-0.075769
-0.097208
-0.050374
0.011106
-0.085263
-0.055179
-0.069372
-0.062871
0.050165
0.039099
-0.011134
0.034193
0.017718
0.001132
0.155460
0.051777
0.126209
0.084524
0.141937
0.223635
0.179727
0.178402
0.207048
0.237715
0.246945
0.341899
0.305758
0.346483
0.352255
0.376594
0.377946
0.434665
0.352164
0.471334
0.378946
0.424413
0.421465
0.431195
0.377787
0.389783
0.399512
0.400725
0.450507
0.347110
0.385324
0.287868
0.301227
0.301945
0.301259
0.341576
0.219597
0.224148
0.234075
0.191999
0.182351
0.158060
0.154404
0.126095
0.092272
0.069131
0.030967
0.057030
0.044142
0.028876
0.062641
-0.010596
0.040300
-0.013245
-0.059184
-0.068079
-0.099848
-0.073641
-0.083375
-0.024561
-0.113145
-0.015640
-0.149425
-0.034050
-0.069577
-0.045276
-0.108417
-0.071634
-0.038185
-0.046853
-0.059787
-0.146029
-0.059807
-0.108890
-0.076039
-0.149377
-0.053836
-0.126541
-0.082100
-0.091983
-0.105233
-0.126964
-0.136954
-0.110240
-0.061764
-0.145483
-0.138031
-0.099870
-0.114382
-0.031490
-0.085496
-0.140780
-0.084475
-0.106767
-0.129766
-0.019052
-0.109138
-0.096449
-0.077816
-0.045353
-0.031583
-0.099479
-0.149865
-0.078506
-0.105230
-0.094388
-0.034409
-0.101423
-0.068828
-0.103373
-0.101160
-0.148010
-0.029246
-0.033121
-0.002379
-0.088789
-0.137414
-0.032438
-0.091567
-0.031217
-0.058988
-0.094752
-0.123247
-0.101884
-0.111987
-0.081680
-0.119230
-0.119150
-0.193597
-0.130414
-0.064975
-0.106033
-0.071532
-0.126372
0.012266
-0.031895
-0.069261
-0.081190
-0.018848
-0.025954
-0.028753
0.091922
0.070010
0.077757
0.037734
0.013290
0.102507
0.059936
0.055016
0.082186
0.105328
0.137101
0.145936
0.065949
0.154724
0.140817
0.113990
0.066425
0.112235
0.025660
0.015265
-0.029698
0.049838
0.040313
0.034281
0.015735
0.000641
0.001192
-0.040038
-0.102185
-0.036666
-0.100880
-0.026894
0.031488
-0.062697
-0.043538
-0.007452
-0.143899
-0.068791
-0.032000
-0.086867
-0.077426
0.002852
-0.037507
-0.028310
-0.110180
-0.081907
-0.005387
-0.005444
-0.066054
-0.076089
-0.109461
-0.094695
-0.172552
0.032437
0.272922
0.562364
0.904646
1.187764
1.274436
1.238824
1.089883
0.687251
0.332277
0.131656
-0.108198
-0.272133
-0.317666
-0.360111
-0.250623
-0.141591
-0.151895
-0.032048
-0.047065
-0.001940
0.011761
-0.036355
-0.021009
0.042123
-0.047993
0.009802
-0.010182
0.004441
-0.105670
-0.037857
0.018416
0.038806
-0.045200
0.081528
0.074943
0.013522
0.086149
0.108339
0.031627
0.053094
0.060426
0.142731
0.183671
0.146287
0.184545
0.163212
0.267493
0.266067
0.337107
0.253879
0.322754
0.305235
0.376066
0.444402
0.356822
0.379811
0.386448
0.476449
0.384579
0.499559
0.468025
0.427353
0.474810
0.444898
0.565018
0.475379
0.442691
0.481244
0.497036
0.496093
0.369585
0.446726
0.425298
0.366842
0.348923
0.431150
0.297833
0.317450
0.280555
0.309933
0.247315
0.207093
0.220590
0.174881
0.147761
0.090294
0.126698
0.050296
-0.001283
0.104007
0.016948
0.058113
0.076397
0.118176
0.112402
0.086554
0.068321
-0.063699
0.046615
0.082525
0.012816
0.097743
0.062605
0.089012
0.003422
0.059379
0.006664
-0.054185
0.041527
-0.009838
0.034535
0.023342
0.015746
0.024622
0.070458
0.017941
0.022232
0.090828
-0.009267
0.020631
-0.082959
0.049643
0.092156
0.039934
0.011773
0.054318
0.051691
0.034945
0.103403
0.062617
0.043696
0.030579
-0.013560
-0.001045
-0.032876
0.100561
0.051856
0.034335
0.034219
0.027255
0.080673
-0.069290
0.041395
0.050965
-0.061917
0.009298
0.002381
0.034011
0.081575
0.015785
0.011532
0.074844
0.081449
0.064795
0.067699
0.049986
0.009610
0.131048
0.074151
0.071965
0.041075
0.041259
0.041165
0.052390
0.008839
0.042700
-0.022741
0.059732
0.011676
0.136098
0.040950
-0.047021
0.081436
0.014489
0.051774
0.050953
0.100740
0.141038
0.086873
0.116107
0.107468
0.145319
0.182888
0.152821
0.200598
0.185923
0.232777
0.256044
0.249716
0.207486
0.252724
0.241587
0.249247
0.271329
0.281666
0.223464
0.158347
0.278206
0.247133
0.175603
0.131940
0.125593
0.157163
0.153321
0.196587
0.073463
0.144794
0.065305
0.124699
0.032203
0.088593
0.071485
0.010754
0.093307
0.081718
0.019824
0.096256
0.035999
0.169282
0.064937
0.072634
0.061310
0.069331
0.083820
0.035861
-0.003663
0.029782
0.048352
0.003674
-0.000725
0.075305
0.064571
0.069735
0.128127
0.253348
0.499145
0.975483
1.215600
1.412956
1.422753
1.318492
1.004496
0.667879
0.331290
0.103913
-0.191610
-0.221130
-0.246364
-0.174714
-0.131172
0.022484
-0.053234
0.109782
0.116932
0.091606
0.062475
0.065988
0.143235
0.053544
0.084944
0.070155
0.079006
0.111254
0.071834
0.143127
0.115167
0.079048
0.172864
0.093864
0.138070
0.174512
0.167869
0.150516
0.178571
0.152193
0.175629
0.214332
0.299802
0.288605
0.288778
0.304938
0.353169
0.381065
0.428681
0.448171
0.386926
0.398576
0.492178
0.440312
0.417494
0.605493
0.493879
0.552305
0.532393
0.599604
0.557702
0.500782
0.594416
0.583375
0.523051
0.593713
