-0.045158
-0.055214
0.019077
-0.029106
0.060990
0.010741
-0.010929
-0.017003
0.067366
-0.035099
-0.037933
-0.016909
-0.040969
-0.008417
-0.001934
0.016453
-0.065829
-0.026165
0.046064
0.037349
0.047412
0.050116
-0.029902
0.059777
0.074857
0.072855
0.111183
-0.020696
0.001400
0.069007
-0.030596
0.008325
0.041616
0.018984
0.062893
0.008007
0.080233
0.107613
0.188804
0.111342
0.120245
0.165912
0.154154
0.177878
0.212529
0.171075
0.201655
0.181462
0.224065
0.255868
0.191682
0.173246
0.256223
0.212813
0.265030
0.212658
0.233019
0.200102
0.134583
0.160130
0.121399
0.054234
0.107632
0.134016
0.097055
0.049172
0.131588
0.067157
0.082988
0.050918
0.093172
0.091329
0.140342
0.036662
0.053681
0.071154
0.046128
0.064886
0.021975
0.129459
0.071338
0.054524
0.043770
0.038754
0.086295
0.096483
-0.022517
0.096055
0.032709
0.087306
-0.006400
0.015028
-0.099176
-0.008482
0.044498
0.222385
0.447487
0.756160
1.036902
1.361107
1.401511
1.382315
1.219457
0.850172
0.579213
0.189612
-0.068557
-0.170631
-0.280111
-0.126361
-0.154595
-0.098555
-0.034911
-0.021104
0.062894
0.104563
0.132045
-0.008927
0.116415
0.099728
-0.024634
0.057610
0.117227
0.034525
0.085561
0.045752
0.103520
0.137753
0.107172
0.167002
0.115421
0.076502
0.106554
0.160287
0.148223
0.178578
0.159767
0.147613
0.211593
0.221819
0.212007
0.215934
0.264740
0.257040
0.301384
0.357671
0.267486
0.383525
0.381401
0.449577
0.391030
0.452415
0.498678
0.444763
0.386218
0.478270
0.454413
0.569698
0.417727
0.537816
0.545588
0.647149
0.578130
0.478798
0.613947
0.565538
0.646686
0.600934
0.591917
0.518363
0.464577
0.534515
0.505275
0.495118
0.452821
0.391730
0.443982
0.360951
0.369466
0.323204
0.324618
0.371399
0.234365
0.242499
0.192129
0.180572
0.179736
0.207211
0.176066
0.204196
0.206353
0.181733
0.151915
0.152382
0.106345
0.085731
0.132183
0.177734
0.130875
0.070609
0.047332
0.072554
0.083750
0.064566
0.089423
0.061399
0.082643
0.108043
-0.003479
0.096603
0.113349
0.031962
0.137938
0.116946
0.118636
0.119743
0.024050
0.088044
0.091756
0.112366
0.045522
-0.006285
-0.073344
0.054359
0.065038
0.181536
0.066053
0.043075
0.081562
0.004732
0.087009
0.094167
0.001099
0.084320
0.074793
0.065990
0.121624
0.046909
0.090196
0.044613
0.140903
0.044373
0.000235
0.074791
0.062554
0.009435
0.088205
-0.004795
0.058707
0.102370
0.133286
0.062278
0.117935
0.124161
0.138076
0.132430
0.094079
0.106696
0.064720
0.120458
0.083718
0.077059
0.026826
0.059984
0.127877
0.090048
0.023024
0.115258
0.106149
0.153401
0.083426
0.056460
0.116022
0.153622
0.100441
0.048340
0.003755
0.150302
0.030755
0.080534
0.074229
0.117390
0.062317
0.085899
0.119982
0.151230
0.106607
0.063222
0.112795
0.071222
0.140554
0.182329
0.210621
0.155904
0.266959
0.256324
0.206799
0.258117
0.179333
0.169590
0.257478
0.179776
0.317785
0.283607
0.180295
0.234968
0.176683
0.188311
0.207016
0.193551
0.183492
0.146471
0.151172
0.075408
0.122521
0.083512
0.004117
0.069215
0.127055
0.048794
0.076954
0.098207
0.123738
-0.021991
0.090575
0.048030
0.083865
0.063631
0.080349
0.108020
0.037209
0.100232
0.056269
0.028566
0.014050
0.000376
0.116087
-0.010085
-0.009753
-0.030216
0.007197
0.012359
-0.027665
-0.010800
0.029345
0.217279
0.402277
0.771511
1.097067
1.271983
1.500000
1.349656
1.157837
0.813105
0.463685
0.149507
-0.017283
-0.236436
-0.187501
-0.241997
-0.175277
-0.131347
-0.059164
-0.025049
0.034016
0.059258
0.003676
0.024841
0.026456
0.070066
0.069996
0.012379
0.137991
0.005289
0.054184
0.086377
0.109039
0.089242
0.068224
0.101713
0.076864
0.045402
0.134102
0.062263
0.088973
0.124554
0.067683
0.091844
0.123699
0.231140
0.179192
0.184465
0.239044
0.208718
0.277423
0.266877
0.382319
0.337259
0.285403
0.367515
0.316578
0.434321
0.422455
0.378567
0.475016
0.501937
0.509945
0.508515
0.474835
0.494019
0.486153
0.599261
0.494802
0.555693
0.459386
0.466378
0.470590
0.532706
0.487705
0.434508
0.463040
0.412071
0.413210
0.391217
0.419729
0.351820
0.318670
0.306528
0.304954
0.265534
0.260685
0.260691
0.184416
0.147039
0.148907
0.163782
0.069792
0.190739
0.155134
0.032399
0.121073
0.184964
0.127148
0.058400
0.060739
0.058738
0.022125
-0.002984
-0.006340
-0.024275
0.008465
0.012296
-0.044527
0.009309
-0.023214
-0.074205
-0.079596
-0.065116
-0.049033
-0.051704
-0.051481
-0.036118
-0.009502
-0.053808
-0.036002
0.005864
-0.010424
0.031100
0.015316
0.018052
0.005136
-0.088200
0.019173
0.004978
-0.014484
-0.011603
-0.025433
-0.027025
-0.001719
0.017497
-0.008681
-0.054985
-0.009092
-0.043888
-0.019047
-0.008573
-0.117819
-0.047824
-0.013171
-0.045909
-0.035160
0.040663
-0.079371
-0.028737
-0.099719
-0.053155
0.012581
-0.143610
-0.063446
0.033404
-0.005660
0.011426
-0.033342
-0.037163
0.008501
-0.039982
-0.069859
-0.030147
-0.062228
0.038002
-0.107674
-0.044617
-0.013056
0.006951
-0.058381
0.024819
-0.067869
-0.027316
-0.016672
-0.086531
-0.051708
0.026085
-0.037836
-0.072553
-0.048835
-0.085891
-0.106301
-0.045821
-0.069142
-0.024980
-0.011937
-0.000280
-0.015222
-0.004011
-0.038965
-0.006112
0.055928
-0.004324
0.016831
0.036285
0.069439
0.053907
0.044970
0.057714
0.103910
0.155925
0.084711
0.150915
0.133461
0.121878
0.041423
0.204458
0.110065
0.101257
0.093279
0.161878
0.138521
0.087582
0.021981
0.059881
0.048451
0.077804
0.054607
0.016340
-0.009562
0.008778
0.104309
0.007555
-0.008619
-0.060475
0.013601
0.045306
-0.026510
-0.007346
-0.014672
-0.071141
-0.088728
-0.045675
0.046293
-0.017006
0.023546
0.056068
-0.052104
-0.123522
0.026755
-0.059769
-0.035352
-0.021316
-0.109391
-0.070481
-0.094340
-0.022913
-0.069683
-0.076278
-0.009830
0.044842
0.359147
0.703379
0.975860
1.200262
1.387791
1.247644
1.112456
0.807002
0.438194
-0.010439
-0.129569
-0.275715
-0.323811
-0.358022
-0.261763
-0.096889
-0.058948
-0.056080
-0.080629
0.048327
0.000361
-0.046686
-0.066220
0.064740
-0.019818
-0.059902
0.002960
-0.059997
-0.022539
0.000612
-0.065787
-0.018957
-0.053279
0.061301
0.080743
0.012316
0.061692
0.061643
-0.003508
0.081097
0.060040
0.036552
0.039226
0.146546
0.097735
0.184916
0.215159
0.234088
0.279585
0.274460
0.310258
0.243557
0.312552
0.252521
0.326612
0.324057
0.404051
0.368775
0.392838
0.426522
0.448836
0.488524
0.455742
0.489133
0.387902
0.506623
0.491322
0.435186
0.451573
0.477938
0.466051
0.435490
0.418248
0.472077
0.445811
0.339221
0.462897
0.409712
0.374915
0.293542
0.236858
0.300528
0.228835
0.277187
0.261346
0.263295
0.221114
0.224020
0.136772
0.198493
0.174128
0.091422
0.191096
0.019605
0.072134
0.013121
0.080871
0.036988
0.069799
0.059302
0.078877
0.007768
0.007258
0.046829
0.005993
0.039511
-0.017617
-0.082212
-0.088350
-0.000415
-0.059530
-0.066923
-0.007950
0.044010
-0.044702
-0.020999
-0.005225
0.047760
-0.058382
-0.015998
-0.058059
0.046954
0.024608
-0.045617
0.051016
0.040831
0.106135
-0.014155
-0.027211
-0.038336
-0.005857
0.008381
-0.013208
0.065233
0.004021
-0.027727
0.037565
-0.039754
-0.045040
0.029374
0.039966
0.006539
0.042684
0.055706
0.099603
0.017012
-0.037607
0.048825
0.005566
0.008109
0.041650
-0.033229
0.052681
-0.005405
-0.015853
-0.047894
0.050402
0.053554
0.013650
-0.062793
-0.026473
0.043209
0.016852
0.043807
0.041500
-0.057188
-0.015627
0.029696
0.043072
-0.018419
0.021606
-0.040155
0.051876
0.077342
0.006335
0.022532
0.049943
0.059529
0.097096
0.093040
0.002835
0.054897
0.047706
0.106706
0.068634
0.096131
0.040527
0.079385
0.039887
0.104333
0.114505
0.056284
0.103683
0.099661
0.230779
0.171238
0.165123
0.205060
0.205964
0.119384
0.223934
0.201775
0.251974
0.221690
0.246788
0.199181
0.275330
0.289786
0.274179
0.233094
0.192704
0.203069
0.177136
0.147300
0.090660
0.185555
0.151168
0.142405
0.112991
0.076250
0.161505
0.048214
0.014458
0.090866
0.124842
0.086429
0.180596
0.111186
0.060024
0.081904
0.155696
-0.032225
0.080975
0.030702
0.064557
0.107554
0.108902
0.092704
0.087292
0.033042
-0.002521
0.048937
0.097886
0.044896
0.045471
0.034957
0.013945
-0.030961
0.053889
0.257645
0.446072
0.792713
1.118309
1.443971
1.464935
1.402707
1.155922
0.847721
0.508627
0.244110
-0.059301
-0.152466
-0.221327
-0.176117
-0.115324
-0.119721
-0.097502
-0.013429
0.063173
0.012903
0.076439
0.067074
0.145480
0.102131
0.098070
0.019986
0.132363
0.095912
0.111219
0.039293
0.086947
0.084752
0.134780
0.151771
0.100007
0.119862
0.092562
0.138112
0.140799
0.172175
0.144192
0.199280
0.208234
0.250202
0.263559
0.272759
0.270467
0.306221
0.336984
0.365869
0.410228
0.340617
0.406410
0.337781
0.430414
0.471845
0.572718
0.490177
0.491705
0.534093
0.497106
0.603795
0.616845
0.620135
0.620898
0.576966
0.567819
0.596870
0.517157
0.554704
0.488149
0.569627
0.482105
0.558887
0.536816
0.526436
0.486219
0.506049
0.484295
0.472980
0.439817
0.441865
0.433609
0.264337
0.391915
0.326642
0.305137
0.292224
0.234690
0.336814
0.212485
0.225551
0.242357
0.185435
0.213344
0.129023
0.137140
0.114402
0.114291
0.093903
0.139619
0.212439
0.164483
0.178896
0.136449
0.146547
0.115694
0.113955
0.070770
0.067574
0.064945
0.119641
0.149049
0.100988
0.059459
0.103021
0.122463
0.134894
0.044138
0.097104
0.183990
0.115923
0.054880
0.059018
0.113193
0.074930
0.091970
0.130419
0.080625
0.147607
0.134175
0.064958
0.079601
0.021732
0.111653
0.059487
0.079932
0.049961
0.045127
0.143235
0.053038
0.100669
0.030608
0.064926
0.102198
0.077057
0.090245
0.108316
0.108949
0.067903
0.119608
0.147290
0.121356
0.041949
0.162874
0.114863
-0.036869
0.095546
0.087153
0.143923
0.044505
0.136482
0.066727
0.022735
0.033456
0.052071
0.071031
0.030859
0.075246
0.086127
0.105694
0.030532
0.042596
0.041564
0.115498
0.130936
0.081426
0.021405
0.070240
0.102635
0.051678
0.138391
0.004387
0.040391
0.199415
0.153653
0.107004
0.134308
0.201081
0.133701
0.206665
0.158632
0.144242
0.169791
0.253605
0.186630
0.196618
0.149470
0.155449
0.213722
0.180937
0.260659
0.240805
0.253991
0.355847
0.232369
0.246068
0.244679
0.130578
0.271380
0.239658
0.190099
0.080977
0.215804
0.154555
0.080701
0.150441
0.082546
0.133089
0.143769
0.135241
0.087593
0.058946
0.106893
0.022206
0.140947
0.059772
0.079534
0.058184
0.057442
0.043392
0.054431
0.099718
0.048200
0.057893
0.071652
0.006921
0.108265
0.111006
0.078278
0.051600
0.135160
0.023993
-0.091296
0.005479
0.032620
-0.023865
-0.050314
0.028237
0.160168
0.358977
0.734893
1.027364
1.346609
1.334903
1.328827
1.146743
0.764051
0.466089
0.223137
0.035836
-0.274295
-0.278107
-0.289253
-0.124150
-0.106066
-0.101376
-0.080101
0.012306
0.051559
-0.002757
0.014361
0.014083
-0.058935
0.034701
0.020950
-0.015445
0.052616
0.031724
0.131391
-0.052662
0.037021
0.050537
0.068530
0.087646
0.090959
0.072371
0.114180
0.158967
0.057600
0.181822
0.106658
0.143818
0.144883
0.126094
0.175058
0.194066
0.234840
0.202535
0.243561
0.255453
0.293633
0.354531
0.344892
0.366628
0.321790
0.388896
0.351457
0.419465
0.462733
0.443129
0.462047
0.489511
0.520028
0.512332
0.463321
0.550346
0.533081
0.526664
0.401229
0.475340
0.447755
0.577214
0.460881
0.511692
0.435587
0.384397
0.399773
0.358003
0.316537
0.246650
0.311894
0.314579
0.176427
0.293146
0.242612
0.185915
0.228993
0.085623
0.162527
0.083613
0.198915
0.020160
0.035684
0.094598
0.025692
0.110370
0.063473
0.026134
-0.039265
0.050799
-0.085609
-0.015134
-0.002329
-0.017412
-0.050551
0.021580
0.008344
-0.063108
-0.111548
-0.083599
0.036450
-0.055555
-0.034158
-0.018194
-0.028184
-0.037621
-0.075089
0.004312
-0.012841
-0.041618
-0.002355
0.015059
-0.117791
-0.065370
-0.058182
-0.026312
-0.077456
-0.049401
-0.009724
0.006896
-0.032766
-0.057303
-0.033426
-0.018309
-0.031336
-0.051462
-0.091286
0.001109
0.010225
-0.046057
-0.039035
-0.015657
-0.061972
0.031226
-0.037856
-0.065691
0.010099
-0.107356
0.001678
-0.097138
-0.006507
-0.026101
0.005003
-0.116368
-0.107131
-0.081782
-0.113116
-0.110433
-0.001619
-0.097386
-0.046782
-0.124698
0.004954
-0.097021
-0.135873
-0.093390
-0.025944
-0.126713
-0.010811
-0.049945
-0.060791
-0.146084
-0.071830
-0.052587
-0.055460
-0.086806
-0.028613
-0.098560
-0.036835
-0.055741
-0.028103
-0.068278
-0.079324
-0.040781
-0.087476
-0.041125
-0.040990
-0.021701
-0.034014
-0.064417
0.004823
0.077128
0.051917
-0.003235
0.083896
0.060397
0.091106
0.176306
0.037308
0.056792
0.088397
0.134732
0.199281
0.151580
0.120051
0.034779
0.072786
0.164637
0.147486
0.100096
0.057784
0.091191
0.120146
0.005848
-0.002321
-0.065346
-0.008413
0.025760
-0.067468
-0.007234
-0.064821
-0.039951
-0.096568
-0.045197
-0.032103
-0.102153
-0.092283
-0.055167
-0.072606
-0.085906
-0.011441
-0.028768
-0.116037
-0.001416
-0.100841
-0.108009
-0.116023
-0.045551
-0.096616
-0.041140
-0.028017
-0.080116
-0.065281
-0.061237
-0.130143
-0.045071
-0.099358
-0.069993
0.114980
0.304627
0.633742
0.907080
1.216033
1.377378
1.245087
1.062638
0.781492
0.306071
0.049417
-0.105797
-0.266331
-0.396475
-0.393175
-0.294046
-0.205547
-0.131302
-0.156823
-0.126911
-0.117451
-0.059986
-0.088621
-0.003817
-0.081889
-0.038432
-0.089280
-0.080586
-0.018565
-0.083004
-0.026738
-0.008599
0.003359
-0.108036
-0.089620
-0.031467
0.028950
-0.045686
-0.016354
0.083529
0.013638
0.056888
0.071578
0.095748
0.108693
0.086489
0.178205
0.171609
0.165381
0.105910
0.202338
0.101664
0.150058
0.185832
0.296031
0.301222
0.277682
0.377337
0.410146
0.389016
0.367681
0.390654
0.326884
0.418381
0.478573
0.363546
0.472906
0.417394
0.378709
0.443674
0.456788
0.444499
0.430815
0.409235
0.445290
0.413308
0.424940
0.366082
0.268874
0.339656
0.290646
0.303167
0.170920
0.230865
0.127171
0.138428
0.208156
0.182896
0.178937
0.024738
0.129187
0.141498
0.119828
0.035815
0.082782
0.050620
0.016170
0.002178
0.067125
0.015747
0.017683
0.028573
0.020205
-0.011666
0.016829
-0.029563
-0.076418
0.017801
-0.024999
-0.080499
-0.001805
-0.041269
-0.045402
-0.058537
-0.045854
-0.099424
-0.073750
0.035470
-0.030740
-0.036374
-0.034561
-0.062256
-0.058400
0.032812
0.010111
-0.028336
-0.079389
-0.016464
-0.034750
-0.076719
-0.012465
-0.013671
-0.042430
-0.071539
0.008691
-0.088276
-0.029242
-0.036749
-0.034020
-0.067809
-0.005289
-0.085236
0.070602
-0.061148
-0.018820
0.005265
0.016238
-0.020859
-0.022209
0.065497
-0.005627
-0.042648
-0.016763
-0.103382
-0.026165
-0.068708
-0.011120
-0.044590
0.012691
-0.012507
-0.038783
0.022548
-0.031669
-0.067840
-0.040800
0.004160
-0.067400
-0.077102
-0.019534
-0.076440
0.018624
0.046898
-0.034498
0.006948
-0.003488
0.024802
-0.011894
0.012431
-0.063841
-0.006695
-0.027502
0.076247
-0.019086
0.008576
0.043817
0.027215
0.071663
0.068480
0.006234
0.020615
0.050881
0.089169
0.109552
0.058812
0.043574
0.147478
0.071238
0.131398
0.122251
0.177464
0.164358
0.214572
0.212315
0.183177
0.107373
0.164683
0.185660
0.215946
0.187292
0.198961
0.130907
0.184735
0.132968
0.111786
0.107436
0.068326
0.042623
-0.007098
0.082111
0.167635
0.065659
0.074669
0.125973
-0.002895
0.049625
0.008820
0.030374
-0.015566
-0.001376
0.064379
-0.061683
-0.020500
0.053572
0.089130
0.017324
-0.078613
0.044909
0.027467
0.051958
0.035032
-0.033802
0.081095
-0.012229
-0.013151
0.051222
0.038054
-0.023794
-0.083283
-0.097081
-0.005467
0.183933
0.362815
0.732776
1.008179
1.361034
1.369064
1.329926
1.049191
0.773615
0.385734
0.157708
-0.089519
-0.186637
-0.305503
-0.302437
-0.111751
-0.086677
-0.039506
-0.004806
0.034713
0.039799
0.069363
0.006989
0.042156
0.072296
0.108668
0.034742
0.097624
0.014560
0.005473
0.045724
0.085637
0.088652
0.023882
0.098507
0.024610
0.060204
0.122441
0.103988
0.101770
0.060637
0.151520
0.200913
0.186789
0.165982
0.168091
0.252856
0.161655
0.210143
0.349413
0.277740
0.399353
0.398790
0.333818
0.378715
0.409007
0.430902
0.355405
0.454022
0.436521
0.525414
0.444841
0.517685
0.494763
0.516662
0.557466
0.550250
0.571616
0.518324
0.538563
0.563573
0.584028
0.499488
0.634094
0.516575
0.504076
0.431960
0.473722
0.477900
0.355728
0.406688
0.362170
0.289515
0.436996
0.287631
0.275339
0.262288
0.182375
0.236914
0.236244
0.237283
0.180140
0.239490
0.192784
0.059094
0.090548
0.116526
0.112439
0.076565
0.114703
0.074621
0.083839
0.092008
0.042753
0.089636
0.023950
0.086155
0.049772
0.059914
0.044891
0.014096
0.042003
0.010842
0.059432
0.025693
0.013771
0.055502
0.039185
0.027330
0.058290
0.047507
-0.036211
0.045481
0.027645
0.098411
0.057376
0.089721
-0.050017
0.093180
0.091033
0.059631
0.037291
0.086670
0.030683
0.099374
-0.011066
-0.026446
0.092003
0.062654
0.064307
0.020349
0.015861
0.042303
0.031664
0.028124
0.055133
0.114453
0.036759
0.093643
0.078204
0.081287
0.015493
0.023730
0.068883
-0.002215
0.037933
0.006003
0.049195
0.059152
0.069761
0.072058
0.031115
0.040838
0.126541
-0.016234
-0.025756
0.034178
0.054074
0.072387
0.020244
0.097259
-0.005511
-0.023770
0.035540
0.085412
0.033117
0.089839
0.087154
0.087420
0.033675
0.116719
0.101326
0.072392
0.066385
0.045894
0.003813
0.084495
0.050585
0.060000
0.062737
0.055452
0.095461
0.137652
0.074650
0.147167
0.152182
0.099733
0.165330
0.087862
0.102295
0.198460
0.099595
0.151141
0.224083
0.287528
0.157325
0.194510
0.144420
0.182719
0.077207
0.237375
0.158505
0.179044
0.200024
0.148422
0.160865
0.115335
0.129349
0.103845
0.141382
0.108493
0.008966
0.062151
0.053325
0.037381
0.054864
-0.041742
0.041351
0.040409
-0.016300
0.097811
0.013389
-0.000460
-0.022256
0.057314
-0.050640
-0.036464
0.031735
-0.036362
-0.012266
-0.043160
0.075005
-0.031203
-0.002842
-0.015149
0.017703
0.017690
-0.013496
-0.096360
-0.046263
0.117807
0.352080
0.766000
1.002726
1.353376
1.371941
1.270220
1.123780
0.797140
0.486801
0.100065
-0.149268
-0.209385
-0.291692
-0.223641
-0.249939
-0.149012
-0.130336
-0.023459
-0.097321
0.020337
-0.027356
0.039336
-0.017605
-0.013202
0.025208
0.054043
-0.020761
0.057158
0.033353
0.001674
0.048676
0.044521
-0.028324
0.071259
-0.048640
-0.011910
0.087632
0.008260
0.074942
0.062081
0.093504
0.030411
0.047201
0.134576
0.189442
0.113552
0.140263
0.121958
0.168557
0.285296
0.261485
0.262425
0.163327
0.345625
0.308937
0.271384
0.363573
0.372449
0.317481
0.367609
0.482638
0.346413
0.473006
0.456667
0.437669
0.442000
0.487318
0.485661
0.443656
0.456162
0.361374
0.404921
0.340516
0.466703
0.399718
0.310453
0.348823
0.307176
0.344657
0.311513
0.293426
0.271546
0.252407
0.276559
0.207198
0.227711
0.193514
0.167993
0.119534
0.135813
0.124137
0.098342
0.064213
0.061149
0.046717
0.079486
0.028028
-0.072036
-0.023491
-0.037897
0.039868
-0.031044
-0.015177
0.115475
-0.045206
-0.032417
-0.018956
-0.069359
-0.037089
-0.017618
-0.032079
-0.057768
-0.096463
-0.031926
-0.074314
-0.096454
-0.102272
-0.040712
-0.074606
-0.051494
-0.033227
-0.073789
-0.074784
-0.107599
-0.086510
-0.048745
-0.124439
-0.012765
-0.020952
-0.081759
-0.070487
-0.082726
-0.018496
0.005456
-0.062654
-0.025476
-0.060691
-0.051165
-0.103846
-0.043703
-0.053508
-0.023228
-0.082707
-0.120445
-0.136638
-0.052099
-0.067715
-0.072035
-0.083275
-0.088977
-0.093555
-0.083930
-0.020482
-0.091735
-0.074556
0.029757
-0.007946
-0.083341
-0.046574
-0.059889
-0.024109
-0.150571
-0.089884
-0.039447
-0.015629
-0.063522
-0.139058
-0.065978
-0.154254
-0.057667
-0.043438
-0.081595
-0.151338
-0.054803
-0.080991
-0.111933
-0.006261
-0.121579
-0.042249
-0.107965
-0.111466
-0.076590
-0.101172
-0.047803
-0.037613
-0.124396
-0.014127
0.013830
-0.054987
-0.022295
-0.016773
-0.036604
0.020214
-0.048499
0.019290
0.035240
0.028050
0.172445
0.117248
0.042458
0.144812
0.112235
0.060679
0.054391
0.061566
0.170889
0.092876
0.022808
0.056422
0.071528
0.057529
0.069680
0.097567
0.004696
0.001997
0.018651
-0.115529
-0.054973
0.023553
0.005069
-0.064810
0.042721
-0.108990
-0.071715
-0.094473
0.001484
-0.055450
-0.067561
-0.060668
-0.031667
-0.082420
-0.053168
-0.089258
-0.053380
-0.090720
-0.096555
-0.113222
-0.073465
-0.098695
-0.097583
-0.142788
-0.031547
-0.066591
-0.182559
-0.113394
-0.083618
-0.150050
-0.137800
-0.138110
0.064747
0.309535
0.576914
0.957877
1.162777
1.201125
1.269044
0.915641
0.705927
0.340585
0.024007
-0.265112
-0.331102
-0.362206
-0.429404
-0.263710
-0.251850
-0.195662
-0.109634
-0.108063
-0.133526
-0.121513
-0.106976
-0.044489
-0.122617
-0.133735
-0.021250
-0.129766
-0.084476
-0.031216
-0.073865
-0.070376
-0.056272
-0.059791
-0.027784
-0.003665
0.017479
0.052280
-0.014903
-0.076280
-0.004147
0.057598
0.038651
0.003602
0.027189
0.062663
0.134302
0.065111
0.133528
0.144855
0.159139
0.107965
0.208462
0.256540
0.217670
0.279839
0.288228
0.259050
0.303596
0.258776
0.336321
0.412640
0.402193
0.377204
0.390234
0.493863
0.439866
0.492091
0.488540
0.412135
0.428158
0.390051
0.327893
0.391098
0.335241
0.382635
0.282537
0.280550
0.281605
0.327648
0.294324
0.257547
0.228626
0.182570
0.212022
0.178099
0.184915
0.162874
0.153400
0.053315
0.088099
0.108339
0.119110
0.028790
0.100041
0.087868
-0.068594
-0.002251
-0.010690
0.086910
0.013276
0.049055
-0.039111
-0.037095
-0.017543
-0.010214
-0.032102
-0.023236
-0.019243
-0.073552
-0.052796
0.025911
-0.106468
-0.027070
-0.021947
-0.031907
-0.026777
-0.016395
0.024957
-0.024013
-0.111049
0.061476
-0.029409
-0.007815
0.011020
-0.023421
-0.072790
-0.087818
-0.015565
-0.059616
-0.055957
-0.044616
-0.033280
-0.069182
-0.014596
-0.005066
0.019387
-0.003210
-0.074418
-0.052305
-0.080893
-0.053816
-0.055190
-0.062814
-0.031184
-0.030941
0.011288
-0.054028
0.027704
-0.039230
-0.053378
-0.026752
-0.034527
-0.050077
-0.031000
0.029225
0.001416
-0.067980
0.047444
-0.001014
-0.076143
0.055701
-0.082510
0.035417
0.014461
0.012739
-0.028223
-0.008415
-0.074209
-0.067613
-0.025039
-0.020358
0.005401
-0.049616
-0.005341
-0.012298
0.055351
0.008818
0.077254
0.021478
0.017129
-0.046307
-0.000245
0.078731
0.061436
-0.045501
0.066435
0.052462
0.022054
0.047195
0.083592
0.055045
0.053849
0.069855
0.097204
0.173917
0.081992
0.171131
0.118565
0.158049
0.122224
0.194454
0.168097
0.192905
0.169919
0.207465
0.161165
0.105893
0.151323
0.161878
0.191809
0.225953
0.162119
0.166958
0.181661
0.140049
0.123456
0.035666
0.113842
0.029766
0.077125
0.100700
0.052944
0.090122
0.042663
0.030561
0.070135
-0.036952
-0.024378
0.088600
0.018464
0.030770
0.035913
-0.029528
0.060370
0.006621
0.013649
-0.023440
0.039513
0.016659
-0.000255
0.000916
-0.000389
0.002656
-0.002967
0.022491
0.018149
-0.052531
0.002129
-0.047579
0.247231
0.398891
0.703787
1.100849
1.325806
1.429715
1.320868
1.221034
0.902231
0.539027
0.199169
-0.113846
-0.197285
-0.322443
-0.210162
-0.138508
-0.095582
-0.042987
0.046934
0.040634
0.093521
0.072883
0.038931
0.041912
0.038527
0.083614
0.012815
0.074802
0.035261
0.033883
0.046725
0.074864
0.113440
0.071065
0.064393
0.135161
0.110289
0.214068
0.158419
0.065906
0.072772
0.148012
0.136172
0.233687
0.182174
0.222509
0.216868
0.224203
0.240832
0.288299
0.295468
0.388140
0.336821
0.319660
0.403451
0.436013
0.391300
0.455511
0.373675
0.480862
0.459712
0.470847
0.531783
0.540281
0.515433
0.562076
0.502491
0.597314
0.560893
0.565594
0.494599
0.431159
0.619769
0.509172
0.471567
0.488723
0.397434
0.545928
0.481857
0.387124
0.421070
0.450708
0.352856
0.409968
0.303858
0.335957
0.289418
0.281588
0.311930
0.187364
0.305890
0.194821
0.201014
0.243264
0.203716
0.172064
0.116340
0.109815
0.082470
0.169608
0.043387
0.042307
0.056264
0.096407
0.117637
0.049446
0.128854
0.127342
0.080396
0.093883
0.072312
0.092397
0.073742
0.026934
0.050026
0.022466
0.061238
0.083604
0.056139
0.020741
0.040255
0.110310
0.100408
0.057668
0.052023
0.022789
0.034953
0.062200
0.062888
-0.009890
0.073892
0.056993
-0.004795
0.094275
-0.002257
-0.007231
0.009378
0.032589
0.073328
0.096921
0.060753
0.057331
0.146891
-0.027860
-0.001895
0.051875
0.007899
0.055136
0.099853
0.073232
0.009496
0.048611
0.045092
0.030398
0.064241
