0.037341
0.005833
-0.034494
-0.038308
0.001514
0.010095
0.006628
0.007358
0.075021
0.037061
-0.015358
-0.025526
0.020560
-0.005902
-0.004103
0.004049
-0.017369
0.124365
-0.018449
-0.010215
0.034880
-0.013231
0.014958
0.050395
-0.071827
0.036082
0.027848
-0.001877
-0.019463
0.007744
0.007635
0.071477
0.027443
0.058279
0.013320
0.056625
0.098943
0.127796
0.128273
0.148452
0.055549
0.106493
0.234937
0.131068
0.128020
0.124786
0.194252
0.150364
0.121949
0.201285
0.112558
0.179824
0.174633
0.170740
0.223527
0.184145
0.195323
0.105941
0.139781
0.176766
0.073219
0.157691
0.072618
0.092774
0.104373
0.139920
0.062560
0.047558
0.058472
0.025327
0.127886
0.098347
0.081531
0.029873
0.001721
0.006929
0.090618
0.049805
0.116569
0.007869
0.020631
0.117240
0.018290
0.057495
0.016726
0.126858
0.071775
0.036162
0.080849
0.026671
0.104600
0.059079
0.019783
0.025630
0.052796
-0.018433
0.169481
0.246726
0.465982
0.767552
1.039393
1.206667
1.246255
1.160057
0.948080
0.671845
0.402072
0.150616
-0.066961
-0.161305
-0.121363
-0.171198
-0.093013
-0.020151
0.025526
0.061332
-0.010904
0.082975
0.093421
0.034608
0.041801
0.076188
0.109249
0.115762
0.083081
0.114073
0.069061
0.087521
0.111298
0.106046
0.122899
0.129246
0.167289
0.120208
0.122507
0.110013
0.157651
0.089363
0.138630
0.162079
0.199050
0.174906
0.235279
0.318473
0.192670
0.229020
0.304863
0.310729
0.291512
0.372599
0.405396
0.335768
0.345228
0.429234
0.388595
0.456265
0.457957
0.460679
0.471079
0.548842
0.522067
0.551799
0.477213
0.570376
0.499170
0.498675
0.500403
0.655815
0.538728
0.498287
0.548449
0.485901
0.435321
0.485287
0.436998
0.488738
0.383966
0.361477
0.414381
0.372826
0.403824
0.369092
0.302829
0.262996
0.284422
0.269412
0.313480
0.203807
0.224059
0.255094
0.194076
0.281368
0.131567
0.209636
0.161871
0.226456
0.157461
0.114180
0.148741
0.161881
0.200533
0.145748
0.133008
0.010072
0.113839
0.126952
0.132046
0.185249
0.088859
0.155890
0.121527
0.170632
0.159170
0.040006
0.092383
0.101400
0.092189
0.100816
0.130080
0.128513
0.096615
0.032243
0.084889
0.095567
0.155816
0.060310
0.041491
0.052137
0.105666
0.096542
0.159111
0.088109
0.161307
0.118238
0.201564
0.068449
0.044645
0.103138
0.106253
0.115330
0.132162
0.078682
0.141479
0.126471
0.124472
0.113560
0.154594
0.144735
0.054835
0.085847
0.109470
0.173527
0.094337
0.119103
0.081835
0.094308
0.075340
0.098200
0.115754
0.073820
0.148753
0.182245
0.098643
0.121870
0.089157
0.133732
0.096195
0.130580
0.102073
0.079050
0.156185
0.097203
0.067145
0.085616
0.128446
0.086012
0.123030
0.093184
0.155281
0.101567
0.083755
0.062842
0.174842
0.109850
0.017752
0.078579
0.115892
0.211418
0.162551
0.165330
0.102376
0.265638
0.249319
0.167072
0.143760
0.212558
0.208574
0.203542
0.238434
0.227595
0.223828
0.265655
0.312734
0.300063
0.300457
0.265180
0.228152
0.279068
0.263773
0.275726
0.276729
0.249159
0.289446
0.231664
0.202730
0.187631
0.138548
0.164713
0.186004
0.137325
0.213893
0.179219
0.104631
0.170420
0.112081
0.136433
0.128086
0.093412
0.136976
0.094130
0.172974
0.080581
0.149149
0.120047
0.177789
0.086815
0.184477
0.123445
0.154103
0.105464
0.089654
0.036115
0.180345
0.118943
0.099042
0.008418
0.099262
0.161968
0.080378
0.078383
0.094494
0.236523
0.417325
0.681325
0.976265
1.205227
1.318486
1.245764
1.002366
0.752970
0.440520
0.185900
0.059545
-0.176892
-0.172024
-0.113343
-0.048450
-0.019860
0.058817
-0.004110
0.099489
0.083082
0.099027
0.151482
0.108816
0.068479
0.040010
0.076906
0.061000
0.074427
0.105629
0.042467
0.134656
0.096407
0.127024
0.069991
0.087323
0.167560
0.080288
0.108276
0.147985
0.110863
0.178294
0.137382
0.226185
0.195800
0.262477
0.240020
0.150122
0.249168
0.316606
0.290632
0.259037
0.304692
0.295373
0.399060
0.387609
0.405395
0.383162
0.417055
0.427689
0.413514
0.484614
0.527350
0.510372
0.507188
0.484751
0.497753
0.602653
0.474655
0.529785
0.500802
0.376853
0.454244
0.473407
0.507750
0.470015
0.380180
0.422140
0.391911
0.425802
0.357438
0.393037
0.332989
0.322716
0.298902
0.319107
0.299843
0.319856
0.277418
0.226702
0.172194
0.213545
0.165798
0.204521
0.205494
0.161206
0.229282
0.154628
0.070702
0.125877
0.135985
0.131683
0.077498
0.089916
0.055274
0.097745
0.081296
0.066329
0.088592
0.085211
0.131036
0.089296
0.094759
0.117353
-0.001231
0.054011
0.120059
0.136551
0.059966
0.083320
0.029056
0.033685
0.058633
0.038054
0.069106
0.063632
0.067069
0.096076
0.033750
-0.018185
0.046921
0.097865
0.059959
0.116387
0.095649
0.105269
0.046101
0.104908
0.072381
0.033668
0.117592
0.104413
0.027207
0.001948
0.090279
0.057383
0.156557
0.032579
0.023394
0.076245
0.096577
0.101241
0.039426
0.078334
0.032854
0.126743
0.040904
0.069332
0.025030
0.047030
0.051179
0.053696
0.045562
0.034265
0.091895
0.129775
0.039150
0.049505
0.050080
0.143278
0.059278
0.038085
-0.003575
0.044324
0.055862
0.042082
0.026412
0.060610
0.080322
0.108711
0.042128
0.059392
0.082084
0.051941
0.086143
0.077295
0.060080
0.074171
0.115834
0.071958
0.072874
0.069009
0.031677
0.106125
0.119477
0.191391
0.147189
0.116030
0.135235
0.137965
0.190403
0.129759
0.182357
0.210385
0.148565
0.218677
0.247782
0.185004
0.157659
0.302915
0.201057
0.170555
0.219316
0.195552
0.190546
0.177298
0.186766
0.143977
0.160137
0.153826
0.139294
0.155151
0.074822
0.112045
0.148922
0.098148
0.017696
-0.003907
0.082777
0.073881
0.052325
0.117742
0.060568
0.040757
0.097561
0.066836
0.091753
0.042731
0.101340
0.161852
0.088209
0.073983
0.087918
0.055310
0.039259
0.033352
0.054527
0.128994
0.022994
-0.002140
0.059815
0.034730
-0.001017
0.066360
0.145749
0.336171
0.588586
0.899650
1.167905
1.269184
1.230858
1.137044
0.771911
0.540707
0.219196
0.033489
-0.079682
-0.138710
-0.181327
-0.108498
-0.028592
0.041832
0.018676
0.078679
0.117702
0.044874
0.070647
0.064500
0.098460
0.090777
0.090183
0.117092
0.137427
0.128174
0.104716
0.159393
0.094569
0.088263
0.115172
0.129107
0.143899
0.100655
0.129525
0.106887
0.155450
0.157501
0.135664
0.178225
0.148331
0.243961
0.228475
0.254240
0.294350
0.316767
0.282343
0.273858
0.384254
0.300272
0.356371
0.383930
0.356951
0.365539
0.449078
0.508557
0.439267
0.442323
0.514374
0.496012
0.455122
0.503289
0.478805
0.591995
0.510575
0.599511
0.541183
0.480553
0.509472
0.532956
0.483672
0.510916
0.516848
0.532808
0.440629
0.361995
0.433162
0.418854
0.398753
0.394676
0.356123
0.412261
0.400742
0.285972
0.342491
0.314544
0.244708
0.276684
0.285210
0.242854
0.228172
0.281038
0.147327
0.186314
0.178622
0.190142
0.119774
0.148597
0.152823
0.197800
0.133461
0.188515
0.156546
0.125010
0.132243
0.211594
0.173013
0.100724
0.145897
0.108257
0.122251
0.137495
0.176579
0.194640
0.092385
0.149782
0.120631
0.132037
0.166812
0.149584
0.109612
0.211270
0.130302
0.240090
0.199749
0.131337
0.148932
0.092661
0.174889
0.146945
0.098855
0.185371
0.128228
0.175143
0.154563
0.161547
0.123822
0.182058
0.154262
0.182689
0.192803
0.175321
0.178600
0.133206
0.202891
0.126330
0.128388
0.159048
0.141240
0.245341
0.161577
0.143569
0.146845
0.125737
0.128283
0.178634
0.158766
0.105551
0.193023
0.170238
0.091995
0.161092
0.170419
0.101810
0.163818
0.153171
0.199189
0.199979
0.143306
0.154357
0.157941
0.229252
0.203028
0.185478
0.130166
0.171028
0.160951
0.201260
0.151393
0.187382
0.125639
0.183189
0.209700
0.177195
0.157619
0.182866
0.193559
0.215944
0.277376
0.173774
0.188309
0.271762
0.265539
0.306552
0.236083
0.324719
0.262612
0.316561
0.399912
0.320338
0.288080
0.243052
0.287800
0.339417
0.324305
0.270930
0.292880
0.414940
0.329421
0.306398
0.362820
0.281529
0.311339
0.317686
0.330244
0.219018
0.231329
0.220304
0.205527
0.276230
0.231977
0.240372
0.251596
0.240646
0.236921
0.238207
0.262516
0.273414
0.257449
0.249128
0.242253
0.208141
0.229224
0.197575
0.209034
0.283866
0.225924
0.198337
0.181476
0.130906
0.190615
0.150047
0.286911
0.262143
0.109875
0.158809
0.160380
0.202331
0.206287
0.117241
0.304083
0.421832
0.740385
1.016204
1.298276
1.336933
1.434093
1.301357
1.066246
0.719621
0.455706
0.208024
0.024970
-0.105611
0.034950
-0.030282
0.094097
0.188080
0.114030
0.269435
0.299007
0.159086
0.235647
0.210042
0.227213
0.267486
0.198304
0.244747
0.290697
0.350622
0.210871
0.210131
0.255099
0.278792
0.222228
0.265794
0.243331
0.290784
0.333836
0.287309
0.298109
0.325258
0.312537
0.307826
0.343663
0.364064
0.330519
0.413183
0.360961
0.393886
0.375825
0.454710
0.457090
0.527271
0.467286
0.465996
0.574236
0.583537
0.588513
0.595916
0.643191
0.597870
0.635158
0.664397
0.675108
0.588087
0.700252
0.721012
0.650097
0.680381
0.655485
0.628443
0.617516
0.599827
0.704019
0.632629
0.600274
0.609868
0.499214
0.577509
0.582728
0.585790
0.494095
0.468636
0.465670
0.428108
0.491899
0.437508
0.470670
0.409979
0.386264
0.395253
0.412834
0.357976
0.314693
0.331885
0.365098
0.261446
0.333889
0.298254
0.304969
0.270904
0.281023
0.285972
0.387472
0.276011
0.229991
0.213244
0.202572
0.269838
0.208021
0.238014
0.194887
0.207174
0.208797
0.253589
0.257775
0.266568
0.274050
0.236145
0.213183
0.218032
0.267566
0.256483
0.202208
0.374346
0.243851
0.207188
0.212321
0.327970
0.225663
0.218005
0.250468
0.223770
0.300686
0.214235
0.219769
0.217954
0.202797
0.211293
0.197070
0.210212
0.191828
0.207843
0.234730
0.250231
0.208376
0.174848
0.250368
0.212526
0.222867
0.197992
0.212416
0.225683
0.190393
0.225013
0.262153
0.261560
0.254152
0.237927
0.276938
0.241815
0.248173
0.227160
0.204159
0.262975
0.259830
0.247010
0.252005
0.175559
0.300390
0.230054
0.265246
0.200628
0.239441
0.199067
0.187375
0.245985
0.232133
0.197181
0.219176
0.299407
0.240187
0.268947
0.185410
0.252336
0.214698
0.223699
0.277777
0.253461
0.290627
0.294723
0.189414
0.303138
0.304444
0.258004
0.280067
0.227847
0.274326
0.372023
0.287335
0.332794
0.334222
0.327012
0.321620
0.355896
0.352457
0.349700
0.359276
0.384727
0.386799
0.390836
0.415604
0.305096
0.332747
0.349029
0.346261
0.310591
0.273077
0.281074
0.377406
0.330226
0.276642
0.219706
0.252561
0.194537
0.238455
0.220879
0.206582
0.243512
0.209953
0.268648
0.272045
0.222800
0.263742
0.219081
0.281726
0.212423
0.221838
0.262050
0.162753
0.114737
0.175814
0.155953
0.316937
0.268079
0.232380
0.179340
0.151018
0.191801
0.122206
0.142500
0.147730
0.144157
0.169075
0.455311
0.666700
0.877718
1.184599
1.338498
1.357352
1.301036
1.060163
0.824411
0.531582
0.267984
0.080356
0.058693
-0.009228
-0.017314
0.063073
0.085098
0.155780
0.168823
0.143659
0.274518
0.142329
0.179194
0.192439
0.207310
0.220039
0.199856
0.199004
0.164679
0.175720
0.256864
0.286215
0.183369
0.268555
0.248818
0.216779
0.220028
0.176431
0.266973
0.190279
0.273182
0.300697
0.318392
0.311276
0.341566
0.318211
0.373166
0.233303
0.326030
0.394068
0.341627
0.468683
0.438084
0.481342
0.529142
0.473623
0.538294
0.471494
0.499475
0.563802
0.566349
0.621067
0.595619
0.569664
0.594929
0.572031
0.548985
0.635064
0.639480
0.637237
0.519385
0.631030
0.583415
0.570849
0.601137
0.554713
0.478039
0.531749
0.500545
0.497184
0.540916
0.473069
0.481766
0.490649
0.423579
0.352345
0.302079
0.338141
0.352422
0.348870
0.297393
0.287255
0.318828
0.311345
0.268774
0.203277
0.209570
0.188915
0.158022
0.240570
0.165340
0.180904
0.309115
0.206242
0.172134
0.249061
0.181452
0.139075
0.200822
0.192351
0.148143
0.144619
0.146522
0.253700
0.136743
0.192723
0.205093
0.150903
0.113435
0.165216
0.102576
0.174095
0.157995
0.158611
0.132831
0.128187
0.166271
0.165553
0.124423
0.152011
0.089091
0.166719
0.134045
0.154009
0.094827
0.160606
0.100755
0.135038
0.178843
0.174439
0.158298
0.212373
0.171523
0.204215
0.123707
0.130459
0.100679
0.155669
0.126924
0.154908
0.162646
0.089077
0.077058
0.152402
0.101738
0.183370
0.095058
0.139198
0.103841
0.080005
0.100733
0.206540
0.090347
0.195714
0.168372
0.130428
0.130419
0.140740
0.156572
0.158016
0.160394
0.181137
0.186606
0.126561
0.158303
0.106189
0.204722
0.157283
0.148438
0.127707
0.159441
0.175735
0.164937
0.155621
0.096451
0.113748
0.199213
0.193083
0.167070
0.179721
0.086003
0.186575
0.174861
0.205445
0.244652
0.259516
0.170374
0.247654
0.216727
0.241380
0.194161
0.276195
0.267709
0.250166
0.257622
0.230133
0.313898
0.251064
0.354448
0.258293
0.247898
0.300080
0.272522
0.277957
0.265949
0.250676
0.259851
0.248351
0.303154
0.188753
0.231694
0.151892
0.182603
0.213877
0.164795
0.232156
0.109932
0.225074
0.160720
0.137141
0.216893
0.206155
0.170279
0.141126
0.130296
0.128174
0.110324
0.194565
0.117003
0.172018
0.097401
0.126501
0.122605
0.160761
0.091311
0.119806
0.176164
0.120711
0.106422
0.180767
0.095830
0.114571
0.093059
0.177382
0.260289
0.431150
0.823746
1.117474
1.284090
1.357576
1.282591
1.117006
0.812749
0.527904
0.227207
0.110526
-0.079458
-0.064909
-0.166427
-0.034306
0.053535
0.137194
0.203499
0.092799
0.210315
0.139899
0.111627
0.131119
0.197486
0.076123
0.119429
0.166559
0.148313
0.214513
0.273846
0.164218
0.204450
0.144811
0.201247
0.170093
0.187927
0.209835
0.207650
0.232810
0.302625
0.194905
0.158795
0.257223
0.247015
0.240035
0.306521
0.312319
0.297692
0.294440
0.406457
0.382435
0.348134
0.439036
0.435196
0.438970
0.467382
0.507840
0.523384
0.507138
0.596548
0.571402
0.521206
0.526917
0.613812
0.596145
0.612479
0.556966
0.581402
0.632137
0.601229
0.540943
0.534211
0.534926
0.580558
0.569088
0.556747
0.541740
0.531959
0.524850
0.528898
0.468611
0.458630
0.420495
0.434772
0.405833
0.391725
0.304412
0.307997
0.336292
0.359684
0.336982
0.324027
0.368784
0.279257
0.260835
0.260340
0.264935
0.249657
0.261352
0.231413
0.234032
0.196237
0.225220
0.155607
0.152900
0.245559
0.147310
0.272030
0.173668
0.223908
0.209336
0.127132
0.189125
0.147859
0.171582
0.199825
0.196785
0.143773
0.157984
0.194609
0.165966
0.208655
0.185624
0.115202
0.187773
0.192841
0.166968
0.177248
0.222903
0.177485
0.163562
0.107957
0.207970
0.237532
0.250513
0.212231
0.178468
0.208896
0.236108
0.223652
0.181828
0.226485
0.211409
0.222609
0.152989
0.180617
0.197909
0.265427
0.215485
0.186424
0.178275
0.224444
0.239280
0.243843
0.244607
0.237468
0.226900
0.290159
0.214818
0.147193
0.229402
0.279911
0.176060
0.247033
0.219917
0.233925
0.146425
0.180917
0.183162
0.187806
0.272062
0.243194
0.255528
0.274391
0.254711
0.259334
0.271546
0.271259
0.202628
0.192932
0.252214
0.222673
0.240581
0.192996
0.247386
0.245900
0.273351
0.236994
0.252928
0.289906
0.280205
0.248068
0.258014
0.235981
0.297768
0.304741
0.320011
0.373813
0.332340
0.311987
0.296354
0.340872
0.373659
0.375218
0.390743
0.413841
0.359101
0.336235
0.350113
0.395619
0.407341
0.389403
0.377234
0.363917
0.343673
0.308092
0.350865
0.286949
0.295284
0.307850
0.321874
0.279850
0.370305
0.294225
0.209706
0.290412
0.215431
0.280843
0.250192
0.308416
0.247631
0.274546
0.254247
0.336778
0.189996
0.278440
0.256648
0.282231
0.274832
0.198273
0.217706
0.191955
0.227452
0.276439
0.236019
0.301640
0.209506
0.256121
0.223420
0.191727
0.231535
0.216108
0.230688
0.370425
0.524478
0.849437
1.117106
1.380667
1.434525
1.474194
1.268704
0.985876
0.627172
0.433898
0.243835
0.101417
-0.019885
0.024578
0.078952
0.164743
0.249330
0.239064
0.259113
0.242569
0.294942
0.294716
0.199715
0.249926
0.290129
0.302070
0.228466
0.331980
0.277431
0.240085
0.301807
0.272312
0.255171
0.312908
0.366913
0.294791
0.341116
0.228771
0.381190
0.304880
0.359331
0.385153
0.374233
0.337503
0.421642
0.430959
0.362377
0.398729
0.427436
0.446626
0.462018
0.495343
0.503922
0.561709
0.573120
0.592798
0.638500
0.601231
0.658325
0.649427
0.666827
0.736377
0.662235
0.706610
0.695500
0.649668
0.727387
0.686439
0.687990
0.723086
0.697705
0.663099
0.704747
0.682253
0.680018
0.645865
0.673721
0.658934
0.585638
0.618433
0.628293
0.503811
0.493262
0.507206
0.525031
0.424899
0.503513
0.442424
0.431384
0.460256
0.451695
0.338139
0.343564
0.397676
0.391271
0.323520
0.445731
0.341161
0.340168
0.335519
0.323469
0.325955
0.254833
0.356314
0.255363
0.319689
0.277338
0.290478
0.234619
0.261593
0.285952
0.288892
0.243593
0.335499
0.245400
0.221255
0.289941
0.296478
0.295482
0.213332
0.274713
0.232836
0.274158
0.211785
0.310102
0.230793
0.219647
0.288623
0.266246
0.281375
0.250418
0.272388
0.285469
0.233470
0.345658
0.248728
0.235895
0.323837
0.233079
0.273464
0.293517
0.231933
0.283287
0.312105
0.256831
0.288380
0.279265
0.199241
0.285846
0.284829
0.297650
0.272084
0.300974
0.288228
0.282753
0.247642
0.294976
0.299410
0.299910
0.240502
0.268534
0.246504
0.255562
0.201159
0.303245
0.178278
0.246354
0.268999
0.247133
0.292934
0.195724
0.266592
0.281993
0.231568
0.330422
0.274290
0.247060
0.201036
0.270391
0.328438
0.225847
0.265192
0.259609
0.198642
0.219445
0.227407
0.307864
0.319011
0.249390
0.316507
0.227249
0.291392
0.311315
0.325399
0.287693
0.372768
0.353411
0.352054
0.315527
0.344493
0.392992
0.302539
0.446910
0.442047
0.337614
0.405678
0.367700
0.389602
0.371940
0.392496
0.349826
0.423340
0.391476
0.396701
0.370819
0.376122
0.364935
0.310865
0.319219
0.312414
0.317544
0.288263
0.261219
0.241257
0.341767
0.302106
0.284375
0.288533
0.276046
0.287085
0.229543
0.264071
0.195137
0.216540
0.219867
0.234208
0.233187
0.262752
0.279655
0.239587
0.232477
0.289286
0.222168
0.303210
0.218824
0.194492
0.257481
0.168754
0.228356
0.261632
0.164692
0.096522
0.171130
0.290311
0.444875
0.811662
1.027886
1.232805
1.422900
1.454264
1.299512
0.974444
0.756798
0.422708
0.228166
0.046208
0.005909
-0.047575
-0.047467
0.071672
0.091517
0.174856
0.188123
0.225436
0.209630
0.229713
0.267947
0.144028
0.217664
0.248748
0.159204
0.290136
0.234739
0.189320
0.219825
0.270187
0.215893
0.229950
0.269349
0.247944
0.262196
0.246543
0.231056
0.272012
0.330418
0.342100
0.289331
0.265946
0.356755
0.278063
0.345641
0.389673
0.407630
0.447970
0.432432
0.384925
0.466767
0.440862
0.467714
0.504015
0.502490
0.520952
0.540588
0.459408
0.546057
0.568147
0.600814
0.650586
0.630706
0.668924
0.617507
0.615485
0.591322
0.541142
0.658561
0.684227
0.611759
0.622390
0.561853
0.485506
0.590529
0.488627
0.559952
0.579510
0.546741
0.426185
0.485273
0.573521
0.408894
0.436259
0.369054
0.363424
0.343586
0.359298
0.319765
0.276246
0.275440
0.268401
0.230624
0.316355
0.189654
0.236471
0.311218
0.238354
0.250233
0.213178
0.198596
0.205786
0.196258
0.162088
0.197568
0.170116
0.130396
0.205602
0.134548
0.231263
0.172573
0.164420
0.167665
0.236618
0.226450
0.175174
0.214378
0.155213
0.165990
0.136421
0.140970
0.126654
0.172929
0.164653
0.146166
0.173539
0.155438
0.221567
0.149528
0.065638
0.196750
0.127882
0.171649
0.142242
0.173302
0.145084
0.173287
0.219633
0.164203
0.157306
0.134404
0.186840
0.160957
0.146528
0.117720
0.233950
0.158169
0.177841
0.171973
0.200926
0.196044
0.141296
0.151211
0.196501
0.176490
0.200698
0.122068
0.226066
0.241045
0.150332
0.262427
0.197409
0.190930
0.208870
0.132447
0.161687
0.204244
0.151465
0.091404
0.162893
0.198741
0.124936
0.208272
0.145895
0.214242
0.103543
0.199491
0.164626
0.099085
0.129938
0.171461
0.172240
0.165480
0.161954
0.150785
0.149723
0.223371
0.216872
0.184413
0.167961
0.167091
0.207158
0.261167
0.203274
0.235453
0.264212
0.305968
0.323067
0.287264
0.310349
0.281137
0.271304
0.224590
0.313226
0.400650
0.355462
0.311909
0.326408
0.382057
0.306201
0.316046
0.286841
0.320521
0.276281
0.277099
0.226113
0.226140
0.224369
0.223591
0.245153
0.208813
0.305850
0.222041
0.203096
0.174717
0.189378
0.217244
0.147434
0.139138
0.168262
0.188983
0.182127
0.162297
0.108862
0.207186
0.149944
0.155436
0.198108
0.192004
0.124307
0.133671
0.205253
0.161104
0.131317
0.131858
0.097825
0.087243
0.152180
0.118508
0.079686
0.125415
0.206635
0.411772
0.652959
0.940506
1.199260
1.308305
1.398681
1.282334
1.020699
0.766177
0.475966
0.210168
0.019288
-0.149632
-0.087732
-0.024453
0.019811
-0.002540
0.092703
0.235471
0.144088
0.178804
0.194251
0.201832
0.107243
0.193883
0.234202
0.233879
0.146378
0.209325
0.220187
0.195981
0.190090
0.164859
0.172562
0.245431
0.189614
0.269770
0.149915
0.200371
0.228802
0.172187
0.263134
0.338471
0.281162
0.278444
0.243534
0.358370
0.339534
0.371217
0.349649
0.446972
0.360394
0.428310
0.441086
0.547896
0.444158
0.462031
0.496178
0.564622
0.581769
0.615487
0.568206
0.593989
0.607831
0.608292
0.632779
0.533335
0.573996
0.559502
0.628088
0.627447
0.565903
0.623696
0.558447
0.597220
0.596664
0.537962
0.502525
0.516464
0.489326
0.544591
0.588884
0.481654
0.489355
0.411614
0.400965
0.358394
0.428528
0.346898
0.391438
0.307529
0.392405
0.319964
0.323755
0.292858
0.321839
0.311643
0.242630
0.249850
0.249268
0.226869
0.239426
0.227135
0.204999
0.209578
0.220214
0.198433
0.185187
0.190320
0.211603
0.235717
0.287618
0.223141
0.273724
0.208963
0.272772
0.174065
0.203738
0.206482
0.180251
0.250250
0.175041
0.273252
0.115706
0.195961
0.185274
0.194364
0.224286
0.175104
0.186530
0.209655
0.231345
0.259358
0.210994
0.175657
0.246872
0.225676
0.182112
0.209439
0.272208
0.254385
0.273177
0.315246
0.217650
0.191537
0.271831
0.178472
0.259091
0.243949
0.185356
0.125962
0.212084
0.281720
0.150926
0.257680
0.224101
0.272972
0.226065
0.214504
0.307672
0.297295
0.227450
0.141338
0.232085
0.161794
0.206561
0.285185
0.175400
0.294726
0.198450
0.275412
0.293139
0.275482
0.214520
0.288009
0.244855
0.240039
0.255292
0.294295
0.211993
0.273093
0.277292
0.230404
0.204958
0.295251
0.268747
0.343553
0.237555
0.316621
0.253791
0.346509
0.355648
0.341473
0.257186
0.315597
0.296763
0.403571
0.342321
0.310198
0.332430
0.389797
0.371493
0.377962
0.390538
0.388936
0.348420
0.443935
0.425384
0.400617
0.363910
0.373908
0.382377
0.350367
0.404750
0.410449
0.344419
0.376070
0.389788
0.407650
0.338751
0.319419
0.329404
0.335302
0.268569
0.321647
0.363421
0.320965
0.204343
0.258106
0.289342
0.275786
0.337127
0.303278
0.305796
0.331942
0.298450
0.277070
0.282768
0.295454
0.283527
0.284998
0.303277
0.279226
0.272182
0.292796
0.282124
0.271621
0.294486
0.238018
0.193579
0.251377
0.174129
0.176959
0.344293
0.355814
0.654839
0.941219
1.165036
1.349553
1.500000
1.368197
1.166403
0.878710
0.673058
0.460478
0.190917
-0.024183
0.002646
-0.004000
0.120539
0.155311
0.237877
0.242436
0.252944
0.197097
0.343771
0.331104
0.308019
0.228066
0.274598
0.258441
0.313009
0.286913
0.295638
0.295531
0.329461
0.349883
0.251749
0.304720
0.360358
0.359235
0.340215
0.352482
0.366518
0.312978
0.324111
0.407173
0.408596
0.369681
0.421898
0.469476
0.462203
0.504833
0.511117
0.531773
0.535864
0.516722
0.540651
0.573396
0.598138
0.545641
0.647872
0.577406
0.695988
0.571700
0.698546
0.629411
0.736912
0.747474
0.727863
0.716935
0.711146
0.744290
0.772507
0.698632
0.688257
0.706411
0.752156
0.715204
0.690305
0.660624
0.634813
0.571166
0.656801
0.626705
0.564355
0.648793
0.579174
0.544816
0.484504
0.573993
0.496255
0.508420
0.516838
0.425150
0.409653
0.416329
0.422564
0.377026
0.329686
0.358545
0.335642
0.279373
0.337951
0.343346
0.331989
0.362020
0.337657
0.344374
0.351574
0.304168
0.272483
0.276530
0.255728
0.270143
0.345321
0.274478
0.309264
0.333488
