-0.003761
0.032933
-0.060649
-0.026085
-0.000692
0.097993
0.066430
-0.001812
0.041864
0.019327
-0.032820
-0.021213
-0.028290
0.016815
0.031245
-0.049072
0.079786
0.040826
0.038465
0.038452
0.129639
0.061070
0.070746
0.119831
0.099148
0.144082
0.125031
0.135306
0.195567
0.151299
0.124746
0.118187
0.183240
0.145377
0.224950
0.207981
0.184161
0.169283
0.192834
0.218384
0.225061
0.129694
0.256760
0.137750
0.105315
0.214503
0.190058
0.168009
0.088269
0.154695
0.094596
0.030569
0.054345
0.021860
0.109817
0.116326
0.015664
0.050201
0.070987
0.000612
0.089846
0.003473
-0.015736
0.004819
0.023627
0.010274
0.136581
0.178854
0.296352
0.640311
0.876875
1.285953
1.324105
1.331574
1.151053
0.775818
0.400927
0.146571
-0.125880
-0.084414
-0.168196
-0.108205
0.000714
-0.044072
0.079214
0.065064
0.122729
0.113434
0.167181
0.099711
0.184983
0.162884
0.154051
0.200426
0.172974
0.197479
0.217192
0.266613
0.272818
0.204982
0.380174
0.413460
0.331466
0.416501
0.425262
0.403084
0.432779
0.507523
0.409627
0.532306
0.567039
0.499593
0.604175
0.585728
0.607923
0.563195
0.527130
0.558341
0.476842
0.537048
0.597828
0.525651
0.570822
0.632004
0.508491
0.532464
0.435719
0.526963
0.509077
0.421433
0.388716
0.391735
0.336467
0.394286
0.396263
0.335936
0.232847
0.361832
0.295229
0.267053
0.170423
0.219858
0.211966
0.200908
0.208737
0.135281
0.140107
0.118405
0.132583
0.055321
0.169040
0.141596
0.148380
0.103594
0.118666
0.080922
0.167658
0.042192
0.034844
0.086481
0.097841
0.191248
0.133665
0.110661
0.048220
0.043379
0.042498
0.118769
0.125288
0.122773
0.043292
0.022065
0.087839
0.104651
0.093310
0.117981
0.120204
0.139012
0.118705
0.014445
0.055163
0.075316
0.165349
0.055310
0.072321
0.076483
0.117408
0.073541
0.100309
0.028820
0.094359
0.142763
0.118341
0.085879
0.135940
0.138456
0.123305
0.139947
0.160940
0.089565
0.101469
0.163610
0.217898
0.147639
0.117015
0.225137
0.168347
0.175170
0.099853
0.207555
0.249075
0.188184
0.278418
0.201371
0.224671
0.213265
0.217993
0.192646
0.241024
0.235055
0.235113
0.250611
0.161932
0.247259
0.242124
0.199878
0.221441
0.182610
0.253980
0.211687
0.190521
0.086598
0.137423
0.159471
0.163125
0.112967
0.196807
0.124945
0.074064
0.068748
0.117315
0.126858
0.113502
0.078059
0.129335
0.016942
0.067408
0.148814
0.294108
0.481707
0.701053
1.107764
1.379512
1.500000
1.358007
1.185087
0.766909
0.396000
0.102089
-0.091013
-0.115864
-0.067366
-0.025663
0.047710
-0.009145
0.153134
0.048738
0.141722
0.147488
0.146847
0.134938
0.210138
0.209023
0.232114
0.182907
0.273524
0.197056
0.271183
0.227263
0.327739
0.273463
0.380528
0.277547
0.316981
0.383597
0.418513
0.492594
0.458460
0.497752
0.442817
0.488675
0.479897
0.522769
0.546796
0.522193
0.580612
0.594977
0.484074
0.513987
0.533026
0.539799
0.558925
0.556989
0.493581
0.516311
0.486039
0.549538
0.474771
0.436788
0.478224
0.402557
0.333469
0.371308
0.336211
0.293038
0.336347
0.312173
0.293142
0.364941
0.226251
0.125062
0.186134
0.172885
0.197993
0.206485
0.161637
0.052296
0.111593
0.107687
0.050336
0.134200
0.075215
0.046609
0.075245
0.032176
0.072811
0.098872
0.052425
0.011906
-0.002587
0.062705
0.015432
0.035702
0.013513
0.026455
0.090364
0.011776
0.040542
-0.004522
0.018419
0.022615
0.021096
0.030566
-0.009610
0.023467
0.098452
-0.002365
0.069133
0.126982
0.024278
0.093008
-0.022894
0.087075
0.041618
0.085620
-0.006813
0.038774
-0.018075
0.017366
-0.043100
0.028748
-0.004335
0.003408
0.071183
-0.066212
-0.001936
0.001161
0.061586
0.098952
0.043348
0.038015
0.115073
0.091786
0.080461
0.138473
0.102881
0.081678
0.172633
0.142762
0.109121
0.101537
0.151555
0.176420
0.159129
0.153824
0.184929
0.260414
0.202515
0.210023
0.180351
0.199027
0.176157
0.199546
0.152693
0.176997
0.145549
0.163192
0.064133
0.093039
0.180601
0.162645
0.189361
0.087945
0.045969
0.087394
0.019850
0.080585
-0.014432
0.057321
-0.052789
0.016652
0.089614
-0.070175
0.022414
-0.020001
0.067282
-0.082135
-0.042085
0.184221
0.200047
0.442881
0.730849
1.080560
1.257958
1.323245
1.160437
0.921657
0.569116
0.253507
-0.020414
-0.154935
-0.190819
-0.083279
-0.137273
-0.052731
-0.015559
-0.010286
0.047506
0.035168
0.082345
0.016895
0.079436
0.147432
0.058676
0.088164
0.137339
0.110167
0.127549
0.149161
0.179291
0.173705
0.355660
0.205620
0.257211
0.366076
0.310232
0.331954
0.262619
0.400027
0.405493
0.400873
0.374315
0.408685
0.440683
0.498368
0.476658
0.377470
0.407114
0.454035
0.525444
0.404109
0.470493
0.451046
0.448095
0.490775
0.485736
0.429065
0.330360
0.432443
0.423796
0.317362
0.296782
0.376893
0.255763
0.318116
0.268864
0.266416
0.214346
0.224378
0.097105
0.113429
0.097715
0.092742
0.101208
0.109859
0.103480
-0.000684
0.057372
0.015243
-0.009899
0.082356
-0.000495
0.013153
-0.036253
0.020117
-0.032576
-0.045960
-0.049464
0.012350
0.043571
0.000684
-0.102991
-0.047139
0.073452
-0.018181
-0.051191
-0.028542
-0.090142
-0.046989
-0.069667
-0.053854
-0.015899
0.003814
-0.083001
-0.101496
-0.024014
-0.028819
-0.017867
-0.089422
-0.010066
-0.068139
-0.004585
-0.020858
-0.039106
-0.079084
-0.090687
-0.072178
-0.084857
-0.031414
-0.051611
-0.032913
-0.046218
-0.034739
-0.036196
-0.037712
-0.021393
-0.084088
-0.064417
-0.050629
-0.126255
0.055755
-0.036833
0.005297
-0.010059
-0.014908
-0.017769
0.057570
0.065362
0.062082
0.115291
0.104151
0.069425
0.100921
0.093054
0.194302
0.127540
0.035397
0.217759
0.070562
0.214753
0.129626
0.127932
0.134573
0.106026
0.131161
0.082388
0.027367
0.093187
0.077980
0.057689
0.095700
0.055355
0.048812
0.025005
-0.028907
-0.023437
0.000616
-0.039567
0.005812
0.006540
0.003666
0.031812
-0.065379
-0.117698
-0.032397
0.005011
-0.069834
-0.045244
-0.004058
0.066830
0.260831
0.496754
0.743790
1.171970
1.307714
1.287704
1.110297
0.743392
0.368476
0.057642
-0.087985
-0.135468
-0.165086
-0.161698
-0.061059
0.020146
-0.040762
0.056791
0.052043
-0.006578
0.064200
0.143504
0.049547
0.116447
0.074076
0.139910
0.083947
0.114458
0.163172
0.221429
0.243956
0.188643
0.266885
0.280171
0.337261
0.270286
0.281219
0.385432
0.300152
0.344514
0.353275
0.419671
0.387590
0.400341
0.470066
0.529712
0.496574
0.502934
0.476944
0.498241
0.471420
0.463277
0.424750
0.460429
0.461343
0.495263
0.449949
0.421367
0.351008
0.321588
0.379597
0.345506
0.346837
0.294687
0.317581
0.239206
0.308614
0.291880
0.085601
0.196532
0.124634
0.165390
0.085666
0.033048
0.122281
0.123009
0.099603
0.165485
0.104704
0.045998
0.011579
0.023323
0.018428
0.053350
0.010379
0.034529
0.037393
0.021961
-0.006013
0.028346
0.055364
-0.083974
0.083666
-0.033720
-0.059187
0.036455
0.013093
0.007944
0.026988
0.029138
0.024013
0.004675
-0.131931
0.031229
0.026472
-0.024913
-0.022303
0.024849
-0.018578
-0.055063
-0.054969
0.018711
0.016334
0.063827
-0.033495
0.048538
0.007025
-0.036746
0.022881
0.035263
0.083689
-0.032687
-0.054922
0.057694
-0.003107
0.029532
0.012046
0.035174
-0.021307
0.166658
0.029878
0.039190
0.013878
0.069168
0.093908
0.096995
0.084336
0.066487
0.133531
0.113801
0.078970
0.108945
0.137889
0.145509
0.056200
0.204986
0.196850
0.172454
0.210026
0.203474
0.186380
0.185892
0.175171
0.204271
0.176706
0.207639
0.160605
0.138237
0.170414
0.133072
0.105596
0.080932
0.156497
0.133424
0.098726
0.048754
0.177277
0.139435
0.117573
0.081794
0.048100
0.087818
0.066488
0.065184
0.031038
0.046878
0.015083
0.078698
0.043036
0.189785
0.173172
0.393336
0.737383
0.937893
1.297528
1.342488
1.342993
1.110161
0.764777
0.473784
0.168973
-0.037833
-0.132401
-0.176997
-0.014112
0.013871
0.025193
0.094816
0.110049
0.104464
0.140445
0.233363
0.127863
0.202387
0.267153
0.200805
0.206684
0.257792
0.231627
0.262876
0.205496
0.279187
0.364378
0.326143
0.429370
0.367934
0.420923
0.372064
0.418636
0.430755
0.469863
0.514200
0.477884
0.466706
0.533793
0.574664
0.621918
0.511948
0.490194
0.552645
0.635562
0.526943
0.551800
0.640396
0.552076
0.554563
0.554225
0.566925
0.512660
0.423906
0.481933
0.484809
0.327190
0.486093
0.402403
0.319353
0.351210
0.427013
0.365885
0.319231
0.288915
0.180070
0.256127
0.285099
0.188958
0.236502
0.164332
0.211699
0.116311
0.179540
0.094764
0.076992
0.116568
0.116939
0.128835
0.076466
0.093034
0.106764
0.155371
0.151204
0.104892
0.161999
0.092700
0.190537
0.154318
0.073062
0.063979
0.079907
0.137377
0.055067
0.115122
0.102273
0.146700
0.047298
0.074053
0.054148
0.138435
0.179941
0.118712
0.128085
0.060365
0.144780
0.051882
0.090807
0.061564
0.077356
0.115067
0.151289
0.042823
0.058471
0.103040
0.091034
0.108577
0.065263
0.073379
0.055279
0.121489
0.080625
0.136536
0.142656
0.126346
0.175095
0.160435
0.193143
0.109164
0.193864
0.174033
0.164757
0.257113
0.158293
0.201608
0.219330
0.211576
0.266258
0.309732
0.295192
0.205246
0.225493
0.305399
0.225688
0.262285
0.219121
0.173752
0.179234
0.221301
0.272375
0.241944
0.238231
0.234336
0.202434
0.244246
0.190674
0.181122
0.235612
0.141196
0.157311
0.149287
0.189820
0.174773
0.071014
0.076170
0.113381
0.111173
0.185507
0.128601
0.096838
0.122170
0.029598
0.106095
0.131457
0.068831
0.243722
0.491203
0.747743
1.096871
1.340826
1.370626
1.332032
1.087247
0.772174
0.289211
0.040528
-0.038210
-0.008554
-0.077784
0.012744
0.039771
0.005665
0.077643
0.168592
0.135200
0.134443
0.155319
0.151473
0.113736
0.140414
0.195624
0.205950
0.168030
0.281698
0.307466
0.328707
0.312268
0.373345
0.329056
0.310494
0.345210
0.503836
0.405487
0.397591
0.464025
0.529466
0.521076
0.517957
0.568481
0.546763
0.505468
0.529069
0.603847
0.518842
0.560080
0.611153
0.554642
0.627311
0.542560
0.529834
0.611501
0.481284
0.417309
0.476063
0.493472
0.479867
0.498409
0.438015
0.370957
0.380906
0.334678
0.326548
0.368537
0.313224
0.299243
0.347932
0.266490
0.188981
0.190768
0.208679
0.125592
0.224942
0.130195
0.099644
0.146380
0.204698
0.140454
0.163165
0.111539
0.080647
0.087134
0.100115
0.110474
0.036159
0.047775
0.115347
0.140843
0.140791
0.171679
0.119845
-0.032512
0.108235
0.015597
0.080132
0.008391
0.065719
0.074524
0.080287
-0.009647
0.076642
0.067362
0.010185
0.131029
0.061917
0.019449
0.031090
0.075913
-0.008488
-0.017951
0.059718
-0.005134
0.158473
0.078926
0.081711
0.087629
0.045972
0.000965
0.011469
0.078310
0.016082
-0.009476
0.082081
0.116519
-0.001758
0.080689
0.066051
0.095457
0.076930
0.097589
0.094729
0.140864
0.118320
0.090874
0.027840
0.142442
0.112403
0.105398
0.126392
0.186507
0.244945
0.246077
0.259809
0.207275
0.170422
0.178742
0.181555
0.215666
0.178438
0.181793
0.182713
0.164702
0.076500
0.168047
0.169412
0.143502
0.114426
0.022395
0.194930
0.032972
0.049867
0.044486
0.105817
0.044347
0.033252
0.019423
0.014563
0.040493
0.024863
0.015536
0.075589
0.001673
0.085242
-0.038862
-0.036267
0.131389
0.094372
0.285128
0.429241
0.787339
1.074515
1.287779
1.373118
1.177126
0.882315
0.544958
0.179067
0.039186
-0.139776
-0.189475
-0.090987
-0.029180
-0.031231
0.008268
0.075937
0.034170
-0.000083
0.053638
0.040697
0.127940
0.125967
0.114434
0.045933
0.107327
0.146303
0.143997
0.177752
0.122911
0.317185
0.281311
0.238752
0.349618
0.250272
0.331316
0.313073
0.410957
0.396174
0.446223
0.409601
0.323015
0.426016
0.449685
0.429438
0.420330
0.522728
0.517522
0.430423
0.409500
0.502108
0.447286
0.378101
0.385557
0.441623
0.469089
0.347054
0.404892
0.487912
0.277207
0.287969
0.287424
0.250382
0.366802
0.249722
0.232735
0.226709
0.063003
0.134570
0.227449
0.190877
0.109537
0.062365
0.069096
0.117206
0.070810
0.092754
-0.004730
0.023636
0.080944
-0.031101
-0.069088
0.044214
-0.007052
-0.006975
-0.077599
-0.068606
-0.042919
-0.084612
0.010884
0.029868
-0.013568
-0.080595
-0.031325
-0.114388
-0.023277
-0.039134
-0.069929
-0.031131
-0.081844
-0.047829
0.046755
0.018359
-0.059747
-0.085208
-0.064760
-0.091082
-0.073652
-0.112497
-0.053213
-0.045095
-0.120682
-0.056217
-0.062931
-0.056740
-0.047460
-0.045327
-0.014797
-0.001764
-0.020848
-0.067728
-0.083541
-0.047655
-0.039102
-0.065503
0.017431
-0.057434
-0.018539
-0.033899
-0.049922
-0.073849
-0.053050
0.032246
-0.088755
0.001811
0.008588
-0.073390
-0.021748
0.065540
0.049038
0.095224
0.033826
0.092876
0.069210
0.032918
0.021248
0.122882
0.042378
0.067975
0.104551
0.008129
0.025188
0.031617
0.075915
0.131491
0.079252
0.065434
0.062375
0.124955
-0.036094
0.039801
0.002934
0.034386
0.017809
0.021574
-0.028165
-0.042190
-0.048345
-0.014423
-0.088507
-0.050545
-0.080032
-0.066825
-0.072786
-0.044883
-0.091199
-0.093440
-0.044190
-0.102280
0.070006
0.240783
0.536934
0.801748
1.048136
1.330348
1.279873
1.061481
0.704342
0.382815
-0.017206
-0.190720
-0.265763
-0.264581
-0.114037
-0.140712
-0.115610
0.007335
-0.017921
-0.059087
-0.029640
0.036652
0.003167
0.004528
0.022019
0.137821
0.136353
0.071281
0.077859
0.084488
0.048206
0.092991
0.136009
0.162823
0.173382
0.156937
0.330333
0.333076
0.198839
0.383573
0.293082
0.386109
0.429350
0.354956
0.419616
0.486115
0.404655
0.429225
0.301327
0.422269
0.430489
0.441327
0.398629
0.417590
0.436530
0.421733
0.471535
0.292562
0.322032
0.346481
0.428166
0.352631
0.330902
0.235752
0.288102
0.291679
0.238894
0.203363
0.115502
0.127954
0.257362
0.197277
0.042629
0.092651
0.041604
0.048250
0.011354
0.092123
0.037365
0.060204
0.025351
-0.022963
-0.027278
-0.041482
-0.048052
-0.053201
0.009866
-0.067558
-0.048030
-0.000737
-0.038973
-0.138351
-0.098030
-0.035966
-0.053947
-0.069330
-0.047019
-0.031263
-0.032517
-0.112462
-0.105486
-0.009642
-0.038893
-0.035967
-0.080885
-0.052522
-0.020727
-0.080407
-0.129009
-0.019946
-0.076476
-0.083729
-0.002971
-0.077447
-0.051809
0.028489
-0.099181
-0.011548
-0.048814
-0.063412
-0.061502
-0.127540
-0.055760
-0.152116
-0.037106
-0.042736
-0.014860
-0.041704
-0.024943
0.017245
-0.037753
-0.063699
-0.042360
0.013440
-0.030701
-0.018149
0.088603
-0.010435
0.071390
0.059091
0.046569
0.174206
0.119009
0.102074
0.109032
0.181819
0.157991
0.128107
0.075907
0.107084
0.149066
0.168044
0.174846
0.090782
0.149032
0.063181
0.081415
0.136902
0.062552
0.141053
0.077632
0.013622
0.020404
0.039666
-0.005212
0.065908
0.037204
0.029956
0.078885
0.027078
0.013974
-0.030110
0.010778
-0.021297
0.005497
-0.011571
-0.014770
-0.015394
-0.040331
-0.051345
0.064540
0.128060
0.381404
0.613892
0.922462
1.228584
1.299969
1.234139
1.042465
0.610046
0.297083
0.006353
-0.204547
-0.171492
-0.126144
-0.128875
-0.033035
-0.003220
0.022786
0.066912
0.076938
0.008050
0.074739
0.073123
0.141794
0.097416
0.115567
0.115132
0.133366
0.047289
0.184104
0.161303
0.199347
0.365288
0.240036
0.328115
0.280512
0.240216
0.317850
0.403149
0.370258
0.411459
0.438091
0.449738
0.507936
0.474900
0.518233
0.546726
0.533250
0.438119
0.500801
0.516388
0.467058
0.530209
0.447262
0.574007
0.417599
0.484115
0.342698
0.486464
0.397843
0.433724
0.325306
0.355232
0.408335
0.350827
0.297347
0.336689
0.271785
0.327439
0.278810
0.294977
0.183428
0.314581
0.128949
0.078375
0.220347
0.144421
0.079996
0.218625
0.072862
0.091753
0.108255
0.031882
0.096946
0.026398
0.017857
0.118402
0.113346
0.047117
-0.007039
-0.044985
0.026938
0.056605
0.038694
0.002758
0.092486
0.060881
0.037765
0.007706
-0.010888
0.020002
-0.039644
0.097606
0.011996
0.035558
-0.051780
0.049798
0.069094
0.118941
0.089222
0.042451
0.013999
0.012058
0.047385
-0.000047
-0.008270
0.033613
0.017832
0.066857
-0.018525
-0.001417
0.040560
-0.000078
0.024867
-0.011717
0.010199
0.097438
0.105459
0.045348
0.113862
0.055454
0.034929
0.133073
0.208708
0.221506
0.186423
0.035719
0.171506
0.171992
0.107495
0.187913
0.187819
0.096484
0.149494
0.143305
0.282886
0.306954
0.268435
0.314525
0.225829
0.233584
0.215249
0.204914
0.247376
0.121571
0.118290
0.169050
0.142008
0.078075
0.224855
0.256457
0.189703
0.119034
0.141439
0.114360
0.087056
0.024583
0.066844
0.092179
0.044166
0.088967
0.091903
0.038396
0.043785
-0.016725
0.069887
0.024463
0.022511
0.117869
0.028319
0.192402
0.310428
0.495082
0.810361
1.089570
1.316434
1.479723
1.278833
0.999405
0.604240
0.283743
-0.011515
-0.132720
-0.122622
-0.094591
-0.040057
-0.013075
0.077002
0.083429
0.081588
0.124762
0.116305
0.119359
0.184197
0.194249
0.189873
0.161877
0.165780
0.264567
0.287740
0.310011
0.176136
0.302640
0.250351
0.347698
0.378550
0.316199
0.397850
0.395388
0.418137
0.407647
0.439489
0.450312
0.476448
0.463804
0.491157
0.491058
0.506823
0.468616
0.577350
0.617642
0.545387
0.536783
0.586380
0.606654
0.511992
0.468275
0.528114
0.521772
0.510168
0.412963
0.452319
0.381911
0.422705
0.384178
0.409500
0.372562
0.333902
0.338307
0.307643
0.273197
0.177030
0.246659
0.258963
0.210087
0.198862
0.135192
0.167353
0.104207
0.048475
0.119333
0.173874
0.018336
0.154549
0.088109
-0.018032
0.031875
0.088316
0.099632
0.045074
0.021076
0.101548
0.090906
0.018289
0.019659
0.034587
0.032980
0.014569
0.097449
0.067406
-0.006926
-0.018179
-0.007241
0.067795
0.068992
-0.046114
0.107313
0.012665
0.051032
0.075117
-0.004351
0.022331
0.047353
-0.048166
-0.000720
0.018755
0.058777
0.027550
0.020163
0.039863
0.046351
0.014726
-0.022890
-0.061915
0.001949
0.041633
-0.028957
-0.024114
0.056910
0.072578
0.083872
-0.034345
0.034907
0.081650
0.004616
0.016906
0.060629
0.043430
0.138347
0.102742
0.087121
0.079056
0.137240
0.147616
0.117644
0.146244
0.146903
0.107339
0.181026
0.180243
0.188212
0.208015
0.176400
0.183239
0.163648
0.084042
0.129639
0.167696
0.107079
0.102182
0.091222
0.196729
0.054489
0.003453
-0.006516
0.061716
0.011898
0.022341
0.051224
0.050931
-0.015637
0.096518
0.073522
0.072713
0.018241
0.003893
0.000455
0.029654
-0.093800
0.041102
0.050965
0.107014
0.289098
0.512921
0.772819
1.116887
1.318195
1.272963
1.125771
0.818075
0.426353
0.190863
-0.081044
-0.207569
-0.136835
-0.158652
-0.227228
-0.106945
-0.009929
0.057117
0.064635
0.006799
0.048658
0.030458
0.019255
0.122595
0.140318
0.062050
0.122048
0.075366
0.158031
0.189121
0.202092
0.258893
0.232227
0.245971
0.291331
0.266256
0.258356
0.248714
0.348051
0.259971
0.388462
0.380987
0.395008
0.494724
0.347426
0.367890
0.366684
0.428564
0.450815
0.528023
0.383624
0.368097
0.468903
0.497152
0.433421
0.453364
0.366725
0.386657
0.366127
0.472463
0.308198
0.271119
0.298265
0.256428
0.241847
0.180894
0.222472
0.147584
0.293980
0.165090
0.199769
0.062960
0.069931
0.086918
0.024485
0.071088
-0.018090
0.120884
0.016543
-0.056044
0.068650
-0.068468
-0.041949
0.002780
-0.053917
-0.060557
-0.110770
-0.019203
0.062844
-0.017324
-0.085352
-0.115309
-0.107371
-0.053332
-0.104356
-0.063174
-0.121824
-0.054527
-0.049143
-0.133995
-0.068832
-0.067018
-0.048042
-0.084204
-0.014344
-0.130975
-0.029172
-0.040948
0.026969
-0.057236
-0.036755
-0.106435
-0.142223
-0.037103
-0.068875
-0.072427
-0.160099
-0.055359
-0.063215
-0.012648
-0.097683
-0.114367
-0.113350
-0.092560
-0.012995
-0.092001
-0.186952
-0.064126
-0.010113
-0.067881
-0.093852
0.030007
0.032306
-0.082618
-0.090127
0.029841
-0.056231
-0.033947
-0.037153
0.073940
0.029772
0.028499
0.008763
0.100547
0.101837
0.113125
0.024572
0.013864
0.095144
0.110058
0.108852
0.153578
0.064900
0.129486
-0.017596
-0.003099
0.060994
0.048054
0.058225
0.096386
0.004688
-0.005298
-0.031717
-0.036693
0.017336
-0.052645
-0.033917
-0.066433
-0.057600
-0.029504
-0.054980
0.004935
-0.077726
-0.044052
-0.155632
-0.076055
-0.075032
-0.127610
-0.030843
-0.034812
0.019660
0.270569
0.580288
0.767003
1.124445
1.277779
1.148863
0.985543
0.605923
0.333491
0.043024
-0.190831
-0.199420
-0.293657
-0.143816
-0.224197
-0.093633
-0.050615
-0.007348
-0.058871
-0.032679
0.008167
-0.071936
0.045726
0.032898
0.091168
0.037400
0.089943
0.114710
0.099832
0.074761
0.108836
0.288286
0.148296
0.215255
0.259925
0.269063
0.263793
0.254483
0.309973
0.250641
0.344819
0.278430
0.398643
0.363963
0.353299
0.314103
0.390361
0.419587
0.320245
0.409650
0.433181
0.381211
0.422730
0.418960
0.397671
0.358967
0.338352
0.324970
0.333440
0.323184
0.273150
0.305059
0.172142
0.171619
0.203055
0.168014
0.215581
0.020643
0.128226
0.123785
0.159528
0.098323
0.094416
0.066562
0.077968
0.127674
0.083881
0.106465
0.018078
-0.021895
0.042391
-0.090437
-0.080953
-0.019615
-0.109676
-0.003238
-0.073488
-0.006503
-0.157037
0.006084
-0.067301
-0.087081
-0.029929
-0.143538
-0.133857
-0.047830
-0.072713
-0.067990
-0.110878
-0.172602
-0.084105
-0.166599
-0.120611
-0.054325
-0.100674
-0.062125
-0.004332
-0.111554
-0.030039
-0.133450
-0.085855
-0.120663
-0.082759
-0.122872
-0.051104
-0.108426
-0.067740
-0.066344
-0.068933
-0.141628
-0.008798
-0.062870
-0.041366
-0.012376
-0.078879
-0.056885
-0.069511
-0.024174
-0.070552
-0.010740
-0.065035
-0.001533
-0.045478
0.009372
0.010870
0.004673
0.020546
0.075262
0.013859
0.039116
0.025196
0.064532
0.083314
0.097288
0.145489
0.112233
0.002639
0.129097
0.165002
0.142309
0.155659
0.053484
0.067344
0.159427
0.084907
0.059691
0.037178
0.195017
0.044027
0.012962
0.072242
0.049117
0.037842
-0.064443
-0.029782
0.080191
0.018434
-0.124171
-0.066679
-0.012561
-0.024063
0.000150
-0.037129
-0.058770
-0.077567
-0.061637
0.012923
-0.002577
-0.011467
-0.058537
0.148643
0.339776
0.621791
0.945619
1.213117
1.267076
1.210336
1.026424
0.591911
0.230368
-0.042377
-0.149716
-0.249303
-0.154090
-0.127792
-0.067792
0.011295
0.066012
0.019121
0.038998
-0.016521
0.037675
0.102443
0.107995
0.079639
0.121461
0.169268
0.149074
0.184206
0.155692
0.229104
0.222698
0.222559
0.251021
0.327359
0.262559
0.349098
0.374021
0.338294
0.446697
0.451078
0.373811
0.401985
0.438430
0.443012
0.487628
0.499325
0.488613
0.556536
0.512846
0.571709
0.494928
0.540571
0.611308
0.458071
0.497154
0.490548
0.407602
0.451184
0.486857
0.374657
0.388193
0.400089
0.345233
0.284704
0.305256
0.254032
0.184954
0.233811
0.207828
0.155572
0.237997
0.189624
0.232156
0.177633
0.189365
0.137259
0.103094
0.060008
0.084618
0.079091
0.106320
0.087837
0.102981
0.066183
0.074868
0.041169
0.036467
0.013373
0.034114
0.073337
-0.023678
0.100620
0.010107
-0.009682
-0.013115
0.016919
0.099302
0.055820
-0.019106
-0.009729
0.019101
0.035891
0.062480
0.131181
0.010305
0.054100
0.039330
0.081042
0.065739
0.008261
-0.030333
0.068901
-0.014324
0.031586
0.072918
-0.008348
0.031610
0.020004
0.152585
0.041484
-0.011436
0.035285
0.015314
0.129868
-0.014667
-0.002610
0.106253
0.065308
0.077905
0.131934
0.150177
0.126901
0.043827
0.080108
0.133103
0.186217
0.082649
0.095565
0.183775
0.125213
0.124184
0.189239
0.188502
0.186420
0.144668
0.152049
0.215471
0.255266
0.196821
0.277995
0.290341
0.244383
0.155395
0.207516
0.284015
0.148317
0.207007
0.124459
0.183368
0.202717
0.117487
0.098864
0.112073
0.110838
0.097417
0.183224
0.097524
0.088317
0.036978
0.042666
0.074594
0.005929
0.105492
0.094890
0.075976
0.086634
0.020307
0.066208
0.014053
0.145282
0.263220
0.571878
0.863039
1.147311
1.372437
1.390765
1.280209
1.024811
0.616922
0.286064
0.030755
-0.143613
0.037077
-0.037205
0.004838
0.067468
0.051088
0.088160
0.104330
0.095218
0.158838
0.058197
0.134996
0.144604
0.188477
0.222978
0.154932
0.292653
0.214662
0.247219
0.272375
0.301316
0.387163
0.372320
0.301727
0.352739
0.337359
0.448269
0.452644
0.501734
0.518726
0.512022
0.557908
0.486608
0.594481
0.553208
0.612674
0.509573
0.533333
0.489444
0.629355
0.604642
0.569294
0.575864
0.559627
0.523362
0.598797
0.441751
0.424535
0.587066
0.473399
0.445575
0.489299
0.407586
0.406681
0.385486
0.298928
0.306247
0.371053
0.323655
0.288302
0.286941
0.266660
0.297748
0.177156
0.250928
0.180188
0.112843
0.177944
0.102315
0.200987
0.124743
0.142143
