-0.056435
-0.010841
-0.018385
-0.016844
0.099748
-0.019494
-0.092467
0.019256
0.014915
0.023731
-0.080065
0.003871
0.043240
-0.040300
-0.054324
-0.053145
-0.007685
0.006431
0.011508
-0.012921
0.054661
0.034227
0.052169
0.055634
0.034899
0.040263
0.035338
0.083234
0.045360
0.014252
0.114726
0.138071
0.091889
0.113667
0.140959
0.154703
0.061257
0.118532
0.067446
0.169415
0.163278
0.107264
0.167638
0.151356
0.155768
0.221837
0.249187
0.142246
0.250440
0.157012
0.161479
0.282856
0.178019
0.117243
0.155939
0.137844
0.052350
0.099168
0.135180
0.167464
0.095156
0.028438
0.067997
0.061308
0.063505
0.061318
0.041826
0.053081
0.012045
0.034811
0.019207
-0.047616
0.055638
0.094885
0.082993
0.069299
-0.027890
0.027754
0.040035
0.052247
0.106788
0.085157
-0.002155
0.049316
0.066246
-0.013810
0.027706
0.017502
0.035167
0.207795
0.521421
0.870810
1.102030
1.301258
1.384154
1.307551
1.084132
0.669440
0.304771
0.140619
-0.158061
-0.196911
-0.155920
-0.141470
-0.039122
-0.029235
0.110839
0.124854
-0.003653
0.066771
0.081571
0.075382
0.024525
0.108899
0.129743
0.095537
0.110613
0.089305
0.104401
0.051319
0.183116
0.160746
0.100753
0.084072
0.137808
0.143801
0.220062
0.215292
0.241121
0.195457
0.303922
0.290883
0.199654
0.259119
0.308836
0.338681
0.339834
0.335973
0.408688
0.399403
0.407345
0.388218
0.472503
0.478756
0.460660
0.516285
0.430967
0.531027
0.539415
0.623310
0.541541
0.565312
0.549875
0.479356
0.591985
0.612223
0.628719
0.559898
0.514043
0.505380
0.547607
0.508286
0.505932
0.351227
0.396084
0.396169
0.381935
0.490344
0.381291
0.395141
0.332433
0.270080
0.256775
0.285217
0.331268
0.191117
0.221690
0.220360
0.205858
0.168495
0.168532
0.162890
0.147552
0.148570
0.121129
0.153694
0.099864
0.161020
0.105148
0.128458
0.087965
0.090803
0.090568
0.085350
0.080760
0.147455
0.086541
0.092585
0.072867
0.054527
0.089520
0.094465
0.042079
0.100927
0.047774
0.089706
0.086622
0.132947
0.079391
0.154822
0.066597
0.108747
0.104606
0.068796
0.075819
0.166713
0.080897
0.137171
0.135979
0.142722
0.098810
0.041412
0.050747
0.146182
0.128929
0.077298
0.149740
0.065797
0.104565
0.102244
0.097765
0.135181
0.075194
0.115662
0.080291
0.071771
0.134720
0.143369
0.129897
0.128765
0.101283
0.102074
0.050417
0.083060
0.078690
0.168477
0.067685
-0.010146
0.079545
0.108121
0.024143
0.107744
0.020007
0.129643
0.025841
0.040443
0.091830
0.102423
0.077886
0.071764
-0.033491
0.077525
0.115096
0.161422
0.105980
0.097542
0.083614
0.084333
0.063514
0.147803
0.111016
0.111111
0.226719
0.223404
0.185829
0.254158
0.183793
0.257989
0.263078
0.316592
0.203216
0.195616
0.230956
0.224189
0.192746
0.218562
0.184942
0.209024
0.153383
0.110915
0.202337
0.222364
0.185633
0.160760
0.142850
0.109273
0.108639
0.136199
0.074724
0.182686
0.018479
0.085939
0.039546
0.052708
0.110993
0.077290
0.094258
0.010989
0.068707
0.033694
0.075629
0.064480
0.085292
0.071456
0.112912
0.081015
0.082580
0.045913
0.073976
-0.005772
-0.062180
0.011626
0.087997
0.229535
0.351099
0.682948
0.996283
1.328676
1.312380
1.317297
1.195924
0.764210
0.421208
0.188012
-0.022422
-0.173599
-0.278013
-0.217028
-0.049918
-0.062167
-0.034615
0.095471
0.004438
0.051658
0.100081
0.009840
0.067754
0.059643
0.033069
0.054260
0.068219
0.014811
0.094359
0.134212
0.122918
0.053234
0.108893
0.100582
0.120623
0.132908
0.106870
0.213450
0.183883
0.076463
0.195679
0.179256
0.228097
0.225826
0.263021
0.225220
0.346705
0.335436
0.303354
0.365094
0.396618
0.337756
0.383981
0.457236
0.435000
0.444895
0.432772
0.487757
0.460772
0.499185
0.464122
0.472838
0.504809
0.508655
0.509426
0.546687
0.483428
0.472017
0.512770
0.485779
0.410810
0.532448
0.408811
0.461872
0.348478
0.309513
0.334084
0.333055
0.351939
0.226786
0.254865
0.237658
0.170749
0.135115
0.213504
0.154806
0.147816
0.107993
0.097890
0.118176
0.069094
0.057006
0.140341
0.064060
0.075321
0.065726
0.052302
0.079045
-0.026326
-0.025459
0.125657
0.027901
0.011379
0.013832
0.063783
-0.087745
0.026752
-0.050699
0.021709
-0.024894
-0.014696
-0.115777
-0.018502
-0.041869
0.032476
-0.011994
-0.037514
-0.047622
-0.003679
0.025074
0.104115
0.008937
0.022044
0.004921
0.095390
0.007716
-0.038579
0.049764
0.034142
-0.041643
-0.055422
-0.027172
0.016421
0.014061
-0.009655
0.026095
-0.019732
-0.006711
-0.029692
-0.063047
-0.067227
0.065697
0.012244
-0.051808
-0.038367
0.029997
-0.060677
0.005624
-0.042271
0.037697
-0.049794
-0.024220
-0.043488
0.002612
-0.008111
-0.075955
-0.072549
-0.041804
-0.051507
-0.050478
-0.072484
0.047256
-0.017921
-0.163723
-0.041132
-0.041848
-0.036008
0.014087
0.024975
-0.031337
0.067677
0.012140
0.074428
-0.004956
0.027644
0.077734
0.035191
0.027155
0.033830
0.078691
0.028951
0.140005
0.067831
0.082752
0.092195
0.090673
0.065794
0.125447
0.200507
0.157778
0.110151
0.105468
0.125849
0.134354
0.080386
0.113551
0.013743
0.075241
0.068474
0.046166
0.045813
0.105206
0.020312
0.035188
0.139295
-0.021380
0.025706
0.023256
-0.018488
-0.010760
0.035396
0.002337
0.014595
-0.037806
-0.024590
-0.025828
-0.059746
-0.094802
-0.076056
-0.010000
0.003788
0.018932
-0.043163
-0.084965
-0.096462
-0.000046
-0.000931
-0.005480
-0.018134
-0.104176
-0.081435
-0.040550
-0.118739
-0.052362
0.223694
0.422634
0.811227
1.024577
1.293737
1.308049
1.204421
0.872432
0.452626
0.175248
-0.085618
-0.239089
-0.289014
-0.359694
-0.255634
-0.218270
-0.087152
-0.052763
-0.091866
-0.015297
-0.110091
-0.002519
-0.108504
-0.058381
-0.031474
0.011674
-0.045940
-0.072235
0.003069
-0.004293
-0.076023
0.068886
0.087956
0.049077
0.014987
0.028326
0.028098
0.051252
0.109648
0.089215
0.041501
0.090234
0.176708
0.152682
0.123723
0.108389
0.143177
0.233284
0.326239
0.258310
0.266388
0.327808
0.318850
0.394839
0.390666
0.416139
0.438981
0.458578
0.383867
0.448572
0.461747
0.446316
0.342701
0.458847
0.485667
0.440108
0.350604
0.429582
0.388372
0.358354
0.405450
0.387891
0.360139
0.376926
0.356024
0.278363
0.315404
0.344307
0.306735
0.255635
0.248378
0.147407
0.206416
0.162528
0.196361
0.107678
0.067391
0.130946
0.049673
0.112030
0.069660
0.076720
0.027701
0.067993
0.014217
0.042307
0.074826
0.017229
0.014314
0.017906
-0.000819
-0.031858
-0.008808
-0.043172
-0.095774
0.028908
-0.049813
0.029116
-0.012990
-0.043755
0.018074
0.001771
0.000534
-0.102461
-0.012972
-0.086287
-0.067889
-0.009792
0.092895
-0.111810
-0.015027
-0.030207
-0.005787
0.032764
0.031019
-0.057076
0.036961
-0.058871
-0.071777
0.017344
0.022641
-0.015517
0.083873
-0.014965
-0.027828
0.004181
0.045057
0.016004
0.007082
-0.038829
-0.038026
-0.038283
-0.021397
-0.069266
0.009688
-0.004012
0.021927
-0.014204
-0.001235
0.015547
0.023709
0.032324
-0.048376
-0.064185
-0.032181
-0.002098
0.001972
0.031473
-0.012134
-0.030826
0.016375
0.010944
-0.002504
0.007051
0.075773
0.046969
0.053359
0.007226
-0.000974
0.002969
0.029631
0.054187
-0.022825
0.077190
-0.009205
0.003664
0.015538
0.098484
-0.000329
0.051169
0.124494
0.149171
0.156438
0.016343
0.157615
0.144062
0.105228
0.108524
0.183725
0.142715
0.124129
0.220035
0.160961
0.197149
0.098164
0.214933
0.196400
0.185415
0.150859
0.218749
0.131480
0.199179
0.125453
0.064410
0.102290
0.124647
0.080215
0.047798
0.098490
0.137760
0.021205
0.086225
0.083211
0.094209
-0.010449
0.068943
0.069304
0.050168
0.059298
0.013503
0.007660
-0.005437
0.034868
0.051025
0.022032
0.015015
0.052758
0.023290
0.032032
0.091031
-0.012204
-0.048700
-0.060562
0.108388
0.263201
0.468158
0.821318
0.999563
1.269560
1.431858
1.323075
1.117912
0.762165
0.397148
0.257132
-0.133018
-0.189610
-0.246377
-0.165325
-0.078475
-0.000084
0.008126
0.065997
0.061571
-0.076117
0.027239
0.100549
0.004092
0.144293
0.002045
0.033518
0.056624
0.035656
0.041715
0.113133
0.169043
0.126607
0.074953
0.108330
0.153038
0.155546
0.104691
0.229319
0.205837
0.192932
0.252835
0.217517
0.263279
0.203447
0.302266
0.313424
0.366332
0.316541
0.410982
0.359690
0.456018
0.459320
0.410823
0.529625
0.447141
0.558030
0.507902
0.465666
0.480482
0.529858
0.540696
0.564279
0.571969
0.620457
0.505858
0.427080
0.547774
0.591377
0.555261
0.453395
0.482456
0.508954
0.516062
0.513188
0.420952
0.359201
0.395243
0.368076
0.278183
0.378796
0.333900
0.336822
0.311083
0.230165
0.311719
0.240705
0.275094
0.211480
0.249337
0.221589
0.169280
0.089341
0.212059
0.155023
0.082043
0.123304
0.150997
0.168006
0.095243
0.021705
0.088057
0.161630
0.112622
0.061340
0.127985
0.078711
0.062208
0.119171
0.130328
0.118417
0.028021
0.040528
0.043058
-0.009587
0.104824
0.173410
0.071578
0.142006
0.093290
0.047621
0.085389
0.123903
0.058987
0.119982
0.028434
0.107903
0.064617
0.064050
0.158267
0.015754
0.041485
0.083142
0.182994
0.128190
0.032814
0.091616
0.124967
0.137415
0.030139
0.121542
0.097603
0.095876
0.120041
0.075541
0.013086
0.095128
0.099703
0.010925
0.075514
0.037157
-0.004432
0.120650
0.070524
0.099593
0.024071
0.040601
0.095671
0.122676
0.086164
0.098210
0.074025
0.093616
0.157603
0.173010
0.101939
0.017094
0.064217
0.044386
0.109463
0.103956
0.035275
0.115863
0.130215
0.055465
0.161570
0.184681
0.033923
0.119885
0.189539
0.274165
0.168659
0.135969
0.201680
0.233283
0.250822
0.258237
0.223897
0.193588
0.252377
0.304998
0.223641
0.355155
0.322000
0.287488
0.235096
0.227946
0.275000
0.314515
0.249039
0.218532
0.205146
0.143994
0.131443
0.161333
0.072898
0.179900
0.042036
0.103260
0.109917
0.074911
0.092480
0.183443
0.073793
0.094597
0.067464
0.109689
0.100146
0.072683
0.136373
0.091470
0.103436
0.048285
0.128763
0.086183
0.143305
0.089725
0.135514
0.147483
0.079106
0.001815
0.033494
0.064950
0.022384
0.096855
0.334674
0.647885
0.975111
1.234282
1.370350
1.500000
1.206195
0.923697
0.596415
0.183171
-0.039565
-0.251303
-0.163413
-0.227418
-0.156306
-0.035468
0.019077
0.024248
0.084924
0.046792
-0.048462
0.084476
0.143616
0.126751
0.083075
0.167348
0.110667
0.147700
0.057333
0.109305
0.039536
0.178453
0.125532
0.096847
0.114951
0.090895
0.140687
0.251537
0.230911
0.116062
0.201825
0.166081
0.205668
0.162878
0.282730
0.288989
0.326686
0.332684
0.342108
0.390970
0.434526
0.373016
0.390824
0.464097
0.579392
0.462781
0.453597
0.569361
0.555259
0.556811
0.477253
0.465074
0.509594
0.429373
0.508578
0.549558
0.511789
0.514160
0.480416
0.457126
0.487756
0.486249
0.425772
0.298432
0.415184
0.440857
0.372118
0.311292
0.368007
0.362585
0.288937
0.224191
0.274257
0.199811
0.181594
0.221420
0.164053
0.169562
0.127106
0.180142
0.126506
0.086490
0.164220
0.038363
0.132366
0.130588
0.106120
-0.030205
0.117610
0.005391
0.028624
0.117035
-0.038055
-0.006144
-0.031258
0.021187
0.015923
-0.055712
-0.010270
0.047995
0.060385
0.006552
-0.019091
0.019115
-0.018045
0.027252
0.040266
-0.039526
-0.010449
-0.028998
0.059417
-0.024979
-0.043760
-0.000925
-0.064446
-0.048102
-0.121912
0.024576
-0.043709
-0.055469
0.000008
0.003599
0.020276
-0.085373
0.005381
0.012346
-0.057785
0.031107
-0.027175
-0.015943
-0.079758
-0.011740
0.031364
0.032774
0.009790
0.065992
-0.016888
0.046047
-0.070123
-0.000220
-0.015934
-0.035647
0.080221
-0.080631
-0.037585
-0.017693
0.009291
-0.121540
-0.049993
-0.025498
-0.024797
-0.044494
-0.030112
-0.048161
-0.026186
-0.020074
-0.064649
0.007264
-0.022696
-0.010123
-0.030653
0.008869
-0.026275
0.011316
0.014642
0.009246
-0.015827
0.017193
0.027381
-0.004219
0.076605
0.019003
0.047438
0.058411
0.072926
0.186411
0.160545
0.106173
0.125874
0.197765
0.166301
0.137623
0.119681
0.116836
0.073922
0.181364
0.110102
0.247737
0.108963
0.009729
0.020259
0.106917
0.067341
0.066174
0.043434
0.000725
0.000149
0.052349
-0.032173
0.007318
-0.024980
-0.024221
-0.019658
-0.004484
-0.023717
-0.022772
-0.073549
-0.060993
0.016481
-0.086259
-0.064977
-0.063759
-0.088998
-0.029253
-0.035939
-0.069651
-0.184594
-0.030783
-0.040405
-0.056931
-0.152995
-0.083103
-0.144632
0.025286
0.122928
0.474448
0.781484
1.039919
1.264571
1.320907
1.125457
0.854337
0.613796
0.173394
-0.046118
-0.252243
-0.352900
-0.309187
-0.339908
-0.162152
-0.078431
-0.109501
-0.087967
-0.154454
-0.115089
-0.008625
-0.053324
0.010631
-0.092226
-0.056246
-0.064264
-0.023731
-0.019376
0.007310
-0.115872
0.002424
0.006723
0.050955
0.047207
-0.030760
-0.066116
0.031422
-0.034515
0.087719
0.101747
0.051891
0.103936
0.167320
0.131789
0.122463
0.275708
0.233551
0.192316
0.178764
0.280721
0.301744
0.217863
0.299502
0.419660
0.363285
0.313298
0.312386
0.377844
0.340727
0.392639
0.448417
0.404453
0.397398
0.349602
0.419670
0.356034
0.459162
0.353770
0.373080
0.408263
0.323379
0.282859
0.314779
0.281424
0.310937
0.193499
0.304303
0.333780
0.171071
0.221711
0.109493
0.216092
0.090466
0.052815
0.069867
0.053491
0.139978
-0.038973
0.072910
-0.013052
0.049140
-0.017220
-0.061131
-0.005307
-0.067825
0.036711
-0.111269
-0.056219
-0.037753
-0.048953
-0.052686
-0.045091
-0.082304
-0.038959
-0.111182
-0.002645
-0.152619
-0.028699
-0.133131
0.021653
-0.071652
-0.107277
-0.065671
-0.110313
-0.130669
-0.124485
-0.023343
-0.013937
-0.126153
-0.164019
-0.090011
-0.070187
-0.059241
-0.073548
-0.073600
-0.046255
-0.121248
-0.075406
0.031398
-0.162738
-0.062429
-0.006551
-0.053173
-0.088708
-0.006851
-0.111598
-0.086327
-0.090269
-0.069204
-0.052820
-0.043479
-0.051817
0.001488
-0.072489
0.017489
-0.083341
-0.104314
-0.089830
-0.059157
-0.073365
-0.065225
-0.062710
-0.045794
-0.044890
-0.059787
-0.053398
-0.038904
-0.093502
-0.034741
-0.042952
-0.040539
0.051097
-0.003043
-0.043129
-0.050468
-0.048352
-0.102582
-0.089649
-0.054355
-0.083435
-0.039643
-0.056387
-0.038073
-0.020216
-0.002126
-0.021982
-0.115572
-0.009881
0.022314
-0.007630
0.035114
-0.011779
0.002779
0.050787
0.038861
0.096311
0.033663
0.135091
0.088203
0.075169
0.113999
0.165137
0.163716
0.046750
0.131935
0.068954
0.029079
0.057557
0.141587
0.042403
0.074000
0.024033
-0.011808
0.041629
-0.060465
0.003943
0.026177
0.093407
0.026495
-0.001316
-0.004716
-0.011327
-0.020744
-0.041427
0.024883
0.007149
-0.003429
0.025831
-0.027529
-0.006444
-0.064861
-0.047347
0.038395
0.057589
-0.021237
0.003179
0.048405
-0.016268
-0.102692
-0.047936
-0.102257
-0.141238
0.039289
0.055718
0.366154
0.699088
0.935247
1.205519
1.317802
1.213207
1.065952
0.651088
0.378970
0.001259
-0.164958
-0.256846
-0.313485
-0.265157
-0.235220
-0.105443
-0.040461
-0.062010
0.019291
-0.040359
0.035260
0.019339
-0.018892
-0.022422
0.037109
0.008750
0.092717
0.062305
-0.049291
-0.047288
0.046578
-0.007139
-0.025726
0.076590
0.070247
0.142309
0.005186
0.060830
0.140675
0.128978
0.181416
0.095887
0.175333
0.302034
0.192133
0.277342
0.256480
0.367787
0.275100
0.396842
0.371433
0.402538
0.406763
0.356971
0.364867
0.480034
0.374397
0.494660
0.494666
0.444332
0.535250
0.502541
0.469509
0.492166
0.530426
0.468709
0.473427
0.491207
0.506310
0.506246
0.585466
0.364367
0.333518
0.420973
0.404829
0.375838
0.349251
0.255038
0.233892
0.278572
0.224528
0.262206
0.248396
0.180735
0.195706
0.233952
0.156776
0.175685
0.204454
0.121862
0.128102
0.075813
0.128395
0.062946
-0.022006
0.094518
0.052898
0.068193
0.109418
0.034770
-0.002494
0.022438
0.057360
0.077643
0.070893
-0.021158
0.004131
0.003755
0.031595
-0.089464
0.039169
0.056614
0.019083
0.026912
0.035795
0.072852
-0.005004
-0.042989
0.053306
0.079934
0.022325
0.034978
0.095448
0.000984
0.040504
0.038984
0.000943
0.051925
0.066715
0.086416
0.051148
0.114905
0.148027
0.027623
0.053347
0.018372
-0.033226
0.085950
0.057219
0.001356
0.079237
-0.010241
0.085662
0.038765
0.112358
0.009703
-0.002433
0.024609
-0.016467
0.040026
0.019096
0.010976
0.095976
0.018287
0.055672
0.029665
-0.049827
0.067751
0.005008
-0.003244
0.009416
0.053321
0.085581
0.051897
0.066578
0.019741
0.079406
0.015231
0.094944
-0.063143
0.045510
0.065952
0.111748
0.068814
0.124279
0.104995
0.151327
0.135487
0.109689
0.021767
0.157077
0.148353
0.138112
0.189354
0.091158
0.242880
0.213013
0.220976
0.200221
0.210195
0.193087
0.307101
0.138760
0.221241
0.198768
0.125017
0.299205
0.214939
0.160427
0.165910
0.178635
0.199429
0.060432
0.140461
0.101303
0.055147
0.044012
0.040243
0.078985
0.077923
0.087480
-0.017227
0.067316
0.023902
0.048274
0.068044
0.091325
-0.002765
0.046450
0.030228
0.070843
0.081706
0.113619
0.013081
0.066675
0.073984
0.034916
0.066224
0.020876
0.029942
-0.005855
-0.003440
0.012235
0.081678
0.261384
0.591784
0.957365
1.162407
1.330624
1.326604
1.171359
0.933183
0.565823
0.254487
-0.014150
-0.177818
-0.247274
-0.214874
-0.217017
-0.149266
-0.038302
0.019683
0.088635
0.014381
0.031557
0.066764
0.050458
0.037651
-0.005004
0.026044
0.125738
0.029996
0.125755
0.107360
0.019506
0.116382
0.152577
0.031104
0.083411
0.107931
0.178835
0.155562
0.139582
0.133443
0.155596
0.216172
0.203239
0.215484
0.211150
0.287805
0.387171
0.304545
0.291599
0.348067
0.316605
0.360661
0.486723
0.431997
0.396249
0.383023
0.412423
0.464033
0.445183
0.475982
0.539779
0.486629
0.509587
0.509588
0.486667
0.510941
0.494650
0.459876
0.480258
0.550782
0.536399
0.439510
0.364842
0.395437
0.430341
0.397502
0.392555
0.345331
0.302787
0.271274
0.235744
0.243181
0.292410
0.082021
0.159802
0.168816
0.221608
0.131729
0.213658
0.091668
0.157497
0.091739
0.030348
0.124514
-0.015597
0.030130
0.000748
0.074187
-0.003846
0.122257
0.067441
0.023889
0.043677
-0.016855
-0.040600
-0.038538
0.059147
-0.005258
0.016844
-0.043996
0.029937
0.026842
-0.005175
0.075483
-0.052428
-0.013839
-0.022923
-0.012710
0.084501
0.064793
0.033481
0.036779
-0.008411
-0.010967
-0.067237
0.096161
0.012992
0.028330
-0.002540
-0.007464
-0.051089
-0.067459
-0.008289
-0.017762
-0.013498
-0.008420
-0.034544
-0.045132
-0.072319
-0.034530
-0.033424
0.017665
-0.020894
0.074050
-0.030827
-0.029193
0.055131
-0.118418
-0.079014
0.020356
-0.005903
-0.028019
-0.049880
-0.035133
0.048555
-0.023600
-0.029302
-0.053889
0.014229
0.008306
-0.033611
-0.033916
0.041950
0.012763
0.051716
0.001341
-0.020118
-0.066456
-0.029981
-0.047878
0.051851
-0.037727
-0.028305
-0.020844
0.019147
-0.008375
0.081948
0.086207
-0.002595
0.037283
0.055143
0.080322
0.022500
0.049227
0.118610
0.121445
0.039074
0.126137
0.165959
0.123525
0.110204
0.132505
0.122189
0.083209
0.083372
0.176414
0.104188
0.169120
0.061567
0.080769
0.056140
0.026456
0.043788
0.085522
0.110947
0.035810
-0.039541
-0.065746
0.075058
-0.020926
0.025725
-0.041664
-0.007874
-0.025054
-0.113284
0.012768
-0.059938
-0.057133
0.010484
-0.093661
-0.016345
-0.035010
-0.112872
-0.112314
-0.030762
-0.112325
-0.087427
-0.012469
0.008487
-0.118676
-0.084853
-0.147884
-0.170382
-0.005966
0.124644
0.391376
0.724650
0.977623
1.130221
1.281269
1.224114
0.913765
0.592866
0.286281
-0.099941
-0.213956
-0.380759
-0.410976
-0.389047
-0.151530
-0.158633
-0.128192
-0.142283
-0.093704
-0.110960
-0.050161
0.019268
-0.110515
-0.085945
-0.004065
-0.083442
-0.007942
-0.050628
0.019858
-0.048091
0.001967
-0.001631
-0.067228
0.005454
0.005354
-0.070408
0.057698
0.082872
0.045585
0.061741
0.071431
0.007970
0.148596
0.147038
0.236163
0.238089
0.220596
0.217798
0.215898
0.310843
0.230613
0.326396
0.337223
0.316682
0.305775
0.360165
0.301243
0.290556
0.338249
0.465145
0.429675
0.453396
0.450993
0.470085
0.444411
0.413571
0.383587
0.346553
0.458094
0.318309
0.304516
0.276889
0.237353
0.311911
0.295151
0.269769
0.190423
0.075435
0.177534
0.172496
0.079293
0.203644
0.190372
0.070226
0.085992
0.041603
0.045039
0.018943
0.082197
0.015164
0.076613
0.008866
-0.075039
-0.025304
-0.001394
-0.003208
-0.056974
0.023469
-0.099285
-0.128392
-0.024583
-0.075132
-0.030991
-0.112745
-0.097024
0.025684
-0.004546
-0.083115
-0.104567
-0.118907
-0.110293
-0.078390
-0.092859
0.003467
-0.121104
-0.155981
-0.147377
-0.141605
-0.067643
-0.199891
-0.113020
-0.085219
-0.058061
-0.076190
-0.100246
-0.077189
-0.064597
-0.097106
-0.115449
-0.063255
-0.102548
-0.101972
-0.139276
-0.053479
-0.072246
-0.071039
-0.056816
-0.099623
0.026244
-0.119921
-0.057789
-0.116271
-0.134883
-0.065963
-0.074976
-0.105964
-0.111316
-0.078323
-0.099093
-0.104752
-0.060111
-0.058283
-0.065515
-0.055310
-0.088370
-0.029715
-0.075128
-0.070299
-0.139689
-0.109719
-0.036598
-0.088276
-0.151194
-0.067941
-0.072151
-0.087652
-0.070357
-0.103858
-0.018613
-0.126239
-0.005662
-0.090945
-0.103912
-0.086793
-0.036767
-0.135216
-0.004484
-0.052086
-0.027423
-0.033175
-0.117009
-0.015657
0.076366
0.008586
0.095805
-0.022625
0.022817
0.114424
0.086742
0.179790
0.094338
0.120906
0.060159
0.088426
0.081228
0.105541
0.065267
-0.024791
0.060762
0.038805
0.037704
-0.010694
-0.002482
0.005509
-0.007220
0.059004
-0.060241
-0.066003
-0.052792
-0.053412
-0.092085
-0.114902
-0.114274
-0.016686
-0.038875
-0.048365
-0.085768
-0.092456
-0.046668
0.023590
-0.037961
-0.026892
-0.053374
-0.047687
-0.108572
-0.102463
-0.098627
-0.100756
-0.141404
-0.090083
-0.045445
-0.075318
-0.100688
0.006373
0.275134
0.618082
0.911222
1.140281
1.371235
1.265811
1.008736
0.763371
0.375952
0.047123
-0.173197
-0.270974
-0.308744
-0.325842
-0.161056
-0.163404
-0.174035
-0.014998
0.003624
-0.047084
-0.076922
-0.102392
-0.038207
-0.034334
-0.010896
0.027910
0.013050
-0.029514
0.006489
0.055749
0.002654
0.039822
0.077816
0.072179
0.000764
0.039760
0.067428
0.050512
0.066478
0.170439
0.059677
0.112390
0.221504
0.193773
0.188237
0.282552
0.205635
0.267289
0.233836
0.341466
0.313229
0.312678
0.318032
0.345725
0.436812
0.455268
0.441486
0.468953
0.404223
0.444051
0.410106
0.562784
0.446052
0.531179
0.534301
0.490844
0.467177
0.516661
0.395116
0.381818
0.464865
0.385788
0.354322
0.330762
0.407680
0.345194
0.320985
0.344579
0.293693
0.257356
0.301427
0.173558
0.164380
0.203991
0.199790
0.155393
0.147983
0.102222
0.132325
0.153529
0.102905
0.100276
-0.021666
0.133137
0.054738
0.113258
0.081073
0.039520
0.046952
-0.037383
0.099762
0.039437
0.057090
0.035904
0.041380
-0.001545
-0.056438
-0.020101
0.020186
0.028382
0.036229
0.048228
0.023676
-0.036736
-0.029986
-0.056277
0.091169
0.015157
0.003709
0.115147
0.028427
0.048457
-0.033811
0.019459
0.011676
0.048721
-0.043807
0.031125
0.133281
0.087637
0.020272
0.109076
-0.008684
-0.034325
0.028236
-0.012039
0.036559
-0.003455
0.047566
0.033019
-0.018701
0.026900
0.025426
-0.048947
0.076291
0.005305
0.013278
0.073560
0.042334
0.039071
0.073701
0.075436
0.003406
-0.034176
0.074258
-0.053417
-0.066944
-0.007337
0.052952
0.074225
-0.014378
0.060225
0.068438
0.072406
0.060738
0.055284
0.142139
0.083725
0.075030
0.072223
0.044661
0.011445
0.048160
0.058954
0.099054
0.069259
0.055013
0.084130
0.117762
0.056408
0.198808
0.106097
0.088167
0.144875
0.223109
0.141525
0.260876
0.191931
0.206428
0.247533
0.268185
0.206875
0.134335
0.161756
0.243349
0.214518
0.170166
0.179133
0.163702
0.131577
0.136580
0.076156
0.201680
0.118883
0.147172
0.053602
0.225616
0.064778
0.110374
0.147233
0.114055
0.150312
0.077503
0.069831
0.092947
0.103273
0.054735
0.130408
0.054614
0.037953
0.036659
0.015935
0.047105
-0.001187
0.063434
0.035383
0.091713
0.111212
0.101902
0.015695
0.006519
0.013797
0.016808
0.188241
0.215596
0.618451
0.898775
1.164610
1.413459
1.389986
1.208030
0.940772
0.688194
0.329007
0.023513
-0.107762
-0.191245
-0.174913
-0.090096
-0.128195
-0.021553
0.116947
0.092985
0.098197
0.091358
0.057148
0.031941
0.060859
0.093276
0.062891
0.030389
0.092240
0.097653
0.076461
0.119881
0.083338
0.119122
0.205751
0.061524
0.157881
0.144150
0.206042
0.139179
0.266780
0.197794
0.209026
0.246515
0.230723
0.349045
0.369407
0.319420
0.337234
0.340360
0.366215
0.383772
0.466862
0.447548
0.415576
0.441981
0.409479
0.514578
0.499209
0.499186
0.559399
0.592235
0.540564
0.496253
0.582795
0.517989
0.538050
0.573387
