0.023988
-0.035880
0.000381
0.087635
0.051171
-0.005654
0.002209
0.054584
-0.020148
-0.014595
0.072284
0.072492
0.100747
0.050449
-0.015216
-0.013457
-0.019438
0.098837
-0.060644
0.085316
0.110093
0.106919
0.038441
0.024328
0.162375
0.075378
0.095765
0.103914
0.092746
0.108949
0.203108
0.246965
0.155959
0.121104
0.230927
0.343859
0.220831
0.144429
0.192693
0.198675
0.238227
0.132702
0.207836
0.129494
0.127565
0.096335
0.199314
0.157950
0.143286
0.151993
0.111493
0.069294
0.122892
0.086871
0.069026
0.040239
0.109457
0.087325
0.017265
0.056729
0.084642
0.067508
0.071491
0.043420
0.144805
0.134939
0.056940
0.083912
0.039078
0.052196
0.057516
0.183514
0.176844
0.360053
0.841811
1.117040
1.271170
1.413407
1.387015
1.133462
0.644375
0.312629
0.039957
-0.170408
-0.177602
-0.099220
-0.061398
-0.067406
0.102653
0.039746
0.138148
0.040962
0.105019
0.140296
0.135762
0.053643
0.142950
0.223427
0.221489
0.207349
0.186697
0.101037
0.231546
0.244960
0.304908
0.227382
0.312997
0.333429
0.327254
0.371833
0.393956
0.484453
0.383789
0.529437
0.479345
0.529810
0.522583
0.505632
0.539830
0.539768
0.481811
0.585075
0.581350
0.570115
0.581657
0.636179
0.586905
0.610027
0.600542
0.637498
0.552492
0.661907
0.600351
0.579678
0.407999
0.486373
0.481244
0.475605
0.441309
0.376118
0.422545
0.378187
0.402189
0.277915
0.322154
0.267999
0.299733
0.263033
0.208418
0.223362
0.246901
0.184746
0.197952
0.222735
0.170806
0.088824
0.094411
0.063915
0.179965
0.105477
0.165277
0.101740
0.157866
0.081210
0.135818
0.161511
0.195057
0.084686
-0.024282
0.106520
0.067533
0.131037
0.098917
0.127490
0.040157
0.050013
0.038431
0.080674
0.082208
0.111933
0.134567
0.198108
0.069842
0.036799
0.108307
0.102143
0.102912
0.100206
0.044493
0.121783
0.038178
0.054091
0.134748
0.090984
0.094699
0.032981
0.144934
0.101973
0.078131
0.131712
0.123601
0.052240
0.067437
0.088421
0.084160
0.140661
0.039914
0.135300
0.114775
0.092651
0.078378
0.089022
0.079625
0.080115
0.208859
0.106732
0.128645
0.249737
0.248699
0.098985
0.172290
0.202747
0.286104
0.240350
0.184722
0.229695
0.205404
0.242366
0.268936
0.386488
0.276232
0.238937
0.340969
0.277094
0.223490
0.240035
0.240842
0.229262
0.262771
0.133186
0.204686
0.187951
0.142567
0.224264
0.170544
0.112304
0.144315
0.047095
0.152960
0.143254
0.102593
0.125633
0.084998
0.097869
0.120194
0.119347
0.116219
0.091719
0.121888
-0.024286
0.107185
0.161677
0.114270
0.069561
0.188658
0.385047
0.713684
0.995538
1.332403
1.436566
1.433572
1.132211
0.890688
0.434072
0.130632
-0.101028
-0.150960
-0.089042
-0.070213
-0.026709
-0.021374
0.048677
0.029374
0.146907
0.077171
0.121963
0.085621
0.126199
0.155016
0.113707
0.188382
0.177164
0.233037
0.212824
0.285283
0.209661
0.169386
0.212050
0.258642
0.382528
0.388785
0.289787
0.460061
0.353812
0.376255
0.432351
0.411124
0.532934
0.469170
0.549757
0.580022
0.484606
0.533738
0.463542
0.467193
0.630954
0.536500
0.569317
0.572271
0.572978
0.601259
0.519663
0.581668
0.620726
0.489282
0.418844
0.469305
0.509242
0.407324
0.412298
0.364178
0.435118
0.489856
0.353287
0.341476
0.262823
0.318232
0.268923
0.252050
0.253550
0.180209
0.213014
0.164266
0.085740
0.257805
0.182081
0.147359
0.095919
0.074355
0.134531
0.055203
0.105976
0.059558
-0.008005
0.137429
-0.010337
0.073641
0.035553
0.095463
0.058311
0.084227
0.052135
0.051296
0.034422
-0.006904
-0.013643
0.092006
-0.010092
0.100318
0.023796
-0.006127
0.020014
-0.002964
-0.052198
0.016998
-0.019318
0.085982
0.026991
0.004014
-0.020918
-0.001290
0.007240
-0.018944
0.021603
-0.072769
0.017677
-0.092660
0.002485
-0.012489
0.108657
-0.080556
0.004871
-0.050752
0.014276
0.037019
0.089486
0.018786
0.071618
0.137147
0.003262
0.021601
0.176401
0.032007
0.019956
0.050045
0.068916
0.037323
0.045545
0.115405
0.028160
0.085353
0.042341
0.053464
0.180366
0.096119
0.227461
0.159454
0.107055
0.212798
0.171997
0.191569
0.102335
0.170281
0.110133
0.187212
0.184557
0.188687
0.213432
0.102960
0.140981
0.108323
0.112439
0.253463
0.036683
0.092501
0.080121
0.084446
0.024161
0.016707
0.032484
0.062347
-0.024658
-0.016874
0.016509
-0.068043
0.048021
0.021987
0.062189
-0.023614
-0.026633
-0.027050
0.006849
-0.047089
0.016035
-0.009205
0.002864
0.062743
0.233629
0.537912
0.807675
1.191682
1.344542
1.328096
1.164259
0.880394
0.425901
0.157918
-0.068651
-0.216343
-0.264231
-0.228347
-0.128267
-0.062331
-0.110442
0.018292
-0.049669
0.003882
0.071758
-0.021158
0.060501
-0.026569
0.028291
0.063676
0.119051
0.132844
0.042157
0.208816
0.241956
0.181643
0.222780
0.107078
0.241565
0.276571
0.209042
0.275085
0.282573
0.290661
0.329163
0.296826
0.338500
0.430566
0.350684
0.408839
0.367041
0.418308
0.410465
0.485235
0.498757
0.475127
0.490517
0.463647
0.570668
0.494165
0.532110
0.414550
0.426675
0.415732
0.394538
0.352852
0.330375
0.395096
0.427680
0.305047
0.309094
0.195009
0.293604
0.304973
0.178124
0.199889
0.188165
0.148011
0.181637
0.078905
0.066553
0.137951
0.082814
-0.001724
0.127631
0.039023
0.059445
0.036319
-0.005617
0.070114
0.123882
-0.038643
-0.024304
0.010691
-0.035997
0.023788
-0.098853
-0.024443
0.087240
-0.054394
-0.012252
-0.024990
-0.005808
-0.080670
-0.059869
-0.010808
-0.053428
-0.045346
-0.058485
-0.085207
-0.004815
0.024628
0.015869
-0.066740
-0.050163
0.019078
-0.070024
-0.063108
0.001677
-0.031257
-0.011638
-0.057232
-0.025544
-0.006655
-0.055915
-0.028376
0.006376
-0.122005
-0.018605
0.072236
-0.033160
-0.027425
0.056447
-0.017898
-0.050039
-0.009859
-0.064307
-0.105034
-0.014439
-0.001248
0.008597
0.014722
-0.044779
-0.000916
0.008739
-0.004835
0.055698
-0.026484
0.002068
0.092492
0.005861
0.042646
0.037453
0.034854
0.139126
0.101473
0.071944
0.166668
0.144819
0.086560
0.152358
0.170785
0.240868
0.176653
0.217049
0.177363
0.118152
0.126979
0.130365
0.105603
0.118576
0.071180
0.100983
0.143162
0.099466
0.044755
-0.019641
0.025031
0.037329
0.014460
0.041104
0.020369
0.044463
0.012900
-0.001598
-0.020062
-0.078702
-0.088912
-0.057991
-0.030774
-0.110688
-0.092776
0.072919
-0.074767
0.009975
0.024385
0.115905
0.403654
0.687390
1.057248
1.154931
1.334346
1.261085
0.973746
0.605890
0.227368
-0.073315
-0.166638
-0.285878
-0.235711
-0.168318
-0.108020
-0.045821
-0.033251
0.064481
-0.066828
-0.011402
0.066286
0.039957
0.020768
0.087850
0.119501
0.024365
0.034018
0.109439
0.093064
0.095419
0.187161
0.199346
0.224100
0.217057
0.237551
0.361546
0.290018
0.325850
0.248314
0.285211
0.336970
0.384256
0.406311
0.451941
0.380179
0.456150
0.479825
0.531134
0.482691
0.466896
0.569363
0.434841
0.531518
0.609986
0.525436
0.520140
0.566896
0.550280
0.505465
0.508380
0.477976
0.418406
0.437274
0.321150
0.437088
0.250152
0.291920
0.306135
0.287600
0.291012
0.193869
0.232715
0.287038
0.170058
0.229232
0.143171
0.037200
0.109221
0.149371
0.206631
0.044127
0.072998
0.096859
0.132854
0.036931
0.046120
0.116716
0.102780
0.098235
0.061215
0.009548
0.043332
0.106868
-0.005477
0.073925
0.063182
-0.004963
0.045888
0.049119
0.056935
0.005122
0.013661
0.040863
0.043103
-0.032477
-0.039288
0.044670
0.043080
0.041714
-0.086243
-0.057340
-0.068726
0.061472
0.082102
0.040658
0.016805
0.035414
0.029054
0.013012
-0.002669
0.055661
0.038861
0.043666
0.094830
0.034020
0.088586
0.084074
0.073049
0.051042
-0.011609
0.079076
0.015278
0.037903
0.054263
0.048059
-0.019089
0.073501
0.060419
0.093145
0.134419
0.072574
0.062960
0.016519
0.065909
0.171964
0.181212
0.102351
0.195239
0.132601
0.196383
0.184683
0.123149
0.167615
0.114526
0.227995
0.194781
0.245046
0.181880
0.198728
0.149009
0.243051
0.251011
0.227447
0.218652
0.184002
0.271929
0.098901
0.138733
0.172293
0.166397
0.177089
0.156763
0.119751
0.122975
0.181888
0.091818
0.161615
0.083179
0.113735
0.073768
0.068252
0.086438
0.083324
0.079040
0.085504
0.135307
0.046232
0.030622
0.091701
0.020208
0.157786
0.212855
0.461028
0.714972
0.991015
1.289236
1.500000
1.407052
1.190180
0.839041
0.451268
0.051519
-0.043042
-0.131549
-0.141774
-0.093500
0.050265
0.057893
0.014388
0.120369
0.109713
0.165149
0.120631
0.116366
0.199975
0.167462
0.260457
0.156194
0.206879
0.156540
0.237387
0.167555
0.313698
0.310363
0.247161
0.335132
0.384726
0.306326
0.338211
0.375216
0.359373
0.453465
0.472144
0.411254
0.427386
0.517352
0.510340
0.581225
0.742717
0.569948
0.651731
0.630106
0.540557
0.607672
0.660793
0.603691
0.598769
0.627799
0.600084
0.542770
0.613894
0.544114
0.618927
0.486141
0.478887
0.524852
0.512068
0.449499
0.391196
0.367667
0.463015
0.354711
0.391606
0.344006
0.329299
0.280153
0.291007
0.316939
0.262787
0.240883
0.205932
0.267460
0.175094
0.164674
0.184342
0.105683
0.154353
0.117689
0.046703
0.079826
0.097844
0.113980
0.125371
0.124445
0.076871
0.178868
0.221715
0.094536
0.084385
0.060141
0.101329
0.098032
0.116261
0.104059
0.096427
0.130869
0.134214
0.045318
0.035564
0.103340
0.174951
0.071629
0.058433
0.042619
0.009986
0.144629
0.077538
0.033221
0.058159
0.100573
0.127271
0.149007
0.087347
0.097106
0.068412
0.123474
0.070498
0.085340
0.091021
0.152442
0.057468
0.086452
0.164185
0.125526
0.063979
0.086896
0.052698
0.123916
0.140099
0.142568
0.160922
0.152666
0.119317
0.184033
0.170026
0.177967
0.119970
0.196380
0.132517
0.135910
0.181019
0.198661
0.134263
0.276497
0.242463
0.249730
0.299686
0.275329
0.305487
0.371254
0.206593
0.242032
0.250185
0.280665
0.221547
0.095797
0.230402
0.246534
0.241601
0.199712
0.223347
0.164792
0.126668
0.133888
0.127137
0.141797
0.116976
0.066468
0.106229
0.098927
0.181128
0.144771
0.024201
0.100350
0.113961
0.097701
0.053623
0.028626
0.186326
0.074571
0.085580
0.043095
0.086866
0.168265
0.342725
0.585917
0.955909
1.214183
1.366614
1.458343
1.303334
0.940878
0.539945
0.153964
0.008637
-0.182932
-0.220595
-0.076482
0.026902
0.065998
0.085430
-0.004979
0.082041
0.054867
0.070347
0.063120
0.033364
0.022848
0.234028
0.164439
0.182953
0.148991
0.164539
0.147011
0.182999
0.269812
0.275731
0.238400
0.269917
0.368785
0.228809
0.390042
0.319985
0.455174
0.465419
0.450886
0.538004
0.490776
0.539189
0.461505
0.536077
0.509750
0.535223
0.524111
0.587534
0.555752
0.541516
0.559148
0.558950
0.510779
0.504918
0.573939
0.417578
0.568037
0.460348
0.519196
0.390370
0.451734
0.403864
0.384377
0.357197
0.361267
0.334988
0.283548
0.227198
0.281519
0.208052
0.207302
0.250127
0.191768
0.172966
0.129463
0.150936
0.149471
0.153691
0.020865
0.084807
0.152795
0.083404
0.098531
0.012092
0.095132
0.057814
0.050377
0.041223
0.039347
0.044454
0.014810
-0.004420
0.016833
0.025266
0.015961
-0.012466
-0.038932
0.020756
0.038887
0.033186
0.010686
0.069133
0.008434
0.083508
0.024851
0.041238
0.080216
0.035227
0.089627
0.036304
-0.002281
-0.022236
-0.012713
0.057886
0.015487
-0.030879
-0.074668
0.000309
-0.059928
-0.000242
0.025634
-0.040197
0.007485
0.035489
-0.077938
-0.020463
-0.075082
-0.008570
-0.021214
-0.027632
0.028519
0.035511
0.074915
0.023478
0.008397
-0.017836
0.048500
0.030451
0.008536
-0.027818
0.013691
-0.000467
0.040887
-0.029101
0.028421
0.063765
0.092083
0.127071
0.093387
0.137348
0.129123
0.164108
0.136882
0.118640
0.119318
0.206421
0.097317
0.097778
0.144990
0.070234
0.022849
0.140123
0.088840
0.088347
0.005402
0.074183
0.057842
0.059688
0.017203
0.044002
0.008438
0.015232
-0.007954
-0.006926
-0.016307
-0.024027
0.019575
-0.027995
0.039602
-0.076759
-0.107427
0.007640
-0.057743
-0.070956
-0.019147
-0.066904
-0.060803
-0.070209
0.076016
0.218872
0.407142
0.739777
0.970717
1.313095
1.442191
1.200065
0.908256
0.640182
0.193650
-0.109510
-0.261341
-0.320267
-0.230423
-0.225503
-0.105640
-0.050219
-0.101612
-0.021101
-0.061670
0.005608
0.035167
-0.053988
0.077887
-0.012922
0.067894
-0.002896
-0.040018
0.051041
0.092247
0.114054
0.133668
0.184563
0.202029
0.114676
0.283000
0.178769
0.238172
0.246867
0.250336
0.322289
0.289488
0.287808
0.356030
0.434015
0.412460
0.352376
0.420590
0.445040
0.460519
0.448493
0.472221
0.448235
0.470131
0.405664
0.462289
0.435717
0.409190
0.329778
0.369887
0.407218
0.320961
0.343329
0.257389
0.377129
0.248909
0.202482
0.253668
0.209016
0.247215
0.102066
0.234332
0.176782
0.033954
0.131256
0.121340
0.166155
0.094995
0.089941
0.057106
0.108676
0.044550
0.018601
-0.014294
-0.005325
-0.073901
0.013435
-0.105475
-0.042856
-0.129379
-0.027065
-0.038434
-0.127703
-0.090740
-0.085185
-0.062541
-0.089857
-0.017344
-0.053212
-0.147039
-0.057716
-0.064961
-0.101188
-0.087806
-0.012564
-0.036405
-0.032832
-0.092361
-0.018490
-0.094266
-0.059780
-0.106992
-0.047077
-0.120516
-0.024164
-0.094572
-0.135215
-0.084812
-0.004223
-0.051518
-0.077821
-0.065447
-0.079008
-0.087573
-0.070677
-0.097865
-0.093927
-0.057891
-0.148001
-0.050519
-0.071001
-0.039438
-0.106573
-0.097831
0.022489
-0.179985
-0.018121
-0.027358
-0.082006
-0.076417
-0.083921
-0.053441
0.008523
0.039719
-0.091882
0.040484
0.036306
-0.014699
0.114725
0.054247
0.034033
0.024548
0.016244
0.073635
0.067387
0.130580
0.088974
0.127178
0.073328
0.131221
0.063206
0.117658
0.103415
0.051767
0.103949
0.029800
0.076178
0.106758
0.031978
0.061857
0.032017
0.024326
0.010474
0.021959
-0.033512
-0.085367
-0.088052
-0.031452
-0.023427
-0.020358
-0.043116
-0.056129
-0.133046
-0.052022
-0.066354
-0.047873
-0.052022
-0.113836
-0.155018
-0.028667
-0.106844
-0.005668
0.032855
0.285697
0.610871
0.912448
1.212450
1.342497
1.296315
1.100184
0.670859
0.268030
-0.004741
-0.210212
-0.277781
-0.267979
-0.125654
-0.177969
-0.114904
-0.018501
-0.068850
-0.096348
0.022338
-0.030303
-0.067687
0.085716
0.079128
0.033636
0.112598
0.016492
0.087806
0.103589
0.114737
0.187210
0.165762
0.093183
0.149496
0.161643
0.213864
0.296379
0.240347
0.264534
0.323495
0.348874
0.300431
0.333917
0.357015
0.433675
0.464836
0.521993
0.487582
0.459807
0.478046
0.528280
0.430944
0.466304
0.445649
0.458256
0.459735
0.497269
0.490490
0.492524
0.458940
0.383642
0.484497
0.415813
0.282104
0.305639
0.309841
0.249145
0.270284
0.263888
0.170009
0.229360
0.180245
0.203898
0.142381
0.179104
0.169384
0.154379
0.062940
0.066311
0.101751
0.025845
0.099354
0.035737
0.042354
-0.018672
0.107904
-0.058176
0.022699
-0.046939
-0.098074
0.011098
-0.032225
-0.028822
-0.047636
-0.070122
-0.080848
-0.051720
-0.030423
-0.011344
-0.058116
-0.061505
-0.055706
-0.079477
-0.012748
0.022666
-0.001787
0.016391
0.031123
-0.007252
0.012924
-0.116268
0.073198
-0.008687
0.030363
-0.025801
-0.046325
-0.013342
0.016361
0.049402
0.005522
-0.069496
0.032551
0.035281
0.002874
-0.067547
0.040507
-0.094623
0.017759
0.093185
0.002425
0.039070
0.004436
0.085076
0.045631
0.040233
-0.068067
-0.008438
0.046964
0.085552
0.042320
0.073190
0.109575
0.034002
-0.005909
0.092004
0.116776
0.130156
0.116640
0.122147
0.145660
0.128572
0.097656
0.146371
0.209919
0.225075
0.141266
0.224840
0.145393
0.151062
0.139718
0.204542
0.189915
0.125804
0.131138
0.120179
0.151345
0.177054
0.120602
0.013127
0.083224
0.093426
0.122946
0.134108
0.139943
0.083442
-0.043822
0.049569
0.069993
0.077286
0.049748
0.093062
0.091826
0.017895
-0.010331
-0.016285
0.034094
-0.014950
0.064322
0.073452
0.049756
0.060574
0.154819
0.367814
0.646977
0.918118
1.155313
1.358415
1.453647
1.168823
0.842315
0.505587
0.141701
0.012664
-0.242651
-0.111345
-0.050067
0.009419
-0.025323
0.011910
-0.001339
0.101164
0.044961
0.097871
0.065945
0.160386
0.055139
0.158837
0.090754
0.112122
0.111723
0.157173
0.156250
0.222646
0.314119
0.291186
0.199009
0.278602
0.220489
0.311403
0.422330
0.331604
0.398953
0.390095
0.415765
0.348395
0.447546
0.524584
0.499796
0.545894
0.568984
0.594098
0.653366
0.594405
0.554262
0.574929
0.561326
0.566679
0.511780
0.520403
0.512680
0.557207
0.503392
0.494986
0.400787
0.446751
0.544088
0.498550
0.433485
0.276852
0.299751
0.287280
0.371636
0.244656
0.314457
0.286024
0.289591
0.251315
0.211119
0.264122
0.180052
0.208920
0.188900
0.236886
0.119366
0.100430
0.195482
0.134671
0.073222
0.087270
0.088975
0.062084
0.157357
0.051777
0.061209
0.073831
-0.046192
0.001071
0.120101
0.058626
0.012293
0.094627
0.031752
0.109850
0.016170
0.014852
0.027016
0.063452
0.114443
0.052051
0.037109
0.034003
-0.016816
-0.009938
0.115905
0.040176
0.041910
0.080948
0.029063
0.036317
-0.096460
-0.018332
0.037670
0.074745
0.051058
0.020469
-0.031924
0.067696
0.055796
-0.006923
0.042676
0.001606
0.094572
0.064024
0.032333
0.084226
0.043999
0.028407
0.038883
0.031965
0.114736
0.018110
0.015620
0.076247
0.043498
0.154574
0.124539
0.113035
0.169745
0.080082
0.147784
0.098735
0.072916
0.188936
0.157859
0.187535
0.233908
0.241589
0.151201
0.190278
0.265962
0.167559
0.117315
0.190755
0.251520
0.190558
0.187788
0.200309
0.200928
0.108070
0.130476
0.114940
0.124757
0.195517
0.028686
0.070550
0.056844
0.056434
0.075913
-0.029724
0.094237
0.062176
0.049363
0.100259
0.081487
0.076693
0.041015
-0.006236
-0.069081
0.129299
0.044259
0.007526
-0.014441
-0.013049
0.070570
0.221437
0.514485
0.855190
1.052149
1.330457
1.430079
1.160116
1.005564
0.588680
0.293111
-0.002010
-0.150641
-0.182640
-0.217434
-0.203156
-0.008980
0.078073
0.029251
0.089071
0.021930
-0.013219
0.018846
0.038948
0.100687
0.084182
0.051394
0.052545
0.203974
0.132107
0.151785
0.172337
0.120861
0.209628
0.188854
0.287713
0.178496
0.353871
0.245637
0.443424
0.319560
0.388553
0.341635
0.380956
0.456679
0.431834
0.370848
0.457833
0.462128
0.530903
0.498421
0.535895
0.519733
0.447903
0.489439
0.509882
0.434909
0.455932
0.488794
0.547346
0.447106
0.440736
0.449937
0.442226
0.408772
0.366516
0.413201
0.342779
0.386809
0.246958
0.377477
0.174689
0.159450
0.232433
0.191550
0.181237
0.082970
0.139297
0.172232
0.167642
0.109467
-0.015558
0.144909
0.020999
0.050644
-0.007084
0.014575
0.015135
0.044357
-0.012787
-0.014633
0.052479
-0.017513
0.029274
-0.023273
0.015772
-0.012607
-0.036920
0.012918
-0.006749
0.017313
-0.065708
0.025044
-0.008278
-0.063949
-0.063133
-0.013930
0.025345
-0.184982
-0.137315
-0.053045
-0.064900
-0.068034
-0.019816
-0.014109
-0.069659
-0.043666
-0.037504
-0.097973
-0.029120
-0.021647
-0.038124
-0.105642
-0.097850
-0.092703
-0.060229
-0.062004
-0.097674
-0.058794
-0.150725
0.007966
-0.046868
-0.118290
0.048943
-0.117563
0.036530
-0.011111
-0.092332
-0.051156
-0.027986
-0.014165
-0.003935
0.015985
0.055177
0.095185
0.114937
0.138607
0.021377
0.026753
0.050939
0.045046
0.099604
0.102386
0.153120
0.117289
0.058741
0.077514
0.055630
0.103933
0.107766
0.144016
0.092314
0.034721
0.108098
0.060044
0.073737
0.049751
0.036582
-0.029654
0.011373
0.077985
0.061990
-0.015147
0.058959
0.043145
0.057842
-0.070009
-0.032664
-0.095910
-0.077878
0.012341
-0.047022
-0.086668
-0.137350
-0.069344
-0.052989
-0.104642
-0.045189
-0.031709
-0.083219
-0.110768
-0.117207
-0.094859
0.087436
0.259447
0.588596
0.926370
1.233994
1.316305
1.245043
0.963283
0.606815
0.267195
-0.078882
-0.215839
-0.356269
-0.291997
-0.206364
-0.171277
-0.054792
-0.056458
-0.102151
-0.131165
-0.080394
-0.059434
-0.069009
0.001755
0.021995
-0.090625
-0.010922
-0.053600
0.046323
-0.001260
0.052969
0.063480
0.070233
0.106779
0.162183
0.197875
0.184975
0.169016
0.215488
0.327048
0.343693
0.280041
0.238647
0.265387
0.296711
0.364700
0.275812
0.403953
0.308770
0.503370
0.397098
0.406316
0.457665
0.429728
0.355611
0.401733
0.381820
0.363211
0.403045
0.340460
0.420552
0.349226
0.338047
0.395621
0.251305
0.350420
0.309730
0.277387
0.206191
0.167787
0.213721
0.167673
0.102395
0.054901
0.173681
0.029038
0.034824
0.059824
0.032372
-0.002733
-0.065571
-0.074808
-0.012221
-0.062964
-0.058449
-0.014759
-0.068298
-0.060367
-0.089376
-0.111884
-0.008210
-0.053589
-0.099186
-0.160729
-0.102828
-0.088355
-0.039442
-0.080873
-0.079196
-0.121403
-0.243284
-0.048125
-0.167434
-0.154785
-0.136217
-0.076271
-0.049998
-0.101159
-0.159374
-0.075922
-0.117665
-0.051330
-0.070947
-0.122455
-0.060757
-0.194268
-0.200413
-0.093808
-0.053320
-0.118474
-0.135657
-0.078533
-0.153775
-0.157711
0.025452
-0.074127
-0.095980
-0.126188
-0.028749
-0.090330
-0.074471
-0.111707
-0.120076
0.019735
-0.135626
-0.133273
-0.096137
-0.011175
-0.022097
-0.090442
-0.097289
-0.034817
-0.070597
-0.117289
-0.033675
-0.051404
-0.071211
-0.045719
-0.004214
-0.037404
0.039696
0.038991
-0.013114
0.088355
0.025398
0.166292
0.032474
0.031147
0.125582
0.110108
0.125498
0.145663
0.106000
0.145242
0.085128
0.115141
0.015246
0.183557
0.025646
0.084822
-0.009654
0.110060
-0.042687
0.018704
0.032149
-0.022778
-0.030541
-0.086773
-0.030713
-0.005172
-0.005863
-0.089176
-0.121349
-0.060299
-0.150798
-0.078983
-0.083180
-0.069417
-0.021121
-0.007205
-0.168251
0.005561
0.048483
0.166387
0.531827
0.822295
1.123090
1.222142
1.238155
1.105791
0.719773
0.359358
0.025510
-0.165404
-0.295390
-0.229441
-0.194290
-0.109593
-0.141877
-0.139701
0.048530
-0.066638
-0.025702
-0.004330
-0.028043
-0.019002
0.062858
0.055656
0.060459
0.112329
0.026161
-0.001873
0.051978
0.263673
0.153854
0.126253
0.159371
0.150324
0.197587
0.279156
0.274714
0.274143
0.273676
0.433142
0.386542
0.428664
0.347878
0.401826
0.432193
0.461117
0.493164
0.430599
0.525721
0.427451
0.467817
0.521440
0.470918
0.473650
0.475227
0.486669
0.471767
0.429712
0.412283
0.401443
0.442135
0.415494
0.431791
0.388333
0.381391
0.288297
0.267544
0.317848
0.288238
0.239612
0.215447
0.189469
0.211833
0.180785
0.167346
0.224709
0.145422
0.084644
0.102311
0.092562
0.067734
0.043991
0.097197
0.012561
-0.016618
0.042202
0.028758
-0.007468
0.101991
-0.008124
-0.008487
0.033435
0.040830
-0.011027
-0.000854
0.042659
-0.075496
0.012933
0.047418
-0.081835
0.104864
0.010599
0.000181
-0.008447
0.065512
-0.004091
-0.010546
0.082051
0.019714
-0.025691
-0.094083
0.036528
0.039289
-0.036009
-0.045800
0.024559
0.080874
0.020478
-0.028314
0.029051
-0.031016
-0.071154
0.037910
0.042976
-0.017501
0.016320
-0.002892
-0.033120
-0.004723
0.020131
0.034958
0.066295
0.113320
-0.021154
0.004166
0.068039
0.071137
0.066419
0.070221
0.055323
0.075766
0.028398
0.047288
0.110044
0.178765
0.151588
0.154156
0.084364
0.124917
0.160605
0.093932
0.211195
0.183726
0.216669
0.215770
0.243472
0.247259
0.174968
0.197899
0.147805
0.171504
0.165955
0.209519
0.220912
0.194171
0.173598
0.156240
0.183265
0.194021
0.107218
0.228933
0.043892
0.074631
0.116188
0.066375
0.156840
0.022128
0.084414
0.080987
0.025153
0.061094
0.082155
0.055791
0.045476
0.059153
0.072744
0.053915
0.084603
0.049120
0.107871
0.105247
0.366515
0.572729
0.814258
1.225560
1.423452
1.412561
1.291893
0.966906
0.607099
0.195458
0.021356
-0.201323
-0.202922
-0.070359
-0.058539
-0.036613
-0.028086
0.087029
0.103360
0.077885
0.190406
0.084628
0.083454
0.051342
0.192186
0.120034
0.181417
0.216525
0.248177
0.131610
0.277805
0.229599
0.221066
0.291548
0.311048
0.248007
0.336116
0.354239
0.301793
0.423410
0.414175
0.349295
0.459764
0.485357
0.499872
0.626915
0.509479
0.518080
0.585568
0.553452
0.531019
0.588747
0.501519
0.644403
0.525147
0.641630
0.595323
0.549548
0.628799
0.529857
0.616785
0.498001
0.549522
0.453525
0.520252
0.420260
0.473064
0.378886
0.374719
0.350710
0.292525
0.356021
0.315726
0.356829
0.312679
0.275035
0.285135
0.291263
0.202098
0.193366
0.280928
0.120190
0.139983
0.144884
0.115427
0.109795
0.201065
0.109378
0.129645
0.091401
0.069386
0.084023
0.124681
0.032042
0.081883
0.134959
0.100282
0.105493
0.026827
-0.005852
0.077455
0.064793
-0.015318
0.097765
0.110685
0.173374
0.023765
0.065060
0.000297
0.118216
0.030478
-0.003050
0.093997
0.006579
0.100317
0.038474
0.063089
-0.000645
0.036350
0.109472
