-0.017028
-0.071929
-0.017466
0.027720
-0.129721
-0.026677
0.026159
-0.050983
-0.008087
0.032426
-0.065647
0.006577
0.063121
0.063391
-0.079590
-0.030348
-0.016846
0.013634
0.066089
0.030319
0.011342
0.025427
-0.003871
0.046034
0.046729
-0.038290
-0.015187
0.050718
0.055728
0.017479
0.062644
0.055577
-0.043421
-0.022974
0.083651
0.010761
0.005310
0.072825
0.025858
0.025043
0.023512
0.095112
0.041677
0.057184
0.073754
-0.009939
0.006934
0.130085
0.081787
0.115678
0.145511
0.085417
0.127522
0.116304
0.236966
0.141237
0.163940
0.154168
0.115907
0.192535
0.162572
0.200735
0.240189
0.140208
0.175972
0.242101
0.217889
0.222191
0.190712
0.133466
0.157253
0.186518
0.158558
0.126519
0.011035
0.101978
0.171573
0.088465
0.092595
0.087038
0.005764
0.083096
0.054919
0.066274
0.036039
0.084123
0.121905
0.071202
0.014281
0.046432
-0.041456
0.044116
0.072394
0.032868
0.107201
0.072055
0.067602
0.050922
0.065748
-0.019768
0.121832
0.039603
0.044871
0.049308
0.009240
0.023244
-0.003013
0.015643
0.070295
0.045880
0.094662
0.030767
-0.087673
-0.007023
-0.010646
0.191094
0.527458
0.822908
1.115912
1.423051
1.500000
1.465784
1.068364
0.903956
0.622653
0.370245
0.067150
-0.106994
-0.145657
-0.209923
-0.288534
-0.205821
-0.095482
0.053267
0.034947
0.035897
0.032611
0.043181
0.112408
0.160207
0.106482
0.087141
0.052059
0.043688
0.136300
0.094614
0.121380
0.069203
0.069522
0.100543
0.090489
0.132223
0.046271
0.025414
0.101442
0.102415
0.120244
0.032705
0.096616
0.116362
0.077088
0.117176
0.127777
0.098022
0.133156
0.072592
0.145770
0.171211
0.221637
0.272228
0.237081
0.113595
0.210283
0.294220
0.342645
0.288926
0.279494
0.318769
0.297951
0.415220
0.332747
0.431518
0.435597
0.418517
0.445196
0.422600
0.404448
0.503744
0.476871
0.531307
0.447298
0.538562
0.506843
0.578781
0.550537
0.548598
0.561985
0.569585
0.513105
0.641270
0.535579
0.552598
0.524318
0.483229
0.526588
0.473956
0.417724
0.469752
0.459961
0.342293
0.293545
0.365652
0.368557
0.329532
0.273987
0.249192
0.279328
0.216199
0.275559
0.214098
0.170978
0.127112
0.210166
0.238057
0.129099
0.189282
0.097582
0.184649
0.212175
0.163223
0.093456
0.145309
0.104909
0.121748
0.120839
0.094770
0.131267
0.055660
0.003347
0.055984
0.034554
0.028578
0.079819
0.065101
0.107111
0.082246
0.115363
0.076112
0.124867
0.067283
0.087815
0.084928
0.051868
0.084685
-0.005481
0.015994
0.101175
0.087947
0.124166
0.041560
0.067554
0.051568
0.058409
-0.004970
0.132708
0.043505
-0.007440
0.081989
0.109301
0.050465
0.045506
0.100363
0.111020
0.095506
0.068316
0.083051
0.140183
0.057252
0.148879
0.126776
0.019997
0.049386
0.122997
0.063561
0.088391
0.097690
0.120624
0.053474
0.115703
0.068493
0.016197
0.072876
0.072101
0.019398
0.077508
0.008587
0.071226
0.054388
0.110224
0.068797
0.063540
0.042882
0.035762
0.038921
0.105100
0.062133
0.041820
0.007755
0.051725
0.039033
-0.015059
-0.043126
0.044343
0.150689
0.017200
0.051862
-0.078387
0.039632
0.075941
0.060921
0.103748
0.048829
0.040578
0.043103
0.064085
0.067906
-0.006006
0.045586
0.026039
0.028484
0.063943
0.107497
0.051531
0.115497
0.084452
0.025788
0.018851
0.042755
0.115491
0.108645
0.062386
0.066515
0.092972
0.034569
0.060211
0.083006
0.117874
0.152065
0.144597
0.068707
0.207385
0.226695
0.145693
0.117909
0.128378
0.153198
0.165589
0.215186
0.223397
0.333492
0.191742
0.188265
0.198809
0.224049
0.163796
0.130697
0.097080
0.143120
0.088280
0.101770
0.145515
0.099516
0.176355
0.069731
0.135953
0.048320
0.053649
0.020134
0.162413
0.017627
0.103116
0.003928
0.033704
-0.005835
0.035065
0.039097
-0.037801
-0.040831
0.082511
0.054259
-0.004267
0.037129
0.055376
0.015641
0.040855
-0.016287
0.074561
0.019642
0.053808
-0.071631
-0.038704
-0.042623
-0.035751
0.075410
0.017219
0.013770
0.046681
0.076227
0.025687
-0.036867
-0.026210
-0.109115
-0.012010
-0.040220
0.040875
0.204661
0.437381
0.781010
1.127599
1.245936
1.377124
1.286057
1.100214
0.859517
0.492729
0.270692
-0.024319
-0.187947
-0.241823
-0.318621
-0.227675
-0.267153
-0.096357
-0.148793
-0.044050
-0.003380
-0.124818
-0.116907
-0.078797
-0.141659
-0.044581
-0.004215
-0.006123
-0.054513
-0.084287
-0.037434
-0.066425
0.002011
-0.052950
-0.052235
0.041900
0.003214
0.040978
0.039949
-0.002033
-0.012112
-0.018084
0.045550
-0.068577
-0.020377
0.064414
-0.022736
0.016041
-0.035061
0.059749
0.073327
0.002478
0.073968
0.114203
0.105130
0.038520
0.187613
0.079133
0.160737
0.176211
0.111941
0.299232
0.165372
0.170007
0.196911
0.250604
0.332663
0.319895
0.285059
0.400039
0.337006
0.423042
0.421738
0.285026
0.408039
0.465872
0.420771
0.475884
0.468516
0.490502
0.468407
0.489407
0.492722
0.432107
0.395711
0.448005
0.450306
0.371741
0.367711
0.323467
0.377704
0.351926
0.343611
0.277994
0.242899
0.266768
0.224850
0.286839
0.249776
0.175676
0.151763
0.143588
0.100572
0.089038
0.130291
-0.005010
0.163505
0.010280
0.063546
-0.028271
0.014446
-0.014062
0.010771
0.024055
0.045608
-0.021189
0.030704
-0.024477
-0.029799
-0.040794
-0.081750
-0.038463
-0.159158
-0.125015
0.038032
-0.103881
-0.016420
-0.007526
-0.032907
-0.055088
-0.010734
-0.023677
-0.065819
-0.033320
-0.055429
-0.082285
-0.084005
-0.119747
-0.035018
-0.024829
-0.083055
0.020837
-0.023740
0.046998
-0.093175
-0.064009
-0.033274
-0.030960
-0.021158
-0.081359
-0.102800
-0.083466
-0.013243
0.004956
-0.010918
0.023460
0.001251
0.000490
-0.047472
-0.027677
-0.095322
-0.028943
-0.128046
-0.008745
-0.025711
-0.026448
-0.074025
-0.048866
-0.009179
-0.017607
-0.078448
-0.175693
-0.066371
-0.038816
0.008565
-0.107667
0.038611
0.012912
-0.035749
-0.125157
-0.086801
-0.019698
-0.044678
-0.130463
-0.053988
0.003185
-0.135531
-0.055667
0.017012
0.002655
-0.037150
-0.124193
0.017304
-0.088029
-0.060727
-0.055145
-0.052033
-0.108779
-0.024019
0.009765
-0.012426
-0.047912
-0.045658
-0.041101
-0.047395
0.009287
-0.053195
-0.083372
-0.054689
-0.044543
0.026998
-0.050833
0.055727
-0.060865
-0.067835
-0.008151
-0.023170
0.025694
-0.006721
-0.059166
0.055660
-0.051845
-0.055582
-0.042196
0.016123
0.093963
-0.000931
0.049918
-0.001836
0.083478
0.115955
-0.068734
0.091391
0.057598
0.033703
0.148607
0.178128
0.177067
0.100310
0.157249
0.062083
0.052226
0.068571
0.096961
0.169494
0.171427
0.164031
0.091787
0.103355
0.182126
0.091828
0.139194
0.103751
0.199118
0.031246
0.078424
0.040277
0.155117
0.099486
0.062134
0.117403
0.010192
0.053054
-0.024232
-0.047308
-0.020785
0.019372
-0.069129
0.001389
-0.017903
0.028791
0.050941
0.037282
-0.010698
-0.025086
0.015142
0.003820
0.009604
-0.013478
-0.034475
-0.004166
-0.065129
0.007683
-0.044808
0.075640
-0.036780
-0.012224
0.016779
0.030418
-0.036883
-0.065839
0.009986
0.006667
-0.019136
-0.020000
-0.038892
-0.090269
-0.122877
-0.173104
0.011278
0.104909
0.519845
0.709850
1.126620
1.211745
1.391282
1.302955
1.155470
0.822651
0.568762
0.281583
0.021239
-0.177588
-0.288976
-0.342695
-0.313656
-0.254704
-0.168759
-0.018974
0.073860
0.012653
-0.013897
0.049704
-0.002722
-0.041027
0.015537
0.033070
0.024662
0.057792
0.088152
-0.016889
0.034532
0.033713
0.034054
0.029392
-0.013817
0.000432
0.011871
0.008781
-0.000041
0.130766
0.072784
0.036856
-0.007933
0.026786
0.073437
0.068815
0.069662
0.070620
0.006407
0.034547
0.134401
0.161166
0.151089
0.087354
0.207183
0.228342
0.139914
0.238685
0.208723
0.241995
0.240165
0.260692
0.353222
0.260407
0.306756
0.373033
0.359269
0.400146
0.471522
0.403975
0.488412
0.433995
0.466066
0.463435
0.539339
0.511511
0.496789
0.525027
0.474515
0.576753
0.534485
0.506732
0.502695
0.589872
0.507388
0.529595
0.470819
0.431293
0.422186
0.422035
0.404456
0.398668
0.367516
0.365164
0.450100
0.261397
0.371371
0.246243
0.356641
0.292661
0.223190
0.255659
0.140673
0.182974
0.179178
0.175078
0.153437
0.109401
0.172727
0.128040
0.138219
0.190500
0.089441
0.111977
0.130090
0.082899
0.107981
0.037418
0.070692
0.066443
0.071091
-0.008176
0.096263
0.122795
0.151573
0.107757
0.119447
0.112620
0.086351
0.103190
0.123411
0.078117
0.069767
0.046507
0.061712
0.037032
0.075797
0.052179
0.078964
0.091552
0.065006
0.069232
0.032592
0.044928
0.039792
0.098461
0.080268
0.051180
0.033350
0.068771
0.055056
0.148301
0.012722
0.069299
0.136095
0.132985
0.063437
0.110624
0.128532
0.066057
0.058801
0.052202
0.091152
0.171289
0.009165
0.085751
0.051801
0.120811
0.101661
0.044810
0.109723
0.041395
0.059256
0.047828
0.037460
0.075707
0.090159
0.128151
0.084393
0.107859
0.177341
0.107331
0.110432
0.002299
0.115754
0.130735
0.075671
0.128266
0.092522
0.146988
0.058274
0.159822
0.098852
0.124341
0.093765
0.105376
0.024779
0.101278
0.050095
0.110377
-0.010507
0.133271
0.077899
0.080025
0.038021
0.148776
0.027681
0.076189
0.100157
0.148063
0.078290
0.056421
0.119510
0.054545
0.063227
0.123307
0.107573
0.117812
0.064719
0.028068
0.120990
0.174218
0.139216
0.137013
0.208750
0.131433
0.064045
0.084496
0.187651
0.126993
0.171383
0.121363
0.216717
0.188686
0.129390
0.245593
0.211616
0.241968
0.181008
0.158819
0.232173
0.193347
0.235441
0.236685
0.181311
0.287242
0.235506
0.264573
0.282241
0.214105
0.226502
0.214783
0.158359
0.159911
0.197970
0.133675
0.174845
0.221309
0.128215
0.131501
0.162878
0.096351
0.201610
0.052685
0.174858
0.165317
0.096065
0.072050
0.089530
0.082533
0.019736
0.120847
0.009587
0.016526
0.083339
0.066398
0.109568
0.127473
0.126686
0.043754
0.107676
0.154830
0.092431
0.139251
0.123001
0.153701
0.087006
0.105235
0.119111
0.070157
0.060148
0.054117
0.011108
0.069816
0.023679
-0.014167
-0.002677
-0.039604
0.034566
0.246915
0.533415
0.809167
1.170148
1.318153
1.451690
1.365824
1.177778
0.983307
0.624151
0.337814
0.038192
-0.158224
-0.245134
-0.260826
-0.205138
-0.182153
-0.024297
-0.039297
0.001668
0.052077
0.022859
0.037604
0.064038
0.027633
0.081851
0.081265
0.030098
0.067610
0.036119
0.097227
0.006635
0.024320
0.059029
-0.031038
0.140445
0.102024
0.033656
0.082239
0.072586
0.073108
0.014610
0.087546
0.101851
0.048560
0.039166
0.003200
0.107691
0.097723
0.148901
0.163254
0.191754
0.208790
0.102623
0.181147
0.186927
0.208248
0.225230
0.257877
0.200993
0.184517
0.160278
0.275902
0.307815
0.285391
0.328360
0.374907
0.398583
0.372244
0.340463
0.456497
0.475037
0.473924
0.525406
0.484682
0.534454
0.504342
0.485258
0.517517
0.589442
0.477157
0.555017
0.463376
0.505856
0.491714
0.514934
0.480207
0.432363
0.408231
0.426160
0.394405
0.375548
0.400379
0.345262
0.275020
0.348166
0.287476
0.248424
0.314672
0.275573
0.183996
0.231254
0.242987
0.135595
0.164553
0.220547
0.099065
0.114416
0.104853
0.094235
0.061451
0.037704
0.016322
0.121443
0.059422
0.072323
0.026644
-0.071273
0.000405
0.009899
0.052028
0.026364
-0.048843
0.036172
-0.061623
0.006906
0.025568
0.046485
0.062855
-0.000412
0.008376
0.016564
-0.012841
-0.055569
-0.045784
0.015342
-0.020493
0.112716
0.004016
0.067263
0.013990
-0.030727
0.041501
-0.003891
0.012234
-0.050168
0.036855
-0.004332
-0.034884
-0.048038
-0.049052
0.006187
0.027736
-0.037249
-0.090819
0.001803
-0.063618
-0.144065
-0.007780
0.046195
0.018641
-0.003475
0.001817
0.011518
-0.082147
-0.063562
0.006531
-0.016226
-0.017063
-0.000787
-0.058217
-0.017372
-0.036528
-0.093009
-0.056005
-0.035720
0.050707
-0.026343
-0.032354
-0.008892
-0.043784
-0.079031
-0.046968
-0.020862
-0.065741
0.000747
-0.048094
-0.083647
-0.076565
0.000950
-0.107177
-0.092149
0.052193
-0.081338
-0.038742
-0.015914
-0.020056
-0.055790
0.011797
-0.001153
0.017013
-0.095091
-0.176639
-0.018299
-0.009669
-0.005313
-0.060426
-0.038820
-0.012852
-0.018750
-0.035407
-0.058518
-0.013272
-0.015615
-0.086117
-0.062575
-0.089688
-0.062121
-0.034004
-0.030551
-0.072156
-0.021406
-0.013815
-0.046305
-0.045122
-0.010377
-0.003787
-0.092033
-0.035551
-0.049802
0.019363
0.001257
0.014922
0.037403
0.080280
0.040267
0.133878
0.043296
0.078218
0.095342
0.123544
0.107804
0.153545
0.100781
0.092248
0.115000
0.143965
0.116929
0.197623
0.056232
0.194159
0.153440
0.077133
0.082000
-0.034371
0.009216
0.057966
0.045911
0.011093
0.041746
-0.051845
-0.061664
-0.108874
-0.034211
-0.016904
-0.016756
0.014962
-0.023311
-0.046509
-0.080782
-0.133198
-0.041920
-0.053704
-0.056151
-0.056090
-0.072912
-0.037803
-0.118448
-0.135448
-0.055467
-0.046143
-0.068154
-0.142052
-0.096455
-0.151051
-0.092113
-0.060924
-0.100193
-0.083035
-0.102321
-0.053752
-0.072435
-0.105565
-0.044203
-0.088055
-0.108644
-0.190253
-0.227053
-0.147546
-0.147598
0.024232
0.335101
0.592498
0.974846
1.242987
1.296334
1.239200
0.950789
0.817209
0.430202
0.187856
-0.148936
-0.247253
-0.327005
-0.410304
-0.388084
-0.290174
-0.169991
-0.234053
-0.181172
-0.100308
-0.105046
-0.099862
-0.048891
-0.107870
-0.045867
-0.102144
-0.122419
-0.043724
-0.064256
-0.096969
-0.069783
-0.149626
-0.143462
-0.041457
-0.040332
-0.088779
-0.054325
-0.062778
-0.048581
-0.078389
-0.090058
-0.028236
-0.078513
-0.095558
0.029951
-0.066787
-0.009906
-0.001894
0.089049
-0.001042
-0.053794
-0.009401
-0.045626
0.089352
0.079345
0.000997
0.025903
0.067567
0.089987
0.165019
0.251178
0.200742
0.178249
0.199035
0.251515
0.248712
0.243437
0.244731
0.243183
0.351641
0.387630
0.351241
0.284871
0.410767
0.436509
0.370441
0.468954
0.467091
0.458874
0.417992
0.480571
0.357060
0.356833
0.465421
0.412942
0.416291
0.400422
0.440993
0.333490
0.323914
0.318009
0.272421
0.244093
0.237429
0.184298
0.310232
0.116946
0.099896
0.165048
0.196970
0.069994
0.165999
0.126559
0.037660
0.097806
-0.007030
0.024854
0.026086
0.013561
0.022720
0.016763
-0.028573
0.014389
0.003575
-0.060245
-0.032716
-0.002672
0.016121
-0.119407
-0.049808
-0.005495
-0.029586
-0.025446
-0.025638
-0.029738
-0.002614
-0.089820
-0.058146
-0.116617
-0.037674
-0.031018
0.039345
-0.064263
0.019611
0.004014
-0.039623
-0.039181
-0.072344
-0.082871
-0.049637
-0.133482
-0.057572
-0.082752
-0.010010
0.009158
0.087266
-0.007942
0.001347
-0.096639
-0.097029
-0.020095
-0.086430
-0.074267
-0.040543
-0.033103
0.018553
-0.002455
-0.028408
-0.042557
-0.066901
-0.008136
0.021254
0.016054
0.013664
-0.108667
-0.060720
-0.081032
-0.079082
-0.027170
0.025831
-0.039380
-0.104636
0.026364
-0.088257
-0.023041
0.013389
0.053321
-0.026961
-0.026967
0.003801
-0.032895
-0.049023
-0.124771
0.066250
-0.008511
-0.012504
-0.003606
-0.009107
-0.004671
-0.016584
-0.060376
-0.036782
0.022406
0.028884
-0.006360
-0.085195
-0.040256
-0.004012
-0.082496
-0.019806
-0.033866
-0.033268
0.018353
-0.093355
-0.013307
0.027987
0.010519
0.019691
0.028816
-0.035374
0.026906
0.014733
-0.040852
-0.050859
0.020203
-0.011900
0.049144
0.015459
-0.029904
-0.061516
0.015533
0.044087
0.018553
0.033957
0.092570
0.137772
0.077758
-0.047116
0.136284
0.040595
0.037759
0.112081
0.128562
0.073603
0.009562
0.104110
0.142339
0.124123
0.110474
0.223034
0.138639
0.165434
0.127078
0.137767
0.114509
0.188261
0.060746
0.235055
0.144164
0.141917
0.185144
0.098451
0.166901
0.119691
0.100192
0.103819
0.089703
0.054754
0.099024
0.052835
0.105898
0.016424
0.192783
0.033276
0.025463
0.023533
0.046911
0.015624
0.002912
0.008353
0.113997
-0.057413
-0.032977
-0.003547
0.034299
0.003212
0.032037
0.045630
-0.008229
-0.018707
0.058419
0.061548
0.040289
0.033784
-0.010709
0.035779
-0.016111
0.052112
0.045481
-0.025739
0.051669
0.015731
-0.001994
-0.063603
-0.020448
-0.061505
-0.096219
-0.059236
-0.019845
0.231113
0.425765
0.763093
1.038001
1.323501
1.397891
1.225926
1.186006
0.827666
0.545060
0.289315
0.076565
-0.154813
-0.212129
-0.291119
-0.228861
-0.266726
-0.197154
-0.040973
-0.029052
0.075648
0.009945
0.098386
-0.026719
0.020572
-0.019629
-0.015493
0.002983
-0.025128
0.017886
0.032203
0.033181
-0.030774
0.042109
0.069488
0.043987
0.022872
0.022116
0.009236
0.026863
0.014409
0.100534
0.086165
0.054795
-0.034569
0.128182
0.065403
0.059470
0.077689
0.142672
0.146910
0.084004
0.181068
0.137933
0.116207
0.171194
0.129964
0.208174
0.243209
0.227546
0.299268
0.288285
0.239071
0.329280
0.262268
0.270084
0.356612
0.426270
0.441662
0.443722
0.421646
0.421498
0.444603
0.517203
0.511490
0.500609
0.545009
0.551787
0.488395
0.554642
0.550895
0.517123
0.509249
0.554218
0.554903
0.602913
0.512859
0.456903
0.383997
0.438004
0.472761
0.388213
0.410581
0.370992
0.465202
0.360792
0.292578
0.301642
0.192470
0.329620
0.300574
0.278829
0.257117
0.223310
0.192174
0.148977
0.101997
0.188286
0.114828
0.145010
0.087034
0.005652
0.049501
0.128129
0.095614
0.071322
0.104412
0.072518
0.030498
0.028080
0.043094
0.015684
0.086493
0.081787
0.033956
0.150673
0.043141
0.087806
0.022415
0.007055
-0.010998
0.072229
0.078169
0.081366
0.020698
0.073245
-0.011995
-0.018477
0.067066
0.045597
0.023514
-0.038182
0.077240
0.051050
0.045843
0.004017
0.053573
-0.001532
0.002023
0.055577
0.036651
0.045552
0.108753
-0.009940
-0.008479
0.058217
-0.031811
0.019672
0.069767
0.070120
-0.022092
0.041993
0.017886
0.073856
0.010958
0.030402
0.009127
-0.008938
0.034644
0.045933
0.026201
0.012891
0.016127
0.104376
-0.002787
0.050535
0.038922
0.069236
0.017315
0.071843
-0.051717
0.054266
0.020076
-0.041281
0.037951
0.013645
0.029531
0.035791
0.020563
-0.063556
0.075767
-0.000203
-0.011901
-0.035223
0.031859
0.000090
0.011801
0.057978
0.008567
0.010715
0.050008
0.078676
-0.037101
0.043569
0.043636
0.006341
-0.003443
0.051827
0.028274
0.038429
0.011558
0.030975
-0.067410
-0.041682
-0.028754
0.034429
0.081952
0.085613
0.011192
-0.026503
0.044114
-0.010252
-0.043281
0.007499
-0.007395
0.035222
-0.004472
0.035858
0.102297
0.087728
0.070628
0.032417
0.120499
0.060810
0.087140
0.094565
0.083583
0.173974
0.083520
0.128475
0.185648
0.189517
0.134661
0.127092
0.204263
0.197672
0.145015
0.130293
0.159964
0.131976
0.172192
0.186645
0.081325
0.114796
0.085146
0.131674
0.112716
0.057788
0.101465
0.030050
-0.005530
0.023993
0.034060
0.066058
-0.005371
0.003575
-0.008783
0.034790
-0.045799
0.009078
-0.009426
0.002723
-0.012307
0.019417
-0.051614
-0.029903
0.024352
-0.011304
-0.012995
-0.084237
-0.065008
0.049882
-0.016773
-0.063162
-0.043369
-0.007838
-0.086507
-0.043193
-0.020834
-0.048413
-0.020619
-0.048695
-0.033311
-0.054525
-0.121309
-0.085802
-0.093107
-0.080876
-0.168744
-0.080072
0.147046
0.412006
0.711936
1.055996
1.218585
1.355461
1.233782
1.123614
0.748222
0.495324
0.251096
0.039362
-0.192358
-0.238730
-0.352297
-0.299521
-0.290177
-0.266462
-0.139166
-0.196272
-0.124282
-0.053044
-0.121987
-0.042800
-0.024823
-0.070231
-0.073056
-0.033315
-0.011658
-0.017919
-0.051545
0.020427
-0.060967
0.001297
-0.015229
-0.030993
-0.126286
-0.050034
-0.059565
-0.132114
-0.068722
-0.036138
-0.082192
-0.106861
0.017559
-0.027651
-0.114778
-0.021772
0.017460
0.035366
0.051296
-0.005281
-0.012620
0.122879
0.029046
0.066641
0.073850
0.082124
0.105315
0.040035
0.094522
-0.024112
0.092426
0.188140
0.225248
0.204072
0.260207
0.235245
0.265332
0.303138
0.236708
0.349783
0.387486
0.361334
0.360644
0.362600
0.323013
0.355730
0.408632
0.434986
0.497389
0.413152
0.359780
0.402275
0.440268
0.462698
0.409339
0.347684
0.308429
0.283581
0.279056
0.331966
0.284341
0.275571
0.300307
0.247988
0.198047
0.156170
0.260395
0.134685
0.080278
0.117287
0.092986
0.030608
0.073033
-0.001652
-0.015078
0.028807
-0.051513
-0.005655
-0.095619
-0.035197
-0.038839
-0.057128
-0.023878
-0.062081
-0.023912
0.007087
-0.041742
-0.080268
-0.100743
-0.071813
-0.034180
-0.052601
-0.118244
-0.083828
-0.097454
-0.004858
-0.118936
-0.098445
-0.200516
-0.040172
-0.051183
-0.135053
-0.103014
-0.027227
-0.117013
-0.160742
-0.113210
-0.179418
-0.072566
-0.128899
-0.133744
0.000985
-0.102843
-0.103309
-0.101910
-0.022814
-0.054472
-0.097272
-0.082919
-0.095145
-0.130025
-0.106809
-0.097915
-0.100215
-0.082249
-0.132516
-0.159476
-0.070529
-0.131215
-0.028907
-0.093484
-0.126653
-0.113011
-0.125874
-0.077014
-0.127031
-0.128254
-0.122707
-0.029704
-0.082718
-0.084347
-0.068398
-0.026472
-0.049909
-0.108414
-0.089545
-0.117775
-0.088509
-0.157582
-0.108294
-0.097620
-0.052377
-0.103464
-0.121742
-0.084922
-0.027921
-0.082410
-0.089026
-0.151832
-0.074016
-0.095434
-0.163804
-0.087233
-0.143033
-0.105474
-0.114003
-0.077765
-0.136795
-0.062362
-0.089885
-0.036384
-0.127738
-0.065965
-0.068764
-0.119624
-0.084902
-0.110953
-0.088056
-0.035834
-0.043611
-0.083802
-0.095676
-0.079623
-0.051314
-0.058816
-0.139680
-0.137705
-0.106873
-0.028188
-0.080822
-0.104069
-0.077154
-0.075510
-0.075017
-0.085525
0.027251
-0.056793
-0.065555
-0.103013
-0.023057
-0.011303
-0.011484
-0.115931
0.050354
0.012452
0.077921
0.042862
0.036600
0.096865
0.068437
0.012138
0.103541
0.070624
0.096865
0.096770
0.098550
0.018125
0.019592
0.075785
0.014746
0.111601
0.019340
0.132954
0.022947
0.010505
-0.037839
0.080486
-0.019904
-0.068396
0.013148
-0.013621
-0.071469
-0.119553
-0.020685
-0.082320
-0.048954
-0.110381
-0.072053
-0.012136
-0.054058
-0.046472
-0.024399
0.015721
-0.089964
-0.070658
-0.051241
-0.061949
-0.099243
-0.082484
0.020229
-0.083780
-0.076297
-0.042277
0.016928
-0.117303
-0.089346
-0.074043
-0.059917
-0.023021
-0.054308
-0.059179
-0.050774
-0.000631
-0.164975
-0.148606
-0.080062
-0.193543
-0.093645
0.008918
0.460126
0.652046
1.072506
1.214962
1.354496
1.205044
0.982515
0.789721
0.515191
0.185439
-0.079566
-0.227301
-0.309613
-0.326273
-0.448197
-0.302301
-0.157921
-0.179102
-0.143013
-0.108918
-0.047060
-0.004541
-0.026866
-0.001890
0.022559
-0.010891
-0.063333
-0.059824
-0.011726
-0.030737
0.045622
-0.090343
0.075355
-0.047046
-0.054677
0.046485
-0.045964
-0.008523
0.028069
-0.012889
-0.034248
-0.030692
-0.008709
0.013073
-0.000570
-0.018457
0.054485
-0.006554
-0.004217
0.060070
0.050881
0.111374
0.134914
0.044044
0.170779
0.169863
0.210947
0.146502
0.103788
0.210719
0.219299
0.167305
0.328786
0.245152
0.381742
0.347398
0.323133
0.319440
0.333528
0.394442
0.420611
0.383053
0.366446
0.490469
0.433237
0.558386
0.464224
0.521896
0.516634
0.441838
0.419913
0.500905
0.447640
0.467999
0.471115
0.388037
0.475820
0.522015
0.399375
0.320400
0.362006
0.365836
0.344790
0.286206
0.289287
0.131505
0.272989
0.272032
0.231341
0.134515
0.197899
0.164455
0.100305
0.146575
0.064776
0.094680
0.067676
-0.012726
0.086432
0.123948
0.063509
0.093928
0.061667
0.050016
0.115786
0.033961
-0.025020
0.038907
0.003840
0.092063
0.070754
0.023571
0.089959
-0.058623
0.053288
0.115718
0.021501
-0.037377
0.021025
0.032034
-0.016994
0.087073
0.047037
0.064471
0.075400
0.013165
0.117665
0.063907
-0.025556
0.065188
0.044835
0.041283
0.057590
0.015764
0.031735
0.073210
0.044971
-0.045387
-0.022496
-0.032743
0.018155
-0.032792
0.053636
0.054375
-0.006299
0.017859
0.067277
0.009639
0.044081
0.097641
0.071935
0.049215
0.099730
0.070067
0.079004
0.066793
0.009423
0.003959
0.131446
0.082070
0.069400
0.069655
-0.004017
0.077368
0.128622
0.037742
0.056189
-0.017293
-0.036405
0.101506
0.010727
0.107082
0.053158
0.070438
0.057839
0.076098
0.120491
0.068062
0.058421
-0.033313
0.006123
0.020669
0.036185
0.060014
0.013399
-0.004012
0.083863
0.109211
0.163505
0.027748
0.023214
0.037536
0.058766
0.086640
0.047962
0.088021
-0.014640
0.031553
0.002307
0.063449
0.156430
0.046063
0.022491
0.030774
0.118896
0.100608
-0.011757
0.064674
0.067798
0.084558
0.071259
0.010025
0.068709
0.041931
0.045647
0.077161
0.129122
0.089569
0.068126
0.103825
0.049909
0.125947
0.127670
0.173531
0.187425
0.179762
0.237959
0.265458
0.206428
0.188952
0.190364
0.232135
0.252456
0.254950
0.197110
0.260601
0.193577
0.242575
0.211217
0.161058
0.226169
0.177538
0.231946
0.164088
0.162612
0.153818
0.141236
0.132764
0.185881
0.135816
0.087932
0.039023
0.113303
0.114798
0.130816
0.104662
0.079360
0.029268
0.090917
0.039469
0.092618
-0.003357
0.027363
0.104626
0.031885
0.038635
0.063183
-0.015391
0.087685
-0.007024
0.073086
0.165373
0.012599
0.083226
