-0.064507
0.044294
-0.035166
-0.089622
0.056268
-0.011879
-0.014727
-0.005764
0.039860
0.022255
-0.076929
-0.000326
-0.009409
0.036270
0.076498
0.010709
0.037812
-0.005560
0.036675
0.011464
0.056734
-0.009082
0.162543
0.099490
0.162851
0.094991
0.145329
0.098555
0.034610
0.136960
0.199977
0.208943
0.191124
0.307124
0.211734
0.126671
0.192259
0.244285
0.211909
0.145239
0.234951
0.192048
0.244157
0.168689
0.109971
0.180883
0.116114
0.196581
0.070850
0.100494
0.068070
0.152530
0.090687
0.163133
0.096593
0.103659
0.032872
0.037200
0.082680
0.061310
0.117142
0.092281
0.011741
0.001723
0.046775
0.111621
0.045268
0.034713
0.115744
0.115348
0.167814
0.384657
0.778904
1.094651
1.306110
1.500000
1.338937
1.179519
0.799057
0.343532
0.124387
-0.144405
-0.214857
-0.164134
-0.073672
0.010482
0.038420
0.128689
0.020405
0.141572
0.079872
0.157075
0.151764
0.137279
0.192686
0.142015
0.124009
0.220207
0.273537
0.281903
0.260235
0.242288
0.245676
0.275283
0.331034
0.403304
0.391154
0.359221
0.422959
0.504681
0.508303
0.567452
0.451111
0.462845
0.499343
0.615849
0.628676
0.593552
0.628816
0.577260
0.625327
0.634365
0.541608
0.643653
0.669194
0.593176
0.595243
0.520931
0.576643
0.481639
0.525032
0.548200
0.505951
0.461551
0.447039
0.405974
0.443960
0.446985
0.386915
0.311243
0.391183
0.345191
0.306161
0.243884
0.316382
0.359592
0.208728
0.190100
0.183889
0.195913
0.206758
0.165495
0.117544
0.150536
0.163845
0.189901
0.192674
0.062761
0.102385
0.070058
0.070934
0.109816
0.086257
0.011287
0.172037
0.090933
0.071157
0.020188
0.118526
0.047768
0.031608
0.083035
0.067544
0.106742
0.104156
0.145263
0.060798
0.106275
0.031281
0.131907
0.004522
0.118797
0.143261
0.053737
0.090346
0.149214
0.066702
0.067278
0.150182
0.061072
0.067489
0.085131
0.010858
0.075450
0.044584
0.049824
0.082742
0.029669
0.117881
0.133872
0.191001
0.079691
0.137221
0.076373
0.136668
0.200264
0.049087
0.148931
0.181612
0.122974
0.129202
0.268390
0.208795
0.245692
0.189635
0.196942
0.174303
0.214417
0.215191
0.254499
0.192392
0.236190
0.301411
0.256184
0.289382
0.280617
0.272444
0.236555
0.293447
0.266981
0.277161
0.277997
0.252601
0.171540
0.259324
0.177455
0.129222
0.229497
0.204129
0.108762
0.119070
0.074640
0.052651
0.109012
0.112907
0.115208
0.129868
0.103626
0.077343
0.030678
0.136869
0.051755
0.076538
0.062798
0.118942
0.123757
-0.001261
0.162688
0.318698
0.579976
1.001502
1.234666
1.445203
1.425794
1.293044
0.962999
0.509426
0.235915
-0.095239
-0.039892
-0.091640
-0.050129
-0.034378
0.037282
0.108834
0.037790
0.170420
0.169092
0.108328
0.241198
0.109926
0.104722
0.229318
0.197895
0.215553
0.174546
0.231847
0.228840
0.315889
0.289208
0.338827
0.345078
0.374433
0.353539
0.360876
0.409460
0.462578
0.390888
0.464269
0.428285
0.462308
0.556630
0.513377
0.533067
0.673360
0.631681
0.536567
0.522934
0.618489
0.543028
0.681463
0.637390
0.600790
0.552130
0.588524
0.584565
0.537437
0.532924
0.504060
0.446675
0.431384
0.517021
0.371591
0.388889
0.350139
0.317640
0.364887
0.307355
0.325879
0.255560
0.273504
0.185735
0.163745
0.300949
0.162873
0.132968
0.119323
0.120714
0.163815
0.161398
0.116371
0.106851
0.084951
0.152840
0.080773
0.143726
0.050322
0.047237
0.117467
0.049092
0.058299
0.039056
0.106438
0.079589
0.056013
0.067584
0.057722
0.044420
-0.001395
0.067545
-0.009907
-0.018078
-0.021911
0.058718
0.057139
0.021713
0.053445
0.063635
-0.081412
0.027157
0.019747
0.008077
0.060620
0.067725
0.013542
0.038154
0.008501
0.008555
0.009819
-0.010549
0.047410
-0.007436
0.034973
0.079605
-0.013769
0.033666
0.068656
0.013663
0.104572
0.067106
0.012994
0.037047
-0.033429
0.040116
0.114852
0.104336
0.061464
0.040502
0.075428
0.215827
0.082998
0.113594
0.149747
0.068091
0.139789
0.118321
0.123755
0.157296
0.107053
0.197639
0.181661
0.176909
0.047735
0.166778
0.119914
0.087196
0.204576
0.156946
0.130332
0.138539
0.137147
0.046829
0.148298
0.102956
0.074249
0.047341
0.047193
0.101195
0.073094
-0.029703
-0.038779
0.068242
-0.002073
-0.026711
0.035517
-0.041658
0.028359
-0.008808
-0.048925
0.030668
0.120351
-0.018846
-0.013267
-0.028909
0.071854
0.208155
0.444310
0.733078
0.934304
1.167883
1.473296
1.412264
0.996678
0.744415
0.314403
0.055535
-0.188288
-0.229111
-0.202406
-0.117951
-0.111458
-0.077907
-0.059272
0.013941
-0.034717
-0.009044
0.027737
0.064680
0.078600
0.081563
0.104442
0.035556
0.118085
0.132698
0.211269
0.107563
0.212249
0.218220
0.210521
0.160729
0.222964
0.304579
0.244616
0.323435
0.292246
0.447176
0.406462
0.448719
0.471585
0.335492
0.461592
0.445356
0.438285
0.542261
0.469645
0.469507
0.511263
0.405733
0.539720
0.507289
0.543360
0.449389
0.409827
0.533143
0.451182
0.356882
0.442505
0.406320
0.355600
0.320732
0.317860
0.304051
0.217514
0.207054
0.188911
0.253243
0.236367
0.216062
0.193184
0.147332
0.147112
0.151773
0.081062
0.071325
0.083423
0.022460
0.099166
0.013574
-0.037763
0.082373
-0.014242
-0.111101
0.051424
-0.056467
-0.021794
0.086764
0.044654
-0.012476
-0.017077
-0.064919
-0.065692
0.003956
0.050559
-0.029513
0.000013
-0.109577
-0.076023
-0.110177
-0.038198
-0.017394
-0.057126
-0.049079
0.023499
-0.033962
-0.037879
-0.077479
0.002279
-0.111289
-0.092697
-0.080883
-0.022483
-0.058021
-0.005277
-0.038500
-0.069934
-0.047783
-0.068394
-0.070818
-0.048127
-0.093773
-0.045006
-0.147629
0.030613
-0.016004
-0.059188
0.063797
-0.012593
-0.069036
0.003662
-0.049156
0.023087
0.036796
0.066117
0.005125
0.053367
0.043854
-0.043460
-0.028057
-0.002867
0.011232
-0.038826
0.108043
-0.001139
0.131521
0.119329
0.131622
0.224543
0.175145
0.133081
0.186342
0.179235
0.108440
0.099306
0.146164
0.129990
0.116015
0.096223
0.101047
0.100970
0.041829
-0.020603
0.038661
0.063472
0.050189
0.026978
0.038089
0.086112
-0.059868
-0.053477
-0.014661
-0.032223
-0.018925
-0.007056
-0.045195
-0.058367
0.016575
-0.052783
-0.141448
-0.057536
-0.082827
0.004634
-0.071076
0.157671
0.218660
0.450613
0.791329
1.053577
1.342157
1.363390
1.168178
0.773672
0.458074
0.144046
-0.130093
-0.269820
-0.223892
-0.198951
-0.194422
-0.069812
0.045841
-0.047757
0.056668
-0.007550
0.101671
-0.003574
0.095516
0.049004
0.009235
0.048446
0.192792
0.102446
0.087770
0.090107
0.171965
0.144330
0.176760
0.249010
0.219963
0.275585
0.269792
0.262070
0.340605
0.354075
0.340329
0.362325
0.401725
0.431042
0.405471
0.413587
0.449271
0.566551
0.436235
0.439939
0.594232
0.414903
0.531581
0.469497
0.479937
0.471741
0.547508
0.463683
0.439202
0.443387
0.443441
0.474841
0.511455
0.441997
0.377613
0.337696
0.340447
0.346177
0.284443
0.216847
0.227309
0.203456
0.174932
0.182940
0.234492
0.134821
0.109449
0.115418
0.059251
0.117383
0.080818
0.064799
0.088707
0.082187
0.091986
0.034105
0.043603
0.046959
0.107897
0.065277
-0.043635
-0.018411
-0.054794
0.031413
0.015971
0.105990
-0.006946
0.021660
-0.055807
0.058770
0.025516
0.034084
0.075574
-0.002648
0.097798
0.052824
-0.035493
-0.025754
-0.002954
0.019302
-0.004522
-0.067975
0.029523
-0.040229
-0.082256
-0.027253
0.023437
-0.037445
-0.058342
-0.009468
0.039992
0.039603
0.063096
0.102141
0.016624
0.064872
0.018743
0.093243
0.003392
-0.023572
0.035404
0.006091
0.051807
0.044040
0.099420
0.052491
0.066214
0.005339
0.052051
0.089697
0.123319
0.159434
0.101300
0.060141
0.130021
0.151951
0.231748
0.106876
0.141143
0.108665
0.180634
0.232531
0.316942
0.255750
0.184909
0.235980
0.223257
0.300375
0.245503
0.163775
0.207681
0.070511
0.097810
0.207837
0.179739
0.197388
0.122954
0.088317
0.106112
0.027285
-0.009834
0.051149
0.120369
0.051841
0.071021
0.084246
0.081583
0.098234
0.074786
0.065517
0.048822
0.000942
-0.015908
0.058613
0.035323
0.062062
0.148450
0.275517
0.487564
0.745396
1.094798
1.338686
1.478711
1.379391
1.159520
0.770593
0.465274
0.076627
-0.043564
-0.204410
-0.138816
-0.032962
0.037984
0.148766
-0.034931
-0.008201
0.173044
0.041496
0.108967
0.171292
0.151887
0.221366
0.194822
0.153105
0.167014
0.265809
0.211519
0.237245
0.295991
0.197158
0.364078
0.352839
0.375539
0.326965
0.363135
0.335057
0.414024
0.500799
0.578198
0.423986
0.530900
0.569607
0.458225
0.557680
0.686553
0.597541
0.663487
0.558999
0.587948
0.684581
0.676698
0.588401
0.600870
0.476441
0.625692
0.575731
0.487754
0.501745
0.517586
0.634664
0.498388
0.557896
0.493196
0.385331
0.436683
0.412901
0.394401
0.442597
0.274605
0.286442
0.308299
0.288256
0.260497
0.192284
0.283411
0.138815
0.183890
0.237137
0.176030
0.154223
0.129453
0.199210
0.138917
0.091753
0.074981
0.184343
0.194623
0.124276
0.186969
0.153181
0.189079
0.141426
0.137939
0.088523
0.193780
0.067504
0.080471
0.122829
0.089233
0.221127
0.066380
0.119225
0.126224
0.050275
0.037478
-0.046653
0.078729
0.060783
0.146410
0.121094
0.086673
0.063903
0.077765
0.069160
0.076794
0.116279
0.134867
0.112944
0.005561
0.039799
0.068491
0.122515
0.152769
0.079035
0.169270
0.077278
0.045319
0.068715
0.149682
0.064116
0.119971
0.117857
0.186742
0.107355
0.151951
0.211179
0.155242
0.171617
0.177659
0.127887
0.178257
0.237009
0.258463
0.185177
0.159803
0.228812
0.282657
0.160696
0.180389
0.300401
0.330670
0.260469
0.238596
0.278879
0.335051
0.232128
0.252653
0.167635
0.161259
0.204612
0.170357
0.224432
0.161208
0.183034
0.196566
0.186816
0.109015
0.170340
0.132126
0.128695
0.077692
0.076980
0.090211
0.096575
0.019446
0.135427
0.154571
0.081134
0.109999
0.080424
0.129768
0.084616
0.111847
0.128739
0.209066
0.290342
0.685384
0.929496
1.285349
1.447016
1.448471
1.326242
0.954201
0.600588
0.183445
0.004959
-0.089655
-0.110294
-0.109447
-0.000661
0.020637
0.134923
0.089885
0.081334
0.104755
0.117028
0.183592
0.175362
0.112354
0.135613
0.190001
0.190467
0.190658
0.196999
0.215160
0.338268
0.214096
0.285675
0.331953
0.346244
0.426654
0.335191
0.477320
0.486994
0.561428
0.509073
0.498187
0.482770
0.531301
0.558362
0.619171
0.521959
0.577529
0.603515
0.576312
0.580812
0.647287
0.594875
0.554738
0.609312
0.573702
0.671897
0.616848
0.547047
0.555941
0.483814
0.484060
0.521006
0.498145
0.436000
0.339399
0.416967
0.344249
0.326856
0.291079
0.284135
0.258463
0.259922
0.245601
0.207539
0.213505
0.190112
0.141701
0.125456
0.144067
0.150943
0.057101
0.058516
0.095202
0.124907
0.019914
0.153626
0.108188
0.047862
0.164294
0.092790
-0.022998
0.141224
0.044477
0.139527
-0.017081
0.016223
-0.001556
-0.001055
0.069229
0.023589
0.027169
0.024292
0.009003
0.096898
-0.051190
-0.011654
0.095424
0.016289
0.095089
0.006518
-0.005464
0.019340
-0.002260
-0.047389
-0.031535
-0.032600
-0.010110
0.075418
0.021999
0.036132
-0.019349
0.040872
0.014321
0.012481
-0.050180
-0.011202
-0.050676
-0.012593
0.141721
0.006698
0.064567
0.028151
0.014172
0.086510
0.095722
0.070237
0.025334
0.043331
0.030305
0.063796
0.025782
0.048983
0.080653
0.135313
0.118928
0.143053
0.131061
0.203008
0.173213
0.212980
0.206081
0.141400
0.117208
0.156703
0.159719
0.193575
0.150576
0.100473
0.143849
0.187592
0.090814
0.174653
0.087635
0.112708
0.070984
0.139151
0.082229
0.057307
0.043138
0.079538
0.000286
0.036040
0.033841
0.037140
0.045899
0.072064
0.000731
-0.073797
-0.025716
-0.041500
0.019447
-0.001848
-0.080537
-0.056159
-0.076622
0.004416
0.182623
0.352937
0.575040
1.066598
1.301367
1.338362
1.348713
0.990224
0.664825
0.234473
-0.041042
-0.176850
-0.221441
-0.212700
-0.130557
-0.089304
-0.119061
-0.056716
-0.051599
-0.034847
-0.022551
0.030275
0.023505
0.078980
-0.027404
0.097781
0.047026
0.108126
0.087137
0.118204
0.038088
0.168810
0.122723
0.181453
0.286454
0.228961
0.230215
0.380466
0.226088
0.327402
0.317094
0.354446
0.400139
0.335959
0.400409
0.437256
0.465075
0.434326
0.394169
0.425640
0.410418
0.540173
0.431535
0.442154
0.482595
0.490767
0.530195
0.381696
0.362855
0.379791
0.420722
0.386789
0.387603
0.356262
0.407261
0.294864
0.294427
0.244908
0.220425
0.237977
0.117917
0.212354
0.160260
0.095273
0.113864
0.059241
0.034165
0.019143
0.058923
-0.026352
0.051052
0.031560
-0.027007
-0.055345
0.102510
0.058411
-0.018664
0.019056
-0.036132
-0.063785
-0.038026
-0.051032
-0.105738
-0.130567
0.000388
-0.091994
-0.021651
-0.078473
-0.067534
-0.164942
-0.128031
-0.084841
-0.095937
-0.010179
-0.071040
-0.124165
-0.090026
-0.059855
-0.063914
-0.105811
-0.171075
0.006904
-0.028181
-0.065805
-0.073633
-0.113952
-0.088446
-0.022845
-0.025818
-0.055032
-0.070575
-0.010361
-0.139193
-0.035695
-0.126238
-0.101807
-0.083879
-0.066206
-0.107409
-0.141880
-0.056256
-0.058074
-0.044434
-0.072477
-0.041469
-0.129453
-0.022979
-0.082190
0.026807
-0.118640
-0.013274
0.018274
0.022563
0.092054
-0.063379
-0.032802
0.111704
0.100772
0.118719
0.070201
0.102367
0.122259
0.098163
0.070309
0.080920
0.096842
0.109066
0.117155
0.136853
0.009668
0.072501
0.002586
-0.030723
0.084966
0.055083
0.011512
-0.024201
0.033641
-0.006008
0.064676
-0.023291
-0.035702
-0.055796
-0.027823
-0.074310
-0.080045
-0.150017
-0.112828
-0.119591
-0.073526
-0.050492
0.001626
-0.051392
-0.022638
-0.058307
-0.111172
-0.036133
0.080500
0.209715
0.516514
0.820881
1.113848
1.350632
1.337728
1.170592
0.892344
0.414266
0.084060
-0.069751
-0.380679
-0.299536
-0.134362
-0.179208
-0.104692
-0.045844
0.115928
-0.055354
-0.144312
0.007503
-0.043642
0.018577
-0.002790
0.093537
-0.063828
0.067229
0.072995
0.005074
0.073641
0.159957
0.168762
0.136689
0.193063
0.254358
0.205327
0.236693
0.282751
0.324004
0.274685
0.331942
0.347373
0.381117
0.293688
0.433773
0.415697
0.415597
0.413299
0.528570
0.544307
0.484414
0.478759
0.549929
0.507806
0.536495
0.453299
0.467354
0.416772
0.502712
0.446295
0.360044
0.360531
0.397553
0.269055
0.347153
0.329462
0.288958
0.271088
0.199794
0.208657
0.142035
0.179138
0.204101
0.152725
0.094236
0.084029
0.017980
0.065376
0.133025
0.053251
-0.025321
0.010962
0.065682
0.114194
0.007167
0.024585
-0.064754
0.050748
-0.035826
-0.048369
0.024433
-0.049965
-0.021212
0.015409
0.019451
-0.031462
-0.018332
-0.090976
-0.034429
-0.093621
0.045564
-0.038892
-0.143582
0.024399
-0.001979
0.007930
-0.011223
-0.019654
0.043153
-0.027397
-0.109708
-0.018254
-0.077892
-0.002157
-0.046599
-0.043491
0.043165
-0.061631
-0.105863
-0.057202
-0.069535
0.097190
-0.051223
-0.028036
-0.002457
-0.044573
0.008977
0.029493
0.024029
-0.099279
-0.120091
-0.041099
-0.021230
-0.072707
-0.074766
-0.030036
0.032735
0.002867
-0.044505
0.065518
0.140065
0.048466
0.005229
0.020678
0.131025
0.128922
0.022729
0.053348
0.136169
0.210760
0.093996
0.217357
0.142166
0.196221
0.226595
0.227058
0.097044
0.242794
0.113636
0.165989
0.208747
0.101174
0.158942
0.172583
0.192490
0.084812
0.071551
0.029207
0.061697
0.092836
-0.010034
0.016333
0.052250
0.133373
0.069700
0.065011
0.003169
0.066580
-0.007687
0.029987
-0.026595
0.027660
0.062489
-0.030537
0.009934
0.097267
0.011893
0.220891
0.359148
0.749298
1.011752
1.349829
1.429575
1.394605
1.124492
0.764079
0.349737
0.047395
-0.175295
-0.200102
-0.121357
-0.114962
-0.042527
0.023657
0.052523
0.013137
0.129006
0.000254
0.120267
0.076365
0.198022
0.027552
0.133160
0.083559
0.145033
0.169128
0.215549
0.246072
0.199513
0.222669
0.293251
0.317834
0.360399
0.342069
0.355558
0.329988
0.430373
0.438942
0.454922
0.445599
0.532035
0.517866
0.527219
0.527048
0.430014
0.551003
0.555139
0.532663
0.576137
0.548351
0.511633
0.516989
0.592799
0.592942
0.528755
0.536350
0.547139
0.518078
0.517108
0.425445
0.385614
0.428733
0.512471
0.399807
0.309468
0.347880
0.292515
0.246978
0.269379
0.241553
0.307345
0.212173
0.235084
0.152914
0.227883
0.157595
0.173282
0.082072
0.090124
0.152180
0.163663
0.059530
0.069047
0.030662
0.094769
0.063877
0.110955
-0.007564
0.057111
0.000155
0.098902
0.131933
0.047147
0.106062
0.041383
0.032011
-0.022345
0.048919
0.052328
0.042442
0.057033
0.081627
0.028633
0.104895
-0.014814
0.029974
0.060148
0.120635
-0.023817
0.021237
0.056925
0.022085
0.076142
0.014272
0.062594
-0.020049
-0.014729
0.073058
0.020937
-0.010431
0.116812
0.067112
0.059072
0.082130
0.055706
0.066305
0.038944
0.050353
0.101460
0.062496
0.100874
0.102280
0.057801
0.021343
0.175049
0.043463
0.134777
0.109890
0.084201
0.162353
0.093755
0.149645
0.175912
0.125872
0.206522
0.181584
0.146920
0.236230
0.202255
0.324990
0.167779
0.309664
0.309549
0.258751
0.301590
0.146724
0.231769
0.158116
0.256785
0.182977
0.150851
0.240348
0.194678
0.097844
0.177584
0.181432
0.111230
0.185322
0.059337
0.117821
0.074253
0.027840
0.183431
0.093316
-0.005401
0.074604
0.045606
0.021763
0.007746
0.055740
-0.033448
0.095792
0.120399
0.058856
0.108271
0.273078
0.584531
0.932438
1.256893
1.452630
1.416435
1.225609
0.903756
0.596623
0.196597
-0.017159
-0.209148
-0.149537
-0.112259
-0.063845
-0.031182
0.036989
0.072953
0.118479
0.037740
0.058196
0.086314
0.124113
0.032853
0.071076
0.155846
0.080971
0.153704
0.213628
0.198825
0.162745
0.266608
0.173851
0.310497
0.300142
0.343839
0.305056
0.378299
0.320312
0.461921
0.442522
0.396664
0.429121
0.410973
0.451295
0.498797
0.547628
0.522989
0.489376
0.477258
0.691940
0.561466
0.524994
0.535141
0.548388
0.518036
0.497136
0.561201
0.495146
0.451601
0.479747
0.448572
0.395232
0.433998
0.447231
0.319205
0.357894
0.326390
0.246650
0.259079
0.361119
0.295818
0.205180
0.212911
0.239857
0.157730
0.207899
0.112589
0.081192
0.072508
0.141474
0.053599
0.111841
0.122954
0.008091
0.047811
0.013266
0.030149
0.071104
-0.004604
0.129423
0.022438
0.063657
-0.069119
0.080740
0.035144
-0.014347
0.002514
-0.045401
-0.046992
-0.010292
-0.031308
0.027127
0.032449
-0.074527
-0.106465
0.046407
-0.048490
0.018793
-0.039120
0.012035
-0.027799
0.049882
-0.017620
-0.000605
-0.024416
-0.064416
-0.077974
-0.014787
-0.045835
-0.075245
0.025205
-0.113396
-0.002077
-0.056437
-0.079682
-0.002168
-0.010571
-0.169336
-0.047747
0.013166
0.004776
-0.011437
0.008624
0.025522
0.078619
-0.066807
0.021940
0.005087
-0.026345
0.103193
0.011406
0.034266
0.053683
0.034044
0.141587
0.059874
0.051288
0.100642
0.091996
0.130507
0.107203
0.165496
0.142041
0.199280
0.140422
0.115170
0.200618
0.134311
0.194491
0.155222
0.162517
-0.003220
0.054931
0.148199
0.087217
0.064570
-0.034007
0.120590
-0.014644
0.003192
0.016552
0.028925
-0.044884
-0.027815
-0.055211
-0.095253
-0.023433
-0.064539
-0.027495
-0.146182
0.021936
-0.057979
0.043498
-0.079589
-0.042649
-0.069405
0.200208
0.279138
0.684319
0.957773
1.288676
1.315838
1.274561
1.041296
0.605824
0.296615
0.013750
-0.165826
-0.273173
-0.189197
-0.206465
-0.096292
-0.044693
-0.111268
-0.006661
-0.009150
0.034011
0.049904
0.063088
0.071756
0.117837
0.065134
0.145187
0.039760
0.024283
0.116121
0.019364
0.157790
0.037165
0.182983
0.157706
0.160371
0.181155
0.176558
0.278162
0.313509
0.242452
0.364976
0.351419
0.358977
0.392325
0.432305
0.447992
0.306603
0.459514
0.394093
0.472865
0.402359
0.419929
0.414844
0.310025
0.403149
0.412268
0.412687
0.335661
0.472547
0.382153
0.411408
0.301472
0.374703
0.264135
0.252182
0.206155
0.275522
0.197801
0.163275
0.168105
0.198603
0.136482
0.109517
0.046966
0.115410
0.032534
0.142949
0.004273
0.011361
0.047597
-0.152525
-0.076118
-0.108414
-0.061364
0.035614
-0.034619
0.003272
-0.048593
-0.036246
-0.028206
-0.101035
-0.070043
-0.140697
-0.081536
-0.097305
-0.068423
-0.121442
-0.088447
-0.037329
-0.109054
-0.192953
-0.068297
-0.068045
-0.124622
-0.104612
-0.091739
-0.113306
-0.163497
-0.044455
-0.145428
-0.126506
-0.070577
-0.109715
-0.038686
-0.088843
-0.138221
-0.123154
-0.154367
-0.081544
-0.099157
-0.041422
-0.150580
-0.039254
-0.055745
-0.114557
-0.062780
-0.132089
-0.066894
-0.121073
-0.043250
-0.060230
-0.157435
-0.129929
-0.052582
-0.013352
-0.133875
-0.153424
-0.122979
-0.013447
0.019398
-0.046808
-0.017493
0.004104
0.068756
0.042332
-0.041472
0.066114
0.078694
0.047073
0.031393
0.047067
0.051276
0.100177
0.003187
0.081133
0.000843
0.167365
0.028283
0.063784
0.074889
0.048414
0.032165
-0.021975
0.016645
0.013575
0.007138
-0.000795
-0.042846
0.043708
-0.064572
-0.069083
-0.119142
-0.111298
0.000690
-0.038730
-0.195829
-0.110911
-0.132801
-0.145422
-0.060926
0.016275
-0.196913
-0.083050
0.000614
-0.088329
-0.145219
0.061874
0.188854
0.475065
0.793354
1.048410
1.289229
1.347633
1.082857
0.636509
0.446035
0.096174
-0.160008
-0.325542
-0.272086
-0.305967
-0.268248
-0.109486
-0.113309
-0.062394
-0.049972
-0.037690
-0.051932
-0.007175
0.004492
0.060762
0.055620
-0.048412
0.019169
-0.015148
0.012702
0.098359
0.075342
0.109695
0.109552
0.221661
0.113714
0.187330
0.197010
0.244228
0.305746
0.260867
0.358934
0.337025
0.337634
0.414128
0.394546
0.348348
0.477627
0.472207
0.445388
0.479649
0.494889
0.438929
0.415039
0.421676
0.385794
0.406106
0.446912
0.401081
0.444375
0.348970
0.353464
0.355676
0.341722
0.285376
0.244920
0.241471
0.280312
0.300870
0.171137
0.182778
0.245168
0.192043
0.115526
0.049130
0.164202
0.030834
0.118088
0.049164
0.133694
0.043267
0.005936
0.058875
0.043547
-0.043097
-0.078965
-0.058406
-0.007552
-0.097597
-0.091724
0.012128
-0.044418
-0.026667
-0.109514
-0.109383
-0.067005
-0.065399
0.015159
-0.087679
-0.090179
0.007828
-0.033016
-0.023754
-0.002814
-0.058245
-0.164360
0.006836
-0.052762
-0.091137
-0.015187
-0.017329
-0.042416
-0.015708
-0.064922
-0.001115
-0.006522
0.011828
-0.153206
0.008461
-0.074672
-0.102923
0.006786
-0.083000
-0.020029
-0.012839
-0.025178
-0.019790
-0.030938
-0.037501
-0.001170
-0.030953
-0.028763
0.006346
0.015727
-0.037784
0.071304
-0.036673
0.000606
-0.014714
-0.021637
0.036810
0.019035
0.001316
0.091335
0.057003
0.063080
0.162159
0.157889
0.178154
0.085202
0.136775
0.213132
0.253334
0.216001
0.198399
0.221892
0.195405
0.185810
0.212913
0.150220
0.153708
0.170505
0.203193
0.088498
0.077649
0.137717
0.104923
0.149055
0.002753
0.081509
0.039941
0.074107
0.169646
0.015972
0.052177
-0.046521
0.029692
0.053230
-0.020506
-0.034314
-0.058259
-0.021754
0.078877
0.042024
0.026353
0.004745
0.112613
0.097542
0.123632
0.362128
0.662475
1.027938
1.322704
1.417770
1.373931
1.083694
0.679842
0.299857
0.005455
-0.213134
-0.143627
-0.155518
-0.082543
0.008420
0.043990
0.081437
0.019166
0.036291
0.198090
0.127976
0.062604
0.159138
0.137246
0.055722
0.135903
0.175368
0.213169
0.151929
0.263006
0.273705
0.251646
0.252941
0.289615
0.320992
0.345228
0.315406
0.394909
0.443922
0.368775
0.430656
0.410913
0.531020
0.471333
0.559617
0.549248
0.469334
0.514399
0.536858
0.541971
0.493760
0.560858
0.594335
0.594629
0.652190
0.710149
0.516109
0.537208
0.481848
0.512798
0.554801
0.488351
0.410628
0.421547
0.401178
0.359446
0.341720
0.366305
0.332791
0.313597
0.218478
0.182469
0.267062
0.273121
0.204334
0.086113
0.278725
0.166609
0.166464
0.232067
0.127656
0.077773
0.113524
0.082020
0.190877
0.162903
0.146429
0.135345
0.134095
0.120514
0.052197
0.014955
0.050205
0.066383
0.017511
0.093207
0.091674
0.028057
0.010223
0.059667
0.160201
0.035064
0.029273
0.021926
0.135290
0.107717
0.081696
0.139953
0.041592
0.053349
0.075236
0.024685
0.092792
0.068410
0.098412
0.027944
-0.008279
0.079135
0.033569
0.121725
0.121034
0.083566
0.032307
0.088240
0.100816
0.058225
0.097136
0.071402
0.060265
0.156162
0.086220
0.126591
0.045361
0.084591
0.084314
0.096134
0.066987
0.101839
0.150918
0.150092
0.096815
0.112731
0.207597
0.150883
0.201592
0.233598
0.243949
0.204733
0.244334
0.264001
0.240482
0.207251
0.138581
0.324898
0.242377
0.261694
0.231397
0.317601
0.254997
0.240703
0.225987
0.202213
0.226713
0.149557
0.139322
0.178135
0.273585
0.148477
0.171620
0.078162
0.054660
0.095362
0.048063
0.008877
0.022584
0.121211
0.041732
0.102923
0.102800
