0.053189
-0.085948
-0.083361
-0.024101
0.035713
-0.015174
-0.019716
-0.056892
-0.003689
0.044672
-0.049949
-0.001482
-0.010236
-0.027581
-0.040725
0.012338
0.088043
0.015959
0.014749
0.025220
0.051527
0.043000
0.032690
0.030172
0.033997
-0.005581
0.041655
-0.005177
-0.064962
0.122674
0.050613
0.062386
0.073610
0.095533
0.084221
0.137518
0.135912
0.119109
0.198218
0.185630
0.110279
0.154536
0.238919
0.214897
0.158260
0.183911
0.257650
0.199157
0.142659
0.192891
0.165391
0.158945
0.188166
0.152127
0.239297
0.224054
0.138093
0.190320
0.095031
0.134321
0.112440
0.081414
0.150866
0.015822
0.117071
0.013397
0.064527
0.036162
0.034039
0.016723
0.077002
0.050336
0.109827
0.092859
0.078094
0.076613
0.098300
0.057759
0.042114
0.078643
0.045815
0.072655
0.018176
0.020663
0.082594
0.072577
-0.054118
0.074024
0.079362
0.264605
0.466305
0.821662
1.126255
1.323855
1.364004
1.305879
0.976176
0.746211
0.424759
0.108387
-0.144710
-0.246845
-0.201427
-0.162725
-0.071943
0.015997
-0.028889
0.006856
0.070071
0.078427
0.065512
0.014797
0.122064
0.108193
0.024883
0.139377
0.007171
0.065562
0.108299
0.097926
0.110329
0.093075
0.214608
0.087609
0.123315
0.187992
0.083108
0.135277
0.228859
0.226879
0.245047
0.317200
0.210418
0.345870
0.303938
0.339785
0.278139
0.345960
0.350346
0.362608
0.383913
0.480142
0.413214
0.460089
0.465273
0.541603
0.524344
0.397633
0.597564
0.512158
0.582775
0.589799
0.509449
0.590134
0.513582
0.564333
0.564120
0.479008
0.558674
0.540792
0.422230
0.440186
0.487725
0.446570
0.361342
0.464794
0.453517
0.326250
0.286092
0.324466
0.368902
0.316665
0.272367
0.348816
0.203118
0.328920
0.306547
0.204316
0.143419
0.114361
0.143695
0.134847
0.171552
0.162193
0.108761
0.126893
0.145813
0.120137
0.088227
0.117459
0.082219
0.174904
0.081122
0.118359
0.043475
0.019647
0.149625
0.087319
0.100149
0.178982
0.137558
0.096431
0.089513
0.146285
0.064024
0.113756
0.080939
0.116530
0.115206
-0.001171
0.145821
0.008470
0.087145
0.050294
0.128150
0.079333
0.072657
0.077977
0.017354
0.038805
0.166922
0.090432
0.112197
0.114090
0.022011
0.052451
0.108634
0.057805
0.079798
0.091219
0.100607
0.066686
0.110694
0.090268
0.085797
0.088557
0.054675
0.071598
0.081517
0.088475
0.069986
0.053775
0.072970
0.068393
0.048724
0.110892
0.115472
0.095665
0.113900
0.071660
0.011689
0.067673
0.090358
-0.003639
0.119924
0.093312
-0.048355
0.149828
0.039124
0.109742
0.100594
0.093992
0.113541
0.109915
0.116069
0.100307
0.106062
0.115679
0.155703
0.198601
0.190541
0.132296
0.228028
0.226672
0.169674
0.183549
0.188524
0.170383
0.251031
0.257032
0.263504
0.190073
0.242560
0.277233
0.284174
0.203167
0.181412
0.208527
0.220337
0.160624
0.171908
0.154771
0.204238
0.187167
0.151283
0.149507
0.064466
0.115451
0.114882
0.077705
0.097054
0.062754
0.076030
0.048646
0.092335
0.120430
0.091284
0.088718
0.044742
0.050642
0.047649
-0.004981
0.021013
0.058955
0.007433
0.078385
0.067628
0.130779
0.054173
-0.070592
0.026795
0.012719
0.152419
0.213275
0.356091
0.712394
0.884789
1.175522
1.500000
1.344194
1.129533
0.821002
0.476319
0.170019
-0.103327
-0.259709
-0.209932
-0.125150
-0.119648
-0.077840
0.009263
-0.015785
0.015740
0.069215
0.080561
0.092966
0.039740
0.063911
0.106986
0.045061
-0.000130
0.055198
0.095430
0.085311
0.076209
0.080976
0.129615
0.057387
0.103269
0.129528
0.083628
0.162113
0.121344
0.163790
0.211911
0.194085
0.172754
0.159192
0.232190
0.242117
0.260535
0.297566
0.289696
0.308772
0.366375
0.373578
0.407391
0.385530
0.443460
0.468932
0.508585
0.506252
0.519154
0.412906
0.461895
0.578272
0.526835
0.541159
0.439666
0.496587
0.474888
0.455770
0.421192
0.490565
0.374598
0.404928
0.424427
0.354066
0.404304
0.357414
0.342385
0.294262
0.273890
0.281349
0.328908
0.181928
0.173389
0.171372
0.141192
0.142215
0.174762
0.151457
0.193541
0.132665
0.142837
0.110925
0.056913
0.061177
0.012206
0.018891
0.041262
0.031597
0.011706
0.024062
0.001720
-0.027425
-0.011548
0.021632
-0.002133
0.031189
-0.046191
-0.070475
-0.047691
-0.010228
-0.022377
0.008628
-0.085522
-0.044948
0.050318
-0.006337
-0.009673
-0.022998
-0.002759
-0.059187
-0.068174
0.001015
-0.040056
-0.021110
-0.013537
-0.031337
-0.012550
0.027631
-0.054914
-0.058868
0.023642
-0.000380
-0.102345
-0.019772
-0.052389
0.047446
0.056678
-0.079785
-0.031162
-0.026561
-0.097222
-0.013990
-0.028688
-0.047917
-0.082752
-0.031121
-0.001473
0.010553
-0.055788
-0.053649
0.031701
-0.101595
-0.048896
-0.067393
0.004377
0.066554
0.010357
-0.007706
0.023601
-0.037241
-0.013694
-0.023541
-0.056080
-0.047816
-0.000018
-0.042764
-0.006814
0.008950
-0.064543
0.039530
-0.020618
-0.041217
-0.022985
-0.041736
0.018210
0.033378
-0.015598
0.038708
-0.005029
0.046847
0.067789
0.048715
0.075145
0.075546
0.068037
0.082250
0.134165
0.149956
0.142024
0.099524
0.132896
0.182772
0.167771
0.086507
0.187270
0.144281
0.154433
0.147062
0.066676
0.080611
0.115752
0.075193
0.079441
0.038628
0.006959
-0.015801
-0.016417
0.000518
0.014494
-0.069308
-0.010055
-0.017215
-0.013745
0.013376
-0.118265
-0.083055
-0.058284
-0.060506
-0.046273
-0.044359
0.061555
-0.022297
-0.090581
-0.030153
-0.085290
-0.076273
-0.077589
0.037384
-0.012909
-0.049314
-0.131302
-0.003687
-0.068243
0.025147
0.161057
0.498003
0.835833
1.075395
1.239021
1.262854
1.152758
0.908008
0.492854
0.171046
-0.100112
-0.226112
-0.283369
-0.325317
-0.273348
-0.170615
-0.101777
-0.022035
-0.050610
-0.050959
-0.060489
-0.085381
-0.010120
-0.014755
-0.033872
-0.046627
0.010223
0.021509
0.006068
-0.030736
0.015271
0.098689
0.011255
0.023756
-0.010924
0.055756
-0.010913
0.094763
0.055352
0.023430
0.113453
0.176164
0.187274
0.166087
0.121305
0.215228
0.183736
0.170022
0.350046
0.229545
0.348380
0.287096
0.288393
0.322855
0.340291
0.332636
0.381221
0.401575
0.345729
0.442889
0.363155
0.540671
0.454972
0.454359
0.473230
0.474722
0.440401
0.378672
0.411709
0.396695
0.344492
0.347228
0.481951
0.330462
0.308838
0.301475
0.270134
0.208944
0.224947
0.220122
0.264930
0.237555
0.119711
0.139315
0.232830
0.164219
0.145307
0.042653
0.052902
0.095737
-0.009714
0.139591
0.044338
0.052296
0.011858
0.017355
0.059939
0.016130
-0.004241
0.001840
-0.001738
-0.014553
0.044564
0.005406
0.002893
-0.014812
0.078305
-0.048319
-0.055319
-0.018307
-0.012519
-0.024196
-0.032512
0.049569
-0.005669
0.010006
0.008729
0.006997
-0.058491
-0.019935
-0.010364
0.016771
-0.038502
-0.005356
-0.039234
-0.050910
-0.002877
0.007210
-0.034177
0.058693
-0.003149
0.055041
0.013419
0.009301
-0.006024
-0.039776
-0.027724
-0.021449
0.023033
-0.046195
0.105367
0.004254
0.011393
0.060568
-0.023403
0.078195
-0.019973
-0.039609
0.017522
0.040126
0.007724
-0.019361
-0.065767
0.073789
0.044194
-0.079653
0.014733
0.058750
-0.004630
-0.027297
-0.011309
-0.017612
-0.019629
-0.047335
0.006755
0.002643
0.011758
-0.055250
0.025910
-0.020815
0.011542
0.041783
-0.013827
0.007861
0.058700
0.032548
0.049747
0.023494
0.063700
0.093025
0.062832
0.053316
0.151179
0.114424
0.101212
0.120930
0.172384
0.194204
0.141454
0.122194
0.191477
0.261709
0.156659
0.213481
0.154322
0.225177
0.172882
0.125347
0.137204
0.126510
0.223687
0.137204
0.116297
0.090746
0.123084
0.120069
0.112589
0.045777
0.154791
0.083348
0.024203
0.076573
0.014541
-0.003828
0.096048
0.032184
0.005871
0.031918
0.085227
0.020137
-0.034362
0.063901
0.050336
0.041974
0.044549
0.064888
0.055173
-0.017665
-0.004567
0.122311
-0.027879
-0.019263
0.016758
0.021506
0.214934
0.475057
0.791906
1.134684
1.323381
1.444906
1.323595
1.078272
0.752730
0.387049
0.064537
-0.112915
-0.221539
-0.150131
-0.131065
-0.119741
-0.030452
0.013741
0.019818
0.052858
-0.016989
0.058996
0.074849
0.031079
0.104110
0.140438
0.102878
0.106118
0.128510
0.147840
0.074598
0.064394
0.147601
0.086582
0.205010
0.158206
0.215268
0.146455
0.106116
0.204197
0.152664
0.224413
0.233631
0.240261
0.266931
0.244606
0.365019
0.367217
0.363553
0.360063
0.388381
0.377933
0.402956
0.424172
0.421912
0.575802
0.553828
0.512810
0.534929
0.561205
0.577402
0.578388
0.541325
0.541204
0.545038
0.592977
0.562706
0.527217
0.514388
0.644685
0.524390
0.554025
0.494099
0.425912
0.556841
0.437526
0.355795
0.436422
0.398700
0.401053
0.272401
0.304423
0.271955
0.308686
0.288979
0.235642
0.216087
0.188529
0.161195
0.131371
0.113501
0.206360
0.131442
0.210371
0.167064
0.111278
0.116371
0.110377
0.103663
0.098253
0.131868
0.094818
0.101737
0.127611
0.130270
0.070913
0.084447
0.080795
0.156050
0.067927
0.038218
0.183466
0.140534
0.074836
0.075103
0.121342
0.091064
0.144518
0.079662
0.076611
0.088538
0.128782
0.160808
0.174339
0.028161
0.092181
0.135264
0.085169
0.089263
0.037978
0.063206
-0.016313
0.112268
0.083479
0.046575
0.086153
0.127031
0.110757
0.063488
0.115267
0.115438
0.159001
0.089730
0.072335
0.106385
0.087051
0.096981
0.089367
0.136947
0.136357
0.006429
0.141271
0.106208
0.047302
0.175107
0.105963
0.105514
0.109252
0.077630
0.039699
0.121589
0.055506
0.094226
0.105342
0.076009
0.014363
0.096295
0.086194
0.072170
0.122342
0.066117
0.069680
0.131853
0.119625
0.104501
0.095960
0.082238
0.131857
0.152906
0.106244
0.126237
0.151723
0.185326
0.208141
0.268740
0.206623
0.180854
0.251903
0.239338
0.271004
0.237232
0.228134
0.297327
0.319678
0.257810
0.234697
0.161728
0.282104
0.239295
0.171775
0.173408
0.158002
0.267718
0.099450
0.181907
0.081620
0.194172
0.151609
0.131551
0.160527
0.150808
0.033783
0.100388
0.067627
0.042219
0.097438
0.079569
0.110621
0.107924
0.078077
0.069070
0.009224
0.051717
0.005027
0.089417
0.076157
0.115423
0.079143
0.009882
0.071898
0.046494
0.003925
0.027727
0.054415
0.244661
0.465025
0.689067
1.018527
1.243379
1.361915
1.352913
1.220539
0.982139
0.550442
0.312983
-0.022711
-0.122863
-0.326781
-0.190595
-0.097709
-0.048957
0.065724
-0.035297
0.075596
0.028191
0.124929
0.111725
-0.005347
0.089277
-0.044683
0.045447
0.033606
0.073433
0.103139
0.029785
0.148540
0.102954
0.093518
0.072307
0.141518
0.127325
0.146325
0.162185
0.130846
0.136746
0.183927
0.217928
0.250475
0.231626
0.313761
0.257135
0.339338
0.269455
0.322669
0.430738
0.380815
0.395345
0.457159
0.391188
0.458356
0.466974
0.542743
0.483941
0.484736
0.488630
0.555938
0.471837
0.493592
0.437473
0.518568
0.515442
0.577130
0.571225
0.386653
0.481994
0.429830
0.424345
0.455299
0.452230
0.472826
0.325701
0.350035
0.327759
0.358075
0.304179
0.269268
0.224917
0.314316
0.298655
0.236569
0.173854
0.148016
0.196680
0.123239
0.174987
0.005205
0.053306
0.132394
0.095310
0.174085
0.105356
0.117301
0.094619
-0.006489
0.090111
0.063593
0.065387
0.061052
0.037943
0.013524
0.027780
0.081505
-0.026602
-0.017048
0.022868
-0.002004
-0.014779
0.043543
0.026417
0.002263
0.009189
-0.018062
-0.025950
-0.007369
-0.084561
0.036845
-0.089202
-0.028083
-0.047378
-0.020297
0.055160
0.058526
0.027419
-0.034677
-0.023017
-0.026423
-0.015761
-0.058621
0.055376
0.067694
-0.066484
-0.095778
-0.029499
-0.033756
-0.019777
-0.050088
-0.059796
-0.046919
0.042720
0.014685
0.017927
0.007657
-0.041180
-0.043219
-0.094133
0.022027
-0.027421
-0.100982
0.023302
-0.002554
-0.030099
-0.020876
0.058711
0.026863
-0.037259
-0.076491
-0.072965
-0.067641
-0.027137
-0.050280
0.019110
0.013236
-0.015578
0.058647
-0.158442
0.030139
0.018998
-0.000954
0.008005
0.038462
0.027755
-0.058035
-0.005530
0.034785
0.069555
0.002724
0.079201
0.108616
-0.008869
0.111198
0.112602
0.102901
0.067337
0.090479
0.076215
0.176044
0.160686
0.112123
0.178048
0.094551
0.087754
0.109302
0.156532
0.068968
0.073879
0.090842
0.042085
0.054556
0.046561
-0.027850
0.012517
-0.037571
-0.056589
0.007777
-0.019515
0.017482
0.006398
0.029440
-0.082761
-0.042339
0.014697
-0.045746
-0.044460
0.041595
-0.041034
-0.132780
-0.047911
-0.026581
-0.028889
-0.071964
-0.052060
-0.126987
-0.097854
-0.096056
-0.094564
-0.136309
-0.039851
-0.089559
-0.106176
0.146815
0.359873
0.772983
1.010562
1.263890
1.211085
1.150618
0.885087
0.539894
0.199516
-0.052197
-0.233792
-0.321661
-0.366147
-0.306638
-0.228894
-0.115948
-0.126828
-0.037252
-0.111719
-0.056883
-0.077703
-0.089203
-0.037910
-0.021415
0.014724
-0.050506
-0.114149
-0.088682
-0.007901
-0.028895
-0.040573
-0.033208
-0.072674
-0.042424
-0.022424
-0.020756
0.005391
0.063379
0.056232
0.048481
0.084838
0.198133
0.112465
0.150201
0.169798
0.201312
0.211132
0.132860
0.224183
0.266897
0.234677
0.298913
0.245210
0.315315
0.286906
0.331366
0.386633
0.381824
0.404451
0.460916
0.324388
0.362728
0.415137
0.412719
0.431351
0.400076
0.427642
0.460465
0.333449
0.380154
0.415645
0.319818
0.312111
0.308325
0.204188
0.290079
0.259210
0.259483
0.229588
0.260436
0.180229
0.186627
0.124048
0.133392
0.066762
0.125580
0.077362
0.083137
0.027704
0.073603
-0.018557
0.004754
0.013863
0.021174
0.055398
0.004506
-0.008749
0.014547
-0.068855
0.024457
-0.028280
-0.036037
-0.135828
-0.035307
-0.040930
-0.071972
-0.063643
-0.087042
-0.047687
-0.056224
-0.108711
-0.167636
-0.074943
-0.060058
-0.110899
-0.078475
-0.073020
-0.032086
-0.067269
-0.053549
-0.137890
-0.054366
-0.023550
-0.117358
-0.143201
-0.037334
-0.089510
-0.131154
-0.042688
-0.030661
-0.139069
-0.073304
-0.017300
-0.062222
-0.103337
-0.058693
-0.001671
-0.075450
-0.040104
-0.069323
-0.057938
-0.036967
-0.071956
0.004949
-0.098258
-0.161639
-0.091575
-0.113455
-0.069781
-0.035396
-0.079937
-0.074895
-0.126048
-0.159471
-0.005626
-0.079736
-0.089481
-0.080692
0.001127
-0.113210
-0.049809
0.014635
-0.057447
-0.025230
-0.088431
0.021139
-0.116224
0.037616
0.036947
-0.108530
-0.051235
0.020000
-0.059096
-0.049552
-0.028308
-0.017528
0.003876
-0.011925
-0.018895
0.007686
-0.018671
0.004997
-0.033446
0.002183
0.075345
0.110580
0.098663
0.222969
-0.039228
0.166958
0.146707
0.112695
0.124459
0.111677
0.141487
0.092203
0.034768
0.109583
0.110542
0.125163
0.088642
0.122109
0.024206
0.044225
0.075805
0.047889
-0.030673
-0.032085
-0.005197
-0.081314
-0.026377
-0.062904
-0.083001
0.012002
0.013206
-0.027362
0.003799
0.005212
0.037152
-0.090514
0.048133
0.009740
0.016446
0.013896
0.047141
0.041922
-0.082162
-0.044832
0.004022
-0.044478
-0.034318
-0.021883
-0.040229
0.077477
0.268600
0.636038
0.872267
1.138294
1.316886
1.296638
1.053496
0.613969
0.308395
0.054600
-0.119831
-0.268417
-0.249328
-0.275069
-0.183314
-0.102353
-0.114036
-0.039130
-0.011000
-0.062638
0.010213
-0.028212
-0.029363
0.005434
-0.024232
0.008763
0.018012
-0.030715
0.111177
0.100772
0.047080
0.053604
0.046736
-0.015898
0.045887
0.085755
0.197049
0.103095
0.110500
0.096012
0.135836
0.185884
0.118427
0.181032
0.251424
0.236414
0.233323
0.297368
0.329102
0.354607
0.387903
0.316750
0.355511
0.370858
0.484726
0.403667
0.459908
0.446318
0.376311
0.455544
0.485545
0.505291
0.582657
0.558500
0.449036
0.520483
0.508326
0.425049
0.395284
0.433174
0.446518
0.374925
0.469070
0.472883
0.372422
0.343505
0.405638
0.290431
0.284937
0.267380
0.217518
0.215153
0.213031
0.168273
0.230546
0.176702
0.165449
0.130861
0.108603
0.123235
0.196130
0.047931
0.021688
0.054501
0.064664
0.080911
0.021075
-0.010643
0.076281
0.023443
0.103085
0.038530
0.050232
-0.030481
0.041339
0.056205
-0.022817
0.090567
0.078407
0.049260
0.030092
0.044899
0.027420
-0.027850
0.023596
-0.020119
0.068274
0.036243
-0.002085
0.047415
0.076946
0.026251
-0.003305
0.008755
0.064077
0.046729
0.178979
-0.007370
-0.012368
0.004487
-0.010504
-0.037431
-0.062350
-0.022228
-0.034423
0.040771
0.094722
0.066548
0.048499
0.038184
0.030380
0.018917
0.016413
0.038849
0.048931
-0.035956
0.042255
0.011121
0.031072
0.032209
0.084285
0.120110
0.069393
-0.059720
0.100797
-0.004457
0.017053
0.049496
0.041426
0.033448
0.041317
0.041253
0.084026
-0.012348
0.042664
0.012433
0.178903
0.081781
0.077675
0.092244
0.053471
0.000063
0.139767
0.071780
0.106570
0.065645
0.103388
0.114146
0.051290
0.128333
0.100817
0.091238
0.149524
0.117793
0.166621
0.203185
0.251372
0.194899
0.276429
0.174434
0.199808
0.240231
0.222417
0.175272
0.208795
0.296475
0.273759
0.121971
0.188144
0.191599
0.218772
0.165822
0.121946
0.147454
0.124915
0.087658
0.090878
0.153660
0.159023
-0.036107
0.081508
-0.005167
0.028493
0.102640
0.081855
0.078974
0.071495
0.082104
0.063277
0.017376
0.017153
0.035608
0.030921
0.040941
0.011116
-0.041080
0.006667
0.029509
-0.026702
0.017559
0.016077
-0.010511
-0.008953
0.157337
0.214369
0.591005
0.943611
1.260824
1.400371
1.370253
1.267781
0.882363
0.566411
0.244048
-0.048514
-0.118831
-0.291185
-0.216889
-0.173433
-0.049755
0.009140
-0.009860
0.023140
0.052342
0.017812
0.058921
0.107762
0.079467
0.030656
0.030428
0.106008
0.134538
0.089583
0.035907
0.070142
0.044792
0.086851
0.111536
0.016992
0.136877
0.209584
0.051390
0.121670
0.077075
0.110164
0.286225
0.159934
0.251777
0.170401
0.241246
0.248494
0.356948
0.338865
0.336079
0.378294
0.404592
0.386957
0.349118
0.427372
0.509446
0.440278
0.556537
0.469418
0.480935
0.485875
0.534816
0.553105
0.532942
0.523042
0.449709
0.449826
0.452815
0.477716
0.397993
0.447228
0.344176
0.486016
0.455893
0.403079
0.396816
0.397073
0.333521
0.403186
0.286454
0.201468
0.207466
0.158308
0.209418
0.160765
0.129151
0.171881
0.125387
0.146844
0.090383
0.082301
0.019782
0.118003
0.094891
0.091311
0.118560
0.002201
0.085845
0.031971
0.022554
-0.020027
-0.015089
-0.006363
-0.064768
-0.085307
-0.002354
0.007780
0.056996
0.084328
-0.040436
0.018794
-0.029269
0.001599
-0.002756
-0.028361
0.019843
-0.044905
-0.068661
-0.014480
-0.001968
0.002621
0.016933
-0.095273
-0.007028
0.004697
-0.012115
-0.070281
-0.020298
0.047908
-0.017704
-0.063253
0.046887
0.042048
-0.057315
-0.037858
-0.026677
0.046325
0.001058
0.015940
-0.002745
0.012291
-0.013175
0.003189
0.031764
0.009051
-0.043112
-0.008920
-0.032799
-0.049843
0.004422
-0.039999
-0.008470
-0.013776
-0.035973
0.029737
-0.015666
-0.021827
-0.013640
-0.026446
-0.063668
0.078291
-0.040431
-0.014293
-0.081784
0.050440
-0.007738
-0.112842
-0.089962
-0.081164
-0.025447
-0.036589
0.045265
0.006439
0.002694
-0.047525
-0.054367
0.087673
0.001403
0.017393
0.052259
0.088296
0.011513
-0.000099
0.066592
0.100318
0.056859
0.150712
0.074957
0.092805
0.065006
0.088324
0.121828
0.175180
0.155942
0.159697
0.106308
0.109304
0.091486
0.020839
0.060487
0.142466
0.120380
0.107254
0.070282
0.010884
0.019269
-0.006357
-0.015452
-0.041573
-0.008173
0.038932
0.010615
-0.038339
-0.017723
-0.041756
-0.035890
0.024007
-0.014032
-0.046501
0.001102
-0.020925
-0.091586
-0.135030
-0.018564
-0.050375
-0.041777
-0.018605
-0.120782
-0.135818
-0.050560
-0.049015
-0.102507
-0.083399
-0.011338
0.136270
0.368606
0.727074
0.938545
1.202035
1.308302
1.198922
0.926627
0.555645
0.212287
-0.044129
-0.278908
-0.338812
-0.366384
-0.319139
-0.173546
-0.129620
-0.084537
-0.060819
-0.094886
-0.081394
0.004522
-0.107663
-0.085576
-0.161367
-0.142158
-0.094827
-0.055661
-0.111731
-0.026700
0.045029
-0.013654
-0.025855
-0.028090
0.046176
0.016093
0.001817
0.058782
0.085472
0.032342
0.124690
0.043784
0.116600
0.151617
0.176066
0.147056
0.112279
0.148108
0.230844
0.254740
0.195600
0.165632
0.302767
0.281279
0.424670
0.386974
0.358315
0.345850
0.331071
0.411935
0.304437
0.366274
0.432374
0.410647
0.435361
0.401792
0.342923
0.482998
0.415849
0.382623
0.409657
0.338782
0.263290
0.332583
0.275727
0.289773
0.300796
0.245902
0.305533
0.206393
0.150178
0.139474
0.130875
0.121577
0.063805
0.060772
0.072074
0.079607
0.020042
0.036270
0.036982
0.036123
0.010391
-0.072902
-0.093728
-0.003112
-0.016064
-0.036393
-0.008183
-0.106439
-0.111429
-0.089369
-0.090507
-0.076727
-0.121709
-0.105719
-0.172944
-0.069699
-0.110057
-0.041099
-0.048683
-0.079177
-0.099800
-0.107931
-0.082426
-0.105517
-0.077646
-0.058068
-0.063257
-0.075732
-0.066666
-0.030448
-0.047953
-0.080101
-0.110779
-0.133249
-0.048451
-0.059293
-0.037415
-0.063139
-0.020419
-0.128562
-0.106106
-0.108332
-0.085001
-0.099541
-0.143175
-0.094668
-0.102855
-0.074782
-0.126625
-0.082482
-0.129633
-0.048847
-0.154964
-0.041414
-0.065528
-0.105298
-0.140961
-0.034407
-0.143578
-0.162409
-0.091055
-0.054038
-0.055502
-0.084461
-0.054511
-0.149489
-0.135199
-0.039861
-0.101447
-0.062344
-0.107845
-0.105851
-0.071182
-0.089764
-0.146857
-0.121207
-0.097987
-0.123695
-0.057473
-0.172479
-0.074092
0.003141
-0.058522
-0.104079
-0.085635
-0.132923
0.002392
0.031901
0.005063
-0.043192
0.061493
0.025837
0.058222
0.071358
0.026314
0.090598
0.083302
0.081899
0.090933
0.076071
0.204716
0.125558
0.116794
0.077335
0.050939
0.121801
0.107251
0.039334
-0.024443
0.032486
0.060537
0.031853
0.086943
-0.029922
0.019666
-0.028126
-0.063228
0.020101
-0.140191
-0.050545
-0.059065
-0.024526
-0.010353
-0.062585
-0.082010
-0.069393
-0.060399
-0.049234
-0.059397
-0.093640
-0.011946
-0.086340
-0.057985
-0.122948
0.021210
-0.080616
-0.119073
-0.046924
-0.166783
-0.121919
-0.190208
-0.091286
0.024099
0.230314
0.537772
0.860146
1.160125
1.254569
1.221577
0.948635
0.761695
0.412289
0.080186
-0.212276
-0.314514
-0.248519
-0.259561
-0.240552
-0.107301
-0.018186
-0.072385
-0.021929
-0.060488
-0.018903
-0.054267
-0.097165
-0.053092
-0.074463
-0.013605
0.113257
-0.053150
-0.026353
-0.041060
-0.025281
-0.085853
0.003582
-0.037746
-0.028219
0.040953
0.013264
0.076670
0.043134
0.122521
0.079955
0.150164
0.082981
0.178259
0.139687
0.138042
0.259517
0.237874
0.246910
0.336459
0.298310
0.300046
0.342811
0.330031
0.389327
0.347794
0.402078
0.407901
0.476652
0.438896
0.391120
0.466003
0.399375
0.452895
0.490677
0.478736
0.393187
0.415079
0.360848
0.539902
0.395646
0.443355
0.339293
0.329013
0.334521
0.367227
0.259625
0.257140
0.271462
0.263316
0.170271
0.171165
0.211224
0.118810
0.185408
0.159520
0.113339
0.153782
0.138450
0.073816
0.187730
0.053229
0.050815
0.098913
0.069059
0.114139
0.098149
0.003757
0.050642
-0.016290
-0.003166
-0.002037
0.034237
-0.040470
-0.035730
-0.021209
-0.012403
-0.031868
0.004300
0.032334
0.055185
-0.012365
0.034587
0.046584
0.015165
-0.012399
0.004900
-0.032203
-0.061974
0.034892
-0.019611
0.070014
0.088776
0.019973
0.012781
-0.000089
0.111147
-0.030390
0.018566
0.044312
0.058957
0.121838
0.018074
0.098904
0.058471
-0.015637
-0.026831
0.063520
-0.001962
0.059336
0.047649
0.018637
-0.064742
0.070497
-0.023565
0.098196
-0.037331
0.094416
0.101051
0.013005
0.010447
0.014507
0.060880
0.071605
0.009204
0.049479
0.050169
0.020516
0.041653
0.111233
0.080736
-0.028751
0.048354
0.010053
0.064570
0.063089
0.025640
0.036402
0.079341
0.049734
0.087591
0.035146
0.093761
0.031397
0.088937
0.161387
0.132214
0.095521
0.057980
0.133825
0.111167
0.034754
0.234993
0.112742
0.176785
0.214046
0.141336
0.202927
0.207470
0.213147
0.200346
0.264572
0.084461
0.211157
0.216440
0.195190
0.213436
0.203370
0.203096
0.142953
0.197323
0.164823
0.165416
0.123011
0.196580
0.117227
0.106884
0.097746
0.064727
0.114246
0.135560
0.080100
0.132730
0.036541
0.057221
0.056816
0.103170
-0.007177
0.124135
0.043840
0.141049
0.055166
0.083893
0.028805
0.028839
0.031481
0.073079
0.105738
0.071085
0.126065
0.053793
0.038342
0.047399
0.131818
0.336014
0.632208
0.924822
1.145883
1.435772
1.319380
1.279710
0.967081
0.608973
0.256101
0.010943
-0.201735
-0.266444
-0.197844
-0.143393
-0.009074
0.047238
-0.007190
0.022893
0.072041
0.006128
0.006898
0.110928
0.043546
0.061863
0.063076
0.075430
0.011713
0.108321
0.063737
0.088727
0.135799
0.134756
0.119004
0.192663
0.137222
0.109715
0.226031
0.219963
0.255893
0.210079
0.242234
0.215845
0.211813
0.325152
0.288555
0.320632
0.415718
0.358156
0.392346
0.368284
0.462555
0.355214
0.368170
0.441907
0.437168
0.491737
0.535077
0.535477
0.519363
0.575495
0.552750
0.564181
0.527965
0.620412
0.512984
0.536342
