0.041494
-0.117817
-0.058081
0.055032
0.006981
-0.043192
0.039330
0.011027
-0.008476
0.054271
0.057541
0.014633
-0.017884
-0.013160
0.062964
0.066902
0.010023
-0.010962
-0.060559
-0.010820
0.050983
0.004714
-0.080075
0.037286
0.077208
0.012447
0.043985
0.096956
0.017642
0.040725
0.096851
0.085962
0.104785
0.021983
0.141701
0.096335
0.090976
0.192783
0.249768
0.125634
0.185914
0.171794
0.178928
0.256972
0.240556
0.253907
0.237025
0.233294
0.221565
0.177948
0.078162
0.159642
0.118297
0.094940
0.145158
0.134253
0.066756
0.193536
0.132540
0.095892
0.124002
0.119466
0.091238
0.066095
0.077982
0.003134
0.101631
0.016465
0.046931
-0.001714
0.066336
0.035430
0.044606
0.084930
0.119091
0.098393
0.072752
0.118255
0.128993
0.022367
0.062364
0.026766
0.130090
0.016112
0.179420
0.241166
0.494230
0.902167
1.229870
1.422608
1.494903
1.295802
1.008151
0.634542
0.226396
-0.021939
-0.162904
-0.209862
-0.194529
-0.138540
-0.051786
0.002944
0.047071
0.003973
0.055074
0.196538
0.086769
0.060802
0.095083
0.025281
0.196883
0.091763
0.069539
0.050007
0.208625
0.044560
0.123459
0.173551
0.119828
0.240627
0.174395
0.198835
0.144258
0.253721
0.221752
0.255138
0.274599
0.255783
0.264381
0.418789
0.420866
0.353943
0.454993
0.493132
0.422788
0.437169
0.468071
0.463659
0.513019
0.571537
0.579946
0.532964
0.553381
0.642057
0.599840
0.476025
0.603736
0.534933
0.637107
0.643951
0.527180
0.585426
0.535580
0.521781
0.486579
0.519782
0.498495
0.457774
0.343290
0.516621
0.383782
0.408034
0.365730
0.396474
0.359154
0.240994
0.295079
0.272952
0.202166
0.194605
0.270990
0.283086
0.236165
0.189956
0.151333
0.126250
0.248764
0.169600
0.134697
0.103567
0.068490
0.095247
0.084695
0.140156
0.084601
0.083623
0.133561
0.116414
0.013972
0.078645
0.109563
0.049522
0.033728
0.097981
0.174718
0.105058
0.057757
0.073731
0.070655
0.033738
0.150046
0.032730
0.066576
0.101925
0.040234
0.090709
0.169402
0.044941
0.083271
0.078401
0.115751
0.014851
0.126989
0.041264
0.110547
0.147311
0.122944
0.032884
0.048957
0.111280
-0.001871
0.120322
0.057647
0.069715
0.133487
0.078671
0.113796
0.110671
0.126473
0.093091
0.053480
0.091798
0.084697
0.108151
0.167416
0.128402
0.084892
0.078175
0.037519
0.081639
0.047434
0.073562
0.149676
0.068071
0.075506
0.125169
0.055335
0.107295
0.100163
0.144871
0.087800
0.085696
0.211828
0.159975
0.226969
0.121448
0.174655
0.201190
0.159102
0.227347
0.263932
0.126443
0.230699
0.223609
0.223284
0.250920
0.205066
0.270660
0.168925
0.278430
0.253735
0.290796
0.208701
0.176903
0.223527
0.219787
0.195057
0.267018
0.111474
0.146496
0.117797
0.200427
0.149881
0.150961
0.075977
0.099984
0.083924
0.162735
0.114698
0.105265
0.046800
0.131051
0.035636
0.024915
-0.000887
0.064857
0.169132
0.092787
0.089338
0.099955
0.104267
0.068016
0.055688
0.141689
0.051365
0.085243
0.038154
0.151126
0.082767
0.355657
0.579946
0.952179
1.195843
1.386872
1.427683
1.307693
1.081156
0.503432
0.291100
-0.067369
-0.272463
-0.251236
-0.106835
-0.152006
-0.036533
-0.010676
0.038446
0.067236
0.040215
0.077216
0.058961
0.091658
-0.018646
0.077289
0.195820
0.110036
0.072649
0.052159
0.139818
0.103671
0.069738
0.101626
0.233366
0.107678
0.147871
0.166405
0.207556
0.230822
0.249589
0.227320
0.178286
0.208328
0.272416
0.365112
0.285158
0.395772
0.383890
0.392681
0.401853
0.485324
0.389169
0.441614
0.472689
0.441502
0.465932
0.469722
0.514941
0.502297
0.487108
0.485964
0.534847
0.495426
0.494249
0.468839
0.538829
0.513953
0.481279
0.517627
0.507540
0.468595
0.375838
0.425416
0.450081
0.332718
0.315723
0.239019
0.294400
0.258346
0.201619
0.245375
0.240492
0.243393
0.182064
0.119436
0.145983
0.113821
0.153498
0.053815
0.037967
0.018142
0.078187
0.087879
0.076125
0.068255
0.051009
0.000331
0.005879
0.041035
0.008013
0.049926
-0.027177
0.079913
0.013479
0.023904
-0.025722
-0.017537
0.067368
-0.002602
-0.037469
0.047913
0.032153
0.010718
0.000166
0.010539
-0.007158
0.021647
0.087683
0.013094
0.000897
-0.058676
0.074334
0.012559
0.022450
-0.008319
0.000462
-0.027489
-0.019349
0.008467
-0.045824
-0.099685
-0.097680
-0.028514
0.034516
0.065931
-0.034284
0.000870
-0.011091
0.031042
-0.125602
-0.004480
0.050308
-0.004875
-0.027594
-0.004028
-0.072553
-0.055120
0.003862
-0.034398
-0.074038
-0.002226
0.015306
-0.027779
-0.084937
-0.005875
-0.004663
-0.013900
-0.039749
-0.070158
0.042350
-0.051358
-0.027493
0.019472
0.030931
0.015425
-0.013615
0.104195
0.038589
0.055169
0.074040
0.027441
0.133256
0.092273
0.061589
0.056751
0.198066
0.118298
0.049577
0.058309
0.141047
0.105801
0.148540
0.140510
0.136242
0.097461
0.093645
0.186367
0.153471
0.120232
0.099547
0.130659
0.171335
0.015389
0.013069
0.088337
0.116709
0.058131
-0.021641
0.047580
0.053034
0.046598
0.017797
-0.063717
-0.015299
0.024670
-0.051990
-0.095837
-0.055446
-0.060993
-0.054020
-0.068454
-0.071300
-0.001468
-0.023307
-0.038575
-0.003399
-0.050268
-0.035088
-0.054808
-0.093555
-0.131929
-0.003515
-0.075965
0.124446
0.309754
0.577200
0.963340
1.220919
1.361470
1.328435
1.156944
0.747716
0.419610
0.191072
-0.134175
-0.250679
-0.285228
-0.285967
-0.167681
-0.101209
-0.072225
0.024615
0.019017
-0.027692
-0.032425
-0.035258
-0.006515
-0.078700
-0.076150
0.032808
-0.038090
0.003783
0.034468
0.022740
0.061697
0.031829
0.069431
0.078605
0.094725
0.024575
0.059933
0.049679
0.075119
0.099124
0.193065
0.203552
0.113152
0.240729
0.264909
0.253524
0.312794
0.204635
0.297666
0.307572
0.387669
0.342016
0.397990
0.369333
0.470383
0.324363
0.389713
0.445509
0.474886
0.426845
0.504534
0.496689
0.477411
0.512224
0.518248
0.496892
0.381909
0.408297
0.361433
0.410356
0.288305
0.298816
0.367924
0.219960
0.286325
0.204339
0.262330
0.268441
0.221261
0.136220
0.096633
0.200779
0.112646
0.133333
0.116404
0.078517
0.052729
0.098841
0.050566
0.013174
0.114833
0.007476
0.060004
0.061331
0.087242
-0.051319
-0.034677
-0.028587
-0.018423
-0.014971
-0.061589
-0.054571
0.042369
-0.102970
-0.043335
-0.041741
-0.002694
-0.010928
-0.015227
0.051227
0.000501
-0.004763
-0.054256
0.029563
-0.002374
-0.006914
-0.078718
-0.007498
0.057378
-0.053438
-0.037137
-0.048669
-0.024724
-0.018733
-0.000710
-0.054033
-0.010735
-0.082477
-0.035577
-0.021099
-0.040011
-0.023216
0.022495
0.047323
0.021440
0.083239
-0.055121
0.036930
0.010839
0.015006
-0.043719
-0.076020
0.001749
-0.095609
-0.016465
-0.044395
0.003174
-0.027775
-0.101341
-0.016472
0.044490
-0.059657
-0.098806
-0.003745
-0.082846
0.010846
0.045180
-0.019649
-0.008050
-0.039647
0.072413
0.002707
0.015371
0.133819
0.031036
-0.089189
-0.019343
0.007641
0.060112
0.080135
0.035417
0.001969
0.098441
0.078291
0.125223
0.127774
0.122770
0.216566
0.150290
0.186530
0.162771
0.185726
0.199485
0.213944
0.196536
0.195340
0.248735
0.143527
0.065256
0.136014
0.091851
0.133358
0.179840
0.088564
0.062079
0.117371
0.066023
-0.040356
0.016753
0.049412
0.054196
0.050371
0.029413
-0.009008
0.046298
0.017068
0.050243
0.037638
0.033416
0.055778
0.056412
0.029879
-0.061337
0.032516
-0.021887
-0.033074
-0.015915
-0.001903
-0.035705
0.004530
-0.028442
-0.084775
0.059475
0.155893
0.234099
0.671285
1.051848
1.283010
1.440391
1.275610
1.147764
0.864301
0.493457
0.170676
-0.024777
-0.224438
-0.265957
-0.230092
-0.156526
-0.072178
0.020068
0.053827
0.115998
0.070838
0.070454
0.048670
0.059060
0.070172
0.108941
0.105506
0.056239
0.108680
0.039630
0.149760
0.048223
0.141669
0.078837
0.188902
0.174455
0.208988
0.240673
0.103151
0.269666
0.248157
0.253974
0.284121
0.370106
0.338377
0.403360
0.391875
0.384494
0.339528
0.358232
0.472309
0.509663
0.469909
0.510752
0.525515
0.493189
0.551887
0.554807
0.550851
0.528110
0.501511
0.563297
0.607516
0.561091
0.613794
0.578467
0.520985
0.496649
0.522474
0.557315
0.486771
0.390954
0.531671
0.407972
0.445633
0.453708
0.374953
0.369650
0.263240
0.269114
0.273992
0.243973
0.232586
0.193441
0.279126
0.181972
0.197816
0.179973
0.172291
0.096723
0.252748
0.107292
0.143290
0.162311
0.062188
0.109830
0.097767
0.059657
0.173516
0.126992
0.071739
0.119211
0.030228
0.147370
0.107644
0.151161
0.083455
0.083178
0.055841
0.096179
0.115367
0.225783
0.101894
0.129992
0.084726
0.111338
0.017450
0.117810
0.132576
-0.024498
0.104952
0.000662
0.164551
0.032790
0.070870
0.153216
0.115552
0.152718
-0.019770
0.128041
0.121194
0.123596
0.103713
0.063063
0.081565
0.017479
0.106271
0.080998
0.107384
0.101516
0.086226
0.060516
0.110663
0.046639
0.057394
0.013529
0.057763
0.179483
0.086763
0.099302
0.085942
0.003421
0.123369
0.127855
0.014365
0.096789
0.093860
0.007654
0.047614
0.077953
0.083289
0.029858
0.084983
0.165127
0.096867
0.168796
0.110275
0.226841
0.159191
0.171373
0.208051
0.197645
0.144726
0.199015
0.184653
0.205583
0.198112
0.151742
0.288072
0.249687
0.251499
0.169536
0.267695
0.236634
0.265733
0.251929
0.278015
0.265073
0.223739
0.227396
0.172470
0.247861
0.230340
0.207181
0.192792
0.245639
0.203882
0.154857
0.203140
0.203195
0.070597
0.115129
0.132084
0.104329
0.157048
0.077421
0.084834
0.034683
0.122180
0.022142
0.108497
0.144615
0.159814
0.167543
0.080084
0.081153
0.082086
0.056738
0.116369
-0.007078
0.034809
0.118160
0.021901
0.073129
0.282842
0.462420
0.744297
1.080720
1.239735
1.500000
1.326068
1.141292
0.797010
0.493056
0.175284
-0.063177
-0.106545
-0.229320
-0.119199
-0.009141
0.057683
-0.070178
0.069617
0.075469
0.079133
0.096691
0.096865
0.168821
0.137811
0.077963
0.100482
0.140644
0.122234
0.084847
0.114947
0.115763
0.089951
0.170726
0.232134
0.157620
0.225631
0.206704
0.230058
0.267202
0.303215
0.288164
0.255724
0.345630
0.342481
0.407887
0.386045
0.432655
0.404517
0.468200
0.483796
0.383057
0.546940
0.505519
0.532033
0.533697
0.582253
0.561311
0.546556
0.569378
0.602977
0.522580
0.528737
0.604791
0.597019
0.493270
0.543784
0.549297
0.439378
0.436999
0.425082
0.476363
0.469981
0.454472
0.420603
0.359462
0.365488
0.279077
0.286345
0.246512
0.242169
0.268079
0.288414
0.194680
0.257623
0.198907
0.134181
0.161996
0.207234
0.164539
0.107215
0.128272
0.096401
0.106753
0.064872
0.116973
0.038794
0.127472
0.070296
0.033521
0.123979
0.068681
0.072543
0.012076
0.133654
0.049817
0.149265
0.037559
0.041645
0.091164
0.021194
0.094333
0.008267
0.010760
0.021247
0.003257
0.065871
0.020480
0.100886
0.034280
-0.034513
-0.008692
0.030511
0.046647
0.045361
0.027025
0.028983
0.048474
-0.033536
0.063936
0.035512
0.049462
0.062759
-0.021637
0.074359
-0.021437
0.038825
-0.082687
0.069243
-0.012432
0.028301
0.000026
-0.043818
-0.028902
-0.036206
0.036029
0.022211
-0.005154
-0.038583
0.062105
0.013283
0.002875
0.040336
0.010458
0.027002
0.133478
0.011247
-0.008073
0.042857
0.021658
0.039480
0.122921
0.010948
0.037838
0.020753
0.039548
0.020108
0.086306
0.040632
0.061092
0.049973
0.080488
0.010834
0.099518
0.141150
0.190037
0.124036
0.108467
0.122378
0.150359
0.174054
0.175375
0.156796
0.233618
0.180719
0.227116
0.160557
0.147476
0.092209
0.126316
0.092659
0.112200
0.140022
0.076595
0.101442
0.072565
0.023720
0.032355
0.074832
0.104117
0.060568
-0.019502
-0.009816
0.047796
0.044734
0.035744
-0.013237
-0.024004
-0.025156
0.014318
-0.040833
0.013919
0.053572
-0.017714
-0.054624
-0.056863
-0.040779
0.037616
-0.081458
-0.010723
-0.084121
-0.093897
-0.018946
-0.109306
0.099313
0.380081
0.690676
1.007690
1.219320
1.344364
1.298750
0.978030
0.713216
0.323350
0.090307
-0.224718
-0.315793
-0.302644
-0.236631
-0.058160
-0.105932
-0.077851
-0.035258
-0.007648
-0.082123
-0.068453
0.009855
0.020878
-0.019375
0.041712
0.007659
-0.037363
0.033253
-0.031588
0.042901
-0.005383
-0.044336
0.044983
0.007214
-0.007553
0.059007
0.043189
0.123678
0.128422
0.126928
0.109390
0.186388
0.188270
0.301842
0.237323
0.226393
0.249948
0.300930
0.270015
0.270889
0.337586
0.450708
0.392764
0.340100
0.401784
0.370049
0.414328
0.408291
0.425680
0.510239
0.407332
0.374660
0.526021
0.355284
0.478662
0.344854
0.386966
0.325380
0.336184
0.444122
0.298713
0.282343
0.274840
0.323964
0.207071
0.204100
0.148914
0.227620
0.099545
0.243369
0.096110
0.151022
0.157200
0.079319
0.066163
0.120156
0.118182
0.007220
-0.029862
-0.012493
0.026779
0.047184
-0.036691
-0.059820
-0.101914
-0.017381
-0.058092
-0.024809
-0.034330
0.025349
-0.081606
-0.023818
-0.050757
-0.060817
-0.079661
-0.120759
-0.124563
-0.060610
-0.067020
-0.103247
0.034046
-0.099520
-0.041591
-0.108450
-0.068064
-0.168242
-0.058773
-0.032713
-0.061420
-0.016456
-0.108760
-0.175725
-0.152757
-0.080727
-0.122975
-0.100058
0.000765
-0.040137
-0.081458
-0.041701
-0.127458
-0.032161
-0.094544
-0.048857
-0.125160
-0.082072
-0.021483
-0.125283
-0.108334
-0.080886
-0.092516
-0.062028
-0.107641
-0.091998
-0.052015
-0.059099
-0.107421
-0.114927
-0.055764
-0.130173
-0.036073
-0.111941
-0.114485
-0.086476
-0.031198
-0.067090
-0.043508
-0.074163
-0.082486
-0.098988
-0.088167
-0.023817
-0.025840
-0.085339
0.015640
-0.028585
-0.006102
-0.071666
-0.011523
-0.029871
0.015120
-0.003378
0.021431
-0.028347
-0.014571
0.079452
0.049448
0.108849
0.084086
0.112238
0.087891
0.087533
0.150721
0.022561
0.114567
0.087473
0.062295
0.082754
0.009235
0.121153
0.034811
0.095699
-0.021323
-0.024020
0.001988
-0.005568
0.023225
-0.052258
-0.014433
-0.018763
-0.001488
0.008126
-0.024546
-0.057982
0.015306
-0.087746
-0.074170
0.015378
-0.033828
-0.084307
-0.070622
-0.139216
-0.063478
-0.098157
-0.053120
-0.072461
-0.110125
-0.126661
-0.084349
-0.114253
-0.083796
-0.105461
-0.015640
0.111489
0.357134
0.742766
1.038904
1.252085
1.330842
1.253395
0.895146
0.620660
0.229303
-0.045603
-0.228648
-0.353051
-0.333154
-0.265977
-0.181777
-0.072935
-0.034989
0.014741
-0.040976
-0.045662
0.017176
-0.002209
0.048663
-0.064518
-0.019428
0.022507
-0.035877
0.075570
-0.001647
-0.015524
-0.041650
0.021650
0.085441
-0.014683
0.068703
0.122270
0.095164
0.052753
0.105546
0.145725
0.195403
0.174366
0.216592
0.237418
0.236356
0.260977
0.338734
0.239454
0.343747
0.335413
0.355751
0.424743
0.422272
0.382980
0.445854
0.443237
0.409179
0.428003
0.501552
0.499047
0.450905
0.482036
0.418017
0.389677
0.513279
0.454315
0.390999
0.475647
0.497882
0.362370
0.380972
0.376184
0.323495
0.300312
0.235838
0.266530
0.307248
0.228596
0.204970
0.173597
0.209557
0.088249
0.187465
0.111638
0.110503
0.095907
0.080497
0.118048
0.092239
0.066114
-0.003160
0.086279
0.019548
0.031299
0.021560
-0.022775
-0.012733
0.030877
-0.094221
0.007020
-0.006604
0.003996
0.011565
-0.018113
0.022518
0.011718
-0.002261
-0.041249
0.030936
-0.013730
0.011245
-0.063237
-0.043634
0.029135
-0.013807
-0.006830
0.010331
-0.020463
0.046606
0.020918
0.012719
0.057406
0.050515
-0.044219
0.018139
-0.043471
0.030279
0.024936
-0.039778
0.011263
0.021167
0.051007
0.060021
-0.062387
0.054892
0.086490
0.056572
-0.034980
0.067984
0.053077
-0.023752
0.014632
0.013586
0.046264
0.007805
0.024287
0.018685
-0.062157
-0.096033
0.010722
0.038117
-0.078335
0.068679
0.028047
0.011051
0.017293
0.028464
0.023599
0.038389
0.070887
0.023800
0.071216
-0.034508
0.016909
0.005773
0.068821
0.007872
0.092342
0.078293
0.064348
0.074151
0.083427
0.154683
0.066427
0.162268
0.225387
0.161172
0.090945
0.228932
0.215556
0.209793
0.200122
0.179654
0.258137
0.259386
0.251003
0.193292
0.130680
0.190683
0.088585
0.216955
0.133134
0.199795
0.132555
0.081408
0.167941
0.109084
0.116500
0.073851
0.127903
0.100399
0.084665
0.062861
0.047505
-0.032675
0.076140
0.084394
0.057802
0.053795
0.009524
0.073215
0.042401
0.065080
0.004653
0.028252
0.012067
0.027103
0.129454
0.034278
-0.008014
0.055931
-0.031539
0.110583
0.197910
0.478462
0.824609
1.180567
1.435691
1.419240
1.300625
1.093477
0.648761
0.272169
0.004153
-0.145954
-0.133033
-0.207520
-0.159735
-0.077494
0.043238
-0.007077
0.064432
0.080680
0.087728
-0.000575
0.119745
0.031184
0.092289
0.057325
0.008474
0.059097
0.162739
0.081268
0.074460
0.128784
0.121743
0.165404
0.175656
0.188856
0.235062
0.198828
0.268026
0.159577
0.263512
0.201804
0.217463
0.263004
0.276748
0.269455
0.395096
0.309869
0.376711
0.386737
0.435597
0.418070
0.543801
0.492582
0.513311
0.478145
0.515168
0.541417
0.490635
0.592609
0.558244
0.504281
0.566681
0.547946
0.595198
0.574550
0.511560
0.477766
0.456879
0.533387
0.453796
0.506353
0.419989
0.421621
0.377543
0.441305
0.286737
0.340450
0.332408
0.219363
0.209299
0.193409
0.219456
0.198951
0.240659
0.207379
0.134775
0.098619
0.127897
0.174656
0.096529
0.155750
0.132291
0.074804
0.111514
0.044211
0.004327
0.079496
-0.027833
0.110043
0.051365
0.053649
0.078926
0.029538
0.066210
0.057457
0.070752
-0.037347
0.087325
0.084837
-0.018728
0.006544
0.038742
0.011585
0.019797
0.034195
0.028539
0.038142
-0.018471
0.052971
0.180436
0.020859
-0.036204
0.042263
0.012704
-0.009045
0.063115
-0.005793
0.045252
0.053385
0.072120
0.024735
0.054203
-0.051758
0.041862
0.039731
-0.023794
-0.007402
0.008101
0.017123
0.037498
0.001665
0.054460
0.004795
0.061831
-0.025817
0.024389
0.048198
-0.078835
-0.023702
0.006043
-0.055761
-0.058556
0.024914
-0.025403
0.008705
-0.034720
0.030599
-0.010666
0.065371
0.050776
0.017795
0.024867
0.045263
0.013588
0.036052
-0.033823
0.038969
0.033257
-0.027394
0.077603
0.085729
0.088523
0.092277
0.174995
0.073609
0.157426
0.130205
0.229725
0.133930
0.194113
0.145721
0.125411
0.169818
0.086779
0.147577
0.212104
0.186936
0.116744
0.127207
0.172499
0.156355
0.085391
0.112445
0.019203
0.141069
0.042720
0.082731
0.090939
0.062062
-0.017708
-0.014271
0.030843
-0.014255
-0.050658
0.102817
-0.002056
0.016688
0.020432
0.052214
-0.051704
-0.024557
-0.000774
-0.014552
-0.060390
-0.070260
-0.021502
0.073535
-0.052840
0.030405
-0.037537
0.016439
0.046048
0.020608
0.280541
0.441877
0.779781
1.163707
1.341347
1.317140
1.161943
0.970549
0.551683
0.209528
-0.070714
-0.228091
-0.343750
-0.306358
-0.178666
-0.096288
-0.047834
-0.016049
0.048503
-0.026143
-0.039839
-0.047049
-0.074130
-0.076731
0.020694
-0.033046
-0.025205
0.046299
0.046723
0.004990
0.072223
0.069465
0.056051
0.090916
0.157460
0.080450
0.132233
-0.011305
0.110253
0.188679
0.229585
0.186836
0.277002
0.141775
0.221770
0.258374
0.278595
0.287235
0.303661
0.348341
0.391874
0.388303
0.455278
0.427859
0.460596
0.446796
0.406940
0.429295
0.389334
0.432351
0.373606
0.482641
0.466015
0.404714
0.482569
0.442957
0.409672
0.414931
0.322545
0.345799
0.331974
0.349158
0.324955
0.265618
0.279594
0.242525
0.323646
0.233177
0.180687
0.237853
0.181300
0.081724
0.085819
0.131570
0.098974
0.060915
0.055123
0.097485
0.043237
0.030554
0.025682
0.008882
-0.036111
-0.008682
-0.043886
-0.031171
-0.043630
-0.056481
0.002649
-0.005451
-0.087780
-0.070101
-0.049068
-0.090040
-0.064230
-0.049754
0.045370
-0.062371
-0.052591
-0.085160
-0.038272
-0.085621
0.039420
-0.073057
-0.085446
-0.080557
-0.088884
-0.114026
-0.028538
-0.086034
-0.090462
-0.073876
-0.123766
-0.077433
-0.169317
-0.101124
-0.122011
-0.077497
-0.026942
-0.031465
-0.171141
-0.056328
-0.125970
-0.091493
-0.073889
-0.072357
-0.149274
-0.052123
-0.063464
-0.076286
-0.108173
-0.072478
-0.189558
-0.050550
-0.078127
-0.057845
-0.087726
-0.095528
-0.061434
-0.055525
-0.098981
-0.006653
-0.127275
-0.007511
-0.008578
-0.094361
-0.082375
-0.124871
-0.148973
-0.077963
-0.040440
-0.145865
-0.037127
-0.212352
-0.045905
-0.040887
-0.065917
-0.047096
-0.057396
-0.052653
-0.015992
-0.020454
-0.044565
-0.022285
-0.070771
-0.009461
0.022148
-0.004205
0.023201
0.106089
0.002331
0.051796
0.088981
0.070180
0.058784
0.089819
0.021347
0.074285
0.049280
0.135446
0.101114
0.027250
0.015058
0.039537
-0.034248
-0.008461
0.008693
0.001317
-0.041817
-0.081624
-0.058635
0.027072
-0.114029
-0.141637
-0.150915
-0.113497
-0.080470
-0.108844
-0.060695
-0.003339
-0.037279
-0.072462
-0.081013
-0.093576
-0.049042
-0.050553
-0.071919
-0.196174
-0.087297
-0.162957
-0.160049
-0.184058
-0.164151
0.033010
0.197421
0.384638
0.745740
1.116554
1.137742
1.281958
1.079994
0.793267
0.420276
0.112278
-0.154763
-0.263001
-0.339565
-0.392153
-0.271068
-0.182696
-0.130837
-0.077285
-0.095172
-0.021145
-0.156650
-0.135604
-0.045135
-0.038458
-0.050123
-0.036117
-0.067302
-0.041102
-0.111051
0.033145
-0.016534
-0.037808
0.022925
0.008844
0.028404
-0.053382
0.036794
0.071844
0.121837
0.015898
0.107164
0.091010
0.208341
0.147950
0.123248
0.247924
0.233846
0.231693
0.301889
0.300037
0.381703
0.329236
0.354436
0.402510
0.301536
0.367730
0.385812
0.387810
0.441689
0.470163
0.413390
0.385818
0.355390
0.441031
0.396318
0.410887
0.338075
0.388906
0.341006
0.293012
0.377526
0.329926
0.235860
0.357117
0.285387
0.310840
0.232976
0.174580
0.089953
0.101435
0.101262
0.080812
0.112790
0.108639
0.077918
0.007711
0.040435
-0.025207
0.036003
-0.018593
-0.020693
-0.024336
0.018326
-0.084206
-0.063610
-0.036008
0.002662
0.053420
-0.047980
0.039006
-0.027675
0.025655
-0.056107
-0.010709
-0.019625
-0.022390
-0.148430
-0.103305
-0.058376
-0.048072
-0.057890
-0.076922
-0.055287
-0.070377
0.013743
-0.020533
-0.063223
-0.033879
-0.038854
-0.032294
0.021502
-0.021609
-0.018687
0.071453
-0.061526
0.007483
-0.130918
-0.019727
-0.015130
-0.045111
-0.063869
0.006027
-0.032967
-0.030341
-0.067464
0.003880
0.015562
-0.104268
-0.039133
0.001056
-0.030813
0.032919
-0.024069
-0.072865
-0.013244
-0.047344
-0.055156
-0.131410
-0.037501
-0.050994
-0.062237
-0.018517
-0.058204
-0.092256
-0.068006
0.008347
0.004540
-0.019214
-0.046311
-0.028126
0.020549
-0.034063
-0.052208
0.033916
-0.000522
-0.034669
0.038344
-0.006426
-0.076758
0.053296
-0.036444
0.010293
0.097005
0.125837
0.125836
0.047711
0.089985
0.155756
0.178118
0.094725
0.115620
0.155863
0.123459
0.241303
0.208277
0.171818
0.173401
0.112980
0.187474
0.092045
0.160452
0.124321
0.106825
0.098525
0.123489
0.061140
0.074640
0.120366
0.067583
0.090306
0.076639
0.009054
0.077782
0.079978
0.042944
-0.044334
0.061469
0.066684
-0.037907
-0.012101
0.068537
-0.043684
-0.030343
-0.078845
0.018203
0.012367
-0.030113
0.061862
0.087471
-0.026876
-0.026868
-0.073428
0.005481
0.070079
0.407844
0.614909
0.860877
1.233974
1.389573
1.432381
1.161227
0.856469
0.503648
0.255402
-0.038450
-0.243446
-0.297498
-0.217237
-0.123124
-0.142660
-0.045390
0.012116
-0.020479
0.043984
0.136057
0.039874
0.075536
0.032617
0.054460
0.040420
0.073218
0.097982
0.175405
0.056822
0.038043
0.183785
0.092271
0.071931
0.182242
0.099112
0.196326
0.266353
0.197951
0.215905
0.264563
0.238162
0.312980
0.288789
0.257236
0.353709
0.363221
0.364634
0.390395
0.388634
0.421209
0.380539
0.346898
0.402587
0.408149
0.538883
0.531491
0.553310
0.622103
0.542519
0.534824
0.494301
0.461287
0.534663
0.575291
0.549560
0.465484
0.443428
0.518761
0.492080
0.457742
0.471640
0.409288
0.381711
0.500272
0.396505
0.358369
0.318386
0.260348
0.352372
0.280653
0.250650
0.226228
0.254178
0.214325
0.139861
0.139703
0.201850
0.171854
0.121216
0.070192
0.041044
0.096163
0.097449
0.060333
0.110619
0.195298
0.044105
0.084561
0.059003
0.023400
0.120418
0.042831
0.098357
0.020342
0.045044
0.079237
0.071361
0.112884
0.026349
-0.013561
0.059581
0.113764
0.098290
0.111103
0.117605
0.076591
0.039826
0.139922
0.072931
0.043100
0.069708
0.047387
0.067949
0.071954
0.031745
0.120463
0.082176
0.068536
0.108256
0.132529
0.096200
0.101431
0.088743
0.049717
0.147645
-0.087844
0.011238
0.135612
-0.014096
0.057332
0.084915
0.098599
0.089763
-0.002304
0.056738
0.047897
0.081676
0.057193
-0.015978
0.097313
0.100294
0.105676
0.058964
0.082616
0.157673
0.112260
0.021407
0.108044
0.095939
-0.010741
0.095406
0.128758
0.049006
0.042735
0.040674
0.119678
0.193051
0.101354
0.096208
0.107550
0.069787
0.163233
0.233313
0.152336
0.133681
