-0.045064
-0.065559
-0.059943
-0.036718
0.003921
-0.009657
-0.004988
0.034576
-0.046086
0.028830
-0.060571
0.075955
-0.022185
-0.016523
-0.032405
0.072781
0.025799
0.062176
-0.011499
-0.061690
0.065922
-0.038539
0.086490
0.080436
0.081560
0.044031
0.062617
0.098805
0.110054
0.041440
0.116615
0.027020
0.095564
0.107092
0.131607
0.047599
0.226909
0.124427
0.208241
0.170294
0.260445
0.192092
0.220651
0.217751
0.207873
0.257977
0.195158
0.200653
0.089514
0.175636
0.107987
0.116916
0.085282
0.151568
0.113251
0.125989
0.115058
0.084876
0.144923
0.022183
0.052723
0.076402
-0.017699
0.051901
0.069581
-0.007469
0.105802
0.075587
0.073624
0.037166
-0.013031
0.045544
0.079984
0.055927
0.073333
0.054122
0.002456
-0.001157
0.043006
0.195296
0.347701
0.611162
0.843197
1.183745
1.448234
1.457043
1.237634
0.984831
0.584964
0.271555
-0.032593
-0.196411
-0.293455
-0.077164
-0.147516
-0.026258
-0.002998
0.053450
0.049203
0.036226
0.052216
0.068151
0.091189
0.129282
0.102157
0.143377
0.100215
0.141905
0.218505
0.168937
0.156869
0.267545
0.201725
0.180067
0.205875
0.201953
0.250249
0.252681
0.239519
0.320481
0.330222
0.334162
0.485234
0.401537
0.431815
0.522313
0.527134
0.465479
0.553580
0.570368
0.535387
0.498260
0.526922
0.555323
0.519269
0.602582
0.709334
0.617674
0.630176
0.585070
0.634990
0.532336
0.513544
0.557691
0.630916
0.572425
0.540249
0.509256
0.509680
0.459575
0.447519
0.466681
0.431389
0.374654
0.329671
0.341476
0.301520
0.123813
0.285710
0.224096
0.223091
0.285356
0.186747
0.131717
0.238372
0.150280
0.183331
0.187308
0.109078
0.109742
0.136160
0.152024
0.152213
0.114461
0.121948
0.163814
0.103986
0.043454
0.100991
0.046734
0.157873
0.120886
0.081905
0.087083
0.175151
0.059592
0.115930
0.137158
0.097251
0.082427
0.147678
0.057694
0.144386
0.064605
0.062149
0.054017
0.143860
0.068996
0.121983
0.079597
-0.000781
0.102049
0.026873
0.125389
0.045305
0.115207
0.046695
0.059622
0.086560
0.028803
0.024847
0.103322
0.102175
0.057255
0.126257
0.153882
0.114597
0.005355
0.171769
0.158470
0.086139
0.081112
0.089606
0.004401
0.139079
0.115146
0.017765
0.012627
0.061855
0.026180
-0.032723
0.095555
0.069441
-0.030767
0.121966
0.150179
0.170555
0.236217
0.115443
0.198501
0.184047
0.191044
0.197711
0.107799
0.245242
0.268453
0.266624
0.223563
0.290858
0.215060
0.235636
0.281826
0.260934
0.285410
0.270186
0.252724
0.268684
0.252079
0.239461
0.228142
0.217933
0.193551
0.202407
0.230558
0.115611
0.205079
0.167042
0.109915
0.149027
0.104666
0.088629
0.008925
0.120121
0.035638
0.182553
0.120091
0.055993
0.192333
0.010222
0.085240
0.103648
0.079764
0.034002
-0.001925
0.038118
0.091076
0.037101
0.021370
0.045203
-0.007547
0.082602
0.288583
0.490577
0.819603
1.136682
1.366727
1.500000
1.359497
1.111828
0.656454
0.352038
0.069657
-0.138485
-0.175738
-0.161911
-0.188003
-0.047035
0.019573
0.087473
0.076399
0.036322
0.131465
0.053489
0.093999
0.060282
0.129937
0.161133
0.121019
0.084005
0.116051
0.173080
0.102524
0.157432
0.179297
0.228697
0.203355
0.260579
0.230509
0.298167
0.363006
0.379260
0.299822
0.363153
0.327020
0.414999
0.385280
0.341970
0.345670
0.469684
0.490886
0.479161
0.514127
0.548141
0.486005
0.515143
0.560792
0.650104
0.492021
0.604358
0.554033
0.538669
0.620583
0.542498
0.463898
0.485744
0.370281
0.497846
0.397319
0.457277
0.463124
0.423082
0.352264
0.366515
0.310216
0.314296
0.362368
0.239484
0.248340
0.271839
0.281361
0.267649
0.174036
0.279210
0.195532
0.118187
0.137499
0.045072
0.115414
0.133753
0.027525
0.085675
0.074047
0.069216
0.080384
0.117329
0.008955
0.023764
-0.015955
0.002063
0.017721
0.003783
0.057267
-0.071922
0.005198
-0.005484
0.020479
-0.006976
-0.021140
-0.059141
0.025152
0.021742
0.015568
-0.020331
0.061088
0.002692
0.021481
0.027693
0.014318
-0.022358
0.038380
-0.029675
-0.001105
-0.016388
-0.011560
0.041720
-0.056373
0.067324
0.073522
-0.004485
-0.032664
0.009587
-0.043085
-0.082675
-0.014722
0.085324
0.030816
0.024003
-0.050761
0.026171
0.009645
0.029541
-0.002051
-0.082142
0.042901
0.043595
-0.007534
-0.018744
-0.071832
0.031664
0.076043
-0.017686
-0.050780
-0.020995
0.097388
0.051097
-0.014693
0.012089
0.144055
0.100413
0.043531
0.104846
0.041976
0.019840
0.079287
0.062599
0.059162
0.143580
0.143161
0.043992
0.124083
0.120017
0.143589
0.141137
0.188116
0.104689
0.182432
0.165146
0.111460
0.096126
0.145780
0.077599
0.163369
0.128646
0.008897
0.115842
0.067284
0.023275
0.089485
0.092141
-0.009931
-0.007377
0.077191
-0.024728
-0.069972
0.015694
0.017407
0.000120
-0.039399
-0.038831
-0.068073
-0.084986
0.051662
-0.091849
-0.026223
-0.016060
-0.118565
-0.072987
-0.009739
-0.039049
-0.044601
-0.049597
-0.007786
-0.006797
0.365166
0.685871
1.030132
1.170770
1.464529
1.220959
1.047785
0.790786
0.306841
0.058725
-0.204294
-0.305465
-0.225508
-0.244210
-0.169830
-0.041581
0.025249
-0.032398
-0.037545
-0.054196
-0.088604
0.094268
-0.009177
-0.053284
0.060085
-0.004754
0.085305
0.028621
0.030134
0.067967
-0.033257
0.042261
0.096116
0.052648
0.114260
0.173651
0.135014
0.178374
0.140489
0.255153
0.206510
0.271489
0.317750
0.345122
0.328712
0.299378
0.338090
0.365831
0.416973
0.444433
0.412775
0.397290
0.390221
0.471473
0.417100
0.416470
0.476881
0.442687
0.410005
0.407539
0.383530
0.470205
0.458827
0.473848
0.468351
0.407112
0.361122
0.395398
0.309269
0.291640
0.294175
0.334921
0.282295
0.284240
0.194168
0.212293
0.089905
0.191283
0.178749
0.136753
0.124740
0.033372
0.086920
0.091874
0.138982
0.053192
0.081434
0.024841
-0.005475
-0.067421
-0.008482
-0.028941
-0.017432
-0.007553
0.033642
-0.019421
-0.041078
-0.011219
-0.060504
-0.041482
-0.088581
-0.003348
-0.054584
-0.034858
0.007817
-0.030593
-0.126024
-0.045446
0.033407
-0.024160
-0.010735
-0.096208
-0.039158
-0.050580
-0.074324
-0.058681
-0.053016
-0.088748
-0.041171
-0.011112
-0.116474
-0.143120
0.002715
-0.028776
-0.035771
-0.028614
-0.050408
0.008379
-0.063626
0.000251
0.005520
-0.111263
-0.059715
-0.066434
-0.005390
-0.075149
0.004573
-0.040433
-0.069255
-0.003085
0.027519
-0.073817
-0.065744
-0.029847
-0.052652
0.013884
-0.070218
0.032939
-0.048878
0.030048
0.074288
0.013378
0.021031
0.024642
-0.051676
-0.013841
0.038490
0.030458
0.020884
0.054518
0.028942
0.094256
0.048065
0.132715
0.140829
0.045547
0.094047
0.062252
0.153723
0.185158
0.098048
0.164165
0.210192
0.168277
0.179130
0.109324
0.144988
0.176857
0.140004
0.186970
0.071441
0.129753
0.107459
0.031701
0.045570
0.077503
0.057653
0.044470
0.004384
0.163881
0.081531
0.011732
0.122882
0.084828
0.042539
-0.018349
-0.005765
0.035854
0.001216
-0.014616
0.011889
-0.004421
0.042063
-0.023993
0.012123
-0.036151
0.019541
-0.062233
0.042567
0.002066
0.127633
0.317970
0.614393
0.926422
1.223425
1.339447
1.362149
1.107745
0.797610
0.476560
0.168234
-0.013998
-0.275073
-0.218686
-0.150225
-0.191042
-0.091459
-0.018163
-0.028571
0.029740
0.002595
0.049561
0.101474
0.046825
0.021529
0.024475
0.010366
0.130891
0.119631
0.080947
0.096563
0.103187
0.128492
0.124647
0.108257
0.129948
0.165641
0.178512
0.310649
0.142023
0.196118
0.342210
0.325675
0.347588
0.367679
0.386172
0.496461
0.354700
0.459797
0.442865
0.489097
0.415311
0.485220
0.436026
0.499095
0.550752
0.531876
0.572453
0.500950
0.523503
0.526714
0.412349
0.529055
0.544285
0.525598
0.556418
0.543381
0.446094
0.485509
0.463633
0.376222
0.398429
0.336774
0.362779
0.370876
0.334203
0.311153
0.244058
0.247740
0.307147
0.162446
0.182743
0.179978
0.193691
0.165174
0.116742
0.132784
0.189924
0.160220
0.167606
0.127171
0.079601
0.028727
0.070359
0.076868
0.116053
0.032390
0.102852
0.180680
0.054831
0.077635
0.036390
0.031496
0.005379
0.009961
0.139885
0.058690
0.060688
0.062708
0.068967
0.098404
0.001441
0.009482
0.120775
0.104137
0.046060
0.004857
0.030483
0.033032
0.128041
0.023351
0.131894
0.017771
0.059843
0.064586
-0.000140
0.158397
0.140063
0.082778
0.074519
0.019230
0.103161
0.096885
0.059999
0.082779
0.199434
0.125874
0.083090
0.115513
0.079017
0.044746
0.090945
0.170922
0.037193
0.117064
0.068139
0.129204
0.053889
0.058198
0.110965
0.091654
0.115326
0.062533
0.113767
0.103569
0.139165
0.086092
0.110834
0.160456
0.126531
0.151087
0.118866
0.219670
0.171704
0.218029
0.166964
0.214679
0.226053
0.206747
0.291031
0.246436
0.278265
0.252918
0.244857
0.272168
0.290831
0.304529
0.278463
0.276734
0.200769
0.212106
0.200360
0.159344
0.213741
0.225769
0.219057
0.211760
0.162167
0.169736
0.161501
0.189959
0.096225
0.138968
0.041118
0.023561
0.048215
0.065993
0.141045
0.080855
0.122425
0.041642
0.028067
0.030228
0.135022
0.102047
0.071223
0.016520
0.061032
0.127986
-0.001133
0.098013
0.192494
0.343936
0.580203
1.011413
1.258467
1.462901
1.475484
1.382400
1.095206
0.680293
0.227782
0.046094
-0.122864
-0.150868
-0.142339
-0.017282
-0.016993
0.095827
0.033913
0.239517
0.015882
0.124850
0.194092
0.091078
0.092360
0.152142
0.171986
0.118297
0.145562
0.094819
0.179725
0.206762
0.194089
0.172565
0.230942
0.290173
0.266011
0.293401
0.287777
0.341068
0.336825
0.373682
0.384932
0.350577
0.382930
0.433510
0.484764
0.605248
0.491766
0.551471
0.500714
0.521910
0.516550
0.626390
0.525188
0.626333
0.624153
0.627101
0.562776
0.622123
0.601356
0.603766
0.601650
0.616592
0.564195
0.534637
0.523151
0.575855
0.456112
0.528560
0.439789
0.458795
0.412811
0.391755
0.381332
0.322141
0.317781
0.333152
0.312915
0.366461
0.232297
0.261500
0.269363
0.173450
0.090419
0.188056
0.106237
0.212146
0.143997
0.119227
0.111669
0.153744
0.140447
0.138128
0.135757
0.166809
0.032128
0.090341
0.120308
0.083661
0.033906
0.013160
0.089820
0.010375
0.094158
0.052061
0.059352
0.028723
0.165604
0.120263
0.048333
0.107077
0.050961
0.110999
0.124869
0.091462
0.059786
-0.035767
0.032428
0.139120
0.072883
0.041704
0.048133
0.057167
0.045339
0.045448
0.083225
0.051893
0.044562
0.085282
0.033796
0.130383
0.069032
0.133082
0.039970
0.084624
0.090288
0.098023
0.077138
0.010212
0.025805
0.102304
0.066921
0.123503
0.178401
0.068498
0.119862
0.022550
0.070053
0.078834
0.024225
0.075572
0.034282
0.143177
0.070135
0.154921
0.026640
0.097319
0.032254
0.069518
0.083594
0.143400
0.130999
0.155130
0.167875
0.243741
0.143340
0.215960
0.177706
0.192192
0.179765
0.218270
0.223348
0.269928
0.262548
0.139161
0.242905
0.154632
0.189104
0.195253
0.184666
0.156541
0.192775
0.150334
0.141069
0.189760
0.089913
0.125806
0.040389
0.065832
0.119966
0.028913
0.048645
0.039695
0.009773
0.051694
0.028513
-0.020822
0.090542
0.077616
-0.034279
0.040576
0.071326
0.034307
-0.040418
0.013398
0.008535
-0.019934
-0.011117
-0.030838
0.002284
0.148632
0.192525
0.410489
0.778019
1.116554
1.313157
1.463216
1.319389
1.021908
0.633174
0.260296
0.098276
-0.126860
-0.248894
-0.270012
-0.217012
-0.094423
-0.034281
-0.010156
-0.051628
0.006684
0.042138
-0.023174
0.011194
0.053738
0.109047
0.096831
0.088370
0.039237
0.054600
0.085106
0.185524
0.131551
0.069362
0.094573
0.113778
0.180257
0.118905
0.107177
0.223031
0.275468
0.306198
0.267784
0.312934
0.275107
0.340141
0.367308
0.359052
0.327042
0.328147
0.396336
0.375874
0.401678
0.373852
0.446723
0.474107
0.469153
0.447425
0.529997
0.512768
0.514207
0.566612
0.497053
0.462401
0.381080
0.471844
0.482406
0.431694
0.347618
0.273732
0.381064
0.327576
0.308843
0.255623
0.222051
0.247358
0.251378
0.251885
0.201608
0.035888
0.138723
0.180225
0.092856
0.114294
0.078583
-0.016783
0.046375
0.058059
0.010671
0.021477
-0.010844
0.072356
-0.057216
-0.012011
0.020901
0.011031
-0.058402
-0.042098
-0.081811
-0.091510
-0.089721
-0.093885
-0.020999
-0.046824
0.036247
-0.038434
-0.022191
-0.058062
-0.038020
-0.143634
-0.069808
-0.062443
-0.084294
-0.043755
-0.031659
-0.051769
-0.063325
-0.050834
-0.019720
-0.066123
-0.023965
-0.043824
-0.046970
-0.054350
0.000093
-0.034120
-0.100324
-0.116791
-0.072434
-0.038228
-0.093469
-0.026717
-0.046727
-0.089811
-0.118116
-0.011248
-0.056319
-0.121375
-0.095374
-0.072013
0.031039
0.011596
-0.119171
-0.047832
-0.107905
-0.007730
-0.040620
-0.126114
-0.099509
-0.068502
-0.086034
-0.042873
-0.127935
-0.019780
-0.103929
-0.129785
-0.044130
0.023729
-0.026947
0.017304
-0.056416
-0.004643
0.006437
-0.014028
0.031670
0.032798
0.068532
-0.003595
0.062235
-0.012376
0.068028
0.072752
0.057032
0.102670
0.068273
0.060726
0.047666
0.043072
0.129862
0.027795
0.075784
0.103499
0.066143
-0.024573
-0.007627
-0.025551
-0.004290
0.023740
-0.032377
-0.061748
-0.009836
-0.051572
-0.005620
-0.022575
-0.041198
-0.048319
-0.101911
-0.078496
-0.035674
0.000630
-0.078492
0.003306
-0.123738
-0.122259
-0.029536
-0.062072
-0.079111
-0.100773
-0.068341
-0.169452
-0.031781
-0.066941
0.095324
0.247308
0.549512
0.919405
1.189541
1.233143
1.333797
1.090848
0.724323
0.330473
-0.031432
-0.143100
-0.301741
-0.296713
-0.287574
-0.163220
-0.152048
-0.091972
-0.041156
-0.098904
-0.077820
-0.047964
0.041413
-0.055497
-0.010982
-0.041375
-0.044627
-0.066699
-0.011429
0.007449
0.041275
0.071809
0.039605
0.078267
0.104274
0.040612
0.115907
0.030566
0.103886
0.240376
0.171159
0.252267
0.268511
0.256079
0.264199
0.329557
0.357029
0.354687
0.293309
0.402926
0.379239
0.467338
0.416668
0.464836
0.445719
0.440527
0.495891
0.496782
0.422895
0.491549
0.477069
0.476838
0.422848
0.348042
0.404005
0.417533
0.403147
0.354257
0.317006
0.420993
0.360731
0.254912
0.241494
0.155836
0.209546
0.225198
0.196411
0.145267
0.226021
0.169149
0.172151
0.075580
0.141138
0.117867
-0.042371
-0.074350
0.025553
0.035604
-0.043559
0.012892
0.012761
-0.076176
-0.034632
-0.022918
-0.030244
-0.001942
-0.042849
-0.063687
0.046644
-0.035196
-0.040230
-0.029221
0.023913
-0.090853
-0.080279
-0.008173
0.014682
-0.055743
-0.104251
-0.000938
-0.092235
-0.010389
-0.057203
-0.016037
-0.046948
0.028713
-0.045724
0.031035
-0.025764
-0.026730
0.020112
-0.087217
-0.082948
-0.082538
-0.024743
-0.005728
-0.014794
-0.004722
-0.017729
-0.048299
0.016951
-0.073770
-0.006655
-0.107049
-0.106256
-0.050969
0.032291
-0.006876
0.043688
-0.091722
-0.004934
-0.002795
-0.003264
0.006125
-0.027145
-0.047895
-0.014963
-0.038397
0.008015
-0.002244
-0.014863
0.018538
-0.066118
-0.026106
0.023272
-0.022231
0.061833
-0.006707
0.040320
0.057631
-0.002679
0.001863
0.101259
0.075856
0.059796
0.018886
0.076502
0.130812
0.174262
0.219178
0.135080
0.144611
0.216946
0.099991
0.118631
0.181554
0.215080
0.130720
0.082128
0.111097
0.097114
0.159482
0.100405
0.105795
0.071429
0.045955
0.101035
0.089095
0.030864
0.088604
-0.010222
0.001240
0.027368
0.018034
-0.080659
-0.053447
-0.036352
0.036272
0.063971
-0.088660
0.006394
-0.042980
-0.030722
0.033243
-0.052716
0.096163
-0.005438
-0.006136
-0.012228
-0.053865
0.010902
0.059754
0.300746
0.590117
0.933337
1.227053
1.329577
1.409478
1.192879
0.842168
0.529233
0.173475
-0.072146
-0.168521
-0.249184
-0.208233
-0.178212
-0.021825
0.047003
-0.010685
0.045735
0.023117
0.040054
-0.010081
-0.054973
0.063034
0.016218
0.068566
0.103209
0.113964
0.104583
0.134738
0.123150
0.162483
0.113064
0.171529
0.241857
0.153682
0.127371
0.188925
0.239959
0.285242
0.330474
0.356799
0.354760
0.288171
0.408989
0.434350
0.349715
0.393858
0.422567
0.514124
0.548682
0.463670
0.457424
0.476514
0.597130
0.501473
0.631439
0.565661
0.481589
0.506696
0.531065
0.536349
0.502261
0.525340
0.584312
0.406927
0.435944
0.418201
0.440159
0.372041
0.439742
0.391771
0.300156
0.346409
0.285156
0.277342
0.261509
0.259566
0.281662
0.200536
0.173414
0.189158
0.127378
0.115079
0.196640
0.102016
0.208844
0.038763
0.092740
0.093898
0.147952
0.119677
0.032894
0.065376
0.062731
0.033929
0.045509
0.016629
0.062451
0.039606
0.000645
0.077214
0.088773
0.120468
0.086090
0.092619
0.060806
0.110100
0.101959
-0.013230
0.048181
0.078861
0.059384
0.029205
0.011343
0.093745
0.062560
0.088362
0.082905
0.048891
0.036171
0.086464
0.075196
0.045249
0.028324
-0.012861
-0.037511
0.036885
-0.002710
0.023916
0.083310
-0.008597
0.036303
0.003836
0.033224
-0.041590
0.024335
-0.025870
0.010646
0.036055
0.063434
0.042554
0.074000
0.007116
0.071379
0.052778
0.022932
0.087933
0.039595
0.006407
0.063493
0.122102
0.073510
0.029936
0.060763
0.059916
0.137270
0.040512
0.041397
0.068994
0.053947
0.101659
0.156594
0.223656
0.184946
0.211356
0.152331
0.151788
0.185492
0.242532
0.173904
0.192565
0.263670
0.261824
0.192428
0.267922
0.194443
0.262459
0.174808
0.186001
0.223100
0.095475
0.227574
0.212715
0.156667
0.167582
0.088505
0.195073
0.078302
0.036437
0.048150
0.127911
0.164448
0.076864
0.008419
0.109327
-0.007483
0.056332
0.070737
0.054764
0.069741
0.090133
0.085774
0.076948
-0.080435
0.011853
0.007264
0.029342
0.017349
-0.031509
0.100810
0.192046
0.540902
0.965233
1.113603
1.316011
1.404623
1.345885
1.083623
0.618614
0.292712
-0.036437
-0.129904
-0.266914
-0.250178
-0.201346
-0.128678
-0.018377
0.004163
0.016838
0.050924
0.061492
0.018403
-0.012372
0.085857
0.125135
0.123392
0.054910
0.041494
0.154274
0.147766
0.193420
0.131163
0.179751
0.135706
0.175460
0.185198
0.213409
0.268229
0.202156
0.276062
0.316826
0.224475
0.305137
0.310052
0.406924
0.397589
0.382914
0.381962
0.377484
0.392467
0.441080
0.521586
0.500420
0.559470
0.507112
0.450690
0.560120
0.546060
0.512451
0.474002
0.477389
0.468194
0.468915
0.505585
0.510122
0.433652
0.509279
0.393511
0.445830
0.342702
0.371429
0.330504
0.384709
0.317481
0.287090
0.195860
0.194019
0.123209
0.195805
0.126110
0.188104
0.146833
0.084856
0.184268
0.143287
0.083236
0.014216
0.006347
0.024238
0.118345
0.065734
0.045164
0.059651
0.061539
-0.029086
0.018133
-0.004237
0.057800
-0.029862
0.051735
0.007162
-0.008921
-0.026134
0.007201
-0.114972
-0.116388
-0.039034
0.070944
0.012685
-0.005743
-0.060402
0.021407
-0.025937
-0.125679
-0.054768
-0.032138
-0.090718
0.021735
-0.025267
-0.064835
-0.040896
0.077666
-0.071675
-0.013443
-0.063589
-0.019817
-0.064020
-0.124078
-0.067939
-0.013533
-0.056284
0.016252
-0.052604
-0.064140
-0.055731
-0.060448
-0.080206
-0.031550
-0.107339
-0.079577
-0.041144
0.007176
-0.052610
-0.026989
0.017904
-0.016091
0.002836
-0.067884
-0.050278
-0.021754
-0.038946
-0.099834
-0.067157
-0.012177
-0.063035
-0.105394
0.041899
0.009176
-0.042016
0.063273
0.006578
0.055692
0.057135
0.035001
0.127733
-0.034701
0.111348
0.080142
0.084291
0.040669
0.129074
0.083844
0.131694
0.135974
0.148606
0.118733
0.095214
0.160509
0.106109
0.044819
0.059660
0.006824
0.086739
-0.011259
0.002945
0.044626
0.049597
-0.034658
-0.008906
-0.014618
-0.015849
-0.084315
0.013840
-0.022973
-0.008508
-0.032163
-0.073432
-0.060108
-0.108303
-0.040680
-0.021336
-0.126470
-0.064201
-0.029185
-0.082363
0.028282
-0.090731
-0.052169
-0.033059
-0.082563
-0.021745
0.118145
0.365984
0.639718
1.036317
1.235728
1.290619
1.248510
0.995815
0.623449
0.252150
-0.094520
-0.243860
-0.329197
-0.278181
-0.278161
-0.150139
-0.155295
-0.119984
-0.059469
-0.050107
-0.098561
-0.042133
-0.086218
-0.078927
-0.048254
-0.022070
0.006219
-0.049954
-0.019841
-0.095092
-0.039903
0.040836
0.080082
0.088527
0.040687
0.089991
0.116924
0.104064
0.116059
0.192716
0.203899
0.115953
0.162003
0.275158
0.245568
0.263199
0.224416
0.315351
0.261616
0.371755
0.397195
0.339187
0.376069
0.431734
0.491051
0.484014
0.462027
0.371738
0.409379
0.426091
0.445460
0.438943
0.429042
0.465123
0.409039
0.351877
0.316329
0.390542
0.335791
0.289412
0.294298
0.274465
0.251454
0.192052
0.193143
0.089015
0.108426
0.185701
0.104615
0.113021
0.043165
0.018809
0.087287
-0.048354
0.037222
0.059868
-0.028017
-0.097377
-0.068761
-0.106791
-0.075961
-0.097961
-0.110264
-0.026496
0.060709
-0.085618
-0.065622
-0.147087
-0.104444
0.077847
-0.025460
-0.121475
-0.030521
-0.057620
-0.121283
-0.105271
-0.091634
-0.082727
-0.124095
-0.082154
-0.089921
-0.123941
-0.058357
-0.130506
-0.111190
-0.103423
-0.170515
-0.108642
-0.117007
-0.123634
-0.138705
-0.096091
-0.084270
-0.157454
-0.155939
-0.135402
-0.069412
-0.125250
-0.087894
0.025805
-0.038843
-0.078845
-0.039154
-0.162714
-0.070679
-0.050260
-0.080816
-0.139655
-0.001106
-0.072051
-0.105370
-0.152201
-0.048244
-0.149443
-0.086121
-0.080119
-0.124745
-0.076246
-0.119330
-0.092762
-0.132722
-0.060411
-0.004878
-0.021018
-0.055950
-0.036723
-0.061285
-0.091473
0.001579
-0.132349
-0.083584
0.007162
0.065903
0.003159
-0.003022
-0.054968
0.045750
0.055413
0.180804
0.115152
0.097407
-0.007986
0.046422
0.073665
0.068996
0.029024
0.142134
0.110621
-0.029513
0.102020
0.145448
0.004424
0.101284
0.057115
0.083101
0.040951
0.054690
0.029115
-0.119696
-0.045961
-0.065065
0.002746
-0.027389
-0.049369
0.050214
-0.105556
-0.065986
-0.037296
-0.065421
-0.145157
-0.082863
-0.078025
-0.140053
-0.078102
-0.035346
-0.082644
-0.040523
-0.140444
-0.143007
-0.126535
-0.047402
0.067342
0.293376
0.521779
0.885079
1.222580
1.315835
1.290173
1.091380
0.791889
0.381590
0.035592
-0.194599
-0.255616
-0.205490
-0.248424
-0.085557
-0.030268
-0.068472
-0.028861
-0.084045
0.019032
-0.033869
-0.004870
0.012468
-0.026493
0.018938
0.026788
-0.050499
0.091394
0.024121
0.062219
-0.013395
0.094691
0.102665
0.066092
0.131015
0.180907
0.124414
0.295508
0.221447
0.193688
0.240948
0.333382
0.278467
0.267472
0.335691
0.379870
0.288414
0.431618
0.353994
0.449345
0.471081
0.450891
0.475676
0.480610
0.419658
0.451989
0.528498
0.493093
0.507699
0.458978
0.529966
0.392522
0.479093
0.428149
0.535785
0.470964
0.431736
0.368192
0.370210
0.268070
0.286377
0.314496
0.278771
0.282759
0.250171
0.242335
0.181092
0.188955
0.116418
0.119459
0.139242
0.122791
0.136080
0.173527
0.017216
0.095638
0.120085
0.154613
0.029110
0.057090
-0.038070
0.071498
-0.025559
0.011645
0.065612
-0.026290
-0.052688
-0.013971
0.027896
0.005621
0.055839
-0.007782
0.019559
-0.052023
-0.075807
0.052377
0.002283
-0.047605
-0.002877
0.018867
0.023586
0.001600
-0.026077
-0.050689
-0.047087
0.008188
0.052423
-0.049951
-0.002941
0.013938
-0.042410
0.134362
0.024438
0.058087
-0.020812
0.015101
-0.021445
-0.015636
0.048519
0.058432
-0.002150
0.070846
-0.075348
-0.021565
0.028280
0.035685
-0.038529
-0.009202
0.075248
-0.089834
0.096498
0.015267
0.080662
-0.017354
0.048573
0.002562
0.006075
0.093293
0.036821
0.045488
0.070615
0.042349
-0.017481
0.047827
0.119230
0.051229
0.105538
0.062668
0.076270
0.044987
0.154426
0.129671
0.087237
0.213416
0.081375
0.145754
0.152760
0.139981
0.196317
0.248995
0.158723
0.213823
0.192610
0.193775
0.287175
0.180492
0.155495
0.172529
0.137230
0.241539
0.159174
0.137629
0.185576
0.221247
0.085415
0.098709
0.105121
0.158935
0.105451
0.019948
0.122403
0.139283
0.043714
0.042241
0.134398
0.016079
0.107094
0.032245
0.079296
-0.015166
0.055820
0.091659
0.032326
0.147105
0.065752
0.016120
0.032797
0.045086
-0.052149
0.087578
0.140918
0.258947
0.651964
0.905831
1.174056
1.432280
1.434019
1.273641
0.923394
0.637190
0.219098
-0.024430
-0.139880
-0.185246
-0.165131
-0.113849
-0.010342
0.020723
0.105983
0.007036
0.110179
0.056813
0.129840
0.125020
0.094262
0.103718
0.104917
0.114223
0.134558
0.158908
0.151912
0.138161
0.148038
0.202094
0.216345
0.303828
0.287319
0.294445
0.307277
0.307050
0.304201
0.363881
0.314267
0.388040
0.306076
0.437026
0.418245
0.494074
0.423752
0.513366
0.523857
0.512097
0.597158
0.506157
0.609397
0.530292
0.529378
0.568824
0.563527
0.573282
0.607068
0.564128
0.566247
0.550089
0.546938
0.625268
0.527636
0.548832
0.568228
0.449199
0.490188
0.477224
0.422140
0.393953
0.443266
0.361625
0.295857
0.368480
0.337269
0.293447
0.268765
0.236349
0.224873
0.159288
0.167328
0.116864
0.211738
0.137949
0.147619
0.119872
0.078330
0.152234
0.094775
0.063125
0.199227
0.085382
-0.010657
