-0.001308
0.019768
-0.085661
-0.069101
-0.053876
-0.036269
-0.059134
-0.030034
0.014544
0.049874
0.014024
0.021887
-0.049842
0.071588
0.006397
0.024342
0.068779
0.143083
0.042150
0.033094
-0.005473
-0.008021
0.103829
0.112062
0.013916
0.089300
0.059564
0.071231
0.029176
0.077513
0.216738
0.133042
0.167059
0.181634
0.148699
0.235018
0.215916
0.254431
0.210609
0.147027
0.210324
0.227872
0.237079
0.231932
0.244424
0.255192
0.082637
0.144362
0.110106
0.093799
0.166589
0.120191
0.139306
0.120856
0.062519
0.072688
0.055462
0.115100
0.028966
0.057699
0.030062
0.035857
0.055875
0.162751
0.115105
0.007346
0.072140
0.053727
0.091076
0.035271
0.095414
0.047956
0.035828
0.041504
0.052225
0.214606
0.471474
0.784657
0.976383
1.326403
1.443516
1.275633
1.157015
0.794024
0.337986
0.007653
-0.142952
-0.093825
-0.114021
-0.159139
-0.103565
0.085047
0.041353
0.028049
0.045296
0.059928
0.203842
0.110943
0.063786
0.147702
0.080653
0.172871
0.113697
0.225063
0.178392
0.160423
0.196976
0.215867
0.263563
0.277571
0.207390
0.320334
0.308165
0.337954
0.356380
0.320930
0.409286
0.421699
0.426769
0.455205
0.503397
0.601491
0.528371
0.566352
0.451911
0.547155
0.597569
0.466948
0.547155
0.624046
0.605222
0.669121
0.551421
0.569680
0.545844
0.499619
0.487944
0.566407
0.485723
0.446554
0.486615
0.467372
0.412711
0.461739
0.386859
0.441769
0.319933
0.335710
0.316612
0.311193
0.290114
0.285848
0.233490
0.267535
0.154285
0.122856
0.230155
0.253377
0.091664
0.193093
0.184833
0.141780
0.211326
0.044315
0.094276
0.136405
0.057571
0.147201
0.091376
0.111700
0.060049
0.129186
0.139044
0.061637
0.192177
0.141334
0.128785
0.109594
0.137885
0.157128
0.157371
0.024763
0.030892
0.082785
0.111193
0.097305
0.119210
0.074099
0.057490
0.064761
0.067983
0.147587
0.059010
0.052225
0.123146
0.097966
0.124884
0.063261
0.027989
0.092342
0.064982
0.117608
0.127659
0.065753
0.063971
0.066783
0.050541
0.069671
0.073223
0.087966
0.035693
0.138764
0.084293
0.123129
0.075542
0.060844
0.151422
0.199107
0.120066
0.082812
0.135936
0.110586
0.131685
0.090149
0.179672
0.196171
0.112780
0.119624
0.263113
0.202993
0.176825
0.222335
0.218529
0.173820
0.240918
0.246744
0.279870
0.314628
0.132566
0.298838
0.207503
0.287407
0.241379
0.250448
0.248629
0.161100
0.200977
0.254636
0.182875
0.133190
0.134598
0.160837
0.084168
0.113293
0.168812
0.169615
0.087418
0.130470
0.132596
0.179985
0.172270
0.089050
0.086401
0.037000
0.102877
0.197516
0.067276
0.131179
0.080125
0.117338
0.079991
0.127386
0.062709
0.087426
0.157432
0.215402
0.456441
0.789525
1.160019
1.326645
1.446344
1.378061
1.132204
0.768497
0.310464
0.100738
-0.154432
-0.123193
-0.073871
-0.023236
0.017566
0.023086
0.057428
0.000317
0.159235
0.067755
0.182772
0.086463
0.203406
0.179465
0.178075
0.107598
0.178682
0.103380
0.145071
0.149139
0.188070
0.138875
0.229789
0.250682
0.219308
0.353374
0.337906
0.340714
0.276913
0.329117
0.361370
0.354530
0.445066
0.398992
0.457553
0.561052
0.552091
0.538731
0.477410
0.490475
0.572960
0.612553
0.476969
0.537830
0.513980
0.542981
0.542286
0.572063
0.644998
0.475111
0.593382
0.526526
0.539628
0.486328
0.409493
0.450581
0.417365
0.369996
0.345946
0.349552
0.357502
0.348030
0.246734
0.322477
0.255374
0.175472
0.227775
0.256838
0.151490
0.187314
0.127130
0.211413
0.120016
0.084999
0.164788
0.091224
0.089251
0.113604
0.076763
0.047524
0.073465
0.027168
0.107475
0.089680
-0.027030
0.016613
-0.035025
-0.020217
0.025409
0.051007
0.057497
0.052635
0.060059
0.115958
-0.022631
-0.006112
0.082351
0.029033
0.062870
0.065522
0.053315
0.039200
0.038417
0.050389
0.057588
0.068221
-0.046153
0.034711
0.020741
0.056842
0.092434
-0.051281
0.059986
0.008897
0.074729
0.041824
-0.001029
0.043114
-0.062767
0.083950
0.035399
0.031422
0.039537
-0.005901
-0.040591
-0.021488
0.049725
-0.075905
-0.029745
0.017997
0.103664
0.005186
0.042928
-0.037882
-0.000467
0.006155
0.126292
0.008378
0.027372
0.108629
0.059598
0.011929
0.006605
0.107272
0.124058
0.157588
0.108752
0.160072
0.125987
0.183356
0.164802
0.197595
0.170002
0.136777
0.086024
0.175415
0.188233
0.075809
0.106239
0.116879
0.109745
0.133965
0.105349
0.187043
0.078643
0.082086
0.025151
0.088184
0.056285
0.049717
0.076588
0.053796
-0.017956
0.047562
-0.032196
-0.047205
-0.010673
-0.061053
0.030656
-0.059034
-0.037864
0.034910
-0.085607
-0.001023
-0.092181
-0.102534
-0.040951
-0.039597
0.044078
0.126817
0.352229
0.672050
0.899485
1.226221
1.359352
1.292728
0.992576
0.763432
0.308244
-0.003854
-0.267592
-0.230753
-0.210807
-0.204369
-0.161065
-0.087801
-0.150057
-0.062501
0.001907
-0.024849
-0.002978
0.049399
0.053693
-0.002293
0.051983
0.043750
0.063263
0.112431
0.018577
0.059301
0.172997
0.167153
0.095943
0.114252
0.207664
0.183465
0.249694
0.252675
0.287601
0.250999
0.245739
0.298472
0.311266
0.319946
0.349444
0.366378
0.474421
0.386765
0.480383
0.402558
0.512722
0.447420
0.407414
0.524888
0.399756
0.494093
0.442299
0.404826
0.441009
0.545526
0.442686
0.418905
0.360199
0.353623
0.335993
0.385711
0.354157
0.269671
0.312799
0.265490
0.237109
0.198099
0.158477
0.224052
0.103294
0.120512
0.180659
0.121752
0.117521
0.056169
0.161430
0.059334
0.108397
0.022096
-0.028716
0.016650
0.015753
0.031325
0.061379
-0.052699
-0.029693
0.051665
0.082488
0.028476
-0.039683
0.027213
-0.066038
0.010972
0.007518
-0.010154
-0.010934
0.005600
0.116515
0.027891
-0.054370
-0.083952
0.016657
-0.018312
-0.071681
-0.043243
-0.073293
-0.032336
-0.054244
-0.130033
-0.072356
-0.039112
-0.006155
-0.044055
-0.013786
-0.043589
0.038633
0.002339
-0.047710
-0.052850
-0.033218
0.000074
-0.033557
-0.046075
-0.058384
-0.056351
-0.058139
-0.081813
0.026953
-0.098201
-0.090813
-0.015595
-0.041513
-0.097341
-0.085008
0.022941
-0.017185
0.002994
0.143875
0.001537
-0.058062
-0.037322
-0.097205
0.100594
0.021570
0.070501
0.072357
0.036886
0.062946
0.037362
0.088493
0.095441
0.052881
0.002002
0.098821
0.112566
-0.012803
0.167411
0.154257
0.116779
0.120033
0.075709
0.178371
0.093238
0.145189
0.129885
0.132122
0.160159
0.014911
0.075034
0.025726
0.006724
0.033536
0.111987
0.066691
-0.027272
0.037438
0.032564
0.049549
-0.005997
0.022686
0.014108
-0.044587
0.045866
-0.022376
0.046275
0.013238
0.025309
-0.051977
-0.042648
-0.042858
-0.001703
-0.056275
-0.018455
0.008385
0.123742
0.358899
0.637363
0.991176
1.191300
1.452807
1.285844
1.052015
0.692223
0.238623
-0.013413
-0.116173
-0.207517
-0.185681
-0.126007
-0.127214
-0.070317
-0.029605
-0.058613
0.038050
-0.018513
0.062241
-0.053797
0.040894
0.019644
0.004994
0.163983
0.012601
0.107502
0.192269
0.183375
0.170593
0.144356
0.292051
0.151322
0.156446
0.230287
0.187392
0.322467
0.342305
0.374119
0.332112
0.337790
0.391155
0.392119
0.375709
0.463521
0.458295
0.450573
0.470403
0.442392
0.467324
0.567838
0.517978
0.538752
0.495718
0.580244
0.497256
0.505991
0.504392
0.426201
0.412376
0.448097
0.464929
0.488230
0.424973
0.421014
0.378375
0.303560
0.285076
0.287651
0.324716
0.280059
0.286216
0.294946
0.199020
0.245597
0.255983
0.201916
0.162452
0.113780
0.171420
0.146116
0.138089
0.087027
0.099630
0.033597
0.051406
0.110195
0.050387
0.131884
0.079906
-0.057246
0.099152
0.101979
0.041403
0.031962
0.015185
0.058158
0.139084
0.090485
0.099052
-0.065467
0.056918
-0.017379
0.090778
0.049549
0.058205
-0.009163
0.006462
0.039007
-0.016837
0.052964
-0.010577
0.020589
0.069730
-0.079561
-0.004136
0.101992
0.025719
0.015308
0.105612
0.008655
0.046295
-0.052856
-0.000875
0.094102
0.067196
0.020032
0.080512
-0.003162
0.079349
-0.000967
0.075814
0.093281
0.057749
0.091299
0.069907
0.046805
0.070834
0.120172
0.077241
0.040945
0.001224
0.042338
0.152844
0.110186
0.014143
0.078492
0.147465
0.086971
0.189508
0.186724
0.164284
0.147824
0.132753
0.174756
0.208415
0.171891
0.206129
0.213728
0.176148
0.263271
0.254680
0.287299
0.277656
0.219249
0.193129
0.262431
0.213188
0.235037
0.286349
0.319838
0.115827
0.314006
0.094724
0.261575
0.154047
0.170864
0.111063
0.176342
0.083631
0.041112
0.134248
0.064000
0.120408
0.012025
0.100605
0.118673
0.188884
0.116726
0.077923
0.066227
0.098718
0.133709
0.042368
0.153988
0.075271
-0.000235
0.171219
0.311142
0.446087
0.783908
1.075585
1.382288
1.500000
1.379397
1.169839
0.778291
0.481861
0.064142
-0.057056
-0.217019
-0.125948
-0.127219
-0.022924
0.026043
0.103551
0.038699
0.131745
0.091881
0.085228
0.104650
0.125653
0.067713
0.123632
0.200139
0.113487
0.147488
0.142208
0.247678
0.226961
0.296573
0.335290
0.347561
0.278281
0.328828
0.373513
0.326738
0.373784
0.434189
0.546098
0.442333
0.489898
0.526575
0.476784
0.592921
0.508184
0.568659
0.622484
0.526797
0.614730
0.594057
0.566739
0.621165
0.617299
0.597101
0.617592
0.604130
0.559204
0.498255
0.558921
0.613184
0.544152
0.574880
0.602598
0.426382
0.509194
0.417061
0.462040
0.442607
0.360382
0.351943
0.368129
0.302263
0.291250
0.273291
0.312025
0.232241
0.220249
0.184861
0.181405
0.163992
0.253523
0.222214
0.110194
0.120297
0.133893
0.109771
0.171411
0.150188
0.085677
0.059787
0.099176
0.111640
0.157805
0.062851
0.021811
0.062511
0.116184
0.123441
0.235248
0.024833
0.034251
0.151385
0.153019
0.048190
0.147199
0.133430
0.031166
0.008702
0.051003
0.087599
0.105418
0.056667
0.122147
0.000606
0.102504
0.135551
0.038403
0.079862
0.126793
-0.012267
0.080582
0.083827
0.121328
0.101592
0.090499
0.083161
0.107654
0.110002
0.128597
0.071748
0.075119
0.052197
0.028801
0.130250
0.024561
0.059901
0.112869
0.085714
0.130506
0.103905
0.030988
0.125531
0.120903
0.028034
0.104654
0.071103
0.151197
0.113867
0.103466
0.164873
0.122752
0.207246
0.194430
0.107605
0.166310
0.223402
0.218650
0.197568
0.290700
0.221071
0.217846
0.248432
0.245189
0.237471
0.235974
0.229247
0.287058
0.237367
0.238400
0.176899
0.298987
0.219162
0.240720
0.163615
0.210915
0.203240
0.091275
0.131697
0.043158
0.033149
0.095316
0.133954
0.077755
0.088856
-0.003552
0.082552
0.096300
0.046880
0.058791
0.129396
0.075775
0.052758
0.048015
-0.020337
-0.037461
-0.011500
0.069858
0.202543
0.456454
0.740877
1.004527
1.235822
1.402360
1.311939
1.124938
0.688041
0.397634
0.104824
-0.109209
-0.077534
-0.193742
-0.093076
-0.030521
-0.016357
0.046113
-0.019371
-0.044259
0.023610
0.013323
0.048352
0.029847
0.007021
0.135576
0.015017
0.103816
0.209528
0.159133
0.136395
0.196049
0.193612
0.184019
0.302858
0.260025
0.234147
0.334782
0.259777
0.353230
0.358212
0.410223
0.487162
0.433406
0.399296
0.352269
0.433162
0.495536
0.506145
0.459343
0.454358
0.459507
0.575522
0.489127
0.588829
0.481638
0.523158
0.556174
0.579373
0.500672
0.572417
0.425522
0.430528
0.413710
0.392722
0.454821
0.365449
0.380087
0.306225
0.366421
0.258385
0.329483
0.326255
0.209603
0.205858
0.254078
0.185179
0.238654
0.024961
0.169316
0.101505
0.147350
0.125643
0.118247
0.037711
0.043038
0.068796
-0.004669
0.001890
-0.038917
0.000636
0.046870
0.055601
-0.027506
-0.054343
0.055795
0.019128
0.005399
-0.030988
0.039263
0.038912
0.014077
0.051480
0.034169
-0.048015
-0.043457
0.002245
-0.071970
-0.055386
-0.023776
-0.018473
-0.039606
-0.080569
-0.040730
-0.074822
-0.006887
-0.022110
-0.002888
0.050595
-0.034412
-0.094703
-0.122026
-0.030715
-0.087793
0.012981
-0.050438
-0.078174
-0.037761
-0.037024
0.020373
-0.019870
-0.028441
0.002003
-0.050783
-0.115633
-0.049863
-0.054509
-0.003528
-0.009103
-0.100565
-0.059434
-0.096601
-0.067899
-0.009773
-0.081035
-0.110908
-0.061943
-0.057912
-0.074276
0.079591
0.044519
-0.041469
-0.022864
0.076263
0.064716
-0.018211
0.088797
0.073684
0.042643
0.142185
0.098448
0.165859
0.111413
0.068245
0.165777
0.190206
0.056042
0.100918
0.135984
0.130524
0.099119
0.074093
0.115213
0.095861
0.041883
0.062544
0.060812
-0.035882
0.031340
-0.024730
0.036026
-0.007974
0.025968
0.025261
-0.014875
-0.117505
-0.010056
-0.060775
-0.054001
0.003568
-0.005905
-0.105649
-0.091488
-0.093650
-0.021666
-0.068644
-0.034238
-0.136088
-0.079504
-0.053982
0.090859
0.346832
0.609229
0.900579
1.158274
1.288501
1.201208
0.959211
0.656539
0.233164
-0.068574
-0.259186
-0.388835
-0.391998
-0.265277
-0.143276
-0.095926
-0.074817
-0.110457
-0.066071
0.027662
-0.034982
0.017413
-0.059878
0.028096
-0.009718
0.057856
-0.055805
-0.024650
0.090634
0.076297
0.068328
0.060890
0.139767
0.118383
0.190704
0.116597
0.216500
0.163632
0.196224
0.157707
0.258963
0.183264
0.309675
0.363771
0.238170
0.379728
0.344279
0.403359
0.356665
0.424490
0.424224
0.457310
0.413677
0.482862
0.375701
0.484555
0.438627
0.489167
0.433460
0.399640
0.476001
0.364465
0.322957
0.335372
0.354858
0.320552
0.252478
0.270705
0.290694
0.157849
0.203450
0.205644
0.189537
0.151267
0.126644
0.165829
0.072733
0.130640
0.107740
0.014298
0.025480
0.041458
0.012921
-0.017070
0.068251
-0.028197
-0.031651
-0.022531
-0.072885
-0.120832
-0.107277
-0.016034
-0.012906
-0.014126
-0.039414
-0.083265
-0.164452
-0.052839
-0.076140
-0.033749
-0.063069
-0.049168
-0.162637
-0.019595
-0.012126
-0.122641
-0.076197
-0.063888
-0.046703
-0.029451
-0.059982
-0.094677
0.051831
-0.033838
-0.062206
-0.110219
-0.036265
-0.107536
-0.089484
-0.077106
-0.079333
-0.069297
-0.070420
-0.114451
-0.120440
-0.059070
-0.084388
-0.066845
-0.072363
-0.033519
-0.022888
-0.056316
-0.118345
-0.015476
-0.027738
-0.094642
-0.115929
-0.000214
-0.086295
-0.045336
-0.037605
-0.069179
-0.045988
-0.050753
-0.034119
-0.077077
-0.032276
-0.039822
0.005144
0.011590
0.044127
0.063018
0.030237
-0.016011
0.024385
0.035100
0.046476
0.085651
0.166125
0.202225
0.100181
0.110893
0.084587
0.035572
0.137798
0.199440
0.139845
0.094183
0.113711
0.125508
0.152686
0.095861
0.057294
0.026221
-0.025161
-0.012578
0.016999
-0.028579
0.074393
-0.032620
0.059982
-0.054144
0.060203
-0.049129
-0.038470
-0.022401
-0.017118
-0.132538
-0.031256
-0.014380
-0.048529
0.021991
0.031104
-0.069273
-0.042714
-0.115297
-0.046008
-0.054764
0.016014
0.166270
0.325191
0.679410
1.008733
1.172015
1.341861
1.309254
1.004899
0.659611
0.332217
0.035113
-0.184349
-0.314814
-0.264231
-0.199053
-0.120282
-0.104169
-0.123221
-0.034647
0.018869
-0.018159
0.031484
-0.031721
0.076872
0.033463
-0.050845
0.012293
0.081126
0.121753
0.088860
0.134834
0.117780
0.124203
0.139582
0.143390
0.169812
0.128874
0.232490
0.210962
0.300872
0.240659
0.220346
0.306872
0.285674
0.308901
0.361414
0.438288
0.358213
0.444327
0.437709
0.401173
0.517019
0.474021
0.496918
0.471859
0.501921
0.495540
0.447465
0.487473
0.451379
0.462489
0.416649
0.430884
0.424832
0.398248
0.391818
0.384735
0.346303
0.390968
0.254314
0.293872
0.259679
0.285583
0.239600
0.278145
0.154160
0.257517
0.212633
0.183098
0.168591
0.139573
0.127651
0.109859
0.051699
0.102810
0.033226
0.113973
0.089481
0.126597
0.107897
0.077455
-0.017555
0.016180
-0.018244
0.001594
0.049391
0.073863
0.041816
-0.026227
0.111183
-0.016773
0.015162
0.034109
0.009316
0.051791
-0.012016
0.033518
0.045376
0.063848
0.056526
0.017631
0.050162
0.000225
0.034493
-0.039695
0.002217
0.039919
0.012606
0.003428
0.005222
0.221833
0.035351
0.007438
0.016089
-0.062485
-0.046345
-0.033741
-0.011044
-0.007470
0.010006
0.061939
0.038419
0.046538
0.035333
0.033973
0.124040
0.012073
-0.008734
0.013528
-0.027093
0.024534
0.016811
0.002842
0.005844
0.023677
0.103953
0.036473
0.032156
0.006928
0.083856
0.136648
0.079992
0.148360
0.133548
0.188796
0.072525
0.122960
0.178314
0.169976
0.209725
0.195546
0.209684
0.219394
0.235039
0.226951
0.205066
0.151414
0.216384
0.144865
0.136399
0.194382
0.190711
0.177311
0.130131
0.130774
0.194237
0.161416
0.115362
0.117225
0.138555
0.149932
0.119545
0.126109
-0.018226
0.043403
0.094345
0.163244
0.115104
0.072266
0.027106
0.179978
0.054782
0.060628
0.050857
0.028857
0.066093
-0.006405
-0.043621
0.039468
0.077214
0.216761
0.432237
0.708452
1.061044
1.373349
1.454616
1.432978
1.012169
0.752165
0.364958
0.118266
-0.072391
-0.245592
-0.216391
-0.097219
-0.031039
-0.051620
0.104752
0.126783
0.125286
0.095073
0.040418
0.179587
0.164260
0.127799
0.174523
0.118574
0.178937
0.158034
0.147242
0.109711
0.186480
0.207270
0.236050
0.242943
0.193989
0.311772
0.281612
0.218773
0.345586
0.292401
0.390027
0.433502
0.367443
0.436381
0.444966
0.489390
0.527614
0.536022
0.502523
0.472833
0.535982
0.509551
0.513995
0.553208
0.553416
0.541108
0.571525
0.557652
0.495883
0.555489
0.519307
0.603157
0.546180
0.455642
0.469903
0.407171
0.476071
0.311885
0.401529
0.355494
0.325052
0.347268
0.353526
0.386338
0.202112
0.253984
0.227087
0.213205
0.147759
0.113069
0.121449
0.109814
0.169187
0.212457
0.102861
0.061423
0.146419
0.029086
0.021656
0.071189
0.081049
0.062530
0.051667
0.041415
0.039513
-0.023022
0.035401
0.033858
0.091152
0.003256
0.075552
0.028789
0.067263
0.003789
-0.026920
0.014351
-0.007092
0.000764
0.072565
-0.033147
0.031001
0.024899
0.006666
0.084009
0.066585
-0.019053
-0.001064
-0.008926
0.092954
0.010592
0.054587
0.041777
-0.002139
-0.014270
0.002121
0.050049
0.043583
0.097378
0.044659
0.018334
0.081156
0.004111
-0.035664
-0.016183
-0.005715
0.017681
-0.021342
0.005099
0.119624
0.073772
0.012035
0.075855
-0.011839
-0.008625
0.037929
-0.020416
0.014908
0.120966
0.021895
0.159906
0.108568
0.042769
0.062269
0.124663
0.115056
0.087710
0.122212
0.093093
0.150072
0.131256
0.159477
0.169614
0.176662
0.214765
0.188047
0.206659
0.169804
0.197601
0.152198
0.058967
0.213876
0.092792
0.151430
0.108957
0.131399
0.158461
0.117917
0.088339
0.078735
0.049231
-0.042839
-0.035183
0.028221
0.033113
0.000668
0.010796
0.013431
-0.003105
-0.016763
-0.069483
0.038486
0.045090
-0.031051
-0.004701
-0.002461
-0.006214
0.004764
-0.025521
-0.005109
0.105007
0.386821
0.627289
0.951925
1.244705
1.338099
1.248270
1.065914
0.733330
0.241928
-0.069699
-0.149966
-0.203982
-0.234468
-0.226941
-0.067818
-0.033950
-0.089834
0.028288
0.046275
-0.057879
0.096631
0.045867
0.040819
0.051281
0.008550
0.101168
0.048796
0.063013
0.148877
0.040562
0.069683
0.057303
0.145893
0.148153
0.179354
0.184451
0.201790
0.180970
0.281700
0.221291
0.258507
0.215916
0.331785
0.415533
0.390437
0.381724
0.450965
0.351914
0.454588
0.485055
0.401353
0.445947
0.419436
0.414885
0.507190
0.422309
0.412461
0.422130
0.428517
0.418265
0.410854
0.404490
0.378733
0.400529
0.301434
0.376968
0.260526
0.299404
0.313485
0.266879
0.262688
0.170600
0.166770
0.123889
0.152717
0.088448
0.103598
0.022435
-0.008141
0.064851
0.051229
0.062710
0.088700
0.010292
-0.006068
0.030741
-0.014796
-0.045242
-0.048004
-0.068569
-0.050637
0.055241
-0.115665
-0.025115
-0.087743
-0.005092
-0.111687
-0.133669
-0.099753
-0.080788
-0.038270
-0.239164
-0.056868
-0.103694
-0.091657
-0.136096
-0.077667
0.016293
-0.053564
-0.097201
-0.106795
-0.121475
-0.097281
-0.010322
-0.084758
-0.077583
-0.047812
-0.110972
-0.133011
-0.094748
-0.031126
-0.097906
-0.126411
-0.077044
-0.071147
-0.110851
-0.058949
-0.112310
-0.028705
-0.055031
-0.081013
-0.115133
-0.093406
-0.199717
-0.094199
-0.035689
-0.086390
-0.059447
-0.162647
-0.093903
-0.051014
-0.066820
0.014278
-0.028276
-0.050033
-0.154775
-0.087048
-0.005762
-0.065123
-0.056039
-0.065726
-0.002287
-0.063152
-0.026517
0.068251
0.045210
0.014179
-0.046499
0.012832
0.009562
0.068369
0.100699
0.043747
0.098473
0.071968
0.041062
0.058606
0.057593
-0.003142
0.057678
0.001909
-0.047240
-0.055458
0.017913
0.018481
0.006563
0.076301
-0.060826
-0.018025
-0.006736
-0.067123
-0.023936
-0.102736
-0.034334
-0.038559
-0.072036
-0.091323
-0.127371
-0.109918
-0.096931
-0.049948
-0.028819
-0.157975
-0.169487
-0.124699
-0.088693
-0.148512
-0.089796
-0.034969
0.076209
0.305708
0.595764
0.910474
1.171219
1.297169
1.232649
0.948329
0.590810
0.296059
-0.106405
-0.266877
-0.346697
-0.336649
-0.273469
-0.179325
-0.114756
-0.098391
-0.134101
-0.011653
-0.062337
-0.116197
-0.061207
-0.103648
-0.079894
-0.033380
-0.011444
0.072323
-0.026035
0.069545
-0.011518
0.042012
0.084587
0.047469
0.083139
0.025600
0.153928
0.157357
0.179367
0.206290
0.182685
0.200429
0.222135
0.232288
0.268200
0.302187
0.245245
0.333679
0.338974
0.319654
0.412485
0.424705
0.445385
0.435835
0.450592
0.366401
0.442402
0.437247
0.498102
0.465882
0.375402
0.411187
0.326296
0.385652
0.304519
0.340570
0.296074
0.268297
0.375172
0.282978
0.264457
0.149868
0.150231
0.134321
0.110918
0.137808
0.078313
0.054091
0.091194
0.010594
0.101422
-0.007357
0.046418
0.006372
-0.021878
-0.015774
0.009454
-0.073189
-0.091868
-0.065557
-0.015108
-0.107487
-0.004177
-0.064140
-0.017999
-0.095847
-0.141812
-0.033146
-0.076077
-0.131070
-0.076652
-0.102010
-0.043964
-0.145928
-0.052327
-0.064962
-0.075138
-0.005282
-0.029536
-0.039351
-0.009815
-0.056172
-0.118985
-0.053297
-0.009180
-0.072459
-0.114819
0.025817
0.019656
-0.001972
-0.129823
-0.131044
-0.047614
-0.038017
-0.067592
-0.072687
-0.018631
-0.086649
-0.078826
-0.016779
-0.093582
-0.137706
0.010166
-0.029457
-0.095824
-0.056278
-0.067723
-0.087447
-0.043382
-0.130144
0.012742
0.058522
-0.037890
-0.082454
0.013385
0.000491
-0.025165
-0.011468
0.028913
-0.048414
-0.047145
-0.069499
-0.055093
0.093108
0.014181
0.076508
0.139436
0.063992
0.108592
0.061371
0.065248
0.101792
0.117773
0.175615
0.178095
0.045427
0.143430
0.171451
0.162707
0.055873
0.117989
0.095499
0.085453
0.122655
0.118580
0.135689
0.066814
0.022113
0.065263
0.056930
0.005504
0.047586
0.043266
-0.004405
-0.017989
-0.000354
-0.005673
-0.010362
-0.036207
-0.084939
-0.008801
-0.036015
-0.003864
-0.000958
0.030432
-0.009564
-0.057805
-0.086365
-0.036718
-0.035770
0.140576
0.370494
0.669522
1.035588
1.228684
1.349315
1.278874
1.099984
0.780595
0.393149
0.036958
-0.222056
-0.264217
-0.233186
-0.202892
-0.129526
-0.049593
0.008801
-0.009173
0.082267
0.012884
0.030598
0.000854
-0.009896
0.046712
0.145728
0.072411
0.144767
0.093091
0.100649
0.112079
0.144342
0.170557
0.194476
0.267237
0.153201
0.297038
0.186545
0.249955
0.276729
0.344288
0.334654
0.332647
0.425251
0.435256
0.413188
0.396513
0.495324
0.501858
0.439037
0.457765
0.611763
0.597829
0.532049
0.577784
0.509140
0.442714
0.568588
0.449155
0.545562
0.485701
0.489834
0.438617
0.433933
0.389114
0.444638
0.399113
0.398556
0.417807
0.345866
0.303058
0.357266
0.278481
0.301890
0.306741
0.240623
0.220754
0.214002
0.266020
0.165584
0.173554
0.173038
0.168704
0.067535
0.114931
0.095731
0.042636
0.064483
0.026924
0.100901
0.181779
0.092161
0.027822
0.091589
0.074557
0.016819
0.031843
0.101732
0.038530
0.021299
0.049613
-0.022126
0.016294
0.029025
0.027785
0.052386
0.151827
0.058887
0.014949
0.094856
0.054623
0.141498
0.008677
0.024977
0.128620
0.004548
0.083243
0.088183
0.051135
0.015241
0.056719
-0.005374
0.061692
0.037155
0.070757
0.078704
0.170561
0.099714
0.081502
0.030475
0.058507
0.056726
0.037052
0.058795
-0.014309
0.081165
0.025316
0.026229
0.021137
0.069160
0.089261
0.023037
0.052406
0.015908
0.090439
0.095050
0.058073
0.062981
0.129296
0.159229
0.128666
0.106885
0.147488
0.216401
0.170557
0.130566
0.235127
0.243858
0.188362
0.247422
0.270228
0.280874
0.257753
0.267838
0.241469
0.327463
0.284181
0.202787
0.220215
0.199387
0.248815
0.249087
0.272880
0.109189
0.171852
0.163707
0.285412
0.156886
0.064236
0.126154
0.131221
0.156328
0.138692
0.185492
0.082583
0.170292
0.083097
0.077683
0.094305
0.028605
0.047469
0.133757
0.081198
0.115417
0.129776
0.065748
0.041442
0.006174
0.093022
0.213101
0.117138
0.454647
0.736717
1.102354
1.348771
1.448304
1.399182
1.109632
0.825480
0.396351
0.065005
-0.070882
-0.148968
-0.159493
-0.121271
-0.078793
0.047760
0.135693
0.035860
0.048074
0.097048
0.100886
0.171821
0.110076
0.216152
