-0.017738
-0.004919
-0.084676
0.010026
-0.015492
-0.024714
0.021204
-0.020055
-0.039287
0.050488
-0.037872
0.026949
-0.022622
-0.051794
0.030937
0.035701
0.070294
-0.001707
0.045099
0.008308
0.119520
0.126396
0.067376
0.148266
0.145239
0.024466
0.165475
0.149936
0.145630
0.213552
0.132139
0.139645
0.258825
0.217083
0.176922
0.257811
0.170089
0.285194
0.037204
0.180817
0.133907
0.133791
0.124121
0.093667
0.155192
0.139989
0.085272
0.088503
0.114718
-0.005080
0.080686
0.123505
-0.002093
0.099948
0.075195
0.035717
0.009249
0.108500
0.151022
0.232126
0.329539
0.632762
0.991896
1.117343
1.416784
1.372760
1.185224
0.923106
0.488929
0.127645
0.002005
-0.110003
-0.077186
0.002886
0.102626
0.111036
0.081337
0.169415
0.088693
0.191025
0.224279
0.160057
0.197645
0.185803
0.252475
0.339700
0.287691
0.359898
0.329625
0.418900
0.383449
0.311362
0.459092
0.360998
0.449582
0.530505
0.519853
0.538573
0.483636
0.619727
0.588339
0.588875
0.483794
0.511255
0.541273
0.698672
0.651472
0.610358
0.584471
0.575166
0.649357
0.527320
0.485009
0.577307
0.500197
0.569388
0.543917
0.385632
0.429161
0.473354
0.294295
0.385747
0.370564
0.323382
0.281042
0.275142
0.277760
0.184567
0.220805
0.232347
0.232609
0.177509
0.231576
0.187464
0.171919
0.083474
0.111036
0.228109
0.158116
0.065146
0.136026
0.092397
0.184574
0.126037
0.055718
0.178552
0.121350
0.091148
0.119441
0.018142
0.157548
0.081657
0.079500
0.147587
0.111720
0.026414
0.084326
0.102354
0.121320
0.102410
0.097862
0.040871
0.267941
0.009142
0.051185
0.123066
0.101780
0.101472
0.049571
0.057086
0.019404
0.124201
0.102522
0.094706
0.111588
0.091127
0.080050
0.148745
0.145934
0.159341
0.217837
0.213223
0.194465
0.198210
0.210754
0.249573
0.162882
0.207100
0.264215
0.246538
0.385280
0.190852
0.310045
0.306170
0.232337
0.255665
0.357733
0.246287
0.225191
0.311260
0.225914
0.213951
0.259663
0.192674
0.143007
0.178908
0.237648
0.227666
0.153190
0.172894
0.149029
0.005330
0.046132
0.062681
0.116320
0.103482
0.060379
0.051903
0.052077
0.147905
0.181729
0.320566
0.596738
0.805431
1.221216
1.358085
1.500000
1.381387
0.956501
0.708764
0.407463
0.060912
0.015932
-0.015892
-0.004120
0.018775
0.115580
0.154009
0.224665
0.255443
0.176655
0.218929
0.292921
0.265163
0.302962
0.333522
0.311986
0.312252
0.301327
0.348731
0.390159
0.396854
0.419120
0.395560
0.432798
0.547118
0.458705
0.500416
0.521665
0.585106
0.570298
0.571995
0.583620
0.574053
0.529523
0.629370
0.623447
0.590411
0.557436
0.662948
0.624186
0.617461
0.696605
0.615204
0.605135
0.671511
0.488414
0.478576
0.449121
0.536593
0.393036
0.333410
0.364198
0.255057
0.292549
0.398900
0.281809
0.294330
0.197869
0.215109
0.309790
0.211921
0.232211
0.124621
0.129728
0.157411
0.129560
0.169379
0.143838
0.129741
0.128533
0.098606
0.123322
0.075265
0.094869
0.071103
0.083066
0.105436
0.034645
0.135924
0.108681
-0.000384
0.030014
0.070533
0.039566
0.009453
0.080564
0.065031
0.014007
0.155491
0.073157
-0.005835
0.060780
0.027266
0.079731
0.098974
0.034911
0.091043
0.046304
0.075034
0.034944
0.006703
0.060443
0.118866
0.207186
0.042389
0.054153
0.092464
0.059331
0.082896
0.063864
0.123758
0.146360
0.178028
0.173229
0.174408
0.280103
0.185075
0.204404
0.129155
0.254752
0.167232
0.176597
0.208132
0.235587
0.149729
0.241803
0.242764
0.152824
0.249621
0.114678
0.220314
0.102212
0.176828
0.111654
0.217385
0.178538
0.093682
0.103196
0.116314
0.032430
0.038905
0.103966
0.065293
0.064118
0.092398
0.102943
0.003566
-0.020580
0.083616
0.092452
0.111466
0.212398
0.422808
0.647055
0.918749
1.325319
1.413911
1.282627
1.091780
0.677769
0.342256
0.048021
-0.080967
-0.047165
-0.148440
-0.011830
0.115996
0.032199
0.086419
0.082630
0.128804
0.099990
0.181741
0.135045
0.252485
0.158522
0.205377
0.277867
0.317384
0.217713
0.326196
0.330195
0.290342
0.322843
0.394174
0.369582
0.390755
0.455267
0.503789
0.439786
0.555937
0.506351
0.486377
0.535513
0.566126
0.507752
0.578423
0.532476
0.459043
0.500587
0.538165
0.525903
0.631035
0.493647
0.431848
0.485728
0.456509
0.405518
0.366450
0.351129
0.312149
0.276805
0.299495
0.276767
0.213450
0.225889
0.135655
0.202390
0.132785
0.184957
0.125910
0.088035
0.128287
0.143215
0.178786
0.075668
0.032954
0.069326
0.062829
0.068424
0.012273
0.013091
0.017831
0.032526
0.088331
-0.035665
-0.021152
0.079325
-0.078022
0.091843
-0.075840
-0.025364
-0.114402
-0.019318
0.079250
0.047824
0.006608
-0.015401
-0.046483
-0.059198
-0.102394
-0.069535
-0.037452
-0.091747
-0.031626
-0.052415
-0.034637
-0.085204
-0.039968
0.032244
0.035394
-0.015644
0.002404
0.069707
-0.011669
0.093688
-0.006369
0.059717
-0.019533
0.028027
0.058884
0.084881
0.079714
0.102803
0.023440
0.095021
0.137131
0.132805
0.061900
0.112121
0.154415
0.128666
0.073446
0.073011
0.079118
0.152183
0.056009
0.202626
0.046482
0.172284
0.114173
0.186657
0.182193
0.163725
0.072390
0.059456
0.128242
0.127538
0.083542
-0.042638
0.032239
0.076109
0.030514
-0.049675
-0.047344
0.069039
-0.028030
-0.031671
-0.085401
-0.028670
0.030273
0.010509
0.163289
0.288347
0.562226
0.838316
1.164093
1.327799
1.337678
1.129758
0.698004
0.452655
0.092420
-0.105677
-0.177415
-0.148920
-0.087732
-0.040003
0.067875
0.019607
-0.026137
0.068954
0.075975
0.134422
0.125867
0.146556
0.162083
0.154918
0.216870
0.254317
0.287937
0.161621
0.307372
0.332610
0.246963
0.330401
0.356278
0.360411
0.355437
0.382830
0.373975
0.457485
0.405330
0.513472
0.525732
0.432289
0.558217
0.519814
0.528160
0.543061
0.414527
0.538960
0.435668
0.436582
0.469196
0.380352
0.405715
0.397872
0.425361
0.273803
0.380908
0.302470
0.229124
0.282718
0.293315
0.277823
0.221995
0.222187
0.102488
0.242020
0.186139
0.096599
0.043373
0.106644
0.088910
0.041255
0.069312
0.099326
0.101538
-0.016862
-0.043246
-0.004777
0.044406
-0.023594
0.086872
0.059370
-0.083630
-0.037447
-0.011111
-0.135673
-0.135001
0.009570
-0.032632
-0.029983
-0.063439
-0.065570
-0.052638
0.025993
0.017591
0.031315
-0.095721
-0.101398
-0.151391
-0.115968
-0.083186
-0.050334
-0.003605
-0.103212
-0.092359
-0.104825
0.016107
-0.065729
-0.009747
-0.060524
0.004265
-0.109248
0.085303
-0.017182
0.028578
0.067010
0.057973
0.091925
-0.038395
0.099736
0.046452
0.031093
0.111442
0.091694
0.080262
0.248741
0.153751
0.104644
0.112852
0.218203
0.132769
0.133918
0.175872
0.172413
0.226388
0.161072
0.111850
0.110259
0.131665
0.156619
0.146619
0.142854
0.124919
0.152915
0.068707
0.164387
0.014999
0.086020
0.104890
-0.023403
0.065474
0.036318
0.005724
0.053462
-0.173750
0.027282
-0.026605
-0.056094
0.020389
0.117965
0.214277
0.535189
0.909522
1.191645
1.351815
1.435326
1.221693
0.932431
0.546549
0.270514
-0.021041
-0.135280
-0.088796
-0.036357
-0.003791
0.098602
0.128351
0.093464
0.126578
0.056893
0.184966
0.168201
0.184373
0.065908
0.178089
0.339130
0.257221
0.239685
0.200953
0.244519
0.423353
0.322909
0.427291
0.436545
0.391620
0.534114
0.391458
0.539573
0.450850
0.511234
0.556914
0.537719
0.565416
0.573415
0.623516
0.583055
0.564140
0.591268
0.471019
0.522131
0.597333
0.454802
0.496408
0.504276
0.535335
0.399405
0.444215
0.448196
0.457350
0.334109
0.422661
0.402964
0.293074
0.227079
0.404242
0.309645
0.254749
0.338296
0.153943
0.247213
0.157973
0.176724
0.144179
0.104848
0.208818
0.096996
0.071615
0.160884
0.118970
0.068822
0.077828
0.057710
0.060704
-0.017071
0.007763
0.007859
0.104388
0.067297
0.036393
0.043786
0.073243
0.067206
0.070822
0.056583
0.146874
0.036014
0.094364
0.103871
0.081612
0.001363
0.057553
0.093788
0.042570
0.134748
0.075666
0.136964
0.044536
-0.003748
0.034931
0.015912
0.056592
0.085848
0.045615
0.055377
0.125337
0.042675
0.122743
0.110127
0.095831
0.168311
0.160277
0.182288
0.292782
0.178384
0.190171
0.124554
0.251702
0.181278
0.149334
0.250047
0.182233
0.286347
0.200765
0.217965
0.255344
0.249231
0.330783
0.310931
0.196487
0.220581
0.158519
0.343405
0.290059
0.216061
0.216418
0.196699
0.121027
0.142422
0.139692
0.087886
0.174522
0.142363
0.099102
0.058886
0.047754
0.107894
0.132861
0.160518
0.070790
0.119459
0.210112
0.323264
0.521394
0.760718
1.100309
1.375406
1.482390
1.404933
1.129206
0.682309
0.334748
0.135453
-0.072950
-0.023939
-0.022649
0.035407
0.131003
0.109518
0.110090
0.194048
0.185046
0.262357
0.256283
0.326128
0.257693
0.243038
0.271370
0.272994
0.324647
0.359525
0.453249
0.410934
0.425470
0.489051
0.452963
0.433572
0.557527
0.551561
0.497882
0.621513
0.584087
0.520670
0.611597
0.581946
0.598761
0.676930
0.651235
0.666095
0.669988
0.585569
0.664971
0.605416
0.662539
0.554179
0.533621
0.566561
0.510442
0.441531
0.474560
0.416721
0.454788
0.410752
0.424036
0.393287
0.379350
0.360471
0.359752
0.215037
0.262127
0.256569
0.215564
0.292744
0.178728
0.171814
0.202081
0.162523
0.126641
0.138331
0.126562
0.079337
0.109087
0.135143
0.123137
0.179882
0.151324
0.216458
0.099452
0.121662
0.098715
0.127473
0.141222
0.141974
0.119286
0.016502
0.137466
0.145267
0.050486
0.069826
0.063232
0.086581
0.125747
0.164505
0.069513
0.109013
0.027452
0.130458
0.060410
0.070406
0.122310
0.171631
0.112153
0.092372
0.047108
0.120266
0.022370
0.153796
0.105253
0.079015
0.173405
0.170816
0.090215
0.214287
0.128223
0.170875
0.180334
0.229823
0.231361
0.207576
0.151807
0.250197
0.217768
0.308399
0.283541
0.255939
0.301615
0.235318
0.310957
0.254908
0.255577
0.263947
0.247878
0.262082
0.207924
0.272438
0.208997
0.205550
0.142087
0.154869
0.130661
0.124057
0.072514
0.104652
0.070751
0.121089
0.108220
0.152094
0.018676
0.071108
0.063128
0.045100
0.187339
0.074501
0.266672
0.422278
0.687986
1.049217
1.300080
1.437106
1.347040
1.163042
0.700771
0.392800
0.177566
-0.086839
-0.057953
-0.054844
-0.009320
0.061777
0.092199
0.133556
0.160483
0.264094
0.179453
0.117561
0.214304
0.234083
0.244266
0.230334
0.290878
0.224366
0.346303
0.292344
0.423416
0.414610
0.442452
0.460991
0.506690
0.452691
0.517094
0.586490
0.559351
0.422498
0.544958
0.576629
0.547496
0.525543
0.605918
0.537426
0.533722
0.549830
0.584072
0.624220
0.570100
0.438517
0.546122
0.452710
0.480159
0.418418
0.395536
0.467165
0.405680
0.426993
0.357782
0.372296
0.353361
0.260864
0.234875
0.248916
0.281498
0.227983
0.188528
0.196088
0.161976
0.255624
0.118740
0.125462
0.047363
0.028582
0.086623
0.051157
0.019730
0.031490
-0.058387
0.091059
0.058781
0.054598
0.043266
0.027859
0.044698
0.084502
0.027537
0.048322
-0.025349
0.072277
0.090832
0.056604
0.031511
0.060466
0.045200
0.026076
0.015093
-0.059541
0.057689
0.039085
0.015664
-0.033706
-0.042878
0.048551
-0.023639
0.040360
0.034180
0.059508
0.041211
-0.047369
-0.039379
0.008237
0.058761
0.055375
-0.017684
0.022735
0.056031
0.042681
0.054979
0.082023
0.093420
0.081282
0.095177
0.108448
0.099604
0.135391
0.234572
0.166447
0.150222
0.151873
0.112497
0.186381
0.195808
0.174067
0.192162
0.211396
0.126132
0.195523
0.168351
0.197919
0.133573
0.081343
0.096218
0.142433
0.133466
-0.007565
0.076641
0.135048
0.038399
0.076834
0.013027
-0.045342
-0.071314
-0.046369
-0.051310
-0.056904
0.000643
-0.070782
0.051400
0.050507
0.308599
0.459908
0.844180
1.113289
1.280863
1.321360
1.120898
0.866164
0.460523
0.152090
-0.049442
-0.169261
-0.164626
-0.069900
0.106215
0.045990
0.048063
0.031881
0.082617
0.026321
0.089172
0.185655
0.138483
0.168245
0.204784
0.237124
0.189055
0.276571
0.234352
0.259262
0.294523
0.279782
0.313484
0.309982
0.368173
0.342228
0.424117
0.410376
0.449583
0.481846
0.419574
0.495171
0.518552
0.479587
0.467397
0.463141
0.498838
0.513219
0.485221
0.563765
0.429564
0.374522
0.406372
0.488105
0.343349
0.365963
0.346330
0.415406
0.318166
0.239482
0.303532
0.176763
0.298354
0.145856
0.263987
0.207208
0.225313
0.003764
0.106110
0.028857
0.102436
-0.009242
0.057009
0.061022
0.032693
0.077683
-0.026244
0.017977
-0.038105
-0.026745
-0.039081
-0.047382
-0.095822
-0.060077
-0.048457
-0.054637
0.033942
-0.064436
-0.084453
-0.018987
-0.040218
-0.064236
-0.096522
-0.059842
-0.119899
-0.063115
-0.053314
-0.061859
-0.030920
-0.046096
-0.095676
-0.192662
-0.151035
-0.037834
-0.012078
-0.111572
-0.112397
-0.040708
-0.026519
-0.010310
0.004574
-0.070145
-0.045377
-0.112634
0.021869
-0.016707
-0.068270
-0.078229
-0.029992
-0.014130
0.030381
0.000324
-0.054200
0.082784
0.010270
0.015508
-0.006614
0.046516
0.107049
0.014528
0.162598
0.079366
0.077978
0.055927
0.082825
0.121340
0.113732
0.132610
0.076821
0.037190
0.069274
0.038060
0.016935
0.005556
-0.027194
0.043918
0.023139
0.007591
-0.003661
-0.048944
-0.067091
-0.035339
-0.127890
-0.108790
-0.085649
-0.144204
-0.025505
-0.069636
-0.048371
-0.032790
-0.014823
0.155909
0.326220
0.722034
0.987837
1.262030
1.294229
1.154383
0.765155
0.543066
0.189576
-0.063868
-0.167352
-0.157722
-0.178042
-0.124461
-0.102949
-0.053498
0.003460
0.008903
0.036810
0.103508
0.054768
0.073783
0.103657
0.184477
0.112058
0.230377
0.163838
0.210234
0.199154
0.217798
0.223436
0.280410
0.385315
0.346267
0.335692
0.351805
0.369352
0.456830
0.471116
0.418181
0.477991
0.471815
0.478033
0.429436
0.464550
0.446530
0.411044
0.392914
0.446335
0.463216
0.457332
0.364723
0.331849
0.266530
0.336202
0.350982
0.303944
0.352725
0.210397
0.260422
0.241758
0.253753
0.147385
0.251158
0.172647
0.103151
0.092163
0.108864
0.109614
0.104906
0.076263
0.048038
0.050004
0.041690
0.036242
-0.005960
-0.054591
-0.020088
-0.013082
-0.062342
-0.034796
-0.031415
0.025304
-0.048533
0.036482
-0.021674
-0.009362
0.004514
0.052508
-0.022057
0.051742
-0.073168
-0.140344
-0.099654
-0.018717
-0.039100
-0.098777
-0.082053
-0.015789
-0.055180
-0.081788
-0.042641
-0.058887
-0.049814
-0.034834
0.009578
-0.056072
-0.048255
-0.075332
-0.040524
-0.060539
-0.013980
-0.059588
-0.026197
0.015522
0.037167
0.023770
-0.050646
0.018596
0.040840
0.002718
-0.008115
0.107102
0.074490
0.148084
0.095229
0.087479
0.154572
0.084491
0.191909
0.086738
0.182993
0.140359
0.248366
0.164022
0.155632
0.162786
0.141076
0.127509
0.077324
0.187865
0.059109
0.119116
0.031994
0.058779
0.044238
0.033541
0.003423
0.075531
-0.000867
-0.020028
-0.087607
-0.043028
0.012804
-0.027399
0.057004
-0.038905
-0.013637
-0.014080
0.182406
0.214676
0.375042
0.657804
0.957833
1.136071
1.279265
1.230903
1.010983
0.713964
0.213442
0.029266
-0.086305
-0.102035
-0.086059
-0.086990
0.050895
0.091225
0.070046
0.113463
0.093253
0.137404
0.123159
0.105240
0.149198
0.246800
0.208499
0.261132
0.223059
0.224289
0.287828
0.269086
0.276762
0.399701
0.418040
0.413497
0.342847
0.507415
0.423236
0.445671
0.460167
0.419843
0.553602
0.567487
0.544219
0.562647
0.636371
0.644772
0.597091
0.513391
0.512028
0.565783
0.488097
0.620930
0.480985
0.501607
0.435926
0.475659
0.436612
0.438078
0.390337
0.384863
0.394637
0.221854
0.282188
0.307492
0.239281
0.181291
0.241596
0.170570
0.205543
0.141733
0.133320
0.098002
0.065606
0.031841
0.078437
0.099696
0.040339
0.099206
-0.024582
0.068571
0.054129
0.079219
0.172860
0.062432
0.117750
0.007409
0.087762
-0.112021
0.030751
-0.013486
-0.026364
0.078234
0.099238
0.106550
-0.028152
0.015189
0.020859
0.003663
0.035328
0.017957
0.052856
0.102533
0.098754
0.030197
-0.002629
0.059862
0.020919
0.093055
0.088574
0.056215
0.069541
0.063205
0.019836
0.147664
0.065217
0.023500
0.110070
0.098652
0.105294
0.175881
0.068133
0.159447
0.070869
0.214727
0.228662
0.189447
0.193973
0.211921
0.243361
0.273943
0.201229
0.266622
0.256556
0.287306
0.187417
0.213078
0.229356
0.255053
0.233343
0.339445
0.175347
0.140012
0.190997
0.171773
0.273119
0.242213
0.080034
0.208232
0.100127
0.054284
0.112472
0.105672
0.084411
0.058791
0.121514
0.094252
-0.031292
0.104600
0.064656
0.185986
0.212702
0.360739
0.581395
0.977050
1.186820
1.420090
1.375584
1.242110
0.816780
0.506855
0.082612
-0.041678
-0.008066
-0.006117
-0.035433
0.063511
0.151198
0.187706
0.208636
0.152303
0.234672
0.237835
0.225337
0.135088
0.216549
0.237955
0.246133
0.315087
0.328829
0.338764
0.292524
0.365170
0.410061
0.375262
0.425226
0.567607
0.458766
0.417792
0.553348
0.476737
0.488185
0.565701
0.564608
0.614577
0.547066
0.607886
0.531324
0.580904
0.501240
0.595270
0.560374
0.550506
0.476900
0.514300
0.452384
0.563880
0.454457
0.482871
0.465635
0.450111
0.338656
0.323040
0.309010
0.354266
0.314729
0.274735
0.331491
0.156087
0.228603
0.183214
0.152798
0.190599
0.186048
0.119189
0.105029
0.202901
0.126131
0.161768
0.029231
0.078311
0.058150
0.049805
0.104579
0.003974
0.084289
0.091468
0.086595
0.039403
0.080515
0.062589
0.095452
-0.012931
0.055645
-0.029306
0.063163
0.038316
0.037527
0.073327
0.048262
0.054114
0.027674
0.009578
0.008228
0.037236
0.016502
-0.004950
0.084835
0.097693
-0.003352
0.035193
0.098172
0.024859
0.179887
0.137983
0.146095
0.074061
0.084527
0.066575
0.079267
0.057653
0.071404
0.071932
0.134325
0.087406
0.059325
0.179180
0.215582
0.199148
0.186541
0.190387
0.124917
0.117251
0.234407
0.106220
0.197547
0.258846
0.262659
0.233402
0.155968
0.147647
0.256412
0.197833
0.194352
0.162887
0.138970
0.185467
0.137000
0.136570
0.120852
0.074454
0.005830
-0.037379
0.062031
0.009840
0.124176
0.094043
-0.001546
-0.048050
0.024079
-0.008834
0.049850
0.134112
0.256930
0.504255
0.826512
1.066627
1.298166
1.377682
1.341992
0.931884
0.522981
0.226190
-0.025198
-0.168000
-0.165682
-0.029962
-0.022964
0.167482
0.092978
-0.014323
0.144375
0.142901
0.093290
0.138174
0.104632
0.113711
0.310931
0.233182
0.253337
0.244646
0.296411
0.226410
0.312011
0.356389
0.386741
0.300994
0.485975
0.312968
0.398572
0.455625
0.551594
0.406909
0.428319
0.586992
0.515829
0.536893
0.489251
0.442504
0.594193
0.475691
0.462254
0.551392
0.429067
0.475159
0.511150
0.445659
0.461461
0.477073
0.349612
0.332417
0.393721
0.269544
0.338622
0.275081
0.310658
0.208922
0.293020
0.191784
0.127980
0.112310
0.185596
0.130444
0.069202
0.064710
0.091988
0.032507
-0.020087
0.067559
0.084793
0.010378
-0.012550
0.044322
0.038444
-0.010459
-0.035917
-0.111691
-0.077336
-0.027838
-0.051462
-0.110482
0.007633
-0.007850
-0.054965
-0.041796
-0.059038
-0.032698
0.015480
0.000521
-0.079561
-0.026184
0.012474
-0.046538
-0.044114
-0.139092
-0.123122
-0.034098
-0.077368
-0.069538
-0.031301
-0.093148
-0.074795
-0.069781
-0.051028
-0.118703
-0.040720
0.008704
-0.043933
0.002976
-0.044298
-0.028907
-0.057036
0.041867
0.064101
-0.043963
0.154599
0.022786
-0.017597
0.113211
0.032560
0.159423
0.138890
0.034248
0.047421
0.105444
0.159916
0.147253
0.130349
0.022904
0.090650
0.109110
0.090692
0.089773
0.081529
0.032160
-0.020063
0.033828
0.000640
0.031124
-0.047932
0.040682
-0.049990
0.024969
0.006886
-0.040090
-0.015874
-0.119923
-0.079264
-0.179886
-0.143884
-0.099671
-0.063796
-0.029009
0.048998
0.081574
0.370982
0.674333
0.915482
1.197535
1.360653
1.236880
0.886091
0.636016
0.275784
-0.100301
-0.118202
-0.245713
-0.133377
-0.112152
-0.021944
0.014565
-0.024617
0.075940
0.038000
0.055547
0.029612
0.044121
0.095704
0.126798
0.111086
0.149480
0.170079
0.155085
0.174173
0.246442
0.212678
0.336155
0.275871
0.289756
0.257124
0.334419
0.402687
0.386698
0.477300
0.343653
0.394167
0.346769
0.379412
0.441219
0.396968
0.444434
0.383894
0.390953
0.397531
0.377315
0.376336
0.398474
0.302128
0.385635
0.227670
0.173351
0.260698
0.213352
0.230566
0.275299
0.206953
0.181422
0.090766
0.110294
0.153090
0.096797
0.196543
0.104671
0.093981
-0.039143
0.010113
-0.014716
0.011086
-0.018947
-0.018712
-0.069037
-0.019201
-0.068054
-0.058657
-0.112171
-0.051217
-0.225427
-0.101437
-0.072793
-0.132608
-0.063517
-0.104387
-0.086622
-0.126448
-0.102327
-0.100488
-0.111461
-0.132204
-0.025523
-0.129254
-0.100870
-0.136759
-0.004522
-0.096551
-0.169439
-0.109042
-0.146058
-0.092036
-0.069315
-0.094638
-0.134704
-0.204130
-0.100082
-0.139869
-0.071987
-0.131982
-0.115097
0.014119
-0.126893
-0.124159
-0.141028
-0.054151
-0.110075
-0.110791
-0.039311
-0.093782
-0.033809
0.017550
0.011870
0.176985
0.002530
0.073216
0.082745
0.006020
0.036358
0.063566
0.098052
0.105036
0.074754
0.191044
0.147304
0.100180
0.037546
0.055096
0.086476
0.052890
-0.041710
-0.001325
0.008142
-0.030608
0.052423
0.011301
-0.002375
-0.023492
-0.097148
-0.044252
0.012318
-0.089090
-0.036979
-0.055251
-0.119486
-0.046247
-0.045932
-0.098039
0.024390
0.060949
0.244682
0.496188
0.825985
1.086454
1.329325
1.249959
1.097187
0.669860
0.317433
-0.007417
-0.149488
-0.202412
-0.166892
-0.142102
0.024427
0.052560
-0.011915
0.044024
0.062264
0.131742
0.071424
0.045224
0.093603
0.057035
0.091344
0.139351
0.210416
0.186955
0.212534
0.187412
0.228177
0.268735
0.186369
0.414018
0.288689
0.360090
0.328750
0.401151
0.430605
0.380551
0.460286
0.573158
0.555296
0.448366
0.445195
0.432386
0.512443
0.374471
0.448036
0.453764
0.357408
0.442498
0.323623
0.321509
0.409873
0.329154
0.425906
0.355580
0.333392
0.263126
0.258815
0.217404
0.191509
0.266280
0.176804
0.103811
0.132967
0.175777
0.145080
0.053844
0.063101
-0.017127
-0.006721
-0.037077
0.000149
-0.050945
0.013399
-0.044031
-0.036070
-0.063438
-0.032647
-0.088874
0.062164
-0.061737
-0.060711
-0.042515
-0.021726
-0.058618
-0.116232
-0.069625
0.026028
-0.002237
-0.075382
0.011909
0.022142
0.035820
0.035907
-0.067759
-0.018559
-0.027619
0.017931
-0.050722
-0.103744
-0.076105
0.001495
-0.000058
-0.066671
0.016479
0.031852
-0.030379
0.018009
-0.019126
0.022772
-0.024227
0.006246
0.006682
0.054700
0.065879
0.060662
0.062219
-0.003224
-0.035353
0.099790
0.057794
0.110355
0.117135
0.085304
0.142093
0.118608
0.138622
0.171148
0.100157
0.129382
0.160424
0.238312
0.186665
0.134327
0.163619
0.235548
0.066795
0.244475
0.156029
0.112787
0.109466
0.100532
0.087153
0.108043
0.105262
0.138293
0.161261
0.032040
0.086830
0.030774
-0.000200
0.071075
0.066937
0.060490
0.068665
0.059341
0.159658
0.209393
0.353817
0.510103
0.811263
1.194778
1.365895
1.355599
1.222338
0.887714
0.541985
0.212177
-0.063211
-0.131184
-0.100876
-0.032091
0.110694
0.029421
0.072171
0.076267
0.158717
0.151519
0.131338
0.191642
0.266499
0.183860
0.225039
0.222788
0.224226
0.349666
0.383705
0.308937
0.417632
0.305787
0.453157
0.405848
0.468898
0.530895
0.444504
0.503322
0.482677
0.550337
0.571543
0.505758
0.516978
0.608988
0.555115
0.553536
0.554806
0.550426
0.478852
0.516189
0.558326
0.557422
0.527630
0.500141
0.509081
0.479700
0.388533
0.447201
0.357186
0.474981
0.381439
0.364225
0.436805
0.381848
0.268990
0.279378
0.190753
0.194410
0.264790
0.259363
0.242861
0.176239
0.172813
0.193265
0.186202
0.206984
0.189264
0.165839
0.113254
0.073324
0.083684
0.104130
0.074964
0.081602
0.042639
0.042626
0.098739
0.061672
0.045207
0.040915
0.065552
0.119998
0.064450
0.060678
0.126405
0.114098
0.053828
0.098306
0.011273
0.058577
0.025619
0.038650
-0.015918
0.121252
0.069075
0.128017
0.136416
0.066118
0.149885
0.069971
0.017251
0.132205
0.053969
0.053897
0.032380
0.117106
0.092813
0.217783
0.159650
0.156475
0.166271
0.153416
0.102128
0.149226
0.215754
0.167368
0.163469
0.283387
0.235233
0.254191
0.239883
0.245587
0.185359
0.225239
0.257627
0.290342
0.265898
0.204727
0.217727
0.278339
0.281885
0.259423
0.142185
0.221220
0.167276
0.106524
0.157765
0.209518
0.151190
0.096619
0.122468
0.087285
0.100897
0.048082
0.089817
0.040103
0.067596
0.096667
0.079188
0.148020
0.191205
0.417890
0.489926
0.816537
1.185163
1.378981
1.428383
1.374036
1.029952
0.688610
0.330567
0.071061
-0.063593
-0.059794
-0.060922
0.007380
0.049986
0.159210
0.119367
0.121807
0.197789
0.151929
