0.028132
0.020102
-0.049565
0.025692
-0.055034
0.038608
0.021591
-0.045158
0.024161
0.013721
0.043403
0.034976
-0.018598
0.031556
0.041735
0.086085
0.062546
0.106336
0.026868
-0.033772
0.111794
0.045442
-0.008763
0.061758
0.042233
0.100074
0.040260
0.118892
0.120218
0.177732
0.099284
0.113801
0.101180
0.107457
0.154470
0.231530
0.131718
0.146615
0.135733
0.180038
0.169574
0.187044
0.187074
0.261650
0.246589
0.203132
0.302700
0.197249
0.100890
0.126568
0.244652
0.113264
0.122967
0.191914
0.133951
0.001939
-0.013973
0.050965
0.092312
0.036307
0.000153
0.055538
0.062367
0.029761
0.137612
0.054627
0.073705
0.090697
-0.000409
0.143154
0.007464
0.051023
-0.058837
0.067433
-0.035340
0.121092
0.027125
0.166650
0.384307
0.667150
1.046398
1.321229
1.435205
1.418058
1.191469
0.756415
0.518220
0.147568
-0.105169
-0.234264
-0.212685
-0.158368
-0.026446
-0.045241
0.065243
0.082711
0.112326
0.098858
0.049951
0.092264
0.038492
0.082364
0.157278
0.166931
0.088209
0.191101
0.170470
0.123739
0.136853
0.271226
0.217961
0.278109
0.184986
0.328256
0.313085
0.322294
0.370576
0.358286
0.362103
0.356708
0.489489
0.384674
0.456791
0.484045
0.426561
0.496371
0.520545
0.529271
0.618555
0.573580
0.551974
0.563712
0.542097
0.564767
0.584408
0.563235
0.627151
0.537800
0.647367
0.557507
0.534732
0.530203
0.516059
0.418097
0.462647
0.457453
0.480995
0.348377
0.345891
0.391609
0.332782
0.431853
0.316640
0.338454
0.264551
0.277588
0.264873
0.196502
0.208150
0.179520
0.124037
0.215519
0.204646
0.128920
0.118803
0.134008
0.178452
0.117785
0.146417
0.089807
0.145264
0.145699
0.090842
0.106054
0.109792
0.091018
0.153501
0.049193
0.166206
0.097767
0.040721
0.105907
0.129838
0.145975
0.110533
0.027751
0.081986
0.060367
0.118119
0.176938
0.036590
0.126376
0.121824
0.072807
0.091594
0.050396
-0.014493
0.037207
0.089108
0.124897
0.040478
0.133320
0.119374
0.037775
0.090533
0.097988
0.048387
0.111643
0.081018
0.078829
0.082981
0.089963
0.072790
0.057349
0.096754
0.105949
0.109701
0.118877
0.115987
0.131242
0.129661
0.052223
0.114133
0.087831
0.113147
0.106287
0.152845
0.118150
0.104723
0.112392
0.109954
0.100740
0.089384
0.064110
0.146239
0.168965
0.258612
0.280062
0.185744
0.155908
0.231148
0.237923
0.206416
0.243380
0.250990
0.296313
0.257131
0.243195
0.262827
0.292198
0.233097
0.271173
0.216698
0.209367
0.174967
0.157443
0.206514
0.164191
0.317508
0.256759
0.196062
0.126905
0.115586
0.146389
0.159339
0.179530
0.068498
0.121147
0.168623
0.130052
0.052450
0.029373
0.091087
0.007533
0.057948
0.066550
0.033708
0.072701
0.098525
0.072593
0.077019
0.085036
0.137705
0.242505
0.486442
0.884489
1.237417
1.412993
1.400742
1.350472
1.099574
0.694706
0.248341
-0.018655
-0.106302
-0.235455
-0.172725
-0.110319
-0.036432
-0.033623
0.051633
0.120715
0.097839
0.121538
0.096710
0.136633
0.073383
0.199853
0.040184
0.114440
0.199884
0.169269
0.163053
0.192087
0.207069
0.219099
0.206887
0.192191
0.256889
0.236146
0.269699
0.307144
0.295489
0.275981
0.406090
0.371699
0.450019
0.403635
0.407051
0.381099
0.490293
0.613857
0.590086
0.529756
0.575099
0.497378
0.574536
0.528332
0.539578
0.539066
0.583127
0.612416
0.531200
0.471404
0.543176
0.504501
0.435674
0.480731
0.481123
0.478371
0.435767
0.465877
0.364892
0.382741
0.378027
0.350612
0.303739
0.338515
0.255010
0.300310
0.253150
0.146316
0.195717
0.180371
0.148267
0.107681
0.157027
0.065231
0.116634
0.051440
0.079897
0.174775
0.002187
0.087110
-0.028127
0.091175
0.063573
-0.065831
0.047384
0.045593
0.032941
-0.000963
0.055236
0.064699
0.028846
-0.055510
0.082438
0.028663
0.062259
0.086668
-0.059093
-0.016532
0.040081
0.061813
0.025548
0.076784
0.076238
-0.035104
0.052899
0.118254
0.106030
0.066551
0.027651
-0.000761
-0.023544
-0.058536
0.102620
0.047280
0.015664
0.051828
-0.047202
-0.045563
-0.002678
-0.017361
0.023427
0.000204
0.035298
0.021975
0.075266
-0.025016
-0.013497
0.011023
0.081811
0.001499
-0.053711
0.014713
0.041868
-0.028575
-0.068706
0.013860
-0.004475
0.016753
0.014395
0.056833
-0.068145
0.158174
0.027037
0.056690
0.024812
0.037130
0.096272
0.105754
0.096366
0.057326
0.059491
0.155239
0.124679
0.112036
0.231275
0.223784
0.154254
0.213504
0.223919
0.173185
0.133875
0.123357
0.159282
0.060601
0.116101
0.159498
0.073053
0.105067
0.080497
0.103120
0.082565
0.094815
0.042061
0.000980
0.118470
-0.035161
-0.041721
0.009227
0.023559
0.004806
-0.037906
-0.018237
-0.011611
-0.023740
-0.010964
0.042374
-0.121608
-0.114252
0.031602
-0.037685
0.060846
-0.013496
-0.070071
-0.058449
0.129101
0.389722
0.549959
0.966468
1.163360
1.330682
1.353322
1.091044
0.753440
0.357350
0.099798
-0.191321
-0.254522
-0.240131
-0.170487
-0.151827
-0.058884
-0.024412
-0.048567
-0.098104
-0.000487
-0.027037
0.021627
-0.001250
-0.048789
0.002817
-0.016655
-0.009000
0.184955
0.100627
0.112325
0.096567
0.069136
0.055134
0.155288
0.085408
0.105047
0.166374
0.221239
0.293262
0.184808
0.260537
0.253288
0.312883
0.265205
0.331980
0.327096
0.365847
0.363206
0.472462
0.417242
0.449083
0.473959
0.439703
0.442643
0.498250
0.451034
0.498819
0.492990
0.472352
0.511946
0.458533
0.450681
0.463234
0.404387
0.400305
0.396621
0.391508
0.335507
0.370423
0.265543
0.243054
0.281645
0.257664
0.228083
0.199304
0.145824
0.148198
0.112364
0.254060
0.098619
0.136872
0.076418
0.131097
-0.000028
-0.003106
0.059812
0.009393
-0.040067
-0.018787
0.000533
-0.013878
0.010813
-0.101102
-0.014316
-0.006966
-0.008476
-0.043143
-0.072556
-0.003984
-0.008922
-0.037706
-0.067498
0.044483
-0.036291
-0.017180
-0.027013
0.015870
-0.060419
0.051290
-0.006506
-0.123827
-0.048620
-0.028838
0.031191
-0.065375
-0.018398
-0.104354
0.046823
-0.029632
-0.027871
0.004887
-0.017619
0.000746
-0.077193
-0.122730
-0.049656
-0.156803
0.010420
-0.038545
-0.048582
0.019650
0.015409
0.046097
-0.070359
-0.061740
-0.126492
0.007890
-0.039564
-0.054104
0.009513
-0.051479
-0.033260
0.070844
-0.084480
-0.002734
-0.088744
-0.076233
0.047882
-0.056266
0.021252
-0.066864
0.006004
0.026872
0.033672
0.050915
0.066670
0.116970
0.009053
0.029158
0.098832
0.048733
0.151076
0.077223
0.191942
0.120396
0.199331
0.172069
0.198950
0.210079
0.195021
0.051434
0.229056
0.146804
0.166280
0.061075
0.119868
0.076906
0.075244
0.096915
0.064467
0.020969
0.023189
0.091331
0.011164
-0.086094
0.012112
-0.002746
-0.013190
-0.067020
-0.059769
0.008330
0.054558
-0.010928
-0.013182
0.012715
-0.074059
0.003308
0.007616
0.018510
-0.042917
0.004400
-0.060450
-0.016412
0.010390
0.105345
0.212374
0.421142
0.802144
1.090019
1.375356
1.384303
1.215594
0.991086
0.592682
0.269119
-0.074688
-0.234681
-0.275053
-0.202666
-0.170261
-0.079216
-0.024553
0.013218
-0.078613
-0.006779
0.071284
0.085678
0.057423
0.061934
0.129366
0.096934
0.031488
0.062268
0.136496
0.047838
0.078661
0.153362
0.155210
0.280256
0.154825
0.226784
0.176703
0.217210
0.247844
0.291092
0.339049
0.312947
0.337572
0.466624
0.358391
0.450952
0.424243
0.407946
0.525297
0.502844
0.568849
0.453645
0.515490
0.540772
0.486463
0.547027
0.549390
0.513240
0.544393
0.537756
0.434546
0.555118
0.490313
0.474236
0.395716
0.462732
0.429083
0.468266
0.347866
0.370143
0.382216
0.359745
0.324076
0.360366
0.304706
0.250319
0.241585
0.220858
0.260263
0.157210
0.141034
0.180838
0.164141
0.186247
0.069618
0.134651
0.131459
0.072303
-0.006038
0.138684
0.081016
0.095921
0.077627
0.163635
0.119195
0.032183
0.020271
0.095001
0.061033
0.044462
0.005282
0.084955
0.035531
0.066010
-0.022279
0.093505
0.051381
0.088643
0.017643
0.001111
0.034752
0.119463
0.066692
-0.008992
0.051232
0.016971
-0.018942
-0.019193
0.012657
0.094934
0.000994
0.093009
0.068466
-0.005489
-0.031125
0.059523
0.115425
0.066582
0.113246
0.032759
0.098310
0.036512
0.076003
0.043696
0.054625
0.156795
0.072957
0.039654
0.150185
0.053651
0.018012
0.087405
0.003548
0.105311
0.134952
0.059785
0.104005
0.028072
0.191240
0.143643
0.070096
0.103591
0.164087
0.067889
0.114274
0.149653
0.226687
0.135154
0.233621
0.185220
0.193268
0.231251
0.234331
0.223457
0.271624
0.194923
0.236722
0.232831
0.278371
0.215022
0.235981
0.326524
0.314904
0.298459
0.224135
0.230497
0.165843
0.193647
0.167527
0.185868
0.159948
0.141016
0.193587
0.104402
0.090534
0.105989
0.141455
0.201229
0.136200
0.066390
0.147356
0.071462
0.139608
0.024239
0.070407
0.018012
0.039726
0.126579
0.094031
0.112955
0.096206
0.069703
0.016923
0.093148
0.128388
0.297084
0.434914
0.812866
1.055693
1.383831
1.500000
1.373732
1.211637
0.883301
0.527608
0.213896
-0.037200
-0.121445
-0.154694
-0.093596
0.071336
0.069993
0.059916
0.149381
0.109861
0.052832
0.128473
0.145700
0.145542
0.103747
0.189910
0.097580
0.115969
0.233779
0.273155
0.187863
0.199462
0.136315
0.265014
0.284709
0.332236
0.310122
0.330080
0.365178
0.275135
0.299811
0.354000
0.369778
0.412565
0.568360
0.475821
0.467345
0.580568
0.526402
0.528690
0.541920
0.583328
0.552055
0.632137
0.616878
0.676984
0.625528
0.636061
0.586687
0.608242
0.605709
0.665340
0.547300
0.567083
0.636352
0.455641
0.533068
0.509399
0.478312
0.452144
0.439609
0.398409
0.332946
0.316477
0.394454
0.363083
0.333728
0.302939
0.275524
0.226053
0.190317
0.129127
0.220908
0.117616
0.179167
0.140872
0.164701
0.196649
0.139399
0.134012
0.128480
0.068711
0.145362
0.066000
0.078642
0.143647
0.071690
0.050122
0.143138
0.104094
0.105979
0.033883
0.151283
0.057222
0.137955
0.095265
0.116659
0.090261
0.119820
0.036736
0.138489
0.011512
0.027423
0.126094
0.031019
0.108516
0.049319
0.029579
0.058965
0.087480
0.033527
0.137419
0.090609
0.011188
0.055619
0.038672
0.050011
0.088553
0.127615
0.113068
0.090268
0.006899
0.066230
0.150789
0.048827
0.056740
0.090249
0.069206
0.027351
0.139236
0.086273
0.107434
0.130436
0.100894
0.114199
0.032571
0.053108
0.110159
0.100701
0.115196
0.139203
0.163065
0.106191
0.096455
0.100858
0.062502
0.145496
0.141068
0.181856
0.178636
0.186644
0.216146
0.157894
0.179133
0.124266
0.238385
0.220225
0.164785
0.284553
0.180399
0.211498
0.240522
0.189342
0.241632
0.204919
0.223294
0.173519
0.229664
0.233954
0.146997
0.157262
0.262709
0.104442
0.082481
0.071282
0.025383
0.122967
0.069009
0.098554
0.053258
0.052979
0.006867
0.095890
-0.047242
0.059923
0.089217
0.078288
0.019782
-0.012029
0.080660
-0.019562
0.075133
0.024107
0.124740
0.055157
0.121939
0.266744
0.512233
0.837961
1.182536
1.428117
1.474715
1.246112
1.005894
0.630662
0.276625
-0.040868
-0.217789
-0.145862
-0.154343
-0.089441
-0.023316
-0.078419
-0.060445
0.076892
0.075958
0.000810
-0.011462
0.038131
0.136919
0.075908
0.082449
0.063042
0.046218
0.063429
0.183493
0.163497
0.178018
0.113195
0.204325
0.251250
0.191771
0.226368
0.251007
0.318293
0.284614
0.205767
0.343857
0.428683
0.374112
0.353717
0.377027
0.498222
0.367310
0.438345
0.378247
0.479920
0.451076
0.464488
0.477961
0.484945
0.535177
0.508858
0.521852
0.423305
0.529575
0.539677
0.479384
0.498301
0.408578
0.457198
0.393580
0.371455
0.363520
0.355650
0.344618
0.308735
0.301469
0.260378
0.195436
0.237551
0.209169
0.137621
0.080289
0.157098
0.156157
0.087009
0.096927
0.037957
0.109487
-0.029991
0.013531
-0.027923
0.079541
0.069973
0.038819
0.042742
0.007544
0.038951
0.029686
-0.044737
0.003003
-0.048549
-0.032392
-0.070834
-0.064351
-0.062933
-0.033125
0.104884
0.004809
-0.099078
-0.044291
0.103705
-0.034828
0.043433
-0.089485
-0.103095
-0.081152
-0.050553
-0.040597
-0.101901
-0.066725
-0.007174
-0.091940
-0.006257
-0.005605
-0.138202
0.004751
-0.106882
-0.032305
-0.108668
-0.057961
0.006291
-0.052914
-0.050189
-0.080457
-0.110606
-0.030738
0.020457
-0.081485
-0.083397
-0.089445
-0.129825
-0.066402
-0.065452
-0.000554
-0.126759
-0.021451
-0.011619
-0.047411
-0.027004
-0.216679
-0.062565
-0.043571
0.001423
-0.114413
-0.083625
-0.002452
-0.071500
0.023268
-0.028034
0.015688
-0.046257
-0.033174
0.071185
-0.019551
0.036035
0.027841
0.089385
0.110573
0.069998
0.150699
0.093803
0.178421
0.162692
0.081479
0.223874
0.096755
0.046060
0.062166
0.076805
0.027479
0.030669
0.035804
0.096777
0.032556
0.078039
-0.018677
0.092005
-0.057143
-0.044810
-0.013790
-0.003576
-0.050635
-0.002850
-0.077146
-0.093689
-0.019025
-0.101736
-0.069996
-0.143041
-0.075429
-0.041862
-0.056512
-0.099970
-0.035787
-0.102359
-0.031916
-0.125293
-0.092075
-0.043261
0.058833
0.299269
0.498463
0.996170
1.211711
1.308896
1.237869
0.971238
0.699059
0.322100
-0.027796
-0.256294
-0.361435
-0.348268
-0.277926
-0.155866
-0.148574
-0.118543
-0.105903
0.012118
-0.015988
-0.093484
-0.037170
-0.061238
-0.030938
-0.039748
-0.129543
0.033498
-0.027495
0.008140
-0.004605
0.066348
0.136428
0.086792
0.167265
0.139402
0.113656
0.172152
0.113434
0.114588
0.228156
0.232556
0.155441
0.273471
0.255671
0.277498
0.341939
0.403413
0.321035
0.383812
0.439048
0.474603
0.440807
0.457407
0.362719
0.489987
0.466371
0.403247
0.385034
0.509703
0.418128
0.442477
0.459100
0.384865
0.301080
0.372290
0.314235
0.328692
0.274363
0.359587
0.270753
0.285151
0.250627
0.225272
0.143762
0.214558
0.132057
0.103376
0.047281
0.142052
0.060380
0.051474
0.021915
0.060340
0.044881
0.020163
0.055070
0.020696
0.002134
0.007038
0.054178
-0.053973
-0.067933
-0.080376
-0.044633
-0.009554
0.013628
-0.122752
-0.059616
-0.120740
-0.091702
-0.025801
-0.100483
-0.055845
-0.076415
-0.082525
-0.076728
-0.010542
0.034351
-0.011617
-0.083978
-0.047697
-0.057187
-0.184225
-0.028194
-0.044087
-0.130481
-0.019350
0.027628
-0.088682
-0.046067
-0.042956
-0.104098
-0.069965
0.002187
-0.030462
-0.069291
-0.098442
-0.097217
-0.032288
-0.062359
0.002931
-0.044023
-0.044918
-0.034603
-0.024261
-0.083432
-0.019115
-0.017330
-0.085980
0.014977
-0.027437
-0.031109
-0.000448
-0.025602
-0.012309
-0.089036
-0.021443
0.011370
-0.106599
-0.073325
0.021737
0.020832
-0.055539
0.001422
-0.014962
0.035871
0.056142
0.097433
-0.066822
0.020842
0.088208
0.043358
0.122798
0.131594
0.077403
0.039481
0.075390
0.204052
0.154750
0.058650
0.137823
0.117579
0.150527
0.141613
0.059361
0.044678
0.162666
0.136002
0.131398
0.107379
0.054996
0.060633
0.025623
0.055589
-0.050291
-0.008087
0.015108
0.030292
0.059926
0.031653
0.017595
-0.050123
-0.000801
-0.047326
-0.045160
-0.039277
-0.012886
0.025551
0.011364
-0.079474
0.002518
-0.084486
-0.059337
0.011247
0.119678
0.281223
0.478415
0.831551
1.138124
1.343813
1.350258
1.191764
0.855833
0.568246
0.159796
-0.076565
-0.185264
-0.207396
-0.169170
-0.128461
-0.097104
0.033578
-0.137071
-0.047613
0.042736
0.035868
0.117041
-0.089984
0.011700
0.031621
0.052626
0.052627
0.033285
0.127308
0.062864
0.072161
0.074634
0.164800
0.200487
0.109750
0.261837
0.275049
0.202309
0.247200
0.290369
0.293447
0.339058
0.332917
0.309513
0.366590
0.363151
0.422713
0.422833
0.523457
0.530925
0.451107
0.479773
0.525507
0.452188
0.613183
0.512832
0.511207
0.543861
0.539106
0.531237
0.461684
0.510919
0.410323
0.418034
0.484231
0.424185
0.378133
0.431084
0.296113
0.367017
0.417753
0.339193
0.349019
0.313640
0.404809
0.163823
0.151557
0.210780
0.169836
0.212250
0.118782
0.209775
0.097224
0.093015
0.056339
0.022577
0.083799
0.062638
0.019514
0.034814
0.056566
0.102773
-0.009358
0.034005
0.088022
0.077045
0.043760
0.010872
0.040155
-0.013087
0.001486
0.065823
0.062149
0.051645
-0.046737
0.078437
0.052825
0.046378
-0.003242
0.008829
0.028194
0.044420
-0.026432
0.099158
0.122807
0.022000
0.014478
0.044359
0.097636
0.086466
0.015168
0.056137
-0.026892
-0.038881
0.097541
0.088199
0.130497
0.062047
0.136825
0.000746
0.081182
0.047836
0.106845
0.039386
-0.045356
0.024026
0.005628
0.067755
0.019592
0.095238
-0.003633
0.063623
0.049655
0.061827
0.037025
0.057755
0.071882
0.123013
0.138600
0.075492
0.109546
0.059663
0.044435
0.050184
0.100533
0.144557
0.109895
0.190187
0.145253
0.159553
0.170699
0.206199
0.221015
0.269701
0.209324
0.236919
0.197617
0.171119
0.201059
0.204302
0.244829
0.263687
0.191331
0.239457
0.274262
0.227918
0.212011
0.202764
0.140731
0.118794
0.186832
0.207966
0.124720
0.067755
0.035293
0.109848
0.073102
0.108599
0.116603
0.074127
-0.011087
0.073096
0.154360
0.105250
0.069913
0.014619
0.023510
0.099170
0.032567
0.020889
0.079885
0.030966
-0.032025
0.038235
-0.001906
0.199487
0.381679
0.713953
1.077652
1.316008
1.454376
1.371762
1.055737
0.821704
0.374352
0.118148
-0.178420
-0.115625
-0.239194
-0.155683
-0.080539
-0.000155
0.152121
0.029162
0.032555
0.142950
0.140730
0.040949
0.108647
0.059963
0.151696
0.101541
0.068322
0.139391
0.155602
0.111492
0.182735
0.220185
0.210441
0.237146
0.317817
0.263182
0.241867
0.263781
0.278819
0.229145
0.278052
0.348141
0.389795
0.389112
0.340172
0.471308
0.481476
0.467110
0.479401
0.529101
0.548171
0.469122
0.498173
0.527860
0.572760
0.589196
0.519070
0.529228
0.387243
0.546533
0.520865
0.453291
0.536350
0.497989
0.455374
0.470015
0.446440
0.429243
0.449786
0.352889
0.376631
0.334119
0.279855
0.266250
0.219887
0.239217
0.185278
0.133202
0.245111
0.273983
0.178825
0.125551
0.124113
0.147416
0.130906
0.076664
0.107502
0.179619
0.063008
-0.047372
0.145484
0.091674
0.011224
0.040055
0.064859
0.023953
-0.012681
0.071277
0.044108
0.044776
0.004750
0.028132
-0.041611
0.070389
0.035053
0.044103
0.077239
-0.004752
0.028310
0.049806
-0.029993
0.005321
0.005590
-0.015275
-0.002100
-0.024315
-0.013396
0.062848
0.088103
0.037990
-0.016981
-0.045439
-0.015175
-0.066069
0.050460
0.023336
0.051319
-0.042310
-0.004700
-0.101368
0.014912
-0.027271
0.008704
-0.006661
-0.074209
0.009887
0.017897
0.026580
0.033930
-0.000377
0.008123
-0.015611
0.022111
-0.041816
0.080309
-0.054022
0.002367
0.021838
-0.052817
-0.030690
-0.038723
0.017250
0.050644
0.027960
0.008974
0.032516
0.048966
0.017663
0.033512
-0.029503
0.169634
0.193775
0.141099
0.150744
0.137179
0.142164
0.079880
0.213506
0.127030
0.098594
0.196946
0.138141
0.135361
0.127557
0.197043
0.078801
0.195745
0.060697
0.091728
0.128999
-0.010151
0.085208
0.053161
0.041057
0.060249
0.006249
-0.083417
0.022322
-0.021102
-0.091608
-0.013493
0.034120
-0.020494
-0.031925
-0.038741
-0.052657
0.045868
-0.051421
0.017913
-0.041395
-0.071432
-0.071253
-0.097807
-0.143624
0.072797
0.276905
0.460306
0.774636
1.107265
1.282672
1.258287
1.179033
0.852671
0.481363
0.138744
-0.103103
-0.223521
-0.243139
-0.316203
-0.205070
-0.186668
0.029292
-0.106863
-0.033889
-0.081878
-0.113562
-0.065411
0.052921
0.008093
-0.036846
-0.003165
0.017659
0.007821
-0.023140
0.026721
0.079000
0.022266
0.067787
0.074761
0.176505
0.084430
0.166288
0.217368
0.183992
0.209235
0.240495
0.332406
0.266699
0.239007
0.287033
0.247973
0.366724
0.348455
0.417211
0.438972
0.442477
0.456056
0.462032
0.436608
0.417404
0.414662
0.486902
0.444864
0.418401
0.520811
0.365948
0.474434
0.423861
0.319205
0.385795
0.346183
0.287018
0.281826
0.273574
0.288243
0.272870
0.183985
0.197654
0.176101
0.157979
0.165414
0.122421
0.182376
0.069947
0.069240
0.164405
-0.045936
0.057474
0.059537
-0.019638
-0.062967
-0.053259
-0.018665
-0.024795
-0.108977
-0.079568
-0.031632
-0.073482
-0.086772
-0.065342
-0.023615
-0.095899
-0.084042
-0.105608
-0.062302
-0.059692
-0.163027
-0.126917
-0.072719
-0.083270
-0.110088
-0.115272
-0.110350
-0.150612
-0.102209
-0.047302
-0.098338
-0.123132
-0.136964
-0.144252
-0.090461
-0.080207
-0.166091
-0.080242
-0.150827
-0.098976
-0.108336
-0.183134
-0.203683
-0.129193
-0.033245
-0.051051
-0.053722
-0.084536
-0.150274
-0.135407
-0.086428
-0.017185
-0.128936
-0.037471
-0.089740
-0.108701
-0.153822
-0.201258
-0.119195
-0.161812
-0.107572
-0.124470
-0.132241
-0.093354
-0.063198
-0.074195
-0.092135
-0.007472
-0.089807
-0.091742
-0.059323
-0.095698
-0.053221
-0.044969
-0.022456
-0.081330
-0.058281
-0.009747
-0.057633
-0.044933
-0.052520
0.042425
-0.013999
0.061106
0.097763
0.052859
0.116177
0.079860
0.118585
0.090179
0.024226
0.151950
0.109636
0.061927
-0.002187
0.018936
0.046859
0.018804
0.017512
0.017126
-0.103848
-0.009759
-0.070184
-0.027945
-0.068756
-0.072557
-0.061619
-0.104132
-0.038398
-0.038944
-0.105130
-0.051180
-0.104705
-0.056926
-0.113366
-0.023978
-0.077020
-0.066706
-0.134648
-0.033231
-0.080215
-0.119075
-0.124035
-0.026173
0.124448
0.239983
0.557278
0.971886
1.192198
1.298874
1.298734
0.986347
0.648544
0.313708
-0.174060
-0.238710
-0.357661
-0.352223
-0.236420
-0.245455
-0.115980
-0.134441
-0.086512
-0.098538
-0.014002
-0.049938
0.028034
-0.093395
0.054738
-0.072839
-0.013380
-0.024416
0.019211
0.055623
0.002575
0.012103
0.077860
0.093964
0.115628
0.083797
-0.002156
0.160062
0.193318
0.284449
0.155641
0.292128
0.264672
0.244903
0.262118
0.295003
0.405437
0.345483
0.418370
0.406998
0.383588
0.384879
0.356549
0.394864
0.371955
0.477561
0.397822
0.380159
0.328032
0.437519
0.463871
0.394727
0.475639
0.420516
0.376023
0.404387
0.304430
0.336593
0.307072
0.325953
0.296967
0.301626
0.197640
0.260578
0.149342
0.252436
0.184240
0.165696
0.119892
0.108363
0.121613
0.138983
0.092526
0.063693
0.002448
0.002927
0.057216
0.003962
-0.019861
0.044604
0.048612
0.047220
-0.051876
-0.073385
-0.038453
-0.023862
-0.061553
0.080347
0.012379
-0.020309
-0.051385
-0.054651
-0.038378
-0.077574
-0.063977
0.033564
0.015952
-0.047761
-0.038416
-0.042044
-0.120570
-0.003278
-0.004050
-0.019394
-0.030658
-0.012924
-0.030150
0.019027
0.014606
-0.078704
-0.058995
-0.060280
-0.009778
-0.003278
-0.037238
-0.025365
0.012013
0.025132
-0.041403
-0.001282
0.013631
-0.031528
-0.011880
-0.037807
-0.101906
0.012996
-0.052658
-0.030078
0.021075
-0.026065
0.012363
-0.043286
0.059875
-0.071910
0.039079
-0.059557
-0.038630
-0.014774
-0.039975
-0.006136
0.054041
0.077841
0.046543
-0.057534
0.110160
0.136072
0.061970
0.120113
0.068539
0.129191
0.039147
0.119330
0.149396
0.084414
0.196688
0.178428
0.154909
0.262119
0.212202
0.173895
0.180122
0.156122
0.166790
0.197429
0.221781
0.103678
0.170423
0.137756
0.113541
0.180067
0.161257
0.158175
0.072844
0.064014
0.047328
0.123332
0.143322
0.039659
0.071496
0.047143
-0.020457
-0.004504
0.065144
0.051398
0.023615
0.093466
-0.001381
-0.037806
0.031823
0.038348
0.043077
-0.006829
0.026172
0.011710
-0.000159
-0.022716
0.265359
0.554540
0.876738
1.170887
1.458606
1.427578
1.221644
0.985710
0.533356
0.253567
-0.041645
-0.071677
-0.293978
-0.148216
-0.066231
-0.009332
0.038772
0.022000
0.030982
0.020757
0.085947
0.048661
0.057066
0.073432
-0.002851
0.039753
0.123341
0.150948
0.214184
0.196701
0.171946
0.156139
0.187230
0.205570
0.310711
0.278026
0.256126
0.288188
0.286617
0.302979
0.388850
0.309938
0.447056
0.378016
0.442332
0.535973
0.435878
0.517291
0.495738
0.521359
0.523948
0.564788
0.508533
0.525047
0.534612
0.567853
0.576231
0.551924
0.589161
0.546109
0.545056
0.574899
0.449431
0.423779
0.534868
0.531952
0.532550
0.459955
0.326374
0.459336
0.351966
0.360909
0.321248
0.364411
0.259199
0.343101
0.194390
0.308444
0.207331
0.300087
0.235836
0.249899
0.169093
0.150097
0.165203
0.202091
0.057596
0.113916
0.110762
-0.001524
0.129703
0.189082
0.024579
0.141011
-0.016067
0.027815
0.062862
0.073587
0.098701
0.066399
0.121890
0.119631
0.066932
0.026273
0.084699
0.098666
0.074077
0.092060
-0.008567
0.113099
0.095428
-0.007329
0.068872
0.076117
0.219464
0.105539
0.081597
0.072070
0.102497
0.096840
0.064836
0.089920
0.075507
0.118049
0.122533
0.012028
0.109053
0.155516
0.000504
0.067590
0.069674
0.129769
0.178209
0.026483
0.039738
0.032670
0.043737
0.146955
0.115683
0.183723
0.103405
0.033255
0.066237
0.032600
0.069547
0.076147
0.043138
0.072371
0.069717
0.079200
0.070260
0.080458
0.067619
0.125746
0.167237
0.181377
0.109230
0.229680
0.239812
0.181796
0.166241
0.156246
