-0.014399
0.002197
-0.036423
0.052051
0.032087
0.007248
0.003172
0.024941
0.010674
-0.007251
0.042812
0.080796
0.029936
0.053383
-0.054683
0.063207
0.089731
0.068636
0.095410
0.004665
0.004930
0.010047
0.029155
0.074913
0.061216
0.035270
-0.081105
0.023846
0.049976
0.054137
0.058964
0.060248
0.048432
0.031442
0.022602
0.079167
0.184281
0.123296
0.052623
0.224686
0.116455
0.119123
0.204207
0.181872
0.183786
0.279711
0.220656
0.226053
0.221372
0.144804
0.175361
0.296061
0.128383
0.202704
0.192687
0.061714
0.205728
0.085004
0.145763
0.100705
0.080710
0.131274
0.163646
0.098253
0.082894
0.011532
0.047462
0.004864
0.045791
0.070774
0.070218
0.047041
0.077713
0.014737
0.041605
0.014032
0.019209
0.043150
0.083400
0.032374
0.082893
-0.033918
0.008174
0.039817
0.092346
0.014541
0.036800
-0.013703
0.019399
-0.010536
0.208939
0.354860
0.639037
0.953075
1.286792
1.378369
1.338794
1.162108
0.829481
0.512415
0.145660
-0.028197
-0.189258
-0.220086
-0.174883
-0.092503
-0.068195
-0.030039
0.022677
0.122948
0.070846
0.057752
-0.009495
0.064416
0.084204
0.033069
0.104450
0.098091
0.058470
0.073559
0.123108
0.070762
0.107184
0.106480
0.181493
0.136525
0.138663
0.213212
0.195104
0.247091
0.149881
0.222207
0.157498
0.269628
0.287181
0.339994
0.246496
0.360099
0.365000
0.337507
0.393131
0.392572
0.414602
0.434613
0.466261
0.424281
0.487998
0.586636
0.517253
0.555577
0.549068
0.551441
0.578486
0.547246
0.618661
0.511367
0.578984
0.532884
0.539314
0.685511
0.520469
0.511494
0.452613
0.397849
0.417895
0.437983
0.429696
0.491532
0.306003
0.358335
0.338181
0.408737
0.290952
0.349252
0.268719
0.310791
0.207322
0.259251
0.211896
0.239025
0.179492
0.202743
0.192368
0.186237
0.117941
0.151270
0.122973
0.140765
0.149152
0.090466
0.032193
0.091989
0.102595
0.084830
0.154980
0.104351
0.091022
0.133588
0.078184
0.008430
0.058294
0.116894
0.012454
0.163068
0.011503
0.141763
0.113023
0.090986
0.113430
0.048150
0.081201
0.085731
0.065912
0.061384
0.050886
0.075575
0.038250
0.173935
0.139767
0.094480
0.095988
0.181883
0.124173
0.185064
0.138768
0.074675
0.035498
0.093457
0.102909
0.120116
0.077947
0.059255
0.125062
0.190381
0.048268
0.090635
0.081709
0.072240
0.073388
0.079188
0.097323
0.040510
0.003698
0.083129
0.118274
0.161607
0.017446
0.087568
0.134002
0.071357
0.099901
0.062010
0.126675
0.081867
0.008600
0.067214
0.139799
0.013750
0.069216
0.143365
0.080764
0.084111
0.127213
0.056667
0.047015
0.129531
0.071610
0.096807
0.122036
0.088138
0.106375
0.140110
0.166818
0.088012
0.122528
0.173664
0.184161
0.260499
0.258988
0.215005
0.218250
0.160588
0.209562
0.163438
0.258856
0.242005
0.251783
0.195723
0.332266
0.230546
0.184818
0.162540
0.157047
0.198718
0.208372
0.205416
0.194669
0.151013
0.169100
0.124006
0.145169
0.115835
0.119437
0.111456
0.060734
0.092620
0.074321
0.035567
0.082878
0.023051
-0.005598
0.028711
-0.018115
0.087943
0.094633
0.032786
-0.004603
0.089419
0.047898
0.118820
-0.018243
-0.004201
0.083319
0.104537
0.021481
-0.073557
-0.061334
-0.061129
0.095707
0.304628
0.689202
0.931274
1.224331
1.334991
1.443496
1.169356
0.986845
0.560907
0.181537
0.023264
-0.233366
-0.217026
-0.271567
-0.224564
-0.054694
-0.002627
-0.062640
0.177826
0.120248
0.014395
0.062047
0.062600
0.073019
0.072415
0.021758
0.092832
0.043379
-0.053818
0.085921
0.132319
0.038399
0.105286
0.074887
-0.014937
0.102967
0.094724
0.140479
0.090723
0.122555
0.222152
0.082267
0.209371
0.189018
0.204312
0.301174
0.292782
0.286634
0.325041
0.343047
0.352429
0.395221
0.378184
0.424531
0.398438
0.400281
0.493193
0.443665
0.458207
0.490452
0.482782
0.508897
0.518411
0.552300
0.468684
0.461591
0.509839
0.500911
0.371619
0.498303
0.420010
0.406631
0.458699
0.374814
0.356043
0.403449
0.319665
0.398976
0.342275
0.278392
0.263447
0.190996
0.169762
0.185471
0.171221
0.195427
0.159017
0.190779
0.145156
0.088994
0.092348
0.154780
0.142864
0.086294
0.081861
0.091746
-0.007409
0.033074
-0.024176
0.010101
0.003752
0.043716
0.056323
0.030238
-0.000830
-0.001002
0.059676
-0.027411
0.030249
-0.002514
-0.008005
0.099297
0.028484
-0.082347
-0.048179
0.011615
0.020077
-0.024297
0.023225
-0.009185
-0.044338
-0.062252
0.007777
0.062021
-0.028225
-0.026896
-0.002379
-0.019571
0.071263
0.058594
-0.032423
0.010131
0.025766
0.095718
-0.029721
-0.055434
-0.007192
-0.074147
-0.023425
-0.015225
-0.032853
-0.017982
0.065164
0.010153
0.059086
-0.052207
-0.048141
0.000463
0.035604
-0.036017
-0.061445
-0.048582
0.016067
-0.052280
-0.023370
-0.055807
-0.088921
-0.078912
-0.005084
0.067356
-0.019402
-0.003230
-0.054239
-0.036275
-0.035518
-0.034186
-0.013480
-0.067300
-0.010032
-0.018334
-0.013740
-0.035083
-0.067491
0.046236
0.025384
-0.000133
-0.041213
-0.007825
0.068446
-0.000699
0.026319
-0.002838
0.076966
0.000257
0.052360
-0.023551
0.135143
0.064191
0.124026
0.038882
0.130030
0.073100
0.172695
0.016533
0.139303
0.113446
0.101025
0.028128
0.126142
0.087721
0.100377
0.125970
0.111284
0.090177
-0.001052
0.137454
0.074812
-0.000496
0.053595
0.030272
-0.038335
0.019312
-0.047769
-0.037049
-0.031351
-0.031168
-0.038988
0.034064
-0.058675
-0.075752
-0.085774
-0.072298
-0.011938
-0.060911
-0.023842
-0.010019
-0.030130
-0.032031
-0.044178
-0.104130
-0.050930
-0.000559
-0.072290
0.002024
-0.079453
-0.047160
-0.021264
0.109859
0.279043
0.499970
0.826187
1.162256
1.306016
1.345358
1.129034
0.919870
0.494647
0.202371
-0.109024
-0.284726
-0.242023
-0.291496
-0.236358
-0.122502
-0.157254
-0.030655
-0.067979
-0.073730
-0.111227
-0.099482
0.045389
0.027441
-0.033459
-0.031818
-0.019941
-0.025629
-0.007124
-0.018448
-0.020090
0.022247
0.009351
0.033532
0.000270
0.045190
0.022321
0.022139
0.082398
0.086519
0.122899
0.101556
0.216072
0.135263
0.162504
0.184118
0.177912
0.269754
0.199122
0.329655
0.251050
0.364368
0.374003
0.380675
0.385806
0.403226
0.324904
0.452663
0.327212
0.491664
0.468132
0.440172
0.481882
0.462539
0.431235
0.439387
0.447872
0.403887
0.509301
0.457930
0.342293
0.402883
0.432013
0.346426
0.379871
0.296193
0.282257
0.299568
0.304615
0.309262
0.190273
0.209454
0.167806
0.234858
0.085022
0.149045
0.063103
0.117708
0.077444
0.091560
0.107781
0.036475
0.015539
0.072161
0.110841
0.028789
0.033677
-0.002123
0.006240
0.026290
-0.052059
0.002175
0.027246
-0.003359
0.010024
0.067812
0.023543
-0.010494
-0.016886
0.067982
0.009937
-0.004942
0.008111
-0.109120
-0.006744
-0.071174
-0.015136
0.054877
-0.034831
-0.030523
0.037496
0.066178
0.036061
0.035098
-0.005952
0.031402
-0.062932
-0.048073
-0.005322
0.020094
-0.019978
-0.013180
0.022095
-0.025658
-0.039866
0.040455
-0.065280
-0.012351
0.010827
-0.048384
-0.015166
-0.037891
-0.029957
0.095335
0.022123
-0.025434
-0.036274
0.071903
0.051128
-0.020723
-0.087811
0.010161
-0.010863
0.052089
0.026186
0.000131
-0.007942
-0.035830
-0.012380
0.039335
0.059657
-0.009129
-0.011525
-0.010700
0.048688
0.007209
-0.076552
0.021786
-0.003336
0.059937
-0.014967
0.108651
-0.032133
0.034526
0.032795
0.017475
0.109970
0.039015
0.081158
0.025268
0.110294
0.114303
0.074699
0.124386
0.137059
0.136519
0.117542
0.082117
0.151161
0.159433
0.172087
0.177756
0.196981
0.213837
0.189314
0.102842
0.145583
0.185572
0.180297
0.223054
0.149889
0.229853
0.171565
0.178980
0.091309
0.164815
0.059982
0.113260
0.115112
0.127023
0.074244
0.029356
0.133661
0.031349
0.006012
0.079201
0.053696
0.074560
0.031006
0.081805
0.028671
0.085753
0.061020
0.029056
0.035101
0.070923
-0.022314
-0.066473
0.038592
-0.041655
0.065622
-0.041771
0.042608
0.006863
0.016692
-0.000641
0.006332
0.080476
0.298599
0.522965
0.943460
1.165612
1.378975
1.382988
1.301613
1.034779
0.539254
0.292643
0.090904
-0.162103
-0.207292
-0.270109
-0.160507
-0.055340
-0.021756
0.013489
0.082927
0.115324
0.069843
0.090328
0.147331
0.033832
0.101050
0.150963
0.092212
-0.007473
0.064928
0.055150
0.102298
0.163795
0.121902
0.062366
0.106748
0.081648
0.178412
0.139225
0.141153
0.127965
0.219575
0.224518
0.213422
0.151323
0.294260
0.386090
0.301856
0.260328
0.352857
0.375621
0.445476
0.499193
0.335209
0.459098
0.486472
0.488452
0.470362
0.483305
0.535000
0.561603
0.539664
0.549075
0.562792
0.522057
0.639568
0.561725
0.579267
0.537220
0.589491
0.532374
0.561224
0.530908
0.498925
0.586241
0.517000
0.422819
0.429358
0.437131
0.346666
0.421317
0.271968
0.345817
0.294584
0.272593
0.285465
0.233351
0.221088
0.249586
0.267491
0.243560
0.176649
0.143237
0.183094
0.192887
0.142534
0.199183
0.126355
0.133943
0.114423
0.184708
0.111564
0.095952
0.082361
0.150030
0.123677
0.094546
-0.014725
0.051703
0.170579
0.083738
0.162781
0.085247
0.122234
0.047259
0.152566
0.089454
0.002605
-0.006664
0.059591
0.129142
0.031499
0.122894
0.093285
0.088728
0.178635
0.122077
0.089215
0.079891
0.116068
0.140285
0.067770
0.063061
0.151554
0.068574
0.108305
0.085157
0.119189
0.181528
0.092554
0.062008
0.064381
0.131511
0.095490
0.048870
0.135177
0.086445
0.104513
0.055939
0.185654
0.109915
0.105155
0.063060
0.036126
0.159361
0.075803
0.078712
0.026015
0.042925
0.128150
0.127199
0.074103
0.141524
0.090990
0.068448
0.135276
0.123260
0.078072
0.050968
0.031871
0.071377
0.041390
0.135800
0.140322
0.102760
0.116025
0.083776
0.067430
0.128267
0.128331
0.022872
0.136222
0.078165
0.175877
0.190387
0.116750
0.158178
0.206500
0.186231
0.201736
0.230147
0.274871
0.234009
0.239484
0.233616
0.183239
0.254977
0.313562
0.223635
0.292490
0.259451
0.199131
0.256782
0.227087
0.199907
0.242197
0.175938
0.178383
0.078853
0.179491
0.080310
0.181269
0.091528
0.095041
0.112326
-0.002304
0.015755
0.070088
0.099004
0.107427
0.066178
0.081856
0.050383
0.010846
0.094995
0.148210
0.108706
0.165415
0.115084
0.046644
0.099295
0.048597
-0.027078
0.117231
0.047861
-0.003366
0.024285
0.042228
0.116148
0.320012
0.509826
0.893380
1.176980
1.283622
1.500000
1.304459
0.998303
0.722982
0.306559
0.061657
-0.113358
-0.239810
-0.218536
-0.118910
-0.085032
-0.058170
0.133502
0.048797
0.038587
0.080239
0.094406
0.048833
0.118325
0.081875
0.049039
0.053527
0.069420
-0.039875
0.050353
0.164526
0.082456
0.071856
0.134635
0.082637
0.144100
0.088539
0.158301
0.164214
0.131085
0.164836
0.288902
0.203950
0.199229
0.241683
0.275093
0.234509
0.277057
0.291292
0.292526
0.366578
0.356398
0.364696
0.369210
0.411917
0.469384
0.456614
0.489863
0.490386
0.515952
0.538481
0.440541
0.550421
0.516202
0.497854
0.480407
0.522212
0.470773
0.463084
0.480101
0.472297
0.504604
0.447751
0.406297
0.381028
0.385345
0.392978
0.347028
0.356452
0.343194
0.260651
0.212133
0.333564
0.268905
0.244657
0.218292
0.165287
0.188386
0.171576
0.129018
0.169884
0.126841
0.059717
0.163532
0.075294
0.136358
0.001777
0.103564
0.010106
0.061309
0.108219
-0.005138
0.011401
0.046845
0.007356
-0.039500
0.074520
0.034029
-0.018315
0.023217
0.015178
0.087632
-0.036200
-0.020023
0.046921
0.034273
-0.016069
-0.060359
0.002128
0.010705
-0.050569
-0.006145
-0.010587
-0.003004
-0.048935
-0.041296
0.050322
-0.032413
-0.036504
0.045634
0.013296
-0.013873
0.020961
-0.040784
-0.040780
0.002014
-0.055358
-0.048862
0.000059
-0.063350
-0.009825
-0.065970
-0.046551
0.056616
-0.003845
-0.013542
0.042570
-0.029515
0.015121
0.018413
0.003449
-0.026833
0.079658
-0.010961
-0.067725
-0.045889
-0.085000
-0.113814
-0.049738
-0.033872
-0.026754
0.053515
-0.070969
0.012158
-0.024741
-0.015225
-0.047794
0.032849
0.000678
-0.029986
0.001256
0.069824
0.000757
-0.003278
-0.033719
-0.056175
-0.024273
-0.040241
-0.034554
0.011750
0.040695
0.067164
0.046506
0.035981
0.051641
0.139771
0.011057
0.086378
0.099152
0.150922
0.100217
0.065683
0.086598
0.174297
0.132693
0.099509
0.099124
0.075591
0.157479
0.091571
0.106587
0.151255
0.130971
0.094048
0.100046
-0.013106
0.073449
0.043233
-0.003759
0.042519
-0.017418
-0.018821
-0.071796
-0.063010
0.000714
-0.010758
-0.038962
0.009926
0.004280
-0.069976
-0.012594
-0.055037
-0.130884
-0.007728
-0.087106
-0.037645
-0.050828
-0.059838
-0.036217
-0.082322
-0.080070
0.019201
-0.056807
0.010394
-0.169809
-0.039911
-0.067730
-0.007118
0.148513
0.455412
0.706363
0.997266
1.237815
1.309825
1.181183
0.904508
0.612892
0.202952
0.037140
-0.208844
-0.406073
-0.363998
-0.368235
-0.203199
-0.160883
-0.083500
0.003832
-0.058670
-0.068029
-0.041795
-0.109151
-0.033734
-0.070249
-0.049412
-0.100898
-0.084841
-0.057011
-0.081633
-0.032254
-0.061521
-0.089630
0.037405
-0.017917
-0.035001
-0.032829
0.064411
-0.026732
0.058395
0.114097
0.066213
0.065339
0.068163
0.163716
0.095625
0.077461
0.274251
0.167301
0.263841
0.220964
0.390070
0.270885
0.266897
0.290019
0.369675
0.427966
0.305855
0.343590
0.388399
0.392443
0.406880
0.396642
0.395856
0.443600
0.320198
0.335821
0.451392
0.474189
0.476916
0.375540
0.319976
0.421108
0.390147
0.295502
0.270992
0.349140
0.253053
0.192625
0.274828
0.217531
0.087551
0.139950
0.129325
0.113256
0.125508
0.098143
0.062599
0.090242
0.167813
0.017598
0.012416
0.018836
0.055748
-0.018188
-0.147712
-0.011936
0.027214
-0.019067
-0.091901
-0.054564
-0.008578
0.008866
-0.073108
-0.052365
-0.076224
-0.107456
-0.006180
-0.112932
-0.062455
-0.042223
-0.034287
-0.048875
-0.054683
0.001080
-0.002157
-0.036065
-0.122525
-0.115176
-0.099550
-0.098755
-0.061679
-0.115958
-0.021654
0.030124
-0.132776
-0.045430
-0.098784
-0.059284
-0.052355
-0.011621
-0.034930
-0.008175
-0.108774
-0.077949
-0.056315
-0.009492
0.003355
-0.078395
-0.054645
-0.015928
0.015223
-0.002531
0.006027
-0.032441
-0.036452
-0.046596
-0.104578
0.021942
-0.120427
0.062824
-0.098170
-0.129127
-0.099264
-0.075600
-0.025747
-0.030878
-0.121689
0.040657
0.064450
-0.030060
-0.063196
-0.017834
-0.090350
-0.071422
-0.056751
-0.016406
-0.148061
-0.018571
0.038919
-0.019217
-0.030602
0.055966
0.001995
-0.066655
-0.024943
0.043834
-0.035688
0.011457
-0.036915
-0.032242
0.018382
0.089144
0.093629
0.134420
0.091649
0.044956
-0.015727
0.125723
0.128944
0.152800
0.124650
0.109638
0.105387
0.075671
0.050997
0.102154
0.055102
0.083803
0.137695
0.099918
0.102007
0.128233
0.039799
0.082900
0.061305
0.001492
0.055338
0.001494
0.053264
0.043175
0.023712
0.044895
-0.004000
0.034988
0.007285
-0.037845
-0.079000
0.024521
-0.001937
0.001593
-0.024928
-0.020262
0.058549
-0.033280
-0.023651
-0.016323
0.003305
0.012626
-0.068707
-0.019599
-0.060891
-0.073194
-0.002093
-0.018201
-0.061042
-0.087070
0.010747
0.210439
0.386676
0.680754
1.020106
1.327622
1.361752
1.231189
1.033717
0.622772
0.370098
0.053556
-0.151179
-0.307392
-0.337791
-0.231790
-0.141664
-0.121403
-0.005105
0.027485
-0.031766
-0.012570
0.034983
-0.025195
-0.023448
0.009612
0.027366
-0.054681
-0.011196
0.013021
0.058193
0.008979
0.076944
0.080034
0.053198
0.011217
0.089372
0.096782
0.068201
0.064658
0.095598
0.149456
0.164834
0.230116
0.176712
0.216539
0.213258
0.278934
0.205017
0.271184
0.258327
0.229054
0.354093
0.366693
0.372378
0.389729
0.404085
0.390329
0.453910
0.395629
0.447576
0.497408
0.469693
0.468951
0.481100
0.462656
0.513887
0.568047
0.519266
0.511057
0.469235
0.487548
0.456626
0.361891
0.456382
0.470582
0.383041
0.389505
0.346454
0.424054
0.354242
0.315302
0.348501
0.242717
0.236095
0.246960
0.216377
0.208803
0.128317
0.191675
0.142899
0.103755
0.165660
0.127160
0.199363
0.037022
0.105949
0.124597
0.062041
0.093652
0.086390
0.046147
-0.007553
0.116683
0.025892
0.017727
0.054217
0.001257
0.018829
0.080662
-0.003945
0.018621
0.000072
0.070283
0.103806
-0.005259
0.042420
0.122706
-0.022613
0.028271
0.068786
-0.005792
0.085084
0.058798
0.001734
0.049055
0.114121
0.105385
0.079650
0.044126
0.062245
-0.002313
-0.080110
-0.083931
-0.024590
0.072154
-0.019090
0.058429
0.115517
0.070880
-0.040315
0.028194
0.062156
0.080865
0.071431
0.073146
0.067599
0.100015
0.076745
0.119960
-0.008369
-0.002308
0.016913
0.026852
0.089501
0.055809
0.045501
0.062459
0.082526
0.041816
0.020610
0.082192
0.086878
0.109556
0.047188
0.072107
-0.029165
0.005929
-0.012692
0.035695
0.085230
0.030988
0.060474
-0.004255
0.046200
0.066930
0.029857
0.047295
0.057726
0.118812
0.061255
0.155842
-0.001829
0.076992
0.121863
0.149452
0.123377
0.201966
0.229596
0.127255
0.065384
0.187412
0.195478
0.296182
0.171164
0.222280
0.216286
0.169731
0.196215
0.220155
0.128133
0.213375
0.248284
0.258953
0.119079
0.175976
0.147405
0.142540
0.166201
0.110163
0.112679
-0.013386
0.110457
0.058125
0.053889
0.075375
0.064415
0.066983
0.023641
0.096733
0.146621
0.022217
0.011279
0.081245
0.055138
0.039784
0.065955
-0.017145
0.071844
0.017345
0.046787
-0.008237
0.079211
-0.009111
0.029809
0.025054
-0.006915
-0.022857
0.075745
0.182047
0.437549
0.726365
1.141613
1.260037
1.395377
1.283913
1.114847
0.776437
0.460986
0.114014
-0.107025
-0.257841
-0.241648
-0.158899
-0.098806
-0.017039
-0.033781
0.017012
-0.036298
0.053509
-0.012153
0.119069
0.019084
0.017977
0.036716
0.008154
-0.024326
0.017490
0.061076
0.101002
0.120082
-0.011311
0.066362
0.091799
0.146738
0.053787
0.108167
0.083025
0.121827
0.144660
0.193128
0.134661
0.168512
0.262499
0.235208
0.196302
0.238685
0.257635
0.284054
0.290582
0.362114
0.338491
0.406608
0.398463
0.434705
0.474877
0.388507
0.482309
0.460540
0.399393
0.481514
0.417997
0.495858
0.565724
0.490920
0.482891
0.498823
0.565904
0.532695
0.465957
0.554012
0.446621
0.484907
0.419028
0.366505
0.269740
0.315815
0.407485
0.279917
0.281669
0.231412
0.261399
0.270345
0.174679
0.168230
0.134820
0.219260
0.154288
0.132381
0.032193
0.126042
0.075011
0.080928
0.002733
0.045393
0.049652
0.043501
0.050909
0.028341
-0.059641
-0.006796
-0.014366
0.087602
0.007031
0.016034
-0.000975
0.012313
0.025520
-0.057951
-0.005286
-0.070059
-0.038147
-0.019760
-0.090221
-0.038421
0.063035
-0.019140
-0.018860
-0.015327
0.035873
-0.026261
-0.016921
0.025199
0.002988
-0.051164
-0.009415
-0.055796
0.013586
-0.005938
-0.043559
-0.021651
-0.009554
0.040252
-0.020910
-0.035868
0.008276
0.067432
-0.058059
-0.005001
-0.072116
-0.020161
-0.001162
-0.038695
-0.033295
-0.099720
-0.074440
-0.055157
-0.012762
-0.051137
-0.046684
-0.062490
-0.064887
-0.011180
-0.048560
-0.062120
-0.027046
-0.068730
-0.112536
-0.047176
-0.073533
-0.114425
-0.040870
-0.028483
-0.046097
-0.001821
-0.051227
-0.069083
0.052691
0.002551
-0.064864
-0.080633
-0.084898
0.017075
0.037822
-0.044953
0.078402
-0.028714
-0.038097
0.008928
0.014617
-0.045517
0.029047
0.013670
0.093922
0.040620
-0.037577
0.073259
0.116031
0.075147
0.087919
0.098932
0.080069
0.094946
0.081496
0.060724
0.022434
0.079927
0.179702
0.140761
0.091223
0.071408
0.025927
0.085152
0.050375
0.054496
0.071152
-0.016452
0.023844
0.074573
-0.026791
-0.005103
-0.020467
-0.055241
0.014278
-0.096528
-0.005305
-0.098174
-0.073620
-0.089050
0.035556
-0.121245
-0.048287
-0.152976
-0.094508
-0.147615
-0.047009
-0.065470
-0.066505
-0.062475
-0.104798
-0.018692
-0.126837
-0.150316
-0.134047
-0.196624
-0.108517
-0.075326
0.045996
0.294147
0.579413
1.033610
1.195071
1.348961
1.227758
1.027106
0.655952
0.268530
0.030200
-0.201635
-0.300640
-0.378131
-0.329087
-0.270125
-0.139077
-0.103198
-0.115434
-0.076202
-0.125173
-0.056830
-0.077345
-0.047780
-0.177851
0.015035
-0.014484
-0.099249
0.010057
-0.113167
-0.102967
-0.015358
-0.019680
-0.072874
0.009934
-0.079792
-0.044136
-0.010682
-0.019548
0.061981
0.025977
0.059262
0.059551
0.085724
0.062452
0.115945
0.104622
0.143828
0.230508
0.234961
0.196447
0.230817
0.225160
0.288642
0.294912
0.370483
0.321769
0.337399
0.332893
0.312904
0.367544
0.364227
0.382333
0.339719
0.338144
0.424008
0.420613
0.413216
0.374459
0.333874
0.408989
0.362749
0.310613
0.251766
0.365376
0.289888
0.255148
0.285694
0.170637
0.300385
0.181195
0.159665
0.156671
0.122153
0.118156
0.048104
0.182421
0.085307
0.066461
0.042748
0.066912
0.071954
-0.097196
-0.015175
0.006255
-0.055023
0.012838
-0.046963
-0.004973
-0.017035
-0.071591
-0.043034
-0.129018
-0.024776
-0.111675
-0.066303
-0.098636
-0.061796
-0.105366
-0.139774
-0.143781
-0.166285
-0.070925
-0.113695
-0.123627
-0.122363
-0.028175
-0.049834
-0.073723
-0.088270
-0.059210
-0.068232
-0.123483
-0.071148
-0.047467
-0.080960
-0.053234
-0.140618
-0.009575
-0.100877
-0.094023
-0.105526
-0.147335
-0.107492
-0.144586
-0.111132
-0.132201
-0.078225
-0.021522
-0.061942
-0.098010
-0.113977
-0.073643
-0.081462
0.027277
-0.070631
-0.048218
-0.072142
-0.173323
-0.073601
-0.150762
-0.055372
-0.061887
-0.073151
-0.115141
-0.063972
-0.022053
-0.083265
-0.068623
-0.132786
-0.138862
-0.115636
-0.089243
-0.082313
-0.050392
-0.056424
-0.176699
-0.027572
-0.132209
-0.102955
-0.064003
-0.111025
-0.052637
-0.005487
-0.011682
-0.046419
-0.048910
-0.095902
-0.053635
0.024406
-0.035602
-0.121359
0.054235
-0.001950
0.020168
0.074252
0.032212
0.104810
-0.007670
0.106899
0.151436
0.094301
0.060032
0.054598
0.107987
0.075844
0.092564
0.095002
0.198972
0.050257
0.099948
0.135365
0.011673
0.076657
0.063934
0.037555
0.005165
-0.026627
-0.004203
0.032113
0.027385
-0.074576
-0.069443
-0.011740
-0.034676
0.001084
-0.097345
-0.078137
0.009058
-0.084797
-0.071203
-0.047715
-0.031101
-0.049152
-0.036631
-0.020869
-0.019456
-0.026806
-0.061159
-0.009122
0.001045
-0.007844
-0.034056
-0.034057
-0.071071
-0.046710
-0.064297
-0.008749
0.075599
0.295469
0.588904
0.874923
1.231514
1.311001
1.276207
1.046517
0.692052
0.425563
0.095680
-0.176296
-0.305061
-0.325895
-0.342081
-0.215229
-0.155099
-0.080385
-0.053720
-0.043049
-0.010197
-0.054333
0.047047
-0.006044
-0.000553
-0.001268
0.041482
0.061392
-0.015766
0.046467
-0.028033
0.016339
0.062569
0.037630
0.048310
0.059982
0.077180
0.037759
0.115478
0.041346
0.070142
0.071287
0.160010
0.226434
0.207887
0.169391
0.175742
0.272320
0.277392
0.288153
0.356612
0.337476
0.388548
0.372163
0.370011
0.489111
0.408086
0.419101
0.484805
0.473472
0.416930
0.462286
0.487264
0.535688
0.519521
0.478370
0.409581
0.479853
0.561519
0.436476
0.518753
0.439390
0.399923
0.364756
0.459968
0.384550
0.442690
0.382153
0.331353
0.312832
0.266564
0.216069
0.207019
0.179521
0.250371
0.246809
0.199353
0.196654
0.157317
0.155573
0.155593
0.003279
0.048680
0.098993
0.049916
0.064128
0.025653
0.129832
0.066212
0.004253
0.099351
0.069069
0.073972
0.063958
0.039006
0.045410
0.001082
0.053447
-0.001554
-0.039795
0.056749
0.089318
0.057321
-0.040963
0.056633
0.029874
0.049906
0.063978
0.040949
-0.050261
0.033703
0.057395
-0.013209
0.084343
0.012295
0.089100
0.003079
0.046753
0.031953
-0.004438
0.021773
0.086615
0.050305
0.012171
0.018399
0.048330
0.118748
0.068319
-0.013209
0.119964
0.033795
0.009315
0.034135
0.042903
0.026295
0.082981
-0.046736
0.073590
0.039115
0.046693
0.042990
0.055180
0.011907
-0.010143
0.090844
-0.055144
0.077799
0.046253
0.018144
-0.045692
0.051310
0.022056
0.144851
0.031246
0.152146
0.038581
-0.011792
0.037334
0.095036
0.097624
0.014606
-0.003770
0.103505
0.119491
0.054797
0.094950
0.076657
-0.014879
0.113852
0.029093
0.078230
0.077163
0.080646
0.067455
0.180168
0.170645
0.151824
0.090312
0.208996
0.184011
0.164019
0.210282
0.186558
0.149030
0.179081
0.234879
0.221310
0.174597
0.177057
0.212358
0.225420
0.220408
0.159013
0.168478
0.125508
0.181725
0.175597
0.120157
0.140608
0.131004
0.139005
0.028482
0.155989
0.055672
0.141811
0.063437
0.107368
0.055136
0.080020
0.075760
0.075060
0.048691
0.078477
0.088899
0.040309
-0.009215
0.116287
0.051575
0.016712
0.066526
0.073040
0.030026
0.015854
0.023089
0.017023
-0.004474
-0.010788
0.058969
0.083169
0.408179
0.709238
1.053620
1.332538
1.428542
1.339779
1.135826
0.969940
0.564032
0.249709
0.028423
-0.173416
-0.054327
-0.256738
-0.108738
-0.062187
-0.046024
0.030317
0.070023
0.104783
0.048591
0.005891
0.071079
0.087585
0.042379
0.013732
0.116512
0.127055
