-0.022914
-0.039706
-0.012119
0.025459
0.022285
-0.018629
0.003613
-0.034513
-0.017535
-0.003372
0.045805
-0.072660
-0.039553
0.000405
-0.047497
0.006539
0.043902
0.113782
0.049629
0.020255
0.071064
-0.032078
0.047257
0.082702
0.058828
0.109514
0.214550
0.125187
0.037220
0.131575
0.162917
0.127161
0.126897
0.187031
0.212476
0.192664
0.255578
0.208729
0.181123
0.175979
0.248004
0.226112
0.177863
0.185929
0.181621
0.166195
0.162254
0.150467
0.131708
0.175861
0.093988
0.143028
0.031315
0.037057
0.127008
0.047414
0.125735
0.047605
0.090047
0.075248
0.064946
0.081620
0.059269
0.049190
0.051102
0.114748
0.035013
0.045296
0.088190
-0.001254
0.009500
0.069030
0.081510
0.085416
0.267982
0.448773
0.777425
1.074408
1.325486
1.380219
1.364736
1.093332
0.707417
0.371081
0.139638
-0.107813
-0.301031
-0.074213
-0.092235
0.043372
0.129816
0.129711
0.096890
0.105564
0.122685
0.099169
0.061581
0.199959
0.167783
0.166245
0.185560
0.118984
0.183359
0.298732
0.167928
0.259149
0.191270
0.312398
0.238325
0.260144
0.239084
0.381636
0.431818
0.311937
0.342204
0.488862
0.372124
0.481840
0.462308
0.507720
0.525761
0.511421
0.532208
0.537447
0.448059
0.560784
0.605564
0.601281
0.597178
0.456988
0.581132
0.592255
0.619048
0.558445
0.543097
0.500478
0.528933
0.508581
0.512367
0.582847
0.422927
0.409606
0.442027
0.477603
0.409182
0.383256
0.320985
0.358431
0.280844
0.309044
0.301232
0.213604
0.214069
0.212542
0.217879
0.124368
0.187304
0.132574
0.169779
0.144113
0.179367
0.096770
0.211775
0.060353
0.048717
0.057235
0.085524
0.114584
0.110229
0.134814
0.090280
0.109374
0.091355
0.163089
0.006689
0.038445
0.059036
0.005377
0.147024
0.033738
0.128725
0.078723
0.132435
0.007523
0.108220
0.072875
0.056326
0.057801
0.127594
0.072721
0.094051
0.020158
0.083878
0.035426
0.210087
0.107258
0.072327
0.124562
0.005846
0.089831
0.104501
0.065797
0.023035
0.128487
0.092544
0.061727
0.024450
0.051622
0.011512
0.086220
0.082176
0.068265
0.079515
0.055783
0.130078
0.140834
0.070388
0.104589
0.135011
0.178138
0.090084
0.181528
0.108656
0.151706
0.142113
0.145998
0.189603
0.148206
0.273925
0.188471
0.183180
0.231021
0.198785
0.218344
0.334016
0.241949
0.241049
0.294987
0.278292
0.274679
0.303956
0.226226
0.218567
0.260806
0.158384
0.189982
0.160804
0.181492
0.176299
0.149803
0.165401
0.122700
0.113761
0.109228
0.117189
0.102266
0.126542
0.130936
0.128456
0.094975
-0.015412
0.105509
0.079043
0.024723
0.119533
0.144857
0.142509
0.045616
-0.010590
0.082663
0.074949
0.166398
0.345229
0.724514
0.960705
1.312056
1.500000
1.452649
1.128976
0.855602
0.544023
0.159793
-0.002224
-0.085073
-0.093554
-0.128478
-0.034549
0.034159
0.116528
0.084205
0.088485
0.098938
0.060302
0.160459
0.185980
0.175539
0.152621
0.135133
0.192521
0.170278
0.209833
0.121357
0.172236
0.233080
0.307657
0.249567
0.314304
0.267192
0.218504
0.347673
0.336901
0.353680
0.386948
0.436186
0.480430
0.599905
0.463903
0.466989
0.556973
0.506281
0.576207
0.522316
0.544644
0.633682
0.611292
0.555584
0.529084
0.622343
0.525080
0.533869
0.563928
0.568844
0.451446
0.537022
0.457053
0.504765
0.378843
0.497843
0.407244
0.350648
0.305562
0.390270
0.340679
0.288381
0.335689
0.304704
0.257568
0.295579
0.153786
0.270963
0.186179
0.158096
0.205750
0.143705
0.149644
0.072258
0.103741
0.078166
0.077989
0.049847
0.126193
-0.001751
0.096965
0.049535
0.081492
0.031061
0.118824
-0.000263
0.089284
0.053193
0.029094
0.010480
0.042881
0.064165
0.040013
0.126574
-0.003511
0.043880
0.091679
0.037772
-0.020415
-0.003137
-0.015495
0.048275
-0.037041
-0.019311
0.035875
0.001595
-0.048223
-0.051537
-0.009837
-0.040399
0.022307
-0.083621
-0.008882
0.053699
0.047089
0.033150
0.055251
0.105347
0.017680
-0.040359
-0.080961
0.022544
0.019446
0.045725
0.060989
0.053744
0.025145
-0.083408
-0.019220
0.087762
0.062098
0.046089
0.090334
0.036639
0.035315
0.030583
0.045163
0.128363
0.080364
0.071138
0.036823
0.124194
0.046454
0.083776
0.119642
0.123424
0.160717
0.175277
0.157127
0.140674
0.170508
0.105979
0.218220
0.227511
0.143668
0.209745
0.163287
0.121007
0.179721
0.024279
0.112196
0.153365
0.038789
0.046724
0.003636
0.057036
0.029566
0.091733
0.092026
0.064317
0.007429
-0.065042
-0.022939
-0.022122
0.020468
0.058083
0.009157
-0.031959
-0.000776
-0.015227
-0.110484
-0.018838
-0.011432
0.016669
0.025950
0.044417
0.017518
0.221981
0.457744
0.755211
1.015203
1.365361
1.339571
1.205283
0.965172
0.552206
0.151130
-0.097985
-0.168157
-0.263879
-0.262856
-0.089338
-0.117287
0.009773
-0.094045
-0.023599
0.002071
0.039728
0.066655
0.020909
0.052404
0.038602
0.068409
0.042633
0.134569
0.084748
0.022194
0.127048
0.131166
0.120694
0.120796
0.158670
0.200700
0.198381
0.280560
0.148443
0.340343
0.284072
0.315205
0.277160
0.354346
0.389873
0.334518
0.347742
0.408421
0.411233
0.483123
0.406449
0.512163
0.515362
0.379122
0.523844
0.510842
0.408100
0.489966
0.476138
0.428441
0.388695
0.374548
0.450151
0.439387
0.366459
0.256815
0.265043
0.291311
0.279128
0.281958
0.306843
0.189407
0.243367
0.208211
0.095673
0.183633
0.036782
0.176386
0.093622
0.139213
0.161022
0.136546
0.084787
0.003294
0.022908
-0.022405
0.050146
-0.071245
-0.018488
-0.022372
0.022229
-0.052900
-0.044842
-0.071629
-0.145453
-0.049550
0.000594
-0.100464
0.044205
-0.017177
-0.033700
-0.085238
-0.047225
0.084613
-0.035149
0.081996
-0.032257
-0.067901
-0.044680
0.046003
-0.030979
-0.024025
0.000665
0.002664
-0.049183
-0.047775
-0.026470
-0.020060
-0.082046
-0.037785
0.057369
-0.049935
-0.031604
-0.066822
-0.082751
-0.022131
-0.017036
0.017711
-0.029034
0.011667
-0.043857
0.012120
0.002898
0.018048
-0.048997
-0.025059
0.009794
-0.076707
0.025249
-0.049474
0.002460
0.050863
-0.080422
-0.070265
0.034512
0.059298
0.010241
-0.021968
0.077563
-0.058056
0.005987
-0.007409
0.053706
0.058694
0.108699
0.152765
0.086262
0.133703
0.167115
0.147709
0.075775
0.159668
0.190322
0.104860
0.134396
0.125205
0.197861
0.172390
0.191167
0.151699
0.040279
-0.020361
0.072401
0.112959
0.049189
-0.034670
0.002795
0.066837
0.023037
0.005336
0.076865
-0.028532
0.013087
0.031062
-0.058857
0.047174
-0.021135
0.025992
0.025735
-0.073155
0.010457
-0.025594
-0.066608
0.012881
-0.039881
-0.038101
0.007149
0.168333
0.283485
0.630103
1.078435
1.206296
1.354054
1.317103
1.122408
0.701110
0.316607
-0.003508
-0.099877
-0.224725
-0.183227
-0.213413
-0.057662
-0.029995
-0.026279
0.071719
-0.011769
0.025296
0.044478
0.044885
-0.004430
0.054271
0.087055
0.055659
0.166095
0.051119
0.078264
0.140994
0.208079
0.088142
0.147246
0.239453
0.174336
0.292434
0.284575
0.304056
0.330768
0.275640
0.363685
0.305098
0.416320
0.391683
0.457826
0.503473
0.449610
0.394726
0.493266
0.453933
0.559599
0.521427
0.482602
0.452684
0.436481
0.504770
0.530043
0.480786
0.559572
0.441272
0.419163
0.490405
0.343590
0.462416
0.380304
0.401036
0.332652
0.366501
0.314283
0.370752
0.176476
0.247656
0.298630
0.267251
0.183384
0.248177
0.208401
0.215718
0.221343
0.148025
0.107508
-0.011948
0.088807
0.119666
0.085819
0.112902
0.086303
-0.007056
0.115111
0.107301
-0.062970
0.048907
-0.008647
0.031210
0.052149
0.000157
0.077861
0.087906
0.032907
0.066248
0.037747
0.106261
0.026553
0.012357
0.043877
-0.029192
-0.024929
0.021616
0.016548
0.096819
0.019662
0.036491
0.058055
0.014924
0.053615
0.088598
0.026384
0.018672
0.048119
0.056799
-0.007569
0.072683
0.008056
0.080943
0.045944
0.083841
0.063378
0.059408
0.049118
0.035683
0.018712
0.084488
0.000673
0.060471
0.045322
0.112672
0.124579
0.057712
0.073833
0.090883
0.055503
0.115883
0.097998
0.124994
-0.012708
0.093251
0.117908
0.098473
0.108375
0.050978
0.177542
0.270258
0.043377
0.144566
0.169149
0.244095
0.236566
0.186074
0.145917
0.288812
0.259660
0.237337
0.234951
0.270064
0.250953
0.243022
0.248546
0.224866
0.168845
0.233720
0.227670
0.184613
0.190174
0.129908
0.097881
0.153893
0.084133
0.169191
0.096846
0.161664
0.184387
0.120329
0.053228
0.039895
0.110718
0.036955
0.061080
0.112132
0.029941
0.049401
-0.040808
0.098971
0.147918
0.056939
0.107738
0.063444
0.182666
0.317165
0.599251
0.967629
1.248894
1.466289
1.404219
1.262974
0.888530
0.698206
0.251290
-0.056917
-0.090903
-0.121741
-0.024728
-0.068798
0.011214
0.084119
0.101086
0.140446
0.066113
0.190693
0.114744
0.086383
0.042219
0.165121
0.211884
0.074507
0.140511
0.269478
0.241308
0.203880
0.322885
0.286844
0.231620
0.335210
0.328422
0.351231
0.339302
0.310868
0.399534
0.434318
0.472525
0.502982
0.451362
0.502772
0.464230
0.496039
0.465397
0.519738
0.578169
0.618631
0.688095
0.582416
0.587889
0.599019
0.616278
0.594170
0.544500
0.566683
0.586047
0.537844
0.625354
0.538619
0.509160
0.555429
0.508272
0.460200
0.448949
0.390409
0.468258
0.317464
0.241666
0.329015
0.327169
0.335911
0.322731
0.210597
0.233664
0.222396
0.221428
0.237220
0.142669
0.146671
0.135211
0.197001
0.209692
0.207032
0.036015
0.118945
0.035925
0.110431
0.161430
0.185574
0.115858
0.290027
0.030358
0.141324
0.069844
0.134871
0.089684
0.153679
0.166018
0.070933
0.113281
0.022624
0.079754
0.047132
0.084422
0.137074
0.073980
0.047622
0.104855
0.065586
0.000690
0.114041
0.062121
0.065999
0.176608
0.185625
0.024944
0.129598
-0.015142
0.133986
-0.008069
0.155260
0.156166
0.029539
0.042583
0.086497
0.128038
0.008071
0.151523
0.104952
0.060488
0.005621
0.041414
0.171100
0.082247
0.083799
0.117966
0.097197
0.127271
0.071822
0.073260
0.071803
0.192046
0.127660
0.160946
0.120913
0.159319
0.268545
0.147034
0.179390
0.162167
0.184635
0.283839
0.249809
0.188868
0.301220
0.193123
0.215440
0.296000
0.260699
0.214676
0.359695
0.282593
0.228053
0.215108
0.172687
0.195420
0.206963
0.073416
0.092748
0.143199
0.128660
0.277973
0.153983
0.126497
0.139891
0.100092
0.093502
0.093089
0.112704
0.077350
0.089281
0.058770
0.053389
0.020472
0.099227
0.078521
0.021672
0.061230
0.057909
0.015532
0.037159
0.092990
0.088970
0.214181
0.392547
0.786715
1.158787
1.283375
1.442155
1.377445
1.031057
0.692881
0.309346
0.033059
-0.148341
-0.236162
-0.136005
-0.063012
-0.047421
0.044510
0.053348
0.039821
0.136600
0.051318
0.145096
0.128166
0.123190
0.137490
0.134638
0.097125
0.097234
0.189331
0.200036
0.212877
0.155631
0.207594
0.226417
0.283858
0.269673
0.311386
0.307020
0.322933
0.344441
0.344493
0.365937
0.420039
0.373941
0.476623
0.438067
0.531465
0.472657
0.467362
0.520745
0.588534
0.500211
0.589162
0.524423
0.531991
0.509843
0.529444
0.513254
0.542864
0.462659
0.487810
0.561512
0.452029
0.426720
0.461139
0.421119
0.348113
0.321761
0.389064
0.288708
0.351081
0.280901
0.268616
0.224353
0.242193
0.204602
0.249654
0.196473
0.184019
0.139764
0.136195
0.055425
0.003558
0.047014
0.060984
0.054321
0.107993
-0.002257
-0.024654
0.075860
0.066897
0.012509
0.014901
-0.071303
0.088581
-0.000281
-0.006051
0.017492
0.011048
-0.051996
0.008261
-0.017570
0.042250
-0.033355
-0.028763
-0.050811
-0.023848
0.003309
-0.027403
0.073338
-0.027859
-0.058521
-0.032515
0.048061
-0.013386
0.002222
-0.029492
-0.006288
0.043484
-0.027074
-0.097127
0.050947
-0.028682
-0.015220
-0.022744
0.000802
-0.073659
-0.033453
-0.046213
-0.108593
-0.037999
-0.103981
0.013675
0.003221
-0.005697
-0.076476
-0.050889
-0.048146
-0.062409
-0.077540
0.035710
0.015433
-0.009559
-0.034332
-0.033195
-0.044141
0.072202
-0.001928
0.112494
-0.000960
0.051591
0.153724
0.061943
0.063709
0.118088
0.097177
0.086835
0.143282
0.105126
0.135230
0.170269
0.203835
0.128989
0.090329
0.148910
0.064086
0.120823
0.143401
0.184215
0.053290
0.077961
0.019551
0.030049
-0.017505
0.089229
0.076832
0.042250
0.032036
0.037256
0.054885
-0.026601
-0.022407
-0.039152
-0.039524
-0.099267
-0.019721
-0.115424
-0.109369
-0.016704
-0.049862
-0.027215
-0.040975
-0.090368
-0.061509
-0.133410
-0.064714
-0.077340
0.086760
0.307553
0.581623
0.914599
1.170799
1.333514
1.239749
0.976440
0.663347
0.350598
-0.040673
-0.275428
-0.242006
-0.210033
-0.163064
-0.251939
-0.106145
-0.022971
-0.015470
-0.076960
-0.091641
-0.038696
0.001786
0.012800
-0.003521
0.035795
0.054696
0.086640
-0.015691
0.098761
0.117480
0.065217
0.120661
0.107963
0.125507
0.125709
0.197790
0.167801
0.188153
0.121376
0.204886
0.312175
0.237119
0.234704
0.312578
0.462838
0.403314
0.258150
0.381204
0.368132
0.409067
0.358132
0.348876
0.385365
0.467076
0.441491
0.430849
0.478844
0.433946
0.453916
0.433074
0.377493
0.401606
0.355157
0.316978
0.337449
0.300219
0.318439
0.335170
0.231146
0.240090
0.242359
0.179451
0.179395
0.119466
0.095454
0.020555
0.113105
0.108930
0.039114
0.059555
0.017981
0.053069
-0.013783
-0.008043
-0.068588
-0.042351
-0.054409
-0.071846
-0.129792
-0.047476
-0.103828
-0.003294
0.002671
-0.076822
-0.059149
-0.033250
-0.105969
0.004490
-0.036106
-0.058134
-0.100614
-0.063637
-0.062299
-0.106559
-0.107524
-0.097663
-0.029043
0.011309
0.019471
-0.053740
-0.142000
-0.037665
-0.128584
-0.054699
-0.043516
-0.055363
-0.060253
-0.099527
-0.027330
-0.044690
-0.042369
-0.099850
-0.059154
-0.093987
-0.104276
-0.045335
-0.014406
-0.063135
-0.071066
-0.043896
-0.104092
-0.108697
-0.075105
-0.116685
-0.151084
-0.100223
-0.112089
-0.121014
-0.092776
-0.040798
-0.076463
-0.073245
0.021880
-0.073684
-0.066694
-0.033209
-0.051005
0.020056
-0.026921
0.035777
0.017646
0.054304
-0.032748
0.087318
0.078553
0.080311
0.125204
0.097240
0.136624
0.035341
0.103080
0.170216
0.179904
0.065613
0.107923
0.053928
0.136281
0.070656
0.089969
0.050419
0.009139
0.003484
0.005973
0.011517
-0.029841
0.002366
0.004457
-0.057147
-0.074141
-0.038195
-0.026181
-0.003015
-0.040658
-0.079940
0.006437
-0.014707
-0.054902
-0.046420
-0.080784
-0.054413
-0.019199
-0.079337
-0.034704
-0.058004
-0.105758
0.002378
-0.039459
0.199318
0.406793
0.771835
0.997955
1.298442
1.312737
1.137426
0.802791
0.527715
0.146597
-0.021186
-0.257965
-0.213424
-0.117029
-0.131307
-0.050115
-0.082602
0.047284
0.001330
-0.033152
0.080785
0.013001
0.081242
0.059753
0.065195
-0.008711
-0.005963
0.083354
0.118876
0.127820
0.103383
0.150597
0.177565
0.149312
0.227510
0.191058
0.279525
0.284594
0.179964
0.244741
0.243114
0.291669
0.331331
0.387727
0.354339
0.426080
0.452259
0.409942
0.413326
0.465287
0.467428
0.421399
0.461013
0.411481
0.502387
0.450346
0.436005
0.454437
0.443656
0.483236
0.427645
0.577957
0.439109
0.460116
0.415822
0.429701
0.348532
0.379674
0.321597
0.259220
0.251807
0.197909
0.256513
0.167528
0.267883
0.177013
0.213627
0.103511
0.142400
0.134102
0.115322
0.138673
0.039506
0.059379
0.104368
0.091888
0.011899
0.001326
0.065412
0.029396
0.042348
0.002225
0.046240
-0.011821
0.044773
0.093008
0.057763
0.043686
-0.097518
-0.063646
0.005503
0.042612
0.037991
-0.026228
0.005839
0.126358
-0.058053
0.025161
-0.003990
-0.027688
-0.048289
0.013644
0.119952
0.003616
0.087500
-0.107836
-0.001182
0.083870
-0.046006
0.039323
-0.064702
0.000272
0.006889
0.015614
0.026115
0.073093
-0.033517
-0.054311
0.030106
-0.045300
0.075570
0.072673
-0.053190
0.136369
0.011559
0.049293
0.030450
-0.000321
0.009556
0.016439
0.022474
0.098623
0.035100
0.117852
0.040038
0.042299
0.049364
0.067913
0.073581
0.094433
0.117275
0.159323
0.176668
0.197452
0.198754
0.160632
0.279865
0.202909
0.207107
0.175751
0.264830
0.236377
0.153214
0.245279
0.214971
0.202688
0.261797
0.199483
0.155232
0.230906
0.151207
0.187162
0.118056
0.099981
0.028505
0.157069
0.221714
0.054734
0.136981
0.060763
0.118894
0.114194
0.056312
0.069890
0.095027
0.088298
0.044159
0.095245
0.024049
0.022067
0.010062
0.044254
0.046285
0.014408
0.065687
0.122452
0.073817
0.179645
0.470352
0.712383
1.080011
1.339616
1.361855
1.303409
1.093813
0.633888
0.332902
0.037746
-0.190599
-0.114634
-0.186386
-0.107610
-0.045481
0.086281
0.020557
0.117674
0.067114
-0.022240
0.036113
0.059140
0.113812
0.087806
0.211483
0.147375
0.289723
0.232646
0.175470
0.220582
0.156219
0.217873
0.283541
0.256739
0.352299
0.324763
0.340295
0.287519
0.274023
0.390785
0.394454
0.355676
0.400953
0.370323
0.404706
0.415031
0.516783
0.480463
0.582400
0.534799
0.557246
0.527256
0.568517
0.600133
0.599702
0.573407
0.561845
0.465442
0.566517
0.508999
0.508477
0.529561
0.431220
0.445154
0.403063
0.426149
0.368865
0.378040
0.376537
0.400392
0.367054
0.310688
0.214601
0.263691
0.242607
0.247837
0.226835
0.220462
0.162566
0.128557
0.146032
0.093873
0.118368
0.143784
0.028984
0.122358
0.187842
0.070744
0.048677
0.043309
0.026841
0.129132
0.031725
-0.002654
0.101050
0.029992
0.075931
0.039211
-0.015005
0.017288
0.040928
0.043254
0.023714
-0.037241
-0.067355
0.049151
0.028774
0.108172
0.047031
0.007956
0.016888
0.081197
-0.016308
0.029784
0.097904
0.064698
0.065917
0.020271
0.028347
0.063588
-0.064175
0.045664
0.006260
0.005373
0.014243
-0.009004
0.020265
0.090608
0.011011
0.042293
-0.025191
0.008589
-0.045356
0.087827
0.032137
0.031349
0.115960
-0.008749
0.065513
0.013404
0.046895
-0.003974
-0.035968
0.051205
0.124609
0.019519
0.074566
0.075016
0.075098
0.180404
0.103215
0.064917
0.191144
0.144861
0.218467
0.099303
0.277261
0.209168
0.214078
0.212408
0.239244
0.193494
0.079730
0.196725
0.249675
0.240067
0.114873
0.148525
0.120113
0.109730
0.133065
0.120142
0.040258
0.093171
0.095238
-0.021485
0.063536
0.071406
0.023689
0.028561
0.018912
0.050118
0.034596
0.054093
0.027755
-0.065262
0.013385
-0.031685
-0.015050
0.008003
-0.025504
0.001831
-0.005028
-0.079849
0.003762
0.004250
0.097288
0.285666
0.586205
0.913721
1.140613
1.328767
1.285624
1.112005
0.784226
0.417103
0.091405
-0.137454
-0.179888
-0.203617
-0.236316
-0.065659
-0.011362
-0.058056
-0.076494
-0.003249
-0.063601
-0.009217
0.037790
0.020962
-0.026909
0.012015
0.099985
0.102086
0.109532
0.123844
0.083678
0.141915
0.104720
0.141460
0.174403
0.148058
0.214575
0.197431
0.281514
0.216961
0.228256
0.320397
0.284690
0.351464
0.312755
0.405204
0.350421
0.356380
0.423103
0.311527
0.416907
0.477015
0.377126
0.473451
0.505911
0.438734
0.427032
0.513985
0.454319
0.495367
0.452365
0.434156
0.504335
0.358815
0.399551
0.335266
0.298376
0.371188
0.301492
0.370522
0.219807
0.338653
0.253944
0.268153
0.161936
0.199855
0.144170
0.103723
0.068206
0.124204
0.104934
0.075332
0.005794
0.114834
0.070406
0.057768
-0.020560
-0.058457
-0.065027
-0.006555
0.018060
-0.009885
-0.092320
-0.097178
-0.100974
0.007923
-0.045873
-0.030108
-0.106244
-0.115093
-0.057850
0.003306
-0.050384
-0.090883
-0.038666
-0.106301
-0.061688
-0.069467
-0.096873
-0.053555
-0.094438
-0.136918
0.056488
-0.061253
-0.061864
-0.094819
-0.008460
-0.104823
-0.083192
-0.147168
-0.013045
-0.069701
-0.135977
-0.007277
-0.034648
-0.102205
-0.056289
-0.073836
-0.112650
-0.183033
-0.052717
-0.074547
-0.142760
-0.100220
-0.096140
-0.135976
-0.079343
-0.091193
-0.003333
-0.081639
-0.085696
-0.063816
-0.118610
-0.072846
0.013890
-0.086590
-0.065477
-0.019157
-0.041164
0.004189
0.032304
-0.033989
-0.009413
0.026515
0.032816
0.029627
0.048054
0.087984
0.144661
0.077029
0.071353
0.043802
0.108634
0.113605
0.172296
0.087913
0.128044
0.159314
0.030061
0.089999
-0.001131
0.115382
-0.024617
0.104246
0.024439
-0.005207
0.003836
0.010866
-0.040856
-0.080647
-0.091521
-0.073256
-0.064685
-0.127633
-0.062764
-0.091074
-0.040061
-0.105778
-0.126651
-0.065542
-0.074379
-0.152913
-0.083136
-0.106285
0.005731
-0.140835
-0.027574
0.107157
0.153970
0.369607
0.755232
1.039094
1.194726
1.301837
1.162375
0.853799
0.489509
0.081601
-0.174045
-0.302544
-0.280534
-0.285730
-0.282755
-0.157691
-0.041521
-0.055784
-0.072151
-0.100376
-0.073081
0.019448
0.012578
-0.034908
-0.022068
-0.006098
0.046936
0.011061
0.115225
0.040524
0.085652
0.052409
0.042534
0.059215
0.088356
0.132353
0.160331
0.235241
0.173734
0.211702
0.221430
0.202022
0.226443
0.267272
0.288362
0.301271
0.293560
0.377184
0.429647
0.335832
0.441488
0.373178
0.405608
0.419181
0.517732
0.383108
0.469948
0.401200
0.450064
0.426653
0.347663
0.326328
0.342874
0.291891
0.329886
0.236601
0.284115
0.262584
0.247762
0.326685
0.208800
0.107096
0.193198
0.205921
0.173099
0.124815
0.022135
0.048056
0.030452
0.100285
0.008734
0.005671
-0.020990
-0.004764
-0.035472
-0.100935
-0.079519
-0.077677
-0.014279
-0.088212
-0.008105
-0.083878
0.019297
-0.052528
0.009407
-0.020069
-0.046433
-0.068811
-0.040920
-0.091525
-0.035949
-0.113314
-0.049936
-0.122707
-0.076737
-0.037058
-0.091045
-0.065798
-0.108594
-0.076588
-0.026271
-0.090487
-0.078752
-0.139251
-0.133460
-0.080446
-0.058129
-0.090898
-0.051880
-0.116683
-0.043869
-0.055166
-0.132695
-0.037876
-0.080101
-0.075790
-0.026731
-0.129457
-0.104841
-0.096475
-0.058949
-0.088087
-0.102144
-0.068223
-0.112167
-0.060769
-0.121469
0.002322
-0.034942
-0.069597
-0.058158
0.023825
-0.027837
-0.021327
-0.079583
-0.022911
0.005565
-0.040741
0.000815
0.014810
0.062386
0.021615
-0.078217
0.051381
0.009997
0.093041
0.103808
0.118519
0.167625
0.141217
0.172685
0.118846
0.146230
0.088009
0.082699
0.044721
0.111523
0.115122
0.090905
0.050940
0.084078
0.076612
-0.004637
0.083480
0.046733
-0.001826
-0.000583
0.073477
-0.062534
-0.033480
-0.008185
-0.115049
0.039876
-0.006420
-0.104968
-0.065547
0.005962
-0.044671
-0.082983
-0.133858
0.058729
-0.063612
-0.031262
0.007670
-0.005508
-0.003971
-0.043476
0.161890
0.320632
0.715364
0.935119
1.187821
1.286131
1.253818
1.035246
0.735965
0.316105
0.095210
-0.218651
-0.251739
-0.237369
-0.155374
-0.016879
-0.073549
-0.020621
-0.050052
0.008553
0.018363
0.012920
0.004172
-0.016209
0.020632
0.024778
0.094679
0.112936
0.071908
0.071879
0.146315
0.184533
0.108920
0.237673
0.172378
0.256684
0.212144
0.260183
0.211377
0.396886
0.357781
0.303978
0.366300
0.406854
0.455945
0.447290
0.411727
0.377470
0.490171
0.445088
0.437212
0.502393
0.489293
0.440637
0.530236
0.511642
0.530291
0.467175
0.490237
0.496411
0.471676
0.552662
0.490969
0.429662
0.412122
0.478820
0.399621
0.407322
0.385880
0.237700
0.320019
0.231494
0.243860
0.148755
0.253295
0.251508
0.193172
0.200266
0.143601
0.192784
0.155081
0.077547
0.068666
0.077242
0.111044
0.151519
-0.010599
0.115736
0.022369
0.056655
0.039803
0.121578
0.096900
0.031147
0.056252
0.093424
0.012769
0.061265
0.004595
0.048997
0.081234
0.025398
0.034039
0.074734
0.017960
0.075270
-0.022120
-0.003122
0.058472
0.054135
0.016735
0.034220
0.039897
-0.040054
0.044103
0.059321
0.102703
0.052508
0.043494
-0.033836
-0.008895
0.092267
0.022036
0.042730
0.024738
0.051261
0.102724
0.120705
0.071016
0.001614
0.030611
-0.017709
-0.033056
0.076711
0.115234
0.164814
0.104066
0.081447
0.043061
0.012615
0.097065
0.048518
0.099552
0.051496
0.125770
0.040285
0.128687
0.113163
0.077232
0.134758
0.065084
0.157506
0.214900
0.187316
0.213684
0.289409
0.170457
0.204605
0.225810
0.222729
0.176399
0.236601
0.252509
0.262016
0.260985
0.165086
0.182499
0.231925
0.158994
0.235206
0.254039
0.099589
0.166934
0.196678
0.219520
0.047635
0.130585
0.071042
0.155845
0.169557
0.102166
0.107333
0.121879
0.108284
0.085434
0.062089
0.047755
0.046108
0.118195
-0.004678
0.133026
0.043042
0.090121
0.046428
0.065666
0.033028
0.117538
0.212395
0.346699
0.609818
0.937178
1.252299
1.329346
1.354120
1.180120
0.826779
0.519859
0.172949
0.004444
-0.156841
-0.151394
-0.076653
-0.023986
0.070345
0.099294
0.103259
0.075736
0.097291
0.143552
0.067356
0.138983
0.173451
0.173216
0.126493
0.089400
0.105215
0.207591
0.225922
0.205686
0.263302
0.214516
0.255607
0.341507
0.342418
0.345342
0.330790
0.339888
0.387258
0.377546
0.401249
0.485696
0.478771
0.539478
0.488715
0.493002
0.526233
0.514232
0.565320
0.500167
0.564375
0.559866
0.570992
0.450352
0.594771
0.518963
