-0.031796
0.024500
-0.033771
-0.004086
0.038049
-0.046697
-0.004294
0.002622
-0.014454
0.007171
0.049948
-0.031735
-0.008556
0.060359
-0.035075
-0.019387
-0.003083
0.015416
-0.022292
0.029644
-0.021644
0.090353
0.051628
0.080335
0.049117
0.063170
0.079903
0.047635
0.185264
0.061658
0.129724
0.070311
0.129137
0.154647
0.115781
0.095382
0.161914
0.225987
0.197819
0.173677
0.267964
0.237702
0.176743
0.137451
0.118102
0.102472
0.192491
0.207863
0.174384
0.223505
0.132272
0.150389
0.117508
0.168027
0.181577
0.083887
0.181015
0.103006
-0.035211
0.095341
0.077519
0.046119
0.066749
0.066929
0.086595
0.083041
0.044904
0.042527
0.037155
0.041607
0.063930
0.100723
0.084802
0.050056
-0.045878
0.052752
0.112906
0.037493
0.125828
0.265047
0.551260
0.997395
1.306977
1.413432
1.415074
1.317602
0.960163
0.563617
0.176278
0.000801
-0.145671
-0.245051
-0.138968
-0.089148
-0.006270
0.044500
0.036210
0.108275
0.087873
0.113528
0.063987
0.098500
0.059048
0.135037
0.089537
0.186903
0.218661
0.104793
0.204222
0.235503
0.221692
0.158729
0.233342
0.285953
0.196448
0.282394
0.295584
0.287420
0.366798
0.319388
0.395599
0.366477
0.462022
0.420723
0.426765
0.485333
0.444325
0.554946
0.518919
0.603001
0.542129
0.527193
0.656885
0.583388
0.560070
0.532407
0.471827
0.564570
0.544373
0.531441
0.527375
0.588080
0.583563
0.532014
0.529291
0.413342
0.597080
0.531043
0.495116
0.426741
0.416699
0.313843
0.340851
0.330278
0.353163
0.304077
0.286514
0.323066
0.163898
0.254447
0.205982
0.129942
0.186977
0.175808
0.207190
0.083444
0.190147
0.167916
0.086194
0.117278
0.102859
0.187285
0.110994
0.137261
0.062683
0.047835
0.039147
0.088827
0.130867
0.104252
0.065825
-0.007593
0.111720
0.105680
0.074208
0.111338
0.057197
0.103494
0.063834
0.011845
0.067933
0.061340
0.071173
0.069356
0.093268
0.164109
0.102264
0.071798
0.155338
0.070417
0.041259
0.102945
0.087721
0.119028
0.094362
0.124527
0.147996
0.078000
0.092163
0.073462
0.021838
0.106338
0.040735
0.093870
0.083374
0.045771
0.105181
0.079078
0.166507
0.079741
0.086287
0.127252
0.085264
0.004688
0.110752
0.114667
0.080467
0.096246
0.070575
0.127922
-0.017566
0.127558
0.112735
0.182053
0.215912
0.178339
0.144746
0.186710
0.192575
0.235086
0.176256
0.237187
0.215573
0.235222
0.294544
0.279583
0.240371
0.238626
0.295892
0.353736
0.272115
0.262571
0.195085
0.247377
0.222144
0.260478
0.224491
0.183914
0.151874
0.225151
0.191194
0.130206
0.211012
0.160602
0.155556
0.125237
0.125417
0.105475
0.082244
0.112904
0.172070
0.104484
0.066813
0.130268
0.072084
0.033276
0.075659
0.034382
0.095301
-0.033858
0.005038
0.093262
0.068942
-0.001314
-0.015440
0.096038
0.156091
0.252801
0.579796
0.861563
1.186988
1.409614
1.500000
1.379153
1.059012
0.734749
0.338846
-0.008300
-0.187088
-0.123876
-0.145334
-0.079867
-0.062269
0.108832
0.039750
0.033118
0.116098
0.159025
0.094082
0.059224
0.094888
0.208771
0.114735
0.121967
0.178414
0.109559
0.153092
0.141296
0.187170
0.211321
0.177752
0.223890
0.225128
0.259315
0.268901
0.335393
0.186131
0.312837
0.374593
0.349701
0.380915
0.425878
0.477577
0.509605
0.417301
0.456612
0.486553
0.501436
0.556335
0.559037
0.484528
0.494840
0.556495
0.544638
0.653348
0.519995
0.550150
0.531391
0.503691
0.549238
0.488136
0.565983
0.442410
0.505378
0.434596
0.441002
0.338274
0.373185
0.398822
0.399495
0.292441
0.266471
0.301939
0.304187
0.236838
0.153823
0.167362
0.269117
0.134865
0.115263
0.129643
0.110553
0.088181
0.152191
0.095609
0.078132
0.095745
0.144677
0.043968
0.082320
0.104752
0.130347
0.026634
0.035649
0.066595
-0.019805
0.042890
0.040847
0.074926
0.044996
0.021137
0.061152
0.040262
0.054377
0.021688
-0.092311
0.017913
-0.064830
0.001122
-0.041783
0.063763
0.041282
0.004304
-0.012716
-0.022699
0.072335
0.050670
-0.030919
0.016672
-0.042602
0.003181
0.016123
0.005584
0.003517
-0.054984
0.010764
-0.014195
-0.080520
0.052860
0.049344
0.019410
0.061678
-0.091796
-0.041270
0.011450
-0.039644
0.028548
-0.018397
0.006755
-0.063837
-0.052939
-0.014307
0.006385
-0.074702
0.020174
0.004757
-0.009942
-0.028997
0.028121
0.024609
0.059806
0.043795
0.036003
0.060459
0.024643
0.081035
0.104820
0.029286
0.094090
0.104145
0.065791
0.058643
0.191496
0.189764
0.128660
0.140440
0.184734
0.153987
0.118937
0.189616
0.172482
0.204523
0.132222
0.131015
0.069910
0.140048
0.053231
0.122392
0.150852
0.094851
0.062183
0.027649
0.039290
0.070694
0.006816
-0.006283
0.028218
-0.006306
-0.090827
-0.024055
-0.055940
-0.056392
-0.072383
-0.039027
-0.032654
0.025277
0.016261
-0.017341
-0.049175
-0.028751
-0.053762
-0.046617
-0.051165
-0.060772
0.046627
0.100027
0.380067
0.575643
0.939988
1.231583
1.335118
1.303642
0.998512
0.611325
0.313680
0.055530
-0.183903
-0.309794
-0.250817
-0.255705
-0.182802
-0.121941
-0.016028
-0.057882
0.006061
-0.044443
0.004136
-0.019951
0.025279
-0.023185
0.077585
-0.030288
-0.040896
0.058943
0.023855
-0.010284
0.159264
0.057212
0.074805
0.173174
0.239857
0.154736
0.228738
0.163283
0.199748
0.264628
0.134971
0.234250
0.325473
0.274263
0.256990
0.368287
0.399723
0.379048
0.390061
0.470264
0.457575
0.468303
0.461076
0.499710
0.532152
0.475934
0.493380
0.438778
0.424038
0.394960
0.476961
0.399457
0.373428
0.522624
0.368685
0.328693
0.365927
0.307503
0.332657
0.385503
0.282264
0.293400
0.219941
0.241395
0.166242
0.123436
0.208374
0.122397
0.170628
0.102272
0.059491
0.113944
0.125237
0.106844
0.079868
0.019510
0.014444
0.065038
0.060733
0.040813
-0.058345
0.034856
0.081468
0.030066
-0.023639
-0.020332
-0.004821
-0.050180
0.052749
-0.058362
-0.001668
0.048417
-0.003300
0.015530
-0.017930
-0.074742
-0.029313
0.064842
-0.082915
-0.131200
-0.006147
-0.050160
-0.012506
-0.078982
-0.078246
-0.065403
-0.038258
-0.136727
-0.059141
-0.021691
-0.002346
-0.048752
-0.018008
0.003837
-0.012622
-0.031478
-0.054701
-0.010582
-0.094720
-0.065245
-0.012494
-0.060253
-0.044968
0.042557
-0.063649
-0.019614
0.007724
-0.062844
-0.115720
-0.054955
-0.040652
-0.086051
-0.035007
-0.069818
-0.028537
-0.026411
0.070048
0.048579
0.034496
0.045617
-0.048718
-0.007867
-0.061478
0.003613
0.004614
0.087739
0.021429
0.043330
0.092541
0.058169
0.064529
0.107617
0.132433
0.110051
0.162969
0.157438
0.081521
0.140214
0.087865
0.087571
0.208254
0.222735
0.181428
0.145517
0.114986
0.139491
0.067632
0.150018
0.169324
0.078620
0.105846
0.089669
0.046632
0.030009
0.004297
-0.013342
0.068812
-0.006891
-0.008642
0.055674
0.096126
0.010391
-0.058696
0.034478
0.059611
0.048715
-0.015679
-0.003310
-0.047227
0.026026
0.026689
-0.021131
-0.027589
-0.051001
0.018380
-0.010198
0.069725
0.081980
0.252800
0.569060
0.865674
1.200257
1.297527
1.318381
1.209760
0.856115
0.540143
0.152971
-0.137223
-0.208329
-0.257525
-0.112040
-0.193202
-0.054827
0.038789
0.029739
0.028300
0.004522
0.091829
0.090707
0.082506
0.047175
0.060623
0.102489
0.040670
0.154824
0.112716
0.062754
0.125745
0.083094
0.118972
0.174493
0.195393
0.197520
0.234058
0.252593
0.270415
0.335701
0.327705
0.348935
0.347971
0.343793
0.424239
0.478678
0.411995
0.475851
0.448790
0.416310
0.462535
0.463482
0.480395
0.547133
0.531759
0.598710
0.508207
0.537480
0.576883
0.497886
0.492009
0.500680
0.512970
0.484503
0.597923
0.477756
0.461855
0.432095
0.415311
0.397117
0.399776
0.329456
0.427267
0.364517
0.314238
0.240614
0.298690
0.190121
0.289404
0.256023
0.193786
0.223495
0.159098
0.146811
0.155879
0.149771
0.149188
0.153951
0.125219
0.148449
0.071983
-0.040104
0.096138
0.014227
0.140444
0.080072
0.088971
0.175149
0.133126
0.101329
0.104142
0.100344
0.033347
0.037039
-0.019791
-0.054948
0.084528
0.030447
-0.014194
0.096408
0.044796
0.194537
0.159962
0.082529
0.072215
0.066826
0.067630
0.133882
0.007245
-0.011688
0.193855
0.039087
0.068730
0.044901
0.163516
0.025953
0.058548
0.020283
0.064888
0.052811
0.097507
0.059135
0.091787
0.050689
0.037418
0.133423
0.064940
0.085011
0.062726
0.094672
-0.027696
0.030337
0.020529
-0.027325
0.095096
0.104250
0.142911
0.072552
0.019694
0.075521
0.175128
0.143228
-0.032190
0.096618
0.123506
0.161263
0.102223
0.219050
0.130276
0.116008
0.196386
0.131881
0.191397
0.191097
0.187497
0.215690
0.264510
0.214685
0.281869
0.245180
0.240606
0.265402
0.284158
0.229778
0.263927
0.258116
0.160400
0.239632
0.222087
0.191763
0.157333
0.227594
0.163701
0.147713
0.178173
0.086574
0.177023
0.172443
0.079066
0.172254
0.092154
0.170961
0.100589
0.139330
0.076735
0.075818
0.115914
0.098255
0.064790
0.080050
0.059286
0.119066
0.035966
0.046305
0.046371
0.022773
0.093040
0.154648
0.265945
0.553887
0.969733
1.197608
1.405847
1.393813
1.329026
1.108122
0.664905
0.336328
0.004101
-0.106771
-0.129982
-0.124516
-0.112956
0.025740
0.047849
0.060725
0.149479
0.219720
0.206170
0.121618
0.139081
0.114863
0.163357
0.182355
0.072453
0.124254
0.158020
0.193446
0.148805
0.231832
0.185113
0.338865
0.242506
0.310432
0.353816
0.322675
0.345161
0.354954
0.413555
0.357535
0.433779
0.394735
0.492483
0.434967
0.511387
0.492692
0.513918
0.527379
0.545244
0.604021
0.514167
0.629065
0.678503
0.606823
0.536510
0.548857
0.628364
0.602852
0.459603
0.557365
0.521813
0.578665
0.490377
0.523316
0.442669
0.518838
0.550379
0.419550
0.404191
0.382327
0.411455
0.355008
0.350039
0.282105
0.261377
0.225747
0.250310
0.324544
0.237012
0.232625
0.262367
0.183896
0.203457
0.192467
0.226936
0.163236
0.201151
0.210487
0.150879
0.125875
0.070678
0.123647
0.133980
0.115473
0.011428
0.048611
0.025024
0.092592
0.054420
0.156850
0.185026
0.113580
0.135521
0.060344
0.072130
0.116064
0.093092
0.062818
0.140757
0.055039
0.071812
0.075450
0.087732
0.081407
-0.030240
0.058993
0.090848
0.036785
0.080080
0.046714
0.064463
-0.005209
0.012732
0.059899
0.016443
0.048196
0.025265
0.074966
0.130829
0.078128
-0.044249
0.004645
0.034906
0.036137
0.034794
0.107729
0.075473
0.146879
0.107808
0.025708
0.103888
0.011716
0.017900
0.143562
0.039605
0.001911
0.031455
0.104000
0.089927
0.107694
0.119665
0.052337
0.050987
0.076399
0.125273
0.010332
0.119743
0.168807
0.145293
0.158019
0.203833
0.240872
0.217477
0.212880
0.234936
0.231730
0.203121
0.188100
0.163206
0.184110
0.218656
0.262776
0.170502
0.232626
0.188407
0.201777
0.169160
0.234036
0.174679
0.186296
0.076820
0.088136
0.145779
0.118626
0.125239
0.123277
0.150439
0.095023
0.081050
0.090923
0.131881
0.070464
0.076591
-0.010765
-0.009499
0.031030
0.018651
0.035605
0.052696
0.042005
-0.078887
0.046525
0.063019
0.014138
0.080145
0.128510
0.231131
0.412818
0.702673
1.008610
1.282585
1.465303
1.253029
1.119923
0.742560
0.443696
0.002513
-0.210981
-0.234364
-0.171614
-0.149342
-0.135256
-0.025677
0.061203
0.036892
0.062440
0.119335
0.078755
-0.031939
0.066226
0.091862
0.126918
0.075837
0.018731
-0.020290
0.055885
0.127718
0.060463
0.124065
0.189843
0.119643
0.101226
0.224692
0.187747
0.239667
0.229677
0.258364
0.243888
0.308913
0.324797
0.264038
0.395922
0.362973
0.332907
0.488440
0.373441
0.481758
0.446563
0.492460
0.461832
0.493034
0.469650
0.471017
0.485628
0.507321
0.447354
0.414061
0.522995
0.481970
0.492651
0.467160
0.447724
0.385898
0.448687
0.291915
0.322420
0.328859
0.285258
0.340713
0.229692
0.234770
0.126580
0.144064
0.180358
0.140818
0.119326
0.158665
0.003873
0.105229
0.154921
0.037842
0.101807
0.023014
0.058446
-0.058460
0.018816
-0.004601
0.004084
0.027632
-0.033822
0.086581
-0.029506
-0.024967
0.020772
-0.041057
0.038521
-0.132127
-0.047211
-0.042226
0.008934
0.057530
0.011604
-0.023304
-0.051826
-0.048775
0.041169
-0.088796
-0.071300
-0.104063
-0.020737
0.011022
-0.071788
-0.095665
0.018152
0.024959
-0.067654
-0.104467
-0.092566
-0.070374
-0.031787
-0.060621
-0.120886
-0.007523
-0.089850
-0.103810
-0.051117
-0.061559
-0.037873
-0.115086
-0.176714
-0.050989
-0.045564
-0.062441
-0.078906
-0.077138
-0.015592
-0.072831
0.006672
-0.079265
-0.057742
0.010518
-0.022429
-0.139858
-0.033681
-0.012004
-0.078219
0.003079
-0.010676
-0.125661
-0.061271
0.001333
-0.069919
0.055970
0.000417
-0.016732
-0.042241
0.090861
0.049558
0.091108
0.073495
0.005154
0.119769
0.051728
0.092524
0.064054
0.089958
0.104458
0.013987
0.044645
0.052468
0.071744
0.067901
0.159901
0.061462
0.124244
0.091545
0.038571
0.095442
0.089851
-0.021489
0.031089
0.034500
0.032294
-0.050029
-0.032427
0.017662
-0.095543
-0.002199
-0.015032
-0.082542
-0.085135
-0.041898
-0.022263
-0.057580
-0.121012
-0.066812
0.055163
-0.138043
-0.029777
-0.126039
0.007883
-0.117134
-0.053956
-0.044806
0.046636
0.318046
0.533643
0.728372
1.105093
1.253353
1.337908
1.116992
0.699008
0.428295
0.125056
-0.195559
-0.280561
-0.288672
-0.264867
-0.230586
-0.127966
-0.051432
-0.007497
-0.083447
-0.048785
-0.028946
-0.107356
-0.086742
-0.051779
0.031073
-0.006144
0.008760
-0.017535
-0.005150
0.078885
0.054629
0.097358
0.099660
0.099155
0.152805
0.112961
0.106511
0.094824
0.109591
0.167672
0.124147
0.220821
0.181837
0.239765
0.253589
0.253671
0.292310
0.338907
0.353139
0.415607
0.334720
0.437809
0.365008
0.365953
0.434484
0.456561
0.463648
0.404226
0.478975
0.374562
0.437845
0.400580
0.399833
0.426564
0.323900
0.312837
0.377354
0.262554
0.304491
0.241172
0.287852
0.239072
0.243824
0.186048
0.246178
0.270758
0.068242
0.085609
0.110928
0.053022
0.091645
0.086068
0.025705
0.054975
0.026151
-0.039303
0.068177
-0.020705
0.060748
-0.066724
-0.028733
-0.015450
-0.039793
0.040436
-0.014049
-0.037028
-0.043132
-0.070982
-0.124138
-0.009143
-0.076690
-0.085187
-0.107792
-0.023252
-0.053466
-0.051808
-0.106817
-0.164390
-0.082917
-0.061868
-0.168027
-0.039536
-0.035328
-0.071845
-0.080337
-0.091034
-0.041619
-0.107620
-0.120710
-0.135220
-0.058283
0.011197
-0.091743
-0.069004
-0.057354
-0.029241
-0.002509
-0.025866
-0.077529
-0.111234
-0.054934
-0.101697
-0.104944
-0.115464
-0.009244
-0.024394
-0.031584
-0.076243
-0.032024
-0.083997
-0.060388
-0.063703
-0.098233
-0.075408
0.081628
-0.068215
0.037171
-0.030228
-0.085039
-0.029972
0.015493
-0.063616
-0.055107
-0.015727
0.012066
-0.032351
0.020116
0.083105
-0.030554
0.071576
0.056464
0.052879
0.097764
0.119369
0.119652
0.133185
0.143184
0.163938
0.167086
0.080228
0.127781
0.124134
0.162181
0.178376
0.195505
0.173372
0.078302
0.119081
0.150901
0.177145
0.004931
0.037848
0.131785
0.132302
-0.008532
0.057113
0.083323
0.066363
0.087325
0.026633
0.017412
-0.045657
-0.044033
0.035192
-0.023657
0.012025
-0.092459
-0.047789
-0.086592
0.063844
-0.055324
-0.086302
-0.068519
-0.061940
-0.055214
-0.079584
-0.023966
0.057681
0.152358
0.502521
0.771910
1.101014
1.302686
1.422584
1.256358
0.932188
0.631008
0.331157
-0.011858
-0.189387
-0.306462
-0.292201
-0.122550
-0.065838
-0.016887
-0.105225
-0.012218
-0.011782
0.043725
0.001590
0.000533
0.001144
0.061790
0.086737
0.095612
0.084841
0.121932
0.123561
0.135621
0.102172
0.156997
0.233623
0.201975
0.201979
0.265038
0.200989
0.091434
0.306811
0.317476
0.360728
0.310797
0.341519
0.381806
0.393045
0.425533
0.336971
0.485857
0.478600
0.475694
0.485401
0.496557
0.516492
0.533978
0.514000
0.550501
0.499731
0.523279
0.442402
0.502107
0.572220
0.477159
0.493717
0.572279
0.396504
0.409290
0.375650
0.451691
0.425565
0.350179
0.444519
0.336833
0.289901
0.269322
0.310320
0.245441
0.241255
0.242875
0.196678
0.188316
0.152135
0.200718
0.193284
0.129986
0.092521
0.062266
0.085069
0.132477
0.091263
0.043363
0.064771
0.014746
0.050296
-0.023958
0.058112
0.106849
0.054392
0.056844
-0.038284
0.105325
0.013946
-0.003986
-0.003054
0.079093
-0.006159
0.053570
0.080937
0.108120
0.056817
0.096833
0.056630
0.060905
0.018198
0.087981
0.010307
0.075377
0.064906
0.114923
-0.003846
0.086991
0.036365
0.100542
0.075794
0.056767
0.013403
0.026652
0.092923
0.029873
0.086911
0.058742
0.080632
0.013988
0.028723
0.031027
0.095222
0.033945
0.139966
0.049919
0.101499
0.074344
0.000665
0.033435
0.017683
-0.011748
-0.025759
0.098051
0.108709
0.081059
0.063139
0.036411
-0.001928
0.068550
0.028571
0.108196
0.077552
0.044032
0.139348
0.054159
0.135004
0.108032
0.195177
0.203010
0.059142
0.194389
0.222940
0.180005
0.168342
0.168865
0.213018
0.223161
0.186722
0.220618
0.209207
0.182061
0.196344
0.263801
0.217677
0.181571
0.250436
0.191882
0.186523
0.160199
0.127570
0.126413
0.223903
0.040959
0.065014
0.122912
0.118583
0.058831
0.135727
0.065836
0.131700
0.054313
-0.001436
-0.007748
0.031726
0.082391
0.073929
0.074512
0.001178
0.120361
0.002278
0.040926
0.026815
0.057393
0.024928
0.204722
0.456041
0.732217
1.096532
1.373934
1.404537
1.401667
1.143023
0.858743
0.422596
0.118048
-0.088322
-0.208716
-0.216145
-0.202732
-0.056822
0.017136
0.026887
0.054135
0.059367
0.091629
0.053046
0.076387
0.041597
0.130120
0.073478
0.109257
0.106213
0.071614
0.117909
0.065453
0.107750
0.137558
0.246819
0.126182
0.168737
0.209878
0.164769
0.299573
0.302040
0.352230
0.324808
0.440960
0.375028
0.359135
0.453926
0.396320
0.484998
0.416721
0.423021
0.459188
0.522271
0.537535
0.577096
0.527676
0.493018
0.465118
0.501670
0.529295
0.506103
0.528440
0.527991
0.539219
0.471977
0.475544
0.455307
0.418581
0.372561
0.434461
0.494113
0.356909
0.312881
0.314306
0.272173
0.326022
0.274464
0.276804
0.200888
0.218350
0.216278
0.159316
0.143457
0.229020
0.125649
0.100007
0.086241
0.093993
0.076727
0.008951
0.067336
0.033542
0.069607
-0.033435
0.099546
0.012167
0.064781
0.004669
0.047727
0.010449
-0.008951
0.049653
0.024422
0.003834
-0.001038
-0.034544
0.072839
-0.082453
-0.002299
-0.041468
0.008552
0.026314
0.045338
0.004643
-0.025333
-0.004535
0.032849
-0.007473
-0.066012
-0.006212
-0.073229
0.030668
-0.039776
-0.075591
-0.027445
-0.028748
-0.070924
-0.021192
-0.000694
-0.049074
0.020458
-0.021934
-0.031364
-0.000337
-0.033130
-0.018073
0.005376
-0.037628
-0.064789
0.020077
-0.096532
0.006886
0.008526
-0.071513
-0.008501
0.029216
-0.001097
-0.038001
0.008851
-0.032082
0.021290
0.109280
0.044268
0.030295
-0.028520
-0.025039
0.056861
0.011582
-0.062218
0.055615
-0.037739
0.100985
0.083885
0.028228
0.149029
0.035821
0.081384
0.081505
0.083913
0.179426
0.084876
0.111605
0.040154
0.105432
0.116965
0.077282
0.123500
0.083992
0.128015
0.065087
0.076314
0.143722
0.054531
0.023457
0.036384
0.065550
0.026269
-0.034471
0.066729
0.034076
0.000766
-0.012401
-0.080572
-0.068926
-0.005812
-0.059991
0.037881
0.008046
-0.055336
-0.044164
0.033195
-0.080031
-0.048759
-0.054416
-0.081848
-0.048777
-0.042912
-0.088322
-0.099445
0.086398
0.253445
0.586554
0.826945
1.136305
1.287035
1.282914
1.079209
0.775727
0.408034
0.062724
-0.169924
-0.310180
-0.319516
-0.277900
-0.150060
-0.183456
-0.053203
-0.132802
-0.080990
-0.040991
-0.099038
0.000245
-0.061757
-0.014082
0.051429
-0.028457
-0.101677
-0.051587
0.071868
-0.015452
0.025951
0.085868
0.003239
0.045691
0.038079
0.126551
0.157990
0.158819
0.180558
0.122321
0.185700
0.228282
0.280377
0.261355
0.226174
0.332898
0.299296
0.334078
0.269045
0.403476
0.398618
0.386769
0.410670
0.406222
0.426425
0.459569
0.376740
0.410400
0.355490
0.405716
0.365860
0.358523
0.330254
0.379309
0.414897
0.424236
0.284835
0.331360
0.287636
0.373206
0.293560
0.218916
0.227773
0.224552
0.218544
0.109142
0.108786
0.134906
0.187851
0.021999
0.043224
0.087184
0.080613
0.009156
0.024758
0.056032
0.033601
-0.095431
-0.085599
0.047797
-0.037953
-0.102638
-0.037719
-0.082036
-0.043901
-0.080432
-0.055124
-0.115587
-0.136365
-0.059213
-0.137896
-0.105216
-0.067194
-0.030851
-0.202391
-0.033789
-0.018155
-0.065487
-0.169994
-0.151278
-0.024445
-0.052398
-0.140539
-0.111442
-0.119569
-0.011987
-0.115273
-0.070889
-0.077742
-0.113265
-0.104379
-0.105252
-0.106356
-0.089739
-0.084976
-0.113518
-0.085520
-0.069753
-0.128819
-0.070556
-0.064967
-0.083103
-0.113923
-0.101295
-0.029993
-0.067339
-0.139762
-0.094490
-0.079702
-0.087626
-0.091574
-0.128068
-0.104954
-0.082388
-0.094536
-0.057555
-0.076907
-0.096154
-0.065034
-0.102125
-0.061171
-0.080997
-0.035633
-0.105994
-0.053474
0.008792
-0.005370
0.022538
0.001506
0.005243
-0.001031
0.105052
0.060972
0.054820
0.030854
0.073124
-0.018147
0.038293
0.163998
0.090052
0.050441
0.037808
0.079861
0.083116
0.127322
0.042739
-0.010581
0.053939
-0.002563
-0.049287
-0.003431
-0.041314
-0.056512
0.048668
-0.036050
-0.033206
0.062015
-0.035233
0.049790
-0.070906
-0.092592
-0.117501
-0.136104
-0.020405
-0.069145
-0.092253
-0.064145
-0.072725
-0.080771
-0.136077
-0.072629
-0.154464
-0.128025
-0.132394
-0.100705
-0.174343
-0.086233
-0.071989
0.110897
0.423120
0.755071
1.023267
1.307973
1.280152
1.155645
0.802329
0.560450
0.200015
-0.147018
-0.319731
-0.405076
-0.359834
-0.205282
-0.121678
-0.151313
-0.077655
-0.172903
-0.022909
0.002955
-0.065218
-0.035882
-0.011082
-0.015998
-0.012152
-0.001642
-0.022936
0.060365
0.049540
0.043664
0.059704
0.141539
0.043319
0.104982
0.103635
0.147824
0.166924
0.216601
0.139786
0.208329
0.155534
0.239071
0.329461
0.322279
0.305909
0.310366
0.394022
0.410961
0.408926
0.470956
0.438918
0.511049
0.432092
0.459104
0.519151
0.502874
0.569968
0.423736
0.365087
0.458565
0.459770
0.466013
0.361872
0.392340
0.398371
0.337386
0.385261
0.283185
0.325322
0.341421
0.268854
0.275042
0.353742
0.240800
0.203819
0.228092
0.142078
0.145013
0.165041
0.092448
0.085189
0.101191
0.056591
0.062022
0.021090
0.082401
0.043377
-0.014259
0.049241
0.009508
-0.082989
-0.008903
-0.080999
-0.047844
0.028124
-0.022159
-0.048092
-0.018166
0.068251
-0.022894
0.040885
-0.067583
0.003623
-0.072783
-0.011517
0.009017
-0.018568
-0.027364
0.037364
0.032289
-0.013870
0.004825
-0.053226
-0.035206
-0.004372
0.024449
0.055642
-0.016467
0.116397
-0.026493
-0.003465
-0.011758
0.022384
0.047163
-0.008306
0.002956
-0.026542
0.032829
-0.037174
-0.055969
-0.055468
-0.002499
0.026459
0.064416
-0.004259
0.042212
0.046023
-0.037700
0.024795
0.021320
0.065340
-0.004514
0.020304
0.000394
-0.001421
0.084967
0.047929
0.037023
0.074218
0.105253
0.102404
0.057803
0.006192
0.102647
0.031186
0.155835
0.156693
0.150260
0.042186
0.153976
0.099646
0.082651
0.183574
0.124674
0.145428
0.181325
0.220209
0.202844
0.212345
0.299467
0.238640
0.202246
0.158508
0.099178
0.175019
0.091055
0.211424
0.166119
0.060129
0.130381
0.124723
0.082242
0.131888
0.116684
0.028843
0.084153
0.095071
0.083402
0.022660
0.033836
0.079385
0.036416
0.029200
0.013383
0.007608
0.047657
0.026561
0.080649
0.025216
0.050313
0.079154
0.100226
0.079155
0.007932
0.090869
0.016478
0.140022
0.281164
0.458728
0.737149
1.054701
1.324092
1.419579
1.368246
1.039272
0.817716
0.390196
0.107868
-0.102839
-0.266463
-0.213421
-0.091131
-0.134256
0.000838
0.067630
0.049574
0.098804
0.215817
0.078765
0.072987
0.159913
0.012514
0.111743
0.124785
0.103366
0.114120
0.170562
0.110220
0.144717
0.175168
0.284467
0.161519
0.210130
0.199295
0.218455
0.264652
0.266143
0.385623
0.258675
0.395949
0.334497
0.321816
0.414675
0.485428
0.447990
0.483893
0.512877
0.438001
0.551724
0.556557
0.545378
0.562637
0.572960
0.567278
0.571858
0.610445
0.545885
0.532022
0.530122
0.543216
0.531041
0.489984
0.405016
0.470659
0.457933
0.429959
0.513886
0.381176
0.435657
0.326027
0.356390
0.338300
0.353342
0.319207
0.284210
0.255767
0.232395
0.198382
0.127059
0.216156
0.221300
0.185950
0.132000
0.130859
0.150308
0.236763
0.142154
0.138801
0.117085
0.107943
0.143055
0.152901
0.029455
0.069132
0.150180
0.100563
0.085217
0.044956
0.187083
0.103778
0.112903
0.100311
0.086554
0.065190
0.118328
0.000224
0.102823
0.073189
0.165037
0.042332
0.081541
0.028286
0.077896
0.026776
0.081209
0.172519
0.082667
0.101170
0.064514
0.022952
0.056171
0.046300
0.122106
0.020161
0.063505
0.106918
0.043818
