0.062880
-0.058358
-0.002327
0.003158
-0.059206
0.026823
0.033313
0.118949
0.001139
0.143548
0.011300
0.161039
0.016551
-0.017883
0.042309
0.046215
0.098351
0.060494
0.117957
0.086988
0.086657
-0.005365
0.128965
0.060312
-0.018244
0.058455
0.127001
0.207647
0.119096
0.166274
0.264788
0.229174
0.219264
0.172302
0.219612
0.170163
0.161063
0.197692
0.219733
0.233072
0.190787
0.225350
0.184285
0.184472
0.182555
0.187759
0.100774
0.180193
0.125183
0.067965
0.098900
0.085694
0.003313
0.007358
0.053521
0.052483
0.056461
-0.014657
-0.053110
-0.043155
0.037110
0.087908
-0.000064
-0.002543
0.032687
0.273816
0.556031
0.901898
1.148147
1.330191
1.500000
1.302995
1.006770
0.677416
0.271561
0.182391
-0.022679
-0.130665
0.017212
0.054771
-0.003338
0.132319
0.135046
0.043798
0.068728
0.124955
0.171054
0.095955
0.226967
0.129373
0.186872
0.253965
0.250881
0.342439
0.301768
0.352862
0.312362
0.402331
0.382537
0.391712
0.431153
0.437748
0.453826
0.544897
0.574210
0.489367
0.562890
0.615406
0.595957
0.531312
0.676865
0.601707
0.582907
0.544837
0.671195
0.672523
0.567059
0.634233
0.580850
0.572899
0.651948
0.570983
0.584203
0.555896
0.407985
0.548972
0.413416
0.398735
0.306378
0.398207
0.361712
0.392898
0.304275
0.277314
0.326184
0.315682
0.304517
0.295147
0.256740
0.161261
0.157395
0.132755
0.223122
0.163245
0.138966
0.242828
0.194056
0.106893
0.037213
0.184647
0.140605
0.118502
0.142701
0.055908
0.062595
0.182500
0.094560
0.122896
0.134941
0.032449
0.139773
0.102932
0.116610
0.089072
0.167724
0.090087
0.100656
0.025406
0.174819
0.080679
0.060226
0.135946
0.064472
0.109479
0.100147
0.039546
0.002091
0.085424
0.066276
0.114772
0.045629
0.164603
0.078288
0.087103
0.135869
0.005233
0.102933
0.181475
0.062687
0.091145
0.099988
0.115519
0.083996
0.117475
0.154633
0.216541
0.124507
0.081521
0.172760
0.215694
0.223798
0.226705
0.296425
0.233848
0.275284
0.298849
0.263543
0.177236
0.343514
0.298371
0.246124
0.211946
0.309920
0.336967
0.170630
0.215167
0.230857
0.205716
0.194139
0.252355
0.182418
0.190449
0.194211
0.059446
0.151896
0.170621
0.121985
0.114639
0.193501
0.113748
0.026689
0.137073
0.199263
0.114070
0.076365
0.029184
0.082048
0.179946
0.107646
0.140849
0.529997
0.650222
1.076840
1.314554
1.413795
1.430654
1.266199
0.790115
0.401120
0.114597
-0.115185
-0.139905
-0.067937
-0.058318
0.030630
0.171741
0.121360
0.103312
0.180295
0.153552
0.218362
0.206871
0.259008
0.219481
0.196024
0.269712
0.191878
0.230160
0.230267
0.254002
0.288935
0.392469
0.463230
0.372600
0.419328
0.434594
0.438303
0.454459
0.539596
0.598370
0.548422
0.481981
0.594581
0.542322
0.636023
0.660290
0.559353
0.584805
0.637825
0.619711
0.639395
0.658928
0.546844
0.598284
0.565869
0.561599
0.539755
0.448173
0.525394
0.340009
0.526880
0.402403
0.455701
0.402852
0.436605
0.289943
0.380189
0.253180
0.343275
0.336029
0.192402
0.229711
0.132603
0.142071
0.164446
0.107871
0.183286
0.197289
0.165445
0.102416
0.142028
0.139647
0.093928
0.153174
0.110999
0.033670
0.112371
-0.007337
0.096372
0.054815
0.130970
0.058970
0.082135
0.009450
0.028931
-0.007134
0.092802
0.154190
0.056871
0.012452
0.180969
-0.008145
-0.080849
0.061715
0.108909
0.059057
0.071821
0.041370
0.121295
0.062331
0.058197
-0.025071
0.011060
0.067413
-0.003735
0.038396
-0.010442
0.017183
0.017687
0.116764
-0.014271
0.047268
-0.042373
0.055649
0.005060
0.099444
0.002291
0.103391
0.063031
0.068506
0.056811
0.103794
0.155494
0.170700
0.134678
0.177095
0.218332
0.166509
0.217882
0.144719
0.167768
0.171841
0.248748
0.217980
0.205490
0.144163
0.196534
0.202069
0.184088
0.204166
0.155548
0.195241
0.161538
0.085054
0.142277
0.157919
0.131739
0.102745
0.114737
0.086897
0.053787
0.136517
0.086131
0.063665
0.038314
-0.011862
0.030028
-0.027229
0.014579
0.039780
-0.016068
0.082170
0.024946
0.104019
0.231604
0.647746
0.814570
1.213357
1.413144
1.464798
1.196082
0.899990
0.489326
0.146314
-0.032060
-0.120139
-0.105758
-0.115968
-0.110540
-0.032316
0.041386
0.027010
0.116085
0.109826
0.091032
0.052965
0.151726
0.119768
0.164450
0.180092
0.245119
0.205330
0.168884
0.237338
0.188039
0.205648
0.314653
0.256269
0.333981
0.307419
0.420685
0.421938
0.417008
0.369793
0.470400
0.436424
0.442747
0.532210
0.465364
0.572833
0.580724
0.502186
0.456531
0.468870
0.458047
0.516188
0.478122
0.560190
0.513157
0.427287
0.461965
0.391678
0.443381
0.501245
0.383046
0.274174
0.334983
0.253020
0.266113
0.231201
0.247825
0.197715
0.305233
0.148843
0.289289
0.027941
0.100034
0.192003
0.233236
0.056677
0.001705
-0.034065
-0.016507
0.031464
0.031023
0.021307
-0.060301
-0.023675
-0.049553
0.080929
-0.039159
-0.041887
0.012034
-0.091197
-0.017739
-0.012123
-0.099037
0.008169
-0.058732
0.008920
-0.085966
-0.067771
-0.036189
0.002339
-0.071444
-0.069479
-0.058149
-0.053353
-0.081556
-0.017013
-0.053190
-0.112824
-0.035701
-0.075072
-0.020095
0.031912
-0.013957
-0.053283
0.043990
-0.061438
-0.057706
-0.110476
-0.003696
0.031201
-0.107606
-0.061088
0.022345
-0.003044
-0.110555
-0.021862
-0.041829
0.014792
-0.087051
-0.068130
-0.021085
0.070428
-0.007721
0.028339
0.063793
0.041464
0.051868
0.091087
0.130502
0.139316
0.126042
0.232251
0.201393
0.139045
0.183891
0.198276
0.214570
0.089986
0.227635
0.042575
0.166215
0.179946
0.180382
0.130410
0.083165
0.122857
0.067176
0.076999
0.104680
-0.019165
0.072535
-0.055336
-0.040354
-0.045206
-0.038877
-0.016189
-0.016767
-0.174501
-0.094597
-0.021441
0.003311
-0.056861
-0.032160
0.065618
0.126089
0.302224
0.680166
0.975671
1.309805
1.355775
1.234043
1.056324
0.655851
0.291573
-0.034462
-0.194584
-0.233192
-0.093000
-0.048177
-0.050006
0.009822
-0.046274
-0.013067
0.105523
0.053591
0.070058
0.010750
0.077882
0.099711
0.138914
0.184188
0.147041
0.270588
0.123260
0.172724
0.137252
0.303140
0.271936
0.279809
0.323711
0.371797
0.368977
0.437673
0.436328
0.346671
0.400975
0.456052
0.435934
0.489786
0.490413
0.489180
0.538036
0.530519
0.450647
0.535018
0.490368
0.517479
0.501436
0.502653
0.410630
0.457787
0.408805
0.370614
0.358940
0.419590
0.378093
0.331856
0.216008
0.292772
0.310695
0.259123
0.221119
0.124121
0.199145
0.168780
0.219519
0.120399
0.111462
0.116724
0.134925
0.121092
-0.037832
0.002340
0.082993
-0.001720
0.051849
-0.023202
0.051713
0.048677
-0.027137
-0.067169
0.054728
0.025595
-0.032917
0.026461
-0.014897
0.004226
-0.030237
-0.100370
0.024548
-0.043641
0.047133
0.012254
-0.008439
0.014112
0.020062
-0.017028
-0.069778
-0.062616
-0.034197
-0.027833
0.047034
0.020877
0.017722
0.033287
-0.007382
0.028851
0.031852
0.027443
0.014558
0.036259
0.051636
-0.033814
0.009341
0.016517
0.023052
0.026065
0.102747
-0.019481
-0.024053
0.003438
0.098219
-0.019565
0.077573
0.114705
-0.006987
0.008899
0.123392
0.114061
0.136646
0.057310
0.180063
0.118780
0.235662
0.192713
0.160727
0.099883
0.164943
0.106725
0.137046
0.152424
0.206231
0.217246
0.148928
0.262249
0.120616
0.122385
0.218806
0.218476
0.181435
0.048690
0.123241
0.163582
0.092356
0.067524
0.014221
0.047491
0.031762
0.057920
0.088169
0.055708
0.057726
-0.021107
-0.016712
0.087533
0.068613
-0.018428
0.073098
0.217614
0.357103
0.594029
0.882151
1.145985
1.371661
1.346374
1.255667
0.846464
0.519070
0.185647
-0.055586
-0.090355
-0.166287
-0.111296
-0.010672
0.042535
0.068346
0.167325
0.058699
0.147587
0.167820
0.040808
0.237974
0.190745
0.147640
0.195259
0.162136
0.179638
0.298934
0.343304
0.310321
0.323871
0.281447
0.378668
0.410943
0.397840
0.438305
0.475469
0.396968
0.590855
0.567055
0.545269
0.522064
0.532107
0.583952
0.555673
0.667858
0.463847
0.644661
0.606909
0.595308
0.615260
0.571424
0.558330
0.625492
0.530009
0.477369
0.454424
0.472676
0.510671
0.465787
0.395670
0.339839
0.369194
0.383946
0.360766
0.316920
0.383418
0.305474
0.275909
0.326495
0.270668
0.315975
0.164595
0.171647
0.218807
0.168812
0.085560
0.164274
0.089004
0.142867
0.140206
0.097655
0.114745
0.140109
0.118514
0.054592
0.085282
0.143529
0.078494
0.122995
0.140121
0.122217
0.105459
0.061851
0.059051
0.112723
0.045576
0.049877
0.108900
0.179064
0.116479
0.088622
0.050996
0.067119
0.028048
0.085328
0.088001
0.089815
0.111304
0.158256
0.145860
0.065265
0.112114
0.072500
0.076052
0.125595
-0.000009
0.071625
0.061924
0.108927
0.085060
0.151634
0.139634
0.074600
0.106913
0.091670
0.202576
0.160436
0.217941
0.122109
0.151618
0.176290
0.228957
0.257402
0.263278
0.153132
0.222722
0.225339
0.207006
0.200113
0.296483
0.196942
0.217844
0.280410
0.240653
0.336491
0.246378
0.374602
0.270319
0.296583
0.282058
0.166377
0.180092
0.178763
0.197383
0.253698
0.266850
0.113663
0.192013
0.133232
0.184485
0.169815
0.154193
0.174383
0.226660
0.112032
0.154848
0.087917
0.043266
0.108587
0.133606
0.182703
0.153552
0.292199
0.544964
0.905418
1.165475
1.394164
1.497633
1.313482
1.123102
0.786247
0.272135
0.076765
-0.030981
-0.060583
0.075114
0.012886
0.028213
0.191617
0.163022
0.161750
0.138915
0.242014
0.143081
0.182932
0.189371
0.278741
0.158002
0.298584
0.220301
0.279739
0.304809
0.278384
0.309123
0.459322
0.352645
0.413379
0.534765
0.475544
0.458814
0.496529
0.598488
0.556137
0.607473
0.630750
0.620779
0.537696
0.569606
0.556064
0.529968
0.683075
0.643534
0.666751
0.622867
0.590129
0.590524
0.588151
0.616648
0.425905
0.510392
0.569623
0.446851
0.458530
0.445679
0.411056
0.396667
0.354420
0.368557
0.382857
0.217827
0.378359
0.266097
0.282238
0.324455
0.182272
0.208654
0.123519
0.099171
0.174872
0.245811
0.151807
0.124221
0.168238
0.152532
0.177299
0.071762
0.059820
0.050520
0.086174
0.045636
0.124547
0.136875
0.067554
0.091530
0.147299
0.117465
0.095073
0.089622
0.060890
0.037906
0.047709
0.042081
0.074430
0.040000
0.136209
0.092860
0.117215
0.090076
0.087150
0.072263
0.013381
0.058749
0.078443
0.096362
0.088562
0.085137
-0.009477
0.095696
0.043442
0.050482
0.030516
0.105433
0.131145
0.143182
0.106003
-0.028474
0.085895
0.091405
0.027242
0.098453
0.066166
0.135451
0.158347
0.220312
0.193096
0.169793
0.118760
0.113347
0.123761
0.130465
0.197667
0.276946
0.232198
0.209367
0.235540
0.322671
0.280275
0.307788
0.200472
0.199205
0.156182
0.220924
0.252419
0.207825
0.163969
0.212164
0.130777
0.254341
0.138222
0.116535
0.100848
0.211351
0.144121
0.074477
0.092313
0.037873
0.052361
0.005282
0.092346
0.144917
0.078750
0.053209
0.052152
0.027155
0.080231
0.033798
0.170383
0.278432
0.707404
0.957143
1.335023
1.374607
1.412158
1.143763
0.763152
0.445529
0.161717
-0.067309
-0.177865
-0.129660
-0.097770
0.027224
-0.031617
0.068413
0.026284
0.081717
0.131359
0.096910
0.207693
0.242317
0.183737
0.172446
0.168403
0.286714
0.148686
0.231965
0.242061
0.218642
0.275253
0.251381
0.367780
0.366194
0.412056
0.435101
0.481838
0.452583
0.400039
0.490162
0.428715
0.461721
0.443523
0.507628
0.446897
0.573365
0.598985
0.569368
0.540187
0.517213
0.456869
0.477611
0.535741
0.434670
0.408667
0.504093
0.350858
0.325946
0.304246
0.365036
0.405700
0.323864
0.375821
0.251177
0.228312
0.228629
0.328715
0.156993
0.253021
0.156936
0.188197
0.090264
0.099190
0.101292
0.030120
0.123254
0.031705
-0.010262
-0.000965
-0.030213
0.043825
0.025846
0.063449
0.063036
0.133010
-0.062458
-0.041521
-0.010314
-0.025875
0.045470
-0.029362
-0.100686
-0.058986
0.029587
-0.114762
-0.114116
-0.034367
-0.006689
-0.132353
-0.083017
-0.080517
-0.013696
-0.063134
-0.044119
-0.041507
-0.020673
-0.066885
-0.129645
-0.030781
-0.095575
-0.052614
-0.101374
-0.109031
-0.015975
-0.042910
-0.012600
-0.027696
0.004596
-0.097867
-0.050905
-0.048125
-0.138146
-0.073671
-0.020884
0.031850
-0.000497
-0.061728
0.030334
0.039758
0.055005
-0.009885
0.026459
0.035033
0.096497
0.133589
0.024533
0.035525
0.097981
0.081622
0.114884
0.124006
0.097570
0.074792
0.123890
0.169744
0.108556
0.042087
0.047571
0.139281
0.139414
0.102922
0.094508
0.051729
0.013787
0.110210
0.074045
-0.084887
0.002062
-0.033864
-0.013996
-0.092782
-0.018278
0.011858
0.042808
0.010192
-0.080972
0.025270
0.007107
-0.079684
-0.022623
-0.124883
-0.037307
0.073549
0.216900
0.428977
0.840633
1.116307
1.261010
1.320279
1.165057
0.917054
0.449598
0.141321
-0.046212
-0.182674
-0.308538
-0.265594
-0.108372
-0.074643
-0.029188
-0.095380
-0.030746
0.017621
0.026083
-0.068876
-0.008409
0.075338
0.102012
-0.004662
0.098749
0.153658
0.187005
0.139117
0.107598
0.132668
0.225853
0.183228
0.262507
0.363010
0.298567
0.283251
0.357780
0.400725
0.414107
0.364212
0.288646
0.327054
0.489185
0.414951
0.434245
0.499333
0.407367
0.470535
0.461561
0.461612
0.433374
0.419975
0.414908
0.431568
0.333566
0.415474
0.329353
0.374185
0.380767
0.264243
0.308492
0.230154
0.305622
0.180478
0.229189
0.186006
0.110502
0.104097
0.051874
0.107371
0.094872
0.014925
0.046564
-0.031266
0.078277
0.119003
0.021388
-0.034595
0.002521
-0.000018
-0.104103
-0.072122
-0.030372
-0.070396
-0.105973
-0.121416
-0.040843
-0.087363
0.040000
-0.061853
-0.086651
-0.061469
-0.085078
-0.109531
0.021021
-0.059481
-0.047227
0.059127
-0.021848
0.014508
-0.068853
-0.091497
-0.156017
-0.043335
-0.127567
-0.022962
-0.095389
-0.085639
-0.054780
-0.089978
-0.105611
-0.063328
-0.084393
-0.061209
-0.101581
-0.082458
-0.081315
-0.082923
-0.043269
-0.052797
-0.079733
-0.085331
-0.068210
-0.070172
-0.060188
0.067137
0.007486
-0.074281
0.066227
0.103021
-0.056689
0.065284
0.052194
0.029075
0.048279
0.020189
0.030155
0.073106
0.146791
0.092489
0.155942
0.270124
0.129929
0.070672
0.136831
0.124395
0.212615
0.024208
0.086373
0.022431
0.004091
0.101027
0.037806
-0.025197
0.097305
0.018715
-0.045934
0.012707
0.008000
-0.030306
-0.057739
0.008889
-0.022705
-0.047541
-0.066495
0.056011
-0.020239
-0.078569
0.015006
-0.013835
-0.075304
0.049314
0.085989
0.323812
0.623570
0.926927
1.203313
1.377420
1.312604
1.051646
0.651988
0.194525
0.083879
-0.129209
-0.218075
-0.156378
-0.247975
-0.022887
-0.017701
-0.046626
-0.040041
0.031972
-0.008044
0.138144
0.037005
0.044687
0.044059
0.118471
0.158710
0.174612
0.246366
0.160160
0.252589
0.186837
0.317818
0.269314
0.339382
0.337233
0.350304
0.491596
0.451141
0.360150
0.421132
0.428154
0.440727
0.504558
0.477710
0.513172
0.523192
0.463712
0.452850
0.572046
0.495819
0.465588
0.512413
0.503253
0.421374
0.493251
0.471505
0.493398
0.365966
0.416773
0.401753
0.337805
0.406608
0.281029
0.366317
0.250730
0.231856
0.195659
0.172555
0.153512
0.228344
0.132906
0.181190
0.186030
0.185197
0.093795
0.110267
0.055337
0.059698
0.067562
0.001390
0.063904
0.067634
0.016413
-0.024055
-0.027837
-0.010907
-0.008488
0.113193
0.038585
-0.007680
0.036912
-0.025017
0.019812
0.061304
0.030173
0.013653
-0.045306
0.031717
-0.009995
0.096141
-0.026394
-0.014923
0.005126
-0.022280
0.028089
0.074611
-0.068094
-0.021596
-0.008161
0.124974
0.006196
-0.017677
-0.038936
-0.036133
0.004960
-0.024712
-0.002321
0.001348
0.038654
0.060265
-0.053315
0.113136
0.078546
0.080505
-0.061246
0.037837
0.086835
0.156102
0.078405
0.058684
0.131476
0.146905
-0.003190
0.166195
0.063407
0.140080
0.175510
0.189118
0.147966
0.249291
0.158759
0.274682
0.283264
0.170634
0.190411
0.267531
0.143701
0.200607
0.152540
0.146225
0.218659
0.129595
0.227729
0.143341
0.170659
0.057392
0.191522
0.194501
0.205602
0.093280
0.039421
0.023119
0.062658
0.039801
0.044834
0.076577
0.054947
0.093917
0.039366
0.011352
0.056871
0.056313
0.063503
0.190980
0.306183
0.546512
0.914254
1.201211
1.411337
1.494696
1.279417
0.983718
0.581302
0.228358
-0.072975
-0.158322
-0.131652
-0.156344
-0.073452
0.120557
0.062137
0.197507
0.161290
0.226072
0.086776
0.100656
0.153025
0.125317
0.187111
0.370288
0.224323
0.287852
0.326295
0.269069
0.327115
0.306903
0.309366
0.417689
0.440613
0.443972
0.422414
0.423423
0.424133
0.474846
0.506724
0.634889
0.568970
0.568364
0.577876
0.709366
0.585669
0.647333
0.597929
0.582404
0.635433
0.664974
0.554263
0.511900
0.526323
0.570106
0.554968
0.535021
0.527159
0.587571
0.356966
0.442088
0.398357
0.397765
0.432996
0.284579
0.358741
0.244964
0.296087
0.224026
0.231772
0.212042
0.272062
0.161544
0.170493
0.229996
0.150433
0.132641
0.012516
0.051652
0.135943
0.101277
0.002266
0.072658
0.100472
0.071732
0.081625
0.076101
0.024429
0.059022
0.025999
0.022065
-0.010520
-0.019510
0.091152
0.146838
0.063900
0.007951
0.018638
0.021788
0.061459
0.064581
0.077501
0.071284
0.069097
-0.040154
0.083740
0.041849
0.091461
0.105519
0.040573
-0.069156
0.038545
0.078515
0.019020
0.012640
0.046401
0.067688
0.069552
0.059517
0.033356
0.091494
0.032638
0.105238
0.078713
0.131995
0.085115
0.077526
0.037704
0.144119
0.089910
0.162284
0.115459
0.170592
0.161338
0.136457
0.181022
0.215845
0.134848
0.130551
0.212480
0.325288
0.197877
0.163492
0.289385
0.209741
0.228826
0.176630
0.180224
0.200197
0.167347
0.135310
0.184735
0.198444
0.202894
0.155861
0.095272
-0.016888
0.214058
0.078128
0.043309
0.089909
-0.015179
0.106262
0.009893
0.080246
0.035216
0.049631
0.061717
0.066672
0.014911
0.072813
0.012523
0.073831
0.354203
0.462861
0.715648
1.032539
1.387487
1.387196
1.368702
1.105174
0.713186
0.314466
-0.016262
-0.111614
-0.282220
-0.134789
-0.014406
0.012313
0.062618
-0.019789
0.033245
0.031447
0.051945
0.056844
0.062791
0.117173
0.185424
0.192084
0.237594
0.145922
0.210019
0.296291
0.179211
0.332093
0.274032
0.314571
0.319862
0.332586
0.390025
0.351733
0.429457
0.415654
0.419824
0.504182
0.442928
0.476669
0.502187
0.470222
0.509835
0.465895
0.544748
0.491768
0.581599
0.535159
0.505048
0.464706
0.500088
0.445804
0.452531
0.444746
0.420457
0.385478
0.372893
0.394035
0.308975
0.276168
0.238797
0.249919
0.300920
0.263699
0.185671
0.249652
0.159942
0.129139
0.149596
0.074110
0.058288
0.066510
0.026277
0.032730
0.012039
0.069791
0.081473
0.000199
0.040108
-0.051645
0.055188
-0.005708
0.021246
-0.027350
0.007159
-0.094686
0.069005
-0.055457
0.001569
-0.064261
-0.085460
0.007359
-0.034193
-0.045252
-0.052639
-0.060521
-0.044215
-0.113782
-0.028711
-0.051557
-0.032125
-0.129042
-0.078405
-0.095936
0.030489
-0.067260
-0.064303
-0.085045
-0.066674
-0.046502
-0.012558
-0.039284
-0.006715
-0.075638
-0.011116
-0.036071
-0.010815
-0.096134
0.035953
-0.018050
-0.012043
-0.049838
-0.017071
0.056637
0.014997
0.009823
0.028946
0.103428
0.101153
0.016540
0.001131
0.070114
0.073848
0.075817
0.174067
0.017974
0.095177
0.081501
0.175008
0.104904
0.191364
0.202165
0.164682
0.049495
0.158643
0.137099
0.127785
0.144257
-0.006507
0.147070
-0.024340
0.059277
0.076014
0.039746
-0.008013
-0.066961
-0.051415
0.011641
-0.069701
-0.030768
-0.067418
-0.107277
-0.154235
-0.104157
-0.128806
-0.140441
-0.094275
-0.036765
-0.092833
-0.059174
0.052823
0.269017
0.573346
0.873795
1.183979
1.306980
1.297670
1.142113
0.680815
0.376494
0.016963
-0.146324
-0.271277
-0.230544
-0.209710
-0.086569
-0.122894
-0.113389
0.008730
0.014534
0.038607
-0.020676
0.001136
0.070605
0.070868
0.034247
0.034406
0.067216
0.083944
0.143968
0.102227
0.246039
0.121069
0.176285
0.195708
0.340589
0.254986
0.198659
0.250319
0.294912
0.359060
0.436577
0.391237
0.444303
0.456033
0.394255
0.413398
0.454922
0.512206
0.381049
0.428573
0.453905
0.432662
0.468198
0.328499
0.399714
0.327877
0.373140
0.269679
0.372237
0.279069
0.326170
0.266484
0.270557
0.278299
0.210490
0.211116
0.159330
0.164016
0.170417
0.099300
0.146797
0.148148
0.081714
0.050807
0.012189
0.044967
-0.019548
0.029554
-0.034878
-0.109116
-0.072870
-0.089909
-0.076175
-0.055412
-0.047972
0.016049
-0.110750
-0.084633
-0.080457
-0.074965
-0.091478
-0.024740
-0.133551
-0.106609
-0.087192
-0.133861
-0.089764
-0.145106
-0.125052
-0.120022
-0.075537
-0.088756
-0.088025
-0.012179
-0.080905
-0.038792
-0.107331
-0.135483
-0.143013
-0.155488
-0.034167
-0.070029
-0.052536
0.006793
-0.164603
-0.029484
-0.144708
-0.142919
-0.073567
-0.105936
-0.036980
-0.104186
0.004277
-0.093870
-0.064657
-0.113733
0.022173
-0.109021
0.031323
-0.071804
-0.098982
0.042864
0.009773
0.056185
0.055233
0.067390
0.053086
0.027424
0.023593
0.078064
0.108828
0.058389
0.073085
0.145794
0.100262
0.148651
0.062988
0.060075
0.007365
0.117118
0.151159
0.043714
-0.028651
0.150558
0.000441
-0.001021
0.088631
0.000331
-0.094998
0.013326
-0.095994
-0.070367
-0.161964
-0.034715
-0.146726
-0.021150
-0.023759
-0.144510
-0.043036
-0.099252
-0.087615
-0.097693
-0.021945
0.002145
0.158999
0.507692
0.728336
0.979727
1.177643
1.328948
1.180221
0.960845
0.521663
0.151858
-0.154965
-0.202282
-0.207829
-0.203027
-0.059941
-0.065131
-0.020847
0.022632
0.051789
-0.037962
-0.006480
-0.020985
-0.000388
0.070678
0.050655
0.082225
0.146806
0.092629
0.052230
0.155522
0.229052
0.156804
0.256864
0.281510
0.363571
0.324786
0.349069
0.377832
0.400395
0.446517
0.444446
0.448745
0.359894
0.476717
0.494200
0.475961
0.396512
0.420242
0.494599
0.500476
0.411370
0.439359
0.445805
0.478912
0.358542
0.441422
0.439131
0.356239
0.326696
0.323835
0.373169
0.237371
0.255921
0.276314
0.356370
0.187542
0.254692
0.165343
0.257809
0.149224
0.113058
0.110420
0.095968
0.150137
0.003002
0.045311
0.070472
0.125950
-0.006679
-0.035953
-0.001824
0.054354
-0.001459
-0.011307
0.014502
-0.039610
-0.112002
-0.107878
-0.017164
-0.008142
-0.028339
-0.021128
-0.074331
-0.089936
-0.057747
-0.084711
-0.101175
-0.007287
0.003201
-0.026720
-0.054064
-0.058750
-0.003844
-0.052609
-0.070921
-0.042547
-0.158718
-0.030650
0.067129
-0.034117
-0.001410
-0.054136
-0.085952
-0.010753
-0.016576
0.060888
0.047309
-0.076870
0.036957
-0.006075
0.014557
-0.037030
-0.024479
0.040872
-0.013637
0.028012
-0.005749
0.122641
-0.002929
0.042224
0.143931
0.094140
0.073930
0.125610
0.177780
0.132601
0.098191
0.071196
0.193435
0.237274
0.140464
0.084375
0.243522
0.190468
0.162888
0.131417
0.278025
0.216343
0.143610
0.144748
0.169077
0.157573
0.168279
0.118068
0.177068
0.149729
0.048233
0.063160
0.090041
0.112763
0.136118
0.107646
0.075642
-0.037989
0.068079
0.052990
0.055639
0.064890
0.102031
0.012653
0.016266
-0.001102
-0.023004
0.173804
0.240781
0.380939
0.651576
0.977797
1.234949
1.330487
1.386837
1.126548
0.820085
0.443737
0.066980
-0.056422
-0.083973
-0.126980
-0.065480
-0.021569
0.116790
0.013637
0.161442
0.096654
0.124198
0.093980
0.071639
0.145174
0.215581
0.169971
0.218961
0.212208
0.283234
0.238472
0.322412
0.273531
0.334255
0.416511
0.401416
0.454783
0.328436
0.408252
0.423939
0.425747
0.539685
0.495816
0.504440
0.568682
0.544896
0.575538
0.650020
0.537181
0.580876
0.578114
0.533248
0.591797
0.596487
0.576049
0.533010
0.441662
0.570665
0.430082
0.482517
0.527337
0.419623
0.463840
0.297864
0.333002
0.374239
0.367728
0.311639
0.372343
0.327210
0.302811
0.275543
0.263733
0.325697
0.115057
0.216153
0.196447
0.174434
0.248764
0.056243
0.141985
0.147773
0.132859
0.052908
0.192160
0.152202
0.112515
0.104935
0.114232
0.086770
0.083250
0.069196
0.142134
0.153642
0.061073
0.123488
0.080523
0.085386
0.011900
0.072238
-0.000336
0.051574
0.009098
0.099983
0.069626
0.033232
0.131057
0.098338
0.112408
-0.019533
0.046838
0.104042
0.115090
0.074061
0.059932
0.040182
0.085038
0.039213
0.069937
0.111182
0.134055
0.105682
0.070736
0.086097
0.133085
0.059033
-0.022700
0.063693
0.095755
0.050749
0.108223
0.106836
0.143597
0.217015
0.122492
0.216193
0.224327
0.169930
0.224333
0.120765
0.396450
0.308393
0.304635
0.312559
0.257014
0.255555
0.320501
0.181881
0.236328
0.190150
0.247284
0.167987
0.224425
0.220702
0.188798
0.195363
0.169406
0.151545
0.236578
0.140474
0.137598
0.225856
0.090374
0.154063
0.090629
0.090720
0.115184
0.065098
0.104683
