-0.020008
0.012615
0.047557
-0.022185
0.039812
0.033690
-0.049379
0.030181
0.034636
-0.027294
-0.022697
0.022804
0.052423
0.003836
0.053655
-0.006225
0.059657
0.003968
0.038146
0.097797
0.048144
0.015722
0.022403
0.068669
0.047118
0.075370
0.063107
0.088639
0.131742
0.028023
0.142992
0.071947
0.065185
0.135791
0.150146
0.143134
0.197841
0.203739
0.134458
0.242426
0.204078
0.149087
0.147720
0.210034
0.157202
0.167506
0.199338
0.220068
0.166212
0.164755
0.113536
0.162787
0.067929
0.138668
0.117272
0.086879
0.053890
0.008289
0.023206
0.016675
0.142622
0.109285
0.121696
-0.007620
0.110229
0.125102
0.069902
0.051471
0.040968
-0.004589
0.022697
-0.003262
0.064216
0.047021
0.026613
0.022215
0.104068
0.098905
0.170848
0.365573
0.581039
0.849701
1.143165
1.391410
1.292628
1.175501
0.809996
0.580816
0.187733
-0.041354
-0.178200
-0.191458
-0.186656
-0.033506
0.024121
0.068219
0.113617
0.051988
0.096127
0.107414
0.008537
0.028920
0.080336
0.121030
0.102477
0.084980
0.138309
0.165502
0.162362
0.240660
0.057905
0.089622
0.180307
0.200699
0.231619
0.215165
0.286953
0.256147
0.296053
0.360814
0.402820
0.390180
0.366186
0.411486
0.404535
0.520010
0.494320
0.516798
0.542835
0.468459
0.420565
0.501615
0.530806
0.553230
0.563410
0.561358
0.531341
0.449129
0.510886
0.557967
0.526611
0.482665
0.526042
0.518724
0.470881
0.412741
0.473676
0.460605
0.408863
0.348315
0.355514
0.433224
0.287828
0.414911
0.288392
0.284806
0.240773
0.292674
0.209424
0.228268
0.137286
0.224714
0.176269
0.225991
0.189806
0.158937
0.107683
0.187411
0.135634
0.097310
0.054067
0.061860
0.112350
0.097588
0.059974
0.027457
0.068661
0.062196
0.141145
0.127204
0.053648
0.101713
0.100053
0.174895
0.103600
0.101985
0.135226
0.136528
0.068227
0.136483
0.067373
0.099876
0.132993
0.068858
0.078969
0.064294
0.092437
0.100144
0.005322
0.070360
0.107015
0.030686
0.081460
0.080910
0.029705
0.085310
0.091017
0.040069
0.053305
0.059320
0.145205
0.123905
0.064009
-0.016087
0.046826
0.051403
0.063985
0.163424
0.101393
0.088509
0.071233
0.062719
0.071490
0.130220
0.122453
0.060626
0.064004
0.097461
0.076185
0.076079
0.179536
0.135119
0.158869
0.070895
0.086109
0.018336
0.208113
0.198206
0.223508
0.191055
0.202947
0.209610
0.202624
0.140536
0.259897
0.283473
0.169198
0.201585
0.235877
0.237440
0.245396
0.272804
0.222913
0.185383
0.182711
0.215583
0.178463
0.109726
0.240909
0.121370
0.197714
0.098551
0.194725
0.096733
0.178064
0.061367
0.160408
0.142883
0.171548
0.064868
0.124124
0.143028
0.081243
0.103537
0.077361
0.057065
-0.032837
0.050580
0.064578
0.046129
0.059917
0.095175
0.101983
0.125366
0.009945
-0.081599
0.149975
0.238323
0.579888
0.806253
1.085339
1.252742
1.364739
1.244833
0.925876
0.603351
0.271715
0.049620
-0.173642
-0.063851
-0.124118
-0.057760
-0.019855
0.032675
0.038261
0.029716
0.107293
0.040706
0.088242
0.139710
0.119241
0.069046
0.068012
0.156170
0.114899
0.092868
0.088809
0.145520
0.098251
0.256720
0.148261
0.272666
0.155254
0.174407
0.174592
0.329247
0.267750
0.313106
0.363779
0.332823
0.294009
0.361241
0.433317
0.465508
0.379924
0.455048
0.407502
0.519636
0.553239
0.487463
0.497475
0.510192
0.510524
0.569982
0.496093
0.513734
0.514666
0.484198
0.446882
0.529239
0.470848
0.492196
0.379356
0.472496
0.364335
0.444915
0.451912
0.350792
0.346131
0.379088
0.313457
0.300405
0.326414
0.198510
0.205533
0.206112
0.292657
0.132863
0.099720
0.122811
0.190198
0.129955
0.126282
0.150360
0.071698
0.148371
0.044295
0.089986
0.026079
0.045840
0.069308
0.088517
0.031592
-0.012189
0.018050
-0.029921
0.025259
0.066348
0.063812
0.092985
0.004597
-0.006591
0.024419
0.070454
-0.028464
-0.000795
-0.062212
0.031707
0.043893
0.011309
0.033174
-0.045829
-0.024272
-0.035510
0.075487
-0.067810
-0.051972
0.004392
-0.011682
0.086184
-0.039256
0.018682
0.008078
-0.040462
-0.077146
0.114014
0.045664
0.033894
-0.076205
0.024633
0.116577
-0.013442
-0.082346
-0.005749
-0.052278
-0.042762
-0.052617
-0.027694
0.049410
0.120883
0.002142
-0.020806
0.044170
0.030805
-0.045166
-0.002429
-0.014823
-0.021017
0.013332
-0.017516
-0.028782
0.078605
0.025579
0.023161
0.029538
0.094467
0.013222
0.066441
0.033603
0.117102
0.033392
0.179357
0.127644
0.085368
0.165899
0.127858
0.165407
0.115081
0.088750
0.174626
0.117200
0.181622
0.033756
0.161147
0.089368
0.050449
0.030471
0.074442
0.105419
0.076663
0.063239
0.024991
0.071653
0.027187
0.035614
0.002844
0.077418
0.049288
0.034696
-0.007053
-0.042488
0.000196
-0.059186
-0.021195
-0.056781
-0.073344
0.033027
-0.044903
-0.062098
-0.047207
-0.047508
-0.073299
-0.042108
-0.006718
0.020781
0.052982
0.337531
0.595761
0.925940
1.184160
1.211693
1.194078
0.966187
0.616100
0.239745
0.036623
-0.122280
-0.229731
-0.241804
-0.187898
-0.111028
-0.063488
-0.091951
-0.042729
-0.054415
-0.058703
0.037100
-0.013608
0.026946
-0.021997
-0.014306
0.090940
-0.015859
0.007622
0.072721
0.057051
0.075251
0.030465
0.065269
0.119153
0.104936
0.179044
0.124173
0.167925
0.169115
0.181462
0.232127
0.268135
0.200261
0.311205
0.278087
0.294127
0.377582
0.317525
0.338478
0.379791
0.406103
0.387465
0.435099
0.480303
0.492340
0.429571
0.406515
0.292873
0.428544
0.441762
0.407008
0.408719
0.372878
0.352528
0.396083
0.420383
0.420302
0.355201
0.330939
0.265029
0.236969
0.235680
0.270914
0.231212
0.182272
0.138607
0.190643
0.155222
0.066708
0.111240
0.032261
0.077800
-0.012724
0.032246
0.013527
0.073791
0.055919
-0.021380
0.020607
-0.045000
0.003759
-0.032958
-0.034475
0.011982
-0.028889
-0.025494
-0.040263
-0.076514
-0.008596
-0.122338
-0.016099
-0.094460
-0.035323
-0.009857
-0.064435
0.000207
-0.098410
-0.069936
-0.053468
-0.030697
-0.048249
0.068493
0.008763
-0.044414
-0.122255
-0.055603
-0.016917
-0.049180
-0.058745
-0.093950
-0.061025
0.016978
-0.010729
-0.035377
-0.002375
-0.056011
-0.061214
-0.073415
-0.153501
-0.025491
-0.098234
-0.040827
-0.088722
-0.087101
-0.045435
-0.094667
-0.037187
0.021190
0.021579
-0.021521
0.004318
0.059473
-0.062559
-0.041884
0.056990
-0.012747
-0.043675
-0.092537
-0.009966
-0.016629
-0.009939
0.005847
0.032904
-0.006018
0.032121
-0.019240
-0.042174
0.000577
0.023954
0.046088
0.102889
0.094699
-0.000646
0.123088
0.102726
0.202187
0.106468
0.078699
0.160080
0.152096
0.166576
0.082244
0.093842
0.127399
0.094847
0.122493
0.089699
0.086652
0.104309
0.044584
0.117039
0.046864
0.066514
-0.002119
0.106361
0.098310
0.005000
-0.006134
-0.043394
-0.034920
0.032641
-0.002496
0.048848
0.062953
-0.003851
0.042433
0.052946
-0.013408
-0.009571
0.005149
-0.019043
0.015638
0.037681
-0.043776
-0.069839
-0.052913
-0.078132
0.133309
0.242976
0.508738
0.852845
1.122849
1.282101
1.307920
1.129719
0.833469
0.413547
0.098111
-0.158388
-0.200896
-0.250605
-0.157349
-0.075321
-0.112270
0.026562
0.056462
0.019477
0.065832
-0.001457
0.056141
-0.005522
0.104194
0.114466
0.102749
0.061745
0.052817
0.102353
0.134654
0.137660
0.113516
0.146034
0.130507
0.172613
0.135726
0.220682
0.264112
0.207238
0.285972
0.229268
0.380411
0.343158
0.402925
0.300662
0.399777
0.341673
0.511369
0.386077
0.512330
0.512230
0.430369
0.469192
0.459284
0.519879
0.535598
0.401449
0.530671
0.524340
0.435469
0.428349
0.483790
0.539157
0.464304
0.497036
0.436988
0.378634
0.446547
0.412515
0.374575
0.385723
0.355790
0.287987
0.304148
0.291601
0.225899
0.317684
0.236098
0.283155
0.143397
0.242097
0.145286
0.146953
0.112233
0.098411
0.113645
0.141034
0.104885
0.039664
0.093903
0.038567
0.064722
0.098536
0.064603
0.027912
0.040502
0.063867
0.097710
0.092938
0.035251
0.065169
0.071892
0.023775
0.123265
0.017095
0.036212
0.070943
0.007394
-0.017946
0.073156
0.104274
0.124026
0.072830
0.090620
0.016092
0.069314
0.022086
0.151285
0.063898
0.029368
0.083467
0.033988
0.061302
0.006927
0.094942
0.081918
0.064928
0.043271
0.076233
0.002676
0.063302
0.031971
-0.009918
0.062449
0.029845
0.067925
0.123905
0.057142
0.077917
0.031328
-0.049836
0.059102
0.042528
0.036955
0.076180
0.083715
0.091280
0.018696
0.127650
0.010664
0.065090
0.114712
0.067940
0.051781
0.137830
0.110020
0.145591
0.197407
0.195886
0.158546
0.223670
0.206110
0.218460
0.198858
0.174977
0.275064
0.204683
0.283817
0.210082
0.185629
0.230748
0.286933
0.239248
0.231831
0.180648
0.281482
0.269080
0.163364
0.286840
0.104513
0.174098
0.195283
0.192294
0.150754
0.140420
0.150056
0.150589
0.152225
0.141114
0.132871
0.110908
0.125190
0.087854
0.079604
0.057614
0.113489
0.041801
0.000828
0.116808
0.113965
0.082242
0.150549
0.047032
0.087283
0.106590
-0.012827
0.063312
0.150128
0.260798
0.550325
0.842272
1.114913
1.363721
1.500000
1.221775
1.025150
0.675023
0.357429
0.088266
-0.021220
-0.124197
-0.075015
-0.035692
0.016023
0.018041
0.052189
0.146981
0.054528
0.140148
0.076273
0.119722
0.142580
0.213647
0.190763
0.102715
0.102074
0.223379
0.229448
0.153766
0.168485
0.173572
0.173362
0.279975
0.245769
0.246439
0.268827
0.348346
0.313160
0.301092
0.418423
0.345817
0.373434
0.427387
0.431762
0.426567
0.429049
0.574039
0.496196
0.465764
0.544790
0.508289
0.608002
0.591443
0.653514
0.559972
0.572399
0.551568
0.627856
0.623764
0.592115
0.522028
0.537063
0.465025
0.519135
0.469907
0.422510
0.495429
0.416671
0.401500
0.312176
0.328342
0.377362
0.369453
0.286612
0.305013
0.287670
0.285643
0.200423
0.231516
0.174330
0.176753
0.227186
0.202922
0.103949
0.122278
0.125584
0.108474
0.163350
0.123369
0.098869
0.130678
0.043807
0.099099
0.122309
0.032742
0.039159
0.080927
0.089962
0.119149
0.111606
0.077195
0.045243
0.059115
0.057157
0.113755
0.027017
-0.015157
0.041232
0.095351
0.023929
0.049462
0.107031
0.038697
0.179118
0.121990
0.029886
0.078297
-0.047257
0.091148
0.101653
-0.001486
0.011983
0.118077
0.010701
0.114031
0.001085
0.042745
0.074249
0.064909
0.041602
0.072304
0.019957
0.041277
0.071196
0.043933
-0.056421
0.061578
-0.029349
0.046540
0.081683
0.063799
0.107097
-0.009550
0.103154
0.041912
0.059199
0.090958
0.088000
0.084976
0.101107
0.149494
0.081598
0.064321
0.086359
0.061014
0.076343
0.131968
0.055274
0.069850
0.145132
0.174797
0.164933
0.229734
0.123329
0.221242
0.225608
0.208523
0.182782
0.207798
0.242392
0.303475
0.213873
0.145658
0.172624
0.156602
0.230784
0.212467
0.185788
0.152881
0.160955
0.136998
0.043596
0.121421
0.109805
0.085070
0.019819
0.155702
0.032919
0.125356
0.097811
0.027192
0.086224
0.011796
0.080082
-0.061538
0.027352
0.058777
0.083117
0.056708
0.018799
0.080521
-0.017588
-0.018768
-0.049774
0.006668
0.121862
0.188934
0.346324
0.629624
0.967165
1.243916
1.231388
1.288389
1.053469
0.606793
0.351664
0.039995
-0.084635
-0.244947
-0.257975
-0.187883
-0.070642
-0.088525
-0.041307
0.001084
-0.027100
0.007400
0.031048
-0.023172
-0.008196
0.024083
0.106282
0.080818
0.040722
0.053967
0.038350
0.150247
0.070628
0.177458
0.123485
0.169236
0.162581
0.205209
0.179894
0.196459
0.244106
0.221445
0.291393
0.349717
0.257372
0.284069
0.312427
0.325743
0.359830
0.256098
0.321638
0.371911
0.469810
0.408944
0.477803
0.482047
0.369246
0.461563
0.478479
0.442034
0.451039
0.454706
0.476635
0.452565
0.380292
0.430527
0.432229
0.289857
0.341109
0.379005
0.363242
0.257909
0.383626
0.231323
0.272451
0.144734
0.259446
0.224999
0.202726
0.161992
0.123921
0.091493
0.061551
0.054753
0.006696
0.112223
0.143808
-0.022254
0.016906
0.122658
0.026736
-0.027830
0.044596
-0.040506
-0.000124
-0.030141
0.057223
0.000720
-0.093979
-0.065755
-0.093284
-0.083720
-0.004631
0.013531
-0.057287
-0.063984
-0.068512
-0.096338
-0.047647
-0.104474
-0.052191
-0.083494
-0.044230
-0.042735
-0.013326
-0.050944
-0.000487
-0.085210
-0.047696
-0.084672
-0.043483
-0.089020
-0.100223
-0.040791
-0.063994
-0.039169
-0.099451
-0.040342
-0.107269
-0.007338
-0.039584
0.019495
-0.035820
-0.037775
-0.090908
-0.049620
-0.135375
-0.029273
-0.104497
-0.086178
-0.057785
-0.082469
-0.081233
-0.000595
0.010214
-0.072082
-0.079143
-0.013709
-0.044722
0.012690
-0.061141
-0.032079
-0.006251
-0.066383
-0.013889
-0.012939
-0.016507
0.061992
0.040737
0.036469
-0.012392
-0.006793
-0.012860
0.005483
0.076442
0.031870
0.086975
0.101244
0.039173
0.092074
0.070554
0.111936
0.058483
0.086351
0.123824
0.121461
0.075691
0.090614
0.066670
0.071445
0.100983
0.060238
0.028199
0.150211
0.069119
0.016777
-0.046526
-0.037664
0.016576
-0.052885
0.049089
0.027306
-0.042256
-0.075417
-0.012014
-0.056543
-0.045480
-0.089231
-0.038269
-0.126830
-0.114174
-0.063250
-0.060610
-0.069454
-0.083887
-0.048483
-0.053208
-0.140510
-0.042632
0.037308
0.147030
0.446214
0.758311
1.035696
1.220830
1.210133
1.056752
0.702243
0.320985
0.018590
-0.211147
-0.253619
-0.301848
-0.297594
-0.125710
-0.194569
-0.135010
-0.010821
-0.135514
0.003133
-0.033262
-0.011860
-0.025691
0.101513
-0.005114
-0.001665
-0.063715
-0.087086
0.031265
-0.028333
0.054640
0.075489
0.018924
0.076221
0.033029
0.122919
0.048598
0.191509
0.134449
0.142109
0.188500
0.240419
0.270221
0.227947
0.313674
0.231706
0.372409
0.334143
0.271604
0.390527
0.335803
0.356606
0.435243
0.355706
0.388450
0.359567
0.429419
0.417414
0.307336
0.403619
0.404136
0.362953
0.373580
0.360351
0.365071
0.394780
0.309473
0.213388
0.264460
0.268727
0.240600
0.215671
0.219413
0.147552
0.123484
0.180395
0.172459
0.134212
0.198829
0.059981
0.083583
-0.013491
0.007169
0.043429
0.074607
0.018718
0.012236
-0.029877
-0.019716
-0.065611
-0.101846
-0.093212
-0.094814
-0.010624
-0.158949
-0.036181
-0.033424
0.007187
-0.086842
0.000443
-0.068912
-0.071078
-0.040704
-0.057595
-0.093324
-0.070409
-0.062603
-0.066940
-0.057381
-0.080729
-0.076901
-0.088256
-0.043727
-0.054805
-0.117726
0.014799
-0.009877
-0.035103
-0.027780
-0.020432
0.005490
-0.115832
-0.105522
-0.005719
-0.054549
-0.069296
-0.039020
-0.006897
-0.074679
-0.100164
-0.009397
-0.121312
0.011501
-0.055141
-0.102419
0.030626
-0.091845
-0.008740
0.031406
-0.012969
-0.032220
-0.106112
-0.091998
-0.086014
-0.020381
-0.030714
0.022308
0.027844
0.002703
-0.034881
-0.002977
-0.083018
0.001631
-0.031697
0.100650
0.026868
0.006408
-0.022056
-0.053601
0.068626
0.068318
0.011410
0.001548
0.090123
0.122784
0.106540
0.125289
0.118290
0.160881
0.157766
0.168000
0.193646
0.168780
0.074718
0.107846
0.144661
0.091779
0.115031
0.083700
0.038896
0.080407
0.200540
0.045408
0.118952
0.122873
0.012223
0.008862
0.043303
0.035032
-0.014263
-0.057863
-0.000726
0.000496
-0.011457
-0.047122
-0.053620
-0.048887
-0.054845
0.042985
0.003959
-0.117661
0.017997
0.040989
-0.040552
-0.019027
0.015577
-0.001530
0.005744
0.220914
0.529930
0.751967
1.080727
1.253478
1.332294
1.159560
0.898115
0.523114
0.147920
-0.021536
-0.173655
-0.172811
-0.243196
-0.035781
-0.070388
-0.041393
-0.046410
0.019109
-0.019916
-0.014450
-0.005801
0.044627
0.072438
0.086277
0.057883
0.060638
0.075079
0.169522
0.054963
0.150214
0.123363
0.157434
0.165066
0.216053
0.186930
0.251078
0.249889
0.235749
0.288485
0.352938
0.273674
0.259179
0.347802
0.375813
0.364142
0.441301
0.375443
0.429193
0.405041
0.395466
0.553267
0.476051
0.438998
0.513565
0.530155
0.477632
0.519652
0.552276
0.450381
0.440941
0.552951
0.542199
0.396794
0.496164
0.476821
0.389855
0.384831
0.367586
0.411890
0.281770
0.363519
0.240313
0.280312
0.214828
0.282163
0.263047
0.277109
0.220563
0.156528
0.200205
0.213777
0.143680
0.143413
0.042841
0.147151
0.130569
0.141853
0.072400
0.118294
0.051837
0.015019
0.092888
-0.012101
0.038829
0.122676
0.096245
0.007650
0.063011
-0.003385
0.018611
0.036506
0.070148
0.029545
-0.034852
0.066312
0.073142
-0.007274
-0.009027
0.040220
0.057417
0.023785
-0.049240
-0.033103
0.072963
0.086234
0.002635
0.088856
0.031759
0.033453
-0.005200
0.101394
-0.030067
0.014754
0.034605
0.111489
0.022573
-0.106204
-0.006842
0.081639
-0.009372
0.097026
-0.047692
0.027193
0.062650
-0.007294
0.101692
-0.013345
0.083139
0.038782
0.008618
0.056027
0.113047
0.084862
0.069556
-0.025932
0.003387
0.053866
0.094282
0.022905
0.049609
0.030201
0.039885
0.085884
0.049059
0.093983
0.085658
0.082274
0.088013
0.118487
0.113751
0.153186
0.081515
0.147086
0.145110
0.146032
0.208474
0.175687
0.250553
0.199198
0.175167
0.242209
0.190089
0.197349
0.226451
0.217186
0.178218
0.156018
0.129974
0.207540
0.076575
0.102221
0.159375
0.089934
0.079205
0.156107
0.097510
0.121719
0.094374
0.075284
0.039889
0.032332
0.047078
0.097663
0.033733
0.037413
0.010282
0.050965
0.072836
0.072281
-0.022178
-0.039618
0.050245
0.008056
0.054103
0.072099
0.015669
0.110057
0.201514
0.445767
0.642750
0.968202
1.193194
1.352464
1.314274
0.940951
0.723097
0.365820
0.119033
-0.108181
-0.173146
-0.222451
-0.093202
-0.039690
-0.054111
-0.001946
0.105082
0.090432
0.063164
0.018192
0.040124
0.131815
0.097097
0.099142
0.074508
0.065333
0.057194
0.180498
0.111569
0.136121
0.216814
0.142676
0.192111
0.145865
0.197828
0.172008
0.213324
0.156166
0.284971
0.336437
0.313865
0.264599
0.317296
0.415819
0.372240
0.374645
0.427673
0.433169
0.527162
0.412963
0.432346
0.481393
0.465317
0.464583
0.497331
0.543938
0.453809
0.486751
0.483928
0.500205
0.544263
0.466383
0.439781
0.387726
0.415060
0.310510
0.416081
0.369117
0.337150
0.347941
0.375205
0.313709
0.231872
0.206878
0.232792
0.260198
0.153753
0.164348
0.183103
0.135367
0.193670
0.189854
0.107714
0.106097
0.085814
0.114914
-0.001421
0.055996
0.001918
0.006732
0.075039
0.030236
-0.091783
0.017310
0.030184
0.048957
-0.001041
-0.002779
-0.046973
0.062618
-0.013976
-0.053340
0.007605
-0.050862
0.008345
0.041413
0.020199
-0.069629
-0.031572
0.033616
0.017230
0.090802
-0.079486
0.010785
-0.017754
0.019544
0.035128
-0.067941
-0.089820
-0.068020
0.061641
-0.039381
-0.010990
0.052310
0.044761
-0.000816
-0.031921
0.008778
-0.065924
-0.016001
-0.031398
-0.053447
0.034243
-0.061683
-0.028382
0.034165
0.036695
-0.039162
0.006746
-0.060144
-0.049209
-0.045505
-0.071533
0.043723
-0.055720
-0.021602
-0.095478
-0.003569
-0.093371
-0.001793
-0.005276
0.022351
0.026536
-0.051781
0.104106
0.062470
0.045996
0.016642
0.097716
0.075508
0.156779
0.056722
0.064866
0.088603
0.106962
0.126930
0.141316
0.101855
0.125246
0.092484
0.123847
0.076062
0.204323
0.068413
0.021479
0.096563
0.117019
0.086442
0.086920
0.101033
0.127835
0.040001
-0.003365
0.003872
-0.019239
0.054506
0.005816
-0.034050
0.002198
-0.045159
-0.039479
-0.011033
-0.018994
-0.001913
-0.042970
-0.013194
-0.032404
-0.115566
-0.042545
0.001710
-0.078305
-0.108690
-0.012759
-0.103524
-0.089147
-0.010739
0.007850
0.201708
0.467456
0.836361
0.951722
1.204642
1.159683
1.008246
0.731729
0.365690
0.047426
-0.217936
-0.279309
-0.229460
-0.211393
-0.227972
-0.166843
0.004417
-0.082798
0.001175
0.003960
0.012638
-0.079431
-0.017858
-0.033063
-0.050862
-0.047120
-0.026254
0.042474
0.006268
0.006242
0.031706
0.118331
0.044000
0.141469
0.051209
0.059434
0.103815
0.119668
0.133873
0.219281
0.210750
0.221592
0.229593
0.217013
0.261448
0.287187
0.307576
0.336340
0.398321
0.364857
0.259703
0.347322
0.400139
0.371312
0.340596
0.392106
0.433152
0.385212
0.482652
0.451262
0.431221
0.390372
0.303416
0.311329
0.371817
0.325146
0.339529
0.252175
0.252207
0.211262
0.273238
0.232206
0.171928
0.238694
0.147372
0.191652
0.007559
0.154293
0.064418
-0.013303
0.098327
-0.024269
0.019435
0.027290
-0.023272
0.032940
-0.061874
-0.088817
-0.014039
-0.058916
-0.006033
-0.109131
-0.074255
-0.055102
-0.020031
-0.042761
0.005355
-0.048284
-0.068805
-0.081910
-0.101639
-0.022085
-0.075539
-0.112368
-0.052810
0.007211
-0.175165
-0.095356
-0.077321
-0.133210
-0.082606
-0.075506
-0.054723
-0.095973
-0.157162
-0.123897
-0.183682
-0.154404
-0.100521
-0.109347
-0.042024
-0.004794
-0.095574
-0.064731
-0.038367
-0.065252
-0.098282
-0.157026
-0.105705
-0.080324
-0.068190
-0.111766
-0.123165
-0.104668
-0.104822
-0.074061
-0.055174
-0.049311
-0.050980
-0.075075
-0.086745
-0.166761
-0.164635
-0.096031
-0.142769
-0.122327
-0.067380
-0.150760
-0.101545
-0.026574
-0.101526
-0.051717
-0.102235
-0.056753
-0.095400
-0.061904
0.021742
-0.058785
0.022938
0.044652
0.005024
-0.035491
0.034184
0.081073
0.058429
-0.003230
0.046683
0.022388
0.059972
0.076270
0.078006
0.094109
0.115124
0.036383
0.072057
0.157130
0.054977
-0.028889
0.012755
-0.033847
0.081847
-0.035325
0.014935
0.041146
0.007362
-0.035089
-0.040059
-0.044065
0.027589
-0.031400
-0.011347
-0.017958
-0.094952
-0.080320
-0.048007
-0.021357
-0.043978
-0.129844
-0.114411
-0.029029
-0.045211
-0.158815
-0.063258
-0.062571
-0.107115
-0.118694
-0.117031
0.020637
0.145549
0.356119
0.651092
0.936526
1.253663
1.313278
1.132672
0.797093
0.548943
0.192232
-0.127831
-0.277400
-0.335850
-0.208411
-0.210282
-0.164184
-0.040855
0.024680
0.017014
-0.051399
-0.098866
0.013037
-0.061024
-0.008015
0.029096
0.046695
-0.003980
0.037448
-0.061748
-0.023432
0.002520
0.048701
0.044929
0.019464
0.145484
0.115495
0.214457
0.139773
0.185880
0.188473
0.138126
0.229623
0.292616
0.331674
0.268084
0.290445
0.380994
0.323316
0.312956
0.395006
0.382982
0.396169
0.443302
0.450032
0.345183
0.361005
0.480044
0.395826
0.397273
0.446804
0.379684
0.498352
0.281025
0.396629
0.385013
0.412154
0.335320
0.239886
0.293862
0.256252
0.361302
0.253125
0.314261
0.289246
0.180213
0.208181
0.115997
0.153031
0.169882
0.098629
0.125942
0.088180
0.083146
0.148256
0.059234
0.084413
0.037638
0.011403
-0.046149
0.004977
-0.010976
-0.050112
-0.017381
0.019753
-0.066017
0.001922
0.017935
-0.009886
-0.020881
0.010425
0.098093
0.042228
-0.027590
0.058584
0.013472
0.058663
-0.062972
0.023061
-0.039931
-0.039253
-0.106590
0.028348
-0.072455
-0.082840
-0.028378
-0.046011
-0.017292
-0.047809
0.060614
-0.054096
0.008619
-0.039161
-0.021873
0.031419
-0.006217
-0.037069
0.070310
0.035016
0.034505
-0.023831
0.004735
-0.023141
-0.024600
-0.040804
-0.051525
0.028805
-0.073142
-0.036096
-0.059046
0.003649
0.051073
-0.003144
0.000888
-0.015761
-0.039980
-0.003794
0.095523
0.038100
0.005540
-0.063420
0.108323
0.044228
0.044269
0.002026
0.043872
0.093224
0.070073
0.139388
0.080542
0.124552
0.156920
0.086943
0.163823
0.183615
0.178852
0.166637
0.128621
0.167311
0.186736
0.284426
0.187169
0.262823
0.208063
0.155395
0.227749
0.151070
0.201142
0.193211
0.118135
0.184414
0.067176
0.114379
0.094846
0.090801
0.126149
0.121477
0.091234
0.065572
0.046404
0.005933
0.076101
0.034917
0.022603
-0.011100
0.128927
0.036544
0.020453
0.083620
0.064636
0.072063
0.029748
-0.007519
-0.010658
-0.012221
0.035804
-0.031386
0.016581
0.168975
0.114100
0.341541
0.701932
0.939939
1.210743
1.337827
1.223535
1.079682
0.623296
0.331280
0.101979
0.007224
-0.179968
-0.188047
-0.147547
-0.007667
0.020584
0.010121
0.040926
0.133114
0.094554
0.072938
0.091181
0.029807
0.067029
0.108667
0.121629
0.128619
0.120897
0.096352
0.164104
0.199115
0.218450
0.085213
0.138110
0.255559
0.138515
0.150706
0.303292
0.283213
0.266075
0.316865
0.352404
0.409490
0.327071
0.345518
0.432741
0.363902
0.508842
0.470504
0.473296
0.422528
0.505974
0.544863
0.571490
0.553625
0.592983
0.566667
0.569835
0.575443
0.560015
0.514345
0.499151
0.502794
0.557850
0.455825
0.402014
0.461413
0.430405
0.359964
0.360780
0.361996
0.370656
0.373713
0.284544
0.259168
0.261045
0.261799
0.185797
0.282884
0.205975
0.156988
0.189965
0.194184
0.189982
0.160274
0.113285
0.073914
0.118883
0.115935
0.153031
0.092928
0.084715
0.145770
0.088662
0.074738
0.077096
0.044361
0.131875
0.128287
-0.002753
0.121435
0.084633
0.086321
0.042339
0.087795
0.061298
0.104171
0.042564
0.083828
0.016676
0.071387
0.045613
0.107059
0.096096
0.115590
0.098799
0.015296
0.113497
0.095966
0.028502
-0.006624
0.042025
0.031844
0.042993
0.007283
0.013841
0.069646
0.064220
0.121074
