0.014853
-0.019856
0.006535
-0.047479
-0.008608
-0.052010
0.057377
0.049145
0.043931
0.028512
0.065015
0.030645
0.028626
-0.032532
0.045803
0.007786
0.148339
0.028736
0.091728
0.074800
0.002888
0.138427
0.152354
0.129404
0.124175
0.115943
0.177638
0.130614
0.213937
0.223393
0.174703
0.280565
0.271165
0.239942
0.281087
0.233239
0.199497
0.212908
0.197096
0.173477
0.170499
0.141537
0.078605
0.145617
0.140709
0.167696
0.117341
0.097363
0.111771
0.041725
0.020241
0.113283
0.019813
-0.010289
0.065929
0.061087
0.022453
0.144809
0.120498
0.156114
0.362348
0.632331
1.001408
1.220340
1.432345
1.404835
1.120728
0.937033
0.549695
0.146422
0.019644
0.052197
0.037685
-0.023328
-0.003093
0.028233
0.198714
0.166866
0.124096
0.227188
0.252173
0.088478
0.229776
0.227900
0.210928
0.305403
0.419036
0.339389
0.350413
0.422097
0.391217
0.375795
0.424595
0.472802
0.447497
0.454921
0.479812
0.551616
0.457971
0.592499
0.560702
0.570797
0.601972
0.624002
0.666455
0.479049
0.596819
0.630317
0.693382
0.567647
0.591299
0.616534
0.527063
0.511750
0.447396
0.546516
0.432988
0.466003
0.485564
0.389307
0.471610
0.425229
0.349613
0.281654
0.330704
0.281151
0.302104
0.219614
0.199171
0.217446
0.166223
0.186472
0.227652
0.201809
0.198624
0.169214
0.129958
0.132196
0.135829
0.053785
0.025526
0.185561
0.145670
0.067186
0.053659
0.137104
0.082862
0.037462
0.084522
0.113359
0.100232
0.117414
0.089629
0.058958
0.081687
0.089118
0.082979
0.071149
0.042703
0.105662
0.084160
0.090481
0.042390
0.125655
0.125869
0.101646
-0.037397
0.095561
0.116232
0.136703
0.084084
0.064034
0.097916
0.123436
0.158437
0.121573
0.158766
0.123598
0.123794
0.189061
0.198485
0.232192
0.200291
0.170663
0.240649
0.173811
0.225997
0.224082
0.261364
0.209961
0.164560
0.335776
0.245067
0.256351
0.316102
0.277185
0.198880
0.259353
0.222706
0.312557
0.261786
0.309056
0.287224
0.207361
0.169677
0.168282
0.124114
0.201672
0.140224
0.102418
0.140836
0.130192
0.087496
0.090203
0.114200
0.077516
0.137324
0.132900
0.132954
0.111585
0.217799
0.326883
0.549735
0.950284
1.239967
1.448228
1.472360
1.391294
1.034019
0.659240
0.307169
0.073299
-0.085093
0.035187
-0.008027
0.109443
0.168195
0.208250
0.188528
0.201097
0.192239
0.222381
0.295565
0.303590
0.254568
0.359773
0.258140
0.316782
0.413318
0.293177
0.458222
0.450506
0.403541
0.487081
0.600760
0.519259
0.475592
0.490786
0.553289
0.609510
0.618009
0.596902
0.615660
0.625649
0.519861
0.627040
0.607135
0.540754
0.633802
0.637164
0.553129
0.686826
0.510810
0.535951
0.472899
0.554755
0.503360
0.458980
0.485890
0.467462
0.419289
0.489695
0.377703
0.283734
0.392640
0.269440
0.243206
0.280986
0.286269
0.186675
0.249628
0.179784
0.178655
0.105491
0.155233
0.119242
0.188409
0.110086
0.142617
0.094847
0.051673
0.069707
0.079655
0.056248
0.023068
0.031058
0.123776
0.109806
0.069241
0.094417
0.068278
0.090807
-0.015970
0.103636
0.028152
0.088844
0.137565
0.061024
0.007877
0.035920
0.054893
0.067051
0.110078
-0.006168
0.063594
0.030032
0.018011
0.073982
0.087922
0.076891
0.080346
0.077393
0.057769
0.033675
0.048816
0.083438
0.087493
0.080261
0.131525
0.146177
0.122412
0.209504
0.070827
0.167736
0.086153
0.084067
0.158117
0.179590
0.158128
0.260973
0.222199
0.120731
0.195189
0.133652
0.208690
0.208008
0.203845
0.160771
0.203301
0.225266
0.282026
0.203140
0.163055
0.184952
0.156220
0.136143
0.127909
0.153226
0.108412
0.136509
0.108070
0.051801
0.098455
0.170919
0.150733
0.138276
0.057877
0.120677
0.013552
0.115655
0.036236
0.081820
0.242069
0.404189
0.773322
0.988461
1.265937
1.400142
1.247733
1.061043
0.708560
0.386468
0.018597
-0.082968
-0.033515
-0.085572
-0.029515
-0.047005
0.001833
0.192611
0.084347
0.114662
0.155663
0.196388
0.250658
0.176475
0.286001
0.254076
0.224435
0.224088
0.294804
0.337985
0.360644
0.326877
0.337088
0.337887
0.434870
0.424966
0.474268
0.513138
0.465675
0.487353
0.482393
0.469434
0.546497
0.564106
0.513511
0.601867
0.498922
0.539636
0.488254
0.499699
0.537657
0.459689
0.432588
0.425450
0.460313
0.457247
0.369050
0.378962
0.413156
0.419932
0.338606
0.231876
0.233629
0.240402
0.236893
0.162157
0.236800
0.167355
0.143227
0.192595
-0.004129
0.143082
0.131115
0.123464
0.132090
0.138640
0.006360
0.060894
0.045678
0.033326
0.014112
-0.030037
0.027103
0.001181
0.026857
-0.039785
-0.050944
-0.031392
0.053942
0.047925
-0.126243
-0.103796
-0.060382
0.003304
0.050510
-0.045951
-0.117288
0.004750
-0.061089
0.023643
-0.023249
-0.070144
-0.024489
-0.063321
0.050413
-0.025432
-0.005100
-0.051303
0.011073
0.013115
0.009588
-0.019602
-0.027822
-0.049193
-0.115359
-0.028519
-0.006067
-0.080766
-0.101464
0.112246
0.021638
-0.038881
0.129353
0.080070
0.084915
0.033934
0.042339
0.117827
0.115945
0.173117
0.131262
0.202567
0.170294
0.191674
0.074300
0.126436
0.130691
0.093162
0.032807
0.060129
0.121069
0.081327
0.154198
0.036050
0.074302
0.001698
0.075030
0.041604
0.043642
0.005333
0.014941
-0.008044
0.045677
-0.071941
0.070343
-0.026879
0.003969
-0.056976
0.001665
0.009200
-0.020720
0.055840
0.255992
0.517140
0.906233
1.135678
1.328162
1.366096
1.140944
0.778138
0.348017
0.079309
-0.087836
-0.175591
-0.250825
-0.117136
-0.035275
0.035783
0.061334
0.000186
0.115064
-0.011125
0.057429
0.050843
0.094157
0.170115
0.237298
0.225793
0.330516
0.197497
0.210514
0.307048
0.288308
0.281320
0.309119
0.411211
0.326115
0.386726
0.442898
0.409767
0.465021
0.482292
0.485175
0.450254
0.466411
0.497201
0.472201
0.570319
0.541035
0.454288
0.468731
0.473914
0.430639
0.471074
0.480144
0.372707
0.394973
0.399050
0.230326
0.359384
0.277046
0.243371
0.359037
0.251237
0.200224
0.248131
0.193330
0.193791
0.138825
0.154393
0.158993
0.122893
0.201398
0.051602
-0.025952
0.015205
0.015489
0.030149
0.068627
0.024938
0.010299
-0.045841
0.001896
0.054756
-0.037899
-0.068207
-0.044175
-0.086829
-0.084863
0.012253
0.004755
0.023258
-0.006092
0.047502
-0.012880
-0.078264
-0.047382
-0.016062
-0.027520
-0.004282
-0.017619
-0.105330
-0.058853
-0.034778
-0.108770
-0.052433
-0.035643
-0.020324
-0.093804
-0.065106
-0.059498
-0.010600
-0.092532
-0.012134
0.013850
-0.050200
-0.011062
0.060689
-0.019980
0.003667
0.016752
-0.001157
0.020250
0.046243
0.126364
0.117566
0.119218
0.147510
0.182914
0.207618
0.227479
0.212875
0.184957
0.189836
0.177885
0.185707
0.182469
0.269945
0.209035
0.191809
0.180142
0.090331
0.147636
0.109194
0.092571
0.200997
0.111144
0.053929
0.153140
0.088183
0.085542
0.013830
0.138595
0.014135
0.036970
0.143816
-0.027587
0.030116
0.011397
0.011260
0.018768
-0.011958
0.121851
0.312632
0.607654
0.832213
1.049379
1.279801
1.403820
1.213193
0.831453
0.595698
0.153360
-0.035713
-0.157551
-0.043013
-0.084950
0.028006
0.055032
0.162957
0.085978
0.158001
0.114119
0.132841
0.169928
0.172055
0.202422
0.239906
0.198963
0.206941
0.321323
0.279633
0.361396
0.310417
0.355627
0.308978
0.454871
0.346245
0.528724
0.538121
0.493837
0.450211
0.458519
0.424280
0.604867
0.602223
0.490222
0.530772
0.611957
0.543186
0.538320
0.564840
0.559155
0.569914
0.478592
0.588740
0.475357
0.433472
0.427796
0.441969
0.451659
0.411508
0.370514
0.336974
0.264814
0.267478
0.336990
0.233475
0.216012
0.298778
0.232492
0.212426
0.146953
0.181309
0.197658
0.136801
0.171284
0.172715
0.086626
0.119245
0.084345
0.188439
-0.017016
0.074322
0.056064
0.086558
0.068295
0.049285
0.122534
0.065625
0.078176
0.006912
0.117088
0.042099
0.007053
0.010311
0.026235
0.022068
0.131213
0.039361
0.057342
0.097450
0.071334
0.059524
0.155794
0.106435
0.030119
0.135059
0.034569
0.097527
0.018686
0.064038
-0.005503
0.141747
0.145312
0.119881
0.118520
0.067901
0.102384
0.040612
0.085206
0.113771
0.157178
0.132728
0.135612
0.130515
0.218829
0.204957
0.242076
0.217027
0.228354
0.288761
0.283102
0.226733
0.270072
0.186287
0.265402
0.267201
0.234490
0.294407
0.269900
0.312383
0.184755
0.158295
0.254916
0.264227
0.137580
0.234797
0.186837
0.196807
0.205013
0.129984
0.190547
0.163161
0.085324
0.210104
0.134349
0.144931
0.158241
0.029803
0.132821
0.123412
0.018390
0.231158
0.268817
0.508560
0.795227
1.176952
1.465330
1.425219
1.346093
1.108928
0.746301
0.319272
0.117508
-0.015711
-0.005580
-0.057201
0.106472
0.188360
0.122780
0.101042
0.203384
0.209645
0.182287
0.281858
0.260518
0.307431
0.301483
0.309507
0.374257
0.344455
0.367157
0.338526
0.462081
0.459791
0.419888
0.507332
0.509555
0.526797
0.553379
0.545075
0.518829
0.620918
0.596431
0.557659
0.604499
0.522297
0.687240
0.690971
0.622467
0.665597
0.630087
0.547331
0.651438
0.579844
0.630766
0.561079
0.494162
0.588458
0.538704
0.542122
0.540224
0.434950
0.499243
0.468585
0.397934
0.315440
0.256822
0.359242
0.259669
0.282743
0.293836
0.332686
0.224816
0.152887
0.212833
0.179878
0.194879
0.128303
0.112176
0.100935
0.164896
0.129534
0.141590
0.119137
0.144027
0.147653
0.187132
0.087549
0.160315
0.080908
0.104842
0.088670
0.169336
0.158928
0.057937
0.194650
0.103619
0.112180
0.143381
0.106216
0.115888
0.046690
0.018138
0.044556
0.092558
0.031216
0.065224
0.073351
0.124383
0.124237
0.095033
0.019633
0.063949
0.127343
0.090077
0.151304
0.131355
0.114838
0.063908
0.177564
0.073912
0.126620
0.095699
0.148237
0.265825
0.221394
0.178742
0.173784
0.246352
0.206530
0.225550
0.217205
0.312708
0.273960
0.300507
0.266909
0.297548
0.197366
0.254635
0.255350
0.208034
0.236008
0.286273
0.206672
0.179951
0.222715
0.205175
0.170230
0.189655
0.192627
0.130094
0.129354
0.131420
0.181213
0.100337
0.080733
0.150062
0.125914
0.095261
0.108212
0.127700
0.179267
0.110864
0.182161
0.536413
0.761260
1.100041
1.232304
1.424932
1.444573
1.209470
0.837945
0.504354
0.132752
-0.064870
-0.069522
0.038476
0.053164
0.004945
0.138021
0.188482
0.107157
0.144950
0.170820
0.267362
0.190040
0.165152
0.247909
0.225009
0.271920
0.322232
0.308466
0.379279
0.369618
0.372117
0.426104
0.430410
0.475414
0.513454
0.522085
0.503314
0.600037
0.527223
0.568742
0.598105
0.565307
0.595203
0.604529
0.533016
0.606787
0.591976
0.548276
0.568056
0.591509
0.658148
0.580366
0.472729
0.486239
0.498125
0.545556
0.495847
0.508835
0.377011
0.461762
0.251727
0.314617
0.327656
0.317027
0.271597
0.247746
0.254820
0.256614
0.140561
0.285068
0.148590
0.123680
0.099770
0.141556
0.188625
0.203357
0.073176
0.086663
0.069821
0.049643
0.035541
0.049353
0.102082
0.064499
0.004567
0.121996
0.001798
0.024177
-0.010915
-0.006475
-0.115176
-0.006824
0.118068
-0.080853
0.081159
0.061687
0.016314
0.020386
0.018993
0.020242
0.024473
0.047270
0.084627
0.148222
0.065062
0.021305
0.015757
-0.025285
0.010187
-0.022180
0.095973
0.021270
0.087822
0.098010
0.051219
-0.013389
0.088370
0.026628
0.100955
0.055513
0.143163
0.174068
0.072921
0.092184
0.096928
0.182921
0.149020
0.078250
0.130845
0.186397
0.217925
0.147404
0.210259
0.162408
0.253299
0.098708
0.129643
0.198288
0.166227
0.303176
0.133673
0.130845
0.122874
0.160847
0.133647
0.103708
0.163029
0.050268
0.040483
0.065068
0.056445
0.004391
-0.085899
0.015803
-0.064974
0.014064
0.089443
-0.008516
0.023381
-0.006309
0.082578
0.273397
0.545105
0.915213
1.235512
1.348092
1.427733
1.147273
0.846589
0.446797
0.138896
-0.120677
-0.149529
-0.117979
-0.080531
-0.106157
-0.045546
-0.015909
0.089531
0.071057
0.142501
0.072953
0.112671
0.073599
0.102115
0.187906
0.149656
0.195179
0.279752
0.314127
0.250094
0.362717
0.350229
0.339705
0.418577
0.323733
0.372817
0.480784
0.456467
0.365685
0.456748
0.456189
0.515361
0.566000
0.482569
0.511794
0.475420
0.562901
0.544889
0.479952
0.477471
0.400692
0.452193
0.419724
0.488162
0.388389
0.373819
0.388540
0.368259
0.299277
0.306421
0.246125
0.261545
0.119908
0.284681
0.214674
0.166744
0.248890
0.163460
-0.019415
0.025162
0.036550
0.007733
-0.050551
0.008183
0.002071
0.017868
0.040745
-0.006356
0.052222
0.030023
-0.016444
-0.073604
-0.036952
-0.071763
-0.097861
-0.062754
-0.059505
-0.136672
-0.027782
-0.034021
-0.063768
-0.148301
-0.087935
0.002864
-0.079013
-0.118069
-0.066031
-0.157747
-0.078404
-0.137041
-0.027419
-0.113060
0.001171
-0.013854
-0.007730
-0.143841
-0.075110
-0.130927
-0.037950
-0.089930
-0.093441
-0.054394
-0.031618
-0.096978
-0.069306
-0.015108
-0.026768
0.041592
-0.086046
0.045938
-0.021260
0.028639
0.042673
0.162337
0.118529
0.096196
0.029772
0.031829
0.136827
0.067770
0.125887
0.130573
0.108049
0.130946
0.142838
-0.015666
0.083510
0.050798
0.069147
0.102098
0.005011
0.032572
0.048044
0.120717
0.053884
-0.087642
-0.037952
0.023106
-0.027474
-0.028411
-0.147078
-0.001800
-0.099864
-0.047003
-0.051675
-0.026524
-0.098490
-0.081283
-0.161070
0.015016
0.008272
0.113645
0.421067
0.721883
0.965988
1.199716
1.261824
1.225600
0.861416
0.462998
0.120304
-0.104946
-0.217518
-0.228723
-0.240211
-0.101037
-0.019019
-0.014318
-0.017283
0.114836
-0.048736
0.069731
0.080745
0.010581
0.118982
0.145717
0.143424
0.198083
0.194506
0.247655
0.248483
0.245779
0.349097
0.292354
0.284700
0.410893
0.368293
0.362350
0.372386
0.374150
0.461326
0.491668
0.446857
0.446139
0.574763
0.486015
0.515103
0.450203
0.456078
0.521151
0.495172
0.448848
0.444145
0.421709
0.318136
0.363416
0.281262
0.408719
0.281734
0.290180
0.217122
0.292871
0.172305
0.229430
0.173756
0.231511
0.093040
0.102684
0.107676
0.072591
0.053122
0.003814
0.046502
0.127250
0.089105
0.028632
0.039981
0.049335
-0.072271
-0.106094
0.003674
-0.043674
-0.084147
0.050768
-0.024228
-0.021112
-0.153667
-0.049828
0.010939
-0.060737
-0.055591
-0.088871
-0.067132
0.012860
0.010688
-0.051578
-0.107909
-0.010696
-0.027291
-0.036646
-0.046543
-0.015424
-0.082173
-0.037088
-0.053571
-0.035416
0.044791
-0.069556
-0.027293
0.014409
-0.102225
-0.054564
-0.105719
-0.002248
-0.072757
-0.052805
-0.018394
0.016759
-0.010400
0.087078
-0.027598
0.019876
0.118812
0.106340
0.033164
0.088646
0.145432
0.156192
0.078232
0.227323
0.204322
0.160635
0.058514
0.125666
0.126823
0.179386
0.180534
0.117454
0.125937
0.170452
0.191008
0.107009
0.096911
0.088298
0.112813
0.125342
0.020099
0.004384
0.015012
0.012233
-0.004380
0.091647
-0.026066
-0.018333
0.016044
-0.017847
0.019662
0.005318
-0.028560
0.030484
0.011242
0.021600
0.207925
0.405882
0.660228
1.023438
1.265044
1.399192
1.374649
1.066825
0.720092
0.424453
0.067711
-0.145979
-0.074791
-0.075068
-0.038636
-0.013824
0.055574
0.098282
0.158353
0.098549
0.124961
0.138143
0.137656
0.226574
0.217052
0.271262
0.205964
0.253483
0.298331
0.211974
0.334888
0.358065
0.293060
0.448243
0.339343
0.419576
0.441636
0.500312
0.447851
0.495346
0.589153
0.581815
0.540466
0.547273
0.570105
0.510285
0.573514
0.462956
0.567642
0.465679
0.523923
0.530312
0.598989
0.444059
0.488618
0.500791
0.477502
0.403796
0.423004
0.325054
0.300117
0.305624
0.249260
0.229782
0.228148
0.279474
0.291869
0.271257
0.106564
0.188422
0.097423
0.104831
0.153794
0.060431
0.205326
0.103302
0.130435
0.065513
0.164875
0.053992
0.027737
-0.008234
0.049143
0.078451
0.122589
-0.011569
0.062559
0.075819
0.026451
-0.001503
0.018973
-0.020017
0.045192
0.064499
0.070705
0.012479
-0.077438
0.038713
0.141171
0.020651
-0.017108
-0.079197
0.014674
0.049714
-0.006975
0.016368
-0.011205
0.070748
-0.040429
0.149621
0.061568
-0.005277
-0.000833
0.075602
0.024551
0.061009
0.017627
0.084672
0.146171
0.108689
0.136202
0.150850
0.147122
0.083599
0.194831
0.071292
0.203378
0.189345
0.218834
0.146065
0.116184
0.189482
0.192554
0.232010
0.317976
0.122200
0.260025
0.208568
0.204316
0.104046
0.114208
0.185832
0.221670
0.118297
0.121336
0.093455
0.114108
0.063311
0.129959
0.128312
0.076063
0.089058
0.112327
0.060336
0.139002
0.120997
0.110544
0.037245
-0.024038
-0.026796
0.076566
0.189708
0.302766
0.649677
0.971338
1.293728
1.420956
1.438605
1.181135
0.858369
0.447438
0.183694
-0.023129
-0.097437
0.025438
0.056354
0.114622
0.098499
0.113755
0.183616
0.213483
0.184728
0.242273
0.202680
0.163846
0.295880
0.215616
0.159554
0.289183
0.342749
0.346837
0.505160
0.355218
0.371884
0.446910
0.488717
0.523447
0.474720
0.497044
0.530047
0.543261
0.667331
0.608818
0.591682
0.542212
0.557487
0.550082
0.626410
0.512770
0.586289
0.672995
0.535568
0.628109
0.491630
0.550230
0.471748
0.562305
0.452806
0.474341
0.427697
0.386786
0.351051
0.371149
0.287279
0.330856
0.260261
0.330242
0.197510
0.328712
0.241186
0.154293
0.180358
0.114397
0.150068
0.108278
0.131060
0.143418
0.063291
0.094658
0.061566
0.064196
0.068398
0.169008
0.031058
0.030343
-0.060794
0.013063
0.069905
0.029537
0.099107
0.018559
-0.040083
0.027871
-0.003665
-0.024498
0.025018
0.091969
0.137130
0.047554
0.030124
0.100606
0.100723
0.032541
0.000541
0.103386
-0.003832
0.130988
0.082170
0.022198
0.065595
-0.004949
-0.049733
0.081739
0.045207
0.032646
0.023435
0.052989
0.105924
0.140493
0.080924
0.065075
0.035476
0.026447
0.182794
0.092579
0.143775
0.191821
0.120979
0.133192
0.087656
0.197789
0.148344
0.214834
0.183131
0.156878
0.242694
0.220523
0.199217
0.224979
0.235214
0.158289
0.233522
0.208076
0.235055
0.108161
0.109575
0.083757
0.152545
0.008550
0.085510
0.102354
0.026052
0.055813
0.049585
0.053569
0.130121
0.015448
0.071259
0.069107
0.049627
-0.063491
0.020693
0.206966
0.318736
0.420212
0.735889
1.066203
1.323959
1.399854
1.254526
0.806968
0.593958
0.163248
0.031092
-0.097914
-0.069137
-0.140127
0.017604
0.122725
0.103474
0.034497
0.120548
0.153843
0.163360
0.130481
0.164904
0.170565
0.261451
0.279750
0.243758
0.207799
0.238794
0.265918
0.272793
0.324385
0.383708
0.356217
0.374496
0.348013
0.415455
0.403340
0.464825
0.503736
0.531332
0.460480
0.508366
0.605043
0.477699
0.582002
0.502319
0.457400
0.494672
0.546917
0.459755
0.447257
0.494303
0.433086
0.389031
0.425533
0.360964
0.257616
0.264738
0.246045
0.334587
0.276153
0.297488
0.261873
0.219442
0.110608
0.141005
0.145273
0.105807
0.124012
0.117489
0.055501
0.105434
0.071710
0.064218
0.050426
0.016099
-0.015826
0.017125
-0.004728
0.008063
-0.042704
0.041881
0.054280
0.028569
-0.045558
-0.117152
-0.124105
-0.129367
-0.075684
-0.098176
-0.001517
-0.068781
-0.112716
-0.003409
-0.042324
-0.081186
-0.069814
-0.009471
-0.028928
-0.083629
-0.051591
-0.117508
-0.082223
-0.037414
-0.066677
-0.050832
-0.026404
-0.004558
-0.081206
-0.041655
-0.035669
-0.075158
-0.087880
-0.004146
-0.149174
-0.089798
0.018481
0.007446
0.000106
-0.012023
0.052176
0.064585
0.049086
0.034776
0.143728
0.162771
0.077092
0.185795
0.029215
0.056724
0.154372
0.080089
0.143750
0.075172
0.070158
0.084350
0.105964
0.117752
0.127526
-0.033260
0.176164
0.018010
0.085747
-0.018547
0.052591
-0.000710
-0.008013
-0.086154
-0.039673
-0.061908
-0.046219
0.022028
0.033565
-0.047057
-0.086481
-0.059749
0.031473
-0.046611
-0.022563
-0.091866
0.092735
0.280601
0.664447
0.953327
1.150673
1.293033
1.229837
1.015781
0.595252
0.142933
-0.005805
-0.170130
-0.244041
-0.181949
-0.143764
-0.140845
-0.002596
-0.018369
-0.050131
0.172871
0.080283
0.094177
0.039067
0.086558
0.105029
0.142398
0.106250
0.200723
0.153131
0.224368
0.225319
0.321655
0.299660
0.352505
0.319335
0.350511
0.317779
0.385602
0.388477
0.409935
0.366974
0.443640
0.568952
0.434572
0.432257
0.449785
0.409950
0.457982
0.414609
0.388154
0.452660
0.358615
0.469492
0.419367
0.342091
0.279418
0.336763
0.295139
0.329627
0.253831
0.201852
0.311079
0.200108
0.177081
0.143546
0.139133
0.056860
0.072463
0.038333
0.018334
0.055930
0.019398
0.001681
-0.013046
-0.002871
-0.137768
0.003730
0.000538
-0.109576
-0.063364
-0.101585
-0.083718
-0.065378
-0.029418
-0.177099
-0.075842
-0.193657
-0.139630
-0.061576
-0.028613
-0.152346
-0.113508
-0.117170
-0.135039
-0.177378
-0.095757
-0.097015
-0.144257
-0.138007
-0.135669
-0.106275
-0.028848
-0.073970
-0.102641
-0.034026
-0.085920
-0.158672
-0.183332
-0.110488
-0.014541
-0.077335
-0.073863
-0.115477
-0.078985
-0.084250
-0.062352
-0.092151
-0.057702
-0.033725
-0.075121
-0.017680
-0.048419
0.004036
-0.014578
0.018681
-0.020262
-0.045491
0.011159
0.126840
0.055541
0.097957
0.101545
0.049455
0.132299
0.088167
0.015724
0.215048
0.093616
0.013209
0.093260
0.043006
0.031971
0.051895
0.050626
0.083438
-0.051494
-0.005992
0.090039
-0.040051
-0.034142
0.014360
-0.035263
-0.007618
-0.121067
-0.129200
0.041483
-0.100814
-0.033702
-0.057239
0.002987
0.002328
0.105914
0.334665
0.608352
0.910715
1.152140
1.263551
1.305416
1.089069
0.665275
0.311698
0.013498
-0.113400
-0.230899
-0.185214
-0.205587
-0.012003
-0.094340
-0.122862
0.049269
0.017715
0.086217
0.078648
0.111710
0.055527
0.116364
0.156276
0.204803
0.161514
0.177735
0.252338
0.208006
0.317363
0.261482
0.291562
0.264182
0.378096
0.328203
0.422138
0.368484
0.397530
0.478448
0.442738
0.483887
0.457549
0.504792
0.443973
0.470943
0.467841
0.444652
0.419756
0.480003
0.457467
0.456364
0.435930
0.571366
0.392383
0.376839
0.340716
0.281542
0.344353
0.377366
0.256126
0.242011
0.295165
0.232787
0.232870
0.144413
0.188328
0.088037
0.126795
0.063190
-0.006249
0.128336
0.103050
0.011432
0.055418
0.024300
-0.005061
0.033238
-0.026700
-0.036770
0.037451
-0.066680
-0.085187
0.082757
-0.098663
-0.028954
0.011850
-0.081439
0.034152
0.004835
0.062275
-0.006194
-0.069670
0.039433
-0.092252
-0.092713
0.060145
0.057214
-0.033279
-0.023262
-0.050743
-0.006724
-0.029545
-0.077893
-0.045000
-0.012518
-0.047810
-0.034346
-0.102760
0.022083
-0.025041
0.004472
0.004907
0.028367
0.013376
0.010188
0.077992
-0.008717
0.074549
0.025045
0.010913
0.083471
0.084770
0.097712
0.060097
0.066170
0.078629
0.168667
0.233525
0.128600
0.118822
0.178693
0.197865
0.239680
0.143849
0.173717
0.138579
0.129706
0.195137
0.172874
0.148551
0.136064
0.123061
0.093941
0.140870
0.133840
0.014508
0.042205
0.085815
0.058051
0.102184
-0.004621
0.025215
-0.033977
-0.023710
0.037106
0.059308
0.047889
0.071126
0.085742
0.169105
0.252150
0.457068
0.791562
1.177095
1.316970
1.421032
1.301946
0.928827
0.540307
0.268647
-0.078391
-0.109732
-0.066619
-0.093074
-0.019226
0.060333
0.131922
0.192128
0.156606
0.200130
0.176811
0.168546
0.283009
0.295571
0.377191
0.209135
0.250383
0.230756
0.344074
0.381578
0.436176
0.441703
0.384899
0.390011
0.446713
0.453007
0.561527
0.499323
0.542591
0.498875
0.578839
0.532948
0.576938
0.591079
0.585698
0.616761
0.588744
0.578914
0.577275
0.636742
0.526074
0.599434
0.419795
0.524697
0.491970
0.520114
0.455381
0.437780
0.449488
0.363076
0.351988
0.381861
0.278336
0.345046
0.266905
0.269632
0.252875
0.245343
0.280766
0.185229
0.114613
0.139077
0.179818
0.097299
0.184890
0.160727
0.112587
0.180287
0.169347
0.137168
0.002335
0.177169
0.111083
0.097917
0.057496
0.002463
0.107685
0.066233
0.066745
0.080414
0.029868
0.099961
0.001172
0.013410
0.027170
0.081242
0.008691
0.040694
0.107809
0.120202
0.079064
0.039239
0.051212
0.023479
0.126549
0.089767
0.066098
0.058207
0.097131
0.087425
0.123505
0.085817
-0.044085
0.101198
0.020775
0.128108
0.034827
0.116805
0.122388
0.140438
0.135200
0.270203
0.059071
0.070772
0.195731
0.273441
0.220130
0.297093
0.239028
0.278430
0.351955
0.200852
0.251289
0.298468
0.228962
0.250686
0.220630
0.304013
0.172994
0.257244
0.252702
0.108114
0.257151
0.107458
0.207111
0.135266
0.157168
0.272368
0.059878
0.140461
0.148159
0.116866
0.244068
0.109146
0.082383
0.066141
0.084505
0.073803
0.081051
0.142188
0.164459
0.305252
0.591571
0.794206
1.163599
1.500000
1.470831
1.389587
1.087397
0.747829
0.275684
0.045245
0.012865
-0.059516
-0.037594
0.028750
0.127240
0.124956
0.186182
0.214929
0.126131
0.184564
