-0.046629
-0.034710
-0.046603
0.074587
-0.071109
0.044718
0.036924
0.023778
0.108161
-0.014682
-0.047205
0.077343
0.009701
0.019930
0.082037
0.043982
-0.004052
-0.049878
0.007058
0.017277
-0.003920
0.005423
0.046818
-0.001417
0.055707
-0.015951
0.040681
0.018361
0.060197
-0.011030
0.016135
0.007005
0.079126
0.099393
0.048838
0.144969
0.039459
0.067421
0.132782
0.130982
0.093357
0.225141
0.114437
0.116121
0.219218
0.172851
0.211291
0.210827
0.260438
0.130429
0.213173
0.154695
0.175294
0.146521
0.161712
0.267853
0.059328
0.157797
0.078540
0.118767
0.106010
0.107026
0.237088
0.139727
0.082717
0.118262
0.035757
0.061721
-0.006764
0.075710
0.081816
0.018372
0.052449
0.095938
-0.014382
0.087716
0.063264
0.084734
0.103121
0.081979
0.074698
0.036500
0.043491
0.009116
-0.019107
0.072197
0.020001
0.061303
0.024907
0.007586
0.016095
0.146243
0.231520
0.544698
0.781751
1.217100
1.420460
1.500000
1.307950
1.115478
0.753112
0.418957
0.098726
-0.151260
-0.209903
-0.120647
-0.199818
-0.037873
-0.052999
0.018374
0.043814
0.037682
0.067977
0.089595
0.091703
0.051644
0.156762
0.067900
0.078822
0.079593
0.124012
0.061812
0.093602
0.149852
0.088104
0.154724
0.154291
0.177749
0.051205
0.193870
0.151188
0.201284
0.174466
0.194132
0.193735
0.271960
0.284959
0.257612
0.354411
0.270404
0.314736
0.315867
0.417267
0.318983
0.406079
0.415463
0.463933
0.564757
0.541078
0.461340
0.492023
0.549289
0.623633
0.564736
0.578106
0.606707
0.588778
0.552685
0.582652
0.576619
0.640363
0.616575
0.552834
0.575352
0.547544
0.491741
0.538854
0.497366
0.510078
0.474672
0.346686
0.373038
0.432191
0.399847
0.360345
0.409531
0.312655
0.341281
0.240252
0.259964
0.231033
0.239725
0.119118
0.166708
0.079263
0.140451
0.101866
0.141263
0.044075
0.091554
0.091136
0.049469
0.129314
0.053689
0.062417
0.089740
0.043291
0.106143
0.132104
0.166443
0.102608
0.095821
0.121058
0.004333
0.161619
0.035132
0.098754
0.080921
0.107619
0.033285
0.088876
0.054359
0.140172
0.022027
0.035949
0.148042
0.087449
0.109369
0.101660
0.080758
0.098878
0.089116
0.044847
0.055207
0.087021
0.100143
0.116090
0.036555
0.078101
0.082443
0.134968
0.051756
0.181861
0.053398
0.065201
0.135598
0.045857
0.125328
0.082945
0.081669
0.082777
0.118945
0.073896
0.049450
0.040276
0.046047
0.166643
0.076599
0.078901
0.055180
0.018767
0.004163
0.069227
0.054291
0.032644
0.038983
0.149780
0.091792
0.096748
0.159287
0.054731
0.094767
-0.020225
0.047581
0.045784
0.078360
0.102237
-0.000472
0.086194
0.176328
0.124733
0.136546
0.083523
0.053770
0.123894
0.101471
0.141530
0.171422
0.183820
0.109940
0.185588
0.153133
0.232947
0.269427
0.168294
0.167067
0.170493
0.251444
0.209091
0.312941
0.223647
0.260052
0.223075
0.234131
0.189523
0.249545
0.273602
0.225674
0.179217
0.171630
0.152123
0.187368
0.167975
0.082846
0.132209
0.147032
0.100618
0.108548
0.118782
0.156213
0.160849
0.122510
0.087716
0.002665
0.058677
0.049903
0.051114
0.120766
-0.031181
0.083343
0.036571
0.020456
0.086080
0.096540
0.065109
0.024108
0.026927
0.047493
0.105675
0.046215
0.016517
0.020322
-0.076321
0.051592
0.272155
0.567319
0.819555
1.221986
1.378663
1.324516
1.368039
1.130756
0.753592
0.368611
0.093630
-0.175657
-0.138218
-0.340781
-0.234726
-0.142617
-0.025522
0.019004
0.110688
0.086289
0.059518
0.006863
0.061866
0.098637
0.042064
-0.014637
0.086345
0.061536
0.031950
0.027893
0.103403
0.111814
0.118975
0.054857
0.080377
0.102908
0.054508
0.067672
0.071686
0.198357
0.108497
0.106877
0.158990
0.142384
0.185477
0.198921
0.271452
0.297987
0.216156
0.414916
0.370945
0.394782
0.420564
0.359232
0.349731
0.324775
0.500576
0.408676
0.393419
0.479531
0.423515
0.500754
0.584255
0.453738
0.397448
0.537528
0.510143
0.511725
0.512369
0.412523
0.478512
0.543067
0.487285
0.454848
0.324603
0.462038
0.410553
0.372375
0.314544
0.332483
0.295622
0.265826
0.285296
0.237767
0.170906
0.187413
0.211609
0.167280
0.116193
0.104271
0.046647
0.095315
0.107346
0.131450
0.097720
0.022705
0.057392
0.083362
0.030109
0.046881
-0.007533
0.090478
-0.017591
0.013785
0.042658
0.018629
0.086889
-0.080822
0.042216
0.011650
-0.038199
0.026254
-0.077775
0.031451
0.020414
-0.051158
-0.001121
0.056211
-0.023497
-0.003058
0.028361
0.030288
0.054603
-0.088713
0.011787
-0.021855
-0.029790
-0.020249
0.017986
-0.031862
-0.106128
-0.009019
-0.048555
0.024904
-0.032986
0.034095
-0.065281
0.040301
-0.078645
-0.023555
-0.077386
0.028180
-0.029637
-0.059907
-0.006797
-0.045020
0.005280
-0.011975
-0.073426
-0.003039
-0.100085
-0.122716
0.042864
-0.041967
0.037369
-0.021110
-0.048532
-0.037221
0.006395
-0.012401
-0.038788
-0.003696
-0.074298
0.022911
-0.016544
-0.019275
-0.100265
-0.032063
0.010853
0.035034
-0.001513
-0.074909
-0.059647
-0.008476
-0.018609
-0.051984
0.071573
-0.010346
-0.021923
-0.009342
0.038904
0.000883
-0.007841
0.020239
0.047055
0.049301
-0.059986
0.053791
0.056396
0.082537
0.125884
0.103535
0.052777
0.071438
0.113838
0.138505
0.105824
0.118463
0.063983
0.149994
0.123505
0.124545
0.178908
0.073975
0.135303
0.054883
0.076441
0.058383
0.074879
-0.030313
0.093633
0.027824
0.061754
0.003744
-0.023094
0.006325
-0.011274
-0.047105
-0.004233
-0.054601
-0.038287
-0.041585
-0.087440
-0.024697
0.014607
-0.051445
-0.122784
0.038146
-0.104039
0.029928
-0.001446
-0.008370
-0.067646
-0.105097
-0.019302
-0.063520
-0.025664
-0.071891
-0.154651
-0.113352
-0.146576
-0.048341
0.160046
0.475551
0.731432
1.091524
1.235126
1.298754
1.167760
0.986661
0.588909
0.253727
0.060239
-0.244869
-0.403054
-0.251869
-0.309718
-0.211331
-0.105584
-0.180618
-0.076909
0.001458
-0.122366
-0.071955
-0.072786
-0.090999
-0.064592
-0.024094
-0.055092
-0.038741
0.057155
0.000388
-0.039266
-0.069804
0.065893
0.016640
-0.071298
-0.012217
0.055535
0.035596
0.088370
0.103868
0.039449
0.078239
0.132585
0.175090
0.144787
0.109262
0.178403
0.245748
0.287758
0.249984
0.248523
0.291165
0.253855
0.385519
0.294334
0.385270
0.377679
0.418334
0.484400
0.453935
0.479107
0.432626
0.457048
0.507750
0.381158
0.436689
0.546337
0.476358
0.407405
0.509562
0.472743
0.477530
0.409982
0.336144
0.336307
0.296409
0.340671
0.306325
0.363683
0.396593
0.285936
0.189041
0.238343
0.203202
0.198437
0.182619
0.166350
0.167530
0.173615
0.102976
0.106406
0.044489
0.135184
0.052998
0.077755
0.135171
-0.026353
0.057585
-0.024923
0.035668
0.128680
0.005293
-0.047022
-0.045097
0.073081
0.049490
0.029219
-0.058449
-0.030385
-0.092001
-0.017627
0.002413
0.013857
0.036978
0.019323
0.058617
0.055042
-0.020057
0.029888
-0.033604
-0.049548
0.053670
-0.028868
-0.002529
-0.025086
-0.023540
0.011864
-0.044893
0.077653
0.045845
-0.059789
-0.106806
-0.016786
0.014877
0.030084
-0.020431
0.026115
-0.020103
-0.049401
0.008440
-0.004822
0.009658
-0.100693
0.042268
0.066519
-0.028493
0.047102
-0.088311
0.034453
0.054866
0.014793
0.109621
0.032444
0.045759
-0.005262
0.029494
-0.000358
-0.018169
-0.040474
0.004046
-0.039129
0.028798
0.029441
0.006328
0.021849
0.050774
-0.003476
0.103767
-0.032944
0.069711
-0.020736
0.018989
0.076402
0.063542
0.087832
0.107268
0.018865
0.069631
0.127699
0.151712
0.094226
0.084952
0.079577
0.102567
0.112585
0.100956
0.125963
0.126125
0.036910
0.161697
0.105290
0.196132
0.099436
0.224193
0.274037
0.186105
0.249757
0.166271
0.204593
0.223323
0.203387
0.189201
0.171865
0.184934
0.106215
0.156681
0.258198
0.156140
0.122210
0.135473
0.099193
0.123112
0.076293
0.102937
0.131875
0.181465
0.119002
0.072112
0.079113
0.099908
0.076587
0.086475
0.073901
0.061383
0.005205
0.135978
0.050640
0.007210
0.113979
0.041629
0.036426
0.007434
0.095956
0.038563
0.109400
0.017971
0.043002
0.061675
-0.042065
-0.008691
-0.025617
0.117775
0.349180
0.446414
0.916779
1.217286
1.357088
1.429465
1.311665
0.994427
0.703551
0.437768
0.103722
-0.174342
-0.290398
-0.235377
-0.118189
-0.084299
0.005698
0.004266
0.022137
0.061004
0.113247
0.030729
0.093622
0.073906
0.124901
0.126426
0.057701
0.044770
0.097198
0.098381
0.153805
0.081982
0.171678
0.120345
0.101987
0.106769
0.184059
0.237214
0.154946
0.163583
0.199168
0.258921
0.183150
0.246427
0.250275
0.211354
0.256161
0.327229
0.455650
0.334228
0.381203
0.395210
0.411571
0.469484
0.414707
0.445597
0.526087
0.531536
0.477282
0.504982
0.489178
0.480501
0.654060
0.562243
0.536687
0.592641
0.599266
0.603630
0.586323
0.595128
0.559332
0.472946
0.600897
0.427524
0.419777
0.477434
0.468355
0.446896
0.464021
0.385154
0.397387
0.317548
0.293857
0.363872
0.317395
0.284490
0.280257
0.248306
0.271993
0.270017
0.191142
0.243797
0.127712
0.147786
0.199610
0.104873
0.060672
0.124951
0.203191
0.146812
0.108089
0.093078
0.088090
0.168914
0.088795
0.128211
0.152792
-0.023811
0.089244
0.084376
0.062286
0.050058
0.113962
0.077969
0.152694
0.051450
0.119169
0.115441
0.011744
0.122462
0.083476
0.071737
0.096871
0.102075
0.048006
0.072509
0.212323
0.088406
0.094866
0.082054
0.050750
0.097115
0.024593
0.146710
0.082132
0.059648
0.145912
0.049659
0.008358
0.123941
0.082167
0.133127
0.065693
0.136724
0.095876
0.031210
0.079174
0.056708
0.067157
0.125859
0.110888
0.039677
0.109778
0.062534
0.100027
0.048484
0.103273
0.090289
0.058589
0.040210
0.086542
0.015174
0.022024
0.054299
0.107592
0.086259
0.119079
0.089544
0.121417
0.123665
0.118624
0.086219
0.051258
0.099550
0.037053
0.120392
0.173337
0.095906
0.053278
0.097903
0.125287
0.106229
0.086537
0.187659
0.185761
0.184533
0.090213
0.192489
0.135858
0.182163
0.226084
0.181543
0.156130
0.214336
0.257187
0.184293
0.190895
0.283937
0.271193
0.198423
0.204828
0.264925
0.210058
0.218986
0.214058
0.228347
0.239711
0.199185
0.179494
0.173607
0.134005
0.159457
0.207003
0.205003
0.109365
0.144148
0.070634
0.147209
0.112278
0.127443
0.037241
0.146877
0.079928
0.044596
0.069862
0.049826
0.107003
0.043358
0.056648
0.063113
0.099486
0.079144
0.007716
0.011996
0.063635
0.041299
0.030230
0.043316
0.056029
-0.054989
0.094190
0.088773
0.344182
0.610602
0.929229
1.274299
1.432366
1.388193
1.282884
1.013900
0.595059
0.384156
0.052450
-0.162752
-0.185929
-0.281492
-0.126015
-0.070754
-0.054446
-0.049436
0.062788
-0.029871
0.068064
0.017436
0.123654
0.118836
0.017543
0.094795
0.053708
0.068690
0.059397
-0.018621
0.005008
0.098131
0.084475
0.159433
0.039682
0.109432
0.097586
0.095279
0.105175
0.132815
0.153877
0.158883
0.134301
0.275021
0.258691
0.225411
0.331401
0.252652
0.268838
0.292238
0.274667
0.340858
0.449765
0.324874
0.472799
0.375120
0.473663
0.469648
0.456756
0.519485
0.457509
0.498250
0.588044
0.454360
0.522846
0.487571
0.544865
0.466515
0.479692
0.457236
0.521991
0.539434
0.461605
0.448078
0.425556
0.382621
0.333383
0.414459
0.348610
0.323892
0.227091
0.382087
0.233308
0.293326
0.235506
0.141904
0.201569
0.113281
0.098733
0.057104
0.145345
0.172853
0.131063
0.134487
0.079832
0.045018
0.055885
-0.020074
0.016848
-0.007299
0.056211
0.081226
0.027722
-0.000101
-0.039300
0.035056
0.049909
0.030008
-0.044891
0.044585
0.039693
-0.034381
-0.027656
-0.015427
-0.021310
-0.004670
0.024064
-0.057748
-0.071440
-0.101912
-0.020174
-0.082564
-0.085939
-0.018815
-0.032646
-0.043130
0.021377
0.008635
-0.037559
-0.025229
-0.044148
-0.034982
0.072479
-0.091943
-0.073599
-0.058701
-0.022192
0.005041
0.004134
0.007070
-0.018455
-0.022178
-0.041595
0.015651
-0.094559
0.011633
-0.096552
-0.054978
-0.001514
0.035743
-0.060579
-0.059169
-0.015128
-0.060410
0.008254
-0.037526
-0.083988
-0.029261
-0.039201
-0.019792
-0.032485
-0.009996
-0.046945
-0.051214
-0.021063
-0.020082
-0.045212
-0.010773
-0.072350
-0.028536
-0.055503
0.000219
-0.086870
-0.020941
-0.087571
-0.024116
-0.100988
-0.035540
-0.057562
0.062216
0.020270
-0.030057
0.140490
-0.032385
0.082155
0.015350
0.092932
-0.014075
0.036146
0.107546
0.126947
0.137994
0.124167
0.132437
0.131977
0.128040
0.134969
0.118692
0.158523
0.154098
0.136428
0.165434
0.106293
0.076588
0.121283
0.070176
0.041599
-0.028569
0.095171
0.052211
0.046543
-0.030946
-0.046982
-0.060247
-0.026830
-0.009366
-0.058202
-0.031546
-0.115323
-0.054961
-0.065624
-0.054282
-0.138436
-0.136537
-0.099913
-0.104833
-0.083541
-0.136890
-0.118649
-0.111713
-0.107394
-0.051469
-0.007900
-0.180729
-0.044020
-0.094076
-0.048710
-0.156577
-0.134179
-0.166874
-0.109976
-0.081028
0.203915
0.511706
0.814671
1.095701
1.317242
1.275836
1.145303
0.790172
0.539640
0.132430
-0.091589
-0.272475
-0.441754
-0.354651
-0.340356
-0.237883
-0.164029
-0.123176
-0.005885
-0.018494
-0.105841
-0.070425
-0.083132
-0.154483
0.017761
-0.060219
-0.061810
-0.052074
-0.044992
0.003166
-0.094765
-0.030768
-0.015481
0.013661
-0.091713
0.013558
-0.001659
-0.011907
0.005714
-0.043563
0.043625
0.082855
0.064921
0.072730
0.149980
0.182262
0.141053
0.158517
0.237687
0.210593
0.225900
0.253016
0.333455
0.360915
0.288816
0.378342
0.298675
0.351324
0.438152
0.406837
0.444388
0.391325
0.351138
0.387838
0.368891
0.430848
0.469851
0.419548
0.293669
0.425481
0.356529
0.381460
0.429489
0.350972
0.328973
0.296996
0.300236
0.331288
0.234554
0.362583
0.241805
0.122181
0.233371
0.186352
0.068334
0.116956
0.132827
0.076134
0.016687
0.016746
0.028212
0.040700
-0.069314
-0.070125
0.118592
-0.032873
0.005708
-0.053073
-0.036218
-0.007925
-0.027760
-0.046569
-0.096185
-0.051981
-0.014421
-0.080541
-0.027982
-0.051368
-0.037036
-0.072915
0.037083
-0.103537
-0.037654
-0.119870
-0.033425
-0.063615
-0.117521
-0.089497
-0.035654
-0.020822
-0.031094
-0.014270
-0.077511
-0.122044
-0.061772
-0.025004
-0.131233
-0.051803
-0.063364
-0.017470
-0.063776
-0.087114
-0.041974
-0.038540
-0.024748
-0.037305
0.031204
-0.108682
-0.078088
0.006431
-0.047563
-0.076174
-0.095135
-0.057245
-0.106057
-0.089346
-0.082319
-0.030508
-0.102666
-0.040339
-0.172790
-0.061540
-0.020346
0.000614
-0.079499
-0.040788
-0.059149
-0.000798
-0.058484
-0.081755
-0.092992
-0.051721
-0.044222
-0.117133
0.004206
-0.080172
0.004136
-0.118785
-0.047042
0.030693
-0.023780
-0.077152
-0.047118
-0.012528
-0.048932
-0.045994
-0.015697
-0.074653
0.017980
-0.063877
0.061475
-0.035540
-0.005383
0.051775
0.014316
0.097482
0.065948
0.040852
0.071114
0.062350
0.099233
0.091995
0.131426
0.037977
0.125457
0.216949
0.160887
0.165121
0.188498
0.133040
0.092045
0.084061
0.069055
0.105127
0.070316
0.067320
0.095756
0.157069
0.045687
0.122989
0.128149
-0.007680
0.107003
-0.022785
0.001578
0.053992
-0.039449
-0.026733
0.009840
0.003798
-0.005438
0.000274
0.007680
0.038044
-0.020090
0.033107
-0.031827
-0.039218
0.047228
0.008191
-0.014931
-0.023438
-0.049269
-0.073897
-0.069516
-0.017053
-0.082109
-0.038822
0.012300
-0.012720
-0.002813
0.123161
0.269008
0.554065
0.912063
1.231055
1.372899
1.389930
1.158524
0.941150
0.532511
0.183265
-0.097386
-0.198243
-0.358543
-0.256137
-0.266798
-0.138542
-0.098023
-0.106080
-0.040339
-0.067872
0.047650
-0.053010
-0.012189
0.056063
0.028296
0.008146
-0.014395
0.088627
0.067570
0.005755
0.016130
0.014157
0.154885
0.066527
0.148200
0.090526
0.150502
0.085009
0.176482
0.053894
0.163438
0.243261
0.146665
0.186663
0.233788
0.173222
0.222984
0.214916
0.300716
0.294594
0.333092
0.323076
0.438469
0.413306
0.391513
0.464870
0.401071
0.503708
0.498731
0.498693
0.516651
0.573428
0.498250
0.543989
0.561696
0.536304
0.445420
0.541820
0.497620
0.512891
0.487675
0.439526
0.433222
0.433339
0.424366
0.423489
0.386915
0.418185
0.502135
0.403278
0.309226
0.287759
0.302176
0.234152
0.251789
0.242497
0.171075
0.229423
0.222157
0.152424
0.170806
0.155952
0.148439
0.192962
0.108926
0.101067
0.080133
0.058892
0.079746
0.074335
0.054354
0.078130
0.109694
0.032176
0.129762
0.053294
0.011025
0.081602
0.035009
0.110891
0.050947
0.038237
0.094831
0.085819
0.075358
0.004660
0.019071
0.024193
0.157134
0.081905
0.114998
0.071939
0.087289
0.012886
0.068836
0.127247
0.092716
-0.034810
0.041765
0.030438
0.064788
0.068950
-0.000315
0.005472
0.069215
0.051415
0.056207
0.105917
0.067281
0.022516
0.040101
-0.025671
0.018972
0.010469
0.090258
0.048402
0.078183
0.007912
0.029801
0.064390
-0.011087
0.013957
0.064259
0.039550
0.106081
0.038799
0.015484
0.061225
0.094734
0.009382
-0.024434
-0.017312
0.035516
0.022686
0.008006
0.029839
0.045634
0.039399
0.062277
0.041590
0.038191
-0.008317
0.097420
0.115646
0.033756
0.044626
0.057223
0.140323
0.056000
0.060878
0.050787
0.039933
0.050830
0.109001
-0.009010
0.092843
0.169762
0.154285
0.134134
0.251946
0.135489
0.128851
0.141637
0.217539
0.145289
0.297699
0.293113
0.298906
0.195376
0.220375
0.165056
0.249109
0.162548
0.180489
0.121652
0.204314
0.174873
0.232533
0.169028
0.132845
0.135914
0.179604
0.053558
0.133562
0.083183
0.074410
-0.013232
0.164872
0.045964
0.058816
0.054036
-0.005776
0.110170
0.101214
0.069558
0.147080
0.009285
0.014777
-0.018227
-0.045738
-0.019061
0.035095
-0.014199
0.005941
-0.005990
0.046623
0.028158
-0.024455
0.011387
0.021655
-0.002132
0.113117
0.291701
0.640370
0.962274
1.252265
1.354541
1.378534
1.226739
0.958695
0.569770
0.223756
0.056275
-0.199119
-0.284822
-0.278406
-0.150352
-0.183480
-0.087500
0.022823
0.017121
0.047161
0.040928
0.029653
-0.027707
-0.051743
0.014675
0.096768
-0.005293
0.075980
0.075215
-0.023899
0.122238
0.115754
0.056508
0.064705
0.116891
0.139490
0.057656
0.112115
0.117958
0.072348
0.121685
0.087950
0.135204
0.158185
0.252309
0.224158
0.213863
0.250203
0.232139
0.313728
0.316678
0.298425
0.405822
0.360043
0.421888
0.379337
0.437263
0.371734
0.389174
0.500056
0.497627
0.503395
0.472597
0.491429
0.551983
0.456321
0.443230
0.498241
0.503969
0.532203
0.489477
0.496062
0.491710
0.452783
0.416388
0.434101
0.373061
0.313401
0.305748
0.263542
0.248904
0.300917
0.231633
0.238405
0.242647
0.187362
0.148873
0.172462
0.167491
0.114185
0.112274
0.214625
0.104885
0.080759
0.042080
-0.022948
0.008465
0.051725
0.027904
0.019641
-0.021318
0.009633
-0.017401
-0.014980
-0.017365
0.008206
-0.113578
-0.014798
0.031053
-0.011142
-0.014858
0.010029
0.004449
-0.017010
-0.024389
-0.068781
-0.003521
0.093215
-0.060609
-0.002526
0.013534
-0.091920
-0.079958
0.036311
-0.067453
-0.057256
-0.065240
-0.066045
0.011909
-0.093082
0.001681
-0.038382
-0.042123
-0.077103
0.024190
-0.143434
-0.019875
0.047536
-0.072906
-0.032204
-0.110014
-0.119272
-0.097872
-0.117889
-0.020772
-0.074674
-0.087710
-0.053167
-0.044012
-0.041399
-0.039939
-0.060413
-0.045942
-0.014404
-0.119610
-0.101026
-0.047667
-0.055401
-0.058907
-0.037109
-0.069211
-0.090548
-0.052313
-0.046772
-0.035542
-0.073935
-0.074336
-0.001638
-0.056117
-0.109496
-0.101036
-0.058849
-0.082105
-0.100042
-0.105236
-0.033350
-0.039118
-0.106893
-0.011453
-0.086565
-0.105010
-0.008100
-0.051763
-0.063454
0.002866
-0.039719
0.069144
0.058311
0.105768
0.054704
0.014154
0.066949
0.032875
0.076527
0.031516
0.054441
0.079760
0.065407
0.151307
0.185019
0.029157
0.052381
0.048199
0.071344
0.085355
0.023087
0.055414
0.018263
0.064056
0.079213
0.006862
0.026635
-0.104116
-0.011290
0.010646
-0.033149
-0.020477
-0.072648
-0.137596
0.011461
-0.088030
-0.142470
-0.028598
-0.133618
-0.086413
-0.093621
-0.086795
-0.071884
-0.087573
-0.142439
-0.125754
-0.123631
-0.149154
-0.135961
-0.110071
-0.058780
-0.137027
-0.164396
-0.209880
-0.193716
-0.115053
0.051592
0.237930
0.508281
0.800113
1.129974
1.288201
1.276384
0.996917
0.758144
0.485962
0.093717
-0.203657
-0.340779
-0.400917
-0.318086
-0.263290
-0.236906
-0.187130
-0.053905
-0.066772
-0.059184
-0.027199
-0.148257
-0.058581
-0.039888
-0.124708
-0.074252
-0.038742
-0.096925
-0.120146
-0.013985
-0.025770
-0.075607
-0.114568
-0.105496
-0.004983
0.015055
0.012678
0.041424
0.013266
0.025795
0.000375
0.027151
0.043613
0.126947
0.067018
0.050610
0.100159
0.083577
0.101226
0.203952
0.188005
0.278036
0.338470
0.261028
0.350886
0.295332
0.384784
0.326493
0.399246
0.321030
0.308430
0.390676
0.447237
0.372985
0.422651
0.484681
0.358215
0.406050
0.305627
0.344435
0.419830
0.293408
0.386650
0.334322
0.301007
0.338759
0.352664
0.296007
0.248038
0.259462
0.128308
0.129294
0.157968
0.124376
0.159791
0.132150
0.101127
0.109790
0.040171
-0.007140
-0.016661
0.018659
-0.047326
-0.074193
0.007187
0.066830
0.019950
0.031888
-0.040222
-0.114344
-0.092169
-0.054001
-0.132349
-0.029645
-0.091618
-0.054373
-0.082964
-0.037750
-0.072305
-0.009630
-0.108579
-0.054915
-0.071061
-0.053538
-0.067693
-0.120634
-0.150611
-0.111909
-0.092289
-0.108670
-0.103030
-0.072956
-0.067424
-0.083279
-0.054054
-0.127892
-0.022312
-0.094584
-0.071534
-0.114321
-0.073824
-0.090208
-0.087064
-0.071206
-0.084804
-0.114459
-0.100549
-0.152075
-0.110548
-0.057052
-0.038834
-0.083885
-0.098690
-0.101909
-0.052194
-0.037698
0.034663
-0.072743
-0.011494
-0.085047
-0.033135
-0.070028
-0.048049
-0.037399
-0.098107
-0.057900
-0.083441
-0.047016
-0.069064
-0.067954
-0.050232
-0.054568
-0.081888
-0.077050
-0.106883
-0.101601
-0.102266
-0.072050
-0.018091
-0.029480
-0.030494
-0.035894
-0.037182
-0.002310
-0.012110
-0.040248
-0.042606
0.012776
-0.071539
-0.043302
-0.027685
0.101580
0.077622
0.073016
-0.066161
0.041844
0.072744
0.047582
0.090822
0.083404
-0.014726
0.026692
0.095922
0.179789
0.196585
0.144567
0.100794
0.149862
0.187357
0.146468
0.137554
0.036581
0.136830
0.119176
0.093927
0.061972
0.047182
0.040616
0.059855
0.062339
0.072613
0.019736
0.031599
-0.027816
-0.010283
-0.003541
0.052506
-0.031291
-0.059262
0.020332
-0.029149
-0.042715
-0.030909
0.047706
-0.009073
-0.030624
-0.029274
-0.070752
-0.058522
-0.035082
-0.079064
-0.020741
-0.065330
0.067874
0.004145
-0.077846
-0.029451
0.001305
-0.075169
-0.118735
-0.039756
0.104011
0.321342
0.673629
0.956408
1.190348
1.345905
1.314880
1.073907
0.881545
0.433953
0.172374
-0.003986
-0.190503
-0.338691
-0.336024
-0.235156
-0.228892
-0.048815
0.030913
0.021977
0.017578
0.033473
-0.022176
-0.036527
-0.044151
0.039023
0.044719
0.039492
0.049390
0.029899
-0.029831
0.033232
0.045356
0.041047
0.057778
0.028171
0.151739
0.156897
0.112660
0.035265
0.140512
0.137162
0.177503
0.156310
0.192289
0.251065
0.258728
0.208674
0.218644
0.322260
0.295283
0.297654
0.304042
0.423932
0.483432
0.309423
0.400888
0.415841
0.465838
0.460987
0.416520
0.454579
0.545778
0.442645
0.510666
0.505724
0.478805
0.525403
0.552091
0.529254
0.467325
0.506105
0.465158
0.520966
0.423074
0.427824
0.327736
0.496034
0.355070
0.321327
0.283850
0.273551
0.332444
0.280532
0.332332
0.234439
0.269111
0.174250
0.221559
0.248997
0.196495
0.160165
0.131105
0.130138
0.124570
0.098858
0.075178
0.090702
0.068194
0.016537
0.059769
0.093834
-0.033218
-0.003070
0.118659
-0.012135
0.036867
0.026422
-0.038041
0.106645
0.009045
0.091435
0.084884
-0.000630
0.042568
0.089813
0.072312
0.074068
0.029549
0.136738
0.075355
0.022237
0.076280
0.086582
0.051687
0.031206
0.079572
0.014287
0.023431
0.085140
0.020318
0.108372
0.034862
0.062959
-0.032656
0.075254
0.043255
0.058689
0.015647
0.043695
-0.006118
0.040836
0.010903
0.065161
-0.024418
0.037184
0.074876
0.039446
0.054358
0.107032
0.017487
0.147140
-0.037681
0.092632
0.050297
0.025692
0.060021
0.018949
0.125025
0.044285
0.016459
-0.028648
0.087270
0.077953
0.095622
0.004209
0.087411
0.078546
0.074326
0.035320
0.038039
0.068825
0.069091
-0.018583
0.027274
0.135044
0.145467
0.140528
0.083611
0.049864
0.158670
0.079017
0.123574
0.158476
0.109752
0.182347
0.150302
0.186763
0.075840
0.161453
0.149080
0.242199
0.199660
0.186881
0.246180
0.277819
0.255412
0.246888
0.279822
0.261647
0.272687
0.198314
0.282914
0.139223
0.229750
0.142028
0.193588
0.285950
0.080398
0.178830
0.137360
0.072351
0.094579
0.105891
0.125564
0.112963
0.054315
0.078773
0.092957
0.097291
0.061537
0.120487
0.100624
0.196137
0.059666
0.070292
-0.044352
0.020988
0.056412
0.115538
0.099613
