0.003298
0.001126
0.060245
-0.016184
-0.003161
0.013739
-0.078875
-0.002209
-0.003803
-0.018291
-0.023280
-0.066634
0.024317
0.043727
-0.012669
-0.000447
0.032863
0.013345
0.045562
0.078930
0.022527
-0.018155
-0.016070
0.039253
-0.017370
0.082773
-0.033124
0.080223
0.033299
0.060077
0.105867
0.113121
0.064754
0.056488
0.102965
0.154793
0.084616
0.106314
0.062138
0.125278
0.152154
0.139632
0.205088
0.184130
0.158680
0.208721
0.143709
0.186960
0.160406
0.278467
0.220619
0.185260
0.178995
0.215396
0.131009
0.207587
0.170395
0.067342
0.193351
0.152761
0.085920
0.137033
0.104473
0.078905
0.110451
0.069225
0.112990
0.093995
0.098547
-0.011382
0.041034
0.067170
0.031521
0.025872
0.001721
0.079280
0.103610
0.021759
0.059780
0.043051
0.090189
0.042965
0.095021
0.009115
0.093087
0.105028
0.023032
0.025771
-0.004375
0.005348
0.176930
0.298611
0.714949
0.955405
1.339266
1.444857
1.450028
1.242360
0.928268
0.606585
0.283464
0.056088
-0.155437
-0.238530
-0.272370
-0.100210
-0.050325
0.010705
-0.049048
0.016039
0.006627
0.139181
0.045207
0.071948
0.063967
0.108430
0.134934
-0.028632
0.159827
0.099440
0.102878
0.069580
0.121923
0.128481
0.023501
0.122679
0.144976
0.129088
0.247333
0.237698
0.196477
0.128473
0.328771
0.348422
0.248319
0.345883
0.369374
0.320825
0.337805
0.385911
0.381199
0.394228
0.429573
0.429487
0.485464
0.518437
0.489117
0.613402
0.515719
0.560651
0.549652
0.598903
0.547407
0.559336
0.533977
0.585651
0.582861
0.641383
0.610909
0.659110
0.523895
0.581624
0.569062
0.457587
0.474083
0.476776
0.560123
0.463449
0.420681
0.364458
0.388838
0.281519
0.324239
0.358732
0.289502
0.310765
0.289827
0.251276
0.262867
0.151101
0.162048
0.168203
0.149276
0.121892
0.186266
0.144275
0.153411
0.087321
0.103523
0.104708
0.048681
0.207810
0.125760
0.140321
0.082861
0.004989
0.080891
0.065143
0.105076
0.122002
0.030922
0.063603
0.179316
0.107714
0.067766
0.045319
0.128712
0.093090
0.049774
0.097371
0.061791
0.003637
0.145978
0.085292
0.078368
0.053808
0.068011
0.106804
0.103019
0.022681
0.140364
0.109207
0.062374
0.108306
0.096280
0.057960
0.042908
0.155348
0.049600
0.153775
0.034416
0.113908
0.058687
0.158297
0.024766
0.067086
0.098596
0.057270
0.029882
0.117646
0.143894
0.039278
0.081163
0.030349
0.137898
0.070769
-0.013690
0.098643
0.046377
0.096556
0.112363
0.134009
0.039476
0.133407
0.068821
0.122827
0.150843
0.191071
0.059098
0.176425
0.076676
0.121879
0.030572
0.054293
0.062051
0.041730
0.061475
0.104448
0.091627
0.113668
0.112350
0.081209
0.129332
0.161413
0.205149
0.160567
0.137017
0.119769
0.187763
0.201100
0.203065
0.220706
0.269024
0.296798
0.230839
0.219868
0.274394
0.262109
0.270966
0.255250
0.265799
0.131026
0.210125
0.217759
0.245197
0.170970
0.201077
0.148687
0.118537
0.130904
0.066563
0.164745
0.131743
0.095092
0.099609
0.085328
0.077104
0.111213
0.103746
0.004560
0.007693
0.142612
0.062557
0.065695
0.076893
0.074573
0.050988
0.048959
0.043347
0.053596
0.069482
0.036560
0.098182
0.056737
0.078638
0.061352
0.003966
-0.025302
0.149986
0.369465
0.617197
0.985010
1.260693
1.470945
1.399267
1.266052
1.018667
0.598272
0.235984
-0.014782
-0.219084
-0.209814
-0.260789
-0.150305
-0.094493
-0.044275
0.051033
0.022286
0.038899
0.114725
0.105282
0.076561
0.080324
0.019354
0.036893
-0.019679
0.042822
0.030014
0.036643
0.113559
0.062716
0.034750
0.181701
0.021215
0.111201
0.164284
0.101813
0.098522
0.205292
0.168307
0.235268
0.204919
0.161624
0.200394
0.219705
0.344187
0.281854
0.301772
0.306703
0.287667
0.440609
0.354677
0.445975
0.412869
0.464027
0.450752
0.455773
0.506226
0.459937
0.491249
0.496158
0.564260
0.490362
0.570565
0.540262
0.531313
0.462667
0.504387
0.596980
0.482622
0.460807
0.388983
0.433803
0.438043
0.391690
0.355533
0.342230
0.302495
0.359381
0.321214
0.290140
0.227057
0.291641
0.267457
0.183891
0.152694
0.139940
0.131503
0.111075
0.076893
0.133698
0.070982
0.062685
0.083546
0.047223
0.092615
0.061967
-0.015471
-0.032165
0.042093
0.013811
-0.025614
0.027362
-0.043057
-0.042685
0.040597
0.019466
0.020551
0.041295
-0.049502
0.004076
0.038621
-0.026441
-0.052209
-0.017034
-0.079378
-0.131399
0.041305
0.064545
0.013160
0.009754
-0.072860
-0.074915
-0.042490
-0.040957
-0.011214
0.010204
0.029389
-0.025177
0.020331
-0.026226
-0.038233
-0.068628
0.003761
-0.083624
0.046611
-0.039934
-0.043656
-0.021322
0.065235
-0.065732
-0.007424
-0.048893
-0.107068
-0.051168
0.003266
-0.076588
-0.057971
-0.073197
0.020404
0.040188
0.021103
0.016669
-0.012742
-0.061329
-0.045786
0.037988
-0.021314
-0.015859
-0.025403
-0.047564
0.040922
0.028393
0.008133
0.018035
-0.061542
-0.087301
-0.051583
-0.003195
-0.098551
-0.053015
-0.085231
-0.036773
0.023195
0.011665
-0.014837
-0.000624
-0.044154
-0.014659
-0.003508
0.029177
0.053119
-0.091050
0.003075
0.079491
0.066453
0.081906
0.143577
0.035365
0.132996
0.112894
0.108339
0.184322
0.108434
0.101646
0.112027
0.090123
0.036836
0.032368
0.133622
0.083156
0.076352
-0.043571
0.106141
0.075348
0.003551
0.028823
0.012118
0.058942
-0.015725
-0.035565
-0.046941
-0.036107
0.073918
-0.062085
-0.050999
-0.045279
-0.036525
-0.037854
-0.051885
-0.022442
-0.050344
-0.055737
-0.064187
-0.069301
-0.068434
0.027151
-0.060257
-0.000947
-0.051389
0.021515
-0.076443
-0.018300
-0.083888
-0.128637
-0.050291
0.038735
0.184791
0.553965
0.917167
1.123877
1.330445
1.470465
1.272474
0.912689
0.563134
0.205547
-0.105746
-0.259239
-0.363217
-0.291743
-0.238189
-0.165596
-0.136074
-0.045722
-0.006381
-0.076098
-0.071849
-0.027171
0.011866
0.005541
0.026490
-0.100410
0.086381
0.040779
-0.037311
0.031503
0.021642
-0.004406
-0.069209
0.006534
0.002689
0.062969
0.072372
0.123910
0.052536
0.099537
0.121841
0.206645
0.150242
0.150958
0.121169
0.257749
0.218468
0.280797
0.215232
0.349591
0.327940
0.340712
0.337319
0.323616
0.428214
0.395968
0.399547
0.410863
0.368148
0.447351
0.469059
0.450608
0.450973
0.500998
0.499007
0.445056
0.450223
0.494913
0.469490
0.474456
0.380656
0.434721
0.416839
0.407329
0.356589
0.392626
0.350143
0.217923
0.280199
0.214034
0.246364
0.158026
0.241460
0.179330
0.143519
0.150313
0.159499
0.099353
0.061315
0.127232
0.106896
-0.002423
0.094080
0.029142
0.008114
0.060598
-0.062125
0.034781
0.008754
0.049015
0.062491
0.009123
0.052409
-0.045077
-0.005646
-0.022936
-0.034847
0.053341
-0.087195
-0.059146
-0.018453
-0.011235
0.056358
-0.016569
0.023576
-0.068513
-0.053408
-0.011634
-0.064044
-0.041694
-0.036006
-0.033679
-0.011867
0.013194
-0.021632
0.055222
0.064200
0.069580
-0.086675
-0.026594
-0.014646
0.036733
0.042486
-0.023304
0.009504
0.008785
-0.098968
0.013129
0.008588
-0.010419
0.023132
-0.045517
-0.044041
0.012290
0.035446
0.040902
0.060460
-0.061630
0.001310
-0.035918
-0.033889
0.068634
0.012985
0.044561
-0.032089
0.084651
0.054970
0.014247
0.027536
0.013107
-0.012333
0.005134
0.051261
-0.072238
0.082678
0.056319
-0.027747
0.011895
-0.004902
0.053276
0.046661
0.022556
0.022730
0.024601
0.030371
0.108747
0.123754
0.001168
0.069735
0.087473
0.073737
0.130415
0.072702
0.144201
0.139422
0.048461
0.188775
0.168068
0.232813
0.228606
0.153530
0.278221
0.261984
0.188834
0.228495
0.203024
0.216918
0.168407
0.129596
0.160451
0.129667
0.163453
0.205138
0.114295
0.138925
0.156114
0.204937
0.122704
0.131181
0.091802
0.110795
0.115918
0.117070
0.044898
0.066592
0.068086
0.008999
0.075016
0.130828
0.027016
0.047111
0.079924
0.004396
0.025231
0.120702
0.029778
0.019380
0.088615
0.054764
0.055654
0.131321
0.030939
0.105067
0.050894
0.056740
-0.006185
0.022360
0.151053
0.279283
0.575014
0.849625
1.243779
1.484282
1.404066
1.307982
1.040960
0.690547
0.379316
0.024267
-0.146469
-0.173956
-0.265146
-0.220047
-0.040788
-0.041319
0.021555
0.084374
0.016274
0.081874
0.080010
0.103336
0.033336
0.140232
0.058389
0.074579
0.142697
0.129152
0.108528
0.177599
0.140414
0.078230
0.106016
0.199641
0.191149
0.107972
0.131363
0.156125
0.208482
0.233513
0.236658
0.181820
0.277242
0.354685
0.303849
0.370516
0.391103
0.373926
0.379345
0.414146
0.455580
0.474605
0.491502
0.457457
0.504047
0.544461
0.504054
0.554344
0.589265
0.565469
0.504764
0.517581
0.617696
0.568601
0.552044
0.675256
0.578062
0.585883
0.560390
0.531761
0.558633
0.469004
0.530805
0.524864
0.506683
0.518713
0.498423
0.429307
0.366831
0.409301
0.409351
0.302250
0.342549
0.313955
0.330922
0.242193
0.183702
0.224284
0.172373
0.224023
0.209507
0.162105
0.113741
0.152346
0.170788
0.196769
0.146624
0.153477
0.164603
0.106448
0.097079
0.043642
0.018350
0.132380
0.076288
0.144685
0.072210
0.082420
0.132733
0.107283
0.138016
0.075355
0.113969
0.106465
0.064929
0.056586
0.118003
0.035480
0.112307
0.145805
0.072279
0.114882
0.057478
0.112955
0.116211
0.084983
0.145948
0.090933
0.145391
0.139462
0.116802
0.120726
0.077311
0.106969
0.106125
0.170701
0.122846
0.075525
0.103024
0.132220
0.098815
0.097083
0.139915
0.086442
0.076640
0.048350
0.112006
0.139595
0.094925
0.054084
0.010567
0.061960
0.043192
0.071886
0.117761
0.056063
0.050974
0.128292
0.144268
0.067445
0.074004
0.186139
0.019216
-0.006778
0.073609
0.034746
0.063647
0.074343
0.080264
0.127920
0.035381
0.058977
0.052976
0.138660
0.115922
0.084275
0.119306
0.102573
0.114648
0.135656
0.229020
0.227661
0.102044
0.151431
0.191840
0.165210
0.202935
0.267233
0.290811
0.206015
0.240485
0.257769
0.206004
0.282646
0.215976
0.331843
0.231699
0.234263
0.183227
0.294065
0.220873
0.178609
0.203516
0.173639
0.160055
0.121979
0.182088
0.128864
0.188403
0.105926
0.092807
0.080294
0.100471
0.051788
0.112524
0.047870
0.006317
0.130619
0.045265
0.107252
0.036494
0.088237
0.098743
0.091291
0.031105
0.070040
0.035944
0.112789
0.076176
0.076862
0.038460
0.036251
0.056641
-0.004939
-0.050710
-0.076216
0.158006
0.314250
0.534144
0.947143
1.235871
1.435528
1.500000
1.283924
1.088039
0.669868
0.464608
0.071772
-0.147951
-0.261997
-0.275194
-0.125154
-0.101854
-0.000954
0.033155
0.034985
0.055982
0.077873
0.071677
0.076606
0.073171
-0.001995
0.011853
0.076183
0.075781
0.126534
0.031670
0.058109
0.138192
0.063380
0.155621
0.149531
0.146873
0.199180
0.147097
0.172415
0.149244
0.230029
0.210897
0.248557
0.317772
0.205017
0.235630
0.283732
0.263444
0.346834
0.295856
0.355387
0.382167
0.451220
0.441144
0.477101
0.499937
0.448475
0.517588
0.430048
0.502029
0.466253
0.575285
0.520061
0.558269
0.507876
0.548629
0.635991
0.565473
0.499395
0.522103
0.522989
0.473915
0.513109
0.361814
0.448226
0.419091
0.408358
0.459993
0.301073
0.322168
0.297873
0.208473
0.252416
0.250650
0.149818
0.162605
0.149743
0.155148
0.064251
0.177636
0.051950
0.132143
0.102897
0.118119
0.040090
0.059525
0.010908
0.050732
0.080515
0.091052
0.043117
0.038320
-0.042491
0.002831
-0.054011
0.048935
-0.003205
0.011785
0.014193
-0.016042
0.036405
-0.065460
-0.004050
0.042032
-0.049880
0.053678
-0.077845
-0.021107
0.075851
-0.022499
-0.052696
-0.107397
-0.105879
0.003683
-0.005624
0.002995
0.001453
0.072860
-0.031417
-0.009229
-0.057873
0.033233
-0.042492
-0.056149
0.018265
-0.042809
-0.009782
-0.001589
-0.023575
0.032503
-0.008604
-0.003491
0.014305
-0.004674
-0.058267
0.047154
-0.064435
-0.000996
-0.072425
0.080542
-0.064476
-0.078230
0.040376
0.013669
-0.042423
-0.107046
-0.030241
-0.025522
-0.028598
-0.035894
-0.059287
-0.016997
-0.122698
-0.079628
-0.090840
0.018309
-0.035443
-0.068584
-0.058483
-0.032958
0.000902
-0.024195
0.013526
-0.088257
-0.015405
0.056767
0.005680
-0.044522
0.022660
0.031259
-0.018760
0.075688
0.013655
-0.028816
-0.017005
0.066159
0.025524
0.114867
0.099748
-0.001261
0.170595
0.151251
0.047048
0.062123
0.149348
0.121860
0.156876
0.130889
0.165714
0.074179
0.084980
0.055769
0.069932
0.034197
0.095408
0.046880
-0.030449
-0.054468
0.072990
0.036318
0.037439
-0.021732
-0.080428
-0.024776
-0.037021
-0.104814
0.006767
0.019376
0.001609
0.006549
-0.009053
-0.060878
-0.033201
-0.053099
0.016991
-0.047706
-0.059054
-0.058923
-0.062931
-0.099779
-0.086899
-0.064858
-0.137247
-0.126955
-0.099089
-0.115888
-0.137688
-0.076939
0.090489
0.401358
0.691666
1.101515
1.232829
1.313265
1.212246
0.878267
0.572892
0.301482
-0.064319
-0.237049
-0.328754
-0.426874
-0.296316
-0.198097
-0.230737
-0.141249
-0.062823
-0.041127
-0.115365
-0.050884
-0.071333
-0.053908
-0.101258
-0.049478
-0.067109
-0.107673
-0.056913
-0.033139
-0.021545
-0.050466
-0.000560
-0.056076
-0.080448
0.017604
-0.023633
0.016011
0.025337
0.041185
0.020231
0.118885
0.095622
0.105340
0.165737
0.091137
0.203111
0.166368
0.264045
0.227659
0.318544
0.264683
0.234087
0.308423
0.306742
0.358347
0.358710
0.374692
0.369255
0.469701
0.383828
0.450530
0.465739
0.437390
0.458655
0.366165
0.358734
0.460920
0.403839
0.373244
0.409001
0.308002
0.357144
0.310442
0.359136
0.289186
0.300649
0.281015
0.278760
0.205713
0.198770
0.215688
0.079938
0.147057
0.142872
0.106416
0.128213
0.096206
0.068770
0.132416
-0.001860
-0.014338
0.055905
0.029015
0.050435
-0.002293
-0.052255
0.012756
-0.013511
-0.032809
0.060727
-0.111731
-0.016565
0.003139
-0.125688
-0.078699
-0.106341
-0.120924
-0.038345
-0.054960
-0.146819
0.010236
-0.050773
-0.088575
-0.036750
-0.048066
-0.078288
-0.119861
-0.109029
-0.117514
0.025070
-0.075121
-0.143062
-0.009083
-0.001245
-0.039725
-0.090533
-0.067448
-0.055865
-0.061735
-0.033476
-0.073751
-0.049864
-0.056955
-0.085632
-0.029821
-0.026344
-0.001259
-0.095234
-0.052798
-0.023337
-0.046444
-0.110686
-0.088256
-0.055536
-0.011352
-0.033474
-0.073067
-0.075751
-0.138594
-0.081606
-0.031728
-0.114693
-0.072032
-0.027845
-0.114416
-0.024100
-0.118007
-0.029738
-0.068307
-0.128181
-0.016397
0.010845
-0.093764
-0.053507
-0.016864
-0.052028
-0.022547
-0.023431
-0.015218
-0.089463
-0.074886
-0.052689
0.036219
-0.043967
-0.042734
0.004558
0.005278
0.023446
0.009292
-0.041235
0.060349
-0.012940
0.042538
-0.080341
-0.022774
0.049783
0.026968
0.082011
0.134856
0.144597
0.141114
0.141515
0.155437
0.126503
0.133925
0.161630
0.112973
0.109087
0.143119
0.111486
0.139563
0.180368
0.116564
0.041836
0.084323
0.026559
0.088190
-0.044999
0.096199
0.022205
0.047943
-0.048033
-0.045610
-0.017100
0.035070
-0.109928
0.017056
0.044540
0.000677
-0.044335
-0.087584
-0.044306
-0.012453
-0.050125
0.042136
0.003611
-0.074081
-0.030315
0.030336
0.000378
-0.083790
-0.013418
-0.005590
-0.003344
-0.026488
-0.008912
-0.009022
0.176390
0.400824
0.709495
1.019926
1.379971
1.322252
1.316142
1.034734
0.676228
0.269481
0.051849
-0.084411
-0.265384
-0.341756
-0.340257
-0.114069
-0.100779
-0.040292
-0.074965
-0.010204
-0.013486
0.026216
0.065502
0.028411
-0.048018
0.011496
0.032785
0.048776
-0.006768
0.012844
0.029498
0.005727
-0.040534
0.092577
0.045613
0.024555
0.059811
0.087949
0.172073
0.064604
0.147814
0.149111
0.078166
0.114538
0.196060
0.243946
0.268158
0.258914
0.299062
0.375220
0.371741
0.371051
0.360215
0.402519
0.484081
0.463893
0.401840
0.542688
0.470768
0.465148
0.517235
0.532164
0.532044
0.496323
0.576993
0.556490
0.546927
0.508588
0.548710
0.515972
0.471518
0.477991
0.434486
0.538938
0.418115
0.397770
0.448752
0.383014
0.352590
0.337440
0.291925
0.261978
0.304686
0.191507
0.214086
0.253321
0.253050
0.166369
0.201527
0.237931
0.140211
0.073287
0.045021
0.093752
0.139968
0.059610
0.159357
0.057828
0.037541
0.021015
0.107529
0.038987
-0.028649
-0.055263
0.070372
-0.024605
0.077622
0.059170
0.090166
-0.031594
0.014302
0.062739
0.098954
0.059527
0.024200
0.104958
0.099462
0.033999
-0.011448
0.077332
-0.028079
0.040326
0.030453
-0.023323
0.065343
0.031444
0.021198
0.066007
-0.030550
0.091939
0.077343
0.079556
0.054590
0.070268
0.022993
0.050116
0.040469
0.110666
0.011011
0.106563
0.030665
-0.030205
0.008507
0.083897
0.060730
0.068293
0.037323
0.095066
0.096571
0.061744
0.010556
0.141325
0.026711
-0.001553
0.056419
0.095291
0.068422
0.085570
0.061829
0.051576
-0.002387
0.068805
0.054409
-0.016553
0.000060
0.024696
0.133878
0.040971
0.065553
0.039725
0.057440
0.026517
0.083580
0.027819
0.112435
-0.003445
0.034838
0.089152
0.154013
0.083385
0.096443
0.046297
0.093746
0.164776
0.065003
0.213092
0.170003
0.245424
0.224346
0.243773
0.219525
0.237080
0.212424
0.191703
0.215926
0.218060
0.193285
0.224031
0.201614
0.294735
0.261664
0.168684
0.230275
0.159455
0.121691
0.074025
0.153822
0.125818
0.129349
0.075617
0.122452
0.122432
0.029771
0.130993
0.135466
0.071159
0.052595
-0.008533
0.047784
0.095728
0.059784
0.117994
0.050004
0.067021
0.099981
0.042778
0.087521
0.095629
-0.000514
-0.010643
0.024917
0.055829
0.051502
0.064068
0.018768
-0.001292
-0.044199
0.005840
0.159506
0.434035
0.793601
1.211752
1.418453
1.492277
1.368858
1.130341
0.786685
0.297647
0.103794
-0.187848
-0.227037
-0.225071
-0.228119
-0.151389
-0.118357
-0.007544
-0.007491
0.066720
0.023760
0.022701
-0.008260
0.033720
0.030240
0.103517
0.054213
0.072041
0.115046
0.054189
0.048403
0.014934
0.059477
0.192265
0.105496
0.161334
0.088926
0.167203
0.141825
0.172027
0.133726
0.192210
0.130380
0.277399
0.255417
0.229433
0.271658
0.273655
0.347278
0.320148
0.296710
0.287440
0.306288
0.376203
0.398038
0.433740
0.402988
0.488520
0.369057
0.529514
0.468363
0.575838
0.536362
0.501965
0.504687
0.482966
0.549997
0.450097
0.555707
0.468572
0.444186
0.485614
0.472882
0.509917
0.397089
0.363970
0.404760
0.350064
0.333298
0.334584
0.343480
0.267756
0.223822
0.149407
0.191055
0.134486
0.175561
0.150073
0.169874
0.157784
0.135573
0.114962
0.123032
0.100149
0.164111
0.007586
-0.009828
-0.035047
-0.092837
0.013006
-0.046501
-0.014797
-0.040580
0.017146
0.071945
0.010488
0.053114
0.024842
0.038110
0.024343
0.025874
-0.110838
0.029580
-0.005965
0.027505
0.003875
-0.029242
-0.070054
0.019586
-0.034948
-0.095379
-0.118237
-0.036610
-0.017080
-0.047377
-0.068762
-0.064249
0.037461
-0.018871
-0.008142
-0.093548
-0.038534
0.003903
-0.093156
-0.108900
0.007924
-0.043468
-0.118696
0.060124
-0.041524
-0.094326
-0.014655
-0.028883
0.031909
0.007125
-0.029147
-0.029365
-0.016713
-0.039165
-0.006958
-0.018120
0.002915
-0.106553
-0.004812
-0.068426
-0.039472
-0.048606
-0.069820
-0.032308
-0.030405
-0.070394
0.016106
-0.063864
-0.084826
-0.053611
0.034729
0.028495
0.025670
-0.030497
0.001256
0.096331
-0.082693
0.019202
0.008182
-0.086011
-0.011595
0.007249
-0.097485
-0.000953
0.046500
-0.009112
0.068318
0.020584
-0.043476
0.139318
0.054334
0.036763
0.107246
0.096507
0.006095
0.076410
0.107925
0.119970
0.107589
0.141153
0.074119
0.130614
0.164543
0.100435
0.086205
0.098511
0.021652
0.143138
0.048098
0.067274
-0.002093
0.092317
0.085681
-0.013782
-0.069044
0.030574
-0.005155
-0.027678
-0.075192
-0.067586
-0.077073
-0.074371
-0.065759
-0.052347
-0.051220
-0.034951
-0.045809
-0.136480
-0.080414
-0.096396
-0.140871
-0.151736
-0.040935
-0.133936
0.014213
0.009050
-0.041325
-0.137925
-0.022524
-0.091512
-0.085335
-0.122998
-0.142312
0.026724
0.322664
0.631031
0.938029
1.274168
1.249950
1.173585
1.033167
0.735557
0.336146
0.078692
-0.231858
-0.364750
-0.446175
-0.377720
-0.268343
-0.216495
-0.175953
-0.185745
-0.024452
-0.070258
-0.076129
-0.098033
-0.038092
-0.168402
-0.120352
-0.111715
-0.092368
-0.010714
-0.072377
-0.012814
-0.107899
-0.058235
-0.043359
-0.051577
-0.021379
0.059793
-0.009247
-0.010516
0.036447
0.084923
0.016990
0.041530
0.103333
0.141412
0.165193
0.216696
0.285026
0.167795
0.194443
0.149628
0.195089
0.258235
0.250347
0.319825
0.320625
0.313401
0.330565
0.367166
0.439382
0.434687
0.394773
0.492520
0.401966
0.420034
0.343105
0.333523
0.479805
0.386484
0.451212
0.395004
0.399797
0.259128
0.426311
0.306204
0.271073
0.283984
0.199030
0.264527
0.176319
0.184728
0.201935
0.196115
0.199823
0.150650
0.100207
0.100269
0.045126
0.081112
0.042436
0.071643
0.060168
-0.026510
0.026779
-0.099465
-0.059623
-0.023662
-0.057781
-0.058023
-0.037122
-0.068007
-0.038184
-0.020277
-0.151108
-0.090676
-0.059163
-0.116003
-0.142505
-0.111070
-0.061718
-0.014486
-0.044186
-0.101268
-0.150308
-0.045268
-0.116234
-0.005818
-0.074442
-0.127818
-0.098814
-0.059631
-0.056439
-0.069410
-0.078886
-0.099271
-0.081249
-0.136567
-0.120343
-0.106116
-0.159302
-0.049114
-0.074792
-0.069450
-0.037402
-0.083394
-0.069017
-0.112076
-0.083034
-0.036936
-0.018185
-0.047167
-0.121460
-0.059973
-0.211390
-0.006866
-0.136009
-0.148446
-0.051184
-0.099303
-0.072498
-0.042836
-0.054388
-0.100488
-0.133043
-0.153939
-0.109180
-0.082262
-0.037843
-0.089064
-0.053589
-0.098112
-0.027552
-0.054040
-0.034520
-0.031676
-0.065881
-0.041154
-0.022424
-0.058252
-0.053403
-0.089781
-0.203870
-0.077398
-0.010816
-0.102826
-0.056089
0.049910
0.028248
-0.029877
-0.034957
-0.009237
0.000267
-0.035075
-0.067495
0.001026
0.054386
0.037383
0.049307
0.102094
0.061088
0.086920
0.117577
0.100037
0.103613
0.122338
0.133970
0.123263
0.079347
0.198635
0.093250
0.042423
0.108565
0.105979
0.063260
0.050702
0.041884
0.017734
-0.000596
0.050479
0.051713
0.035012
-0.036059
-0.073723
-0.014862
-0.003647
-0.124096
-0.073543
-0.038791
-0.059287
-0.071205
-0.039990
-0.100008
-0.096533
-0.023386
-0.066594
-0.029596
-0.068708
-0.087629
-0.013851
0.001697
-0.084698
-0.051788
-0.029214
-0.216140
0.031855
-0.089104
-0.107126
-0.086999
0.065675
0.330837
0.611534
0.995624
1.309952
1.381812
1.378392
1.046335
0.818417
0.454450
0.072002
-0.165834
-0.317554
-0.329666
-0.316480
-0.284505
-0.066026
-0.080279
-0.094340
0.042752
-0.000752
0.021723
0.046002
-0.005646
-0.064730
0.044402
-0.039736
-0.065963
0.092098
-0.008072
0.020490
0.021818
-0.032247
0.012966
-0.021927
0.086701
0.037831
0.060647
0.144242
0.050248
0.159032
0.197393
0.165871
0.070410
0.174662
0.151223
0.273193
0.239762
0.284364
0.316054
0.277433
0.312737
0.314165
0.367203
0.393930
0.358444
0.449807
0.448175
0.512704
0.513091
0.388721
0.400080
0.472176
0.583122
0.442982
0.455612
0.482620
0.520021
0.396677
0.495278
0.483142
0.446185
0.478396
0.459787
0.410978
0.423306
0.308320
0.425678
0.303996
0.317340
0.319747
0.352816
0.236314
0.278243
0.278893
0.188754
0.228892
0.172012
0.228138
0.177806
0.153799
0.145026
0.065688
0.101223
0.032416
0.109066
0.076223
0.146263
0.093256
0.089742
0.037040
0.040328
0.050530
0.014783
-0.021281
0.061251
0.037144
0.043430
0.109383
0.034413
0.012888
0.010339
-0.051076
-0.033321
0.095816
-0.044830
-0.020345
0.010678
0.090119
0.038220
0.013390
0.024791
0.012489
0.039959
-0.014305
0.069174
0.041643
0.043913
0.083429
0.039629
0.012598
0.024696
0.095139
0.018004
0.070724
0.005627
0.060028
0.017963
0.050820
0.083745
0.044173
0.036837
0.010001
0.043491
0.075438
0.047483
0.096796
0.119432
0.023338
0.053106
0.070323
0.083604
0.036232
0.074156
0.056815
0.096879
0.076083
0.082159
0.007798
0.036249
0.084925
0.047032
0.024619
0.006732
0.046214
0.096452
0.050659
0.133649
0.041448
0.121808
0.086924
0.068678
0.085097
0.055151
0.004597
0.047546
0.163222
0.139339
0.113680
0.095074
0.099612
0.097821
0.142255
0.150128
0.137808
0.128756
0.159578
0.265638
0.212306
0.185772
0.240647
0.282976
0.238692
0.247043
0.316602
0.220451
0.271171
0.252588
0.239521
0.194838
0.234505
0.138019
0.232522
0.237095
0.199804
0.197772
0.246311
0.186066
0.178141
0.061624
0.120455
0.166164
0.022852
0.089451
0.072109
0.156919
0.084891
0.042282
0.074293
0.039316
0.014285
0.088976
0.111058
0.056430
0.067877
0.037259
0.086002
0.066312
0.062750
-0.000657
0.067347
0.102675
-0.007933
0.178550
0.025011
0.053192
0.060742
0.002422
0.163414
0.475169
0.626479
1.061603
1.370347
1.462269
1.417696
1.277568
0.985808
0.510825
0.250302
-0.045113
-0.176363
-0.278642
-0.186586
-0.124499
-0.070252
0.079848
0.038551
0.067709
0.074060
0.023049
0.029765
0.021220
0.068145
-0.001433
0.065017
0.029579
0.084706
