-0.012518
0.107908
-0.024383
-0.000466
-0.038399
0.089366
0.042253
0.005556
0.010910
0.027273
0.023347
-0.013338
-0.014229
-0.008371
0.079734
0.020153
0.001316
-0.059344
0.110144
0.026913
-0.079232
0.110271
0.015808
-0.027052
0.148709
-0.005506
0.027926
0.032731
0.051063
0.079897
0.088584
0.157821
0.072249
0.135232
0.123271
0.142417
0.134533
0.135403
0.085746
0.146549
0.166897
0.200525
0.155988
0.216536
0.197035
0.235892
0.183036
0.180170
0.154377
0.186846
0.194806
0.196838
0.142194
0.203324
0.148077
0.106967
0.144853
0.085383
0.138824
0.086790
0.108495
0.024245
0.047060
0.070088
0.107201
0.109647
0.146145
0.095885
0.077820
0.034782
0.031994
0.027510
0.023088
0.003578
0.067489
0.118782
0.070019
0.079564
0.021426
0.004708
-0.024472
-0.028966
0.066114
0.068313
0.146206
0.306778
0.588850
0.940042
1.244665
1.428630
1.458924
1.302277
1.016380
0.664198
0.274564
-0.001945
-0.141893
-0.203623
-0.187955
-0.144517
-0.042583
-0.032615
0.004186
0.037056
0.030232
0.100929
0.046890
0.069855
0.064105
0.076438
0.069880
0.053442
0.051128
0.130055
0.109835
0.160492
0.203094
0.160686
0.136620
0.102753
0.162448
0.216552
0.143235
0.204282
0.229873
0.293336
0.279519
0.316291
0.305995
0.390566
0.334646
0.293683
0.446951
0.385581
0.434561
0.455530
0.435515
0.508794
0.563420
0.568691
0.515569
0.607389
0.498912
0.527790
0.631676
0.602857
0.693684
0.591592
0.563476
0.547612
0.563369
0.515835
0.471434
0.494175
0.552358
0.500914
0.439084
0.561308
0.457865
0.430411
0.381359
0.373531
0.349069
0.426837
0.363830
0.240604
0.287446
0.180496
0.261936
0.200440
0.245947
0.163258
0.151756
0.207163
0.139259
0.183134
0.167351
0.150554
0.141098
0.103713
0.150893
0.068761
0.184238
0.123142
0.093103
0.133840
0.129171
0.065632
0.124255
0.044687
0.094446
0.044845
0.121645
0.068339
0.056703
0.047162
0.125994
0.072739
0.123548
0.104296
0.027635
0.041484
-0.017708
0.097372
0.023809
0.184472
0.088889
0.074622
0.133834
0.152486
0.108290
0.028733
0.057435
0.048091
0.121395
0.019236
0.153628
0.133591
0.164340
0.090061
0.115299
0.135479
0.059269
0.106559
0.083914
0.140778
0.153144
0.090139
0.155384
0.011263
0.089267
0.125734
0.046211
0.096303
0.076135
0.120186
0.076599
0.194727
0.100116
0.027462
0.117099
0.100713
0.069173
0.127795
0.070966
0.070552
0.067368
0.115136
0.098364
0.051857
0.104931
0.094585
0.117372
0.072057
0.101860
0.174977
0.129188
0.124090
0.206064
0.176319
0.124451
0.129171
0.182232
0.214767
0.259170
0.161846
0.313868
0.305205
0.221518
0.190298
0.273889
0.236508
0.249820
0.223334
0.171218
0.200738
0.176416
0.131980
0.120810
0.266975
0.164964
0.145299
0.100939
0.219723
0.132907
0.187369
0.171419
0.144573
0.152484
0.092823
0.067182
0.017556
0.060315
0.087092
0.157775
0.020659
0.074427
0.012677
0.009848
0.061300
0.117806
0.075008
0.063755
0.109709
0.070561
0.051818
0.004052
-0.001935
0.185036
0.337238
0.627910
0.914554
1.203984
1.459524
1.397318
1.282432
0.944679
0.645971
0.167826
-0.018490
-0.170181
-0.188871
-0.182150
-0.073805
-0.045215
0.016057
0.142457
0.032788
0.103797
0.010212
0.068117
0.030841
0.061443
0.037359
0.130049
-0.008039
0.117518
0.141555
0.104392
0.159008
0.183835
0.130573
0.151979
0.228981
0.106283
0.241883
0.118813
0.195334
0.292707
0.263790
0.296889
0.250838
0.290377
0.274907
0.358453
0.330622
0.369297
0.388234
0.370289
0.393034
0.394320
0.473341
0.490106
0.597867
0.559562
0.499042
0.494540
0.485302
0.530905
0.499635
0.566728
0.547065
0.481828
0.563113
0.472500
0.470426
0.509498
0.425540
0.506227
0.373455
0.410666
0.431998
0.423751
0.283994
0.305947
0.296239
0.383896
0.209371
0.274251
0.260253
0.153712
0.241235
0.143947
0.134366
0.170060
0.206283
0.168139
0.113810
0.057422
0.104449
0.082678
0.030628
0.072386
0.039428
0.072395
0.036353
0.053164
0.037742
0.071192
0.052519
-0.026963
-0.044503
-0.001968
0.105673
0.076757
-0.012202
0.034795
-0.007859
0.014822
0.038887
0.075351
0.031186
0.004430
0.101323
-0.007773
0.077991
-0.013924
-0.061922
0.062100
0.013420
-0.071376
-0.037167
-0.002819
-0.063182
0.002915
-0.003480
-0.023101
-0.013280
0.111345
0.033416
-0.009572
-0.025489
-0.004657
0.034941
0.063878
-0.000123
-0.038067
-0.025163
-0.062285
-0.071004
-0.024842
-0.015340
0.002550
-0.045971
0.047620
-0.059978
-0.041711
-0.036167
0.013962
-0.060102
0.061308
-0.054675
-0.021836
-0.123525
0.009074
-0.062257
-0.087897
0.044784
-0.076885
-0.029431
-0.020056
0.007302
0.046949
-0.019937
0.069363
0.085979
-0.058401
0.078299
0.021937
0.041741
0.120323
0.106295
0.095678
0.028359
0.070388
0.118408
0.030933
0.208407
0.001979
0.072092
0.171532
0.192202
0.144159
0.070689
0.159669
0.194635
0.139897
0.029217
0.205202
0.143349
0.086320
0.146135
0.157643
0.028288
0.143374
0.009945
-0.075213
0.022052
-0.041495
-0.035323
-0.045683
0.030743
-0.071604
0.070896
-0.069012
0.013467
-0.018690
-0.048310
-0.014050
-0.117057
0.003551
-0.096691
0.032838
-0.001889
-0.146802
-0.018762
-0.017470
-0.052746
-0.059749
-0.061447
-0.027966
0.015416
0.091111
0.244631
0.600045
0.890019
1.233875
1.270107
1.260698
1.128321
0.856950
0.452110
0.125908
-0.184169
-0.296726
-0.251741
-0.326628
-0.201654
-0.175933
-0.124370
-0.017474
-0.016834
0.021412
0.002166
0.000736
-0.000175
-0.094715
0.086929
0.048445
-0.033280
0.012268
0.008914
0.018955
0.016620
0.011167
0.044089
-0.002437
0.034917
0.118158
0.061226
0.095690
0.068032
0.124884
0.244341
0.228774
0.255693
0.157128
0.289459
0.311821
0.260164
0.260799
0.271407
0.423338
0.358550
0.421132
0.368943
0.406136
0.466112
0.408424
0.369897
0.383443
0.419593
0.518499
0.462500
0.479996
0.518487
0.465126
0.483163
0.337777
0.481386
0.430616
0.374926
0.437239
0.368698
0.355928
0.301676
0.259414
0.295335
0.214820
0.274496
0.270330
0.238977
0.147314
0.116948
0.162756
0.124581
0.185421
0.003031
0.177330
0.080604
0.046163
0.099504
0.025683
0.044315
-0.014233
-0.106461
0.061851
-0.005277
0.011038
-0.022945
-0.057297
-0.065795
-0.019123
-0.003453
0.047557
-0.049008
0.075415
-0.085953
0.022417
-0.053195
-0.029704
-0.008482
-0.021795
-0.013899
-0.009134
-0.079643
-0.040283
-0.040010
-0.022050
-0.075121
0.023429
-0.036930
-0.040203
-0.019000
-0.073279
-0.034919
-0.014066
-0.062314
-0.008775
-0.016309
-0.028039
-0.029696
-0.025346
0.013190
-0.029738
-0.112847
0.003155
-0.049162
-0.006864
-0.095238
-0.012175
-0.020907
0.070557
-0.050698
0.017948
-0.029602
-0.107100
0.032518
-0.083579
0.021569
-0.018388
0.013601
-0.034995
0.026960
-0.005506
0.121270
0.023661
-0.031639
0.035090
-0.017419
0.069657
0.011880
0.026164
-0.085791
-0.023969
0.006514
0.065615
-0.046889
0.043442
-0.004973
0.115987
0.113373
0.085105
0.052492
0.072508
0.050164
0.108312
0.182526
0.079091
0.069862
0.081905
0.131205
0.145631
0.153581
0.146505
0.281552
0.141856
0.148057
0.203964
0.230106
0.163048
0.190376
0.124067
0.117022
0.091147
0.166426
0.153044
0.085068
0.106262
0.093387
0.058110
0.085626
0.098928
-0.002397
0.132798
0.096507
0.050413
-0.004390
0.013778
0.024003
0.079968
0.079876
0.002330
0.076476
0.045507
-0.024297
-0.018573
0.015921
0.036344
0.029146
-0.060172
0.013630
-0.044963
-0.013139
-0.021444
0.020724
0.126207
0.309492
0.633326
0.997905
1.284170
1.418452
1.427385
1.232680
0.819926
0.473159
0.190706
0.042204
-0.284701
-0.216869
-0.179546
-0.174331
-0.071009
-0.005258
0.041679
-0.020167
0.086363
0.048880
0.065585
0.050361
0.011190
-0.111821
-0.005460
0.007271
0.119400
0.156181
0.095668
0.102410
0.081391
0.167576
0.186143
0.102881
0.128038
0.189572
0.233374
0.226973
0.254286
0.235130
0.303762
0.313572
0.324475
0.426105
0.334114
0.343131
0.475864
0.433528
0.436492
0.350620
0.408863
0.448636
0.497391
0.553620
0.504242
0.673568
0.570984
0.663762
0.588268
0.619194
0.537567
0.525419
0.584074
0.512509
0.561503
0.505874
0.494443
0.483755
0.473277
0.429382
0.471636
0.474388
0.450140
0.392981
0.306163
0.334917
0.306387
0.339016
0.257081
0.247597
0.229924
0.202878
0.215113
0.210213
0.230135
0.143864
0.202421
0.199783
0.177610
0.194790
0.087282
0.152032
0.138587
0.012697
0.116292
0.049434
0.179247
0.016363
0.097716
0.076431
0.117742
0.108977
0.070422
0.034538
0.061494
0.032245
0.119585
0.132257
0.122819
0.118630
0.015690
0.046895
0.041225
0.017491
0.135685
0.058458
0.056881
0.048952
0.132047
0.127282
0.053551
0.045189
0.111921
0.089161
0.065952
0.136795
0.037952
0.150204
0.096797
0.079872
0.118381
0.029264
0.059051
0.052002
0.054990
0.178192
0.177414
0.064165
0.082482
0.042406
0.128480
0.056624
0.102532
0.041519
0.188733
0.066414
0.144898
0.129491
0.153685
0.081970
0.073064
0.094691
0.061809
0.104845
0.085353
0.043984
0.076524
0.055062
0.056122
0.147730
0.080039
0.138154
0.149050
0.088098
0.147480
0.114336
0.122186
0.119338
0.228439
0.189733
0.180381
0.178825
0.227026
0.183685
0.229890
0.253467
0.347885
0.152898
0.336037
0.281077
0.255679
0.311369
0.192631
0.226229
0.210561
0.168990
0.252330
0.269742
0.247380
0.124336
0.245279
0.155316
0.186616
0.209475
0.158493
0.135921
0.064981
0.125112
0.115793
0.193665
0.084818
0.172753
0.149133
0.107829
0.080635
0.114696
0.126488
0.109447
0.103230
0.059202
0.176672
0.045774
0.075174
0.058512
0.040424
0.065724
0.177729
0.047648
0.028098
0.015409
0.072788
0.079737
0.272849
0.512821
0.751130
1.083439
1.298568
1.471100
1.406474
1.155837
0.876157
0.498021
0.164682
-0.082606
-0.220610
-0.156914
-0.150743
-0.080136
0.075962
0.051359
0.114151
0.067144
0.061048
0.098104
0.103993
0.109474
0.146949
0.022861
0.077948
0.117712
0.094332
0.150895
0.195134
0.012702
0.182646
0.137331
0.141335
0.275645
0.204449
0.236725
0.207630
0.257209
0.250539
0.308862
0.231291
0.365999
0.284679
0.350726
0.381052
0.434397
0.410330
0.449609
0.363386
0.454222
0.557368
0.493055
0.545539
0.552510
0.547206
0.622716
0.613820
0.628362
0.524848
0.599611
0.621408
0.545638
0.548140
0.502816
0.487592
0.519842
0.545762
0.500266
0.540385
0.442747
0.426132
0.326001
0.365240
0.511890
0.332713
0.396220
0.325334
0.247175
0.307465
0.185610
0.294213
0.303810
0.224678
0.196241
0.176799
0.218913
0.056513
0.117468
0.158752
0.104705
0.139641
0.159485
0.062524
0.074987
0.030946
0.119531
0.071708
0.114134
0.025892
0.085112
0.027436
0.022812
0.060001
0.105060
0.039691
0.110157
0.049692
0.059688
0.000362
-0.011665
0.074261
0.068754
0.011522
0.096041
0.070115
0.038246
0.191364
0.031037
-0.007584
0.041536
0.038537
0.045140
0.037709
0.049131
0.064102
0.113831
0.114148
-0.010768
-0.009563
0.004347
-0.014008
0.047337
0.065150
0.049717
-0.025426
0.056684
0.041291
0.060794
0.016659
-0.001293
-0.004943
0.148863
0.001872
-0.008968
0.009951
0.025587
0.091773
0.026053
0.016570
0.007023
0.048281
-0.006477
0.006920
-0.007328
0.094664
0.024477
0.007441
0.068098
0.013532
-0.042806
-0.010920
-0.025045
-0.045130
0.016904
0.048346
0.081381
0.063360
0.059981
0.098485
0.070397
0.073064
0.067413
0.100979
0.176719
0.094402
0.180597
0.064520
0.103501
0.106413
0.202875
0.164731
0.126189
0.162823
0.147275
0.163625
0.133559
0.159649
0.158982
0.084545
0.095544
0.144357
0.121520
0.120937
0.105545
0.075653
0.105900
0.075174
0.016783
0.056793
-0.003915
0.005462
-0.027407
-0.018378
-0.037021
-0.047501
-0.027817
-0.034102
0.022047
-0.112813
0.009915
-0.053834
-0.081908
0.073546
-0.001068
-0.017389
-0.040987
-0.073593
0.038183
-0.123206
-0.049173
-0.061859
-0.054261
0.001733
0.386760
0.698771
0.997809
1.234006
1.342263
1.296565
1.027946
0.658334
0.370037
0.000991
-0.209955
-0.297223
-0.309908
-0.288434
-0.147764
-0.186810
-0.086040
-0.064518
-0.073893
0.024583
-0.024438
-0.084669
-0.010045
-0.021140
-0.045002
-0.048960
-0.045776
0.040566
-0.023386
0.037601
0.003854
-0.051338
0.072783
0.065073
0.072753
0.058865
0.170657
0.117879
0.020600
0.094937
0.152509
0.124011
0.151126
0.307619
0.246048
0.234270
0.282154
0.303771
0.324249
0.316351
0.377988
0.369304
0.359854
0.421989
0.308723
0.408997
0.399022
0.405405
0.330522
0.376089
0.497912
0.402009
0.417133
0.420473
0.392325
0.365694
0.422407
0.340190
0.344621
0.363666
0.325075
0.279985
0.313058
0.282502
0.230634
0.238779
0.200437
0.159151
0.177241
0.099153
0.034469
0.161441
0.083668
0.145007
0.083667
0.017356
-0.045550
0.017972
0.056089
-0.012387
-0.011859
-0.004654
0.016728
-0.039337
-0.093768
-0.056059
-0.014966
-0.136965
-0.003122
-0.094856
-0.016419
-0.037161
-0.079184
-0.074260
-0.111036
-0.142388
0.004692
0.007365
-0.055776
-0.075143
-0.159028
-0.086855
-0.030855
-0.023484
-0.025169
-0.109833
-0.088334
-0.000531
-0.085920
-0.044338
-0.081516
-0.053783
0.006627
-0.054591
-0.074098
-0.070325
-0.073083
-0.054696
-0.097329
-0.102272
-0.114075
-0.019148
-0.092168
-0.062571
-0.097531
-0.075263
-0.116192
-0.053902
-0.076066
-0.054100
-0.022919
-0.100395
-0.077801
-0.056929
-0.118962
-0.098620
-0.067043
-0.142084
-0.065939
-0.125276
-0.074681
-0.011287
0.025813
0.013277
-0.128323
-0.082400
-0.037963
-0.058386
-0.112617
-0.052636
0.029486
-0.039218
-0.078677
-0.088667
-0.051409
0.061815
-0.087516
-0.077378
-0.048299
-0.023608
-0.010259
-0.020034
0.078465
0.087293
0.020551
0.009412
0.013894
0.004530
0.009284
0.076266
0.049437
0.145485
0.097051
0.197730
0.073741
0.112482
0.133136
0.077210
0.110935
0.065086
0.081209
0.069959
0.079416
0.108322
-0.027246
-0.014087
-0.009847
0.017445
0.041906
-0.011927
-0.043177
-0.056844
-0.042163
-0.042059
-0.047625
0.013088
-0.048997
-0.048279
0.011204
-0.087137
-0.035166
-0.034861
-0.105512
-0.098141
-0.085022
-0.113396
-0.032565
-0.051283
-0.021043
-0.054336
-0.062296
-0.081417
-0.069933
0.153946
0.423955
0.711291
1.049345
1.275549
1.342646
1.335278
0.986292
0.580996
0.303042
-0.030693
-0.196610
-0.252704
-0.282020
-0.259006
-0.139343
-0.135956
-0.075560
-0.057133
-0.033779
-0.091059
-0.072651
-0.096919
-0.071365
-0.078226
0.009144
-0.035091
-0.086011
-0.057816
0.013838
0.040289
0.088539
0.046713
0.016362
0.041362
0.076751
0.134715
0.188467
0.118167
0.160412
0.158749
0.255872
0.188143
0.255297
0.258044
0.280736
0.242631
0.269094
0.301898
0.331659
0.394804
0.322525
0.372465
0.419835
0.369571
0.423631
0.471226
0.462143
0.414056
0.452543
0.328326
0.520111
0.456720
0.481371
0.529949
0.403043
0.421639
0.471887
0.545200
0.346949
0.466518
0.376018
0.347769
0.380292
0.356625
0.194677
0.223382
0.240887
0.207257
0.325296
0.159636
0.258509
0.158331
0.052276
0.119165
0.096066
0.121062
0.175608
0.073079
0.018971
0.038543
0.041036
0.059119
0.029754
0.037875
0.047224
-0.006151
0.047802
-0.001102
-0.040427
0.035415
0.052991
0.010650
-0.020081
-0.034020
0.026109
-0.015604
-0.038534
0.043355
-0.026044
-0.051366
0.007337
0.038562
0.050289
0.013939
-0.078858
-0.016179
-0.037179
-0.017319
-0.085791
-0.036701
0.004917
-0.100672
-0.017816
-0.015839
-0.020900
0.009960
0.031722
0.031187
0.111660
-0.018310
0.008981
0.032681
0.067590
0.027032
0.009409
0.009197
-0.003575
0.005215
0.000132
0.068475
0.011393
0.018694
0.007463
0.059675
0.022933
-0.013870
-0.005471
0.044864
0.039053
0.006927
-0.019803
0.092717
-0.096719
-0.040302
-0.000254
-0.063599
0.068497
-0.017262
0.059858
-0.000776
0.110275
0.024532
0.074935
0.051774
0.183223
0.063500
0.058586
0.063141
0.090104
0.150576
0.119626
0.129807
0.158679
0.096512
0.114469
0.139369
0.149937
0.133593
0.157146
0.188639
0.132363
0.228718
0.161850
0.276200
0.182917
0.182602
0.193755
0.213250
0.260714
0.177678
0.159006
0.143778
0.141078
0.212948
0.051735
0.135237
0.070387
0.124494
0.141178
0.080962
0.082361
-0.021659
0.054304
0.113894
0.101544
0.095005
-0.003785
0.078866
0.046677
0.011333
0.101089
0.032655
0.106981
0.006251
0.081911
-0.043725
0.078939
0.083777
0.038862
0.013906
-0.045346
-0.027802
0.062449
0.255873
0.426951
0.817978
1.028329
1.356863
1.500000
1.349133
1.130040
0.782906
0.286139
0.117176
-0.121361
-0.303320
-0.202999
-0.129892
-0.092873
-0.071344
0.020425
0.073824
0.044020
0.007846
0.119372
-0.027433
0.034118
0.037926
0.051191
0.063375
0.131185
0.056427
0.133269
0.132842
0.148892
0.229599
0.203600
0.130241
0.191466
0.212581
0.099801
0.247172
0.249805
0.258619
0.286056
0.421323
0.258287
0.270306
0.337578
0.340244
0.366239
0.398416
0.455666
0.455079
0.437889
0.471105
0.488076
0.550842
0.503141
0.516163
0.457665
0.543118
0.603309
0.549054
0.595711
0.600376
0.582980
0.514958
0.530497
0.535300
0.527613
0.477788
0.482348
0.471426
0.430982
0.352570
0.396130
0.366360
0.371082
0.295251
0.326459
0.322164
0.282518
0.297452
0.231239
0.182757
0.200178
0.207583
0.126619
0.183180
0.076791
0.114625
0.181714
0.052513
0.165942
0.127287
0.033478
0.068648
0.108564
0.032097
0.060128
0.151861
-0.005993
0.040209
0.048365
-0.009733
0.019098
0.056923
0.050503
-0.000632
0.007552
0.081454
0.096714
-0.019531
0.077239
0.018005
-0.037088
0.000122
0.048389
0.049611
0.139697
-0.038330
-0.026553
-0.015077
-0.020524
-0.037093
-0.005282
0.020688
-0.003661
0.001378
0.046489
0.079132
0.042930
0.039304
0.068721
0.037507
0.018469
0.081606
-0.015295
-0.038644
0.040413
0.015841
0.049604
0.044987
-0.020206
-0.007850
-0.031510
0.165404
0.010136
0.065967
0.115632
0.076065
0.034646
0.017487
0.033943
0.031306
0.052863
-0.070448
-0.030529
0.034753
0.047778
-0.010276
0.007131
0.070147
0.034986
0.036379
0.019998
0.073270
0.067223
0.063739
0.071881
0.122994
0.087589
0.111636
0.035955
0.056149
0.178745
0.154589
0.076272
0.178110
0.081691
0.178710
0.081729
0.141760
0.181190
0.211462
0.123514
0.239141
0.099346
0.154281
0.198886
0.153440
0.134804
0.110700
0.128598
0.198242
0.107086
0.090406
0.128353
0.109943
0.015449
0.115110
0.073176
0.053245
-0.019109
0.031558
0.125784
0.138669
-0.015640
0.022306
-0.000814
0.027789
-0.023204
-0.002132
-0.098831
0.014125
-0.009852
0.037309
-0.031752
0.017040
-0.034312
-0.025825
-0.029319
-0.056470
-0.032749
-0.019378
0.049868
0.128498
0.497894
0.796257
1.147966
1.331357
1.294235
1.238303
0.944502
0.578853
0.270028
-0.099497
-0.275950
-0.236661
-0.311984
-0.349776
-0.184310
-0.035489
-0.054518
-0.053196
-0.038795
-0.114868
-0.045207
-0.045732
0.060038
0.004402
0.042698
-0.021016
0.004809
0.032995
0.049309
0.094307
0.039285
0.056841
0.075037
0.088564
0.118210
0.070751
0.116143
0.137994
0.098466
0.231328
0.237503
0.215589
0.258852
0.238947
0.292643
0.305979
0.266872
0.351689
0.391102
0.342434
0.361595
0.435830
0.372057
0.407087
0.422423
0.425409
0.460132
0.431796
0.453072
0.403163
0.453630
0.592504
0.421911
0.427756
0.533985
0.408895
0.352920
0.379733
0.373063
0.256853
0.382374
0.349631
0.298747
0.279944
0.226708
0.243438
0.235420
0.084400
0.227528
0.154186
0.162778
0.159640
-0.070770
0.136649
0.054976
0.060141
0.034379
0.048613
0.072255
-0.001304
0.019300
0.033542
0.054068
-0.137498
-0.054396
-0.103063
-0.110300
0.050670
-0.072116
-0.017602
-0.175821
-0.041810
-0.088054
-0.104607
-0.055747
0.028011
-0.057741
-0.091442
-0.093573
-0.018064
-0.098839
-0.018549
-0.100253
-0.146493
-0.089051
-0.124097
-0.068495
-0.082357
-0.158843
-0.063720
0.010109
-0.227729
-0.032446
-0.089809
-0.094007
-0.058584
-0.026127
0.023927
-0.083196
-0.097281
-0.005915
-0.197778
-0.042211
-0.063980
-0.026022
-0.055472
-0.117733
-0.122804
-0.055066
-0.042644
-0.063424
-0.113945
-0.086247
-0.161977
-0.065788
-0.236114
-0.128880
-0.031654
-0.076214
-0.075000
-0.128131
-0.058843
-0.068150
-0.066640
-0.106664
-0.036544
-0.099213
-0.076323
-0.066260
-0.086392
-0.136753
-0.022161
-0.051570
0.004624
-0.065097
-0.050626
-0.085712
-0.051390
-0.025955
0.008669
-0.023505
-0.004392
0.003446
0.044378
0.090904
0.043982
-0.030553
0.193780
-0.012537
0.028332
0.097579
0.069044
0.075573
0.005169
0.100419
0.057112
-0.012256
0.155037
0.075808
0.037842
-0.066733
0.050163
0.040663
-0.002129
-0.052476
-0.007953
0.032284
0.021183
-0.088170
-0.030592
-0.047739
-0.096494
-0.113135
-0.064876
-0.147296
-0.077153
-0.098386
-0.057647
-0.072306
-0.081005
-0.113019
-0.063167
-0.088977
-0.067373
-0.128645
-0.123144
-0.026671
-0.141688
-0.122248
-0.070281
-0.101831
-0.142123
0.022032
0.122535
0.393686
0.732213
1.035532
1.281416
1.315583
1.055418
0.857400
0.467183
0.142548
-0.111259
-0.307675
-0.477203
-0.331968
-0.171936
-0.227230
-0.176566
-0.118712
-0.153712
-0.117280
-0.117931
-0.056701
-0.111007
-0.114494
-0.099619
-0.033404
-0.143064
-0.139620
0.032983
-0.022430
0.000908
-0.003290
-0.005464
-0.004627
0.014495
0.095239
-0.006092
0.134000
0.124260
0.104853
0.132775
0.152892
0.135634
0.258180
0.166274
0.229262
0.171893
0.241908
0.191010
0.255212
0.303511
0.340434
0.410652
0.343634
0.439599
0.306697
0.353376
0.370207
0.462898
0.449068
0.473999
0.433657
0.433692
0.460830
0.413793
0.312004
0.406992
0.385805
0.362149
0.378633
0.374176
0.271619
0.307793
0.297271
0.230555
0.284735
0.178951
0.157355
0.188395
0.119964
0.154861
0.112856
0.142434
0.169858
0.031697
0.127294
0.100696
0.024503
-0.077548
-0.077509
0.044830
0.007685
-0.036663
0.015782
0.080807
-0.029692
-0.036166
0.017328
-0.154425
-0.051640
-0.047821
-0.020658
-0.020575
-0.056097
-0.081497
0.018209
-0.031574
-0.103681
-0.044655
-0.017251
0.019611
-0.037735
0.008063
-0.020841
-0.061591
-0.106666
-0.073475
-0.097051
-0.059139
-0.031053
-0.042568
-0.109613
-0.012385
-0.030832
-0.062804
-0.032188
-0.076549
-0.090689
-0.099480
0.040166
-0.024182
-0.017422
-0.079967
0.003631
-0.098670
-0.044863
-0.011526
0.005486
-0.079657
-0.065525
-0.090436
-0.146382
-0.042710
0.039382
-0.040996
-0.006436
-0.112196
-0.118526
-0.075159
0.047728
-0.059262
-0.009156
-0.108535
-0.050504
-0.036743
-0.063755
-0.026863
-0.045718
-0.040315
0.054531
0.028850
-0.040015
-0.000301
-0.020840
0.017345
0.001891
0.024822
-0.006253
0.062617
0.089800
-0.001317
0.100918
0.080146
0.073663
0.043413
0.097551
0.142390
0.148821
0.123419
0.166084
0.027773
0.191538
0.160474
0.150993
0.110123
0.196629
0.133323
0.136412
0.140411
0.217970
0.166032
0.116163
0.097586
0.121809
0.120232
0.059280
0.036804
0.064893
0.055696
0.023476
0.010867
0.090580
-0.002036
0.083091
0.012324
0.025991
0.005628
0.022392
0.110798
0.051534
0.030756
0.037249
0.013820
0.026273
-0.018477
0.028362
-0.033819
-0.028973
-0.013018
-0.036708
-0.051089
-0.085227
-0.035972
0.026956
0.240830
0.613001
1.012126
1.243882
1.357233
1.387692
1.176641
0.899926
0.579655
0.264831
-0.011183
-0.240542
-0.160003
-0.159530
-0.046252
-0.128684
-0.071621
0.056516
0.022925
0.009005
0.057054
0.001417
0.026229
0.045242
0.055692
0.002034
-0.010789
0.104351
0.084801
0.034750
0.069027
0.101407
0.128838
0.173256
0.198993
0.211711
0.219577
0.230514
0.158184
0.292243
0.350700
0.201647
0.311843
0.280215
0.300072
0.356235
0.407441
0.430478
0.365742
0.447278
0.428706
0.489137
0.464307
0.479264
0.510895
0.532654
0.523804
0.586770
0.589807
0.450209
0.551270
0.571615
0.549262
0.509343
0.479438
0.593693
0.448937
0.527325
0.501271
0.479742
0.469132
0.499535
0.392589
0.397477
0.393958
0.368845
0.357691
0.262066
0.287465
0.287764
0.242136
0.220694
0.278135
0.183725
0.269775
0.151500
0.197830
0.219158
0.139874
0.143132
0.149935
0.140965
0.126552
0.086385
0.118906
0.130457
0.076057
0.053103
0.075997
0.077439
0.101087
0.132728
0.120238
0.022465
0.010290
0.115517
0.038470
0.061068
0.111636
0.099695
0.128196
0.069482
-0.002480
0.050110
0.035268
0.023064
0.156129
0.052110
0.098451
0.106018
-0.003656
0.091146
0.067714
0.083719
0.000835
0.076661
0.131756
-0.033475
0.059826
0.065837
-0.089442
0.130295
0.023464
0.055003
0.075497
0.034242
0.061959
0.089915
0.044368
-0.004776
0.024424
0.066164
0.072876
0.095713
0.014306
0.038632
0.165797
0.067296
0.043972
0.048606
0.047620
-0.022634
0.023225
0.054537
0.102580
0.030637
0.057954
0.044130
0.071683
0.096608
0.084456
0.071939
0.078114
0.116105
0.070680
0.136717
0.113402
0.119766
0.119897
0.157156
0.147356
0.158635
0.143499
0.167512
0.232070
0.249425
