0.005886
-0.005800
0.007804
0.031743
0.003881
-0.020297
0.002591
0.044277
-0.065541
0.104337
0.083120
0.001866
0.000756
0.057689
0.030382
0.013982
0.047008
0.071480
0.019611
0.026851
-0.005128
0.040711
-0.016424
0.034600
-0.018348
0.043048
0.004744
0.075295
0.101716
0.064969
0.082571
0.070013
0.050525
0.045545
0.103681
0.032369
0.050679
0.036989
0.113639
0.140112
0.152682
0.085388
0.180082
0.122131
0.160064
0.132404
0.228437
0.165020
0.170320
0.282808
0.192315
0.196992
0.169702
0.203620
0.168134
0.252981
0.161789
0.214036
0.186030
0.227511
0.206104
0.123491
0.154465
0.145873
0.105832
0.126775
0.087608
0.033640
0.046439
0.026578
0.031695
0.077724
0.121345
0.075559
0.001883
-0.004009
0.006864
0.053021
0.032160
0.051305
0.125495
-0.011025
-0.012876
0.063020
0.059907
0.097890
0.021261
0.055042
0.050033
0.021239
0.097471
-0.063802
-0.002761
-0.082047
0.062911
0.188948
0.465610
0.761269
1.125759
1.310725
1.461225
1.419499
1.135949
0.923556
0.499216
0.219456
-0.045813
-0.148886
-0.248190
-0.159380
-0.129673
-0.054217
0.029190
0.054753
0.039707
0.078012
0.054984
0.088755
0.099304
0.076839
0.083444
0.071096
0.065959
0.098873
0.040330
0.067463
0.169045
0.120623
0.157568
0.177938
0.095484
0.108719
0.173941
0.171819
0.249126
0.125826
0.215724
0.205376
0.151371
0.190295
0.232559
0.258391
0.237109
0.317251
0.251786
0.308679
0.280162
0.339793
0.392651
0.473036
0.424927
0.454274
0.478496
0.525641
0.480355
0.479439
0.462071
0.558750
0.474938
0.622280
0.566080
0.632373
0.651261
0.581376
0.572781
0.584964
0.528373
0.651906
0.585581
0.530779
0.444835
0.516265
0.501200
0.464943
0.418915
0.432223
0.338354
0.334514
0.345757
0.341424
0.414578
0.363135
0.313633
0.187112
0.329524
0.213919
0.207729
0.240025
0.183886
0.158111
0.152622
0.104877
0.168061
0.164210
0.125298
0.180396
0.070279
0.165676
0.122915
0.109111
0.081396
0.086588
0.113103
0.147791
0.013469
0.091047
0.130287
0.130757
0.104504
0.127765
0.054997
0.025164
0.129010
0.114203
0.012441
0.099448
0.061882
0.115925
0.077937
0.029404
-0.036742
0.106086
0.010935
0.022598
0.163861
0.051217
0.091446
0.060796
0.072822
0.194631
0.096116
0.176741
0.160744
0.102139
0.045969
0.067220
0.123555
0.060411
0.107133
0.135765
0.019712
0.068881
0.077834
0.099252
0.108689
0.087496
0.197051
0.055907
0.063416
0.032992
0.100188
0.047606
0.017359
0.072701
0.077317
0.003785
0.109502
0.097894
0.055900
0.047046
0.154422
0.059575
0.091126
0.144246
0.084040
0.013644
0.051883
0.101599
0.054239
0.034392
0.036246
0.176465
0.076327
0.061863
0.133518
0.014917
0.113662
0.063192
0.110544
0.198627
0.085374
0.025286
0.121439
0.019076
0.196197
0.114967
0.139892
0.212034
0.192588
0.104346
0.159716
0.152230
0.172321
0.247508
0.231847
0.242659
0.234579
0.274929
0.259098
0.232949
0.140516
0.219258
0.210201
0.215406
0.243958
0.299701
0.283013
0.230908
0.102756
0.130049
0.256432
0.167894
0.246318
0.109668
0.158444
0.105355
0.092900
0.089321
0.061766
0.077788
0.141434
0.048491
0.127244
0.078543
0.012713
0.092683
0.121331
0.025798
0.062419
0.086467
0.043874
0.124213
0.064117
0.045099
-0.014008
0.032196
0.035653
0.083917
0.190490
0.028992
-0.000652
-0.044943
-0.019257
0.053170
0.078886
0.179027
0.476145
0.801823
1.132642
1.314168
1.430251
1.396113
1.087053
0.782571
0.470109
0.140867
-0.101773
-0.193381
-0.265363
-0.242940
-0.183658
-0.119437
0.045832
-0.059857
0.027589
-0.057076
0.065650
-0.017419
0.065683
-0.014681
0.064944
0.023093
0.082611
0.046134
-0.052449
0.091297
0.085542
0.091101
-0.054117
0.044478
0.082770
0.017142
0.090989
0.133544
0.074219
0.142931
0.058836
0.150215
0.232773
0.108546
0.175404
0.217995
0.234203
0.112182
0.259362
0.228102
0.389309
0.277825
0.272328
0.353331
0.450982
0.413159
0.347148
0.438751
0.401352
0.451441
0.438154
0.475978
0.447855
0.496681
0.488868
0.518068
0.522052
0.471625
0.519278
0.512574
0.467418
0.426733
0.488464
0.431958
0.499234
0.387705
0.374565
0.450752
0.386006
0.320740
0.328010
0.286461
0.318084
0.241813
0.265352
0.267244
0.283559
0.242254
0.143844
0.174464
0.143154
0.077037
0.160889
0.092201
-0.026925
0.119365
0.151926
0.075356
0.049404
-0.011835
0.040987
0.004239
0.039890
-0.001221
0.000903
-0.010898
-0.024471
0.051453
0.010333
-0.006160
-0.009109
0.010681
0.044048
-0.009729
-0.025834
0.044436
-0.014464
0.027298
-0.063699
-0.044245
-0.024240
0.013025
-0.067544
-0.018111
-0.004451
-0.070134
-0.096831
-0.077719
-0.080656
-0.061291
-0.051287
0.013220
-0.043135
-0.062366
-0.046914
-0.018530
-0.084070
-0.063701
-0.008248
-0.092487
-0.035177
0.024041
0.051734
-0.055598
0.009827
-0.037075
-0.127911
-0.056124
-0.040379
-0.002708
-0.001271
-0.027183
-0.049735
-0.050915
-0.079644
-0.049389
-0.071868
-0.051605
-0.014172
0.038264
-0.035046
-0.038336
-0.047985
0.011371
-0.120482
0.030511
-0.045778
-0.071636
-0.003576
-0.060675
-0.063174
-0.059721
-0.044913
-0.062306
-0.036171
-0.123184
-0.009042
-0.098232
-0.051678
-0.058552
-0.028971
-0.001522
-0.023128
-0.008890
-0.015016
-0.005253
0.025721
0.049647
-0.022609
0.046484
-0.018877
-0.026244
-0.088073
0.045407
0.044034
0.071128
0.113962
0.162794
0.140688
0.113867
0.241350
0.054938
0.097741
0.112856
0.100478
0.137713
0.173087
0.054030
0.092155
0.082030
0.199661
0.095838
0.063539
0.054467
0.113921
0.110790
-0.098537
0.045639
0.029532
0.011326
-0.068295
-0.060438
0.001774
0.011231
-0.030833
-0.083572
-0.038006
0.014906
0.010709
-0.044293
-0.014264
-0.102445
-0.056818
-0.068250
-0.073868
-0.058168
0.010406
-0.014510
-0.011889
-0.134719
-0.037293
-0.093217
-0.063931
-0.034697
-0.083671
-0.074356
-0.140597
-0.060390
-0.120968
0.151467
0.323330
0.684314
0.949353
1.248871
1.446297
1.242857
1.038594
0.725234
0.403316
0.026253
-0.152368
-0.278431
-0.332012
-0.314180
-0.239784
-0.149232
-0.109241
-0.164399
0.007631
-0.023416
-0.015484
-0.066526
-0.040228
-0.014224
0.015174
-0.017509
-0.041638
0.061813
0.004978
-0.032895
0.004782
0.032288
-0.019325
0.067231
0.011837
-0.070561
0.045970
0.086958
-0.005317
-0.019729
0.021956
0.042115
0.103040
0.124540
0.141186
0.192103
0.140991
0.196017
0.208136
0.262266
0.262344
0.306114
0.248166
0.309089
0.246302
0.345466
0.251725
0.324637
0.517118
0.395388
0.402870
0.423812
0.398510
0.437143
0.550595
0.534744
0.540518
0.498542
0.563152
0.404541
0.528702
0.431402
0.457861
0.439232
0.435502
0.368311
0.377141
0.329497
0.419864
0.320482
0.329800
0.308985
0.235157
0.275441
0.125773
0.231820
0.211512
0.180541
0.173608
0.201644
0.191209
0.129107
0.120474
0.084179
0.119548
0.082742
0.034994
0.065616
-0.003902
0.019943
0.082165
-0.054250
-0.000178
0.046767
-0.041415
0.042134
0.065942
0.040607
0.015504
0.022418
-0.040038
-0.023754
0.008211
0.041524
0.017750
0.032565
-0.013448
-0.045309
0.001888
0.014569
0.046527
0.025237
0.009910
0.016582
0.008033
-0.008301
-0.007940
-0.013419
0.052803
0.024158
0.029682
-0.028508
0.099336
-0.016007
-0.010726
-0.025673
-0.011590
0.003497
0.026540
0.025328
0.009072
-0.026830
0.051602
0.027411
0.020669
-0.015373
-0.061878
0.003559
0.072043
-0.032827
0.029007
-0.026576
0.048475
0.012324
0.002469
0.089572
0.010870
-0.014043
0.049036
0.040503
-0.005067
0.069363
0.063749
-0.024756
0.002172
-0.041104
0.051750
0.075637
0.049745
-0.028567
0.013225
0.021945
0.043174
-0.025396
0.051758
0.049983
0.008189
0.118294
0.029478
0.045855
0.082637
0.062713
0.034574
0.045526
0.180118
0.056307
0.147501
0.119225
0.090910
0.149821
0.059080
0.098647
0.139337
0.087311
0.137524
0.081823
0.136673
0.056099
0.159222
0.178093
0.226838
0.209567
0.233710
0.211756
0.224989
0.298426
0.258903
0.254160
0.160823
0.171988
0.196115
0.216261
0.168490
0.175725
0.200009
0.087869
0.168955
0.178310
0.093985
0.110820
0.169199
0.098462
0.096432
0.142783
0.095402
0.089268
0.097853
0.085498
0.109410
0.064576
0.007779
0.067114
0.065128
0.014943
0.038250
0.017468
0.078450
0.082430
0.039756
0.068349
0.089061
0.089833
0.000071
0.114223
0.023935
0.006523
0.037670
-0.047088
0.008273
0.150903
0.499694
0.827154
1.192689
1.324874
1.436949
1.393862
1.120151
0.973925
0.568658
0.196208
-0.000557
-0.255142
-0.119145
-0.245508
-0.162604
-0.064503
0.046616
-0.030222
0.090711
0.040455
0.154682
0.053035
0.053665
0.017791
0.067101
0.128535
0.090837
0.055753
0.027188
0.081683
0.137943
0.127947
0.162606
0.099246
0.189437
0.191444
0.213272
0.285016
0.124616
0.206066
0.177398
0.198955
0.262559
0.224148
0.268900
0.231895
0.266667
0.275567
0.336035
0.303473
0.327808
0.348267
0.404068
0.420048
0.468872
0.558213
0.447199
0.484521
0.483037
0.543010
0.575452
0.616766
0.628432
0.619798
0.535240
0.548398
0.611208
0.601509
0.501964
0.570287
0.577141
0.512322
0.578841
0.560382
0.504842
0.562552
0.496753
0.544454
0.457169
0.486880
0.423775
0.402368
0.445876
0.386862
0.302617
0.333295
0.327359
0.322825
0.273512
0.210533
0.273736
0.269559
0.299219
0.187527
0.163464
0.224236
0.197841
0.052391
0.165884
0.108796
0.183293
0.089540
0.221041
0.150348
0.075960
0.191418
0.024532
0.061333
0.073223
0.229545
0.072496
0.051923
0.120005
0.076087
0.114198
0.098569
0.133255
0.130569
0.141051
0.090277
0.066121
0.043344
0.177226
0.098229
0.147342
0.062766
0.122171
0.100536
0.164782
0.120578
0.053793
0.073101
0.134853
0.110772
0.093293
0.039809
0.060092
0.081668
0.106397
0.099636
0.078822
0.043444
0.086525
0.091075
0.052734
0.045800
0.054346
0.109947
0.149719
0.152386
0.106209
0.213582
0.101133
0.069871
0.080399
-0.000333
0.099645
0.012464
0.069981
0.064447
-0.014582
0.063815
0.073570
0.024887
0.106132
0.125025
0.020334
0.064806
0.039040
0.106843
0.126909
0.077805
0.097237
0.126546
0.142552
0.097763
0.059764
0.149334
0.164525
0.166715
0.036204
0.046167
0.082490
-0.015283
0.084917
0.085306
0.072700
0.124697
0.149758
0.133642
0.090843
0.231672
0.188082
0.258359
0.153821
0.187459
0.162269
0.223281
0.134803
0.257914
0.176501
0.196237
0.267727
0.219451
0.283146
0.196892
0.262046
0.241382
0.205802
0.218818
0.210468
0.270122
0.213379
0.148152
0.248793
0.101230
0.121918
0.149414
0.179896
0.181218
0.100370
0.096789
0.087857
0.176609
0.025072
0.081532
0.063188
0.054632
0.075607
0.058621
0.066867
-0.003845
-0.013626
-0.019491
0.034690
0.031827
0.012278
-0.032374
0.067173
0.087552
0.051877
-0.012967
0.026332
0.035173
0.033059
0.036328
-0.000384
-0.038421
0.044644
0.200705
0.435429
0.767296
1.066134
1.360906
1.500000
1.328087
1.105954
0.803498
0.390844
0.235997
0.024280
-0.232236
-0.243118
-0.196063
-0.194737
-0.092843
-0.045278
-0.005478
0.017549
0.004431
-0.011095
-0.018303
0.073553
0.042024
-0.094321
0.056420
0.008750
-0.045432
0.103375
0.059354
0.050326
0.047612
0.103784
0.056279
-0.018381
0.119560
0.145043
0.136261
0.054527
0.137974
0.134405
0.169111
0.176677
0.189681
0.193640
0.122007
0.194747
0.275876
0.166294
0.235777
0.298242
0.407231
0.344611
0.234500
0.360056
0.354055
0.417504
0.389509
0.416777
0.472356
0.496237
0.467436
0.503390
0.472299
0.514758
0.494919
0.518277
0.490911
0.490670
0.567827
0.474278
0.511634
0.463874
0.498186
0.385256
0.365979
0.432680
0.413442
0.363125
0.379745
0.379298
0.247361
0.223476
0.248423
0.157004
0.186995
0.186241
0.186407
0.172859
0.177062
0.178998
0.139025
0.073165
0.022010
0.071017
0.068056
0.083445
0.015352
-0.048999
-0.011304
0.060098
0.009063
-0.020602
0.119499
0.029974
-0.077436
-0.031674
-0.078070
-0.106216
0.017721
-0.099080
-0.024260
-0.010754
-0.028619
0.018866
0.005193
-0.019374
-0.109267
0.009773
-0.010433
-0.029712
0.006351
-0.028687
-0.014623
-0.092443
-0.033484
-0.055763
-0.052425
-0.109088
-0.027975
-0.000918
-0.103386
-0.017357
-0.088642
0.022543
-0.010128
-0.049479
-0.012296
-0.026484
-0.100140
-0.071550
-0.058308
0.005830
-0.041911
-0.119099
-0.052463
-0.015958
-0.023522
-0.070126
-0.004954
-0.083764
-0.022729
-0.021437
-0.037447
-0.108410
0.056759
-0.081233
-0.053095
-0.056441
-0.113679
-0.016767
-0.054126
-0.196258
-0.064355
-0.022271
-0.128292
-0.027401
-0.111414
-0.060251
-0.074068
-0.054027
-0.068097
-0.096116
-0.030316
-0.021965
-0.033974
-0.079573
-0.127370
-0.034456
-0.046323
-0.016947
-0.071615
-0.128259
-0.030107
-0.089404
0.038859
0.028350
-0.042295
-0.040981
0.046623
0.030799
0.001534
-0.009292
0.075441
0.068765
0.039365
0.010057
0.052537
0.102110
0.004850
0.086752
0.049303
0.076877
0.013416
0.100819
0.047951
0.067364
0.059726
0.189101
0.139350
0.045603
-0.025720
0.015325
0.025731
-0.000515
-0.074218
-0.006602
-0.055745
-0.077351
-0.015872
-0.072353
0.044097
0.012750
-0.033329
-0.115998
-0.049379
-0.058771
-0.056920
-0.071511
-0.059431
-0.090167
-0.091036
-0.138782
-0.088848
-0.141003
-0.118643
-0.058144
-0.039940
-0.057153
-0.049239
-0.052257
-0.073052
-0.053669
-0.054417
-0.131520
-0.143022
-0.161602
-0.084746
-0.105367
0.018804
0.207357
0.664113
1.024318
1.179849
1.220020
1.284066
1.055217
0.677677
0.311028
0.152297
-0.204989
-0.231008
-0.428767
-0.363077
-0.235743
-0.210985
-0.277083
-0.125506
-0.044617
-0.055939
-0.070062
-0.100367
-0.097457
-0.107710
-0.076370
-0.121083
-0.075868
-0.034082
-0.028363
-0.092253
-0.104234
-0.065959
-0.065018
0.015014
0.028037
-0.006268
0.001545
0.085050
0.093037
0.049458
0.055867
0.015796
0.039762
0.064583
0.085880
0.145316
0.047512
0.134633
0.121884
0.207520
0.237411
0.261499
0.250322
0.260851
0.300931
0.285216
0.303244
0.330117
0.280091
0.349280
0.367034
0.458830
0.429974
0.402711
0.455471
0.402863
0.416154
0.569028
0.460425
0.432939
0.403908
0.428928
0.407303
0.454185
0.357357
0.410851
0.305159
0.326263
0.351153
0.303149
0.298862
0.202593
0.214159
0.185553
0.190881
0.254208
0.133659
0.068387
0.145008
0.054543
0.021027
0.068227
0.037455
0.025931
-0.008977
0.109123
0.072657
-0.046394
0.080835
-0.055190
-0.034140
0.007920
-0.027458
-0.082170
-0.076444
-0.046120
-0.036773
-0.044771
0.000186
-0.139612
-0.075787
0.011463
-0.064254
-0.072541
-0.076578
0.004321
-0.098051
-0.125509
-0.033538
-0.077772
-0.006345
-0.011790
-0.067907
-0.001575
-0.117385
-0.046096
-0.040419
-0.071824
0.023332
-0.013652
-0.045786
-0.038161
-0.026594
-0.009879
-0.062617
-0.002655
0.005536
-0.018008
0.010440
-0.085590
0.050784
-0.035273
-0.071569
-0.114428
0.035106
-0.049807
-0.118826
-0.055253
-0.070082
-0.026048
-0.078324
-0.014384
-0.114148
-0.035612
-0.023326
0.046725
-0.002687
-0.068945
-0.059224
-0.036240
-0.040181
-0.059347
-0.085234
0.032002
-0.042086
0.042018
-0.015099
-0.063858
0.116401
-0.008362
-0.021474
-0.056548
-0.021927
-0.062958
-0.038589
-0.091875
-0.025787
0.020673
0.020537
-0.028869
0.032686
-0.021248
-0.012629
0.026155
-0.010439
0.029704
0.072541
0.044584
0.065569
0.058743
0.062688
0.049033
0.042257
0.067132
0.158894
0.131944
0.163313
0.126069
0.183444
0.113137
0.122576
0.139256
0.067789
0.174701
0.160868
0.180943
0.141573
0.162602
0.163965
0.120785
0.204308
0.179528
0.142100
0.037775
0.117426
0.058759
0.067434
-0.043990
0.043873
0.002659
0.011719
0.047860
0.073161
0.085396
0.072807
0.002987
0.034433
0.091620
-0.014177
-0.008021
0.010721
-0.007687
-0.041080
0.025862
-0.035471
0.035138
-0.016440
0.094176
-0.003827
0.038432
-0.016239
0.007594
-0.004190
-0.010523
0.025447
-0.043498
0.003588
-0.026196
-0.041046
0.131308
0.465846
0.744904
1.092361
1.344294
1.458930
1.355866
1.076219
0.824280
0.449002
0.242175
-0.114114
-0.282344
-0.257006
-0.304038
-0.184064
-0.153865
-0.046875
-0.035157
0.033508
0.002319
0.032651
0.064799
0.007990
0.005880
0.009367
0.038025
0.034605
0.044797
-0.068346
0.103331
0.033659
0.048156
0.107366
0.027057
0.077735
0.062445
0.181352
0.013741
0.123571
0.131141
0.134975
0.133139
0.187605
0.184860
0.231455
0.124832
0.311371
0.267396
0.292991
0.334510
0.322012
0.363924
0.278197
0.430980
0.425354
0.381825
0.425167
0.410814
0.437411
0.536406
0.457742
0.517847
0.532552
0.548039
0.538389
0.524183
0.508083
0.551744
0.513666
0.570271
0.553950
0.477333
0.486651
0.544441
0.424505
0.517696
0.383851
0.458367
0.401197
0.293678
0.435791
0.363470
0.434621
0.338804
0.292939
0.279071
0.291647
0.191041
0.177360
0.156089
0.157621
0.200922
0.140051
0.128132
0.184587
0.189580
0.182785
0.064414
0.089908
0.051235
0.110638
0.168652
0.135240
0.106839
0.052800
0.179462
0.058179
0.088940
0.075056
0.101234
0.053505
0.042099
0.018078
-0.013977
-0.015865
0.002192
0.073054
0.042571
0.023221
-0.005411
0.031596
0.050469
0.066735
0.056861
0.030796
0.051540
-0.030773
-0.030291
0.079099
-0.030513
0.030134
0.037897
0.065928
0.028260
0.019000
0.047953
0.077018
0.067417
0.099237
0.065179
0.089093
-0.002287
0.015413
0.000221
0.078427
0.120966
0.079302
0.036124
0.019791
0.039669
0.058656
0.099861
-0.021461
0.021020
0.081332
0.082707
0.052105
0.071859
-0.028688
0.003843
0.051505
0.047108
-0.026097
0.090048
0.034508
0.015946
0.079903
0.050376
0.046621
0.073246
0.060604
0.009980
0.135093
0.016541
0.000962
0.027017
0.065570
0.053701
0.075780
0.070935
0.126865
0.042970
0.002133
0.091256
0.086100
0.048319
0.064189
0.056474
0.147445
0.051121
0.080611
0.132502
0.003878
0.167205
0.214007
0.103916
0.161880
0.088328
0.132622
0.191972
0.184424
0.239831
0.228982
0.219072
0.191871
0.260482
0.255615
0.227019
0.149278
0.174456
0.206913
0.133392
0.131547
0.043369
0.075849
0.127772
0.040833
0.069890
0.102644
0.023691
0.006330
0.075472
0.018737
0.063128
0.074784
-0.002842
0.002016
0.056920
0.050137
-0.002917
0.099176
-0.041083
0.016990
0.002584
-0.002494
-0.003155
0.004948
0.004375
0.082896
0.035023
0.070494
0.023005
0.027171
0.072028
0.035939
-0.095661
-0.035519
-0.087353
-0.083820
0.112460
0.373809
0.665845
1.090752
1.409476
1.424017
1.329115
1.109628
0.835678
0.467457
0.127847
-0.143492
-0.293546
-0.282065
-0.282774
-0.232328
-0.132505
-0.117603
-0.010616
-0.090370
-0.057787
-0.018850
0.062574
-0.046889
0.025341
-0.000521
-0.044505
-0.011187
-0.050746
0.049350
-0.001837
-0.004915
-0.014393
-0.002158
0.013509
0.026094
0.046347
0.052653
0.032922
0.067370
0.090649
0.114892
0.040356
0.124991
0.018209
0.233588
0.149462
0.217441
0.138524
0.124602
0.275896
0.275237
0.323832
0.271493
0.197807
0.273038
0.290046
0.384484
0.292980
0.447051
0.389543
0.423244
0.418758
0.421091
0.464103
0.470150
0.416245
0.444943
0.473506
0.422038
0.448627
0.407830
0.497926
0.405669
0.482949
0.356211
0.467403
0.424427
0.322305
0.363720
0.317910
0.250363
0.330464
0.258734
0.208856
0.210734
0.252148
0.228159
0.172701
0.067640
0.040365
0.158952
0.043403
0.066622
0.066169
0.014374
-0.066441
0.088493
0.098751
0.043700
-0.043767
-0.015346
-0.151222
-0.011976
-0.049719
0.003357
-0.020838
-0.082115
-0.023415
-0.067841
-0.036733
0.028362
-0.110387
-0.140028
-0.099174
-0.068550
-0.039513
-0.077649
-0.009403
-0.079787
-0.058651
-0.021560
-0.027412
-0.151691
-0.003570
-0.016120
-0.075032
-0.128650
-0.070978
-0.095339
-0.017667
-0.098422
-0.110067
-0.081782
-0.130988
-0.081393
-0.130653
-0.138564
-0.036560
-0.091447
-0.071665
-0.105257
-0.000575
-0.064041
-0.085502
-0.085277
-0.075620
-0.134069
-0.060291
-0.118190
-0.100182
-0.017246
0.004069
-0.051595
-0.105298
-0.112121
-0.135866
-0.155178
-0.058741
-0.111715
-0.056897
-0.128025
-0.040822
-0.092608
-0.110507
-0.135971
0.032072
-0.110356
-0.118223
-0.148776
-0.143078
-0.062351
-0.102211
-0.054612
-0.197694
-0.077211
-0.089006
-0.083552
-0.106756
-0.058111
-0.028671
-0.047486
-0.053700
-0.056076
-0.072577
-0.075169
-0.071655
-0.019818
-0.093563
0.002261
-0.030548
-0.009697
-0.075764
0.011633
-0.073122
-0.005711
0.067882
-0.020373
0.051947
0.084377
-0.056263
0.127706
0.103432
0.073737
0.146346
0.077087
0.085500
0.132453
0.072929
0.045731
0.021954
0.052078
-0.012087
0.001778
-0.057798
0.012292
-0.042004
0.049700
0.044793
-0.137790
-0.001234
0.043961
-0.061807
-0.073968
-0.066086
-0.066806
-0.112494
0.023030
-0.055191
-0.072984
-0.112931
-0.057506
-0.227781
-0.103740
-0.160627
-0.135117
-0.059040
-0.144293
-0.117615
-0.135470
-0.124150
-0.036843
-0.111799
-0.058516
-0.120991
-0.111704
-0.187083
-0.246032
-0.117553
-0.074852
0.050680
0.337607
0.583129
0.899018
1.199658
1.292072
1.264031
1.060846
0.740574
0.388724
-0.008914
-0.178260
-0.342916
-0.479437
-0.330927
-0.361925
-0.194303
-0.087010
-0.144212
-0.037114
-0.078955
-0.097278
-0.081608
-0.089796
-0.122822
-0.032973
-0.069809
-0.036283
-0.039724
-0.044608
-0.114520
0.002421
-0.094173
-0.084208
-0.071128
-0.113518
-0.012148
-0.009683
0.028973
-0.017234
0.037914
0.015230
-0.004888
0.019775
0.117890
0.059474
0.116527
0.081081
0.095645
0.151511
0.171596
0.174178
0.198651
0.250966
0.299222
0.264336
0.295720
0.191685
0.265126
0.387014
0.355076
0.405968
0.369732
0.298314
0.366528
0.405798
0.334514
0.389941
0.444485
0.446180
0.432778
0.457601
0.398068
0.434948
0.327698
0.373937
0.367350
0.245597
0.290538
0.219332
0.252477
0.250260
0.225935
0.293304
0.217435
0.116323
0.143672
0.092880
0.106547
0.058555
0.095011
0.105640
0.076141
0.080465
0.121373
-0.031421
0.019271
0.165788
-0.049699
-0.043805
-0.024941
-0.003244
-0.104386
-0.058579
-0.076314
-0.003406
-0.054645
-0.158344
-0.018460
0.001449
-0.053578
-0.051187
-0.031074
-0.118202
0.035704
-0.035795
-0.086897
-0.085153
0.013037
-0.049689
-0.042425
0.048355
-0.073335
-0.085156
0.012916
-0.047030
-0.009408
-0.009535
-0.051122
-0.029783
-0.018754
-0.034603
-0.020263
-0.050571
-0.050175
-0.049103
-0.056913
0.001219
-0.090582
0.020623
-0.046804
-0.079389
0.002861
-0.043909
-0.055428
0.013365
-0.121840
-0.066068
-0.149545
-0.062006
0.011376
-0.038134
-0.004366
-0.082072
0.053755
-0.092877
-0.049985
0.000808
-0.089490
-0.012265
0.028563
-0.030373
0.012128
-0.041558
-0.066633
-0.061791
-0.046532
-0.047679
0.001933
-0.034396
-0.029006
-0.036496
-0.052072
0.059550
-0.055294
0.000136
-0.053822
-0.073823
0.044078
0.018478
-0.067805
0.038219
-0.002591
-0.047433
-0.041111
-0.030373
0.007899
0.016076
-0.008305
0.122850
0.090994
0.018666
0.059243
0.076650
0.066069
0.101607
0.067156
0.103325
0.150116
0.116462
0.139465
0.196610
0.166104
0.137462
0.183083
0.129169
0.182355
0.224634
0.121503
0.179980
0.176917
0.123273
0.155912
0.131556
0.111368
0.149142
0.144002
0.056039
0.126202
0.177087
0.107744
0.058487
0.003789
0.094493
0.089807
0.041301
0.087287
0.014490
0.027970
0.047774
0.135945
0.126359
-0.013091
-0.004461
0.077703
-0.052054
-0.011906
0.059537
-0.014997
0.004425
-0.091106
-0.002245
-0.035868
0.048764
-0.070517
0.052222
0.001008
-0.002015
-0.057854
-0.003732
0.134078
0.496159
0.716605
1.081738
1.244263
1.386399
1.409494
1.119851
0.827691
0.474723
0.100962
-0.096529
-0.253929
-0.279479
-0.215999
-0.183820
-0.071874
-0.022325
0.078699
0.095342
-0.049812
0.034875
0.076875
0.049348
0.062461
0.038198
0.144681
0.058551
0.081497
0.100632
0.064580
0.059818
0.112112
0.059383
0.053676
0.065325
0.076985
0.157207
0.077823
0.196285
0.087490
0.206755
0.128104
0.226740
0.188449
0.251685
0.224389
0.249258
0.283192
0.259054
0.235738
0.346002
0.378387
0.390774
0.347087
0.491827
0.399561
0.437895
0.474287
0.565836
0.455357
0.524195
0.448711
0.621511
0.607897
0.581934
0.513281
0.540477
0.577752
0.600007
0.618929
0.463945
0.548880
0.496627
0.501702
0.558220
0.458948
0.475883
0.488855
0.396794
0.388801
0.421817
0.416744
0.324421
0.398705
0.358974
0.302070
0.281423
0.305639
0.310610
0.241879
0.281426
0.230297
0.123848
0.207914
0.149774
0.149306
0.112778
0.093407
0.080132
0.077639
0.134540
0.065399
0.170932
0.058199
0.094391
0.024971
0.105692
0.144408
0.067691
0.130629
0.029446
0.029073
0.023323
0.014389
0.029212
0.076121
0.134707
0.046053
0.049760
0.023116
0.074088
0.033693
0.079924
0.047232
0.058200
0.059143
0.133990
0.083153
0.057536
0.116324
0.013380
0.098665
0.092368
0.032999
0.098583
0.041650
0.042837
0.002399
0.085263
-0.001095
-0.006538
0.073087
0.066255
0.069498
0.171715
0.104083
0.077070
0.074166
0.101320
0.046804
0.032428
-0.002884
0.009718
-0.006439
