-0.004652
-0.040158
-0.032979
0.046821
-0.045590
-0.016080
0.073639
-0.034826
0.054781
-0.044706
0.000367
0.008270
-0.041984
0.050801
-0.081569
0.040078
-0.011630
0.006396
-0.050328
0.008922
-0.029378
0.022015
-0.072404
-0.077852
0.018636
0.050745
0.043723
0.029601
0.073280
-0.002261
0.089529
0.105412
0.013970
0.127887
0.103168
0.100804
0.140219
0.046353
0.075927
0.127260
0.216507
0.130892
0.184658
0.218624
0.174984
0.282459
0.201732
0.000000
0.000000
0.000000
0.000000
0.000000
0.000000
0.000000
0.000000
0.000000
0.000000
0.000000
0.000000
0.000000
0.000000
0.000000
0.000000
0.000000
0.000000
0.000000
0.000000
0.000000
0.000000
0.000000
0.000000
0.000000
0.000000
0.000000
0.000000
0.000000
0.000000
0.000000
0.000000
0.000000
0.000000
0.000000
0.000000
0.000000
0.000000
0.000000
0.000000
0.000000
0.000000
0.000000
0.000000
0.000000
0.000000
0.974509
1.221001
1.500000
1.388214
1.164703
0.904122
0.547559
0.294025
0.041595
-0.189894
-0.297001
-0.180161
-0.115895
-0.009909
-0.028396
0.117544
0.089251
0.097902
0.052673
0.016923
0.102205
0.064869
0.102323
0.092532
0.118044
0.058615
0.067570
0.059152
0.036896
0.097293
0.073403
0.224281
0.149453
0.129037
0.141654
0.230380
0.222024
0.212877
0.221678
0.159426
0.254793
0.260315
0.252949
0.263244
0.326223
0.291068
0.274774
0.421586
0.330690
0.369814
0.415231
0.528955
0.495898
0.448652
0.485639
0.478795
0.508004
0.565187
0.544827
0.640628
0.524918
0.562308
0.461446
0.659731
0.571725
0.547491
0.600022
0.476732
0.509494
0.538219
0.495133
0.494990
0.506437
0.480382
0.447270
0.480090
0.315866
0.417841
0.331515
0.348279
0.299151
0.289698
0.297179
0.252811
0.269577
0.181394
0.201649
0.167531
0.195252
0.207341
0.173522
0.123606
0.129555
0.171183
0.064458
0.163899
0.090772
0.124459
0.164455
0.150077
0.045730
0.116553
0.090959
0.095735
0.122212
0.085213
0.010682
0.035838
0.048584
0.117779
0.112581
0.101921
0.093222
0.088471
0.022948
0.073814
0.021007
0.022189
0.066961
0.069968
0.133617
0.063644
0.094473
0.188035
0.113610
0.011238
0.099283
0.102826
0.107386
0.041256
0.041802
0.084659
0.120168
0.110731
0.092307
0.055466
0.049879
0.057219
-0.004792
0.113352
0.058686
0.065326
0.072484
0.047809
0.133424
0.117710
0.130403
0.085049
0.098446
0.071684
0.081821
0.149296
0.069915
0.066716
0.063287
0.140422
-0.015572
0.087573
0.017433
0.125841
0.081620
0.097809
0.102885
0.090430
0.045570
0.057146
0.086002
0.035889
0.136021
0.134619
0.068075
0.005677
0.068529
0.133385
0.147613
0.093389
0.183472
0.082982
0.153037
0.129033
0.164858
0.128966
0.221399
0.183957
0.150903
0.177171
0.199346
0.184347
0.197523
0.210030
0.273485
0.175982
0.218146
0.237023
0.224456
0.274201
0.241033
0.191459
0.224942
0.233789
0.121016
0.169824
0.206912
0.284537
0.171391
0.077676
0.076984
0.187733
0.100117
0.126843
0.158270
0.028748
0.139626
0.058873
0.047953
0.053257
0.006943
0.004808
0.052715
0.026959
0.046607
0.088300
0.031484
-0.030624
0.063033
0.062274
0.093368
0.050419
0.093108
-0.043521
0.005638
0.056899
-0.038361
-0.039467
0.022046
0.143945
0.403610
0.678522
0.979725
1.265516
1.378433
1.353335
1.204921
0.918507
0.563014
0.288469
0.030462
-0.224953
-0.235858
-0.212436
-0.196442
-0.150436
0.020534
-0.003764
0.027940
0.043224
0.018424
0.099973
0.077541
-0.025823
0.052826
-0.027454
0.047245
0.020705
0.073366
0.113165
0.126066
0.051629
0.053416
0.030316
0.075615
0.116284
0.137640
0.076780
0.174615
0.080638
0.132037
0.146852
0.189439
0.224469
0.276809
0.237141
0.239573
0.233055
0.277569
0.359282
0.355495
0.331578
0.410846
0.350814
0.428309
0.345322
0.481269
0.405494
0.466176
0.504194
0.521800
0.555050
0.599610
0.526028
0.519486
0.480192
0.556349
0.486758
0.452641
0.523875
0.431893
0.414730
0.463854
0.383206
0.362649
0.355971
0.431098
0.343970
0.312900
0.310794
0.238242
0.267242
0.221395
0.244088
0.273946
0.131692
0.210562
0.066172
0.124255
0.067474
0.133428
0.178875
0.086061
0.077415
0.122605
0.075960
0.006261
0.036520
0.027936
-0.035793
0.031637
-0.080082
-0.035404
0.044141
-0.079748
-0.026613
-0.009487
0.093681
-0.018930
0.011116
0.016244
-0.106680
-0.037546
0.038120
0.025331
-0.012087
0.017241
-0.050160
-0.065028
-0.032623
0.000656
0.022015
-0.012463
0.006749
0.009497
-0.047300
-0.010036
0.010003
-0.024767
-0.000491
-0.001273
-0.034124
0.011751
-0.045026
-0.052556
-0.033014
0.031873
-0.015518
0.027748
-0.013322
-0.022937
-0.020783
0.000435
-0.032396
-0.070075
-0.058271
-0.039398
-0.074358
-0.026779
0.022491
-0.035986
-0.026723
-0.023061
-0.026535
0.010412
0.031398
-0.010766
-0.008176
0.034420
-0.039390
-0.068280
-0.051068
-0.014626
-0.137128
0.012385
-0.005826
-0.046086
-0.028718
0.010588
-0.012556
-0.081522
0.009394
-0.144356
-0.009840
0.013422
-0.059190
-0.035534
0.018787
-0.011649
-0.000277
0.024226
-0.007752
0.014749
0.067866
0.024678
0.063235
0.101411
0.112131
0.083265
0.088207
0.069927
0.139733
0.138652
0.116565
0.151299
0.161044
0.138902
0.125085
0.194740
0.092253
0.204338
0.094811
0.114905
0.105969
0.045662
0.113300
0.033614
0.010013
0.034270
0.076811
0.030692
-0.062683
-0.037590
-0.036268
-0.020340
-0.070827
-0.089684
-0.100867
-0.081622
-0.007355
-0.071227
0.033277
-0.004149
-0.056193
-0.104085
0.035935
-0.079295
-0.003822
-0.112000
-0.082071
-0.124561
-0.027503
-0.011638
-0.029318
-0.058655
-0.142314
-0.029923
0.074614
0.247854
0.521381
0.847396
1.106267
1.300424
1.309277
1.114621
0.847576
0.587774
0.156142
-0.040827
-0.286243
-0.312090
-0.318337
-0.253502
-0.119443
-0.175768
-0.032906
-0.060513
0.000382
-0.026594
0.013254
-0.024128
0.010056
-0.156158
0.031852
-0.111482
0.049419
-0.046191
0.018093
-0.034448
-0.023935
-0.030912
-0.050981
0.096843
-0.011762
0.023548
0.096754
0.084115
0.092877
0.126267
0.118388
0.100674
0.102930
0.158881
0.151163
0.276203
0.303929
0.226380
0.292133
0.248674
0.271190
0.333455
0.310627
0.407787
0.390125
0.352952
0.350195
0.427531
0.433324
0.517636
0.413045
0.452445
0.386938
0.451191
0.534864
0.446044
0.536921
0.446946
0.507216
0.388869
0.514551
0.419520
0.401125
0.345955
0.365758
0.319611
0.273686
0.274405
0.255459
0.221949
0.214737
0.200344
0.247836
0.150164
0.177664
0.178678
0.184541
0.085205
0.135847
0.079322
0.039630
0.062554
0.058571
0.034171
-0.014012
0.108593
0.020190
0.089206
0.008139
0.056632
-0.031668
0.003705
0.079292
0.021135
-0.031392
-0.009496
0.089767
0.023734
-0.024284
0.039492
-0.072500
-0.030992
0.056901
0.034059
0.028468
-0.029065
0.001930
0.057330
0.035786
-0.031223
0.047480
0.061488
0.024384
-0.032735
0.050285
-0.051767
-0.037942
-0.075471
0.025865
-0.002555
-0.030589
0.040276
-0.025156
0.006360
-0.027744
0.006380
0.079641
-0.022639
0.028778
-0.045977
0.016178
0.002289
-0.029758
0.030737
0.006336
0.038325
0.017096
-0.073415
0.027399
0.008034
0.000259
0.045053
0.053549
-0.018750
0.050433
0.080633
0.028690
0.033770
-0.014844
0.014683
-0.006309
0.062841
0.010498
-0.006270
-0.014052
0.050035
-0.005109
0.043498
0.072580
0.004298
0.016914
-0.026100
0.061647
0.079492
0.034632
-0.021021
0.101093
0.110569
0.102650
0.058502
0.087623
0.127005
0.119917
0.146736
0.081632
0.222777
0.135947
0.225733
0.208556
0.171060
0.203913
0.142394
0.222348
0.163364
0.111015
0.128025
0.153177
0.219093
0.129710
0.217298
0.199085
0.233959
0.165242
0.162825
0.060307
0.132060
0.075713
0.036357
0.087216
0.048560
0.110964
0.088169
0.102306
0.091697
0.022782
0.080962
0.039276
0.071456
0.006539
0.045312
-0.024953
0.084726
0.090288
0.055740
0.066797
0.062019
-0.019852
0.091327
0.035027
0.072064
0.144939
0.035229
0.046994
0.044295
0.006998
0.035469
0.102242
0.264905
0.642082
0.874567
1.165387
1.261393
1.419739
1.255475
0.983149
0.675848
0.334674
0.045106
-0.120637
-0.272225
-0.171761
-0.153422
-0.146259
-0.114113
-0.072584
0.052726
0.075035
0.090533
0.009154
0.070710
0.146235
0.079606
0.099820
0.080173
0.087902
-0.009321
0.011979
0.080078
0.091774
0.162392
0.090118
0.148652
0.170120
0.196909
0.192130
0.252821
0.222235
0.171190
0.260612
0.247070
0.274670
0.290656
0.300762
0.261993
0.294742
0.392310
0.361560
0.398657
0.385718
0.413049
0.462986
0.459852
0.498964
0.573540
0.473444
0.479708
0.595992
0.529120
0.605251
0.519373
0.539812
0.617377
0.603749
0.622267
0.599473
0.574776
0.571924
0.515436
0.470970
0.486621
0.465118
0.473994
0.450140
0.359461
0.453980
0.470594
0.400012
0.369518
0.420276
0.377811
0.295146
0.308425
0.245955
0.295875
0.235730
0.147591
0.119142
0.133607
0.307918
0.187103
0.147360
0.229731
0.115323
0.136993
0.098210
0.078627
0.097621
0.078342
0.091942
0.118710
0.067048
0.115972
0.163158
0.104890
0.103758
0.062179
0.049321
0.131570
0.084598
0.032129
0.075329
0.049782
0.169021
0.142445
-0.005512
0.146577
0.078271
0.103256
0.018615
0.090299
0.116032
0.073172
0.083254
0.042814
0.086105
0.123640
0.116507
0.051063
0.159190
0.117177
0.112853
0.037704
0.109058
0.106292
0.076252
0.054551
0.103234
0.117240
0.037654
0.059540
0.042066
0.072926
0.062539
0.060655
0.043002
0.069325
0.108842
0.122714
0.089759
0.121151
0.086879
0.071163
0.152428
0.102550
0.102375
0.058430
0.010048
0.100152
0.027216
0.136065
0.085168
0.077561
0.103346
0.040321
0.102968
0.076369
0.039502
0.079580
0.061451
0.123700
0.037415
0.103697
0.131790
0.112475
0.051271
0.176642
0.149921
0.157613
0.144089
0.169508
0.180831
0.213489
0.165443
0.192406
0.160802
0.125656
0.114482
0.288097
0.181998
0.256622
0.304447
0.241750
0.332040
0.197830
0.232131
0.267216
0.204297
0.224153
0.242784
0.185834
0.213904
0.150884
0.158855
0.131292
0.136097
0.211798
0.218859
0.147437
0.152483
0.074091
0.032199
0.092401
0.136473
0.071625
0.105823
0.107440
0.077904
0.131987
0.016164
0.048494
0.144179
0.082485
0.075369
0.027149
0.104975
0.081613
0.072318
0.095287
0.139302
-0.033967
0.032679
0.036733
-0.066219
0.086810
-0.028292
0.288399
0.467567
0.908776
1.170493
1.325378
0.000000
0.000000
0.000000
0.000000
0.000000
0.000000
0.000000
0.000000
0.000000
0.000000
0.000000
0.000000
0.000000
0.000000
0.000000
0.000000
0.000000
0.000000
0.000000
0.000000
0.000000
0.000000
0.000000
0.000000
0.000000
0.000000
0.000000
0.000000
0.000000
0.000000
0.000000
0.000000
0.000000
0.000000
0.000000
0.000000
0.000000
0.000000
0.000000
0.000000
0.000000
0.000000
0.343694
0.291500
0.281942
0.300618
0.248152
0.315425
0.417281
0.472578
0.442821
0.506814
0.454825
0.434211
0.611759
0.510793
0.468584
0.541650
0.514286
0.512090
0.487925
0.555197
0.488680
0.500328
0.483380
0.459454
0.451184
0.508885
0.440298
0.466509
0.387331
0.414421
0.403780
0.347585
0.339064
0.313442
0.297638
0.245484
0.250696
0.221309
0.181989
0.157291
0.175043
0.191708
0.087646
0.115739
0.134930
0.031719
0.088074
0.067198
0.053358
0.023089
-0.020536
0.000889
0.084723
0.111742
-0.025243
0.004189
-0.013973
-0.026847
0.041883
0.011301
-0.095855
-0.021139
-0.039812
-0.065031
-0.014677
-0.052921
-0.002264
-0.003591
-0.053391
-0.054425
0.008378
-0.070003
-0.053765
-0.080807
-0.025786
-0.094454
0.013564
0.035268
-0.022069
0.027916
-0.058069
-0.076480
0.004686
-0.005108
-0.045544
-0.054441
0.025742
0.025063
0.055411
-0.034935
-0.034036
0.041608
0.003857
-0.109306
0.060163
0.008267
-0.078827
-0.063059
-0.014937
-0.037112
0.021102
-0.009997
-0.032148
0.020127
-0.045650
-0.032188
-0.070910
0.019976
0.020719
-0.038409
-0.068204
0.028885
0.053654
-0.078230
-0.069574
0.044964
-0.107653
-0.082184
-0.011178
-0.054615
-0.029818
-0.044894
-0.031036
-0.026952
0.030900
-0.028481
-0.047409
-0.039497
-0.031678
-0.016623
-0.043783
0.079516
0.026148
0.004245
0.080174
0.062951
0.018145
0.028238
0.023591
0.036571
0.064555
0.043773
0.117018
0.098640
0.045083
0.153220
0.098087
0.129093
0.180586
0.074453
0.191013
0.153238
0.057189
0.079053
0.103152
0.031678
0.162312
0.113825
0.005101
0.121360
-0.042830
-0.049397
0.052031
0.032109
-0.071793
0.055684
0.000365
-0.084281
-0.050567
0.001176
-0.082124
0.068342
-0.083138
-0.063861
-0.084659
-0.173887
-0.109264
-0.009587
-0.063624
-0.113481
-0.032434
-0.087023
-0.119717
-0.044139
-0.045214
-0.122512
-0.118786
-0.096311
-0.066941
-0.102691
-0.044300
0.102878
0.373359
0.749263
1.058939
1.320191
1.275234
1.215175
0.954736
0.610534
0.178781
-0.041400
-0.274217
-0.402417
-0.295492
-0.237365
-0.191789
-0.185116
-0.106554
-0.091797
-0.148086
-0.082297
-0.086337
-0.091375
-0.038371
-0.041943
-0.063631
-0.081174
-0.058658
-0.038858
-0.023280
-0.015064
-0.071434
0.035768
-0.083993
-0.011382
0.001101
0.028658
0.001020
0.087884
0.040651
-0.018444
0.123465
0.091335
0.094993
0.136634
0.110079
0.162381
0.170551
0.191167
0.190216
0.217378
0.254344
0.265412
0.286175
0.328690
0.301656
0.348753
0.441710
0.413875
0.374034
0.351826
0.432593
0.441742
0.379597
0.448715
0.401815
0.447920
0.414005
0.309505
0.381894
0.338697
0.354215
0.367660
0.361457
0.294063
0.306991
0.357197
0.211625
0.321385
0.193070
0.167099
0.187729
0.258944
0.191279
0.159284
0.037869
0.124291
0.060091
0.046798
0.061434
0.048234
0.066929
-0.022272
0.013811
-0.092645
0.004451
-0.017550
-0.002315
0.021404
-0.007873
0.023710
-0.002544
-0.028652
-0.083317
-0.030849
-0.067739
0.013718
-0.067300
-0.024122
-0.028000
-0.093439
-0.059688
0.010493
-0.054247
-0.101674
-0.035292
-0.072362
-0.071236
-0.073702
-0.036516
-0.029933
-0.065020
-0.106817
-0.039841
0.007149
-0.116443
0.004523
-0.080841
-0.067428
-0.056166
-0.049997
-0.015873
-0.094170
-0.089022
-0.128513
-0.020031
-0.052766
-0.026316
-0.064262
-0.060890
-0.058578
-0.106547
-0.030112
-0.041799
-0.042810
-0.017124
-0.051993
-0.075845
-0.058034
-0.070177
0.033432
0.005246
-0.007400
-0.078927
-0.037679
-0.015515
-0.088673
-0.113526
-0.016254
-0.014935
-0.026922
0.015974
-0.091528
-0.018359
0.002322
-0.089653
-0.122152
-0.012464
-0.050534
-0.015323
0.030863
-0.117729
0.001167
-0.002046
0.009542
0.028234
-0.043228
-0.011187
-0.013955
-0.021640
0.103441
0.014132
0.060879
-0.020242
0.068770
0.028167
0.054277
0.068801
-0.015533
0.122225
0.129798
0.123580
0.160454
0.195606
0.123348
0.215370
0.087066
0.166265
0.106986
0.133783
0.206495
0.022559
0.185486
0.063900
0.117553
0.045538
0.072371
0.010650
0.048249
0.035499
0.083840
0.019402
0.093589
0.017443
0.017186
0.027671
-0.025038
-0.013052
-0.003772
-0.033408
-0.018187
-0.020757
-0.030315
-0.014414
0.023933
-0.011096
-0.095216
-0.058392
-0.104085
-0.063963
-0.126961
0.021937
-0.046943
-0.049747
-0.065858
-0.058249
-0.023897
-0.004088
0.219320
0.412817
0.672496
1.012642
1.206168
1.314616
1.188212
1.003261
0.699688
0.262419
0.108875
-0.082130
-0.255647
-0.274485
-0.325245
-0.236462
-0.098947
-0.071656
-0.027790
-0.073199
-0.006308
-0.069818
-0.021582
0.030289
0.057141
-0.046631
-0.038021
0.007427
-0.035980
0.061714
0.136193
0.046508
0.028375
0.126684
0.150842
0.149729
0.070645
0.101485
0.223716
0.162062
0.125687
0.084398
0.136604
0.192573
0.246976
0.182464
0.192591
0.231099
0.323981
0.345095
0.321054
0.273195
0.409077
0.379857
0.311328
0.408752
0.475599
0.418111
0.460771
0.472600
0.436139
0.538210
0.480047
0.502572
0.578810
0.530100
0.525755
0.558889
0.457274
0.529444
0.514709
0.470753
0.408153
0.425087
0.362598
0.400850
0.346313
0.382903
0.299513
0.310038
0.305627
0.206905
0.229021
0.222576
0.293160
0.197078
0.301864
0.169917
0.120847
0.150162
0.144638
0.114495
0.150717
0.123658
0.090099
0.068137
0.102472
0.059121
0.141908
0.023092
0.059301
0.027202
0.056092
0.006478
0.037795
0.013691
0.056367
0.048467
0.051124
0.058123
0.051035
-0.027478
-0.012604
0.038761
0.036703
0.045305
0.026407
0.076794
0.095665
0.096772
0.092931
0.047165
0.068298
-0.072659
0.033233
0.066455
0.080651
0.080063
0.056239
0.007945
0.077474
0.067601
0.038575
0.034499
0.039759
0.107344
0.070227
-0.012711
-0.038701
0.040835
0.034731
0.071836
0.040215
0.071247
0.113110
0.007180
0.068572
-0.035244
0.007073
0.013825
0.017102
0.005768
0.090990
0.118950
0.062043
-0.017149
0.040844
0.138433
0.072074
0.083430
-0.040282
0.015100
0.020799
0.042120
0.071195
0.039118
0.032319
-0.030967
0.072029
0.108714
-0.008422
0.079110
0.090924
0.073415
0.113831
0.104277
0.038741
0.089793
0.112011
0.048160
0.065322
0.089584
0.080126
0.162569
0.154608
0.160470
0.146592
0.129310
0.216621
0.206732
0.120034
0.193299
0.212335
0.231527
0.142823
0.233078
0.181165
0.143513
0.213676
0.231540
0.185350
0.218189
0.162881
0.184187
0.087969
0.153524
0.153645
0.141803
0.086737
0.067653
0.115561
0.138103
0.105751
0.000002
0.122968
0.091537
0.079095
0.100070
0.065177
0.051400
0.077188
0.013753
0.050885
0.032773
0.042315
0.095262
0.065145
0.077700
0.032399
0.045321
0.025542
-0.011874
0.086471
-0.031767
-0.026006
0.013453
-0.012460
0.054102
0.119938
0.436272
0.756257
1.093487
1.308140
1.427603
1.365647
1.058042
0.786783
0.414239
0.083206
-0.121849
-0.219245
-0.239758
-0.202145
-0.099486
-0.130841
-0.054963
0.062386
0.008412
0.032352
0.012504
0.056614
-0.019559
0.005615
0.035072
0.108624
0.089516
0.004501
0.097276
-0.015712
0.030017
0.126473
0.050565
0.101776
0.142427
0.072724
0.070419
0.133609
0.203008
0.171829
0.159892
0.212183
0.255249
0.244934
0.150588
0.266336
0.276986
0.180621
0.198668
0.368460
0.364214
0.435381
0.410087
0.395521
0.439548
0.451250
0.522779
0.517512
0.384786
0.494918
0.461507
0.525050
0.444725
0.517344
0.512663
0.507126
0.503194
0.553681
0.530632
0.457760
0.465922
0.419244
0.474295
0.396585
0.448215
0.407902
0.448863
0.323467
0.319508
0.233935
0.279379
0.217913
0.188104
0.181816
0.224377
0.228486
0.156132
0.100844
0.163402
0.158088
0.109560
0.056414
0.015168
0.038157
0.045409
0.002940
0.057839
0.003761
0.062379
0.039838
-0.033063
-0.050090
-0.027845
0.011880
-0.017257
-0.049771
-0.079081
-0.000121
-0.073182
-0.067545
-0.011271
0.033745
-0.036742
-0.007025
0.003804
-0.011177
-0.022980
-0.074592
-0.084455
0.010067
-0.002884
-0.005851
-0.086480
0.069887
-0.037374
0.010025
-0.003174
-0.049957
-0.097280
-0.055799
-0.077200
0.086861
0.025524
-0.013078
-0.039116
0.014873
0.079014
-0.057925
-0.063343
-0.077273
0.018046
-0.035231
0.039639
-0.018185
-0.048408
-0.080229
-0.059153
-0.042668
-0.004164
-0.035644
0.003643
-0.070065
0.009127
-0.038224
-0.039497
-0.098141
-0.049319
-0.026035
0.000975
-0.053231
-0.043163
-0.090730
0.013859
-0.074563
-0.003008
0.012455
-0.058032
-0.067266
-0.056409
-0.056845
-0.007075
-0.059176
0.035122
0.010015
-0.019023
-0.010913
0.023998
-0.005168
-0.008239
0.069754
0.083306
0.025884
0.018548
-0.040497
-0.010266
0.005586
0.101424
0.068109
0.125154
0.104934
0.162569
0.100398
0.114763
0.042975
0.107882
0.116152
0.069952
0.052802
0.158561
0.068602
0.089548
0.022886
0.029403
-0.033609
0.049550
-0.030558
0.018872
-0.008532
-0.007834
-0.020391
0.008260
-0.044472
-0.088282
-0.029515
-0.034469
-0.061795
-0.134363
-0.013304
-0.061968
-0.071795
-0.095452
-0.045231
-0.083437
0.014433
-0.067457
-0.119992
-0.104371
-0.010692
-0.095210
-0.007208
-0.086915
-0.063123
-0.097558
-0.072468
-0.177791
-0.124476
-0.115569
0.085084
0.267176
0.609638
0.883793
1.218197
1.297862
1.180198
1.046010
0.692038
0.392731
0.039102
-0.276037
-0.289407
-0.349411
-0.316029
-0.211685
-0.192231
-0.176443
-0.100252
-0.045194
-0.098596
0.052015
-0.040489
0.009450
-0.118974
-0.077993
-0.081073
-0.062613
-0.076740
-0.074416
-0.050924
0.002291
0.000000
0.000000
0.000000
0.000000
0.000000
0.000000
0.000000
0.000000
0.000000
0.000000
0.000000
0.000000
0.000000
0.000000
0.000000
0.000000
0.000000
0.000000
0.000000
0.000000
0.000000
0.000000
0.000000
0.000000
0.000000
0.000000
0.000000
0.000000
0.000000
0.000000
0.000000
0.000000
0.000000
0.000000
0.000000
0.000000
0.000000
0.000000
0.000000
0.000000
0.000000
0.000000
0.000000
0.000000
0.000000
0.000000
0.000000
0.000000
0.000000
0.000000
0.000000
0.000000
0.063621
0.061973
0.073709
0.110748
-0.034909
-0.021062
0.037203
0.029110
0.093012
0.000336
-0.015008
0.020446
-0.035819
-0.064115
-0.052510
0.011802
-0.055983
-0.091049
-0.056574
-0.040360
-0.060070
-0.070719
-0.056353
-0.095084
-0.020693
-0.057126
-0.161058
-0.143415
-0.093806
-0.125368
-0.141604
-0.075230
-0.108453
-0.123491
-0.068706
-0.003320
-0.137891
-0.112394
-0.071623
-0.121973
-0.058695
-0.033255
-0.073976
-0.058925
-0.016080
-0.095223
-0.088000
-0.039639
-0.101393
-0.141552
-0.104151
-0.052445
-0.110002
-0.075100
-0.095402
-0.124385
-0.089604
-0.103042
-0.088378
-0.081957
-0.108962
-0.076917
-0.066870
-0.055309
-0.036037
-0.070274
-0.106064
-0.093073
-0.072746
-0.001353
-0.027734
-0.050257
-0.136741
-0.098777
-0.075398
-0.085741
-0.126316
-0.053863
-0.099842
-0.113358
-0.026275
-0.095234
-0.166227
-0.003498
-0.046940
0.017482
-0.078783
-0.087222
-0.097484
-0.091366
-0.009250
0.039556
-0.057484
0.070744
-0.083974
-0.094772
-0.072559
0.028402
0.112325
-0.022662
0.029303
0.037838
0.019760
0.049660
0.067276
0.102831
0.047129
0.070944
0.115332
0.044784
0.086832
0.074695
0.073588
0.147694
0.095011
0.144532
0.050229
0.079166
0.029067
0.075147
0.074022
0.044616
0.012622
0.008659
0.016712
0.015072
-0.000516
-0.078565
-0.030880
-0.039618
-0.025793
-0.028925
-0.047923
0.040030
-0.026239
-0.085933
-0.031598
-0.094383
-0.057705
-0.059720
-0.152043
-0.038013
-0.065057
-0.049859
-0.058603
-0.070446
-0.050739
-0.070507
-0.052798
-0.038681
-0.056540
-0.086256
-0.050882
-0.053404
0.177008
0.326534
0.682278
0.898635
1.192838
1.308472
1.271146
1.014725
0.848593
0.389824
0.104680
-0.137553
-0.275327
-0.312957
-0.292304
-0.098514
-0.076113
-0.104145
-0.103808
-0.054133
0.051828
-0.016877
-0.003485
0.018862
-0.001497
-0.021634
0.040910
-0.035135
-0.029281
-0.041216
-0.000903
-0.007114
0.038641
0.027082
0.130298
0.098080
0.006014
0.112345
0.068983
0.146756
0.076006
0.067092
0.133347
0.148298
0.105102
0.129120
0.222676
0.214284
0.342320
0.258154
0.255430
0.300927
0.299604
0.348577
0.353734
0.371336
0.423124
0.424428
0.450829
0.496175
0.435510
0.552385
0.465877
0.559281
0.483313
0.513183
0.480845
0.482322
0.481455
0.466995
0.421239
0.479685
0.390482
0.358543
0.411575
0.378091
0.415355
0.374587
0.394782
0.393490
0.217395
0.276665
0.302212
0.301776
0.208351
0.166710
0.207874
0.111916
0.186854
0.133743
0.132477
0.075116
0.028393
0.144201
0.103429
0.133549
0.033224
0.048482
0.094100
0.038205
0.091769
0.112870
0.051908
0.126288
-0.006658
0.136446
0.041390
0.051495
-0.007536
0.024495
0.001845
0.074277
0.079412
-0.014037
0.042516
0.066860
-0.029466
0.044401
0.060519
0.060789
0.068953
0.030790
0.006553
0.014539
0.031406
0.027677
-0.012649
0.109773
0.040118
-0.078836
0.076076
0.039897
0.023239
0.076805
-0.011644
0.030762
0.131291
-0.057323
0.045820
0.030098
0.064105
0.040657
0.067745
0.040683
0.063907
0.055390
-0.021729
0.070844
0.065494
-0.051337
0.033088
-0.010153
0.028476
0.074388
0.111935
0.031462
0.020240
0.024234
0.003248
0.049997
0.102078
0.024274
0.074393
0.025437
0.033056
0.000192
0.051920
0.086148
-0.010836
0.060116
0.085721
0.066757
0.066096
0.037177
0.104217
0.069895
0.026836
0.083728
0.074635
0.196268
0.131642
0.171178
0.221839
0.137985
0.083542
0.161298
0.178160
0.261270
0.252737
0.208818
0.186309
0.196680
0.215923
0.235520
0.226751
0.169438
0.207234
0.307929
0.254463
0.250227
0.193887
0.201027
0.235016
0.168349
0.223475
0.258861
0.173300
0.126840
0.027927
0.165792
0.032609
0.102108
0.161752
0.097061
0.073965
0.115261
0.016122
0.020218
0.071356
0.040711
0.128653
0.075524
0.104120
0.112624
0.114526
0.164685
0.046018
0.034842
0.122629
0.012123
0.083958
0.054533
0.064266
0.021730
0.023185
0.068448
0.057429
0.099810
0.162412
0.472993
0.638168
0.984993
1.257230
1.386610
1.445756
1.141515
0.935474
0.578355
0.199112
-0.048806
-0.168656
-0.226006
-0.199049
-0.080303
-0.000382
-0.025358
0.022768
0.013161
0.073269
0.050392
0.123323
0.087185
0.059350
0.028154
0.033952
0.078330
0.061448
