-0.014902
-0.005324
-0.002644
0.043717
0.037737
-0.065941
0.095905
-0.021236
0.016826
-0.094669
0.064593
0.033198
0.022591
-0.002224
-0.008217
-0.018975
0.014169
0.001873
0.041526
-0.027180
-0.036441
0.022692
0.043075
0.084440
0.086118
0.034184
0.022787
0.078125
0.063114
0.095064
0.131530
0.101633
0.034305
0.054820
0.164828
0.193376
0.213682
0.153119
0.212166
0.180022
0.132472
0.220477
0.196614
0.167863
0.163425
0.154220
0.182693
0.170053
0.170188
0.178297
0.222431
0.143478
0.230655
0.163604
0.022749
0.076456
0.157976
0.058298
0.121313
0.063849
0.115606
0.056166
0.083124
0.107169
0.085134
0.017519
0.023013
0.084272
0.078171
0.090813
0.043644
0.043362
-0.052141
0.040788
0.062305
0.053881
0.025506
-0.015338
0.011586
0.138244
0.304601
0.513241
0.985899
1.172388
1.478148
1.500000
1.280265
0.926598
0.576492
0.303539
0.026798
-0.196852
-0.182724
-0.173590
-0.034472
0.012430
0.021310
0.136691
0.058481
0.173535
0.112426
0.069142
0.080427
0.105514
0.164648
0.062194
0.093922
0.106321
0.093163
0.189774
0.093022
0.140117
0.196030
0.133469
0.213916
0.279578
0.282887
0.254846
0.273612
0.277903
0.363891
0.340856
0.349670
0.383160
0.412549
0.457363
0.418911
0.393778
0.510870
0.612048
0.600036
0.667008
0.553989
0.569360
0.515556
0.493291
0.631402
0.563651
0.549172
0.558753
0.543651
0.523844
0.511748
0.511951
0.525852
0.547071
0.559469
0.510114
0.498149
0.492669
0.442572
0.438175
0.410544
0.427547
0.387040
0.350950
0.271154
0.309649
0.338513
0.227782
0.176190
0.300886
0.228941
0.244514
0.175511
0.113671
0.174808
0.180280
0.133216
0.121695
0.090298
0.142307
0.086360
0.140044
0.168123
0.100293
0.116354
0.064422
0.069560
0.088066
0.042621
0.032150
0.044757
0.066246
0.149360
0.044989
0.109987
0.051513
0.164140
0.091085
0.070897
0.052276
0.102493
0.094782
0.086883
0.069398
0.089983
0.130620
0.122651
0.084397
0.168427
0.064761
0.064197
0.018408
0.140826
0.043380
0.153737
0.122200
0.040291
0.016059
0.094567
0.087083
0.051476
0.061440
0.123597
0.101094
-0.000066
0.079324
0.050781
0.061469
0.115858
0.083620
-0.001570
0.040671
0.063047
0.059922
0.138846
0.115172
0.123115
0.085713
0.133539
0.107727
0.083577
0.072323
0.191535
0.181562
0.183007
0.087991
0.095283
0.136737
0.149803
0.164986
0.123122
0.241183
0.212262
0.237651
0.269549
0.227233
0.268260
0.235798
0.245009
0.301090
0.270592
0.196598
0.272699
0.266893
0.242098
0.261483
0.251409
0.234484
0.236624
0.174017
0.202988
0.179106
0.185517
0.130372
0.140365
0.111160
0.124240
0.056895
0.096675
0.154650
0.111820
0.121662
0.069765
0.018197
0.131215
0.055964
0.075529
0.088179
0.049704
0.070919
-0.011668
0.020436
0.056680
0.077919
0.061760
0.072764
0.040133
-0.013200
0.105514
0.308705
0.446918
0.798074
1.168270
1.368093
1.402355
1.266650
1.062682
0.699586
0.379790
-0.015438
-0.131016
-0.224399
-0.180221
-0.125155
-0.028763
0.087554
-0.020683
0.070504
0.109636
0.038253
0.093314
0.075087
0.102869
0.000242
0.140321
0.156081
0.092291
0.080741
0.201805
0.215110
0.141608
0.141393
0.214328
0.138769
0.202873
0.202868
0.225719
0.249072
0.222497
0.315122
0.346700
0.379171
0.325992
0.409722
0.415138
0.387912
0.509940
0.480511
0.413245
0.542514
0.547322
0.436991
0.533322
0.535158
0.625564
0.607720
0.540815
0.520195
0.611493
0.486038
0.469098
0.461172
0.514196
0.397975
0.457322
0.420758
0.531821
0.448607
0.351901
0.355115
0.401974
0.290790
0.419024
0.280046
0.274154
0.325082
0.300723
0.221383
0.239929
0.123216
0.177168
0.149829
0.166617
0.124559
0.067982
0.058007
0.124066
0.134471
0.093718
0.044932
0.086617
0.065049
0.024393
0.058908
0.026971
-0.015371
0.025008
0.035686
0.035521
0.083426
0.013749
-0.016117
-0.043840
0.038303
0.020644
0.092960
0.012383
-0.000323
-0.030704
0.021748
0.016586
-0.027798
0.019183
0.046080
0.003105
0.058172
0.071313
0.024539
-0.084000
-0.049418
-0.034365
-0.066675
-0.010029
0.070490
0.063637
0.107666
0.006198
0.025290
-0.020919
0.030282
0.006350
0.027008
-0.021122
-0.017727
0.015289
0.041503
0.007562
-0.026390
0.006748
-0.033811
-0.030586
0.099309
0.013261
-0.057334
-0.053575
0.009493
0.032211
-0.109997
0.028826
-0.108324
0.000222
0.084215
0.056935
0.013223
0.093307
-0.024686
0.026101
0.000852
0.011736
0.053129
0.072746
-0.043414
0.116333
0.068254
0.087518
0.081937
0.086585
0.103805
0.178206
0.146376
0.126806
0.203519
0.166287
0.219279
0.135352
0.234707
0.131078
0.163951
0.130277
0.054779
0.087953
0.122286
0.111471
0.112039
0.056244
0.121327
0.072902
0.093737
-0.011508
0.005536
0.012930
0.079667
0.043845
-0.012940
0.006621
0.099439
-0.006776
-0.102274
-0.029092
-0.036211
-0.015625
-0.023523
0.001131
0.001787
-0.087030
-0.089334
-0.066286
-0.071871
-0.010001
0.057992
0.138194
0.325952
0.628565
0.906934
1.263959
1.400692
1.233675
1.004369
0.729687
0.326914
0.043416
-0.166160
-0.234418
-0.235858
-0.228283
-0.196828
-0.090832
-0.077354
0.039431
-0.013125
0.011850
-0.023713
-0.027592
-0.008643
-0.018112
-0.014077
-0.020200
-0.027609
0.049376
-0.023741
0.079943
0.071707
0.043844
0.133073
0.097623
0.084382
0.112990
0.136363
0.194137
0.169167
0.220004
0.212505
0.272371
0.240459
0.238226
0.344206
0.254104
0.324928
0.342861
0.347219
0.401291
0.431686
0.392453
0.440574
0.460067
0.441187
0.396312
0.426772
0.415627
0.400851
0.481832
0.449679
0.459136
0.481807
0.404760
0.342638
0.410983
0.388949
0.328129
0.318974
0.364468
0.302011
0.232041
0.192447
0.234620
0.248771
0.199847
0.223733
0.079349
0.117392
0.088923
0.087324
0.170384
0.056712
0.066097
0.016619
0.080271
0.053710
0.001088
0.053818
-0.025509
-0.041912
0.093040
-0.039031
-0.064176
0.030008
-0.012022
0.035997
0.003519
-0.047151
-0.021106
-0.012977
0.006608
-0.087283
-0.014628
-0.041118
-0.001971
-0.084661
-0.066385
-0.017012
-0.000013
-0.047469
0.024618
-0.017077
-0.065051
-0.029727
-0.077880
-0.029410
-0.049851
-0.014816
0.018337
-0.023565
0.001032
-0.082938
-0.074836
-0.050459
-0.049386
0.002562
-0.039355
0.007363
-0.065631
-0.050651
0.059757
-0.031293
-0.021925
0.040802
-0.050598
-0.062239
-0.010077
0.057061
0.013617
-0.006826
-0.057416
-0.044538
-0.023011
0.024265
-0.067833
0.038279
0.007549
-0.009587
-0.027211
-0.051480
0.008622
0.033994
-0.056362
0.005257
0.010851
0.050248
0.057504
-0.017144
0.013996
0.078260
0.069150
0.133985
0.074430
0.091664
0.140890
0.192503
0.075139
0.113394
0.163426
0.076393
0.107973
0.134174
0.215076
0.107467
0.127285
0.170242
0.179418
0.094155
0.145724
0.075137
0.099003
0.163723
0.076962
0.074854
0.053393
0.048395
0.038534
0.041850
0.005898
-0.013793
0.081357
-0.042220
0.024120
-0.006430
-0.005015
-0.015110
0.081984
0.046122
0.017206
0.010423
0.037200
-0.047700
0.055360
0.025692
-0.067831
-0.054994
-0.078907
-0.100251
0.152955
0.065809
0.321787
0.605493
0.853352
1.172987
1.353161
1.396896
1.132653
0.908464
0.479335
0.080772
0.051743
-0.211080
-0.241229
-0.152122
-0.124449
-0.091099
0.026673
0.010423
0.073981
-0.046710
0.067111
-0.037211
0.020628
-0.002311
0.210505
0.074928
0.100459
0.092093
0.072538
0.116900
0.098077
0.086486
0.121955
0.170312
0.210166
0.145851
0.192502
0.244191
0.189900
0.298982
0.288910
0.331767
0.312698
0.347593
0.431347
0.414713
0.425729
0.402815
0.470826
0.491100
0.480122
0.466547
0.501597
0.610254
0.522487
0.504273
0.559580
0.535142
0.572400
0.517096
0.479099
0.524155
0.494547
0.528232
0.491418
0.479668
0.462735
0.398267
0.462142
0.442188
0.430237
0.269091
0.343198
0.383924
0.208282
0.404064
0.279306
0.222251
0.204212
0.188108
0.254851
0.186527
0.216481
0.086644
0.110985
0.121558
0.187914
0.130037
0.140146
0.188921
0.097119
0.069815
0.079865
0.203700
0.072887
0.028216
0.130963
0.025074
0.073489
0.010527
0.086248
0.131852
0.079858
0.087552
-0.003438
0.087914
-0.039983
0.085153
0.045311
0.076936
0.107191
0.022599
0.106664
0.081354
0.022587
0.078104
0.031250
0.074010
0.057342
0.062787
-0.003081
0.048844
-0.020872
0.058431
0.060814
0.079386
0.054451
0.053636
0.010524
0.066273
0.132987
0.107893
0.064179
0.116324
0.125271
0.132541
0.082336
0.057596
0.122070
0.051313
0.022755
0.083237
0.047922
0.155252
0.081152
0.175765
0.138579
0.080137
-0.024191
0.004046
0.042569
0.050838
0.039455
0.089208
0.124635
0.113584
0.061474
0.097115
0.148976
0.116197
0.121177
0.167368
0.214057
0.125912
0.207570
0.240944
0.179216
0.272099
0.271236
0.187393
0.269822
0.186435
0.292383
0.272380
0.253863
0.316425
0.214756
0.231596
0.211999
0.240322
0.304718
0.294730
0.266846
0.154616
0.137185
0.265936
0.145042
0.169153
0.099758
0.156641
0.153207
0.110132
0.123464
0.173880
0.116620
0.073463
0.109545
0.122742
0.081943
0.155049
0.154498
0.133755
0.071043
0.159430
0.061405
-0.042087
0.101463
0.080847
0.038998
0.099588
0.115876
0.316126
0.575421
0.973988
1.139682
1.403351
1.417402
1.312500
0.923404
0.653881
0.323590
-0.001714
-0.141971
-0.218268
-0.106489
-0.103339
0.024171
0.042853
0.050742
0.102836
0.091241
0.103644
0.169429
0.196340
0.131601
0.271433
0.102787
0.137435
0.151811
0.238454
0.195392
0.250714
0.119725
0.176235
0.260528
0.259375
0.287444
0.274611
0.300023
0.325399
0.315739
0.354420
0.416620
0.410814
0.371605
0.415760
0.420559
0.478942
0.451473
0.546507
0.509672
0.488128
0.565727
0.537736
0.562531
0.519531
0.673729
0.612122
0.539254
0.617089
0.516880
0.583135
0.608423
0.562980
0.542725
0.504342
0.537513
0.505972
0.525049
0.428108
0.495623
0.421319
0.377689
0.411977
0.379600
0.396438
0.358620
0.312316
0.244227
0.226187
0.299869
0.268228
0.319690
0.199458
0.224889
0.233738
0.139651
0.217474
0.136233
0.117010
0.141105
0.141406
0.091116
0.087541
0.061000
0.065619
0.074296
0.082346
0.035788
0.131395
0.087193
-0.050012
0.041742
0.090996
0.108093
0.080328
0.084375
0.025949
0.053776
0.075957
0.056653
0.058616
0.116044
0.011258
0.010082
0.004615
0.104684
0.087885
0.020229
0.034563
0.007802
0.057708
0.104435
0.047243
0.019160
0.117568
0.015627
0.017737
-0.022061
0.050312
0.096278
0.090219
0.023456
0.005956
0.089010
0.023382
0.085171
0.093106
0.137193
-0.028840
0.018049
0.094082
0.011835
0.027772
0.066986
0.088930
0.043009
0.045497
0.103212
0.057090
0.019701
0.012682
0.021153
0.073487
0.016378
0.047542
0.022762
0.006834
0.051859
0.039113
0.083425
0.105349
0.036995
0.151156
0.145296
0.154881
0.080391
0.153094
0.075012
0.217710
0.213442
0.209691
0.244782
0.227352
0.207648
0.246710
0.292584
0.155851
0.178170
0.124338
0.110660
0.185582
0.155576
0.071187
0.149514
0.071035
0.114106
0.116085
0.094173
0.132398
0.090364
0.026419
0.102623
0.017255
0.076949
-0.010767
0.048311
0.042975
-0.004023
-0.017450
0.049499
-0.015419
0.010018
0.018850
0.041221
0.052265
0.030507
0.077882
0.007207
-0.031483
-0.022853
-0.008266
0.118965
0.455209
0.785600
1.067880
1.284005
1.346466
1.301259
1.023867
0.631184
0.236088
0.050289
-0.193530
-0.202733
-0.301067
-0.175594
-0.048193
-0.026505
-0.027053
-0.054076
0.053977
0.065033
0.042494
-0.012772
0.005278
0.015739
0.032186
-0.010108
0.058813
0.046372
0.181306
0.078318
0.118348
0.156258
0.133401
0.179062
0.195635
0.152272
0.209529
0.145101
0.220182
0.159302
0.256697
0.302787
0.310486
0.325806
0.301579
0.320720
0.396223
0.401703
0.448641
0.434722
0.491228
0.421430
0.435772
0.487358
0.467137
0.454650
0.481548
0.516831
0.464566
0.473065
0.486942
0.502836
0.393156
0.486187
0.504265
0.422604
0.380033
0.310286
0.266474
0.288446
0.346546
0.289611
0.292276
0.279930
0.213321
0.165043
0.222123
0.160622
0.147577
0.151855
0.091848
0.112200
0.038940
0.103416
0.003025
0.031804
0.046114
-0.024836
0.039695
0.019009
-0.095832
0.032727
-0.006714
-0.007233
-0.034714
0.012677
-0.003025
-0.044257
-0.064470
-0.105395
-0.043694
0.024046
-0.064465
0.022513
0.000403
-0.127174
-0.065227
-0.105592
-0.088440
-0.120807
-0.050589
-0.024004
-0.058492
-0.023255
-0.029116
-0.053624
-0.026400
-0.047213
-0.070476
-0.072437
-0.058356
-0.056242
-0.013407
-0.060459
-0.048417
-0.068599
-0.041931
-0.081208
-0.067466
-0.080514
-0.062039
-0.015777
-0.039536
-0.023039
-0.131363
-0.099198
-0.111772
-0.043834
-0.110643
-0.049638
-0.117552
-0.153990
-0.080008
-0.089122
-0.110804
-0.112756
-0.114136
-0.112369
-0.076141
-0.053497
-0.085184
-0.045269
-0.040189
-0.075735
-0.044479
-0.073729
-0.032210
-0.038709
-0.005968
0.023265
-0.047139
0.073615
0.070547
0.012873
0.018421
-0.010266
0.042995
0.081902
0.020684
0.132968
0.128048
0.104544
0.083668
0.115792
0.119456
0.127814
0.158027
0.009096
0.091600
0.007909
0.031264
0.097845
0.021685
0.062627
0.018396
0.046554
-0.030540
0.007346
-0.040953
-0.110260
-0.020472
-0.076341
-0.057978
-0.105322
-0.023361
-0.084763
-0.013159
-0.017780
-0.053703
-0.066201
-0.054447
-0.036576
-0.091574
-0.048387
-0.032444
-0.003483
-0.133688
-0.083413
-0.128264
-0.064289
0.049837
0.342599
0.567312
0.941630
1.154851
1.228143
1.216011
0.975204
0.639534
0.364762
0.044682
-0.215112
-0.341518
-0.382500
-0.318156
-0.198674
-0.111612
-0.095170
-0.122090
0.006405
-0.098543
-0.056001
-0.106174
-0.062493
-0.049773
-0.021947
0.015489
-0.005286
-0.037925
0.034380
0.010094
0.001393
0.028921
0.032114
0.093855
0.065721
0.112824
0.142745
0.169764
0.098199
0.163562
0.211547
0.310257
0.251443
0.312157
0.231411
0.379448
0.326603
0.361958
0.319803
0.419345
0.387975
0.347263
0.341837
0.428475
0.418799
0.435139
0.432990
0.451899
0.443205
0.474986
0.436603
0.377532
0.419632
0.353220
0.321811
0.419282
0.308197
0.317677
0.332538
0.260526
0.343477
0.221922
0.263438
0.144381
0.201753
0.113300
0.161674
0.080330
0.090346
0.076401
0.119468
0.065660
0.061580
0.092593
0.054573
0.003179
-0.032558
0.006145
0.004511
0.035335
-0.014173
0.086954
-0.157200
-0.049804
0.007043
-0.042785
0.035403
-0.097552
-0.044836
-0.079390
-0.083933
-0.040765
-0.045086
0.022115
-0.010222
-0.103221
-0.019491
-0.147028
-0.100954
-0.088174
-0.022816
0.007294
-0.042630
0.000270
-0.064494
-0.017804
-0.049889
-0.007215
-0.047729
-0.067157
0.059702
-0.034764
-0.187561
-0.038384
-0.089469
0.002589
-0.020250
-0.037899
0.006344
-0.027788
-0.099478
-0.057884
-0.088088
-0.032777
-0.024306
0.034026
-0.093007
-0.041447
-0.042924
-0.061592
-0.040816
-0.038945
-0.079270
-0.015196
-0.024261
0.030116
-0.092703
0.028143
-0.053610
-0.023360
-0.015505
0.008389
-0.006560
0.011325
0.033736
0.084993
0.005314
0.026705
0.053896
0.202140
0.014647
0.120420
0.117706
0.116695
0.100840
0.047714
0.112059
0.130815
0.179616
0.124821
0.132717
0.216739
0.195755
0.115857
0.181796
0.141798
0.088603
0.107140
0.155753
0.075790
0.166699
0.124815
0.134466
0.055680
0.123726
-0.044287
0.024239
0.017138
0.012847
-0.029666
-0.022785
0.018610
0.012928
0.049093
-0.037508
0.073175
0.055917
-0.035226
0.050900
0.063499
0.005247
0.020585
-0.023924
-0.001983
0.004984
-0.011299
-0.072324
-0.024401
-0.003903
0.023003
0.056553
0.359544
0.537412
0.946202
1.264212
1.301940
1.290236
1.177707
0.869199
0.421829
0.207656
-0.111990
-0.269660
-0.260315
-0.202248
-0.130535
-0.143349
-0.062246
0.126798
-0.071169
0.096127
-0.005705
-0.017325
0.038229
0.029702
0.044729
0.051015
0.114336
0.139704
0.084004
0.068252
0.098060
0.173474
0.109240
0.229948
0.147089
0.207246
0.315284
0.172516
0.256091
0.262914
0.304048
0.319982
0.376391
0.335312
0.339895
0.370434
0.379011
0.354393
0.475181
0.452639
0.532769
0.368095
0.473686
0.562997
0.486640
0.565879
0.528364
0.553574
0.604443
0.576926
0.580605
0.498144
0.445940
0.562760
0.489383
0.500676
0.421157
0.409082
0.410006
0.342255
0.488069
0.266660
0.367208
0.318348
0.286958
0.203566
0.156271
0.278100
0.206353
0.223994
0.144759
0.152765
0.135825
0.139494
0.197175
0.124007
0.164756
0.047047
0.054026
0.098926
-0.004581
0.054107
0.048833
0.118746
0.067694
0.105492
0.055005
0.019515
0.157199
0.037456
0.028326
0.038717
-0.027990
0.043878
-0.040721
0.068655
0.040589
0.049220
0.042581
-0.011910
0.081288
0.080132
-0.050903
0.047856
0.080562
0.044335
0.014038
0.031937
0.096036
0.067367
-0.005659
0.061791
0.004219
0.003209
0.124140
0.105107
0.072072
-0.036701
0.102945
0.062772
-0.006092
0.107579
0.019054
0.014156
0.078494
0.058357
0.099010
0.069933
0.029178
0.112497
0.012663
0.022448
0.108436
0.033610
-0.013088
0.030311
-0.011322
0.077011
-0.045643
0.019583
0.064095
0.002664
-0.006350
0.093506
0.130441
0.038145
0.048094
0.024251
0.080895
0.124028
0.141064
0.086724
0.171891
0.101065
0.128409
0.219625
0.138817
0.124194
0.208147
0.154303
0.189744
0.310738
0.259605
0.226480
0.201503
0.298541
0.270955
0.230454
0.155008
0.247264
0.193342
0.201100
0.120280
0.100227
0.181698
0.088617
0.076122
0.127523
0.079661
0.063947
0.155499
0.037516
-0.001479
0.097426
0.045356
0.131681
0.152531
0.012481
0.046885
0.107241
0.084596
0.056774
0.012781
0.023550
0.030597
0.023161
0.055244
-0.019280
-0.034060
-0.011645
0.074583
0.224931
0.461006
0.920719
1.183384
1.439600
1.394339
1.290746
0.964850
0.652552
0.262016
-0.021414
-0.208089
-0.274989
-0.195958
-0.114858
-0.032295
-0.027257
-0.010426
0.049256
0.037844
0.035314
0.037147
0.005090
0.115212
0.062704
0.028441
0.073484
0.138677
0.106442
0.101033
0.032370
0.133670
0.119926
0.072380
0.123969
0.224134
0.177187
0.240891
0.194099
0.238394
0.283838
0.242241
0.350076
0.245806
0.314291
0.302997
0.360385
0.426973
0.488939
0.398469
0.460775
0.485575
0.462167
0.546427
0.455980
0.550858
0.528569
0.498333
0.602709
0.527131
0.472032
0.602895
0.464163
0.526538
0.446629
0.388330
0.399070
0.345624
0.440853
0.307531
0.310170
0.331641
0.354033
0.336595
0.245567
0.173873
0.225317
0.213060
0.153499
0.084176
0.169593
0.204643
0.215657
0.116003
0.146143
0.138348
0.101529
0.079155
0.060154
0.037141
0.035656
0.161935
0.028319
0.061179
0.005012
-0.044863
-0.068949
0.057463
0.006810
0.081550
0.019759
-0.107204
-0.034776
0.051119
0.026934
0.075788
-0.038217
-0.056047
-0.053856
0.093764
-0.068079
-0.012271
0.039269
-0.012568
-0.099572
-0.064728
-0.013887
-0.037244
0.013666
0.070208
-0.036053
-0.066119
-0.069502
-0.068663
-0.013000
-0.113654
-0.114592
-0.066993
-0.005186
0.031217
-0.049019
-0.025167
-0.000758
-0.026627
-0.058344
-0.070632
-0.013173
-0.020724
0.001505
-0.035825
-0.034863
-0.050343
-0.103365
-0.024619
-0.054046
-0.040418
-0.005151
0.037564
-0.031710
-0.026305
-0.118967
0.047747
-0.084006
0.072330
-0.061249
-0.042239
0.054253
-0.050737
-0.004357
-0.004206
0.034043
0.052217
0.025071
0.099980
0.080837
0.075727
0.011710
0.014282
0.102950
0.132454
0.091615
0.053220
0.107534
0.153434
0.212201
0.115789
0.098335
0.064850
0.125557
0.109633
0.080781
0.031058
0.104799
0.071058
0.022370
0.044314
0.026981
-0.038858
0.051196
0.002107
-0.041947
-0.040113
-0.026398
-0.008771
-0.061045
-0.076415
-0.033435
-0.048213
-0.064923
-0.123364
-0.134778
-0.060187
-0.066853
-0.055416
-0.098690
-0.100788
-0.055947
-0.106362
-0.103284
-0.082384
-0.118916
0.076876
0.402878
0.632538
0.984151
1.211446
1.281408
1.173751
0.974879
0.613550
0.147563
-0.069579
-0.272343
-0.216465
-0.316941
-0.303761
-0.181391
-0.084933
-0.113296
-0.086621
-0.074549
-0.087835
-0.079479
-0.060461
-0.030610
-0.040126
-0.013280
-0.077064
0.027239
0.003424
-0.052437
-0.017478
0.004947
0.065689
0.029675
0.013964
-0.046780
0.095038
0.123788
0.061412
0.183406
0.124493
0.188729
0.194270
0.213065
0.204363
0.274663
0.249625
0.236414
0.338917
0.318556
0.358114
0.378341
0.408477
0.450868
0.373020
0.404319
0.394924
0.469177
0.372696
0.429514
0.379194
0.411958
0.317510
0.489298
0.313280
0.389081
0.293067
0.318980
0.253037
0.292072
0.214048
0.181728
0.283705
0.127519
0.217054
0.204583
0.130400
0.117855
0.077689
0.198799
0.040632
0.063079
0.157169
-0.018343
0.003618
-0.033793
-0.021381
-0.011970
0.008917
-0.060979
-0.066640
-0.055047
-0.049353
0.035206
-0.122428
-0.081105
-0.046742
-0.133940
-0.103955
-0.067856
-0.031817
-0.138666
-0.065960
-0.057929
-0.116204
-0.056425
-0.093737
-0.121311
-0.092394
-0.096265
-0.079248
-0.114665
-0.079836
-0.159088
-0.037005
-0.101383
-0.054520
-0.112360
-0.073002
-0.083028
-0.058508
-0.085031
-0.105127
-0.172724
-0.085482
-0.001820
-0.169814
-0.071835
-0.123821
-0.148741
-0.080257
-0.019263
-0.062949
-0.050853
-0.072545
-0.087903
-0.111196
-0.120878
-0.082338
-0.094430
-0.060510
-0.175228
-0.084472
0.013620
-0.105679
-0.064436
-0.108290
-0.065737
-0.091395
-0.098399
0.018854
-0.063059
-0.039113
-0.047250
-0.076719
-0.041017
-0.016486
-0.082778
-0.044539
0.000694
-0.062021
-0.014993
0.047315
0.061703
0.054368
-0.020984
0.026660
0.095331
-0.003792
-0.002676
0.036528
0.176786
0.037908
0.177326
0.056762
0.099159
0.028351
0.108673
0.115569
0.087121
0.046097
-0.064790
0.026465
0.020512
0.116130
0.028797
0.016793
-0.008839
-0.056315
0.010978
-0.038272
0.043025
0.014771
-0.036937
0.003433
-0.060080
0.011013
-0.092217
-0.051917
-0.109832
-0.127583
-0.054594
-0.045813
-0.058994
-0.083649
-0.070349
-0.103333
-0.084066
-0.112681
-0.118810
-0.032498
0.095671
0.280116
0.485724
0.892852
1.195464
1.392491
1.277286
1.056234
0.691747
0.360298
0.009563
-0.130485
-0.274328
-0.329470
-0.209890
-0.160885
-0.140890
-0.063267
-0.011073
-0.061450
0.028350
0.025732
-0.039015
-0.046313
0.017969
0.031576
-0.034504
-0.039653
0.039712
-0.000982
0.039985
0.013344
0.067203
0.032691
0.099383
0.181199
0.101604
0.232924
0.141116
0.147075
0.224460
0.223111
0.123866
0.271755
0.282237
0.366693
0.394246
0.303529
0.368082
0.480609
0.400298
0.459528
0.412490
0.319956
0.397179
0.451736
0.439917
0.402259
0.451265
0.461649
0.480286
0.442718
0.428964
0.443103
0.449763
0.414464
0.397740
0.404806
0.440266
0.383476
0.337226
0.317949
0.399393
0.248639
0.215084
0.177477
0.229632
0.189042
0.157833
0.189888
0.112358
0.127204
0.108530
0.179145
0.084811
0.114833
0.099083
0.001410
0.051870
0.020566
-0.001018
0.047214
0.016987
-0.029692
-0.034511
-0.018002
0.044608
0.041429
-0.042399
-0.030370
0.058326
-0.011699
-0.065593
0.043822
-0.024488
-0.006869
-0.017074
-0.050908
0.047722
0.005845
0.011343
0.010662
-0.013747
-0.025880
0.020209
0.042400
0.024450
0.010667
0.060000
0.006458
0.021638
0.018477
0.009330
0.113841
0.007822
0.002717
-0.056750
0.036043
0.022205
0.034466
-0.001815
0.081320
0.018214
0.022946
-0.030663
0.023289
0.089034
0.026320
0.055078
-0.032352
0.042363
0.016211
0.085400
-0.008176
0.031527
0.084276
0.075100
0.065468
-0.033161
-0.028046
0.021980
0.050976
0.037473
-0.020092
0.072553
0.052531
0.105398
0.099997
0.065740
0.134171
0.135082
0.088459
0.100125
0.114301
0.143267
0.138033
0.069467
0.099333
0.189881
0.171083
0.231071
0.197481
0.193152
0.294516
0.244734
0.227270
0.192984
0.163204
0.152086
0.118435
0.216530
0.193064
0.187896
0.145784
0.164881
0.129137
0.128622
0.098594
0.123365
0.009334
0.156319
0.061980
0.103522
0.128687
0.143095
0.022373
0.108442
0.008879
0.064896
0.099921
0.016773
0.072916
0.138115
0.058379
0.055694
0.064845
0.027328
0.055125
0.051600
-0.013005
0.112306
0.166222
0.277642
0.620416
0.921089
1.242592
1.345551
1.421352
1.270656
0.834924
0.560128
0.225375
0.037970
-0.208133
-0.215069
-0.117146
-0.091224
0.033450
0.045752
0.059444
0.163192
0.012223
0.067334
0.081474
0.136993
0.076019
0.080224
0.072295
0.107715
0.137428
0.128296
0.154372
0.144114
0.132049
0.190266
0.222233
0.277970
0.202464
0.273400
0.314449
0.252157
0.311567
0.389081
0.342344
0.340916
0.376273
0.407913
0.420524
0.429633
0.461875
0.452154
0.461407
0.630467
0.547966
0.566215
0.552785
0.609675
0.535229
0.555489
0.559933
0.576011
0.522452
0.594859
0.513127
0.540538
0.507024
0.584836
0.530258
0.488612
0.463800
0.483215
0.444599
0.409090
0.416265
0.371880
0.406210
0.435735
0.330853
0.278547
0.197243
0.282275
0.195507
0.190536
0.190353
0.161637
0.216564
0.187370
0.160256
0.116385
0.164484
0.067014
0.112714
0.169446
0.147437
0.112230
0.055920
0.165778
0.105233
