-0.011812
-0.067795
0.032582
0.018961
-0.009576
-0.020256
0.040457
0.008227
-0.012720
0.009161
-0.049763
0.028688
0.001779
0.109072
0.039680
0.021193
0.089169
-0.002041
0.006107
0.001888
0.156437
0.084868
0.154951
0.140333
0.159920
0.191062
0.110461
0.138053
0.096977
0.184914
0.223316
0.212722
0.244860
0.176035
0.201527
0.199066
0.302565
0.141231
0.210705
0.207242
0.264547
0.195559
0.278716
0.167266
0.042823
0.078623
0.131664
0.123015
0.135339
0.081518
0.026377
0.075141
0.038739
0.082099
0.090130
0.055445
0.001235
0.083850
0.078347
0.068278
0.036696
0.051761
0.099916
0.337615
0.660023
0.981400
1.239286
1.488305
1.352952
1.227063
0.837024
0.499222
0.170327
0.021413
-0.117351
-0.101560
-0.056862
0.086347
0.125186
0.052726
0.164911
0.193684
0.175145
0.180633
0.171611
0.208321
0.222447
0.273097
0.233205
0.348426
0.321829
0.323570
0.323991
0.417242
0.402044
0.421814
0.381430
0.405389
0.501237
0.334769
0.509070
0.586269
0.525158
0.605738
0.612398
0.555892
0.607498
0.620986
0.639650
0.636594
0.717730
0.662438
0.609588
0.562126
0.650252
0.554653
0.612577
0.552876
0.546204
0.551474
0.508808
0.383782
0.411125
0.468020
0.504248
0.364997
0.357995
0.332442
0.344188
0.220222
0.253410
0.166801
0.124482
0.257550
0.194695
0.270988
0.164808
0.206448
0.236550
0.169396
0.134394
0.168121
0.078350
0.118042
0.058530
0.042664
0.112622
0.174520
0.095849
0.147560
0.190314
0.061046
0.109164
0.065723
0.024957
0.074560
0.043063
0.061626
0.134888
0.025608
0.045077
0.006945
-0.018210
0.057221
0.112498
0.016864
0.051363
0.152582
0.106877
0.120450
0.197364
0.059502
0.048073
0.026218
0.094530
0.108934
0.106050
0.105869
0.155244
0.139200
0.083641
0.162120
0.169795
0.042042
0.163712
0.063249
0.094536
0.108058
0.212425
0.044289
0.205465
0.162004
0.243012
0.195215
0.146341
0.291040
0.207700
0.318616
0.282701
0.238370
0.379327
0.390796
0.223915
0.184217
0.278907
0.252428
0.333667
0.237732
0.185418
0.223030
0.211234
0.294667
0.129860
0.172835
0.251015
0.124143
0.104748
0.066980
0.196091
0.144246
0.130895
0.186866
0.032546
0.133501
0.021315
0.080012
0.085140
0.091820
0.123572
0.126413
0.138637
0.306860
0.572958
0.871953
1.109215
1.366526
1.484208
1.407229
1.120973
0.785007
0.387555
0.211765
-0.034581
-0.006085
0.011615
0.062771
0.049288
0.096330
0.155573
0.176188
0.148244
0.224263
0.278324
0.215800
0.197076
0.232028
0.279114
0.327029
0.301722
0.347211
0.299030
0.380652
0.364144
0.429479
0.448449
0.483927
0.515976
0.523544
0.568206
0.443977
0.604601
0.492941
0.598484
0.582663
0.622613
0.591108
0.612609
0.690691
0.625890
0.634572
0.625763
0.521919
0.605398
0.494220
0.596382
0.496786
0.548816
0.504485
0.518131
0.430459
0.526075
0.453489
0.441911
0.431858
0.309516
0.367574
0.342574
0.312781
0.252647
0.242246
0.342355
0.337658
0.168591
0.212361
0.232529
0.184100
0.176299
0.226539
0.213928
0.136238
0.051607
0.069705
0.136813
0.103662
0.138891
0.115973
0.045201
0.126848
0.165078
0.071713
0.122714
-0.042064
-0.057536
0.011139
0.074853
0.118758
-0.016383
0.073886
-0.020327
0.132494
0.080437
0.042971
0.099112
0.091666
0.113950
0.020341
0.018646
-0.042607
0.066742
0.051556
0.057949
-0.004561
0.115201
-0.001619
0.055210
0.001351
0.021645
0.044756
0.080138
0.021223
0.093952
0.027988
0.102052
0.101497
0.137506
0.099637
0.101581
0.123113
0.138757
0.065377
0.170356
0.145969
0.162707
0.234864
0.223857
0.218394
0.204629
0.096168
0.207911
0.311136
0.241368
0.295352
0.137905
0.252489
0.153892
0.162392
0.212549
0.239044
0.141298
0.113635
0.177019
0.018727
0.147438
0.086975
0.087858
0.028951
0.102329
0.081647
0.037478
-0.014462
0.067536
0.033134
0.064467
0.025799
-0.003127
0.026725
-0.015286
0.090277
0.016291
0.155836
0.361890
0.611098
0.893612
1.238993
1.430562
1.334757
1.243270
0.924525
0.532103
0.130534
-0.051262
-0.215330
-0.255633
-0.128141
-0.033768
0.045455
0.033914
0.104360
0.103670
0.111101
0.112319
0.186455
0.136789
0.236288
0.159509
0.142940
0.162864
0.189561
0.277577
0.132296
0.306277
0.301706
0.304321
0.323640
0.378552
0.350644
0.477629
0.449481
0.527618
0.535164
0.469401
0.494602
0.440131
0.589972
0.456848
0.568338
0.552402
0.523650
0.455103
0.614482
0.461755
0.448538
0.473279
0.497131
0.455085
0.414729
0.447267
0.403337
0.300413
0.411778
0.294206
0.305446
0.461370
0.361947
0.283756
0.229644
0.159437
0.213414
0.126290
0.237146
0.167659
0.118258
0.167691
0.068285
0.099529
0.110341
0.009745
0.023904
0.020981
0.059338
-0.091030
-0.026386
-0.051125
-0.034551
-0.015488
0.023031
0.015505
-0.037831
0.041550
-0.012288
0.017170
-0.068607
-0.030870
-0.062304
-0.035911
-0.044869
-0.061875
-0.001414
-0.082427
-0.025076
-0.024541
-0.070191
0.010370
-0.066619
-0.067142
-0.107519
-0.015851
-0.022771
-0.069023
-0.087788
0.036481
-0.107184
0.008566
0.029904
-0.057213
-0.013032
-0.084047
0.013517
-0.043394
-0.033343
-0.009747
-0.054880
0.001542
0.045894
-0.026575
-0.028944
0.020453
0.111295
0.052114
-0.003767
-0.038893
0.088373
0.053960
0.107958
0.143544
0.159660
0.126597
0.170024
0.088056
0.132510
0.161879
0.156177
0.144308
0.189115
0.059213
0.155062
0.116709
0.170586
0.138774
0.030159
0.000596
0.072006
0.071250
0.037670
-0.030823
0.057374
-0.035092
0.013726
0.026781
-0.002161
-0.063877
-0.044678
-0.060021
-0.053186
-0.032111
-0.025226
-0.043081
0.072090
0.158896
0.317206
0.693067
0.925527
1.312825
1.318876
1.265773
1.000770
0.528829
0.281210
-0.011888
-0.206957
-0.175741
-0.177568
-0.093445
0.047284
0.077279
0.056181
0.064198
-0.050661
0.035606
0.137459
0.069895
0.123168
0.160524
0.138014
0.116197
0.149411
0.227167
0.187549
0.216113
0.294957
0.347097
0.255912
0.338744
0.325287
0.302772
0.404337
0.452239
0.447868
0.442469
0.551596
0.409801
0.443168
0.466084
0.556335
0.508059
0.528112
0.503658
0.540692
0.514145
0.469178
0.444927
0.338371
0.509183
0.443224
0.480925
0.413334
0.451082
0.412520
0.374018
0.309419
0.250600
0.300443
0.201451
0.252223
0.159371
0.201331
0.192359
0.206136
0.054292
0.168224
0.106506
0.087151
0.069615
0.057583
-0.025049
-0.023490
0.014803
0.030758
0.008333
0.038005
0.021689
0.057267
0.052449
-0.027390
-0.041386
-0.026767
-0.095850
0.047429
-0.099180
-0.041238
-0.049397
0.010665
0.061449
-0.040257
-0.115904
-0.079534
-0.072848
-0.133583
-0.039454
0.061891
0.002113
-0.029596
-0.088806
-0.019849
-0.095323
-0.062746
-0.070193
-0.076719
-0.031677
-0.075718
0.005259
0.090862
0.051754
-0.005751
-0.015332
0.017856
0.000372
0.047981
0.088756
0.019974
-0.010944
0.086944
0.054753
-0.016852
0.073018
0.114706
0.122527
0.133319
0.095482
0.126821
0.096359
0.122617
0.164304
0.142149
0.141227
0.216635
0.238216
0.253952
0.206824
0.173592
0.262562
0.174444
0.153751
0.162402
0.212219
0.108880
0.167713
0.104567
0.123731
0.039258
0.130698
0.088667
0.092451
0.062336
0.012594
0.057563
0.084365
0.126411
0.051345
0.044248
0.059435
0.130651
0.109756
0.031750
0.102787
0.119821
0.212451
0.286709
0.528511
0.830995
1.205596
1.281255
1.407453
1.237326
1.015202
0.547519
0.147417
-0.003306
-0.082617
-0.111143
-0.023642
-0.051507
0.040682
0.091852
0.080001
0.226217
0.190733
0.145528
0.142958
0.105371
0.231947
0.108253
0.186213
0.276950
0.258824
0.286551
0.334479
0.356386
0.436506
0.338393
0.465522
0.455144
0.505248
0.400349
0.431993
0.547446
0.503579
0.494224
0.438526
0.511751
0.605662
0.593182
0.499334
0.632203
0.570582
0.609272
0.590529
0.599474
0.545151
0.496858
0.505829
0.534381
0.609081
0.455516
0.435019
0.466123
0.454935
0.423443
0.430044
0.362396
0.311097
0.302179
0.275157
0.256282
0.305322
0.234927
0.206508
0.248314
0.214708
0.236944
0.170224
0.154686
0.165791
0.198069
0.107040
0.083422
0.183661
0.153085
0.131558
0.128097
0.053144
0.070284
0.050283
0.089457
0.048505
0.140966
-0.009263
0.162710
0.172106
0.023399
0.072472
0.155194
0.079986
0.121569
0.080976
0.067439
0.008662
0.087905
0.020894
0.050378
0.145435
0.014273
0.128746
0.086490
0.136039
0.105705
0.008826
0.018446
0.167290
0.062593
0.097352
0.034622
0.114858
0.072839
0.093737
0.128285
0.057539
0.200586
0.129578
0.120994
0.160344
0.148745
0.108622
0.163361
0.135085
0.186493
0.217125
0.215739
0.238425
0.235486
0.266914
0.226697
0.189164
0.248090
0.222244
0.272417
0.286154
0.354415
0.234460
0.295458
0.309361
0.221888
0.271285
0.175390
0.219038
0.264910
0.273256
0.139732
0.185992
0.128448
0.164898
0.147477
0.134987
0.128216
0.089767
0.121589
0.130424
0.169297
0.077710
0.120976
0.154721
0.066289
0.019802
0.092228
0.206806
0.311292
0.495868
0.771586
1.103557
1.394547
1.419512
1.423478
1.141516
0.884939
0.461720
0.145612
0.016955
-0.010409
-0.067224
-0.026627
0.011619
0.109888
0.188674
0.217531
0.172200
0.218750
0.237001
0.194393
0.250765
0.188940
0.354716
0.256505
0.289964
0.320082
0.290264
0.419944
0.409607
0.460288
0.515727
0.372856
0.488714
0.509199
0.561355
0.527421
0.619468
0.586927
0.568849
0.572097
0.650656
0.606016
0.632085
0.654665
0.631517
0.612059
0.625207
0.649668
0.623980
0.611609
0.631153
0.560187
0.652958
0.502153
0.569617
0.547711
0.577684
0.468064
0.451051
0.481012
0.337866
0.399248
0.249797
0.305413
0.327283
0.286101
0.273799
0.244202
0.295031
0.202274
0.291493
0.181074
0.193517
0.240915
0.213121
0.182752
0.177403
0.120381
0.158905
0.172039
0.110033
0.164132
0.113411
0.083892
0.122168
0.119751
0.058494
0.193381
0.068119
0.099286
0.112572
0.145330
0.035352
0.113252
0.054485
0.065643
0.157495
0.071830
0.001794
-0.004516
0.062284
0.054849
0.044268
0.139974
0.213626
0.159341
0.080801
0.153198
0.079763
0.021305
0.140539
0.068211
0.112987
0.114561
0.049974
0.034926
0.137469
0.087651
0.111680
0.036728
0.066544
0.168955
0.057823
0.099557
0.114836
0.259889
0.188196
0.229732
0.196347
0.112715
0.156415
0.261261
0.152718
0.196782
0.278744
0.262620
0.333881
0.286242
0.215736
0.255641
0.209085
0.184317
0.246644
0.224065
0.254114
0.187714
0.169351
0.168130
0.057915
0.193339
0.004769
0.118808
0.185608
0.113263
0.105344
0.045086
0.161728
0.122280
-0.049245
0.140139
0.127124
0.019377
0.062095
0.056496
0.125455
0.227154
0.281887
0.599020
0.862106
1.238562
1.396767
1.460344
1.222622
0.965395
0.549837
0.218052
-0.021839
-0.126294
-0.048213
-0.035582
0.026151
0.097950
0.137358
0.069029
0.148823
0.175949
0.221691
0.154936
0.135424
0.190804
0.122167
0.281040
0.265118
0.305249
0.283663
0.339959
0.357249
0.333047
0.274470
0.408401
0.403642
0.425768
0.455163
0.425829
0.530804
0.540187
0.549112
0.578938
0.534144
0.469952
0.522563
0.528215
0.563223
0.511009
0.553921
0.591836
0.507904
0.542272
0.485485
0.529506
0.485888
0.476477
0.444640
0.454214
0.389855
0.422544
0.405473
0.367029
0.377317
0.357058
0.355729
0.211471
0.184041
0.146525
0.231163
0.119084
0.203560
0.047870
0.167647
0.093664
0.167291
0.026532
0.077067
0.057905
0.059963
0.084884
-0.016148
0.005040
0.028745
-0.019536
0.060707
-0.080643
0.035142
0.016698
0.013599
0.023128
-0.107368
0.029620
0.090066
0.030277
-0.071745
-0.024301
0.007383
0.021978
-0.031586
-0.006350
-0.060151
-0.014854
-0.121678
0.069292
-0.001620
0.007309
-0.036659
-0.007391
0.013744
0.039782
-0.014160
0.002176
-0.133483
0.009217
-0.041027
0.098785
-0.003246
-0.004964
-0.035348
-0.060096
-0.079976
0.050244
-0.005732
0.006609
-0.008166
0.103199
-0.021817
-0.002691
0.069764
0.014604
0.116541
0.171119
0.066474
0.076021
0.103296
0.115512
0.107013
0.109248
0.130185
0.175024
0.114324
0.182567
0.060257
0.155587
0.101736
0.182628
0.088776
0.093764
0.120445
0.190522
0.026964
0.106214
0.076961
0.004948
0.006278
0.022843
0.002667
-0.017854
-0.043254
-0.028750
-0.053886
-0.071905
-0.077237
-0.024690
-0.019150
-0.115695
-0.050817
-0.081207
0.068646
0.253957
0.652675
0.955470
1.197068
1.384955
1.294399
1.038365
0.773547
0.345380
0.121642
-0.158417
-0.292868
-0.209159
-0.147581
-0.005990
-0.019217
-0.038582
0.051697
0.039347
0.000236
0.028197
0.137975
0.063246
0.061955
0.191949
0.152447
0.092635
0.158936
0.133994
0.239154
0.255510
0.300636
0.274326
0.213534
0.363327
0.307808
0.299268
0.445795
0.312382
0.357987
0.391634
0.421018
0.476180
0.455091
0.493938
0.441311
0.470731
0.550033
0.487044
0.499342
0.484635
0.475781
0.394701
0.400494
0.359398
0.333789
0.300539
0.276790
0.263278
0.301412
0.280633
0.296095
0.257800
0.190027
0.155126
0.192580
0.214676
0.207027
0.172276
0.096249
0.009596
-0.071078
0.048698
0.049618
-0.057313
0.008142
0.005040
0.033782
-0.022507
0.038781
-0.026697
0.077533
-0.097380
-0.010471
-0.000817
-0.043404
0.031229
-0.083540
-0.141554
-0.084993
-0.080952
-0.064628
-0.128134
-0.088809
-0.045322
-0.096009
-0.121081
-0.081268
-0.110666
0.036883
-0.102044
-0.012471
-0.111569
-0.018000
-0.109027
-0.108095
-0.052285
-0.091924
-0.060583
-0.120604
-0.010046
-0.015556
-0.110553
-0.049140
-0.114141
-0.031580
-0.037335
-0.086875
-0.033985
-0.009412
-0.030580
-0.034657
-0.065452
-0.023481
-0.007342
0.052526
-0.038689
0.008668
0.112946
0.110504
-0.058165
0.077535
0.073323
0.073404
0.097547
0.113791
0.030877
0.107714
0.165119
0.183398
0.126826
0.096116
0.089466
0.001021
0.089799
0.100660
0.043535
0.056945
0.068196
-0.018363
0.047897
0.056595
-0.014503
-0.033105
-0.029516
0.000360
-0.058933
-0.061289
-0.070874
0.025611
-0.080591
-0.073944
-0.107285
-0.015839
-0.092809
-0.070419
-0.090880
0.052534
0.188335
0.406783
0.629486
1.016991
1.299057
1.339826
1.240481
0.930061
0.478930
0.094809
-0.102182
-0.221932
-0.186561
-0.167106
-0.154145
0.016428
-0.060098
0.059004
0.089622
0.103198
0.030840
0.105292
0.113469
0.142608
0.053955
0.122330
0.142901
0.107377
0.199109
0.109722
0.241672
0.326577
0.278028
0.315269
0.376553
0.257546
0.333521
0.379816
0.383611
0.345841
0.382475
0.515798
0.491795
0.496348
0.458820
0.457971
0.490481
0.537713
0.486129
0.538687
0.441666
0.519563
0.434313
0.389313
0.397022
0.421855
0.411036
0.402913
0.341997
0.276379
0.261472
0.292428
0.316021
0.295373
0.176409
0.148919
0.174020
0.166552
0.170563
0.159920
0.102816
0.048148
0.115510
0.154730
0.067180
0.049465
0.095546
0.051018
0.114321
-0.022313
0.089168
-0.081956
0.065767
0.016428
-0.042706
0.069563
0.005659
0.007871
0.012384
-0.066281
0.032063
-0.006208
0.040793
0.033635
0.038454
-0.086141
-0.100396
-0.050023
-0.065244
0.051591
-0.012956
-0.051073
-0.043836
-0.060413
0.001201
0.008708
0.000966
0.004149
-0.037592
0.063578
0.062697
0.028017
0.029958
0.008526
-0.073806
0.024513
-0.049543
0.006873
-0.022209
0.012477
0.006276
-0.006428
0.018266
0.039948
0.039046
0.057169
0.042064
0.032205
0.084620
0.080374
0.181935
0.130100
0.088307
0.126792
0.171351
0.196693
0.130045
0.208843
0.224294
0.237465
0.125059
0.194220
0.194983
0.185157
0.205247
0.077565
0.091753
0.168135
0.183928
0.040146
0.160861
0.163144
0.101283
0.024651
0.061921
0.065823
-0.019476
-0.037105
0.088817
0.044899
0.109301
0.033913
-0.017618
0.006803
0.090070
0.032640
-0.039088
0.104448
0.212025
0.337259
0.625871
0.904849
1.314476
1.414973
1.429620
1.201882
0.767884
0.423320
0.157819
-0.177417
-0.125233
-0.104676
-0.042165
-0.043680
0.119455
0.178524
0.153996
0.075886
0.114891
0.049130
0.193707
0.217979
0.239782
0.227235
0.253814
0.235972
0.270618
0.270041
0.395233
0.292917
0.359802
0.263466
0.389682
0.473087
0.367978
0.414468
0.449003
0.506270
0.486820
0.469815
0.591929
0.616109
0.540734
0.494663
0.565028
0.622914
0.602304
0.680219
0.555161
0.563664
0.538855
0.481545
0.601671
0.486897
0.437761
0.455763
0.420348
0.443131
0.395807
0.427103
0.385273
0.413456
0.276067
0.240579
0.266303
0.291393
0.170438
0.154590
0.227051
0.167766
0.147384
0.184881
0.144252
0.134164
0.092397
0.139462
0.106598
0.030411
0.113077
0.087296
0.095251
0.045235
0.115179
0.032425
0.117572
0.059047
0.078373
0.096617
0.232845
0.020905
0.098106
-0.012319
0.068339
0.068728
0.066414
0.085051
0.088060
0.089214
0.059834
0.165004
0.038329
0.004336
0.086744
0.141412
0.077923
0.017078
0.048435
0.048152
-0.035149
0.096038
0.041902
-0.010495
0.044082
0.083812
0.102258
0.143870
0.029069
0.078064
0.081328
0.066059
0.041399
0.004267
0.163166
0.152101
0.107544
0.037923
0.110396
0.223417
0.089432
0.174733
0.161088
0.230056
0.166620
0.210514
0.204341
0.245350
0.175195
0.230979
0.204548
0.195461
0.332592
0.172992
0.242186
0.200294
0.202248
0.181862
0.201362
0.088089
0.105520
0.197668
0.057062
0.032109
0.072003
0.127029
0.047277
0.107716
0.117681
0.083160
0.095494
0.055333
0.058929
0.105457
0.045314
0.084744
0.132980
-0.013535
0.133091
0.199377
0.444393
0.814867
1.216795
1.427086
1.482750
1.356142
1.060447
0.677501
0.242409
0.093090
-0.071499
-0.136595
-0.099508
0.091109
0.018595
0.064186
0.139732
0.102067
0.112926
0.067741
0.122562
0.203239
0.236769
0.203300
0.251198
0.180059
0.262405
0.295939
0.341307
0.333249
0.284744
0.327901
0.298844
0.327026
0.392123
0.392275
0.434005
0.410564
0.513925
0.578753
0.558531
0.547425
0.530868
0.591507
0.484637
0.576832
0.589870
0.543703
0.506996
0.508228
0.542745
0.579205
0.586129
0.530015
0.473630
0.448879
0.464316
0.454842
0.412996
0.322485
0.370630
0.379733
0.335126
0.382681
0.235491
0.228943
0.283308
0.088338
0.193783
0.195560
0.131861
0.207516
0.143175
0.204486
0.072436
0.075405
0.106913
0.101271
0.058459
0.080715
0.019371
-0.025391
0.095631
0.065126
0.042323
0.055402
0.020171
-0.047517
-0.034819
0.014565
0.093050
-0.009469
0.016779
-0.036270
0.015031
-0.030035
-0.075018
-0.053455
0.032122
-0.030764
-0.037420
0.021556
0.110898
0.112105
0.029129
0.029917
0.099500
0.092424
-0.036854
0.060605
-0.081332
-0.138275
0.006963
-0.046357
0.087729
-0.013062
0.005546
-0.016293
0.009695
-0.008674
0.010608
-0.027552
0.072169
0.107712
0.052824
0.074210
0.003871
0.100043
0.066687
0.077637
0.096503
0.093747
0.212203
0.177504
0.105910
0.320685
0.162965
0.109849
0.111680
0.073205
0.219728
0.169658
0.125903
0.065510
0.094212
0.118960
0.138795
0.134900
0.067344
0.072904
0.158058
0.035782
0.098019
0.119065
0.004074
0.050525
-0.052888
-0.024132
-0.035632
-0.013265
0.020897
-0.051475
-0.016446
0.010373
-0.045243
0.047231
-0.009904
0.079490
0.366579
0.566926
0.907805
1.177920
1.348307
1.284938
1.147811
0.758765
0.357111
0.017850
-0.098334
-0.179453
-0.110263
-0.168646
0.026921
-0.011318
-0.019224
0.018979
0.110572
0.035413
-0.010354
0.022978
0.028138
0.133390
0.096859
0.129778
0.169078
0.142743
0.189010
0.072021
0.187044
0.241252
0.264206
0.330388
0.203951
0.399511
0.322961
0.435902
0.378304
0.454912
0.456704
0.406947
0.343182
0.434993
0.442600
0.416118
0.466993
0.509092
0.510204
0.435286
0.439460
0.405075
0.381421
0.406641
0.384050
0.290243
0.338220
0.349025
0.274790
0.305133
0.367426
0.302554
0.246093
0.313108
0.206299
0.142219
0.242749
0.123071
0.101007
0.194139
0.172593
0.101709
0.033857
-0.003663
0.055306
0.038416
0.040702
0.016549
0.004053
0.053716
-0.016469
-0.046137
-0.047159
-0.028439
-0.068802
-0.045647
-0.103312
-0.094871
-0.066256
-0.093850
-0.092706
-0.113892
-0.099301
-0.099314
-0.066126
-0.174733
-0.073703
-0.183801
-0.138662
-0.040322
-0.159536
-0.017797
-0.135556
-0.122691
-0.071124
-0.108263
-0.069129
-0.234743
-0.122937
-0.087871
-0.164440
-0.101741
-0.125244
-0.054061
-0.087486
0.007457
-0.057780
0.004411
-0.041273
-0.034920
-0.025782
-0.109365
-0.008133
-0.135510
-0.049294
0.012414
0.025825
-0.110897
-0.007134
0.012991
0.093702
0.048976
-0.053958
0.001795
0.076140
0.064105
0.060582
0.082460
0.010370
0.049990
0.061350
0.061335
0.148530
0.013678
0.180434
0.038411
0.089172
-0.006122
0.058225
0.078748
0.006831
-0.073711
0.040129
0.016021
-0.130825
-0.029028
-0.018957
-0.116166
-0.035721
-0.119495
-0.149094
-0.130180
-0.119141
-0.069086
-0.142892
-0.092992
-0.157650
-0.022510
0.081427
0.384509
0.727664
1.039156
1.273923
1.368904
1.180900
0.905874
0.510942
0.163306
-0.068864
-0.145625
-0.271718
-0.212798
-0.131478
-0.035776
-0.070052
-0.080329
0.012811
-0.034503
0.003542
0.040743
0.092419
0.036218
0.062042
0.194709
0.072033
0.148353
0.206637
0.131478
0.201996
0.213619
0.249466
0.201427
0.306258
0.375838
0.220605
0.373202
0.374682
0.437582
0.422457
0.384377
0.387063
0.463801
0.438741
0.428256
0.497029
0.426676
0.327686
0.447048
0.428472
0.436990
0.550361
0.398862
0.476106
0.342203
0.380986
0.243446
0.380341
0.300965
0.316496
0.240121
0.189156
0.188001
0.214958
0.229963
0.126064
0.029944
0.026509
0.096063
0.059330
0.080919
0.048417
0.116286
0.074813
-0.080070
-0.012180
-0.015073
0.008393
-0.135560
-0.039093
-0.029914
-0.142364
-0.042585
-0.108078
-0.095054
-0.086163
0.040030
-0.155660
-0.096765
-0.098422
-0.077315
-0.083923
-0.131695
-0.084636
-0.115890
-0.125648
0.041829
-0.022553
-0.031022
-0.123149
-0.042496
-0.022844
-0.052125
-0.111662
-0.060455
-0.087416
-0.055964
-0.034844
-0.112324
-0.048425
-0.031556
-0.087327
-0.049699
-0.069348
-0.043565
-0.078450
-0.021324
-0.005641
0.011969
-0.049875
-0.032173
-0.068735
-0.098992
-0.012822
0.013490
0.064339
0.013891
0.029903
-0.002743
0.078830
0.023871
0.089930
0.164479
0.063032
0.088400
0.107198
0.206110
0.218230
0.134536
0.115228
0.128999
0.089117
0.142566
0.052383
0.121593
-0.005889
0.088912
0.116973
0.090508
0.090973
0.037271
0.112415
0.087598
-0.003934
0.012517
0.021549
-0.017123
-0.005696
-0.092455
-0.038445
-0.014923
-0.049403
-0.011970
-0.011526
0.085824
0.049413
0.100300
0.117459
0.301373
0.540738
0.920401
1.139762
1.255989
1.412380
1.102460
0.747019
0.421663
0.078340
-0.096925
-0.163436
-0.222388
-0.109049
-0.004704
-0.020344
-0.049978
0.067344
0.014134
0.088896
0.069483
0.019076
0.162794
0.078778
0.139789
0.153756
0.151856
0.182703
0.388046
0.336079
0.251168
0.272294
0.384788
0.473760
0.442313
0.355924
0.455651
0.473094
0.443246
0.487880
0.547411
0.533527
0.492705
0.461445
0.514312
0.537062
0.599655
0.465092
0.517395
0.526947
0.505887
0.526746
0.529547
0.525635
0.472158
0.554836
0.426151
0.407949
0.441230
0.448739
0.431354
0.407763
0.453788
0.284916
0.326397
0.215707
0.220387
0.270477
0.247586
0.161568
0.124650
0.161351
0.161396
0.288081
0.036519
0.128571
0.055865
0.143389
0.089416
0.088593
0.069536
-0.003830
0.087638
-0.033080
0.068143
0.035348
0.030292
0.048502
-0.034930
0.010109
0.058237
0.037253
0.011909
0.021697
0.070179
0.000154
0.059551
0.048940
0.044264
0.045588
0.149100
0.007887
0.152130
0.090900
0.107432
0.094068
0.012286
0.064268
0.023782
0.018110
-0.000407
0.067801
0.117968
0.113321
0.067518
0.045387
-0.006933
0.045927
-0.003957
0.047263
0.065161
0.046378
0.154551
0.177507
0.019682
0.237406
0.129115
0.127002
0.170215
0.110134
0.199806
0.259057
0.227417
0.234633
0.184712
0.236512
0.195965
0.275004
0.225016
0.270020
0.140272
0.334921
0.223450
0.211673
0.164114
0.139963
0.283683
0.189023
0.125732
0.186005
0.170832
0.132957
0.099030
0.126835
0.058344
0.163584
0.019884
0.028349
0.150494
0.130257
0.067327
-0.030330
0.065361
0.168265
0.105413
0.024661
-0.007442
0.141306
0.286907
0.445356
0.691957
1.152406
1.409089
1.500000
1.394370
1.060417
0.691169
0.393939
0.035375
-0.142920
-0.084989
-0.107406
0.034069
0.057460
0.121599
0.064114
0.125666
0.136652
0.203425
0.175570
0.187631
0.152292
0.228524
0.230635
0.286682
0.180767
0.251780
0.364929
0.355745
0.321696
0.409353
0.360652
0.419828
0.496638
0.435383
0.440934
0.519139
0.531056
0.640525
0.643305
0.562326
0.617058
0.623208
0.528830
0.522189
0.623810
0.592914
0.544536
0.656781
0.673683
0.579608
0.595486
0.570426
0.497559
0.515753
0.564338
0.495674
0.390446
0.495212
0.468045
0.335843
0.508890
0.406570
0.274338
0.262002
0.377292
0.329637
0.259158
0.302422
0.283148
0.167634
0.110129
0.111961
0.138128
0.091986
0.154340
