-0.001566
-0.024411
0.009818
-0.093308
0.034581
-0.054131
0.002713
0.021811
0.023981
-0.111033
0.062473
0.080457
0.041576
0.009502
0.016098
0.027492
-0.039696
0.011976
0.024531
0.077785
0.080217
-0.009419
0.121003
0.044255
0.132195
0.170142
0.184812
0.085206
0.147966
0.139264
0.172899
0.155598
0.246544
0.152754
0.226858
0.120000
0.230796
0.213592
0.157388
0.145464
0.213348
0.121257
0.219211
0.208036
0.175809
0.075210
0.156697
0.172565
0.106683
0.019103
0.048265
0.114381
0.101077
0.080740
0.099296
0.043369
0.022234
0.045558
0.028607
-0.085712
0.020304
0.081281
0.104206
0.173954
0.317267
0.418056
0.726384
1.083514
1.355582
1.409854
1.227670
1.037287
0.592092
0.330821
-0.036697
-0.085896
-0.120877
-0.038000
-0.058275
0.043041
0.091657
0.128730
0.158817
0.058443
0.116901
0.126958
0.217796
0.249599
0.228128
0.215436
0.212165
0.190613
0.215582
0.275727
0.331782
0.344171
0.333003
0.396228
0.353909
0.448724
0.398055
0.460657
0.462405
0.470322
0.445508
0.596450
0.490788
0.550794
0.541246
0.686887
0.682772
0.526662
0.555636
0.610932
0.541903
0.584013
0.656236
0.632970
0.520016
0.523043
0.427560
0.482316
0.472352
0.388951
0.455123
0.434545
0.409987
0.418456
0.391971
0.345564
0.351469
0.272043
0.257706
0.283869
0.312347
0.290544
0.215281
0.134839
0.144849
0.225149
0.132622
0.117861
0.147422
0.120916
0.106738
0.103751
0.107398
0.154207
0.096337
0.099670
0.110045
0.074600
0.035561
0.119398
0.228118
0.103634
0.071404
0.056640
0.200036
0.049424
0.037354
0.109010
0.139523
0.112495
0.157593
0.141120
0.027911
0.146592
0.024532
0.075481
0.155485
0.117698
0.053923
-0.001483
0.091747
0.047118
0.072704
0.072895
0.081332
0.049724
0.124141
0.044994
0.154152
0.108778
0.061495
0.206980
0.123764
0.068076
0.055254
0.198845
0.071929
0.216171
0.114166
0.112467
0.171222
0.156468
0.180879
0.216113
0.240309
0.220397
0.295300
0.268047
0.275830
0.237726
0.222146
0.300641
0.274849
0.328323
0.314446
0.235092
0.275014
0.200614
0.246067
0.236783
0.201841
0.256511
0.294021
0.252282
0.189407
0.243893
0.169720
0.218216
0.120106
0.177747
0.108607
0.108484
0.126460
0.140725
0.116255
0.046655
0.091015
0.161301
0.053108
0.089727
0.166452
0.129478
0.256234
0.368754
0.648237
0.935057
1.276570
1.397288
1.380732
1.169107
0.794339
0.492867
0.261743
-0.001593
-0.045320
-0.055877
-0.004241
0.082752
0.117697
0.091240
0.110375
0.078114
0.152610
0.184486
0.197544
0.202827
0.220975
0.176654
0.201817
0.269356
0.263704
0.331315
0.368243
0.271621
0.366975
0.346933
0.383987
0.377285
0.416276
0.473292
0.432997
0.484532
0.551073
0.576000
0.567355
0.550732
0.572088
0.634379
0.595678
0.637274
0.627071
0.521211
0.513718
0.547083
0.592245
0.586541
0.577840
0.497904
0.501605
0.388717
0.530454
0.496301
0.464261
0.492389
0.427435
0.365966
0.328075
0.351772
0.392569
0.354726
0.304437
0.222560
0.259939
0.158564
0.212774
0.223190
0.247815
0.149184
0.197194
0.127027
0.179052
0.067301
0.144053
0.088401
0.135692
0.106463
0.190955
0.140141
0.081435
0.072902
0.006399
0.063087
0.017815
0.021730
0.135925
0.101670
0.072172
0.094800
0.114643
0.039894
-0.030491
0.037513
0.010421
0.105476
-0.035116
0.101750
0.038406
0.026366
0.015826
0.013524
-0.090152
-0.010588
0.121724
0.062507
-0.018777
0.058514
-0.023558
0.054653
0.054115
0.048176
0.034977
0.067931
0.077655
-0.027630
0.082260
0.087673
0.025050
0.110011
0.089577
0.075972
0.095151
0.157906
0.125233
0.130238
0.147566
0.156200
0.240351
0.121460
0.174177
0.194740
0.275716
0.192512
0.159284
0.244716
0.149958
0.221547
0.154469
0.185761
0.138683
0.175313
0.242906
0.170846
0.174637
0.227347
0.185933
0.097485
0.091513
0.029667
0.098584
0.081496
0.111642
0.143647
0.142531
0.125725
0.006165
0.122501
0.043703
0.001773
-0.075614
0.045149
0.081054
-0.002197
0.032299
0.028352
0.170441
0.304171
0.404604
0.754192
1.015390
1.317552
1.361284
1.234255
0.835691
0.609638
0.344348
0.031324
-0.120347
-0.077039
-0.056805
0.003023
0.030516
0.051720
0.071529
0.029755
0.108026
0.127289
0.143547
0.162589
0.070966
0.170712
0.233691
0.189570
0.184235
0.184727
0.256355
0.241935
0.283214
0.243788
0.250865
0.353732
0.337411
0.334958
0.480262
0.306513
0.432351
0.418212
0.510611
0.466479
0.372175
0.463019
0.502261
0.564425
0.474512
0.479062
0.567507
0.408227
0.518052
0.498505
0.514431
0.471856
0.481713
0.468924
0.323079
0.371054
0.351805
0.339457
0.334955
0.334208
0.285786
0.315973
0.270738
0.198895
0.164542
0.171666
0.103157
0.109206
0.080654
0.129702
0.018186
-0.059411
0.039293
0.025635
0.069038
-0.011428
0.025105
0.034964
-0.069782
-0.009890
-0.003837
-0.004597
0.053893
-0.020403
-0.035032
-0.029182
-0.047173
-0.071735
-0.023340
-0.053079
0.012935
-0.024164
-0.084508
-0.008900
-0.072743
-0.032563
-0.002481
0.007235
-0.004572
-0.046547
-0.067340
0.035062
-0.055670
-0.024810
-0.086066
-0.022139
-0.069055
-0.122754
-0.101809
-0.004902
-0.080735
-0.051796
-0.098920
-0.016144
-0.000491
-0.002942
-0.003809
-0.043687
-0.015838
-0.047653
-0.005935
-0.017090
0.008035
-0.057295
-0.075949
-0.002482
-0.032453
0.009726
-0.003826
0.077332
0.077676
-0.019845
0.119745
0.073111
0.064780
0.115629
0.131550
0.142776
0.167048
0.133467
0.142769
0.118744
0.134976
0.119485
0.102952
0.118939
0.012819
0.076494
0.090403
0.047560
0.071617
0.104134
0.057461
0.011843
-0.051659
-0.051624
0.035764
-0.008369
0.039185
-0.019861
-0.008682
-0.015046
0.042969
-0.024481
-0.011028
-0.050668
-0.030580
-0.047384
0.058039
0.090171
0.238828
0.569418
0.951841
1.144399
1.319883
1.166452
1.028182
0.696919
0.389620
0.008753
-0.093698
-0.174511
-0.113453
-0.083582
-0.082006
0.016235
-0.022009
0.058160
-0.024344
-0.001347
-0.008730
0.046514
0.159924
0.091944
0.133973
0.051136
0.166871
0.207407
0.323311
0.118616
0.279642
0.216349
0.279950
0.224247
0.238490
0.329356
0.395293
0.300414
0.391807
0.374540
0.445421
0.438223
0.410423
0.504317
0.518539
0.385813
0.487802
0.478899
0.546625
0.420276
0.488775
0.506743
0.426933
0.353362
0.431579
0.391877
0.390878
0.326546
0.370239
0.329261
0.243534
0.336644
0.248370
0.212108
0.268874
0.172117
0.212462
0.188899
0.066480
0.223874
0.082012
0.145321
0.134725
0.045831
0.123313
0.078513
0.097620
-0.034843
0.137336
0.045824
0.047816
0.038936
-0.027435
-0.050584
-0.019717
-0.017983
-0.075544
-0.034849
0.014343
-0.062457
-0.021011
0.024706
-0.145380
0.018084
-0.032625
0.035979
-0.050984
0.025643
0.039500
-0.087689
-0.062752
-0.029870
-0.049307
-0.017043
-0.018128
-0.024265
-0.008967
-0.063236
0.090892
-0.013570
-0.029490
-0.052891
0.032105
-0.033337
-0.046473
-0.052138
0.008760
-0.032890
0.008715
-0.004571
0.002700
0.052311
-0.045855
-0.003842
0.092226
0.041259
0.089605
-0.010954
0.066203
0.075901
0.116724
0.074147
0.123759
0.021449
0.071274
0.149370
0.222998
0.113779
0.180491
0.207487
0.151292
0.213548
0.240746
0.196716
0.170889
0.138579
0.118532
0.192611
0.103948
0.130052
0.154731
0.082037
0.160082
0.132646
0.061503
0.112789
0.055726
0.074253
0.048750
0.110240
0.004840
0.019631
0.020641
0.086841
0.068529
0.067472
0.081795
-0.036312
0.012165
0.071563
0.140921
0.116635
0.280139
0.489847
0.872153
1.155247
1.273707
1.398174
1.140762
0.890302
0.504203
0.225415
0.034441
-0.096094
-0.119835
-0.010421
0.003442
0.103534
0.024439
0.022563
0.128551
0.069449
0.162036
0.125429
0.172244
0.170824
0.107425
0.197804
0.234159
0.223902
0.191787
0.293531
0.345028
0.384781
0.400171
0.426035
0.444189
0.351841
0.443177
0.431998
0.510704
0.485685
0.520400
0.535611
0.498801
0.545460
0.531069
0.563861
0.565936
0.582672
0.521193
0.635723
0.579142
0.538826
0.480396
0.536398
0.593263
0.467836
0.502405
0.452462
0.455224
0.476270
0.431742
0.411034
0.359168
0.314581
0.379682
0.413946
0.295205
0.235799
0.290905
0.247714
0.208045
0.217650
0.165522
0.109099
0.177860
0.210868
0.073723
0.083138
0.108482
0.127401
0.122042
0.150681
0.050252
0.134751
0.020741
0.002525
0.111273
0.057937
0.094318
0.113730
0.057062
0.039309
0.070946
0.045034
0.089287
0.075947
0.059281
0.125298
0.110751
0.098186
0.015131
0.063060
0.109334
0.098625
-0.003437
0.102757
0.084816
0.125172
0.044427
0.022581
0.115526
0.073785
0.067835
0.099454
0.028062
0.067632
0.091497
0.075524
0.082235
0.134859
0.130300
0.071557
0.117955
-0.005025
0.125443
0.083688
0.108613
0.186847
0.102794
0.114474
0.175064
0.077924
0.277839
0.199822
0.206315
0.166951
0.252422
0.187559
0.309087
0.240117
0.204067
0.181618
0.219643
0.271470
0.223539
0.222763
0.277134
0.232018
0.335728
0.147841
0.175845
0.278049
0.154338
0.115464
0.115286
0.192737
0.178416
0.168094
0.115057
0.130143
0.083068
0.159978
0.045760
0.094373
-0.038407
-0.008245
0.089979
0.082906
0.139424
0.108430
0.102927
0.236779
0.245574
0.553120
0.812137
1.048193
1.356548
1.320165
1.295871
1.113850
0.820591
0.392636
0.051043
-0.048827
-0.052158
0.020596
-0.003080
0.152952
0.098150
0.105885
0.159252
0.190365
0.150969
0.249077
0.227217
0.169371
0.220095
0.282291
0.264985
0.332077
0.295088
0.359073
0.327382
0.392616
0.379588
0.395671
0.456099
0.432866
0.479257
0.544424
0.427409
0.480593
0.496296
0.527162
0.598707
0.575916
0.629696
0.524928
0.576709
0.596107
0.611861
0.585318
0.667824
0.664083
0.577189
0.582759
0.561734
0.538961
0.539698
0.462717
0.497811
0.444544
0.467233
0.441878
0.445181
0.430260
0.344196
0.317945
0.230235
0.388976
0.308359
0.264845
0.240597
0.252432
0.246700
0.179135
0.219058
0.189406
0.174033
0.142190
0.161654
0.146026
0.073211
0.161862
0.161813
0.073321
0.084059
0.139130
0.103511
0.054794
0.116657
0.135558
0.061334
0.140424
0.087287
0.068063
0.070585
-0.004468
0.058439
0.083173
0.085082
0.064832
0.072829
0.101548
0.122311
0.025795
0.215414
0.066728
0.047424
0.078981
0.047134
0.004305
0.083276
0.052002
0.127702
0.082660
0.068117
0.123036
0.124766
0.083807
0.028861
0.076688
0.011978
0.024830
0.046546
0.082517
0.016832
0.104147
0.118889
0.137162
0.149708
0.093136
0.133464
0.119091
0.147270
0.117246
0.250277
0.197062
0.159357
0.221604
0.190032
0.173448
0.189778
0.222050
0.313456
0.126314
0.229566
0.247841
0.304916
0.109699
0.179778
0.244395
0.183617
0.164979
0.219837
0.172198
0.132515
0.134747
0.117463
0.076002
0.133287
0.078869
0.073128
0.065941
0.119299
0.075307
0.004419
0.031867
0.076134
0.010769
0.027598
-0.010783
0.118738
0.022232
0.138503
0.297557
0.595777
0.923954
1.104650
1.378752
1.338432
1.265693
0.793041
0.520029
0.220482
-0.100035
-0.061855
-0.085739
-0.118502
0.013742
0.017896
0.033863
0.097782
0.085295
0.173464
0.236956
0.058103
0.190255
0.150541
0.176569
0.221812
0.150459
0.234518
0.203602
0.236636
0.386253
0.327579
0.289136
0.277901
0.385786
0.405773
0.403890
0.485495
0.394157
0.467136
0.434120
0.486360
0.519264
0.501835
0.534356
0.534351
0.553451
0.491275
0.465685
0.451383
0.483602
0.539079
0.506846
0.403168
0.504661
0.408507
0.418220
0.439525
0.402822
0.442480
0.374367
0.420679
0.320472
0.277352
0.302821
0.167495
0.172882
0.192976
0.154575
0.133662
0.179773
0.173948
0.186505
0.098468
0.151819
0.141628
0.074155
0.020604
0.023525
0.173903
-0.036546
-0.014283
0.035596
-0.082031
-0.020871
0.008054
-0.040076
0.025054
-0.094082
-0.125840
-0.052739
-0.057783
-0.070745
-0.033941
-0.064365
-0.062801
0.005510
-0.001881
0.018639
-0.045338
-0.006590
-0.049753
-0.053948
-0.037204
-0.017713
-0.030701
-0.027179
-0.030491
-0.036654
-0.008790
-0.004438
0.014810
-0.069474
-0.023261
-0.016592
-0.035871
-0.055498
0.090512
-0.114782
0.017658
0.021236
0.015056
-0.023333
-0.093601
0.053490
-0.069004
-0.004355
-0.015464
0.115375
0.015684
-0.027560
0.043117
0.033264
0.055098
0.060910
0.000459
0.068699
0.151324
0.054640
0.084539
0.091649
0.174842
0.131078
0.157683
0.091281
0.149803
0.156386
0.106841
0.058409
0.022852
0.076372
0.033357
0.086101
0.024582
0.059120
0.088131
-0.006754
-0.035687
0.071262
-0.052798
-0.033610
-0.008453
-0.058075
-0.085662
0.057475
-0.092328
-0.079887
-0.009558
-0.017969
-0.085835
0.034112
0.004821
0.178706
0.423867
0.644951
0.911348
1.210313
1.323492
1.213997
0.803696
0.568464
0.173486
-0.071457
-0.115783
-0.248373
-0.158823
-0.159913
-0.085272
-0.040496
-0.004319
0.016066
-0.006217
0.007109
0.017801
0.028559
0.107403
0.030218
0.117697
0.061039
0.115309
0.161605
0.175195
0.225223
0.239571
0.213971
0.207333
0.290050
0.265815
0.241455
0.357782
0.305752
0.372638
0.439528
0.356382
0.345283
0.420085
0.304607
0.395238
0.445115
0.454981
0.498382
0.518859
0.410385
0.443996
0.426338
0.407753
0.400395
0.366526
0.331670
0.401944
0.311944
0.350898
0.266074
0.284523
0.196111
0.234916
0.166472
0.146247
0.136338
0.157516
0.202138
0.095262
0.067468
0.034126
0.037218
0.093180
0.075128
-0.018232
-0.000091
0.007176
0.085850
-0.035792
0.025070
-0.005668
-0.100492
-0.005008
-0.094955
-0.113011
-0.088426
-0.028115
-0.098604
-0.028034
-0.070373
-0.103506
-0.126591
-0.154903
-0.102255
-0.035682
-0.052363
-0.014024
-0.072575
0.014019
-0.052540
-0.100540
-0.048756
-0.098027
-0.022152
-0.075501
-0.138382
-0.052181
-0.131475
-0.082434
-0.098455
-0.033825
-0.042032
-0.042995
-0.030564
-0.116881
0.013962
-0.099451
-0.110542
-0.087848
-0.109482
-0.067147
-0.087014
-0.045138
-0.016104
-0.051617
-0.016037
-0.076093
-0.007045
0.014034
0.137878
0.100990
0.102044
0.062365
0.036841
0.026109
0.018495
0.087202
0.119887
0.119732
0.111648
0.074619
0.102427
0.092086
0.165725
0.197533
0.140350
0.094580
0.104956
0.078306
0.060731
0.066992
0.086640
0.126899
-0.002516
-0.001761
0.005603
0.065240
0.062225
-0.001388
0.013990
-0.081663
-0.036521
-0.021837
-0.058346
0.007650
-0.000681
-0.052542
-0.023829
-0.022201
-0.043697
0.069506
-0.007276
0.268968
0.521846
0.858222
1.073455
1.262455
1.272169
1.075966
0.672370
0.406367
0.015808
-0.135653
-0.260954
-0.196238
-0.111517
-0.029524
-0.054167
-0.019337
-0.003231
-0.026307
0.021663
0.045482
0.106126
0.141090
0.162976
0.121669
0.175293
0.163564
0.211633
0.039809
0.286199
0.240652
0.299589
0.234601
0.356234
0.246479
0.339944
0.314596
0.433273
0.320130
0.402551
0.368029
0.537232
0.415003
0.435556
0.516563
0.462668
0.510160
0.518453
0.528459
0.504071
0.531979
0.494639
0.467454
0.477731
0.433977
0.312190
0.414514
0.497041
0.448120
0.306729
0.338381
0.284068
0.375363
0.190985
0.277435
0.280333
0.265844
0.185129
0.208498
0.195944
0.203689
0.140125
0.099473
0.104070
0.124651
0.065248
0.056195
0.114510
0.083279
0.019494
0.035351
0.027162
0.048650
0.107258
0.011804
0.029241
0.056296
-0.013809
-0.069083
0.050106
0.036497
-0.030674
-0.021730
-0.015502
-0.027958
0.091239
-0.032009
0.027163
-0.080926
0.010580
-0.092843
0.038704
0.027157
-0.014580
-0.037180
-0.054545
-0.021775
0.059255
0.056106
-0.000041
-0.021677
-0.024172
0.042576
-0.009866
-0.022715
-0.002589
0.038812
-0.014401
0.027159
-0.066063
0.045377
0.008580
0.037480
-0.044062
0.046780
0.050332
0.039196
0.039664
0.035744
0.157043
0.160767
0.124394
0.178193
0.162565
0.109293
0.158372
0.212093
0.189814
0.201152
0.200370
0.130462
0.190678
0.135323
0.190105
0.108591
0.201381
0.242329
0.227435
0.152250
0.200284
0.149818
0.128195
0.226093
0.070905
0.126217
0.087163
0.077611
0.096180
0.086020
0.066599
0.100484
0.081449
0.040010
0.019529
0.103924
-0.056522
0.012190
-0.026401
0.042145
0.000922
0.020836
0.170020
0.332661
0.514391
0.824935
1.145350
1.369529
1.430882
1.214725
0.942869
0.490034
0.171826
-0.067501
-0.165574
-0.078002
-0.125180
0.000401
0.075906
0.129953
0.030757
0.059203
0.029059
0.095682
0.192638
0.114608
0.249396
0.173084
0.249804
0.197027
0.189165
0.229046
0.266649
0.279928
0.400605
0.319603
0.257918
0.439596
0.410838
0.443834
0.440739
0.386845
0.495981
0.421148
0.543653
0.505774
0.584028
0.569055
0.503713
0.562853
0.560796
0.601633
0.539463
0.609908
0.610989
0.555569
0.451109
0.580901
0.470241
0.470443
0.471232
0.451563
0.483950
0.344408
0.349956
0.367758
0.316671
0.271335
0.287077
0.249636
0.230054
0.234702
0.255659
0.336219
0.202238
0.182661
0.165011
0.182871
0.207293
0.040019
0.134968
0.108887
0.112459
0.158917
0.085411
-0.020837
0.098249
0.031740
-0.001875
0.182577
0.126824
0.068319
0.045063
-0.023020
0.017328
0.074274
0.087253
0.091295
0.070926
0.039644
0.103070
0.097072
0.085950
0.018956
0.078195
0.148823
0.089491
0.063565
-0.043621
-0.041392
0.087158
0.122673
0.046352
0.148331
0.054930
0.039309
0.067455
-0.019901
0.084285
0.117595
0.105868
0.084596
0.045504
0.022584
0.032917
0.040604
-0.000047
0.098835
0.015972
0.006331
0.136652
0.140957
0.097388
0.106937
0.100543
0.103267
0.107473
0.161021
0.250203
0.181075
0.172402
0.226743
0.225599
0.212720
0.292271
0.254147
0.223569
0.213449
0.195642
0.164830
0.180334
0.240819
0.182816
0.073725
0.194686
0.100278
0.086563
0.144303
-0.009498
0.122887
0.039669
0.109677
0.143997
0.041101
0.081163
0.005596
0.030160
0.020027
0.103575
0.032315
0.044392
0.054082
-0.011678
0.086487
0.123940
0.201564
0.417846
0.618437
0.993968
1.247435
1.368518
1.272223
1.097791
0.720948
0.376632
0.118028
-0.104307
-0.025352
-0.060444
-0.041845
0.076804
0.048187
0.115782
0.128898
0.021406
0.105163
0.105227
0.131701
0.145114
0.125913
0.132669
0.122316
0.129561
0.180194
0.164523
0.295410
0.238428
0.272235
0.383631
0.364959
0.344859
0.375848
0.414297
0.384858
0.518580
0.490301
0.509400
0.439051
0.409969
0.431946
0.515304
0.462284
0.511322
0.484963
0.517327
0.543284
0.518401
0.511491
0.472894
0.442234
0.451442
0.491149
0.387107
0.438265
0.393757
0.473086
0.310833
0.315465
0.330515
0.293428
0.264168
0.205333
0.287875
0.244845
0.230556
0.173305
0.085053
0.099916
0.119770
0.143429
0.181197
0.092145
0.075410
-0.024426
0.012983
0.027941
0.046134
0.062092
0.009361
0.015368
-0.036119
-0.032932
-0.060831
-0.009804
-0.001500
-0.008628
0.008590
0.016629
-0.039662
-0.063119
0.040713
-0.045449
-0.019903
0.018894
0.049694
0.000138
-0.023025
0.019479
-0.019616
0.030106
-0.034977
0.004827
0.026611
-0.047694
-0.005084
-0.051673
0.000157
-0.040580
-0.013046
-0.055930
-0.114068
-0.068049
-0.053131
-0.025933
-0.021894
-0.036927
-0.020846
-0.061970
-0.027232
0.008293
-0.022527
-0.030330
0.031842
0.044070
0.068950
0.083487
-0.064139
0.074743
0.055907
0.044344
0.074363
0.099023
0.127911
0.123458
0.081616
0.200928
0.110104
0.092049
0.153374
0.135484
0.136601
0.084474
0.167236
0.121061
0.056118
0.147328
0.118521
0.103515
0.090048
0.022572
0.016536
-0.026691
0.048548
0.020434
0.040681
-0.026006
0.006217
0.005348
-0.018510
-0.043317
-0.074083
-0.057039
-0.113540
-0.062868
-0.109479
-0.072022
-0.053400
0.046110
0.241241
0.509500
0.746388
1.054443
1.233617
1.295994
1.037268
0.728203
0.336804
0.115446
-0.128732
-0.311937
-0.197453
-0.187925
-0.086195
-0.073299
-0.075101
-0.081809
-0.071869
0.032756
0.053359
0.013780
-0.027205
0.057078
0.107689
0.081403
0.120625
0.186537
0.175729
0.198906
0.115396
0.211596
0.297415
0.301546
0.337379
0.256641
0.278727
0.345826
0.320184
0.328613
0.325364
0.312700
0.354358
0.368454
0.404762
0.427486
0.488779
0.439514
0.451175
0.444806
0.402749
0.408399
0.265374
0.444644
0.439075
0.330255
0.365670
0.370100
0.331223
0.311584
0.360532
0.249409
0.204982
0.204807
0.211504
0.128834
0.127721
0.145203
0.067582
0.029468
0.082861
0.062897
0.113516
0.074581
0.063946
0.002848
0.013824
0.017580
-0.046213
-0.113866
-0.001226
-0.075447
0.031578
-0.117985
-0.164443
-0.083098
0.006586
-0.054707
-0.052074
-0.047860
-0.099730
-0.040752
-0.047415
-0.076505
-0.146527
-0.090979
-0.112568
-0.102083
-0.100281
-0.078985
-0.083135
-0.165266
-0.118171
-0.124370
-0.098374
-0.130825
-0.057920
-0.061351
-0.122058
-0.108168
-0.174799
-0.045112
-0.163141
-0.106945
-0.146070
-0.100615
-0.091296
-0.028458
-0.124225
-0.115235
-0.111791
-0.117259
-0.174219
-0.044574
-0.060407
-0.022264
-0.004675
0.042078
0.087328
-0.103716
-0.062534
0.082813
-0.037520
-0.048717
0.105758
0.031066
0.047442
0.044969
0.134919
0.104503
0.086115
0.030152
0.031902
0.011756
0.030005
0.070242
0.141679
0.073640
0.127685
0.070971
0.013398
0.047759
0.069185
0.007955
-0.000759
0.034985
-0.060679
0.021258
0.055200
-0.057044
-0.014232
-0.045424
-0.096042
-0.072804
-0.122638
-0.120341
-0.010545
-0.027212
-0.075566
-0.155049
0.012395
-0.052289
0.042384
0.319494
0.637392
0.946503
1.156866
1.199773
1.139901
0.963139
0.494883
0.233093
-0.149113
-0.182691
-0.242735
-0.195343
-0.073874
-0.070775
-0.051188
-0.016200
-0.029220
-0.068254
-0.006673
0.029993
0.084276
0.108449
0.077670
0.056346
0.121838
0.059878
0.126219
0.243747
0.187576
0.148529
0.186737
0.292868
0.251408
0.239201
0.299079
0.401319
0.311843
0.335984
0.315103
0.420551
0.410487
0.385551
0.449804
0.332871
0.437972
0.421977
0.493882
0.515507
0.509257
0.472808
0.480500
0.410740
0.459971
0.387014
0.343677
0.335141
0.347817
0.284459
0.266226
0.285163
0.206933
0.239511
0.209351
0.286704
0.139394
0.141387
0.223306
0.071874
0.154167
0.165464
0.121770
0.031992
0.108328
0.064290
0.124108
0.006448
-0.003640
0.054019
0.007237
0.032526
0.023782
-0.012146
-0.028137
-0.068622
0.050141
-0.078060
0.030456
-0.062382
-0.096991
-0.029410
-0.058109
-0.159330
-0.034463
-0.068611
-0.047981
-0.058303
-0.124973
0.008811
0.010204
-0.014925
-0.039080
-0.047079
0.037597
-0.062463
-0.101920
-0.034796
0.008626
-0.010560
0.030188
-0.043813
-0.034757
-0.089729
-0.054182
0.012411
-0.055278
0.053693
-0.061824
-0.082114
-0.074056
-0.049350
-0.037479
-0.014841
-0.023382
0.035921
-0.001216
-0.016502
-0.005303
0.044730
0.063086
0.074098
0.104940
0.111687
0.175090
0.090235
0.086661
0.159347
0.156096
0.101611
0.135985
0.164425
0.180335
0.228509
0.176922
0.130813
0.115322
0.175645
0.191140
0.139706
0.150601
0.174107
0.070665
0.113297
0.123648
0.084268
0.091631
0.104395
0.087500
0.090219
0.106744
0.035811
0.044379
0.030821
-0.021106
0.082649
0.048219
-0.016694
0.015870
0.068230
0.038502
0.045314
0.125421
0.327381
0.641947
0.901822
1.240801
1.285884
1.367875
1.169255
0.821694
0.456468
0.092898
-0.070505
-0.185639
-0.103062
0.000097
0.000480
0.018720
0.081422
0.079181
-0.003864
0.064110
0.147983
0.104288
0.163717
0.141651
0.182898
0.223305
0.178926
0.266974
0.305677
0.273526
0.291077
0.310813
0.385593
0.324521
0.398764
0.403382
0.446214
0.443655
0.441363
0.498048
0.539873
0.538450
0.413389
0.629441
0.497789
0.581147
0.537519
0.463049
0.577966
0.561560
0.493371
0.560067
0.549484
0.460284
0.552475
0.380934
0.488127
0.484229
0.413880
0.416144
0.401918
0.347683
0.308699
0.362348
0.255985
0.294257
0.331703
0.269569
0.164845
0.249102
0.141518
0.301780
0.213091
0.139179
0.229132
0.120826
0.027558
0.181574
0.090371
0.041028
0.131829
0.136247
0.019455
0.122037
0.125392
0.094933
0.095825
0.022394
0.009598
0.079457
0.134775
0.072608
0.049235
0.071828
-0.008764
0.023601
0.094228
0.130813
0.000211
0.154406
0.021280
0.019864
0.104937
0.084279
0.054043
0.073118
0.067082
0.020304
0.014925
0.001561
0.086287
0.080617
0.065171
0.034997
0.112494
0.007593
0.099496
0.105639
0.055422
0.095964
0.101183
0.101328
0.128193
0.140678
0.073611
0.105141
0.108287
0.090847
0.071229
0.160764
0.201417
0.138927
0.212244
0.203987
0.180015
0.217507
0.205521
0.191105
0.200555
0.263845
0.242848
0.258924
0.285868
0.177468
0.171300
0.225579
0.215466
0.291192
0.192127
0.136665
0.249716
0.148062
0.209029
0.041349
0.139107
0.138932
0.122229
0.122478
0.129754
0.124590
0.102574
0.041250
0.107855
0.068124
0.084042
0.112540
0.038856
0.038999
0.056384
0.105922
0.076168
0.130573
0.314553
0.476032
0.832912
1.119705
1.366929
1.500000
1.236284
0.960835
0.604096
0.351900
0.074529
-0.088935
-0.042365
-0.059210
0.042029
0.021092
0.118406
0.093755
0.096740
0.185704
0.125763
0.205602
