0.313213
-0.060284
0.154440
0.370032
-0.044814
-0.368854
0.742418
0.162195
-0.962042
-0.362671
0.275647
0.287274
-0.376456
-0.275173
0.278154
-0.381931
0.776779
0.185522
0.004118
0.102366
0.173666
0.244229
-0.246118
-0.079883
0.573187
-0.103517
-0.101500
0.573724
-0.031490
0.713621
-0.370254
-0.295014
0.027864
0.230347
0.046031
-0.013944
-0.245199
0.014607
0.276982
0.070014
0.367620
-0.573748
-0.602356
0.204638
-0.363935
-0.237368
0.008745
-0.154381
-0.299449
0.339232
0.018375
0.108604
0.974534
-0.318945
-0.089411
0.141209
-0.126330
-0.112957
0.356504
-0.065256
-0.220662
0.058410
0.302572
0.416095
0.228087
-0.265123
0.278269
-0.148843
0.650601
0.452899
-0.468617
-0.459958
0.010370
-0.339718
-0.243359
0.025890
0.213760
-0.181058
0.804229
-0.081220
1.005090
0.495095
0.184397
0.084276
-0.155213
0.248064
0.211307
-0.602831
-0.258182
0.429036
-0.786930
0.012349
-0.054178
0.192375
-0.164031
-0.289383
-0.457993
0.257130
0.364408
-0.453325
0.118153
0.489819
0.212608
0.480075
-0.134931
-0.395764
0.503243
-0.191458
0.182005
-1.000643
-0.067482
-0.073213
0.216197
0.007013
-0.086702
0.061018
0.305091
0.370634
0.154718
0.058312
-0.035919
0.429290
0.728538
0.270306
-0.024167
0.852051
0.270181
0.658809
0.107625
0.226483
0.444553
0.409434
0.104360
0.726624
0.701866
-0.227586
0.485228
0.389686
0.710250
0.480122
0.210184
-0.801325
-0.322433
0.574842
-0.062432
-0.495971
0.200855
0.419659
0.041777
-0.021744
0.000716
0.288295
0.777056
0.362066
0.023728
0.785647
0.240185
-0.039872
0.513600
0.149514
0.026051
0.213109
0.059507
0.144137
-0.197788
-0.029500
-0.685805
0.523395
0.072403
-0.050426
-0.088148
0.469372
0.073762
0.178173
-0.098441
-0.162241
0.281458
0.171013
-0.243173
-0.171598
-0.598164
-0.370309
0.324361
0.523997
0.418827
-0.584572
0.276140
-0.020125
0.407159
-0.080951
-0.463111
-0.054564
0.001691
-0.284927
0.198752
0.367337
-0.130089
0.422991
0.210887
0.560916
-0.131110
-0.225710
-0.171194
-0.187695
-0.326672
-0.032498
0.585962
-0.160411
-0.446065
-0.621950
-0.296444
-0.182719
0.352884
-0.013896
0.385618
-0.080989
0.004232
0.441605
0.625470
-0.129376
0.523252
-0.329220
0.552823
-0.250917
0.152948
-0.652741
0.052182
0.207453
-0.664839
0.055785
0.239513
-0.267453
0.700974
0.397066
-0.016001
0.350029
0.183788
0.113431
-0.208505
0.578702
0.234609
-0.294739
0.138980
0.330753
-0.046241
-0.083441
0.248619
0.051306
-0.041551
-0.644683
0.604287
0.446076
0.219639
-0.585460
0.669383
-0.146412
-0.075077
0.226280
-0.408725
0.146263
0.008103
0.551452
-0.378145
0.172056
0.489710
0.099771
-0.330763
-0.192044
-0.431731
0.234639
0.050866
-0.132511
0.156163
0.544291
0.152116
0.550728
0.455202
0.383068
0.167550
-0.377476
0.673917
1.115386
0.725786
0.525350
0.232389
-0.113544
-0.071455
0.176956
-0.268301
0.236370
0.280171
-0.010961
-0.295987
0.155553
-0.049076
-0.174647
0.385937
0.121006
0.060342
-0.192760
0.094512
0.036362
0.347333
-0.299673
-0.032438
-0.010295
-0.410603
-0.660186
0.317275
0.191209
0.116561
0.017725
0.320899
-0.100364
0.584551
0.118076
0.205843
0.306483
0.837930
0.272440
-0.399680
0.092412
-0.444123
0.488855
-0.318829
0.677487
0.765988
-0.129053
0.096529
0.179114
-0.254852
0.292204
0.253859
0.421298
0.474261
0.274735
0.574755
-0.214301
0.089869
-0.042391
0.322571
0.455534
0.210478
-0.293552
0.302599
0.758486
-0.353520
0.335219
0.595606
0.162487
-0.227527
0.830271
0.465770
-0.588307
-0.534775
0.773046
0.111543
0.694713
0.020426
0.154358
-0.616461
-0.212433
-0.339791
0.467519
-0.053183
0.311790
-0.118972
-0.293817
0.374687
0.426563
0.388375
0.219064
-0.213850
-0.378689
0.200937
-0.164982
0.344747
0.180363
-0.127609
0.063614
0.648884
0.709497
-0.100183
-0.747005
-0.071175
0.123787
0.310697
0.278794
-0.297042
-0.006689
-0.162686
-0.203292
0.440701
-0.154488
0.281651
0.080113
0.006492
0.218240
-0.047029
-0.264731
0.236966
0.500217
-0.186956
0.045028
0.667780
0.170287
-0.695361
0.663249
-0.711818
0.106443
-0.310224
-0.159783
-0.389271
0.793327
-1.020034
0.475078
-0.227347
0.250439
0.311336
0.103949
-0.208988
0.064700
0.423109
-0.162976
0.150780
-0.624150
0.623171
0.114222
0.057395
-0.130501
-0.213079
-0.070061
-0.493752
-0.093263
0.148574
0.229383
-0.234352
-0.059767
0.079544
0.271939
-0.564089
0.099010
0.082076
-0.169372
-0.432323
1.039308
0.394274
0.047278
-0.104055
-0.236912
0.529185
-0.191289
0.235644
-0.036933
-0.485453
0.234291
0.527459
-0.222678
-0.217580
-0.249116
0.401303
-0.031706
-0.164483
0.216064
0.087457
0.092817
-0.094425
-0.065967
-0.151608
-0.067618
0.117867
0.344723
0.619422
0.104132
-0.003240
-0.068630
-0.108538
0.526384
-0.036349
0.263865
0.329954
0.437444
0.071986
-0.112558
-0.004734
0.245169
0.300763
-0.105872
-0.258930
0.186863
0.154257
-0.026840
-0.195796
0.432370
0.370187
-0.117896
0.312526
-0.564772
0.738168
-0.049549
-0.268182
-0.240948
-0.715425
0.013176
-0.201221
-0.250101
-0.428190
-0.110305
-0.057192
0.199281
0.278497
-0.108197
-0.367780
-0.084185
0.195829
0.308051
0.457302
0.151559
0.029531
0.574579
-0.010305
0.558296
0.055922
0.214639
0.443065
0.157034
-0.022230
0.526631
0.259155
0.005179
0.470117
0.440004
0.337095
0.557372
-0.047877
0.195786
-0.246387
0.420777
0.113045
0.738420
0.193513
0.746382
0.893574
0.470458
0.543355
0.280197
-0.086115
0.226902
0.135964
0.180522
-0.375529
0.231722
0.140480
0.285095
0.330642
-0.178961
0.134670
0.014253
-0.171550
0.381448
-0.447852
-1.003269
0.045775
0.121537
0.081606
-0.345041
-0.481304
-0.005902
-0.164622
-0.063501
-0.672822
-0.249179
0.406766
-0.796532
0.198548
0.080113
-0.230439
0.489911
0.102901
0.711462
-0.196580
0.030164
-0.066936
0.160968
-0.162429
-0.485822
0.364831
0.188927
0.391717
0.214261
0.127440
-0.121379
0.263854
-0.284373
-0.129778
0.196275
-0.196301
-0.390558
-0.017096
0.371209
0.426118
0.017198
-0.109721
-0.143606
0.404946
-0.715892
0.026113
-0.431233
-0.001279
-0.431507
0.446415
-0.211376
0.234212
-0.407254
-0.427164
-0.153146
0.104774
0.458837
-0.164318
-0.165776
-0.568270
0.146259
-0.227280
-0.237311
0.460839
0.234997
-0.054962
0.479955
-0.239871
0.612549
0.291047
-0.227711
-0.393871
0.104272
0.147969
-0.542392
-0.308660
0.399989
0.429776
0.398781
0.262082
-0.186642
0.023684
0.290967
0.736378
0.581118
-0.631576
-0.115968
-0.072897
-0.104831
-0.300056
0.088355
-0.015386
-0.005481
-0.066568
0.430211
0.115269
-0.200830
0.101831
-0.065550
0.385093
0.148704
0.113902
0.350073
0.219194
-0.272233
-0.165876
0.046016
-0.446816
0.157474
0.257937
-0.307264
0.463784
-0.053397
0.402473
0.336918
-0.179114
0.432352
0.334254
0.214111
1.500000
0.471818
1.123421
-0.129097
0.267234
-0.000123
-0.334741
-0.513879
-0.071258
-0.125932
0.423832
0.098997
-0.507032
-0.417079
0.036937
-0.576614
0.320730
0.510337
-0.739535
0.845693
0.965793
-0.075694
-0.662581
-0.046262
-0.180615
0.467160
0.369187
-0.844375
0.006976
0.082587
-0.094765
-0.369864
0.225933
0.350172
0.076371
0.248590
0.454447
-0.344667
0.108294
0.405603
-0.453583
0.756728
0.936240
0.081565
-0.073236
-0.061187
0.186166
0.964979
0.956468
-0.019233
0.289944
-0.281741
0.118152
0.564236
0.871151
0.546983
0.365660
-0.153687
0.643610
-0.167558
0.364748
0.149418
-0.047200
0.132948
0.478787
0.318729
0.524550
-0.020140
0.427551
0.263180
0.399517
0.104829
0.200649
-0.174429
0.119296
0.135675
0.250497
0.230951
-0.325529
-0.143419
0.177768
-0.618216
0.039011
-0.316255
0.773448
-0.168602
-0.386230
0.644298
0.028842
0.499837
0.067424
0.622436
-0.016806
-0.412571
-0.207829
-0.256187
-0.161978
0.047943
-0.277929
-0.236825
0.031278
0.412955
0.647733
0.461056
0.006480
-0.895944
-0.234502
0.796044
-0.400470
0.163750
-0.315155
0.511308
-0.049213
0.486281
0.274454
0.430016
0.616789
-0.113319
0.175981
-0.554978
-0.603766
-0.186616
0.183472
-0.213306
0.167625
-0.302519
-0.083620
0.779396
0.205797
-0.879181
0.690374
0.246691
-0.099638
-0.209721
0.049262
0.573872
-0.188047
0.223228
-0.184138
0.266816
-0.597680
-0.873305
0.308264
0.317040
0.289176
0.007528
0.309521
0.124658
-0.664672
-0.360109
0.370782
0.574499
0.324114
-0.123194
0.422426
0.323083
-0.385634
0.541528
0.886558
0.248683
0.087884
0.644080
-0.068420
-0.046985
0.163405
0.129365
0.475255
0.068006
0.037031
0.047847
-0.582594
-0.406430
0.211773
0.832582
0.157507
-0.607974
0.270833
0.478843
-0.252906
0.691776
0.360732
0.497861
0.738330
-0.185461
0.190384
0.572806
0.042253
0.166824
0.031093
0.040820
0.050068
0.277150
-0.454052
-0.269930
0.722578
0.143202
0.167916
-0.129934
-0.140648
0.869087
0.845953
0.865693
0.714797
0.385801
-0.097854
-0.412990
-0.027634
-0.269935
-0.106959
-0.615923
0.135588
0.022118
-0.091884
-0.089088
0.164544
0.376861
0.205319
-0.343391
-0.315434
0.393927
-0.073799
-0.319046
0.731762
0.212208
0.653541
0.359361
1.259562
0.438887
0.084333
-0.000841
0.530977
-0.396537
0.108201
0.595583
0.164093
0.216084
0.113070
0.536901
0.241583
-0.569810
0.737884
-0.130551
0.369041
0.747058
0.936353
0.107706
0.147019
-0.420484
0.196808
0.112963
-0.004188
0.545259
0.423275
-0.028972
0.045319
0.380720
0.222600
-0.096333
0.675476
0.685832
0.202181
0.696428
0.275490
0.301680
0.523312
0.178035
0.538382
0.482052
-0.630833
0.076929
0.065727
0.530348
0.327964
0.119547
-0.368343
-0.157638
0.147566
-0.226784
0.173385
0.347284
0.861774
0.336727
-0.265914
0.466522
0.926201
0.153749
-0.200973
-0.297154
-0.034894
-0.259314
0.379724
-0.104995
-0.301533
0.142019
-0.060375
-0.039442
-0.179297
0.661062
0.035233
0.144554
0.298187
-0.419389
-0.028080
0.685269
0.173834
0.028417
0.054933
0.256117
0.210513
-0.225232
0.221255
0.322053
0.012298
0.282923
0.231605
-0.141274
0.525111
0.196232
-0.003830
-0.508376
0.620770
-0.027051
-0.376233
0.146659
0.272528
0.172730
0.207957
-0.348880
0.033804
-0.191444
0.765724
0.041182
-0.071182
-0.522906
0.200629
0.127136
0.580403
-0.049432
0.375751
0.019923
0.031206
0.136439
0.061302
-0.314726
-0.767486
-0.024710
0.120476
0.743904
0.146363
0.146029
-0.156782
0.097152
0.309552
0.615049
0.565645
-0.003427
-0.010008
0.189822
0.649085
-0.320614
0.159955
0.111930
-0.127629
0.801435
0.294668
0.011968
0.807557
0.387098
0.552726
0.397225
0.131633
0.118759
0.113845
-0.446527
0.392256
-0.082093
0.435857
0.134433
0.598683
0.533706
0.102702
-0.157389
0.146900
-0.262467
0.675070
-0.095553
-0.193503
0.246408
0.005770
0.058511
-0.408163
-0.407964
0.140788
0.011912
-0.310222
-0.382723
-0.052815
0.266418
0.444621
0.603265
0.578989
0.398135
0.662038
0.443158
0.563554
-0.387139
-0.496075
0.454985
-0.148961
-0.071651
-0.188877
0.198895
0.220192
0.163238
0.086897
-0.400107
0.377591
-0.429984
-0.048745
0.062910
-0.008808
0.144127
-0.448547
0.412237
0.405547
-0.316555
-0.289947
0.669164
0.309885
0.326000
0.116382
0.880290
0.461218
0.197922
0.566203
0.375122
-0.009291
-0.460983
0.020617
0.815866
0.326846
0.027455
-0.110150
-0.249651
0.001184
-0.266868
0.663120
0.664677
0.090655
0.152287
0.392282
0.668215
0.494108
0.511346
0.615258
0.135464
0.706459
0.063181
0.346245
0.144981
0.052281
0.376298
-0.244613
0.503596
0.650143
-0.107738
0.707736
0.242760
-0.133999
-0.395816
0.522732
-0.080484
-0.275186
0.714721
0.069184
0.102572
-0.498372
0.203288
0.369152
0.253848
0.366293
-0.321528
-0.703856
-0.274604
-0.008879
-0.445082
0.019311
-0.564005
-0.328009
0.201420
0.290931
0.060634
0.008323
0.151704
0.134035
-0.032663
-0.599413
-0.358359
-0.029141
0.320637
-0.181780
0.584823
0.617174
-0.069859
-0.221422
-0.106998
0.435762
-0.236185
0.053163
0.792421
-0.518499
0.298617
0.193674
-0.300488
-0.044338
0.320497
0.201497
0.044989
-0.177250
-0.114021
0.790893
0.363690
0.482802
0.723120
-0.411624
0.465061
-0.098034
-0.607399
0.690910
0.228911
-0.247083
0.401350
-0.319136
-0.839120
0.051430
0.715714
0.173890
-0.450647
0.220780
-0.405886
0.249869
0.097909
-0.359592
-0.144588
0.072900
0.161802
0.355283
-0.028881
-0.015469
-0.329646
0.141239
-0.261528
0.041757
0.344974
0.629576
0.179797
-0.480035
-0.103732
0.271873
0.174352
-0.112482
0.487943
-0.425341
-0.100861
0.958692
-0.212062
0.375495
0.657865
-0.249170
-0.222906
0.384147
-0.553565
0.144330
-0.092891
-0.490158
-0.265236
-0.266678
-0.009383
0.205411
-0.151443
-0.140638
-0.322592
-0.373560
-0.175927
0.254730
-0.738465
0.180225
-0.351818
0.144967
-0.449871
-0.435491
-0.231081
-0.108855
-0.117373
-0.573924
-0.001352
0.371713
-0.325723
0.094330
0.455001
0.762042
0.926644
-0.002478
0.157577
-0.055098
0.030227
0.052180
-0.214840
-0.842843
-0.206739
0.223072
-0.332858
0.559713
0.684677
-0.379724
0.354983
-0.264683
-0.028715
0.193195
0.043251
0.368520
1.118664
-0.052247
-0.030565
-0.127245
0.384384
-0.476956
0.539859
-0.106921
0.072193
-0.217155
-0.412460
-0.261194
0.556064
-0.167608
-0.582409
-0.070369
-0.331579
0.176691
-0.040399
0.794069
0.260054
-0.245909
0.133656
0.122965
0.192662
0.823076
0.095259
-0.114881
0.256594
0.186146
0.901309
0.075458
-0.109249
0.139175
0.490200
0.525303
0.520957
0.454187
-0.743150
0.650930
0.294056
0.221840
0.066943
1.180795
0.288270
0.373049
0.124728
0.522646
-0.722860
0.304516
0.043085
0.192274
-0.261003
0.521277
0.500954
0.128907
-0.278712
-0.469372
0.197616
-0.131159
0.002714
0.454883
0.411734
0.225194
-0.373850
-0.222407
-0.328661
0.861823
-0.073608
0.330860
-0.068548
-0.111893
-0.211004
-1.039314
0.188097
-0.050614
0.358142
-0.282799
-0.205491
-0.599358
0.147002
-0.190250
-0.688684
0.290216
-0.069785
-0.288486
0.038680
-0.325194
-0.284417
-0.063223
0.201397
-0.294535
0.425139
-0.206152
0.359347
0.332980
-0.179263
0.459166
0.060885
-0.510516
0.116678
-0.007367
-0.202244
0.386649
0.160082
-0.131777
-0.064088
-0.472378
0.149827
0.051825
-0.103336
-0.412296
-0.437508
-1.039521
0.056914
-0.555242
0.103224
0.265039
0.010692
0.284381
-0.227128
-0.335577
0.053966
-0.127232
0.171990
-0.176113
0.267972
-0.462617
0.214663
0.243414
0.049879
0.296361
0.381847
0.015901
0.069159
-0.088361
-0.204029
0.120749
0.548640
-0.151721
0.786676
-0.713226
-0.482485
0.663817
0.128204
-0.313961
-0.391607
0.607744
-0.243297
-0.399136
0.526986
-0.216557
-0.262059
0.330199
0.217413
-0.404357
0.287088
-0.587604
0.304750
-0.544667
0.170006
-0.309731
0.653227
-0.008679
0.321698
-0.257034
-0.429445
-0.172596
0.976109
-0.169786
0.271914
-0.476552
-0.075516
-0.175891
-0.838156
-0.173685
-0.056242
0.846098
0.347804
0.252024
0.747605
0.367818
0.132304
-0.106992
0.112894
-0.229238
-0.450904
-0.303132
-0.399070
-0.089284
-0.503788
-0.243767
-0.007550
0.110327
-0.567270
-0.020814
-0.141145
0.019259
0.359482
-0.462134
0.684903
0.321032
-0.064972
-0.511727
0.113894
0.194133
-0.138071
-0.251503
0.061238
-0.360614
0.534784
0.185338
0.310333
0.281096
0.022443
0.261225
0.205805
0.379874
0.352755
0.314925
-0.628420
-0.469304
0.683727
0.384243
-0.092868
0.654316
0.256526
0.391315
0.460333
0.481948
0.207293
0.652209
0.102441
0.402900
0.005221
0.475420
-0.150131
0.606563
-0.181518
0.414013
0.346288
-0.513261
-0.137985
0.048743
1.159666
0.449782
-0.292094
0.217162
-0.436449
0.211826
0.234765
0.189247
0.385414
-0.245667
0.134102
0.128350
0.446961
-0.477246
-0.037402
0.192154
0.255713
-0.152226
0.044784
-0.295715
-0.082763
0.699780
-0.115928
0.324283
-0.181410
0.131517
-0.296743
0.070278
0.576060
-0.112006
-0.234888
0.460605
-0.053771
-0.160766
0.586485
0.192930
0.260241
-0.611508
0.164315
-0.076624
-0.116089
-0.058594
0.323736
0.093170
0.065119
-0.284467
0.261524
0.351202
0.140228
0.331087
0.266450
0.329461
0.286796
-0.591284
-0.169926
0.316146
-0.400169
0.526823
0.041210
0.123049
-0.247073
-0.305033
0.091315
0.754364
-0.179501
-0.383822
-0.013363
0.319042
-0.033697
-0.188265
0.613897
0.261558
-0.512185
-0.645268
0.943365
-0.407468
0.432562
0.533716
0.089895
-0.467008
0.465028
0.568706
-0.092942
0.272353
0.162203
0.096117
0.567902
0.493768
0.411687
0.258199
0.318537
-0.297966
-0.657072
0.233056
-0.489111
-0.094911
0.044964
-0.253311
-0.035054
0.347552
-0.599634
0.389225
-0.272716
0.208353
0.235731
-0.395597
-0.348705
-0.163179
0.145504
-0.053024
0.183715
0.256339
0.262595
-0.809286
0.088042
0.500019
0.441095
-0.238057
0.124743
-0.525049
-0.065619
-0.219358
0.424869
-0.019307
-0.330246
0.427334
0.033164
-0.861101
0.301531
0.264169
-0.456153
-0.062496
-0.096576
0.698784
0.971490
0.780706
0.985583
0.492679
0.331152
0.635517
0.965822
0.063508
0.621405
0.018201
0.775436
0.126508
0.008784
-0.251795
0.134966
0.578814
-0.064252
0.083295
-0.058232
0.293887
-0.349803
-0.035459
0.135547
0.573011
-0.469345
0.478934
0.342016
-0.327178
0.131879
0.001638
0.613019
-0.103527
0.132749
-0.339571
0.519708
0.421862
0.415562
0.351695
0.746431
0.708866
0.237306
-0.089494
0.129489
0.395939
-0.127736
0.724984
-0.219217
0.317916
0.091280
0.575490
0.635965
0.619063
-0.298363
-0.462655
0.461505
0.163481
0.895018
0.399102
0.023618
0.422492
0.193867
0.275637
0.221390
0.347014
0.477843
-0.219210
-0.289543
0.861987
0.528494
-0.177131
0.264018
0.428467
0.241322
0.357947
0.020719
-0.345091
-0.022328
0.013472
-0.009860
0.450947
0.133135
-0.346404
0.723857
-0.180714
-0.179845
-0.370150
-0.124523
0.366917
-0.055212
-0.292483
0.046701
0.067415
0.040490
-0.148131
0.216478
-0.236017
0.023007
-0.041750
0.818639
-0.295410
-0.124370
-0.218390
-0.322012
-0.034359
-0.494015
0.051764
0.717962
0.189412
-0.002680
-0.073759
-0.310457
-0.522150
-0.234187
-0.497830
-0.060671
-0.137137
-0.365182
-0.054637
-0.087210
0.349080
0.436272
-0.295416
-0.074749
0.111641
-0.882096
-0.326803
0.296510
0.261526
0.296964
-0.108844
-0.321813
-0.032446
-0.016089
0.184571
-0.327362
0.174012
0.222585
0.286504
-0.392814
0.021394
-0.329077
-0.053032
-0.683812
0.167164
-0.645664
0.135597
-0.212232
0.365667
0.755007
-0.501998
0.092550
0.549262
-0.372714
-0.292803
0.420326
-0.286945
0.085332
-0.023203
0.258191
0.432748
0.374827
0.527582
0.411495
0.012806
-0.020637
0.250625
-0.021004
0.187263
0.088399
-0.335440
-0.101037
-0.081877
1.053152
0.536056
-0.642243
-0.499222
0.134268
-0.314734
-0.313405
0.220939
-0.405905
0.066665
0.311747
-0.216505
0.735242
0.090301
-0.095662
0.214884
0.029654
-0.427102
0.162308
0.000629
0.045584
0.194388
0.570573
-0.481003
-0.441283
0.350482
1.011179
-0.017272
0.138872
0.834773
1.097111
-0.479006
0.282187
-0.018992
0.309027
0.488585
-0.417181
0.091831
-0.540312
0.276616
-0.053745
-0.414045
0.336625
0.356570
-0.104399
-0.058030
0.188861
0.081227
-0.010611
0.008012
-0.009232
0.655665
-0.184429
0.291190
-0.429748
0.270059
-0.230848
0.695606
-0.352341
0.054031
0.022423
0.146318
-0.233803
-0.223760
-0.141168
0.068604
0.568440
0.540548
0.427318
-0.026272
0.171617
0.422786
0.342090
0.464823
0.216137
-0.346486
0.842775
0.437474
0.632774
0.135681
-0.083114
0.590072
-0.055886
0.255179
-0.084570
0.259735
0.209232
0.147471
0.320344
0.065325
0.534922
0.268410
-0.238390
-0.061346
0.205904
0.248316
-0.138515
0.008779
0.429397
0.132702
-0.012324
0.000647
0.504882
0.138318
-0.297810
-0.195628
0.588586
-0.286173
0.034865
0.118797
0.048305
0.053446
0.088337
-0.769093
0.210569
-0.650152
0.064892
0.026263
-0.127467
-0.791245
-0.221648
-0.583769
0.131311
0.224685
0.474700
-0.307612
-0.326276
0.621391
-0.449006
0.151157
0.084183
0.192284
-0.344714
0.160522
0.351209
-0.500225
0.095924
0.105952
0.301866
-0.154669
0.039448
0.119981
-0.174319
-0.570786
0.264799
0.293421
-0.039428
0.676946
-0.625268
-0.011439
-0.242106
0.444630
0.103807
-0.023908
-0.482552
0.048716
-0.240316
0.173176
0.196720
0.080539
-0.102498
-0.040885
0.460858
0.793835
0.038726
-0.205909
-0.370428
0.458417
-0.240502
-0.097539
-0.265085
0.204165
0.119985
0.104129
0.408735
0.622116
-0.331015
0.385408
0.093253
0.331820
-0.374916
0.322698
-0.115613
0.025586
-0.635380
0.147866
-0.304572
-0.458833
-0.590366
-0.435265
-0.473100
-0.281326
-0.163769
0.130532
-0.548957
-0.490515
-0.041806
-0.084323
-0.180733
0.142362
0.006362
-0.076627
-0.406801
-0.235950
-0.232409
0.396901
0.143902
-0.009211
0.286747
0.177146
-0.294627
0.577771
-0.020076
0.420065
-0.289125
-0.146068
0.037193
0.617120
-0.031300
-0.581213
-0.773593
0.022660
0.178441
0.538584
-0.115339
0.006037
0.396975
0.521577
0.718231
0.358353
1.131574
0.719903
0.958236
0.129410
-0.200974
-0.206915
-0.520050
-0.272114
0.716200
-0.534660
0.324865
0.022914
0.362429
0.260187
0.045503
-0.005618
0.519194
0.371503
0.734576
-0.250145
0.337408
0.250536
-0.097154
-0.011136
-0.306793
0.111403
-0.411345
0.022773
0.492927
0.549102
-0.150002
0.027903
-0.496175
0.326276
0.599233
-0.499086
0.464687
0.264663
0.319893
0.292071
-0.266060
0.157614
0.164830
0.521177
0.036310
0.364378
0.337242
0.113647
0.100714
-0.061680
-0.121526
0.693608
0.269059
-0.040015
-0.010698
0.540181
0.646577
0.065292
0.223244
0.872516
0.096638
-0.614700
-0.372227
0.192776
-0.360323
0.404626
-0.482494
-0.043945
-0.037339
0.423938
0.163694
0.428072
-0.463027
-0.058224
-0.004014
0.260587
-0.753458
-0.117378
0.071758
-0.017348
0.170399
0.406747
-0.313264
0.363562
-0.655400
-0.170991
0.581897
-0.295861
-0.018440
0.349093
0.257757
0.011692
-0.537009
0.377261
0.633936
0.285864
0.380502
-0.003310
-0.554059
-0.652804
-0.020010
-0.179625
-0.115588
-0.378713
-0.306290
0.491852
0.066803
-0.158307
0.400140
-0.253609
-0.559547
0.268880
0.348538
0.327535
-0.166633
-0.084743
-0.345499
-0.544321
0.271557
-0.132483
0.195457
1.075221
0.042168
0.120886
0.191173
0.609563
-0.259253
-0.527721
-0.825018
0.192842
-0.395421
0.168546
-0.451384
-0.229670
0.272106
0.221493
0.106258
0.484440
0.068508
0.185177
-0.367661
0.004600
-0.533175
0.082017
0.238846
0.332372
0.318279
-0.549745
-0.642910
-0.207322
-0.208852
-0.202717
0.731306
-0.203129
0.049016
0.086889
-0.076663
0.496943
0.125412
0.055983
-0.460553
0.213418
-0.264332
-0.687347
0.455116
0.218528
0.112843
0.460314
0.005043
0.290422
-0.663015
0.514812
-0.624756
0.553172
0.941845
0.097042
-0.019929
-0.534186
0.392942
0.157507
0.158984
-0.259115
-0.017361
0.442768
-0.434429
-0.504524
0.263651
0.103045
0.043249
-0.208695
-0.334818
0.143754
-0.235790
-0.348874
-0.385350
-0.123334
1.085487
0.465986
0.256856
0.360231
0.316417
0.119670
0.649460
-0.232763
0.080302
-0.587846
-0.474293
-0.241398
-0.197669
-0.058395
-0.131357
0.152972
-0.876579
0.172211
-0.016856
-0.088482
0.155217
0.200590
0.053954
0.768451
0.023128
0.481636
0.617711
0.810232
0.094469
0.159722
0.230408
0.259593
0.391511
0.041913
0.388094
-0.592127
0.406975
0.059984
-0.374820
-0.191144
-0.348270
0.655362
-0.124105
0.088998
0.129050
0.049563
-0.017973
-0.233506
0.177032
1.030404
-0.173868
0.118554
0.468884
0.288950
0.148563
0.388067
0.291038
-0.002076
0.132832
0.640033
-0.179053
0.339010
-0.004987
0.636643
-0.181704
-0.157446
0.265258
0.597322
0.578185
0.288429
0.470027
0.357491
0.035952
-0.046540
0.646326
0.391840
-0.398328
-0.257460
0.152579
0.631043
0.216633
-0.481040
-0.302312
-0.123545
-0.254173
0.335102
0.123789
0.110113
-0.154691
-0.296381
0.386667
0.276532
0.331620
0.451776
-0.032158
0.084970
0.578508
0.299372
-0.208298
-0.423959
0.467647
0.395831
0.193972
-0.351527
0.191828
0.197105
-0.391467
0.246191
0.203525
0.171138
-0.695120
-0.111125
0.256350
-0.025278
0.403935
0.391373
1.218062
-0.334100
0.102887
0.256233
-0.477516
-0.091180
-0.078348
-0.018155
0.037379
0.106544
-0.445486
0.040104
0.160140
0.140754
-0.101709
0.422527
0.525270
-0.324032
-0.159877
-0.195070
0.002991
0.741019
0.168245
0.131304
0.445628
0.847903
0.711906
0.779916
-0.337505
0.705658
-0.029494
0.232107
0.288240
-0.135722
0.260579
-0.018757
0.728231
0.252579
0.337722
-0.544029
0.699632
0.162248
0.361281
-0.319961
0.462412
0.500697
0.253455
0.066578
-0.221723
0.198741
-0.246971
0.494173
-0.202796
-0.007244
-0.268654
0.617022
-0.241526
0.588370
0.086234
-0.213514
-0.097851
0.621521
-0.285948
-0.327991
0.832964
0.665736
-0.079166
-0.263414
-0.355172
-0.449658
0.512603
-0.609303
-0.082633
0.057018
0.174754
0.151199
0.081545
-0.126874
-0.002805
-0.182242
-0.538920
0.176219
0.197372
1.272829
0.339023
0.165395
0.945398
0.928646
0.669596
0.467421
0.963945
0.142418
0.336477
-0.252584
0.328157
0.332536
-0.612444
-0.760999
0.375277
0.497223
-0.158069
-0.101820
-0.626573
-0.185588
-0.116843
0.051592
-0.007627
