0.041729
0.050962
-0.032244
0.016497
0.057739
-0.011171
0.004337
0.033796
0.002986
-0.024516
0.032806
0.026631
0.046984
-0.016340
0.013999
0.013212
-0.000556
-0.030599
-0.016130
-0.011619
0.012929
-0.021116
-0.015818
0.032027
-0.021979
0.018363
0.072661
0.079661
0.047134
0.062573
0.084736
0.046479
0.099846
-0.014338
0.049821
0.030549
0.242648
0.044637
0.128401
0.170227
0.253117
0.210385
0.138600
0.235378
0.236138
0.170639
0.229596
0.176131
0.281515
0.216127
0.166857
0.113948
0.183137
0.169830
0.256890
0.155577
0.166511
0.164547
0.151732
0.086544
0.087540
0.139951
0.051197
0.110337
0.131353
0.064554
0.026153
0.094050
0.043084
0.056670
0.057541
0.085454
0.007453
-0.040655
0.047386
0.054316
0.046972
0.060082
0.011287
0.044579
-0.033418
-0.007508
0.046871
-0.008165
-0.025119
0.007924
-0.008231
-0.026367
0.092452
0.182221
0.513844
0.758422
1.108107
1.403603
1.369020
1.319094
1.100364
0.722715
0.360906
0.065347
-0.067301
-0.142062
-0.171951
-0.160262
-0.069663
-0.055222
0.006747
0.024455
0.113023
0.037958
0.221630
-0.006018
0.092626
0.125093
0.023068
0.066560
0.070228
0.101366
0.121441
0.085945
0.137605
0.106017
0.042576
0.124219
0.181120
0.093586
0.227901
0.155994
0.174949
0.224204
0.242266
0.307208
0.291361
0.199825
0.332949
0.350199
0.315355
0.480823
0.357331
0.383967
0.357874
0.417612
0.479921
0.438295
0.447467
0.451100
0.509505
0.546669
0.599468
0.575660
0.527466
0.551294
0.581089
0.573889
0.630515
0.556383
0.570779
0.540215
0.557264
0.596302
0.516115
0.436984
0.471313
0.564432
0.444496
0.487258
0.433345
0.342051
0.420378
0.336450
0.324797
0.358490
0.284815
0.311218
0.155830
0.204444
0.173688
0.252163
0.241349
0.148386
0.175707
0.201476
0.127490
0.087391
0.130734
0.082091
0.116516
0.095025
0.133312
0.032084
0.085106
0.118907
0.102781
0.077824
0.088756
0.127168
0.034882
0.119069
0.108951
0.089022
0.160257
0.118242
0.032447
0.067915
0.076179
0.092788
0.135685
0.070414
0.124398
0.057970
0.058314
0.098876
0.039163
0.106180
0.104472
0.086742
0.164776
0.104598
0.063269
0.095866
0.142886
0.118236
0.052473
0.108741
0.016021
0.041359
0.105677
0.077230
0.089920
0.102234
0.059886
0.030741
0.039074
0.069387
0.035663
0.160660
0.083796
-0.000605
0.088869
0.057112
0.033123
0.090841
0.043945
0.060887
0.091410
0.145660
0.047450
0.149059
0.126698
0.075608
0.030142
0.060613
0.048385
0.082232
0.135270
0.103654
0.043126
-0.008601
0.044662
-0.026223
0.031954
0.122267
0.109734
0.148692
0.071033
0.176516
0.115628
0.183481
0.081410
0.115713
0.184134
0.141763
0.149608
0.105843
0.246955
0.271197
0.158111
0.251233
0.275514
0.240290
0.239172
0.239401
0.279406
0.240299
0.192009
0.106872
0.227232
0.217552
0.191183
0.236752
0.256584
0.187298
0.175614
0.157450
0.075548
0.070019
0.126887
0.135350
0.110420
0.046559
0.095699
0.098338
0.076354
0.032358
0.139361
0.004719
0.049327
0.057075
0.019268
0.047595
0.092449
0.128597
0.006459
0.110823
0.114375
0.088834
0.122526
0.024237
0.025633
0.061125
-0.018300
-0.016345
0.111916
0.122526
0.388705
0.727020
0.966735
1.280646
1.457687
1.367213
1.155445
0.801506
0.526249
0.191326
0.020007
-0.257681
-0.197518
-0.165873
-0.105659
-0.110043
0.030657
0.001212
0.063894
0.011842
0.010087
0.036308
0.025982
0.065393
0.054184
0.035471
0.051601
0.055057
0.108114
0.036601
0.091501
0.060559
0.101819
0.160556
0.097089
0.172180
0.094330
0.216021
0.131475
0.114745
0.230767
0.147521
0.263431
0.236396
0.277610
0.247338
0.270213
0.251178
0.307949
0.371602
0.401324
0.390864
0.405885
0.487956
0.413603
0.451530
0.456670
0.489027
0.520623
0.422245
0.578567
0.524786
0.524464
0.605807
0.507647
0.480022
0.537950
0.457154
0.517609
0.383646
0.446552
0.443714
0.437823
0.428584
0.374201
0.361231
0.347158
0.374283
0.385709
0.311782
0.282528
0.226008
0.118153
0.181123
0.179527
0.106195
0.092556
0.066509
0.180484
0.085564
0.088617
0.059512
0.089056
0.012359
0.048338
0.077165
0.057203
0.066029
0.031435
0.027798
0.011253
0.098222
0.010059
0.051983
-0.006828
-0.024351
-0.083273
0.008593
-0.000443
0.068151
0.009805
-0.046527
-0.062407
-0.032912
-0.034316
-0.028516
-0.047881
-0.023860
0.009898
0.001050
-0.011567
0.064051
-0.074658
0.061405
0.001155
0.026881
0.023424
0.047745
-0.113813
-0.025530
-0.025891
0.055782
-0.059324
-0.022775
-0.024715
0.000891
-0.023863
-0.024114
-0.022933
-0.023213
-0.011202
-0.068065
-0.082907
-0.070209
-0.006280
0.002732
0.012987
-0.035096
-0.022320
0.007556
-0.033849
-0.071306
-0.067349
-0.016620
-0.047329
-0.080390
-0.023718
0.064293
-0.066879
-0.041217
-0.003000
0.002521
-0.034931
-0.032355
-0.016695
-0.019011
-0.050133
-0.115959
0.005061
-0.046938
-0.008178
0.003140
0.019487
-0.077531
0.033999
0.002072
0.074167
0.000229
-0.003974
0.033307
0.077151
0.038447
0.079358
0.151704
0.112938
0.023135
0.123072
0.088569
0.167900
0.102587
0.071559
0.135746
0.128301
0.176516
0.123224
0.188709
0.105699
0.039446
0.077114
0.072503
0.073055
0.126462
0.048587
-0.015950
0.126691
-0.084002
-0.002554
0.032157
-0.020297
0.076174
-0.020355
0.017136
0.020261
-0.066664
-0.026736
-0.073883
-0.054004
-0.072334
-0.085814
-0.071368
-0.087138
-0.069785
-0.053354
-0.099377
-0.029150
-0.079752
0.035568
-0.054661
-0.044049
-0.110747
-0.120907
-0.128049
-0.058490
0.049664
0.147660
0.519779
0.886313
1.170486
1.226544
1.346947
1.076345
0.907256
0.549568
0.237331
-0.078646
-0.184128
-0.295210
-0.352344
-0.256715
-0.107320
-0.170052
-0.072000
-0.020906
-0.015231
-0.061558
0.009922
0.049846
-0.009375
0.019394
-0.028632
-0.031848
-0.021989
-0.005616
0.051161
0.011002
0.047521
0.042945
-0.004222
0.011195
0.059575
0.133150
0.061963
0.060350
0.134779
0.120421
0.114224
0.171797
0.175930
0.131702
0.206693
0.159748
0.245703
0.194887
0.189462
0.309137
0.298514
0.438084
0.384240
0.430611
0.331860
0.389093
0.389911
0.412586
0.449935
0.415683
0.375878
0.493635
0.408223
0.533407
0.468390
0.405496
0.506690
0.395189
0.477422
0.362926
0.471343
0.500486
0.319636
0.402966
0.424345
0.313498
0.274375
0.264705
0.231715
0.248730
0.208934
0.183305
0.176819
0.212480
0.078247
0.162442
0.148067
0.105852
0.088693
0.075042
0.096034
-0.000559
0.032488
0.076146
0.066328
-0.010592
0.045245
-0.008176
0.060061
-0.003170
-0.022438
0.039224
-0.008521
-0.057924
0.013982
-0.080357
-0.013780
-0.001542
-0.054999
-0.009341
-0.018647
-0.021540
-0.039669
-0.038834
-0.033254
0.001297
-0.063245
0.014631
-0.069166
-0.031031
0.018165
-0.090357
-0.026962
-0.000381
-0.048317
-0.015713
0.067955
0.078196
0.010453
0.013345
-0.010720
-0.077242
-0.032550
-0.060345
0.018485
-0.041985
0.006480
-0.017459
0.005759
0.039608
0.011630
-0.040647
0.077523
0.043010
-0.014320
-0.017238
0.009420
-0.046874
0.002862
-0.010168
0.054284
-0.063901
0.022387
0.025425
-0.068147
-0.033814
-0.064675
0.040428
0.028803
0.059446
0.060654
0.020896
-0.022659
-0.023358
0.041988
-0.012165
0.074326
0.042405
0.027599
-0.024960
0.112377
-0.035707
0.058147
0.052633
0.084268
0.063642
0.150866
0.096913
0.034987
0.145037
0.127650
0.068429
0.120726
0.138521
0.142454
0.185437
0.210948
0.221157
0.187370
0.245017
0.235642
0.105018
0.222744
0.133176
0.204169
0.170105
0.232699
0.203618
0.188660
0.191985
0.197603
0.066613
0.084472
0.099288
0.024101
0.101067
0.082592
0.016095
0.099050
0.097427
0.151086
0.066166
0.034186
0.032055
0.054487
0.065733
0.073739
0.070984
0.023155
0.025669
0.058033
0.018391
0.017114
-0.016126
0.001718
0.038563
0.083995
0.001684
0.045366
0.100571
-0.016499
-0.016589
0.062864
0.274992
0.452608
0.812401
1.049927
1.369866
1.452676
1.297846
1.095874
0.813887
0.386016
0.147204
-0.102724
-0.264992
-0.286657
-0.184465
-0.096917
-0.014473
0.013852
0.123920
-0.017778
0.064715
0.018914
0.075013
0.075656
0.085703
0.046968
0.057311
0.071670
0.050121
0.076045
0.064736
0.110266
0.078508
0.105012
0.081709
0.139832
0.189141
0.158960
0.173451
0.146684
0.226083
0.208232
0.260381
0.260260
0.273173
0.339887
0.286508
0.336506
0.424260
0.384204
0.479438
0.435887
0.429199
0.527803
0.483599
0.521215
0.488547
0.497585
0.561120
0.547277
0.597818
0.594635
0.542707
0.536218
0.495881
0.597148
0.583603
0.538243
0.499610
0.556219
0.532191
0.433116
0.478658
0.487235
0.451682
0.353002
0.473627
0.430300
0.438467
0.357874
0.374457
0.382409
0.402775
0.259254
0.300917
0.252855
0.258161
0.225391
0.267339
0.098069
0.137720
0.156496
0.177864
0.137356
0.122700
0.185449
0.169550
0.122025
0.142962
0.095985
0.052981
0.148239
0.131795
0.112982
0.145318
0.154980
0.108703
0.146977
0.118200
0.082644
0.068421
0.129965
0.146915
0.110052
0.098814
0.168771
0.099876
0.078787
0.069605
0.114680
0.075140
0.088475
0.067284
0.095945
0.138764
0.114084
0.110476
0.109180
0.038323
0.075873
0.185945
0.060810
0.058024
0.111314
0.128268
0.045968
0.109635
0.104097
0.000976
-0.016719
0.134227
0.119368
0.120942
0.143956
0.065091
0.136437
0.081654
0.083637
0.089070
0.100799
0.019497
0.065968
0.127269
0.056815
0.096352
0.172678
0.034560
0.136947
0.094144
0.101648
0.098029
0.078933
0.142058
0.135608
0.054545
0.079409
0.138324
0.164534
0.107499
0.069663
0.096108
0.043109
0.091563
0.105397
0.143067
0.010062
0.133273
0.097842
0.092096
0.156425
0.174881
0.143328
0.148964
0.164146
0.217269
0.237726
0.285424
0.151038
0.212773
0.251138
0.297235
0.300417
0.260816
0.196266
0.267486
0.250639
0.187923
0.207902
0.229947
0.181181
0.162635
0.222799
0.160368
0.211633
0.122379
0.185688
0.113884
0.195866
0.143491
0.141941
0.155775
0.088598
0.108600
0.052830
0.126650
0.097838
0.075165
0.059152
0.023288
0.135812
0.111168
0.070455
0.044216
-0.010719
0.106897
0.076588
0.060681
0.116487
0.026649
0.023199
0.005878
0.032822
0.055993
0.039664
0.191743
0.427850
0.649156
1.037625
1.284156
1.412182
1.314918
1.210340
0.928815
0.618078
0.236747
0.022505
-0.220124
-0.160991
-0.141798
-0.102461
-0.061101
0.093646
-0.038103
0.083942
0.054177
0.072574
0.042554
0.144157
0.078252
0.101780
0.089187
0.041826
0.103720
0.058813
0.047029
0.086386
0.069234
0.069509
0.163806
0.098649
0.134897
0.062368
0.221846
0.171327
0.242106
0.165580
0.195053
0.241295
0.240476
0.291385
0.289889
0.357596
0.368643
0.338817
0.428922
0.361087
0.284501
0.424697
0.415870
0.487209
0.495781
0.561402
0.455859
0.502493
0.524732
0.494936
0.547878
0.570093
0.586930
0.510811
0.538800
0.558586
0.491989
0.489975
0.441507
0.555763
0.418294
0.411842
0.446392
0.394819
0.372273
0.395833
0.361965
0.343483
0.287531
0.238149
0.258360
0.257508
0.124271
0.119257
0.082874
0.182311
0.121717
0.139411
0.181423
0.116565
0.180010
0.172003
0.054874
0.064305
0.061009
0.053954
0.108623
0.073559
-0.050256
0.047070
0.110321
0.052495
0.050290
0.023136
0.017458
-0.009823
0.027661
-0.025095
0.025839
-0.016566
0.071395
0.008885
-0.012843
0.014904
0.045201
-0.063006
0.032115
0.012175
-0.051673
-0.005640
-0.009292
0.029329
0.046152
-0.045385
-0.098650
-0.048752
0.078828
0.048266
0.046594
0.096513
-0.016659
0.030701
0.059268
0.037110
-0.068660
-0.042552
0.044806
0.032347
-0.043797
-0.053087
-0.050741
0.048965
-0.023351
0.000384
-0.000652
0.015123
-0.059814
-0.114953
0.025323
-0.033314
-0.075369
0.009387
0.012303
0.048897
-0.043316
-0.056280
-0.015143
-0.082157
-0.006249
-0.028695
-0.003357
0.062864
-0.044694
0.070753
-0.042534
-0.011934
-0.031732
0.031506
-0.031681
-0.027881
-0.015536
0.018543
-0.014190
0.037391
0.004176
-0.084075
-0.004280
0.060746
-0.025414
0.073625
0.096767
0.047908
0.144153
0.021337
0.115025
0.140504
0.092416
0.160699
0.136165
0.199278
0.112226
0.173677
0.138438
0.240584
0.150828
0.030203
0.088347
0.092042
0.100762
0.050264
0.120150
0.156441
-0.048966
0.015741
0.043568
-0.027973
-0.035610
0.048905
-0.014421
-0.047232
-0.022542
-0.064379
-0.024695
-0.030267
-0.158629
-0.150747
0.007812
-0.098980
-0.006147
-0.040821
-0.058676
-0.077983
-0.074809
-0.031247
0.008211
-0.073177
-0.093961
-0.082725
-0.062852
-0.060104
-0.108034
-0.098217
-0.003439
0.190199
0.455382
0.746404
1.054295
1.204426
1.257771
1.192859
0.927909
0.535616
0.230228
-0.001600
-0.257590
-0.354714
-0.397201
-0.248016
-0.168031
-0.030336
-0.094082
-0.022259
-0.058150
-0.123034
-0.042600
-0.015454
-0.142124
-0.074678
-0.071271
-0.108486
-0.093220
-0.031708
-0.034212
-0.068748
0.014238
-0.025085
0.006579
0.038984
-0.007457
0.060200
0.007748
0.094987
0.024151
0.079278
0.106011
0.093789
0.143042
0.163364
0.146278
0.222182
0.119851
0.231625
0.185279
0.212624
0.226466
0.278188
0.351180
0.292164
0.355222
0.389122
0.376812
0.321747
0.372184
0.420168
0.368597
0.387941
0.418358
0.422624
0.429082
0.345764
0.335719
0.365089
0.415601
0.350784
0.398637
0.233100
0.235693
0.333694
0.293108
0.175949
0.303310
0.227602
0.251871
0.163125
0.087806
0.180792
0.126360
0.128892
0.112266
0.089488
0.070187
0.056965
0.092823
-0.011990
-0.070272
0.008595
0.033727
-0.069951
-0.012657
-0.045216
0.010120
0.007918
-0.015329
-0.024934
-0.185463
-0.025723
-0.093459
-0.053345
-0.055673
-0.129647
-0.067250
-0.096782
-0.043358
-0.029808
-0.113494
-0.133078
-0.132706
-0.049317
-0.076374
-0.084112
-0.013073
-0.045041
-0.065090
-0.088789
-0.122031
-0.118721
-0.073132
0.001922
-0.086245
-0.009167
-0.078521
-0.088977
-0.079446
-0.021163
-0.025886
-0.134920
-0.056948
-0.122227
-0.032187
-0.069253
-0.077982
-0.037270
-0.078995
-0.054115
-0.114911
-0.006709
-0.080775
-0.063306
-0.079280
-0.090961
-0.073995
-0.058914
-0.066485
-0.070731
-0.007438
-0.048727
-0.042117
-0.085191
-0.019516
-0.097188
-0.012181
0.054820
-0.045720
-0.065408
-0.058675
-0.003393
-0.031321
-0.122283
-0.073837
-0.019766
-0.018235
-0.048944
-0.016076
-0.043092
-0.027594
-0.081370
0.004585
-0.033011
-0.041903
-0.024746
-0.012739
0.052325
0.022598
0.117229
-0.000918
0.012838
-0.023522
0.036217
0.079338
0.086234
0.084541
0.113548
0.103655
0.106674
0.046305
0.078785
0.004381
0.095108
0.090709
0.145585
0.099019
0.113292
0.049445
0.033948
-0.016410
0.091805
0.158380
0.007739
-0.016258
0.015629
-0.038448
0.114982
0.025970
0.063961
0.005706
-0.035603
-0.059541
0.065827
-0.086961
-0.170595
-0.070695
-0.048335
0.085850
0.012681
-0.016954
-0.099645
0.032159
-0.123117
-0.017196
-0.091501
-0.078495
-0.004113
-0.059304
-0.052168
-0.105563
-0.109128
-0.121252
0.112617
0.271859
0.724187
1.053008
1.293079
1.327991
1.324260
1.054283
0.731960
0.415349
0.041850
-0.190096
-0.223208
-0.278032
-0.269708
-0.257815
-0.044509
-0.119231
-0.015437
-0.119122
-0.005645
-0.021101
0.007855
-0.056561
-0.016621
0.090989
0.043714
0.024481
-0.008256
0.083023
0.036548
0.009342
0.032269
0.072708
0.060247
0.015171
0.120849
0.025292
0.106820
0.118325
0.121002
0.124681
0.151816
0.184589
0.263526
0.276302
0.236262
0.329655
0.229928
0.324797
0.426685
0.332355
0.336595
0.405947
0.404144
0.420474
0.405782
0.407000
0.454297
0.453927
0.470001
0.539094
0.410008
0.520346
0.439292
0.454415
0.526118
0.513224
0.419842
0.498684
0.524244
0.453610
0.481864
0.449929
0.438865
0.418788
0.300869
0.330516
0.323346
0.291116
0.257289
0.266671
0.243958
0.268446
0.188855
0.181965
0.165086
0.144502
0.090971
0.101857
0.118474
0.090557
0.100808
0.031888
0.147637
0.055645
0.064645
0.058955
0.043383
0.007784
0.096043
0.046033
0.081769
-0.038268
0.037240
0.034707
-0.031015
0.026036
0.012123
0.004440
0.005656
-0.008904
-0.018022
0.007702
0.069215
0.013049
-0.058825
0.023735
0.080069
0.065652
0.029204
0.028899
0.022201
0.000938
0.001896
0.038309
0.053555
0.008215
0.001762
0.005876
-0.015038
0.033251
-0.002979
0.036274
0.028510
0.071402
0.017153
0.065187
0.068530
-0.033680
0.023862
-0.006193
0.018451
0.117823
-0.024033
0.009863
-0.009452
0.001831
0.078804
0.046736
0.016585
0.066162
0.010884
-0.005579
0.048643
0.059407
0.057398
0.019102
0.072341
0.089991
0.089557
0.004888
0.092860
-0.004345
0.025112
0.063635
0.072372
0.044322
0.054977
-0.025928
-0.024949
0.075132
0.043975
0.056393
0.044911
0.078174
0.060681
0.029410
0.170781
0.095053
0.031342
0.132896
0.120611
0.250123
0.153991
0.135893
0.159016
0.195817
0.118227
0.198113
0.232941
0.142516
0.171885
0.282544
0.190563
0.199547
0.171849
0.179974
0.182906
0.295133
0.182109
0.128539
0.097735
0.127556
0.111240
0.100431
0.078667
0.098660
0.080991
0.112565
0.074330
0.131281
0.158241
0.080410
0.131139
0.053459
0.035214
0.092445
0.104367
0.084072
0.062297
0.052943
0.082485
0.005598
0.057535
0.009003
0.056407
0.026948
0.005962
0.001925
-0.034820
-0.017145
0.001750
-0.010216
0.128232
0.360617
0.667904
0.946414
1.189027
1.401375
1.337019
1.217893
0.944271
0.609918
0.254717
-0.029068
-0.136254
-0.288288
-0.217757
-0.203345
-0.088867
-0.052281
0.086510
0.113352
0.109289
0.050135
0.031887
0.004564
0.072309
0.062311
0.046280
0.045362
0.082966
0.084999
0.080876
0.116102
0.119495
0.058618
0.140829
0.126902
0.186392
0.161284
0.250566
0.099265
0.214701
0.171085
0.231578
0.222329
0.214077
0.207908
0.286601
0.217313
0.339220
0.338650
0.334953
0.363976
0.298417
0.434163
0.453000
0.512370
0.441809
0.396078
0.523694
0.521339
0.445081
0.589382
0.516056
0.512446
0.513789
0.518547
0.535827
0.569569
0.516408
0.580233
0.523595
0.468503
0.444610
0.365055
0.412970
0.396050
0.309387
0.307647
0.360007
0.299087
0.226045
0.302085
0.210464
0.236524
0.190022
0.218648
0.170687
0.211624
0.147142
0.205602
0.225133
0.070749
0.058349
0.104768
0.072613
0.106011
0.024767
0.126406
0.027240
0.034926
-0.021079
0.062358
0.119692
-0.031341
0.038640
0.054487
-0.012040
0.027542
-0.037684
-0.003618
-0.000587
0.049888
0.028289
-0.009128
-0.007942
0.022892
0.025258
0.018122
-0.033474
-0.056035
0.027693
-0.042573
-0.010760
0.011741
-0.037893
0.051083
-0.021783
0.037568
0.023896
0.007956
0.022772
0.048497
-0.056307
0.026125
-0.005331
-0.033830
0.009328
-0.049318
0.056210
-0.064559
-0.008920
0.036477
-0.044763
0.045405
-0.019541
0.027126
-0.058355
-0.058382
0.037941
-0.027344
0.040654
0.029836
0.033722
-0.039392
-0.014288
-0.005555
-0.119778
-0.043790
-0.131717
-0.020801
-0.093030
-0.045694
-0.086486
-0.036267
0.039496
-0.047555
0.062180
-0.035850
-0.034769
0.019724
0.070264
0.001795
-0.025223
-0.114756
-0.003229
0.037750
0.005797
0.066848
-0.010116
-0.020800
0.077481
0.118387
0.057987
0.041778
0.156750
0.054120
0.131865
0.091342
0.149260
0.103527
0.203351
0.115198
0.161924
0.156351
0.098619
0.093232
0.028220
0.074586
0.075691
0.059977
0.066565
0.139173
0.006156
0.087021
-0.060767
-0.011891
-0.000545
0.002216
-0.024302
-0.025868
-0.032171
0.028860
-0.024583
0.006152
-0.041462
0.012157
-0.030740
-0.047994
-0.139112
-0.114610
-0.099270
0.011236
-0.069112
-0.103607
-0.121299
-0.037534
-0.068721
-0.089537
-0.077452
-0.030393
-0.110209
-0.084848
-0.118332
-0.039374
-0.046694
0.087709
0.433880
0.711889
1.043907
1.179693
1.299189
1.164953
0.880890
0.648309
0.294683
-0.042783
-0.147273
-0.384354
-0.365389
-0.313853
-0.198841
-0.159747
-0.131527
-0.101061
-0.051510
-0.046376
-0.000258
-0.044493
-0.030625
-0.089422
-0.032136
-0.077752
0.019710
-0.060790
-0.076139
-0.036091
0.002326
-0.070804
-0.052039
-0.006770
0.036992
0.025559
-0.068243
0.048118
0.094419
0.072208
0.054368
0.150115
0.088673
0.227273
0.098170
0.210952
0.202619
0.241889
0.299442
0.225651
0.213602
0.349561
0.330389
0.235093
0.283248
0.320414
0.408685
0.405050
0.312800
0.366724
0.398352
0.302633
0.423363
0.411543
0.403847
0.446900
0.374256
0.406790
0.352033
0.311774
0.291346
0.338469
0.274673
0.366331
0.342645
0.218396
0.245646
0.264350
0.201567
0.177939
0.187534
0.181755
0.135708
0.051072
0.104591
0.129973
0.052902
0.048274
0.052298
0.013152
-0.056377
-0.055211
-0.014459
0.067993
-0.001835
-0.026918
-0.035880
-0.077563
-0.073599
-0.017037
-0.135303
-0.069127
-0.022232
-0.039002
-0.118635
-0.031004
-0.094361
-0.128768
-0.050801
-0.093246
-0.095223
-0.141114
-0.157787
-0.046670
-0.046209
-0.052191
-0.011449
-0.119879
-0.110861
-0.090550
-0.147471
-0.179174
-0.144593
-0.137569
-0.138121
-0.087111
-0.132041
-0.089809
-0.073863
-0.008904
-0.107649
-0.126683
-0.073235
-0.102009
-0.014012
-0.128989
-0.115747
-0.146031
-0.024115
-0.081005
-0.131149
-0.087147
-0.022133
-0.135089
-0.149931
-0.000692
-0.050876
-0.149716
-0.104991
-0.077800
-0.110764
-0.107739
-0.071371
-0.014535
-0.104697
-0.025372
-0.088868
-0.107521
-0.110406
-0.102029
-0.081516
-0.100646
-0.099843
-0.085410
-0.085915
-0.196656
-0.087961
-0.062009
-0.021819
-0.135347
-0.062672
-0.111358
-0.040570
-0.042618
-0.004924
-0.017512
-0.074830
-0.000321
0.016055
-0.021804
0.043440
-0.026731
-0.009921
-0.027831
-0.027686
0.008306
0.072579
0.093170
0.090757
0.001614
0.121756
0.049094
0.086572
0.084455
0.076284
0.066570
0.061542
0.039847
0.063116
0.091357
0.019182
0.086102
0.025754
0.014134
-0.020560
0.042757
-0.005446
0.019052
-0.002274
-0.086090
-0.068781
-0.107383
-0.091274
0.029417
-0.049639
-0.028472
-0.070651
-0.076918
-0.110958
-0.096031
-0.064195
-0.057966
-0.059694
-0.071509
-0.024489
-0.040960
-0.048605
-0.060492
-0.023372
-0.113882
-0.099337
-0.050240
-0.010020
0.127624
0.195484
0.604131
0.913235
1.222386
1.284492
1.163788
1.035443
0.684807
0.451776
0.043595
-0.183189
-0.342322
-0.391360
-0.295055
-0.234707
-0.173658
-0.032654
-0.079977
-0.045924
0.028771
0.018458
-0.098925
0.003935
-0.011328
-0.014593
-0.013662
-0.027818
-0.005308
-0.030189
-0.016875
-0.025526
0.071058
0.004910
0.049823
0.048600
0.021647
0.038277
-0.014100
0.117619
0.047003
0.115876
0.191505
0.214044
0.137294
0.211328
0.264544
0.162450
0.276136
0.362438
0.273997
0.283853
0.333619
0.302681
0.354953
0.399381
0.444880
0.482746
0.364134
0.399903
0.410288
0.443397
0.473482
0.468161
0.437477
0.512231
0.498016
0.472669
0.461604
0.463329
0.435045
0.373605
0.374621
0.432262
0.320274
0.320958
0.300375
0.295860
0.262109
0.292397
0.241117
0.280644
0.178574
0.195570
0.207103
0.123118
0.258932
0.156202
0.174715
0.107046
0.155714
0.125035
0.052566
0.047360
0.059930
0.060472
0.094586
0.041126
0.001441
-0.008930
0.066119
0.034298
0.044944
0.033108
0.061888
-0.079313
0.047817
0.029252
-0.028662
0.058952
-0.010937
0.011136
0.002313
0.053687
-0.017103
0.000634
0.025362
-0.001972
0.047915
0.027040
-0.039179
0.000161
0.008701
0.046317
0.028426
-0.024291
0.037309
0.110938
-0.074086
-0.038833
-0.003361
-0.046025
0.099854
0.026325
0.011546
0.008453
0.045144
0.023238
0.037035
-0.016500
0.041708
-0.011702
0.093088
-0.047681
0.017445
0.055354
0.053225
-0.009203
0.060475
0.099748
0.039084
0.087103
-0.005074
-0.025940
0.048045
0.081422
0.136817
0.017079
0.030254
0.006379
0.053232
-0.013531
0.054099
0.059627
0.062887
0.105461
-0.018826
0.011271
-0.027918
0.072479
0.031535
-0.008089
0.068483
0.075278
0.121415
0.115772
0.056806
0.127313
0.045336
0.053119
0.088825
0.179630
0.126332
0.203117
0.179307
0.103509
0.111526
0.209513
0.204903
0.221629
0.258273
0.225989
0.152444
0.220884
0.222302
0.250343
0.205775
0.177526
0.188346
0.112899
0.129174
0.193039
0.196055
0.126227
0.178810
0.061711
0.078526
0.159282
0.140164
0.151369
0.130237
0.049375
0.097297
0.038072
0.058883
0.047247
0.115702
0.020365
0.040502
0.057894
0.101352
0.107977
0.073447
0.161154
0.029038
0.077765
0.066886
0.039449
0.055434
-0.012688
0.002448
0.097721
0.041783
0.092482
0.126288
0.286284
0.500017
0.941353
1.188674
1.386526
1.500000
1.245100
0.985539
0.625626
0.354711
0.087919
-0.144817
-0.234828
-0.174258
-0.103681
0.004805
0.021893
0.045204
0.090109
0.119331
0.022838
0.089644
0.043692
0.096538
0.076404
0.120326
0.157620
0.024471
0.014937
0.133875
0.130823
0.112430
0.068110
0.103347
0.135317
0.140557
0.183408
0.122992
0.146248
0.286127
0.241660
0.218851
0.263299
0.264519
0.312366
0.344086
0.234097
0.361978
0.372080
0.396166
0.441477
0.404423
0.418068
0.426556
0.501775
0.498011
0.480644
0.521666
0.522279
0.628409
0.619707
0.581235
0.580010
0.570874
0.542821
0.569205
0.586058
