-0.010603
0.005285
-0.054974
-0.013900
0.006882
0.026257
-0.035151
-0.028209
-0.019446
0.029139
0.051005
-0.083484
-0.023477
-0.010135
0.018701
0.022737
0.000364
-0.030328
0.017076
0.005134
0.099266
-0.015602
0.034179
0.015002
0.011706
-0.069226
0.083911
0.129524
0.041282
0.064360
0.080874
0.080509
0.061983
0.140724
0.135238
0.129771
0.154756
0.131529
0.134182
0.105715
0.272303
0.206084
0.211569
0.201780
0.157869
0.237444
0.227017
0.171597
0.179076
0.137108
0.133143
0.146943
0.111994
0.218814
0.026645
0.038293
0.096293
0.060092
0.128975
0.044698
0.111545
0.174081
0.150735
0.079313
0.104079
0.016429
-0.018363
0.072505
0.037227
0.063757
0.003799
0.096057
0.042488
0.083499
0.059150
0.043986
0.036285
0.033389
0.000084
0.054290
0.130479
0.155030
0.494885
0.757233
1.153451
1.360670
1.500000
1.268785
0.998795
0.685470
0.373768
0.039373
-0.135209
-0.163886
-0.151339
-0.095815
-0.010431
0.005686
0.005518
0.070840
0.094176
-0.004276
0.085081
0.080518
0.071971
0.082087
0.076936
0.015634
0.081217
0.175685
0.123049
0.164517
0.153870
0.129494
0.196442
0.224350
0.148394
0.154909
0.294436
0.278345
0.302175
0.316761
0.321341
0.299093
0.364770
0.316956
0.386446
0.404895
0.406413
0.367598
0.485806
0.481889
0.465503
0.455628
0.459161
0.536509
0.534980
0.522694
0.560971
0.514092
0.520644
0.518605
0.535784
0.525758
0.518961
0.519899
0.504670
0.524154
0.483390
0.494423
0.411181
0.431066
0.391266
0.418982
0.331919
0.327722
0.319226
0.254031
0.324496
0.269285
0.224035
0.154907
0.201498
0.257685
0.151201
0.290020
0.222584
0.211090
0.093819
0.055739
0.154781
0.164928
0.165835
0.096973
0.151105
0.193111
0.161291
0.188978
0.109426
0.130563
0.093024
0.045766
0.067029
0.138191
0.076848
0.080290
0.135339
0.087111
0.058782
0.060660
0.040065
0.110743
0.142259
0.078472
0.040240
0.018108
0.012550
0.039451
0.116897
0.091875
0.084339
0.083632
0.058423
0.138849
0.007723
0.114983
0.097882
0.088783
0.104673
0.114028
0.115242
0.046310
0.121722
0.082703
0.077075
0.117885
0.066341
0.075501
0.119128
0.084761
0.049274
0.110340
0.102549
0.086144
0.085310
0.100717
0.015253
0.098059
0.098635
0.080764
0.035161
0.073067
0.152699
0.054512
0.030141
0.069027
0.136572
0.103176
0.110649
0.166424
0.143781
0.173473
0.188170
0.069464
0.139282
0.202960
0.154460
0.199856
0.152426
0.183856
0.212909
0.277101
0.273605
0.269204
0.197878
0.254610
0.215270
0.282660
0.196914
0.237154
0.216620
0.144011
0.226603
0.221740
0.222810
0.305350
0.196540
0.224027
0.164627
0.222510
0.108007
0.146269
0.160559
0.139993
0.049816
0.104203
0.097646
0.102380
0.118564
0.075155
0.051790
0.040231
0.070726
0.021185
0.103817
0.106370
0.059677
0.105077
0.064820
0.104457
0.161129
0.056853
0.008067
0.020257
0.114281
0.139276
0.465837
0.689660
1.005642
1.196742
1.396744
1.366829
1.059031
0.720406
0.390408
0.088946
-0.027872
-0.165604
-0.163812
-0.068377
-0.138015
-0.023674
0.090259
0.085637
0.049194
0.115488
0.022251
0.019801
0.061055
0.108581
0.109376
0.124802
0.107344
0.158090
0.106352
0.128725
0.180961
0.203767
0.159603
0.229060
0.202863
0.220121
0.183168
0.205589
0.310956
0.251529
0.248564
0.304664
0.357147
0.333225
0.349121
0.392200
0.427229
0.472459
0.438552
0.397069
0.458894
0.502549
0.512134
0.542466
0.434109
0.472609
0.497070
0.596355
0.538112
0.622397
0.494702
0.578965
0.521596
0.468567
0.480747
0.437203
0.374790
0.360609
0.333819
0.487974
0.409598
0.325831
0.351949
0.265391
0.316764
0.308212
0.238431
0.309213
0.239388
0.193572
0.164319
0.121419
0.184525
0.192978
0.130847
0.088499
0.066591
0.099000
0.134987
0.065945
0.096762
-0.010176
0.062701
0.079560
0.051979
0.056460
0.000735
0.000890
0.014578
0.007331
0.029725
-0.043658
0.004974
0.073480
0.040083
0.045001
-0.014768
0.025859
-0.016511
0.020603
0.010211
0.010955
0.036797
0.119299
-0.017943
-0.028006
-0.009942
0.053033
0.013260
0.001179
0.058253
0.022141
0.028519
0.051462
-0.003775
-0.066183
0.037471
0.031911
-0.025900
-0.024257
-0.050159
-0.002862
0.014164
-0.003058
-0.003767
-0.045769
0.019313
-0.041265
0.041387
-0.019297
0.000815
0.007167
0.007231
0.089328
0.029748
0.028743
-0.016301
-0.009464
-0.064566
-0.028520
0.001139
-0.002870
-0.009532
0.002354
0.078105
0.029113
0.011511
0.046869
0.074671
0.052840
0.055325
0.089144
0.054745
0.069321
0.109377
0.149741
0.018663
0.083493
0.108765
0.095542
0.101778
0.115413
0.161603
0.093547
0.110504
0.094664
0.048624
0.157966
0.218079
0.133201
0.166201
0.155557
0.068035
0.104777
0.069201
0.136264
0.058645
0.077512
0.062991
-0.011022
0.007705
0.130829
0.095558
-0.065164
-0.017413
-0.030844
-0.044402
-0.020439
0.053934
-0.025575
-0.047302
-0.088554
0.039511
-0.050466
-0.026473
-0.038300
-0.005427
0.015849
-0.073008
-0.054203
-0.071202
-0.123434
0.000103
0.061696
0.169957
0.537395
0.789206
1.166266
1.280263
1.257797
1.131973
0.784205
0.544768
0.071438
-0.189211
-0.250571
-0.273208
-0.186128
-0.200863
-0.113027
-0.073601
0.047173
-0.087783
-0.056949
-0.040833
0.039678
0.015397
0.024242
-0.013757
0.032785
0.034283
0.067234
0.044816
0.099933
0.005962
0.001723
0.115861
0.134512
0.130972
0.093561
0.059949
0.154485
0.125023
0.216517
0.150447
0.277954
0.252097
0.303729
0.290054
0.311177
0.315895
0.378431
0.337592
0.390498
0.359391
0.383236
0.421648
0.414423
0.390559
0.402326
0.483815
0.393103
0.401457
0.518746
0.416249
0.427927
0.380849
0.453922
0.390260
0.375394
0.351788
0.319958
0.305943
0.333303
0.250871
0.258648
0.307908
0.233730
0.241673
0.198740
0.159042
0.207571
0.190376
0.101345
0.089069
0.155098
0.081227
0.016169
0.135574
-0.019239
0.061795
0.105551
-0.022485
0.054222
0.052932
-0.020109
0.031291
-0.068847
-0.050238
0.002092
-0.077941
0.008607
0.020172
-0.010623
0.004708
-0.051466
-0.091945
0.025891
-0.051666
-0.016350
-0.020528
-0.083944
-0.118550
-0.046624
-0.024755
-0.061089
-0.048687
0.010853
-0.031894
-0.031739
-0.013496
-0.142465
-0.046652
-0.104945
-0.018061
0.011596
0.027477
-0.007265
-0.042325
-0.049608
-0.049648
-0.038032
-0.010377
-0.088059
-0.013953
-0.057333
-0.003752
-0.039496
-0.047202
-0.033711
-0.075520
-0.035588
0.035810
-0.123215
-0.032211
-0.017188
-0.007891
-0.083309
0.003520
-0.041586
-0.030311
-0.057810
-0.033683
-0.000057
-0.043566
-0.030918
0.020902
-0.015327
0.031497
0.020783
0.032175
-0.036762
-0.004021
0.024874
0.005569
0.045540
0.052336
0.031136
-0.003405
-0.020582
0.138298
0.203590
0.045599
0.081012
0.115875
0.103556
0.212234
0.271186
0.171943
0.159859
0.099228
0.220761
0.178612
0.067868
0.095309
0.227680
0.091624
0.093491
0.104632
0.038450
0.086316
0.064270
0.027915
0.079008
0.090536
-0.014290
0.091376
0.016173
0.052505
0.031588
0.035287
0.043490
-0.004409
0.008731
0.103275
0.042403
0.069377
-0.023513
0.036587
-0.036606
-0.000181
0.012324
-0.031674
0.026856
-0.036402
-0.098850
0.016023
0.146948
0.254351
0.505004
0.802857
1.116417
1.268184
1.238161
1.222180
0.909588
0.548761
0.225097
0.036439
-0.132291
-0.274250
-0.170966
-0.091144
-0.053349
-0.011961
-0.052797
-0.079493
0.006824
0.039179
0.099541
-0.030079
0.007087
0.015346
0.053732
0.129404
0.075808
0.080656
0.080503
0.100983
0.206852
0.139237
0.190305
0.065210
0.224988
0.248428
0.243059
0.275662
0.252354
0.284785
0.233059
0.337103
0.331803
0.381228
0.378325
0.394881
0.445090
0.385911
0.499460
0.481788
0.388449
0.533957
0.480551
0.500856
0.493351
0.487098
0.546666
0.486378
0.570617
0.526480
0.478440
0.484088
0.500193
0.476285
0.504817
0.440145
0.427825
0.453010
0.376380
0.421378
0.382453
0.331793
0.329791
0.350949
0.347271
0.303823
0.299518
0.268020
0.250002
0.164491
0.184005
0.182861
0.261577
0.228920
0.138858
0.100663
0.192271
0.179455
0.113794
0.107778
0.121872
0.027527
0.105672
0.097311
0.093895
0.069171
0.149042
-0.012726
0.080818
0.090900
0.038623
0.034817
0.061127
-0.016520
0.073471
0.103582
0.033625
0.087128
0.060794
0.080325
0.053440
0.066495
0.030191
0.035787
0.097671
0.068447
0.111176
0.007944
0.071739
0.039113
0.138941
0.065117
0.055353
0.049939
0.137149
0.083441
0.084461
0.060755
0.075606
0.101082
0.099952
0.106548
0.142026
0.016347
0.048832
0.077213
0.069981
0.083866
0.074548
0.066482
0.053523
0.077660
0.031635
0.156097
0.037589
0.029649
0.040431
0.079396
0.097156
0.078179
0.096264
-0.019876
0.171454
0.076045
0.107324
-0.007643
0.113659
0.083558
0.064962
0.185689
0.112603
0.129886
0.126335
0.157288
0.136688
0.164280
0.213861
0.235106
0.243824
0.208176
0.311821
0.243980
0.262863
0.216992
0.256610
0.299911
0.272515
0.232001
0.268270
0.266010
0.228677
0.203344
0.199522
0.176813
0.185872
0.157498
0.196775
0.221698
0.079209
0.135342
0.098760
0.147645
0.126370
0.121693
0.130717
0.123143
0.116835
0.110280
0.124004
0.079493
0.082919
0.065068
0.148161
0.052482
0.065346
0.051485
-0.003465
0.125626
0.133505
0.117929
0.109763
0.108932
0.092178
0.323877
0.479488
0.732340
1.076884
1.273041
1.365287
1.367790
1.080906
0.705695
0.365368
0.126017
-0.003542
-0.151819
-0.172323
-0.043154
0.014990
0.032920
0.033589
0.025483
0.097903
0.153657
0.088970
0.128172
0.113518
0.141162
0.147927
0.131393
0.066624
0.237376
0.195090
0.238052
0.143816
0.207681
0.249981
0.228774
0.270482
0.252718
0.225482
0.222159
0.327379
0.372736
0.370913
0.298084
0.372104
0.354116
0.413011
0.356801
0.534090
0.436549
0.494581
0.455882
0.507814
0.552303
0.528069
0.545549
0.499045
0.541927
0.564935
0.552052
0.482908
0.606464
0.503091
0.506678
0.529614
0.508890
0.584776
0.538625
0.540909
0.426763
0.455324
0.468669
0.417076
0.381389
0.361914
0.293519
0.328797
0.343277
0.293483
0.262164
0.266899
0.229971
0.317993
0.250223
0.224196
0.157016
0.153624
0.181089
0.140344
0.147481
0.145719
0.130539
0.137616
0.104572
0.084020
0.040097
0.053792
0.073315
0.066115
0.128613
0.013475
0.027718
0.045496
0.070586
0.057545
0.089674
0.089717
0.119489
0.021036
0.071481
0.088420
0.008372
0.065489
-0.022424
0.004819
0.031254
-0.036222
0.074519
0.128900
0.073766
0.060521
0.124720
0.089829
0.042991
-0.010698
0.139331
0.029615
0.048727
0.083834
0.001682
-0.007033
0.073704
0.022889
0.026417
0.024968
0.028141
0.029201
0.058483
0.037396
0.062777
-0.012909
0.049363
0.063959
0.075632
-0.035861
-0.002944
0.005660
0.006524
-0.001465
0.030377
0.021900
0.001202
0.064459
-0.039605
0.043783
0.048647
0.038070
0.053143
0.109271
0.049548
0.064060
0.096368
0.146733
0.124280
0.125900
0.093119
0.151008
0.090122
0.130809
0.132895
0.082065
0.100476
0.189539
0.092708
0.262201
0.197086
0.229752
0.118279
0.199367
0.160318
0.251227
0.172115
0.178011
0.156115
0.229913
0.170097
0.117399
0.097424
0.083857
0.116235
0.087428
0.130111
0.069314
0.133042
0.074458
-0.001686
0.008344
0.011410
0.059192
0.010190
-0.059601
0.009433
-0.041314
-0.008091
0.022354
-0.010187
0.007049
0.019380
0.036244
-0.057178
-0.045569
-0.049390
-0.128102
-0.030764
-0.040137
0.160828
0.325779
0.562860
0.894726
1.105864
1.323487
1.267658
1.076714
0.828916
0.312885
0.048485
-0.170657
-0.202373
-0.257813
-0.184472
-0.125077
-0.086209
0.010792
-0.090352
-0.036440
-0.014971
0.008636
0.033497
0.042146
0.007853
0.000564
0.005882
0.053277
0.076330
0.084034
0.070728
0.049139
0.113356
0.106009
0.088719
0.159215
0.064508
0.148497
0.234657
0.149651
0.142531
0.211683
0.237033
0.246113
0.338158
0.350319
0.405958
0.310505
0.339839
0.339094
0.358832
0.430975
0.419485
0.322349
0.432024
0.390370
0.444838
0.383111
0.492479
0.354513
0.379118
0.451339
0.489872
0.443348
0.409063
0.421582
0.388835
0.384433
0.309876
0.319796
0.334737
0.324069
0.357243
0.236624
0.328030
0.170641
0.215730
0.192137
0.154727
0.131908
0.088977
0.173221
0.121596
0.052609
0.029907
0.023738
0.042000
0.042988
0.024991
0.025665
-0.009620
0.044040
-0.095976
-0.098528
-0.023949
-0.067927
-0.096742
0.042013
-0.087744
-0.103603
-0.034578
-0.000342
-0.067327
0.048567
-0.033060
0.019718
-0.032244
-0.048349
-0.009672
-0.028922
-0.047298
-0.108439
-0.106406
0.015977
-0.072358
-0.066979
-0.117270
-0.077655
0.023205
-0.130253
-0.101669
-0.005149
-0.113749
-0.129018
-0.119110
-0.060788
-0.095133
-0.084364
-0.095448
0.010203
-0.049390
0.001144
-0.128350
-0.028828
-0.018921
-0.075133
-0.099757
-0.033014
-0.056215
-0.106833
-0.121040
-0.004183
-0.076860
-0.082845
-0.030012
-0.116141
-0.092470
0.008612
-0.088548
-0.119295
-0.089485
-0.084769
-0.050649
-0.074794
-0.065889
-0.079647
-0.075873
-0.051337
-0.028235
-0.030337
-0.012131
-0.010842
0.010338
-0.023858
0.018235
-0.001748
-0.035014
0.029484
0.009906
0.046879
0.096845
-0.002389
0.123876
0.108721
0.099941
0.091315
0.101615
0.082487
0.121591
0.103495
0.084377
0.057768
0.053566
0.097793
0.045805
-0.026467
0.095124
0.050003
0.050956
0.001688
-0.032482
-0.073635
0.008392
-0.088824
-0.010115
-0.094481
-0.029152
-0.087377
-0.055329
-0.081601
-0.039423
-0.007625
0.002413
-0.042141
-0.097382
-0.012456
-0.045622
-0.109093
-0.077201
-0.085970
-0.041582
-0.101946
-0.091410
-0.084288
-0.005160
0.219249
0.439487
0.733198
1.034220
1.221909
1.128580
1.102755
0.798797
0.420823
0.114107
-0.111232
-0.272057
-0.321739
-0.348059
-0.225880
-0.155990
-0.120011
-0.099815
-0.045866
-0.056050
-0.012596
-0.104781
-0.068983
-0.009100
-0.000383
-0.043890
0.027605
-0.054528
-0.092848
0.035162
-0.024093
0.019893
0.107029
0.115239
0.087953
0.097423
0.138756
0.095073
0.136656
0.095902
0.158673
0.227207
0.236067
0.256764
0.267034
0.235582
0.212080
0.349348
0.304890
0.371229
0.370248
0.418152
0.359080
0.368784
0.366875
0.356098
0.465627
0.437491
0.339878
0.423564
0.442220
0.398610
0.465859
0.372575
0.414103
0.361110
0.369801
0.437116
0.286199
0.392333
0.298000
0.259798
0.214006
0.260461
0.133877
0.264194
0.184125
0.108554
0.160945
0.166131
0.073033
0.101321
0.123856
0.083859
0.041434
0.059141
-0.005043
0.035112
0.000806
0.022827
0.017349
-0.023758
0.007500
-0.011319
0.002400
-0.078556
-0.077008
-0.016544
-0.093314
-0.017486
-0.056928
0.026246
-0.023715
-0.050589
0.027930
0.018740
-0.065541
-0.025634
0.040064
-0.035771
-0.022813
-0.096957
-0.046104
-0.085091
0.001314
-0.077394
-0.082119
0.025210
0.003991
-0.049966
0.003317
-0.027729
-0.038968
-0.001608
-0.047340
0.006886
-0.069565
-0.013696
-0.011209
0.046257
-0.059573
-0.044506
-0.118872
0.072985
-0.117333
-0.018625
-0.000297
-0.062252
-0.083309
-0.023953
0.039547
0.009318
0.056676
-0.053030
0.084016
-0.106013
-0.033739
-0.094714
-0.012415
-0.085781
0.056522
-0.036078
0.029813
0.017103
0.011571
-0.041198
-0.030437
0.028069
0.037853
0.046801
0.094677
0.052199
0.040271
0.089534
0.069095
0.100845
0.138487
0.099274
0.052733
0.103166
0.071338
0.163443
0.102236
0.253173
0.156093
0.175769
0.090683
0.086898
0.158253
0.166923
0.130142
0.213834
0.177724
0.050140
0.084171
0.116023
0.030750
0.091025
0.107742
0.067873
0.148316
0.024501
0.032625
0.042419
0.083023
0.052842
0.013288
0.131956
0.068961
-0.051564
0.076503
0.030195
0.094126
0.021984
0.011430
-0.006077
0.006311
0.051582
0.007172
0.027104
-0.010342
-0.040270
-0.008624
0.062871
0.150828
0.437442
0.688981
1.095355
1.216477
1.304494
1.281900
0.983083
0.580929
0.246166
0.016400
-0.140801
-0.204707
-0.267875
-0.129435
-0.066807
-0.020155
0.050314
0.002945
0.043847
0.031492
0.051737
0.062213
0.091369
0.180021
0.025072
0.094738
0.118454
0.118412
0.098861
0.092629
0.082286
0.038667
0.145355
0.094066
0.163808
0.182961
0.224120
0.218087
0.261517
0.294707
0.243838
0.312934
0.336695
0.267408
0.422116
0.341865
0.369555
0.408445
0.424496
0.514849
0.455540
0.483585
0.479195
0.446307
0.465495
0.555436
0.511125
0.529866
0.500368
0.521422
0.483623
0.559491
0.515364
0.407849
0.505986
0.464002
0.425636
0.449203
0.462837
0.372688
0.377834
0.460472
0.286566
0.355944
0.301180
0.373086
0.212494
0.257910
0.183364
0.190035
0.183624
0.121380
0.206478
0.124620
0.163254
0.084596
0.165869
0.095494
0.095160
0.074163
0.064653
0.063127
0.033519
0.030246
0.058188
0.045325
-0.000300
-0.025282
0.028483
0.106792
0.086286
-0.014707
0.046238
0.058226
0.003898
0.087288
0.088890
-0.000300
0.045302
0.077638
0.071619
0.069641
0.015105
0.026772
0.097351
0.075119
0.044013
0.035380
0.030311
0.038640
0.051757
0.021583
0.088162
0.061844
0.034112
0.095134
0.064851
0.044235
0.033967
0.094527
0.031275
0.034206
0.096441
0.023334
0.062902
0.031122
0.055018
0.055739
0.019341
0.023623
0.031155
0.035696
0.046838
0.048262
0.146513
0.059119
0.024885
-0.021297
0.060572
-0.003266
0.053967
0.053098
0.079682
0.054054
0.103377
0.014062
0.087675
0.123130
0.185871
0.108309
0.144235
0.055347
0.116850
0.069259
0.184718
0.063324
0.059607
0.198223
0.150037
0.204796
0.148332
0.238230
0.239391
0.208648
0.238352
0.243950
0.120523
0.206990
0.240763
0.159672
0.206083
0.176907
0.157145
0.082477
0.126177
0.111275
0.201566
0.102557
0.147721
0.126128
0.108410
0.050482
0.040624
0.092447
0.027674
0.022786
0.066481
0.038875
0.017088
0.106629
0.060858
0.077895
-0.025245
0.078723
0.027018
0.033138
-0.031122
0.026096
0.023136
0.020798
0.061063
0.034202
0.039129
0.156746
0.315724
0.715740
0.969302
1.219396
1.326778
1.216356
0.992385
0.748687
0.377431
0.075346
-0.155292
-0.176268
-0.231994
-0.056158
-0.132153
-0.054767
-0.002687
0.099492
-0.023197
0.047340
0.057894
0.050450
-0.002222
0.108079
0.051846
0.016607
0.109490
0.063942
0.071643
0.143949
0.066092
0.128569
0.088811
0.119296
0.065514
0.142284
0.075487
0.200937
0.210487
0.275162
0.186801
0.224099
0.267595
0.260078
0.340255
0.283525
0.383117
0.418421
0.369460
0.422973
0.412743
0.482475
0.445064
0.539598
0.492718
0.492731
0.441755
0.500487
0.434034
0.461794
0.481342
0.403200
0.444968
0.465264
0.409017
0.352752
0.323688
0.412168
0.297527
0.325103
0.412869
0.325940
0.299219
0.250946
0.198626
0.240265
0.205493
0.108431
0.157938
0.183866
0.055597
0.087345
0.154820
0.155771
0.062741
0.082569
0.059805
0.106051
0.070767
0.031081
0.078677
-0.063712
0.097537
0.004809
0.015888
-0.001544
-0.038197
0.008530
-0.091398
0.007787
-0.013278
-0.006866
0.006262
-0.099702
0.003075
-0.031174
-0.061730
-0.065153
-0.078104
-0.045530
-0.007458
-0.056845
-0.080215
-0.008869
-0.097004
-0.036451
-0.024397
-0.013886
-0.082636
-0.049770
0.001295
-0.152647
-0.011810
-0.028496
-0.120811
-0.064308
-0.051653
-0.064504
-0.052874
-0.073661
-0.052361
-0.053571
-0.036078
-0.109897
-0.104038
-0.033247
-0.019224
-0.012064
-0.008630
-0.101500
-0.054984
-0.060869
-0.111700
-0.039988
0.044328
-0.054973
-0.024964
-0.010062
-0.089293
-0.040170
-0.021305
-0.076176
-0.007908
-0.008672
0.053373
-0.086212
0.017137
-0.052991
-0.005828
0.014945
-0.017415
-0.038325
0.048214
0.030599
0.034508
-0.019012
-0.045631
0.073594
0.043849
0.177269
0.081671
0.059177
0.124749
0.091600
0.069321
0.069258
-0.036935
0.094392
0.089308
0.105276
0.135005
0.046279
0.067881
0.048645
0.043319
0.048479
0.027796
0.032976
0.003461
-0.036510
0.008684
-0.033580
-0.100539
-0.066193
-0.037361
-0.030061
-0.117094
-0.048375
-0.109078
-0.032625
-0.053521
-0.112909
-0.111153
-0.047195
-0.083250
-0.088725
0.011161
-0.029107
-0.076120
-0.090662
-0.098541
-0.111220
-0.050910
0.023476
0.242626
0.475909
0.735225
1.029404
1.218916
1.233827
1.039241
0.669952
0.344711
0.090901
-0.239353
-0.281821
-0.330719
-0.198453
-0.272873
-0.170087
-0.106017
-0.073017
-0.079189
-0.078270
-0.033258
-0.052292
-0.066060
-0.057021
-0.154737
0.007342
-0.100838
0.002319
-0.058364
-0.032228
-0.048910
0.039977
-0.023422
-0.032745
0.073536
0.032287
0.084865
0.090063
0.082348
0.137018
0.137943
0.116792
0.205404
0.188891
0.195353
0.319622
0.233617
0.243267
0.309345
0.339525
0.352781
0.425377
0.315382
0.404050
0.292927
0.374523
0.417124
0.438367
0.430041
0.379083
0.400353
0.412412
0.480358
0.398176
0.258046
0.351193
0.292286
0.375823
0.313236
0.349626
0.253400
0.238119
0.235176
0.225022
0.203201
0.159433
0.173002
0.085183
0.143102
0.102203
0.029155
0.106105
0.079601
0.032416
0.011955
0.044608
-0.010047
-0.035665
-0.026972
0.061410
-0.084808
-0.094198
-0.064733
-0.039935
-0.024223
0.007454
-0.101042
-0.079924
-0.091287
-0.060105
-0.097641
-0.067320
-0.103473
-0.095986
-0.108373
-0.082918
-0.110542
-0.114831
-0.091192
-0.095554
-0.063380
-0.053142
-0.071925
-0.072221
-0.088517
-0.075321
-0.050094
-0.060136
-0.029471
-0.078575
-0.076658
-0.101306
-0.118274
-0.106057
-0.099371
-0.082238
-0.108837
-0.120744
-0.121993
-0.096026
-0.126549
-0.082711
-0.133269
-0.070661
-0.043815
-0.126392
-0.094668
-0.092136
-0.101061
-0.113089
-0.020227
-0.024425
-0.073733
-0.075285
-0.047978
-0.095804
-0.093132
-0.082625
-0.044420
-0.083577
-0.131786
-0.105124
-0.017564
-0.048113
-0.035915
0.003876
-0.137922
-0.056048
-0.020786
0.050671
0.041606
-0.075682
0.051564
0.001012
0.014819
-0.019779
-0.017988
-0.002204
-0.005222
0.078763
0.064582
0.088210
0.162503
0.031974
0.101489
0.032293
0.125096
0.136640
0.141665
0.128314
0.032514
0.116282
-0.000258
0.061687
0.037399
0.025525
0.010037
-0.012974
-0.015151
-0.006503
-0.034546
-0.003143
0.023279
-0.037394
0.035778
-0.047460
0.015788
-0.004605
0.005830
-0.052587
-0.002536
-0.032128
-0.094248
-0.078183
-0.087556
-0.035035
-0.102350
-0.089626
-0.073922
-0.023254
-0.056549
-0.119551
-0.114023
0.045194
0.181575
0.449996
0.717227
0.992834
1.295690
1.362055
1.110516
0.774151
0.577424
0.173944
-0.104742
-0.258891
-0.297844
-0.215948
-0.244925
-0.079501
-0.116957
-0.022908
-0.042975
-0.005890
0.004120
0.021503
-0.039383
0.098013
-0.007006
-0.050218
0.104964
0.088853
0.020187
-0.022524
0.060158
0.077154
0.066195
0.120999
0.087663
0.101809
0.112125
0.179331
0.232851
0.199313
0.218928
0.270558
0.200138
0.209027
0.305613
0.323145
0.311602
0.377670
0.356925
0.416576
0.354491
0.504141
0.385341
0.446169
0.452859
0.465790
0.469699
0.408886
0.490752
0.516880
0.445574
0.513830
0.440864
0.445584
0.520070
0.366949
0.467408
0.336415
0.402706
0.303579
0.296114
0.300041
0.285050
0.230061
0.238924
0.214418
0.211242
0.112325
0.187071
0.197786
0.215074
0.066081
0.149506
0.066278
0.131569
0.096084
0.133878
0.016716
0.063405
0.063301
0.067369
0.053049
0.103721
0.007919
0.066357
0.084731
-0.024978
0.043366
0.041139
-0.066710
0.096446
0.028651
0.053896
0.090877
-0.019311
-0.020853
-0.032560
0.071272
0.089252
0.049990
-0.035194
0.053203
0.031847
-0.036575
0.010054
-0.029757
0.043731
0.108743
0.070443
0.056408
0.037889
0.041318
0.054049
0.039942
0.035685
0.016138
0.046771
0.113833
0.063904
-0.001819
0.028625
0.034158
0.034990
-0.014584
0.049981
0.065269
0.007569
-0.018404
0.020144
-0.001409
0.015180
0.017667
0.037532
0.014117
0.048098
0.033027
0.058929
0.066607
0.006236
0.091303
0.054236
-0.014693
0.071712
0.065054
0.076406
0.013914
0.117275
0.066002
0.100983
0.167345
0.035312
0.113792
0.159654
0.085099
0.191432
0.147377
0.128311
0.150943
0.132818
0.183897
0.168528
0.196560
0.160743
0.252179
0.210904
0.174345
0.206532
0.147779
0.157185
0.271888
0.308641
0.199849
0.123433
0.110515
0.191702
0.135410
0.152414
0.122478
0.190804
0.159729
0.147256
0.127178
0.181451
0.068717
0.057414
0.107942
0.149863
0.110311
0.030382
0.034390
0.088029
0.034063
0.078261
0.003110
0.032966
0.064043
0.096803
0.178141
0.123625
0.069586
0.073355
0.102115
0.052949
0.120780
0.149975
0.391937
0.779732
1.055108
1.314520
1.435369
1.264044
1.103942
0.698069
0.351502
0.036194
-0.057049
-0.169937
-0.153313
-0.131446
-0.044133
0.015154
0.069268
0.072455
0.085487
0.031463
0.120288
0.113599
0.041406
0.172302
0.051768
0.169930
0.134677
0.153682
0.002485
0.116582
0.169596
0.174058
0.203087
0.226609
0.211926
0.158173
0.174693
0.246338
0.238151
0.239913
0.322619
0.389074
0.369627
0.299865
0.461963
0.344121
0.384013
0.396511
0.425644
0.419065
0.427490
0.418681
0.496962
0.477061
0.543293
0.562016
0.589202
0.458182
0.480029
0.479329
0.555761
