0.037115
-0.031285
0.024320
0.005323
0.039259
0.073625
0.063484
-0.036869
0.017020
-0.016499
-0.047318
0.009958
0.013833
0.019647
0.031510
-0.043314
-0.005109
0.031544
0.018302
0.027783
0.058013
0.023085
-0.003121
-0.021661
0.014775
0.039796
-0.007124
0.055331
0.104955
0.137586
0.084523
0.089155
0.142167
0.147018
0.108955
0.049201
0.174262
0.228564
0.124529
0.171637
0.131503
0.209034
0.202539
0.163478
0.169065
0.204679
0.169831
0.143352
0.204095
0.162218
0.180754
0.089473
0.195720
0.102989
0.139968
0.182375
0.053573
0.073116
0.128354
0.043860
0.125789
0.156759
0.087636
0.092010
0.099687
0.013439
0.051206
-0.045809
0.058991
0.019940
0.024038
0.085832
0.025748
0.095426
0.052411
-0.020453
-0.015421
0.035233
0.077845
0.085892
0.332822
0.574050
0.899794
1.232792
1.357051
1.441938
1.221487
0.914979
0.605896
0.308451
-0.039082
-0.085841
-0.215192
-0.119680
-0.109854
-0.001977
0.043560
-0.007080
0.065009
0.050198
0.070779
0.146392
0.095951
0.084090
0.074484
0.136323
0.118749
0.105870
0.088712
0.136429
0.126799
0.251620
0.237525
0.150779
0.230766
0.243067
0.253864
0.254231
0.301928
0.337708
0.305483
0.305614
0.358685
0.508354
0.414898
0.437556
0.422751
0.428895
0.550573
0.558519
0.512767
0.516975
0.490047
0.506909
0.501725
0.609218
0.672210
0.642511
0.700159
0.609116
0.575512
0.657746
0.594031
0.536899
0.550778
0.440331
0.490558
0.455012
0.445960
0.485776
0.447633
0.422786
0.406752
0.324822
0.349997
0.284053
0.393696
0.248704
0.291008
0.383820
0.235734
0.247766
0.213617
0.107037
0.211528
0.171345
0.113643
0.166813
0.155458
0.139489
0.162777
0.148477
0.121527
0.022299
0.111907
0.178381
0.056399
0.093614
0.129801
0.110107
0.091409
0.062156
0.060708
0.069832
0.180702
0.034662
0.123283
0.071411
0.010074
0.082805
0.080833
0.082533
0.057062
0.146326
0.050614
0.072679
0.049274
0.103486
0.120946
0.106644
0.119341
0.135100
0.081401
0.043464
0.084128
0.113159
0.065442
0.034608
0.005960
0.071455
0.119219
0.054208
0.071372
0.063831
0.114910
0.029136
0.117582
0.056218
0.097707
0.091980
0.038584
0.130239
0.010344
0.066931
0.128046
0.105520
0.102845
0.090094
0.070795
0.156989
0.138543
0.077464
0.085212
0.128241
0.126676
0.094653
0.045246
0.119758
0.115011
0.102759
0.149816
0.193376
0.153427
0.230920
0.245219
0.288698
0.268112
0.195830
0.209086
0.273773
0.254622
0.282095
0.202952
0.269520
0.289241
0.230809
0.260640
0.273917
0.215105
0.229946
0.281365
0.223099
0.158206
0.150810
0.160983
0.179081
0.138473
0.160797
0.041181
0.142562
0.091405
0.035856
0.142523
0.097024
0.145163
0.057743
0.051898
0.120483
0.116465
0.054204
0.024807
0.045566
0.064560
0.014990
0.045552
0.120231
0.046548
0.022519
-0.063574
0.054388
0.095454
0.259384
0.529123
0.836046
1.078815
1.368296
1.473108
1.276507
1.075520
0.772668
0.428284
0.039659
-0.156688
-0.145696
-0.183607
-0.069583
-0.019198
0.030476
0.015655
0.020316
0.046733
0.000958
0.194378
0.078976
0.162198
0.106680
0.099608
0.084797
0.104208
0.088456
0.041297
0.086534
0.155812
0.244192
0.261528
0.158645
0.060400
0.242790
0.280509
0.302571
0.362315
0.323808
0.363347
0.398210
0.340902
0.367044
0.410352
0.370465
0.493757
0.463248
0.439984
0.525591
0.535925
0.484997
0.427443
0.506714
0.514467
0.577838
0.578954
0.513138
0.491085
0.564736
0.548884
0.547749
0.589210
0.487026
0.473677
0.446236
0.504612
0.478970
0.332821
0.386020
0.368440
0.350442
0.380343
0.370245
0.310807
0.275170
0.300461
0.252804
0.154552
0.176818
0.205789
0.214617
0.234398
0.081278
0.172983
0.116790
0.055673
0.057369
0.105391
0.040936
0.045490
-0.024493
-0.029050
0.041955
0.041482
0.065665
-0.013236
0.006605
0.020768
0.068668
-0.059243
0.055341
0.023330
-0.027631
0.042055
-0.000315
-0.075098
-0.031244
0.017566
0.083693
-0.022144
-0.007607
0.021784
0.061930
-0.008575
-0.010990
-0.027615
-0.007422
-0.017616
-0.105597
-0.033404
-0.008514
-0.027887
0.010623
0.019988
-0.048786
0.007825
0.015432
-0.069399
0.027937
0.044889
-0.034144
-0.003110
-0.068969
0.083428
-0.030532
0.060819
-0.010514
-0.018691
0.014742
0.037699
-0.008102
-0.070647
0.043965
0.012241
-0.024928
0.033552
0.057361
-0.029418
-0.079606
-0.015162
-0.027795
-0.000217
0.005473
-0.010326
0.075777
0.105697
0.000868
-0.020207
0.038141
0.050411
0.079075
0.051447
0.173305
0.125926
0.138381
0.178675
0.212354
0.149295
0.184888
0.171910
0.085098
0.129367
0.178934
0.129188
0.150989
0.110125
0.068268
0.172443
0.179764
0.118489
0.124543
0.063186
0.005601
0.070459
0.098790
-0.005459
0.028075
0.115317
0.060242
0.063629
0.001904
-0.003033
-0.031215
-0.011619
-0.025029
-0.050426
-0.069916
-0.009281
-0.038247
0.017099
-0.015277
-0.064263
-0.064579
0.016973
-0.000745
-0.049342
-0.092091
-0.049093
-0.024652
0.082676
0.392661
0.655126
0.915603
1.192358
1.353563
1.293656
1.029182
0.757106
0.391637
-0.060110
-0.140675
-0.345270
-0.294932
-0.122683
-0.108697
-0.091929
-0.041009
-0.085338
-0.062596
-0.030045
-0.029149
0.036087
-0.005277
-0.029739
-0.003257
0.002718
0.036135
0.051354
0.035705
0.070240
0.144501
0.076267
0.047059
0.084809
0.085354
0.143344
0.160778
0.228399
0.166643
0.181152
0.185947
0.272874
0.271955
0.317956
0.241170
0.380512
0.280018
0.326054
0.361077
0.397893
0.313933
0.487371
0.450034
0.506874
0.475508
0.391674
0.486379
0.446626
0.466802
0.481387
0.507662
0.477029
0.467608
0.344548
0.385802
0.402775
0.434978
0.312150
0.341092
0.474446
0.304785
0.222242
0.346269
0.199761
0.242687
0.223772
0.223872
0.204334
0.118912
0.174876
0.142160
0.182597
0.104265
0.136230
-0.007840
0.097137
0.173899
-0.032581
0.081561
0.051476
0.056590
-0.037339
-0.052825
0.010976
0.016538
0.029170
-0.030272
-0.014811
-0.013961
-0.123115
-0.021907
0.008459
0.036922
-0.093772
-0.048322
-0.001743
-0.014977
-0.125452
-0.028737
-0.018127
-0.006322
-0.106291
0.072276
-0.055687
-0.013182
-0.029008
-0.070184
-0.027647
-0.026334
-0.039039
-0.094841
-0.024675
-0.028882
-0.022055
-0.064990
-0.009731
-0.046217
-0.032496
0.001244
-0.024962
-0.010909
0.000023
0.061000
-0.080030
-0.067650
-0.038863
-0.073067
-0.028255
-0.007757
-0.086816
-0.030746
-0.046633
0.000039
0.001618
-0.025468
-0.056412
-0.043495
-0.006729
-0.054215
0.056694
-0.008747
-0.015279
-0.075577
0.016668
-0.020956
-0.010804
0.039501
0.023329
0.060100
0.050706
0.007679
0.100330
0.082776
0.142531
0.132487
0.117620
0.143791
0.203802
0.123120
0.118386
0.223237
0.022733
0.128077
0.201665
0.164526
0.103905
0.117083
0.231718
0.105602
0.178491
0.139662
0.147524
0.060858
0.103845
0.165245
0.034731
0.136766
0.040049
-0.027932
0.072404
0.023268
0.099170
0.060763
0.016220
0.003373
0.015718
0.010598
0.024269
0.059976
0.081422
0.015668
-0.029893
0.017100
-0.015472
0.071212
0.006868
-0.080972
0.052992
-0.061870
0.011281
0.231865
0.341625
0.544684
0.905478
1.237353
1.306784
1.370713
1.186666
0.923282
0.526725
0.137708
-0.085794
-0.102212
-0.298240
-0.161524
-0.132431
-0.031047
0.050044
0.041135
0.004780
0.003867
-0.021751
0.084941
0.119548
0.072936
0.126052
0.008032
0.113687
0.096338
0.152383
0.138282
0.076675
0.142030
0.085861
0.125880
0.196553
0.184537
0.324804
0.198001
0.228951
0.332730
0.247854
0.378622
0.301715
0.423019
0.364006
0.366900
0.436608
0.472706
0.451733
0.550195
0.534860
0.503419
0.507742
0.525450
0.541299
0.554532
0.578639
0.580892
0.525186
0.499887
0.515125
0.453185
0.534506
0.516051
0.493275
0.490796
0.423966
0.457829
0.444362
0.458423
0.411962
0.350508
0.431557
0.238233
0.320430
0.332607
0.305947
0.302937
0.202652
0.210588
0.176481
0.247706
0.193182
0.094479
0.117076
0.120264
0.099795
0.071369
0.081513
0.153470
0.079680
0.053126
0.009570
0.092860
0.087346
0.078272
0.105411
0.102948
0.161421
0.035041
0.138591
-0.022057
0.143622
0.113544
0.061506
0.031397
0.071039
0.089508
0.154964
0.063566
0.099618
0.020273
0.106912
0.004449
0.039844
0.101015
0.005790
0.091351
0.114763
0.116896
0.023332
0.025288
0.111440
0.106295
0.114102
0.049444
0.138263
0.014010
0.066864
0.022009
0.070711
0.049649
0.101169
0.073983
0.144904
0.090734
0.109032
0.046792
-0.013269
0.156281
0.064004
0.158160
0.128973
0.104471
0.047285
0.236317
0.069866
0.099348
0.081556
0.130565
0.131494
0.058819
0.034889
0.122090
0.141451
0.116126
0.129639
0.113150
0.128459
0.199490
0.144542
0.188687
0.156838
0.210519
0.216951
0.194139
0.300653
0.111703
0.212363
0.287039
0.295954
0.316616
0.271284
0.249689
0.298433
0.256068
0.267414
0.247903
0.224581
0.278941
0.266704
0.297298
0.224771
0.225040
0.165695
0.198243
0.195055
0.189298
0.154223
0.097698
0.113491
0.193505
0.138931
0.104366
0.060988
0.179676
0.098533
0.142701
0.070835
0.181848
0.041497
0.136452
0.100141
0.082912
0.042700
0.075721
0.111895
0.065735
0.074505
0.030661
0.141427
0.342646
0.547732
0.872469
1.242741
1.390306
1.492552
1.261993
1.036040
0.655715
0.265723
0.148361
-0.095015
-0.192670
-0.082853
-0.103295
0.051647
0.059938
0.058022
0.081332
0.076333
0.164044
0.133719
0.098636
0.196741
0.109876
0.193760
0.161918
0.134696
0.176826
0.228112
0.200399
0.169356
0.106879
0.211180
0.287247
0.287111
0.342417
0.314078
0.296614
0.345801
0.407557
0.397752
0.288497
0.407680
0.419072
0.519754
0.558852
0.501188
0.472318
0.580730
0.507342
0.508882
0.480443
0.590845
0.642396
0.577398
0.605390
0.521405
0.644647
0.564395
0.601947
0.557163
0.581251
0.425965
0.556377
0.440191
0.460646
0.530832
0.503307
0.462648
0.434042
0.428729
0.454777
0.329599
0.375034
0.375076
0.409432
0.339040
0.247023
0.239909
0.234048
0.244779
0.274757
0.249376
0.220359
0.207111
0.157843
0.168520
0.201983
0.126127
0.162633
0.092454
0.112028
0.183340
0.106562
0.113538
0.119758
0.076136
0.107271
0.046687
0.113959
0.045188
0.195369
0.088554
0.143781
0.018852
0.103296
0.029208
0.024401
0.117853
0.157193
0.037079
0.095792
0.010018
0.029639
0.055597
0.066174
0.028754
0.064525
0.049444
0.080263
0.078793
0.139301
0.116497
0.086233
0.104962
0.052262
0.141552
0.095059
-0.021031
0.025390
0.047544
0.053802
0.081196
0.067925
0.074351
0.042413
0.132168
0.089163
0.082341
0.051757
0.027624
0.018808
0.060573
0.086333
0.072343
0.000618
0.020794
0.024726
0.052934
0.077572
-0.007299
0.121582
0.083925
0.065122
0.126905
0.058907
0.001032
0.174147
0.096751
0.062320
0.126094
0.183430
0.186387
0.134051
0.162719
0.140234
0.170844
0.209145
0.275260
0.246736
0.204162
0.199807
0.242290
0.227595
0.245416
0.258394
0.249582
0.216170
0.121666
0.168957
0.183369
0.188986
0.197299
0.065612
0.134723
0.030425
0.141124
0.098650
0.004346
0.087131
0.030436
0.107993
0.031847
0.090009
0.059828
-0.033231
-0.013412
-0.026042
-0.000865
0.010972
-0.031155
-0.018977
-0.012705
0.026737
-0.006772
-0.017786
-0.036913
0.034014
0.024123
0.027424
0.184658
0.480461
0.718720
1.063961
1.303505
1.362006
1.345168
0.975114
0.718933
0.291813
-0.046413
-0.141912
-0.236897
-0.226641
-0.159710
-0.077226
-0.045452
-0.096672
-0.022016
-0.015306
-0.017006
-0.027506
-0.042307
-0.004931
-0.052389
0.085527
0.051281
0.010578
0.068663
0.109062
0.116280
0.015918
0.063184
0.018904
0.180987
0.159905
0.146038
0.139546
0.292194
0.224739
0.262176
0.187347
0.311787
0.337226
0.281875
0.399355
0.403874
0.351673
0.339969
0.368933
0.446835
0.412334
0.403262
0.430043
0.456699
0.499559
0.444927
0.443108
0.421671
0.408476
0.450660
0.545336
0.395591
0.356579
0.475576
0.430918
0.339581
0.305554
0.370896
0.399171
0.350914
0.298645
0.311738
0.236851
0.271607
0.256411
0.211325
0.170313
0.235385
0.171510
0.077208
0.072653
0.158299
0.098574
0.093844
0.067859
0.081299
-0.052671
0.009173
0.004880
-0.073347
0.088650
0.097500
-0.027319
-0.063262
-0.037585
0.014432
-0.040857
0.026403
-0.072408
-0.027803
-0.066637
-0.023801
-0.029681
-0.104843
-0.051438
0.002458
-0.017732
0.015029
-0.078404
0.013078
-0.120250
0.017156
-0.018161
-0.103878
-0.010243
-0.060355
-0.025588
-0.037067
-0.003792
-0.064023
-0.148275
0.015013
-0.065466
0.010671
-0.007798
-0.018324
-0.036820
-0.058930
-0.045038
-0.043060
-0.021674
-0.132042
-0.017261
-0.089031
-0.186626
-0.061728
-0.103263
-0.107543
-0.049789
-0.066872
-0.036926
-0.059270
-0.084862
-0.087746
-0.065687
-0.102091
-0.039707
-0.072655
-0.132955
-0.100578
-0.067309
-0.068848
-0.068950
-0.061227
-0.050247
-0.011395
-0.057580
-0.030742
-0.016026
0.008332
-0.073598
-0.034699
0.038605
-0.050063
0.083673
0.074669
0.042369
0.093692
0.126818
0.085888
0.100783
0.085441
0.132598
0.097323
0.069281
0.065806
0.091312
0.000284
0.075159
0.066575
0.088610
0.088191
0.082131
0.087848
-0.013112
-0.073822
-0.024362
-0.069956
0.031686
-0.031204
0.012858
-0.070500
-0.035864
-0.002992
-0.048217
-0.065238
-0.066774
-0.101090
-0.066444
-0.112271
-0.101767
-0.067704
-0.061008
-0.107111
-0.089262
-0.080791
-0.056401
-0.183908
-0.070324
-0.021639
0.059572
0.251615
0.582539
0.848932
1.112925
1.335731
1.293377
1.042177
0.727396
0.318357
-0.002533
-0.285850
-0.371038
-0.239159
-0.288237
-0.162250
-0.081255
-0.158268
-0.042458
-0.087015
-0.116835
-0.107942
-0.061013
-0.023118
0.055994
-0.086716
-0.003199
-0.002737
-0.051591
0.010690
0.012387
0.104963
0.008582
0.095022
0.050988
0.083492
0.149452
0.002962
0.089500
0.187642
0.202700
0.179920
0.207588
0.263922
0.282045
0.317028
0.328816
0.281624
0.347718
0.332803
0.352396
0.381554
0.395507
0.461535
0.464782
0.422937
0.460651
0.484596
0.372409
0.388496
0.474785
0.354012
0.440606
0.467132
0.470567
0.374855
0.430451
0.343368
0.343901
0.227730
0.260991
0.240958
0.310709
0.240209
0.308476
0.240693
0.259144
0.160520
0.213234
0.122547
0.022215
0.115176
0.045430
0.066270
0.106336
0.056591
0.032233
0.018378
0.017090
0.007886
-0.068037
-0.012929
0.033718
-0.025507
-0.023063
0.053063
-0.027752
-0.024491
-0.064909
-0.013312
-0.034006
-0.128657
-0.015294
-0.052416
-0.003709
0.057904
-0.083129
-0.091525
-0.134139
-0.085646
0.001246
-0.013812
-0.070218
-0.068085
-0.104046
-0.043883
-0.052371
-0.082812
-0.025846
-0.067048
-0.024261
-0.028999
-0.055208
-0.130567
-0.030278
-0.035205
-0.115359
-0.066912
-0.093986
-0.102032
-0.097305
-0.036067
-0.006663
-0.076115
-0.089788
-0.040831
0.002345
-0.067164
-0.043530
-0.100870
-0.017282
-0.047452
-0.053798
-0.031505
0.031073
-0.015446
-0.000473
-0.000122
-0.022122
-0.027905
-0.025717
-0.006012
-0.039795
0.078088
0.048889
0.003472
-0.020177
0.029148
-0.029193
0.108510
0.021522
0.020255
0.029754
0.029706
0.095119
0.151347
0.156145
0.152438
0.121814
0.020336
0.123934
0.115810
0.156308
0.116986
0.200937
0.161919
0.237106
0.191247
0.161700
0.179996
0.200088
0.123247
0.082388
0.079006
0.101785
0.120235
0.063837
0.106158
0.036490
0.039106
0.048293
0.041545
0.026409
0.004439
0.071098
-0.038863
-0.016755
0.065199
0.019000
0.034090
-0.001650
-0.010546
0.015733
-0.056870
0.029526
0.096082
-0.033620
-0.013195
-0.011437
0.000540
-0.027462
0.130870
0.359109
0.560156
0.882918
1.189987
1.366989
1.389622
1.175072
0.867480
0.484156
0.089633
-0.031140
-0.216141
-0.243438
-0.184453
-0.069587
-0.076861
-0.066481
-0.112324
-0.057109
-0.047382
0.034200
0.022734
-0.023944
0.032897
0.020348
0.058152
0.050405
0.158824
0.107245
0.063203
0.097953
0.151792
0.208685
0.171682
0.134390
0.205649
0.168506
0.221241
0.246922
0.264571
0.252260
0.387086
0.328458
0.325948
0.377989
0.399134
0.397119
0.437753
0.402985
0.459591
0.520094
0.485608
0.531687
0.553068
0.600022
0.497782
0.528827
0.542399
0.496434
0.576438
0.528761
0.559916
0.546197
0.456920
0.435750
0.475071
0.393262
0.404683
0.413655
0.416505
0.448066
0.343697
0.348495
0.256769
0.278540
0.298001
0.302983
0.188830
0.287462
0.147537
0.184242
0.176823
0.237503
0.103754
0.174719
0.157524
0.120288
0.118122
0.116797
0.039758
-0.026323
0.065877
0.058055
0.052525
0.039345
0.106814
0.121759
0.055582
0.016111
-0.022855
0.069912
0.041001
0.087871
-0.017703
0.028394
0.005656
0.011089
0.101806
0.029296
-0.021374
0.085837
0.163689
0.046842
0.054022
0.009335
0.066487
0.041377
-0.053331
0.086460
-0.017478
0.042595
0.106282
0.092137
0.005973
0.121070
0.041665
0.039986
0.013169
0.020300
0.040811
0.099574
0.158156
-0.004376
0.013033
0.076301
0.086153
-0.020103
0.028102
0.063695
0.098221
0.056975
0.076178
-0.020182
0.053422
-0.021178
0.087644
0.015119
-0.000617
0.014076
-0.012824
-0.010666
0.066563
-0.015056
0.025865
0.043950
0.061388
0.079244
-0.020401
0.122853
0.120728
0.208968
0.069796
0.097284
0.166012
0.126175
0.259251
0.222761
0.120498
0.207445
0.160020
0.156801
0.211626
0.173338
0.232927
0.314655
0.181804
0.221547
0.154847
0.163148
0.228467
0.138890
0.212058
0.154728
0.196429
0.154241
0.123113
0.174173
0.148751
0.096461
0.167364
0.112089
0.132583
0.092735
0.079923
0.030998
-0.024331
0.054181
0.133424
0.067305
0.061016
0.012239
0.109628
0.076795
0.060513
0.042970
-0.012893
0.027087
-0.011759
0.036079
0.039487
0.026536
0.274119
0.492531
0.846917
1.173350
1.370954
1.500000
1.289515
1.098335
0.669836
0.265501
0.009639
-0.127804
-0.228201
-0.031256
-0.138609
-0.066651
-0.032570
-0.003382
0.091043
0.050736
0.064103
0.005686
0.087458
0.061599
0.092456
0.108544
0.036087
-0.016406
0.057883
0.141456
0.111915
0.130171
0.207843
0.171930
0.112364
0.212289
0.196465
0.192907
0.256714
0.281158
0.323378
0.341579
0.287731
0.380130
0.395050
0.398155
0.479003
0.445854
0.465960
0.431157
0.519110
0.534002
0.465959
0.464923
0.549847
0.486048
0.521695
0.478632
0.473131
0.505223
0.493080
0.412278
0.475897
0.426536
0.440806
0.458934
0.412802
0.459467
0.398023
0.343813
0.360603
0.324792
0.285451
0.286932
0.266896
0.195339
0.293481
0.177968
0.205683
0.111784
0.148301
0.149454
0.070764
0.178371
0.086900
0.124317
0.083687
0.088544
0.000132
0.081311
0.008521
0.051486
0.112328
0.025082
0.019061
-0.002848
-0.079897
0.058881
-0.023498
0.013260
0.101985
-0.041207
-0.033671
-0.061485
-0.053161
-0.065245
0.024192
-0.041728
0.034314
0.016291
0.049967
-0.060086
0.012575
-0.071706
-0.062979
-0.098903
0.005339
0.014262
-0.002499
-0.012509
0.036434
0.045914
-0.111398
-0.026205
-0.016870
-0.020686
0.008107
-0.062381
-0.012619
-0.017477
0.010427
-0.004930
-0.023322
-0.029069
-0.058806
-0.033969
-0.011786
0.001763
-0.033291
-0.075092
-0.056981
-0.023064
0.034170
-0.084725
-0.060855
-0.134554
0.083796
-0.083015
-0.081507
-0.046184
-0.059447
-0.010896
-0.037710
-0.063295
-0.050940
0.029281
0.013215
-0.047262
-0.062042
0.020043
0.015101
0.033239
-0.035964
0.080926
0.050949
0.074521
0.057972
0.048991
0.146119
0.124987
0.124455
0.101807
0.117671
0.092271
0.074295
0.068027
0.155314
0.043894
0.061405
0.044805
0.065210
0.128296
0.069328
0.118828
0.057571
-0.010781
0.007428
0.129884
-0.030227
0.043185
-0.054284
-0.023547
-0.040129
-0.070619
-0.031437
-0.103694
-0.051283
-0.058934
-0.097874
-0.013745
-0.052442
-0.026897
-0.084242
-0.063476
-0.087123
-0.111821
-0.118061
-0.094191
-0.090717
-0.105154
-0.012275
0.014772
0.407587
0.653731
0.968899
1.239709
1.197464
1.087822
0.930220
0.572538
0.267767
-0.083598
-0.319809
-0.309193
-0.299518
-0.290158
-0.201247
-0.235125
-0.046079
-0.140908
-0.105697
-0.173870
-0.049422
-0.067829
-0.081176
-0.010229
0.071973
-0.009975
-0.029310
-0.046420
-0.015961
-0.002146
0.020852
0.089635
0.070396
-0.053577
0.073303
0.081243
0.067301
0.042369
0.165785
0.182366
0.173772
0.173349
0.227733
0.303409
0.196088
0.273560
0.271705
0.287481
0.337973
0.312351
0.355475
0.407226
0.480338
0.373433
0.435566
0.453637
0.375221
0.490918
0.416002
0.395186
0.378637
0.421927
0.288733
0.413008
0.389318
0.356975
0.306801
0.258208
0.263693
0.258011
0.247090
0.265233
0.182418
0.170262
0.118819
0.116551
0.150613
0.142930
0.081973
0.105206
0.064854
0.021961
0.039539
-0.005467
0.019516
-0.006142
-0.002332
0.012202
-0.051136
-0.087138
-0.125381
-0.095181
-0.118844
-0.081536
-0.085526
-0.074541
-0.071257
-0.080610
-0.087906
-0.174359
-0.153039
-0.103123
-0.073827
-0.130992
-0.088416
-0.050082
-0.053059
-0.074310
-0.071320
-0.113935
-0.041436
-0.088643
-0.077746
-0.076010
-0.149824
-0.087014
-0.133882
-0.034807
-0.102383
-0.204690
-0.057330
-0.131640
-0.017406
-0.045905
-0.085622
-0.069226
-0.091068
-0.125384
-0.059595
0.010781
-0.139566
-0.122885
-0.083324
-0.120133
-0.110814
-0.110726
-0.087547
-0.118056
-0.146184
-0.150902
-0.080056
-0.025983
-0.141614
-0.105992
-0.116729
-0.118712
-0.099516
-0.028531
-0.039559
-0.064821
-0.165160
-0.092986
-0.098671
-0.031344
-0.064974
-0.042924
-0.028059
-0.036899
-0.072688
-0.038550
-0.057515
-0.045475
-0.056362
0.025082
0.042368
0.095888
0.006925
0.101646
-0.007872
0.093733
0.105235
0.054553
0.003800
0.138255
0.130855
0.067810
0.119159
0.132800
0.125569
0.069305
-0.046824
0.091116
-0.013969
-0.006872
-0.006803
-0.011469
-0.052421
0.067807
-0.054674
-0.001087
-0.038182
-0.060906
-0.044455
-0.011006
-0.068455
0.031912
-0.061589
-0.086347
-0.112020
-0.040649
-0.090175
-0.003310
-0.047600
-0.008871
-0.031880
-0.118175
-0.009126
-0.066631
-0.051869
0.000872
0.103441
0.248550
0.612277
0.792709
1.208308
1.286717
1.374876
1.067944
0.667355
0.389086
0.035129
-0.270725
-0.307110
-0.285747
-0.267090
-0.084248
-0.136283
-0.089489
-0.074750
-0.090827
-0.046794
0.014134
-0.062116
-0.028403
-0.035514
0.045615
0.001193
-0.025736
-0.037282
-0.045031
0.084730
0.042693
0.044325
0.040082
0.092257
0.095750
0.118588
0.158511
0.221286
0.109970
0.283222
0.274315
0.184925
0.306257
0.301147
0.301050
0.350968
0.360317
0.347558
0.402893
0.341998
0.463151
0.505207
0.478294
0.482250
0.545495
0.419857
0.438486
0.387445
0.490351
0.433995
0.475668
0.465860
0.454517
0.434924
0.448463
0.442358
0.431309
0.499341
0.405733
0.328368
0.328746
0.279052
0.259534
0.287441
0.323165
0.179644
0.138143
0.153576
0.095244
0.099524
0.140304
0.069057
0.157683
0.119004
0.151874
0.102194
0.111892
0.098056
0.104060
0.036550
-0.004837
-0.043823
0.015246
0.068064
0.015539
0.004429
0.063189
0.060086
0.049322
-0.010283
0.008696
0.040188
0.008272
0.035669
-0.058275
0.024441
-0.026721
0.026547
-0.004499
-0.032390
0.084785
0.031873
0.019418
0.003465
0.003402
-0.020066
0.043168
-0.017656
-0.041174
0.009566
0.039713
-0.061682
-0.011415
0.065926
0.052841
-0.031577
0.006996
0.006379
-0.058885
-0.034991
-0.030090
0.043642
0.035177
0.056584
0.011695
0.077924
-0.023788
0.050979
0.021007
-0.029181
0.029936
-0.015232
0.033117
0.025262
0.050916
-0.006576
0.024831
0.120160
-0.068747
-0.058324
0.081011
0.002454
0.059901
0.077216
0.002603
0.096634
0.117976
0.077112
0.035766
0.154467
0.172224
0.036478
0.074373
0.114585
0.160705
0.259783
0.235646
0.168377
0.233819
0.141133
0.151887
0.295506
0.316078
0.221450
0.221570
0.205770
0.198081
0.237949
0.159978
0.201825
0.187935
0.205125
0.140386
0.166167
0.140863
0.192993
0.107720
0.135303
0.132717
0.076519
0.123813
0.069127
0.079892
0.099136
0.127166
0.066590
0.116137
0.052948
0.053527
0.043484
0.129368
0.060806
0.048416
0.019980
0.067651
0.049087
0.032720
-0.001568
-0.017826
0.102990
0.080775
0.362489
0.590587
0.894576
1.260374
1.403854
1.362627
1.287670
0.926833
0.560051
0.258303
0.007776
-0.212258
-0.206185
-0.130939
-0.063068
-0.020129
0.061909
0.012645
0.088444
0.057997
0.139243
0.106770
0.111106
0.099815
0.082616
0.191358
0.102961
0.178029
0.149542
0.178233
0.118542
0.172781
0.156867
0.166232
0.281787
0.217169
0.216639
0.340998
0.305082
0.340088
0.258567
0.286081
0.388349
0.395591
0.397669
0.411555
0.466939
0.403185
0.470698
0.528935
0.522903
0.481133
0.588472
0.616579
0.573414
0.571626
0.570678
0.536137
0.599623
0.601432
0.537141
0.578357
0.543532
0.534238
0.579936
0.515230
0.502491
0.475646
0.442955
0.437303
0.338606
0.382950
0.306074
0.386457
0.274821
0.297183
0.272574
0.268249
0.224944
0.290109
0.232913
0.192565
0.145234
0.126738
0.226147
0.140444
0.159982
0.185940
0.143596
0.137104
0.157031
0.037943
0.100876
0.105852
0.103689
0.013954
