0.019097
0.016513
-0.031322
-0.004563
-0.041457
0.037668
-0.033878
0.059408
-0.024730
0.008301
0.007889
0.002824
0.031841
0.014076
0.059109
-0.005119
0.041163
-0.009091
0.050894
-0.037756
0.049838
0.101315
0.070830
0.072578
-0.007355
0.055482
0.000863
0.076473
0.095655
0.086759
0.167239
0.118471
0.108418
0.183577
0.127612
0.107810
0.127010
0.174151
0.145892
0.156895
0.064168
0.153057
0.192955
0.212782
0.186491
0.173873
0.190028
0.205944
0.213601
0.244374
0.213894
0.175931
0.177128
0.167858
0.119340
0.121255
0.079373
0.036025
0.096673
0.081910
0.072160
0.001884
0.077984
0.106115
0.065253
-0.036286
0.133708
0.074239
0.071242
0.071720
0.070049
0.116665
0.122003
-0.068910
0.076325
0.087152
0.022404
0.053051
0.005193
-0.012305
0.018676
-0.005513
0.144244
0.115487
0.347015
0.571027
1.013397
1.230688
1.470542
1.368131
1.225979
0.874663
0.489472
0.219984
-0.077425
-0.218987
-0.244989
-0.227418
-0.090247
-0.019425
0.011146
0.069716
0.024993
0.080970
0.030683
0.076617
0.040214
0.163068
0.014853
0.116058
0.120946
0.091269
0.149450
0.209347
0.147609
0.196409
0.142945
0.125703
0.216657
0.190885
0.253204
0.303465
0.173023
0.320299
0.303455
0.316054
0.360508
0.331603
0.357501
0.431065
0.395361
0.428835
0.380040
0.422640
0.539543
0.490958
0.467386
0.566310
0.482554
0.571508
0.605802
0.624460
0.624923
0.532937
0.635386
0.510996
0.578919
0.583781
0.533949
0.536297
0.576648
0.510490
0.491038
0.497644
0.466991
0.543389
0.479673
0.435223
0.403604
0.428795
0.372885
0.281656
0.311163
0.283406
0.323396
0.237689
0.263659
0.219621
0.153869
0.227223
0.156168
0.105260
0.203445
0.161216
0.142371
0.116466
0.081042
0.165693
0.084338
0.199892
0.148841
0.136384
0.046190
0.094732
0.122266
0.088627
0.099317
0.138510
0.075636
0.119758
0.113468
0.051148
0.121823
0.048448
0.088894
0.111537
-0.012947
0.098629
0.084630
0.112147
0.083464
0.110431
0.063502
0.141193
0.045318
0.082843
0.023654
0.060368
0.017729
0.086198
0.050006
0.072321
0.104843
0.101847
0.025369
0.107548
0.107933
0.111437
0.069195
0.122547
0.049217
0.071504
0.044319
0.118529
0.112419
0.112538
0.144008
0.124529
0.092198
0.043034
0.120880
0.097385
0.046878
0.047093
0.054883
0.055442
0.043802
-0.026012
0.138716
0.069370
0.143584
0.112987
0.102686
0.012742
0.067732
0.093656
0.130042
0.009394
0.066790
0.093110
0.162509
0.148598
0.144132
0.161366
0.189987
0.242617
0.173699
0.127144
0.188240
0.238602
0.206475
0.236971
0.189490
0.222869
0.259277
0.301337
0.226542
0.211612
0.279585
0.245007
0.211311
0.183496
0.200246
0.310365
0.185542
0.203549
0.145636
0.114448
0.111376
0.171444
0.135110
0.147049
0.089400
0.160869
0.086312
0.141070
0.047323
0.088553
0.126101
0.002336
0.032555
0.043506
-0.009373
0.111712
0.046555
-0.001260
0.105938
0.040593
0.028562
0.070742
0.080084
0.042872
0.054392
0.082122
0.199502
0.514662
0.752983
1.082852
1.266171
1.500000
1.331284
1.049876
0.799613
0.403633
0.074674
-0.183040
-0.191586
-0.289451
-0.166309
-0.014291
0.046298
0.045880
0.021494
0.117234
0.053410
0.077914
0.110997
0.078074
0.063356
0.039958
0.083570
0.102705
0.062285
0.041841
0.139282
0.139591
0.095965
0.182641
0.239527
0.198454
0.192703
0.237467
0.221696
0.252471
0.215870
0.201362
0.289325
0.347404
0.363481
0.366577
0.399472
0.371635
0.376565
0.486202
0.433071
0.465341
0.443103
0.584078
0.513529
0.497759
0.556026
0.447777
0.538029
0.520032
0.520703
0.556449
0.485933
0.529423
0.528828
0.528737
0.480871
0.511985
0.467086
0.399314
0.393924
0.440420
0.495050
0.344624
0.367110
0.343788
0.262285
0.248253
0.311458
0.213310
0.190615
0.171573
0.118753
0.145386
0.153702
0.172008
0.156758
0.162969
0.221378
0.091198
0.099438
0.075015
0.097134
0.036765
0.060927
0.074441
-0.004327
0.085711
0.014191
0.105184
0.019584
-0.069158
0.027569
0.037677
0.024873
-0.023802
0.086987
0.087063
0.033588
0.003976
0.022437
-0.021951
0.088014
0.042833
-0.024527
0.002766
-0.020293
-0.066480
-0.028824
0.000691
-0.052101
-0.056394
0.095826
0.026103
0.038021
-0.024716
0.063865
0.006351
-0.033822
-0.039398
-0.033103
-0.000989
-0.038152
-0.006729
-0.099918
-0.011944
0.028972
-0.009441
-0.007564
0.072402
-0.094358
-0.025505
-0.018827
0.009693
0.003957
-0.103166
0.058300
-0.004716
0.027914
-0.018219
-0.012772
-0.019459
0.015301
0.028231
0.021406
-0.052286
0.009946
-0.053403
-0.059630
0.053906
-0.051837
-0.004857
0.028185
-0.014422
0.021881
-0.037386
-0.000353
0.061660
0.027859
0.063535
0.098805
0.096744
0.056368
0.079998
0.127503
0.137451
0.211493
0.192769
0.132074
0.180461
0.124940
0.133904
0.093893
0.138562
0.137850
0.107862
0.083064
0.150016
0.120917
0.088118
0.083967
0.047610
0.070681
-0.040855
0.041364
-0.006072
0.074056
0.037884
0.010557
0.024347
-0.095561
-0.074474
0.016261
-0.056198
0.070966
0.009695
-0.026535
-0.022969
-0.058544
0.024328
-0.054501
0.014936
-0.077620
-0.022878
0.030703
-0.061618
-0.015614
-0.082919
-0.072036
-0.002207
-0.013624
0.211365
0.481207
0.877160
1.108704
1.297594
1.273748
1.113961
0.892203
0.495858
0.200178
-0.088065
-0.216695
-0.303131
-0.349564
-0.228479
-0.069387
-0.075755
-0.096966
-0.002592
0.022314
-0.022200
0.037830
0.000383
-0.002956
-0.029199
-0.052998
0.085130
-0.072064
0.019739
-0.023310
0.022884
0.012886
0.131643
0.064598
0.116060
0.029378
0.082693
0.118028
0.093732
0.182833
0.125150
0.114625
0.233866
0.224992
0.255126
0.293291
0.272612
0.317625
0.272145
0.346268
0.325651
0.355430
0.359015
0.383674
0.374923
0.500011
0.464612
0.484962
0.421411
0.432654
0.453391
0.495100
0.453038
0.442320
0.401782
0.389421
0.339590
0.396858
0.324610
0.362297
0.346232
0.344787
0.273169
0.283424
0.252491
0.257935
0.213133
0.167974
0.246653
0.155125
0.108192
0.177215
0.074800
0.100934
0.105026
0.034579
0.071850
0.047798
0.049626
0.074777
0.043404
0.096984
-0.015155
0.001597
0.027155
-0.031935
-0.006750
0.043786
0.073850
-0.041205
-0.006216
-0.065577
-0.048380
0.040077
-0.039577
0.041467
-0.080172
-0.006727
0.012196
-0.036440
-0.103893
0.017287
-0.022849
-0.037899
-0.005510
0.015096
-0.011699
-0.063058
0.046550
-0.020158
0.026137
-0.058050
0.058638
-0.027903
-0.024014
-0.074767
-0.029610
-0.005696
-0.048317
0.010167
-0.084557
-0.064538
-0.036010
-0.060411
0.020251
0.012022
0.012023
0.010806
0.007722
-0.078546
0.024098
0.023452
0.071412
-0.038070
-0.011095
0.034581
-0.031532
-0.042589
0.038629
0.018997
0.013779
-0.001883
-0.048287
-0.023135
-0.005546
-0.034026
-0.070835
-0.087132
0.003216
-0.080661
-0.053609
-0.028176
-0.037661
0.045559
-0.018229
0.019239
0.054377
0.085282
0.128088
0.070974
0.072029
0.141528
0.125599
0.072649
0.116936
0.111081
0.049442
0.092855
0.049704
0.130918
0.104238
0.189858
0.290611
0.171386
0.112086
0.138415
0.222427
0.057037
0.145604
0.128608
0.131192
0.075368
0.105613
0.126319
-0.000117
-0.024236
0.030274
0.068326
-0.008117
-0.036196
0.061623
-0.011890
0.024036
0.077421
0.004363
-0.043159
0.062622
0.034760
0.061521
0.007066
0.038979
0.073868
0.083209
-0.038536
-0.018738
-0.009650
-0.047867
-0.042787
0.022982
0.068135
0.171727
0.427675
0.670348
0.988777
1.204452
1.405680
1.244541
1.094805
0.692991
0.448369
0.094594
-0.017835
-0.209352
-0.209299
-0.204685
-0.207000
-0.029153
-0.001591
0.033293
0.038486
0.074751
-0.006449
0.013856
0.012678
0.079153
0.106098
0.087643
0.119885
0.155613
0.105754
0.097290
0.070510
0.065989
0.136613
0.131547
0.160612
0.138291
0.209640
0.256164
0.242387
0.295818
0.248211
0.308636
0.320320
0.280607
0.404403
0.268144
0.347814
0.401513
0.361778
0.441466
0.402952
0.448122
0.468434
0.411683
0.533482
0.571548
0.553255
0.541716
0.541830
0.580607
0.565254
0.567728
0.545323
0.473577
0.578985
0.502088
0.548691
0.423415
0.433774
0.495955
0.439812
0.389976
0.414472
0.311105
0.322855
0.293933
0.326314
0.236986
0.299643
0.274635
0.239042
0.256328
0.249691
0.168750
0.183106
0.159204
0.173575
0.170143
0.095665
0.095527
0.125111
0.093260
0.041539
0.084273
0.118517
0.073203
0.042763
0.186267
0.149659
0.091718
0.076070
0.140985
0.112603
0.154798
0.052725
0.072414
0.027515
0.019000
0.104413
0.147496
0.061908
0.046968
0.042248
0.076565
0.079525
0.118358
0.043701
0.025427
0.031478
0.105259
0.102395
0.063691
0.150505
0.095653
0.059082
0.148902
0.178919
0.102595
0.049118
0.148836
0.084751
0.012349
0.084335
0.190733
0.102367
0.084677
0.127795
0.113822
0.059742
0.041798
0.036069
0.070186
0.181414
0.048236
0.075920
-0.007995
0.114618
0.103858
0.133115
0.049875
0.141146
0.124620
0.036969
0.122438
0.112299
0.092081
0.071176
0.191463
0.118565
0.115486
0.088608
0.089314
0.098216
0.123345
-0.039929
0.132771
0.063123
0.140019
0.118769
0.146638
0.168402
0.199143
0.245663
0.187025
0.212574
0.202594
0.249796
0.171981
0.207328
0.283679
0.264801
0.261331
0.306017
0.357506
0.304393
0.248101
0.279777
0.215221
0.262008
0.220242
0.227396
0.199920
0.195348
0.181279
0.175946
0.122169
0.058828
0.219410
0.158558
0.100252
0.105600
0.154815
0.137491
0.100269
0.093370
0.108264
0.116328
0.061516
0.119956
0.121689
0.146742
0.111135
0.126902
0.133289
0.082187
0.131372
0.118148
0.075741
0.070269
0.077173
0.338208
0.597181
0.845788
1.208921
1.396967
1.425754
1.360733
0.950389
0.676715
0.309539
0.117130
-0.129050
-0.216582
-0.062445
-0.040699
-0.036000
0.110954
0.089098
0.058671
0.057306
0.109882
0.089704
0.038991
0.146726
0.016515
0.144395
0.181781
0.132249
0.132664
0.242800
0.215657
0.121235
0.202987
0.228116
0.225613
0.238302
0.167812
0.149202
0.221158
0.270921
0.306889
0.291861
0.364089
0.359125
0.399251
0.335644
0.415654
0.380787
0.403950
0.503601
0.488102
0.515308
0.439222
0.418132
0.486738
0.505503
0.471911
0.547180
0.553152
0.588741
0.478928
0.524433
0.552048
0.569692
0.445636
0.585722
0.519915
0.438888
0.528937
0.504568
0.473411
0.459367
0.428145
0.424460
0.380123
0.371071
0.319399
0.307498
0.349361
0.272937
0.294660
0.203268
0.219221
0.155243
0.207746
0.200787
0.249600
0.164657
0.154033
0.158809
0.110365
0.181913
0.111023
0.111025
0.057441
0.120800
0.021033
0.117585
0.127696
0.076203
0.140703
0.151812
0.058634
0.124113
0.001392
0.098937
0.045404
0.020730
0.046478
0.063490
-0.030040
0.019255
0.121564
-0.048224
0.029612
0.076909
0.031428
0.038240
0.021958
0.076280
0.045351
0.094628
0.020670
-0.007252
0.053858
0.031231
-0.002141
0.036078
0.073302
0.062417
0.106154
-0.018041
0.005351
-0.036992
0.077315
0.041381
0.020142
0.048383
-0.020118
0.079582
0.134596
0.022409
0.042792
-0.038088
-0.035272
0.003507
0.006045
0.031309
0.053077
-0.007578
0.008161
-0.002780
0.009517
0.074669
0.013366
0.004740
0.004349
0.048841
0.048369
0.061812
0.021546
-0.015808
0.034275
0.038016
0.069746
0.023191
0.098673
0.143301
0.093208
0.135824
0.057770
0.228544
0.090833
0.093186
0.149157
0.184764
0.166604
0.186066
0.161827
0.087741
0.159312
0.175661
0.196574
0.182416
0.170865
0.207671
0.096124
0.102770
0.075322
0.146772
0.134402
0.065682
0.073545
0.125123
0.101753
0.011284
0.110297
0.023960
0.105496
0.011004
0.002468
0.028615
0.047071
0.030209
-0.005842
-0.006773
-0.086393
-0.075978
0.017404
-0.015303
-0.061478
-0.001893
0.033341
0.011302
-0.055061
-0.027620
-0.069960
-0.073140
-0.086125
-0.016434
0.084221
0.349534
0.566152
0.915274
1.216297
1.326850
1.306425
1.049701
0.742600
0.384877
0.141587
-0.122811
-0.212356
-0.254286
-0.224772
-0.225487
-0.046316
-0.110858
-0.035889
-0.051507
-0.067979
0.038182
-0.030794
0.044233
-0.011048
0.029635
-0.005803
-0.059732
-0.018836
-0.012874
0.050582
-0.002033
0.080876
0.054589
0.111845
0.079479
0.041536
-0.009052
0.146752
0.169464
0.122608
0.243561
0.198661
0.199319
0.251152
0.226073
0.242809
0.251772
0.326641
0.403069
0.328502
0.316048
0.401263
0.299993
0.459300
0.424959
0.344465
0.395132
0.357939
0.377551
0.460695
0.482799
0.442887
0.393011
0.421805
0.398161
0.455243
0.453839
0.439122
0.411583
0.359255
0.347785
0.268259
0.273339
0.269996
0.257450
0.244324
0.220859
0.257947
0.104550
0.097573
0.071511
0.092694
0.110653
0.048368
0.096384
0.014323
0.057922
-0.030509
-0.020553
-0.007731
-0.056547
-0.024615
0.002489
0.038963
-0.095631
-0.018411
0.001197
-0.042961
-0.113847
-0.039622
-0.020035
-0.069825
-0.010734
-0.050948
-0.031969
-0.030066
-0.098037
-0.122184
-0.111897
-0.052858
-0.105845
-0.083244
-0.078672
-0.032391
-0.045625
-0.079962
-0.109475
-0.039254
-0.085021
-0.066827
-0.104891
-0.146219
-0.184572
-0.060380
-0.033538
-0.067118
-0.010337
-0.084716
-0.101171
-0.082330
-0.010625
0.005110
-0.068269
-0.064698
-0.053184
-0.068452
-0.047917
-0.071643
-0.025916
0.011343
-0.042917
-0.128581
-0.040432
-0.026662
-0.028551
-0.130070
-0.059693
-0.037979
-0.020677
-0.074017
-0.055611
-0.056023
-0.096443
-0.142214
-0.066084
-0.010230
-0.088144
-0.135329
-0.038668
-0.024592
-0.013269
0.009999
-0.034923
-0.073905
-0.035974
0.030983
0.020977
-0.077682
-0.026438
0.013124
0.073429
0.067589
0.053023
0.066843
0.161716
0.076631
0.071613
0.143743
0.094621
0.115791
0.099293
0.040158
0.061825
0.123041
0.103910
0.063986
0.077790
0.082876
0.066202
0.098362
0.042428
0.059758
0.102229
0.033414
-0.038814
0.003827
-0.046608
0.024745
-0.019254
-0.113751
-0.061332
0.005695
-0.019937
-0.003841
-0.000099
-0.099471
-0.038065
-0.062675
-0.113941
-0.079046
-0.128215
0.001578
-0.054636
-0.038242
-0.044465
-0.108416
-0.054096
-0.097219
-0.140930
-0.050861
0.110917
0.394849
0.660174
0.976123
1.306346
1.319860
1.185828
0.898973
0.550026
0.161484
-0.063510
-0.243477
-0.293749
-0.328884
-0.325116
-0.167282
-0.090755
-0.126959
0.018523
-0.069554
-0.128079
0.013958
-0.041718
0.060360
-0.011738
0.015506
0.005808
0.024484
-0.053411
0.040548
-0.051831
-0.019568
0.071697
0.007754
0.015014
0.129548
0.099698
0.103841
0.173595
0.135184
0.125830
0.214620
0.178308
0.159351
0.230279
0.321659
0.285054
0.307653
0.210126
0.275828
0.405598
0.396384
0.331969
0.366214
0.420784
0.511984
0.477147
0.522978
0.363170
0.355430
0.500163
0.508000
0.438361
0.484138
0.389212
0.462223
0.481840
0.446150
0.446862
0.399852
0.380837
0.401252
0.354378
0.334818
0.281553
0.275879
0.327483
0.196803
0.190071
0.182257
0.180694
0.242418
0.065412
0.077997
0.160468
0.063942
0.046281
0.058128
0.066143
0.104427
0.069884
0.035151
0.118755
-0.010067
0.074798
-0.023534
-0.083857
-0.017422
-0.056673
-0.051808
0.022130
0.025858
-0.017862
-0.076736
-0.006498
-0.042077
0.059284
-0.053377
0.064925
-0.016779
-0.016140
-0.007707
-0.035447
0.031816
-0.001217
-0.075088
-0.038283
0.025426
-0.012148
-0.031104
-0.008218
0.018343
-0.064103
-0.046433
0.024663
-0.034650
-0.022221
0.050316
-0.037147
-0.028357
0.013023
-0.010941
-0.032390
-0.032845
0.009906
0.048568
-0.011944
-0.012733
-0.022038
0.014571
0.062450
0.076490
0.011385
-0.010029
0.026939
0.077217
0.025703
0.043884
0.063403
-0.067419
-0.008455
-0.025776
0.005073
0.033637
0.077374
-0.040474
0.027715
0.093202
-0.053633
0.026770
0.062738
0.076129
-0.056971
0.031350
0.001216
0.077864
0.055267
0.113455
0.023337
0.103392
0.094212
0.175312
0.192297
0.147455
0.147115
0.161297
0.095412
0.214050
0.142907
0.225254
0.234561
0.209685
0.238721
0.183447
0.163732
0.172383
0.202909
0.226732
0.179508
0.158484
0.084126
0.057366
0.150771
0.165249
0.172009
0.108166
0.130628
0.043942
0.029575
0.087515
0.001409
0.034178
0.047245
0.026672
0.090906
0.089007
0.046167
0.052942
0.097042
0.006171
0.042013
0.050266
0.049870
0.027460
0.114940
-0.054181
-0.012372
-0.084789
-0.056365
0.022814
0.101397
0.306282
0.629193
0.902976
1.129106
1.421352
1.353880
1.219698
0.975904
0.610247
0.174884
-0.017033
-0.163934
-0.218953
-0.217671
-0.122494
-0.040445
0.022112
0.087554
0.069545
-0.010563
0.017798
0.146448
0.030397
0.039756
0.092125
0.099908
-0.006032
0.075011
0.020079
0.064270
0.080378
0.140467
0.192175
0.213044
0.132086
0.183293
0.134415
0.254709
0.220326
0.226111
0.295828
0.273458
0.249562
0.347873
0.417695
0.325017
0.380502
0.347058
0.444180
0.405856
0.490938
0.424048
0.523207
0.492095
0.529212
0.501883
0.484279
0.451931
0.611147
0.570724
0.543807
0.540346
0.561664
0.497301
0.482184
0.459983
0.500563
0.476136
0.414643
0.433980
0.399568
0.456198
0.415312
0.345773
0.445100
0.328266
0.318088
0.271269
0.243607
0.253580
0.311219
0.251935
0.136879
0.188302
0.149862
0.126253
0.117858
0.087716
0.112271
0.102053
0.019991
0.091986
0.018818
0.058452
0.070053
0.058250
0.043323
0.089021
0.072387
0.041091
0.050042
0.073758
0.124168
0.047308
0.072069
0.146856
0.082251
0.014384
0.031023
0.006137
0.013519
0.012601
0.066026
0.086660
0.035578
0.055573
0.087900
0.080654
0.044872
-0.017885
0.072888
0.051625
0.002675
-0.026464
0.079256
0.008873
0.054027
0.047566
0.042059
-0.009269
0.037642
0.007452
0.025200
0.074805
0.100748
0.018480
0.093559
0.010084
0.102796
0.002451
0.066293
0.024573
0.075338
0.048808
0.003550
0.032312
0.119976
0.030169
-0.078638
0.032797
0.071077
-0.006962
0.039977
0.173921
0.045875
0.058948
-0.022274
0.083580
-0.003136
0.035012
0.124906
0.122213
0.083914
0.102383
0.001173
0.010798
0.138934
0.079404
0.116271
0.048239
0.092325
0.177309
0.253395
0.107120
0.167391
0.163839
0.146159
0.253604
0.180791
0.158588
0.159085
0.194732
0.185763
0.105540
0.186665
0.184805
0.208225
0.182132
0.152481
0.183115
0.123989
0.124425
0.107482
0.127745
0.076815
0.105865
0.048421
0.071816
0.086239
0.063287
-0.015866
0.031126
0.061256
0.032262
-0.003325
-0.035424
0.063445
0.123326
0.082258
0.046244
0.015183
-0.057564
0.043568
-0.000612
-0.036530
0.032235
-0.064843
-0.080105
0.007788
0.042518
0.128088
0.290268
0.644475
1.096175
1.237156
1.327987
1.260221
1.025604
0.684841
0.343345
0.099016
-0.157841
-0.218017
-0.250212
-0.260229
-0.110931
-0.031539
-0.059507
0.095236
-0.041115
-0.022828
-0.062311
-0.007392
0.034698
0.081718
-0.035721
0.034934
-0.036344
0.006373
0.070883
0.060244
0.004084
-0.004685
0.089413
0.036240
0.062167
0.174305
0.160966
0.139549
0.180441
0.208771
0.210595
0.164649
0.219349
0.320330
0.276996
0.217115
0.355413
0.277903
0.296762
0.341882
0.381735
0.320819
0.363068
0.409369
0.366833
0.430741
0.410527
0.461696
0.427487
0.410447
0.403339
0.442876
0.444747
0.440486
0.459650
0.360557
0.390798
0.333134
0.401139
0.371420
0.318376
0.330861
0.341057
0.256533
0.305052
0.228917
0.219644
0.149199
0.226275
0.158512
0.090707
0.119859
0.075180
0.005662
0.097742
0.017483
-0.056651
0.038045
0.011500
0.055169
0.007979
-0.022608
0.034259
-0.071345
0.070779
0.066470
0.009952
-0.038710
-0.105695
-0.042257
-0.058962
-0.082494
-0.034649
-0.024379
-0.046937
0.000264
-0.093701
-0.069987
-0.129863
-0.106954
-0.073880
-0.026974
-0.034732
0.004004
-0.061703
-0.079505
-0.037158
-0.119994
-0.009057
-0.026977
-0.137644
-0.133388
-0.095652
-0.065513
-0.096783
-0.085049
-0.073336
-0.014520
-0.099964
-0.058764
-0.049024
-0.120123
-0.039446
-0.054678
-0.183495
-0.035245
-0.059446
-0.106312
-0.052156
0.004425
-0.087886
-0.037928
-0.111960
-0.130255
-0.093693
-0.130613
-0.018878
-0.152476
-0.117123
0.035411
-0.121018
-0.041151
-0.108269
0.013994
0.020735
-0.119252
0.015901
-0.093745
0.005296
-0.049641
-0.009452
-0.031809
-0.103795
-0.064070
-0.024697
-0.068381
-0.056532
-0.076338
-0.003805
-0.074393
0.091629
-0.011779
0.063158
0.092032
0.072112
0.020021
0.056764
0.052604
0.109187
-0.017432
0.051233
0.047468
0.068711
0.044693
0.016112
0.146960
0.109108
0.096495
0.021299
-0.023939
0.060027
0.001007
-0.018008
0.014254
-0.010472
-0.043545
-0.062576
-0.120997
-0.042496
-0.074430
-0.053075
-0.113309
-0.115652
-0.065024
-0.046037
-0.056277
-0.055065
-0.162248
-0.125289
-0.134588
-0.063556
-0.025431
-0.117434
-0.123085
-0.049537
-0.068265
-0.135138
-0.129798
-0.101500
-0.081935
0.104696
0.365969
0.729174
1.121666
1.248457
1.236711
1.153033
0.718605
0.444959
0.103796
-0.098107
-0.211605
-0.362265
-0.311605
-0.194135
-0.234955
-0.136685
-0.094868
-0.108734
-0.117069
0.002259
-0.065773
-0.034855
-0.207975
-0.035264
-0.027657
-0.060641
-0.111511
-0.021131
-0.059815
-0.005937
-0.028701
-0.040853
0.016653
0.053919
0.043434
0.099344
0.124851
0.013640
0.088704
0.093743
0.189750
0.205337
0.097504
0.238250
0.288914
0.188815
0.237314
0.315589
0.334754
0.284431
0.329777
0.316207
0.354453
0.374506
0.363451
0.427005
0.390644
0.444733
0.381677
0.377227
0.444079
0.393907
0.372954
0.390689
0.318692
0.382774
0.319896
0.325422
0.272961
0.277590
0.317917
0.284142
0.159743
0.249881
0.131482
0.163214
0.144783
0.130014
0.097028
0.081779
0.095354
0.097398
0.011925
0.055243
0.084026
0.040334
0.070912
0.092117
-0.028275
0.051433
0.069484
-0.036938
-0.049724
0.011964
-0.061576
0.005331
-0.056040
-0.151393
-0.071792
-0.019226
-0.025487
-0.010967
-0.084270
-0.018507
-0.061533
-0.067577
-0.097588
-0.143235
0.034732
-0.086721
-0.087678
-0.082587
-0.060216
-0.092110
-0.073998
-0.105991
-0.052712
-0.192623
-0.085931
-0.079503
-0.107785
-0.054085
-0.066988
-0.095585
-0.098673
-0.025767
-0.020712
-0.122616
-0.034830
-0.064324
-0.096074
-0.029633
-0.077157
-0.048102
-0.072829
-0.036884
-0.082521
-0.072055
-0.033144
-0.023755
0.011283
-0.008480
-0.099206
-0.026167
-0.196650
0.004921
-0.086462
0.012761
-0.050868
0.017259
-0.094524
-0.041843
-0.019843
-0.089070
-0.014519
0.050708
0.059504
-0.043239
-0.035646
0.020447
0.068667
0.050796
-0.042647
-0.021024
-0.069690
0.049071
0.077345
0.002938
0.055956
-0.034038
0.111836
0.076961
0.016104
0.090105
0.164708
0.119606
0.149895
0.045460
0.131122
0.101402
0.137722
0.152713
0.197997
0.138115
0.071265
0.151547
0.109831
0.088621
0.124912
0.036425
0.067826
0.020077
0.070222
0.061351
-0.002794
0.065301
0.035262
-0.004611
0.005387
0.037991
-0.020063
0.021146
0.027899
0.047237
0.010667
-0.077553
-0.025946
-0.001567
0.036705
-0.031919
0.098606
0.017143
0.022812
0.023987
0.016309
-0.007825
-0.009511
-0.056300
-0.020003
0.034486
0.327823
0.628445
0.913116
1.211576
1.378791
1.314323
1.131733
0.757394
0.426132
0.164514
-0.114347
-0.204052
-0.268395
-0.287593
-0.058210
0.013275
-0.105465
-0.051535
0.003464
0.039720
0.137279
0.031824
0.027127
0.141133
-0.041854
0.018240
0.042223
0.020638
0.144163
0.095744
0.083410
0.132136
0.077652
0.100191
0.174596
0.093321
0.238470
0.138916
0.220696
0.149343
0.283032
0.283247
0.288790
0.252726
0.250203
0.337839
0.361776
0.417493
0.381711
0.435906
0.466255
0.520367
0.377988
0.452285
0.467731
0.461147
0.448135
0.546588
0.536519
0.473773
0.489610
0.520903
0.517824
0.512664
0.475111
0.476755
0.521288
0.420940
0.466859
0.411826
0.390607
0.407698
0.375568
0.326552
0.341648
0.287539
0.383019
0.219541
0.220679
0.285315
0.228232
0.220211
0.201643
0.196558
0.231349
0.170215
0.155987
0.112448
0.197960
0.073067
0.119323
0.129637
0.075492
0.086575
0.122183
0.160277
0.065365
0.054565
0.105986
0.099710
0.083069
0.036390
-0.013706
0.052657
-0.047382
0.099001
0.005245
0.081437
-0.002696
0.117201
0.073270
0.042880
0.067221
-0.004500
0.087688
0.121289
0.077064
0.093186
0.050734
-0.052989
0.056885
0.114679
0.109503
0.075141
0.005099
0.043863
0.058268
0.095495
0.061959
0.038299
0.076884
-0.015007
0.052266
0.079191
0.069218
0.035624
0.094889
0.088392
0.108757
0.093684
0.029936
0.005940
0.045036
0.109812
0.018813
0.128924
0.058736
0.077065
0.020742
0.030073
0.074996
0.152654
0.075286
0.027905
0.061637
0.077577
0.053891
0.102405
0.039039
0.062424
0.132565
0.090219
0.056027
0.203183
0.096672
0.112287
0.128370
0.115904
0.166049
0.158392
0.188384
0.223927
0.199542
0.200906
0.220130
0.223248
0.216420
0.214615
0.257058
0.184559
0.234988
0.209598
0.208995
0.215903
0.222550
0.281295
0.197142
0.153453
0.108128
0.159649
0.086213
0.191048
0.067790
0.206525
0.058893
0.119460
0.170333
0.074159
0.166768
0.136930
0.104563
0.154072
0.079811
0.017988
0.132358
0.050251
0.061941
0.076617
0.052959
0.047294
