0.052990
-0.047294
0.055329
0.042956
-0.022431
-0.068559
0.006464
-0.012034
-0.054623
-0.009224
0.018882
-0.052868
0.062286
0.027501
0.002227
-0.009367
-0.015069
0.069419
0.012569
-0.007995
0.016756
0.063951
-0.015041
-0.006432
-0.004507
0.063357
0.056094
0.025109
0.044916
-0.008865
0.115193
0.082883
0.063835
0.105209
0.047119
0.107846
0.071619
0.081922
0.138408
0.179415
0.144957
0.102658
0.181541
0.240993
0.144526
0.169715
0.211945
0.233817
0.242699
0.131387
0.201073
0.162271
0.223266
0.141743
0.223168
0.127243
0.156432
0.102167
0.119433
0.199504
0.107379
0.154168
0.081886
0.096611
0.071968
0.042490
0.124382
0.022926
0.059262
0.013752
0.007772
0.082554
0.096311
0.038861
0.019379
0.004541
0.011936
0.036461
0.029528
0.008593
0.110628
0.017378
0.063507
0.175767
0.056676
0.036443
0.008998
-0.014642
-0.000826
0.074760
0.152015
0.335321
0.638163
0.936336
1.295591
1.500000
1.374713
1.199481
0.934054
0.495335
0.196893
-0.026759
-0.209773
-0.212290
-0.210903
-0.211437
-0.119897
-0.059116
0.078212
0.005044
0.066570
0.065775
0.048732
0.038381
0.108154
0.086841
0.063197
0.079464
0.070095
0.075601
0.039623
0.088010
0.062146
0.119192
0.117457
0.079620
0.183796
0.161954
0.185131
0.233117
0.128571
0.226022
0.152367
0.229757
0.247860
0.295377
0.233279
0.268047
0.280665
0.357135
0.341056
0.412078
0.387297
0.400381
0.519695
0.433187
0.433399
0.523392
0.489749
0.507206
0.584657
0.551496
0.597890
0.474052
0.614914
0.583161
0.601859
0.585181
0.608553
0.569128
0.605121
0.596555
0.520993
0.531968
0.503184
0.444207
0.448836
0.428834
0.389838
0.445271
0.311482
0.393466
0.394413
0.271040
0.289584
0.261580
0.235561
0.251971
0.211573
0.240014
0.253069
0.197295
0.099885
0.198036
0.143593
0.118259
0.163603
0.100868
0.081449
0.106556
0.104117
0.119592
0.010189
0.106999
0.062395
0.163612
0.131759
0.097394
0.058538
-0.003548
0.079274
0.047354
0.089189
0.053510
0.092276
0.088677
0.058136
0.010573
0.110620
0.156888
0.061004
0.058485
0.034992
0.102918
0.075300
0.119569
0.079721
0.040848
0.108523
0.054703
0.132489
0.042122
0.134326
0.054049
0.033104
0.029696
0.084171
0.070544
0.077131
0.086994
0.063588
0.058390
0.013977
0.050492
0.126059
0.048071
0.135486
0.066671
0.151818
0.093224
0.089989
0.051772
0.077159
0.079052
0.154208
0.074636
0.063953
0.128702
0.071803
0.107459
0.079139
0.003830
0.037758
0.133812
0.045859
0.106374
0.141878
0.081022
0.140148
0.140200
0.085059
0.042246
0.041048
0.016131
0.093513
0.163922
0.153900
0.046966
0.104470
0.181086
0.140351
0.173634
0.126037
0.143117
0.118302
0.093493
0.140485
0.210828
0.166665
0.215567
0.179951
0.269735
0.281100
0.164955
0.272904
0.202346
0.273605
0.220340
0.189946
0.194636
0.179566
0.232849
0.207169
0.193929
0.331308
0.184065
0.146083
0.168294
0.166048
0.135776
0.151829
0.057006
0.159789
0.090921
0.080296
0.107672
0.113728
0.079432
0.157854
0.142759
0.042060
0.038218
0.001032
0.064272
0.177974
0.013559
0.030555
0.078760
0.086466
0.016057
-0.014508
0.066163
0.108352
0.076619
0.089428
-0.046886
-0.040611
-0.026126
0.120820
0.353258
0.667330
0.899670
1.215973
1.353426
1.389384
1.253090
0.891748
0.579068
0.283337
0.036907
-0.180835
-0.199683
-0.211210
-0.141621
-0.095785
0.023300
0.077337
-0.000687
-0.073727
0.147002
0.048356
0.083709
0.069033
0.041718
0.069239
0.074227
0.004148
0.023932
0.059980
0.143263
0.079459
0.039201
-0.006599
0.113584
0.095866
0.153344
0.161920
0.078771
0.127784
0.101121
0.231166
0.192425
0.292152
0.274661
0.193128
0.308745
0.309535
0.296267
0.234626
0.255151
0.410925
0.405635
0.447172
0.413841
0.377230
0.426365
0.438745
0.536839
0.483934
0.445539
0.550586
0.501554
0.487639
0.527365
0.466982
0.508754
0.486985
0.459597
0.433953
0.472384
0.381666
0.454665
0.383095
0.408280
0.397139
0.364235
0.334354
0.405403
0.357626
0.277370
0.265429
0.226210
0.255406
0.214428
0.111613
0.128698
0.196011
0.082505
0.116776
0.134307
0.154502
0.060719
0.007389
-0.004148
0.014797
0.046125
0.009181
0.064687
0.032047
0.089957
0.107726
0.053925
0.031804
-0.002681
-0.039121
0.027687
0.002670
-0.031330
0.006830
-0.015079
-0.045283
-0.044070
-0.006753
-0.065564
0.044036
-0.012739
-0.039464
0.005014
-0.019423
-0.014755
-0.002168
0.018793
-0.081969
-0.028551
-0.047633
0.013875
-0.007030
-0.007911
-0.039079
-0.005798
0.062697
-0.036039
-0.048915
-0.004459
0.007840
-0.055316
-0.050869
-0.003599
-0.033229
-0.048171
-0.011132
-0.010138
-0.040520
-0.051556
0.002778
-0.072271
-0.066664
0.011886
-0.035375
0.006202
-0.003989
0.001723
-0.005316
0.015163
-0.034355
-0.016247
-0.034985
0.009713
0.023323
-0.059724
0.040570
-0.073569
-0.028118
-0.011368
0.015590
-0.061994
-0.082405
0.040675
-0.037554
-0.022516
-0.011030
0.023636
-0.041918
-0.063237
0.004249
0.014551
0.010981
-0.122246
-0.001261
-0.030495
-0.018244
-0.028406
0.029119
0.063124
0.040748
0.113910
0.117693
0.063616
0.043294
0.114695
0.148345
0.137990
0.144589
0.111649
0.100411
0.140358
0.131413
0.160442
0.198779
0.072810
0.104045
0.096609
0.032983
0.065687
0.031829
0.032230
0.059552
0.012361
0.086496
-0.014015
-0.047553
0.041243
-0.006240
-0.023466
-0.017144
0.020844
-0.003164
-0.024245
0.040829
0.012537
-0.075427
-0.052488
0.032001
-0.030127
-0.003082
-0.009054
-0.063438
-0.017645
-0.025678
0.044043
0.007331
-0.019966
-0.088527
-0.037259
-0.083792
-0.092954
0.038203
0.252143
0.449490
0.840503
1.179956
1.298266
1.239045
1.148043
0.846789
0.484351
0.186589
-0.097064
-0.217781
-0.415645
-0.263743
-0.283191
-0.226417
-0.079741
-0.058969
-0.030406
-0.025375
-0.023660
-0.072988
0.001234
-0.006015
-0.075220
-0.130604
-0.023775
-0.025458
-0.088410
0.007569
-0.049040
-0.011034
-0.003368
0.034143
0.059120
-0.001568
0.030093
0.047570
0.183389
0.063421
0.098903
0.114363
0.161366
0.130452
0.121766
0.178993
0.313122
0.201447
0.295259
0.237684
0.324134
0.248783
0.319284
0.321853
0.411542
0.350708
0.396104
0.400409
0.385202
0.444819
0.482171
0.516149
0.465669
0.463726
0.472152
0.489593
0.456429
0.455907
0.449210
0.477580
0.392661
0.343762
0.424316
0.332575
0.382688
0.363785
0.393708
0.272616
0.260574
0.279332
0.221348
0.278881
0.244465
0.175072
0.161692
0.168015
0.081689
0.114325
0.213331
0.070999
0.087205
0.140564
0.040288
0.084703
0.018431
-0.053946
0.023070
0.008041
0.013597
-0.037056
0.080532
-0.040595
0.024419
-0.011252
-0.073894
-0.090259
0.041519
0.009936
-0.030392
0.034066
-0.100100
-0.015227
-0.138208
-0.018489
-0.084953
0.008391
-0.012205
-0.047649
-0.027523
-0.028351
-0.048649
0.009307
0.068453
-0.075371
-0.038567
-0.048627
0.018062
0.033909
-0.036416
-0.023988
0.051064
-0.039429
0.036876
0.037605
0.021125
-0.021392
0.043113
0.089077
-0.019059
0.034221
-0.085202
-0.044209
-0.086023
0.010904
-0.030407
-0.007397
0.013209
-0.027532
-0.026716
-0.000589
0.019527
0.023992
0.038526
0.052709
0.025926
-0.069008
0.007778
0.000908
0.010921
0.010198
-0.042750
0.062315
-0.028774
-0.027177
-0.035128
0.024974
-0.005531
-0.040088
0.014594
0.017221
-0.033838
0.043270
0.078251
-0.022674
0.024472
0.043142
0.072634
-0.006861
0.036861
0.037771
0.072065
0.091308
0.102131
0.025534
0.082041
0.077846
0.136787
0.141766
0.191993
0.102220
0.220842
0.262083
0.178057
0.196518
0.225064
0.219523
0.105102
0.182071
0.240289
0.160297
0.122990
0.184031
0.197667
0.154112
0.151992
0.129547
0.119075
0.150619
0.062453
0.039473
0.172814
0.098688
0.042510
0.085600
0.101784
0.005571
-0.001686
-0.004078
0.072374
0.070336
0.040084
0.010498
0.034260
0.070941
0.079895
0.073885
-0.011647
0.029449
0.067653
0.082018
0.033064
0.114339
0.013685
0.095276
-0.013634
-0.017982
0.019645
0.130934
0.358678
0.578102
0.901796
1.234582
1.348851
1.416358
1.282418
0.974496
0.693010
0.357890
0.032759
-0.157445
-0.220162
-0.267252
-0.151913
-0.061116
-0.086314
0.030909
0.080198
0.071244
0.097209
0.064845
0.046515
0.010320
0.107534
0.084264
0.119602
0.060343
0.053546
0.116952
0.114496
0.079486
0.078205
0.124040
0.154486
0.166350
0.124499
0.145991
0.156270
0.191883
0.253302
0.279358
0.246901
0.209882
0.240606
0.233833
0.349282
0.292091
0.260045
0.323386
0.388960
0.369364
0.494228
0.443503
0.453889
0.469200
0.467507
0.464178
0.578154
0.527714
0.483502
0.625590
0.662382
0.665663
0.486487
0.565412
0.534977
0.611920
0.494746
0.482301
0.554143
0.590983
0.550272
0.516628
0.457905
0.397463
0.435979
0.396869
0.402532
0.361303
0.317963
0.325188
0.379851
0.307076
0.244020
0.251490
0.299602
0.269641
0.251755
0.208871
0.195428
0.188983
0.230074
0.182376
0.030129
0.085000
0.118977
0.124909
0.130247
0.231220
0.148952
0.104253
0.147080
0.088390
0.132707
0.117852
0.126070
0.043484
0.072987
0.091150
0.055093
0.161126
0.199549
0.085086
0.105638
0.163414
0.130261
0.136638
0.008997
0.115009
0.091347
0.131153
0.182733
0.152819
0.111726
0.063044
0.093282
0.067784
0.149156
0.103692
0.049281
0.119906
0.142523
0.081830
0.065118
0.115068
0.176389
0.114236
0.050553
0.098462
0.035976
0.111094
0.198761
0.047807
0.108897
0.055277
0.144927
0.145156
-0.005231
0.118772
0.138561
0.117213
0.089732
0.098229
0.078609
0.110646
0.120009
0.135594
0.081283
0.129916
0.074068
0.068649
0.071389
0.064557
0.088913
0.112979
0.163307
0.141634
0.158054
0.036387
-0.013164
-0.003479
0.166089
0.142006
0.139076
0.085992
0.101002
0.008759
0.058948
0.179746
0.122673
0.190499
0.166637
0.199686
0.202669
0.198486
0.178947
0.147911
0.186962
0.247691
0.158157
0.299460
0.235871
0.182489
0.339245
0.256727
0.267365
0.271037
0.221435
0.194765
0.160726
0.297025
0.236249
0.169934
0.206290
0.229953
0.204062
0.188418
0.172999
0.087282
0.201413
0.084544
0.174441
0.113173
0.128151
0.086421
0.141198
0.106850
0.134655
0.092827
0.156220
0.074124
-0.021361
0.081015
0.095441
0.037121
0.063459
0.121724
0.045722
0.094883
0.100709
0.061587
0.097324
0.046082
0.083000
0.049596
-0.018602
0.073049
0.346377
0.627454
0.859734
1.145636
1.411963
1.434890
1.264988
1.109248
0.717506
0.357257
0.099018
-0.132020
-0.262076
-0.241191
-0.211795
-0.137019
-0.054071
-0.001627
0.067066
0.066092
0.113236
0.064558
0.051564
0.116533
0.044975
0.068681
0.134363
0.090674
0.086283
0.091283
0.195167
0.076852
0.047890
0.065707
0.156260
0.109317
0.131376
0.085107
0.142159
0.109729
0.157283
0.190359
0.304564
0.190577
0.255154
0.246326
0.305610
0.307264
0.284635
0.272286
0.326224
0.359192
0.440329
0.402722
0.445883
0.462272
0.541610
0.449730
0.438477
0.448946
0.552183
0.563287
0.466219
0.466512
0.505826
0.541897
0.499519
0.593247
0.501245
0.521785
0.541379
0.485831
0.444694
0.428592
0.405530
0.482359
0.367090
0.397090
0.336778
0.344374
0.287880
0.265885
0.310378
0.360241
0.216557
0.224722
0.088109
0.148965
0.117839
0.143143
0.072262
0.138763
0.096629
0.073863
0.055499
0.017677
0.000865
0.056060
-0.010032
0.134132
0.098482
0.058042
-0.046430
0.074893
-0.035137
-0.006031
-0.000682
-0.082538
-0.026461
0.027312
-0.009308
0.050135
-0.046823
-0.019343
-0.025451
-0.005568
-0.042329
-0.060308
0.007103
-0.027101
0.108641
-0.008741
0.015511
-0.017852
-0.048227
-0.028781
0.031880
0.000778
-0.005009
-0.032841
0.014475
-0.045250
0.051737
0.009625
0.004580
-0.073824
0.054462
-0.003562
-0.020780
-0.057601
-0.015074
-0.019122
-0.049654
0.004616
-0.018567
0.065941
-0.023071
-0.067458
-0.110041
-0.012669
-0.071086
-0.075681
-0.044911
0.046040
0.028214
-0.063509
-0.002360
-0.020736
-0.040542
-0.093038
-0.013978
-0.092630
-0.081762
-0.028328
-0.004160
-0.059303
-0.017985
-0.143221
-0.001882
-0.044729
-0.090684
-0.099189
-0.071404
0.026968
0.003524
0.037150
-0.054581
0.016970
0.013017
0.036828
-0.029898
-0.100108
0.013168
0.029955
-0.063334
0.052101
0.097070
0.114847
0.155268
0.085318
0.085760
0.108759
0.068125
0.139966
0.207931
0.083126
0.213011
0.086323
0.156314
0.046186
0.074561
0.025807
0.063374
0.020228
0.082212
0.065020
0.025733
-0.032612
0.096483
-0.023222
0.042591
-0.048132
-0.006716
0.063280
-0.043190
-0.020312
0.011340
-0.019783
0.060528
-0.038659
-0.078249
-0.097761
-0.115728
-0.067626
-0.036405
-0.083919
-0.053648
-0.063087
-0.007922
-0.057779
0.012347
-0.021755
-0.071194
-0.044713
-0.068307
-0.120971
-0.106321
-0.065809
0.121281
0.443730
0.668484
1.002981
1.212990
1.297131
1.211967
0.942024
0.622340
0.280922
-0.066472
-0.261210
-0.287653
-0.268676
-0.258345
-0.185776
-0.176206
-0.084132
-0.124803
-0.000612
-0.050728
-0.088141
-0.030893
-0.097648
0.004138
-0.051387
-0.023797
-0.010540
-0.087899
-0.087425
0.006341
0.033817
-0.021379
0.015927
-0.006686
0.029944
0.057560
0.039504
0.006577
0.030511
0.036377
0.000518
0.022720
0.063918
0.158765
0.092931
0.172864
0.152756
0.190119
0.265338
0.238519
0.223067
0.213325
0.321203
0.271843
0.378349
0.296932
0.334364
0.448374
0.319872
0.348198
0.357256
0.421364
0.384421
0.362412
0.479178
0.386405
0.388599
0.456819
0.394587
0.402977
0.434353
0.358280
0.318578
0.345781
0.309767
0.273709
0.255790
0.238584
0.236591
0.205375
0.168794
0.130082
0.155311
0.095693
0.117050
0.127051
0.054911
0.070443
0.044257
0.050299
0.025222
0.042254
-0.002070
-0.100859
0.021840
0.015470
-0.065582
-0.093044
-0.050842
-0.047083
-0.033631
-0.077900
-0.010409
-0.094911
0.004527
-0.040553
-0.110237
-0.069039
-0.100948
-0.031805
-0.055762
-0.194372
-0.063379
-0.066005
-0.083621
-0.140439
-0.109642
-0.099440
-0.067289
-0.067695
-0.102044
-0.050913
-0.088960
-0.025680
-0.084909
-0.079504
-0.089344
-0.133621
-0.062159
-0.139598
-0.046703
-0.041574
-0.067242
-0.122224
-0.088015
-0.112125
-0.028542
-0.009694
0.016280
-0.086927
-0.018939
-0.016959
-0.107038
-0.098074
-0.064753
-0.072688
-0.028284
-0.109742
-0.028638
-0.081985
0.009736
-0.017035
-0.100995
-0.020185
-0.039433
-0.035200
-0.087572
-0.038004
-0.013030
0.039129
-0.074359
-0.059419
-0.022690
0.025002
-0.039292
-0.115105
-0.018896
-0.008643
-0.113406
-0.088503
-0.078500
0.024344
0.018756
-0.059854
-0.009265
-0.010405
-0.071345
-0.012975
0.004035
-0.067228
-0.015083
0.022884
-0.034569
0.008309
0.015021
0.089150
0.083202
0.064843
0.122558
0.091975
0.040298
0.155835
0.159271
0.146932
0.168760
0.087236
0.095237
0.173944
0.057590
0.108974
0.094397
0.079039
0.106868
0.123980
0.080442
0.024502
0.046236
0.036211
0.020244
0.070226
-0.015480
-0.002078
-0.001713
-0.065766
-0.021729
0.081004
-0.033574
-0.025121
0.049302
0.052125
-0.021531
-0.009749
0.007201
-0.027954
-0.027838
-0.011588
0.007533
-0.014596
-0.032052
0.000705
0.014266
-0.063869
-0.058066
-0.084514
-0.046033
-0.018099
-0.027195
0.228281
0.411658
0.803565
1.035339
1.269526
1.408895
1.289497
1.002081
0.678034
0.396531
0.053181
-0.142134
-0.257579
-0.273983
-0.287714
-0.170859
-0.055806
-0.065473
-0.151541
0.110721
-0.006110
-0.034358
-0.031515
0.068102
0.005611
0.013100
-0.012136
-0.063820
0.005428
0.021819
0.008764
0.074372
0.061359
0.023784
0.069551
0.053794
0.090386
0.139095
0.131734
0.207483
0.165029
0.139666
0.137253
0.168951
0.211337
0.186588
0.284873
0.327938
0.218116
0.365977
0.341428
0.304734
0.323550
0.358772
0.354675
0.368095
0.515845
0.419907
0.405910
0.503026
0.444981
0.483234
0.517192
0.538308
0.572548
0.582207
0.432085
0.524871
0.472886
0.430416
0.564620
0.480652
0.471622
0.489627
0.445331
0.402468
0.338823
0.335606
0.331552
0.327439
0.338280
0.235367
0.274697
0.273552
0.263351
0.197857
0.272468
0.209837
0.129268
0.169822
0.135820
0.069248
0.121830
0.124667
0.043096
0.142710
0.057909
0.092904
0.059566
0.037355
0.072851
0.050027
0.059047
0.029942
0.020982
0.099038
0.030305
0.053368
0.114485
0.098766
0.055503
-0.005834
0.084766
0.042814
0.033900
0.072209
0.039704
0.007396
0.075342
0.047162
0.073257
-0.010463
0.117077
0.076395
0.006442
0.077743
0.002649
0.018777
0.047208
0.076238
0.006887
0.001883
0.004366
0.083755
0.030821
0.039701
0.044126
0.038553
0.102301
-0.022503
0.063159
-0.046952
0.079150
-0.068830
0.061938
0.074072
0.101722
-0.014875
0.021746
0.021769
0.098638
0.012186
-0.043565
0.141256
0.012669
0.033375
-0.064395
0.040878
0.049599
0.057564
-0.028721
0.005747
0.128118
0.076504
0.073028
0.006685
0.008561
0.051333
0.029773
-0.030734
0.069238
0.031910
0.115475
0.047641
0.069225
0.061726
-0.027720
0.028514
0.143328
0.006842
0.098232
0.055093
0.183180
0.133503
0.231075
0.160109
0.200129
0.154058
0.172034
0.104423
0.186873
0.175407
0.245177
0.251492
0.208358
0.215448
0.124829
0.249216
0.210853
0.210886
0.223972
0.198838
0.206211
0.182643
0.144464
0.129695
0.113934
0.096960
0.147261
0.153078
0.064737
0.093785
0.137081
0.021142
0.057594
0.082380
0.070680
0.080386
0.050840
0.049662
0.083730
0.069318
0.029642
0.077423
0.024243
0.022627
0.042659
-0.001894
0.063552
0.040046
0.010708
-0.009328
0.013881
0.060313
0.000855
0.028366
-0.033270
0.068124
0.183913
0.461084
0.818475
1.068154
1.341214
1.458313
1.313172
1.126791
0.766263
0.355114
0.147297
-0.168716
-0.203351
-0.322870
-0.210060
-0.157359
-0.188708
-0.051708
-0.028736
0.101989
-0.000197
0.101076
0.129968
0.106069
0.059840
0.027605
-0.049628
0.034866
0.087709
0.041596
0.162777
0.096329
0.014535
0.033000
0.072103
0.063927
0.207013
0.113977
0.136918
0.165840
0.143701
0.138938
0.172820
0.187852
0.253351
0.230219
0.245570
0.327824
0.319477
0.340693
0.351514
0.442669
0.419877
0.342155
0.394778
0.408814
0.416408
0.408775
0.450282
0.450040
0.509062
0.474246
0.527965
0.518478
0.412220
0.534203
0.567742
0.478946
0.525971
0.477859
0.447219
0.451539
0.487985
0.471867
0.410741
0.417154
0.399552
0.378801
0.337197
0.316741
0.302026
0.294876
0.280953
0.181419
0.239484
0.221330
0.065586
0.136678
0.115137
0.196164
0.047706
0.083032
0.109679
0.112751
-0.034460
0.139028
0.074483
0.007869
0.067950
0.085050
0.046364
-0.015998
-0.042921
0.001078
-0.064287
0.039961
-0.015373
-0.009773
0.018546
-0.053522
-0.032055
0.036784
0.012799
-0.004535
0.070289
0.026638
-0.030268
-0.045589
-0.012750
-0.064784
-0.020871
-0.027463
0.014415
0.057998
-0.014630
-0.066847
-0.010637
-0.026249
-0.069762
-0.039451
0.039049
0.053066
-0.016170
-0.040613
-0.040771
-0.051646
-0.008333
0.007515
0.056230
-0.096168
0.018571
-0.090145
0.004683
-0.019949
-0.000081
-0.067024
-0.059521
-0.033932
-0.022654
-0.096589
-0.049166
0.027660
-0.044338
-0.021752
-0.066639
-0.038155
0.015228
0.019935
-0.043120
-0.069927
-0.067538
0.047505
-0.022788
-0.085547
-0.027776
-0.036003
-0.119133
-0.063443
-0.059538
-0.037811
0.005630
-0.048975
-0.086717
-0.059697
-0.089301
-0.053732
0.016146
0.007797
0.012683
-0.023033
0.016940
-0.061191
-0.006704
-0.057294
0.018113
0.013158
0.016579
0.010317
0.042420
0.004740
0.044793
0.096683
0.121048
0.177033
0.147001
0.125512
0.103338
0.131845
0.052542
0.148739
0.143609
0.055290
0.087576
0.120826
0.040793
-0.018306
0.060752
-0.063167
0.015529
0.019149
0.028075
0.020113
-0.025098
-0.049577
-0.126780
-0.111624
-0.003268
-0.015424
-0.097732
-0.047147
-0.116352
-0.077651
-0.100215
-0.093345
-0.002791
-0.083186
-0.046137
-0.143389
-0.024717
-0.147212
-0.104239
-0.067303
-0.207668
-0.129772
-0.067320
-0.082863
-0.109512
-0.063383
0.072993
0.304452
0.590261
0.875861
1.259118
1.276006
1.171170
0.980324
0.652770
0.311298
0.048698
-0.210735
-0.327444
-0.347692
-0.333262
-0.252365
-0.175182
-0.152483
-0.107092
-0.085702
-0.019170
-0.080306
-0.140342
-0.056731
-0.066392
-0.080909
-0.081624
-0.064714
-0.046031
0.004386
-0.101231
0.018116
-0.000155
-0.016243
-0.007031
0.091640
-0.024565
0.004374
0.008158
0.013188
0.036624
0.122890
-0.010213
0.126503
0.153707
0.095547
0.092921
0.090074
0.250378
0.186738
0.229816
0.328645
0.249253
0.202153
0.264957
0.320672
0.355714
0.346962
0.376658
0.366890
0.348505
0.380812
0.368185
0.281596
0.402253
0.363161
0.397357
0.367497
0.424611
0.307136
0.308424
0.356054
0.387569
0.394775
0.301786
0.280082
0.248337
0.343956
0.285495
0.190499
0.173976
0.180692
0.176439
0.138125
0.204927
0.042239
0.092706
0.038112
0.017121
0.048574
-0.023099
-0.028090
0.025221
0.060659
0.026613
0.035019
-0.064888
-0.105562
-0.062405
-0.040564
-0.066044
-0.040491
-0.078402
-0.058821
-0.130013
-0.064231
-0.044468
-0.116811
-0.115485
-0.079488
-0.057386
-0.068644
-0.055553
-0.080463
-0.092326
-0.137457
-0.015360
-0.083891
-0.114926
-0.036542
-0.034217
-0.133594
-0.187228
-0.030893
-0.004600
-0.097680
-0.128553
-0.040783
-0.114575
-0.110658
-0.137681
-0.081352
-0.017312
-0.079145
-0.157822
-0.080779
-0.201239
-0.065940
-0.121235
-0.025548
-0.107263
-0.125954
-0.120784
-0.117899
-0.112989
-0.080725
-0.066574
-0.094255
0.003210
-0.146247
-0.076208
-0.061197
-0.133489
-0.177961
-0.056611
-0.134620
-0.036297
-0.033183
-0.095032
-0.120465
-0.024270
-0.031639
-0.087993
-0.090024
-0.143754
-0.099766
-0.021096
-0.103704
-0.064221
-0.092271
-0.096362
-0.038128
-0.021344
-0.100770
-0.029379
-0.096985
-0.012397
-0.060182
0.015422
0.009841
-0.094596
0.074532
-0.014212
0.023322
0.105063
0.064176
0.037768
0.039607
0.057220
0.072569
-0.016486
0.133800
0.098529
0.048936
0.093880
0.080056
0.099786
0.058710
0.084752
0.124803
0.088953
0.014008
0.069017
0.059302
0.028342
0.134656
0.027901
0.100774
0.015369
-0.027013
0.033759
0.066035
-0.004588
0.039453
-0.026521
-0.044146
0.066895
-0.090193
-0.044761
-0.125069
-0.035947
-0.043152
-0.056287
-0.051766
-0.035730
-0.132241
-0.037849
-0.100502
-0.036246
-0.021599
-0.100738
-0.157831
-0.076303
-0.092420
-0.102162
-0.144547
-0.096746
-0.076474
0.071344
0.331091
0.686809
0.957520
1.153330
1.311413
1.252954
1.050089
0.761453
0.488116
0.083475
-0.172937
-0.252509
-0.412010
-0.347367
-0.192945
-0.121917
-0.108236
-0.023450
0.018079
0.018300
-0.117685
-0.062283
0.017969
-0.016530
0.010830
-0.019385
0.087383
0.026031
-0.054805
-0.010449
0.100271
0.009249
0.052530
0.105328
0.016432
0.115005
-0.007613
0.058226
0.121409
0.121059
0.112833
0.127288
0.176768
0.172724
0.287474
0.174426
0.226636
0.264511
0.292904
0.330719
0.252387
0.355407
0.323342
0.403626
0.460892
0.492723
0.458213
0.435662
0.400970
0.529207
0.519154
0.473847
0.514939
0.467851
0.500982
0.511199
0.434899
0.464022
0.400016
0.520066
0.521460
0.477336
0.446058
0.364241
0.383184
0.315421
0.363322
0.394818
0.401689
0.266002
0.332231
0.237172
0.217531
0.190114
0.206682
0.180929
0.093645
0.145426
0.109602
0.159612
0.169329
0.118327
0.155510
0.116673
0.096151
0.142372
0.107212
0.107888
0.123592
0.131367
0.085565
0.014278
0.015040
-0.006810
0.007872
0.002254
0.074407
0.075937
0.037884
0.085761
0.032852
0.092529
-0.016493
-0.026107
0.035695
0.027519
-0.012663
-0.017123
-0.026276
0.021458
0.059949
0.047690
0.080492
0.008544
-0.030023
0.011753
0.066206
0.016721
0.080149
0.080665
0.023157
0.103946
0.051254
0.038906
0.016854
0.058885
0.102590
-0.004702
0.030505
0.048857
0.055061
0.041011
0.030570
-0.026800
0.060067
0.048141
0.107394
0.090613
0.012297
-0.005414
0.063515
0.030722
0.063728
0.017995
-0.049250
0.055756
-0.103479
0.082077
0.067421
0.098010
0.058365
0.059107
0.035667
0.086600
0.138111
0.093058
0.029806
0.064779
0.064102
0.062045
0.055423
0.072976
0.041049
0.024482
0.085538
0.105494
0.063604
0.047143
0.112530
0.172135
0.067513
0.108154
0.151286
0.141451
0.241630
0.216065
0.254381
0.172052
0.177432
0.181975
0.165353
0.157476
0.233366
0.278952
0.222013
0.313137
0.267408
0.238251
0.234973
0.166779
0.222081
0.205764
0.278111
0.222122
0.191639
0.254690
0.174430
0.149328
0.152556
0.187845
0.017438
0.105330
0.004897
0.065158
0.134583
0.041884
0.131780
0.083831
0.075968
0.081914
0.133018
0.119604
0.100228
0.123338
0.012172
0.059723
0.109553
0.074803
0.145634
0.156209
0.003297
0.030911
0.039055
0.062257
0.053052
0.001251
0.114028
0.099416
0.393723
0.752291
1.044375
1.237920
1.472760
1.371201
1.188772
0.892690
0.460442
0.274988
-0.030032
-0.168034
-0.206322
-0.166340
-0.107407
-0.086509
0.034145
0.067219
0.155235
0.132189
0.049533
0.079483
0.098275
0.041838
0.085768
0.110231
0.073912
0.035931
