-0.017331
-0.061694
-0.006631
0.016911
0.131057
0.003373
0.022286
-0.004917
-0.000721
-0.000543
0.033195
0.043594
0.032246
0.032135
0.060434
0.035072
0.126785
-0.016595
0.014244
-0.025396
-0.047293
-0.077360
-0.056393
0.007036
0.027253
0.033698
0.008703
0.028721
0.011402
0.016698
0.051967
0.078264
0.085295
0.098744
0.121447
0.097878
0.173529
0.076402
0.131882
0.207687
0.213032
0.109335
0.167822
0.194079
0.145818
0.145839
0.181005
0.198130
0.110856
0.193142
0.236920
0.273060
0.171013
0.170355
0.170169
0.124294
0.153792
0.115794
0.139933
0.104466
0.160498
0.180162
0.110941
0.119735
0.059572
0.065770
0.083240
0.146567
0.035429
-0.026141
-0.021624
0.114587
0.003180
0.122281
0.095521
0.007432
0.023259
0.044126
-0.020937
0.111317
0.078274
-0.010591
-0.023287
0.054383
-0.001776
0.051423
0.163597
0.482840
0.825170
1.068732
1.272374
1.383331
1.355648
1.134535
0.854510
0.443078
0.131737
0.012427
-0.222608
-0.248986
-0.192850
-0.130990
-0.007004
0.077389
0.067460
0.076508
-0.030816
0.078224
0.067739
0.025219
0.088056
0.130235
0.074034
-0.005560
0.142544
0.180097
0.160504
0.122581
0.239577
0.154775
0.130686
0.207630
0.194861
0.237573
0.217199
0.289773
0.259264
0.258011
0.207300
0.358730
0.291568
0.270318
0.370045
0.380360
0.373448
0.421728
0.439410
0.397831
0.414230
0.484312
0.493822
0.516904
0.529958
0.545187
0.497846
0.611610
0.588457
0.598725
0.532323
0.552643
0.515844
0.526204
0.548058
0.565167
0.613395
0.570454
0.405688
0.472231
0.452779
0.418294
0.426358
0.301458
0.339437
0.362996
0.335166
0.297478
0.280028
0.226330
0.264378
0.349325
0.234822
0.230912
0.256515
0.166696
0.216870
0.180080
0.206927
0.150357
0.133534
0.149355
0.126902
0.067813
0.224941
0.147489
0.134034
0.034963
0.106320
0.097687
0.093148
0.159634
0.098044
0.130110
0.063219
0.141870
0.081755
0.120799
0.005803
0.060476
0.045228
0.049382
0.081967
0.109067
0.068860
0.061196
0.051798
0.060974
0.019639
0.088163
0.149614
0.148744
0.071482
0.149460
0.030481
0.075462
-0.058919
0.101030
0.070877
0.134495
0.066738
0.064303
0.162330
0.052247
0.095957
0.113053
0.112165
0.081292
0.124096
0.002042
0.073643
0.064639
0.142292
0.150673
0.047770
0.120794
0.119092
0.123665
0.089923
0.103354
0.006016
0.115239
0.004283
0.080254
0.132362
0.102600
0.038186
0.044013
0.042717
0.092388
0.034164
0.172696
0.026397
0.098789
0.106733
0.124584
0.093040
0.087111
0.198542
0.108361
0.065367
0.095913
0.164984
0.198816
0.224125
0.186470
0.201492
0.265692
0.235099
0.167071
0.226084
0.192691
0.206231
0.207430
0.207422
0.260536
0.245897
0.220915
0.240735
0.308100
0.307149
0.176344
0.166790
0.195939
0.150713
0.147343
0.188730
0.094995
0.118035
0.157221
0.048889
0.171892
0.121731
0.101801
0.044983
0.069543
0.133680
0.046694
0.113788
0.216168
0.067268
0.068206
-0.024209
0.072267
0.036354
0.035185
0.031683
0.098044
0.056119
0.015982
0.047915
0.035533
-0.022023
-0.025493
0.099348
0.123839
0.358611
0.689081
0.973143
1.246716
1.500000
1.316001
1.108708
0.834079
0.568426
0.197645
-0.038831
-0.149214
-0.262212
-0.203262
-0.094157
-0.076360
-0.066868
0.048436
0.083289
0.016263
0.001309
0.024649
0.025433
0.018842
0.162111
0.075900
0.005232
0.012276
0.046036
0.052172
0.101797
0.125381
0.089143
0.091136
0.127111
0.133345
0.187349
0.204394
0.294798
0.217234
0.166421
0.197800
0.242928
0.245150
0.326368
0.259281
0.310341
0.431279
0.277292
0.394997
0.393647
0.394035
0.366708
0.419675
0.487000
0.517383
0.447547
0.533642
0.504839
0.537119
0.537536
0.465940
0.426736
0.498287
0.538139
0.403456
0.442705
0.406849
0.443810
0.465098
0.419177
0.393842
0.420026
0.367931
0.441716
0.293697
0.356136
0.349366
0.261004
0.210039
0.228749
0.264288
0.227390
0.173920
0.118548
0.143386
0.176243
0.116439
0.132355
0.167414
0.147521
0.052644
0.095370
0.059832
0.076803
0.046721
0.007468
-0.004599
0.035537
0.047659
-0.067691
0.029865
-0.009472
-0.025537
0.072295
0.026098
-0.010783
-0.026503
-0.021070
-0.022239
0.011729
-0.004394
0.001829
-0.016799
0.052289
-0.045153
-0.048841
-0.037063
0.037229
-0.010432
0.005958
-0.027813
-0.008318
-0.004759
-0.013975
-0.000390
-0.062809
-0.013928
0.033310
-0.054597
0.002707
0.013300
0.005179
-0.025617
-0.044670
0.015723
-0.067703
-0.063602
-0.047465
-0.032177
-0.045875
-0.080749
0.014434
-0.005403
-0.067559
-0.008127
-0.045642
0.008095
-0.033940
0.084555
-0.100971
-0.085302
-0.006104
0.005307
0.015856
0.030153
-0.026826
0.061310
0.021510
-0.023666
-0.023745
-0.013950
-0.024503
0.021280
-0.028595
-0.040759
-0.054761
-0.007947
-0.040501
0.029437
0.041453
0.009376
0.079047
0.002887
-0.060993
0.052665
0.029496
0.152071
0.163248
0.070751
0.069391
0.143662
0.130488
0.175053
0.129860
0.147235
0.147499
0.139348
0.101896
0.118523
0.078919
0.162093
0.075189
0.120226
0.082849
0.121638
0.015453
0.039938
0.044675
0.000223
-0.001676
-0.047792
-0.000991
-0.076311
-0.050262
-0.073900
0.040894
0.006894
-0.016437
-0.033759
-0.100348
-0.047139
-0.062187
0.013394
-0.014892
-0.085981
-0.078068
-0.010790
-0.067697
-0.063336
-0.042215
0.010966
-0.071081
-0.075521
-0.121095
-0.124880
0.032212
0.220591
0.513509
0.797562
1.035301
1.245527
1.271241
1.142420
0.906885
0.489974
0.174865
-0.105574
-0.297966
-0.295481
-0.342170
-0.191388
-0.179714
-0.066294
-0.089325
-0.072471
-0.051697
-0.067596
-0.079981
-0.061835
-0.047486
-0.000448
-0.019651
-0.017004
0.029207
-0.090107
0.012683
-0.026367
0.072200
0.017254
0.081802
0.082112
-0.016943
-0.003428
0.130262
0.134474
0.130695
0.053998
0.194324
0.193271
0.128024
0.186170
0.144008
0.217297
0.228683
0.268647
0.320480
0.302721
0.326249
0.318978
0.363894
0.435130
0.434973
0.453140
0.442952
0.456658
0.480937
0.538970
0.433991
0.396801
0.403941
0.446383
0.525873
0.433130
0.426549
0.425403
0.388579
0.352622
0.343170
0.307670
0.254718
0.271220
0.295737
0.272453
0.286265
0.239060
0.168977
0.204242
0.207770
0.208943
0.117784
0.077982
0.154373
0.112073
0.089324
0.085728
0.031339
0.066538
0.055222
0.092431
0.053298
-0.058104
-0.060461
0.001181
0.003995
-0.043474
0.011534
-0.014897
-0.017366
-0.066333
-0.033894
0.034064
-0.044807
0.042892
0.004759
-0.011062
-0.004909
-0.006055
-0.038323
-0.086346
-0.033566
-0.057832
-0.083924
0.044104
0.022168
-0.015508
-0.030227
-0.024733
-0.030729
-0.057605
-0.055675
0.037488
-0.053048
0.001830
-0.066480
0.004198
0.029094
-0.006378
-0.062528
-0.041882
-0.066664
-0.008547
-0.023203
0.015341
-0.043305
-0.038127
-0.056478
0.027142
-0.050954
0.029922
-0.068985
-0.037159
0.046855
0.042660
-0.009404
-0.031872
-0.047168
0.012563
-0.021946
0.030757
-0.058446
0.000991
0.042545
0.033688
-0.009887
-0.030082
0.007013
-0.021636
0.024511
-0.026495
0.011587
0.009848
0.043771
-0.012066
0.000444
-0.022031
0.046752
0.040948
0.000954
-0.007958
0.049947
0.017204
0.141902
0.041764
0.149884
0.143133
0.086247
0.221667
0.211996
0.207179
0.167288
0.167686
0.199018
0.186242
0.178792
0.192850
0.211568
0.095885
0.195705
0.162272
0.145743
0.120895
0.047552
0.078995
0.169914
0.039378
0.088157
0.018544
0.035947
0.092565
0.086615
0.067278
0.104123
0.028450
0.031906
-0.041371
-0.048373
0.060325
-0.028393
0.019361
0.136932
0.074414
0.100253
-0.002904
0.025966
0.080470
-0.081267
0.098828
-0.056681
0.035994
0.066252
-0.056528
0.009303
0.072820
0.289742
0.471045
0.806546
1.007427
1.303178
1.368611
1.248874
1.006327
0.644043
0.256480
0.088235
-0.100943
-0.173373
-0.206090
-0.129752
-0.078060
-0.004425
-0.019911
0.055452
0.004945
0.093708
0.001005
0.040767
0.089829
0.117575
0.109081
0.108841
0.137588
0.143315
0.060448
0.094192
0.101436
0.130331
0.087161
0.170561
0.154463
0.132668
0.143937
0.186848
0.116651
0.240410
0.243940
0.289543
0.278278
0.258931
0.307128
0.404427
0.328748
0.412818
0.429284
0.377996
0.448129
0.375132
0.433031
0.525395
0.534984
0.514576
0.562500
0.583643
0.482477
0.556970
0.586575
0.520087
0.527733
0.576105
0.500514
0.617439
0.548877
0.615099
0.450854
0.520472
0.454995
0.409958
0.388756
0.438653
0.405575
0.428198
0.328527
0.347495
0.326507
0.280173
0.284559
0.189272
0.197615
0.178970
0.168093
0.152104
0.166196
0.128421
0.075139
0.130666
0.092939
0.091428
0.132388
0.186909
0.138824
0.165543
0.152360
0.206150
0.111001
0.179758
0.092902
0.048554
-0.023478
0.059712
0.106311
0.096265
0.048266
0.092420
0.095306
0.071514
0.087463
0.076081
0.081943
0.027625
0.080685
0.059811
0.123290
0.038193
0.049926
0.119238
0.102912
0.048671
0.006144
0.081857
0.066237
0.037103
0.088376
0.106637
0.036829
0.070979
0.089442
0.076308
0.124996
0.029307
0.038580
0.025165
0.104542
0.080825
0.058195
0.073852
0.045202
0.105663
0.030225
0.096396
0.149583
0.111671
0.141018
0.102297
0.049543
0.105788
0.117432
0.131869
0.009555
0.083469
0.189326
0.148985
0.062106
0.102587
0.067372
0.111216
0.018602
0.134293
0.122741
0.065086
0.048417
0.095447
0.189648
0.177763
0.231226
0.146404
0.121526
0.174873
0.268991
0.191818
0.265875
0.176920
0.219136
0.189349
0.212219
0.318636
0.214692
0.146669
0.209919
0.249961
0.246007
0.266258
0.239065
0.206416
0.264347
0.171275
0.169912
0.168830
0.231903
0.260559
0.182009
0.228133
0.135143
0.210889
0.250924
0.155871
0.200768
0.099884
0.041450
0.089706
0.120510
0.122254
0.161604
0.162903
0.046233
0.049798
0.129608
0.096844
0.083149
-0.009227
0.000197
0.067349
0.079811
0.068383
0.063106
0.039821
0.013939
0.036579
0.068323
0.052248
0.098946
0.155188
0.276665
0.401190
0.765110
1.072033
1.379559
1.400038
1.405916
1.181664
0.819899
0.480763
0.126751
-0.123697
-0.163143
-0.211669
-0.153072
-0.071806
0.018081
0.041349
0.047180
0.102089
0.149285
0.127340
0.024902
0.064955
0.117582
0.102762
0.054404
0.092517
0.097487
0.055480
0.127864
0.159914
0.133812
0.144877
0.161819
0.200414
0.185695
0.227780
0.217433
0.161533
0.255185
0.255738
0.236729
0.243722
0.327711
0.330796
0.269233
0.374402
0.474570
0.378650
0.442445
0.505063
0.508526
0.505535
0.442125
0.487299
0.504425
0.510719
0.526452
0.576417
0.665914
0.497033
0.536264
0.525646
0.531804
0.487212
0.509553
0.516530
0.471000
0.470746
0.426994
0.436561
0.494516
0.400010
0.366134
0.377484
0.338132
0.364077
0.363982
0.271566
0.294538
0.317531
0.212219
0.202141
0.171478
0.145614
0.221748
0.168578
0.145013
0.153613
0.189762
0.107262
0.091088
0.069643
0.110529
0.109114
0.070017
0.125456
0.052051
0.081938
0.080755
0.005486
0.038665
0.085406
0.024112
-0.014741
0.070532
0.020013
0.080869
0.096198
-0.036444
0.050167
0.028810
-0.033955
0.028456
0.005378
-0.048462
0.024337
0.053994
0.030080
0.018860
0.017327
-0.027282
0.058067
-0.011996
-0.015643
0.006839
0.043561
0.040822
0.051534
0.001124
-0.000196
0.020267
-0.062340
0.069745
0.011338
0.055355
-0.007502
0.059464
0.038941
-0.039164
0.028932
0.039730
0.077609
0.061571
0.032988
0.009947
0.059745
-0.055670
-0.007349
-0.031332
-0.049349
0.027603
-0.032425
0.051526
0.037911
-0.043801
-0.007575
0.014401
0.012204
-0.069768
-0.098765
-0.081715
0.038021
0.007124
0.046952
-0.021367
-0.024470
0.097850
0.043043
0.015381
0.063164
0.099734
0.053594
0.107863
0.049214
0.101062
0.048762
0.026545
0.167282
0.059740
0.098997
0.119067
0.104854
0.091462
0.163934
0.159669
0.141906
0.141647
0.114700
0.129436
0.122375
0.162725
0.096418
0.065708
0.116794
0.073620
0.112738
0.069800
0.051777
0.011048
-0.009855
0.050204
0.016432
0.076819
0.017299
0.028990
0.002334
-0.049559
-0.055219
-0.047479
-0.054699
0.038803
-0.120131
0.038165
-0.079123
0.005568
-0.052924
-0.043331
-0.071923
-0.112585
-0.000812
-0.139852
-0.036066
-0.091895
-0.092830
-0.070794
0.059499
0.242308
0.466057
0.939086
1.155922
1.260164
1.322960
1.064113
0.838778
0.525800
0.062720
-0.105955
-0.278856
-0.365450
-0.287914
-0.241208
-0.101244
-0.072313
-0.046950
-0.017850
-0.009108
-0.042581
-0.030864
-0.082816
0.031863
-0.072150
0.027983
-0.059390
-0.030770
0.067051
0.001270
-0.015898
0.017288
-0.057611
0.027014
0.074153
0.094294
0.099946
0.093123
0.123712
0.091001
0.125661
0.141735
0.159794
0.146009
0.245819
0.278103
0.186785
0.234430
0.222477
0.307871
0.296437
0.301663
0.352240
0.364531
0.375939
0.398882
0.381813
0.403101
0.430152
0.411499
0.411272
0.392498
0.395924
0.395596
0.347603
0.406320
0.405099
0.398784
0.357522
0.301817
0.316556
0.308720
0.345816
0.299146
0.224242
0.237472
0.254381
0.213113
0.271790
0.190460
0.185272
0.156606
0.120547
0.116016
0.116536
-0.023005
0.098742
0.028702
0.074742
0.023206
-0.016107
-0.045540
-0.007176
-0.009617
-0.020367
-0.092792
-0.071639
-0.028663
-0.051165
-0.053868
-0.075675
-0.021185
-0.054182
-0.049655
-0.038534
-0.182079
-0.034967
-0.110258
-0.053296
-0.080106
-0.124995
-0.018964
-0.043860
-0.150900
-0.053826
-0.102841
-0.027245
-0.053718
-0.060769
-0.077095
-0.079769
-0.047614
-0.054363
-0.055927
-0.042288
-0.044121
-0.161061
-0.068536
-0.061104
-0.051555
-0.043182
-0.103796
-0.108255
-0.112949
-0.157337
-0.094673
-0.010889
-0.069598
-0.033901
-0.149927
-0.030246
-0.038233
-0.117635
-0.077064
-0.113593
-0.082662
-0.054004
-0.044479
-0.073658
-0.026910
-0.070342
-0.035848
-0.061955
-0.033646
-0.015134
-0.067031
-0.017791
-0.149474
-0.126168
-0.086789
-0.006290
-0.033962
0.038687
-0.094660
-0.062197
-0.061876
-0.054506
0.015484
0.007926
-0.001486
-0.056476
0.046114
-0.004269
-0.121159
0.028419
0.032184
-0.060348
0.065572
0.005762
0.116620
0.189745
0.064832
0.062916
0.066833
0.057774
0.100677
0.104276
0.219082
0.043893
0.167375
0.036005
0.128287
0.090421
0.053226
0.073701
0.110340
0.042839
0.043493
0.034506
0.010250
0.011567
0.015351
-0.059020
0.028757
-0.086923
-0.012478
-0.085117
-0.037761
-0.077530
-0.053631
-0.066069
-0.120451
-0.015376
-0.057270
-0.051022
0.001466
-0.103358
-0.146090
0.024337
0.006694
0.002584
-0.053714
-0.041882
-0.083571
-0.001917
-0.036651
0.108303
0.215200
0.431193
0.785381
1.070422
1.231081
1.297864
1.028234
0.878676
0.479731
0.192469
-0.038179
-0.271305
-0.311930
-0.307166
-0.199012
-0.202949
-0.089008
-0.047836
-0.019387
-0.047762
-0.013007
-0.051292
0.021111
0.023044
-0.066205
0.029000
-0.035235
0.010330
-0.022698
0.002178
-0.077662
0.076634
0.132526
0.027685
0.038192
0.040921
0.094038
0.045481
0.135134
0.151238
0.085516
0.166381
0.237146
0.203213
0.316575
0.236226
0.269877
0.277101
0.292526
0.279720
0.366592
0.303517
0.426859
0.471245
0.436287
0.384520
0.572478
0.405294
0.439178
0.468199
0.521387
0.425056
0.582629
0.475161
0.471355
0.416286
0.498599
0.435464
0.425531
0.412177
0.460154
0.408499
0.351227
0.390568
0.406730
0.303131
0.352230
0.330915
0.269163
0.300215
0.179407
0.262758
0.149423
0.188443
0.142749
0.050342
0.035232
0.099152
0.157710
0.027261
0.145878
0.117371
0.128375
0.001115
-0.005384
-0.003914
0.097624
0.024079
0.007234
-0.013709
0.100219
0.048810
-0.025492
0.020388
0.011002
-0.036045
0.042703
0.057043
0.022885
-0.032071
-0.028090
0.064369
-0.014492
-0.011612
-0.070149
-0.050880
0.009588
0.048921
0.052329
0.014484
-0.048854
-0.004520
0.038790
-0.010025
0.021076
0.038122
0.037702
-0.019268
-0.032929
0.013350
-0.026330
0.112178
-0.010783
0.016493
-0.017646
-0.032498
0.007193
-0.004977
0.065245
-0.006271
0.045079
0.116340
0.074099
0.039904
0.054960
-0.005647
0.032693
0.087005
0.104151
0.039111
0.060201
-0.040753
0.030490
-0.016579
-0.014373
0.058553
-0.057540
-0.029778
-0.020875
0.058364
0.028440
-0.027831
0.026515
0.064764
0.007063
0.098585
0.052158
0.040079
0.107818
0.010894
0.070733
0.039681
0.066250
0.106241
0.140050
0.102580
0.146028
0.193209
0.134225
0.169579
0.174923
0.217047
0.215750
0.182713
0.185206
0.196603
0.177472
0.196349
0.225024
0.264180
0.153886
0.129466
0.176393
0.135485
0.222237
0.151225
0.121864
0.140831
0.082370
0.160216
0.058057
0.065482
0.105460
0.091198
0.123690
0.101850
0.043002
0.050405
0.107978
0.069830
0.087782
-0.058512
0.052120
0.068669
0.066739
0.059881
-0.007644
0.074374
0.033813
0.096269
0.074476
0.009175
0.064410
0.048450
0.031539
0.005419
0.030791
0.255865
0.473953
0.835625
1.053448
1.329326
1.426296
1.303217
1.072745
0.718056
0.350911
0.125728
-0.192256
-0.271729
-0.226016
-0.158049
-0.060580
-0.081420
0.026005
0.051548
0.091168
0.042744
0.070555
0.032403
0.060734
0.140833
0.087737
0.088587
0.081103
0.063903
0.051617
0.119507
0.060928
0.128101
0.073697
0.120530
0.108715
0.144156
0.142765
0.197794
0.310435
0.241081
0.161333
0.288053
0.237065
0.332908
0.292554
0.353774
0.268902
0.379620
0.394672
0.334078
0.389474
0.413718
0.410842
0.511673
0.451202
0.530989
0.486259
0.400587
0.478184
0.576731
0.439862
0.559422
0.455630
0.456515
0.482520
0.518950
0.558111
0.481249
0.510627
0.413260
0.433927
0.454250
0.405261
0.349353
0.329492
0.310004
0.317179
0.210778
0.331238
0.219907
0.241303
0.191412
0.191386
0.211351
0.291363
0.153840
0.105995
0.154094
0.137913
0.138076
0.121757
0.149219
0.037218
0.051721
0.026142
0.008130
-0.029660
0.074834
0.009774
-0.035471
0.037018
-0.017069
0.069977
0.030327
0.105702
0.028368
0.079340
0.052629
0.022429
0.050326
0.038421
-0.022776
-0.000874
0.022589
0.062937
-0.014462
-0.044445
0.002749
0.047086
0.030127
0.114644
-0.051280
0.034739
-0.027023
0.007115
0.087845
0.016386
0.059378
-0.001452
0.068675
-0.007229
0.004669
0.010463
0.015782
0.008061
0.036419
0.000440
0.023760
-0.010152
0.062903
0.014040
-0.014774
-0.028722
-0.011053
0.031003
0.027826
0.055415
0.003895
0.001490
0.081665
0.004482
-0.022250
-0.043009
0.011589
0.094736
-0.025217
0.033715
-0.002531
0.051548
-0.017424
-0.020884
0.012174
-0.045566
-0.030249
0.041668
-0.033565
0.037124
0.015156
0.157546
0.122289
0.043478
0.042253
0.083265
0.019984
0.060891
0.043631
-0.005540
0.139590
0.092385
0.081931
0.161643
0.131234
0.171557
0.054241
0.193284
0.223039
0.158424
0.114082
0.203002
0.135624
0.204013
0.174826
0.102118
0.082420
0.148728
0.172365
0.080717
0.048993
0.016140
0.016482
-0.018099
0.037681
0.015331
0.055930
0.009130
0.035854
-0.023312
-0.035901
0.044777
-0.021881
0.009637
-0.017451
-0.034247
0.005824
-0.007896
-0.020331
-0.013591
-0.080190
-0.034814
-0.011734
-0.098995
-0.017340
-0.099903
-0.121006
-0.063374
-0.003775
0.113634
0.391843
0.593977
0.910864
1.217955
1.291148
1.285631
1.036850
0.716568
0.405012
-0.036127
-0.203506
-0.291986
-0.373412
-0.284577
-0.193362
-0.131631
-0.072351
-0.088278
-0.106404
-0.045431
-0.082813
0.004522
-0.025171
-0.074853
0.006356
0.013932
-0.035447
-0.032149
-0.031994
-0.046040
-0.013175
0.036434
0.045983
0.009571
0.063158
0.057371
0.032256
0.189840
0.071156
0.128790
0.088467
0.163597
0.226993
0.163649
0.151872
0.207656
0.225857
0.162279
0.299738
0.303379
0.287799
0.408922
0.219667
0.426880
0.363387
0.352726
0.375364
0.439461
0.398978
0.470444
0.372752
0.427491
0.451451
0.436297
0.441299
0.406271
0.355058
0.336574
0.360340
0.288366
0.303725
0.314152
0.306327
0.261676
0.283962
0.280486
0.258253
0.232174
0.113890
0.211513
0.161867
0.116015
0.066462
0.212880
0.105003
0.016560
0.005714
0.031220
-0.030218
0.012121
-0.006687
-0.024976
0.020322
-0.056814
-0.081339
-0.041798
-0.143900
-0.085465
-0.070282
-0.096936
-0.045438
-0.099500
-0.121322
-0.119787
-0.124009
-0.071102
-0.040128
-0.077292
-0.080286
-0.077739
-0.067778
-0.097755
-0.082953
-0.127412
-0.037409
-0.070244
-0.079549
-0.053991
-0.046251
-0.080272
-0.077952
-0.041843
-0.045690
-0.066622
-0.041289
0.020881
-0.082689
-0.080358
-0.112193
-0.076200
-0.198821
-0.117282
-0.068269
-0.112223
-0.090302
-0.067974
-0.083573
-0.095780
-0.061844
-0.099867
-0.096652
-0.089801
-0.145670
-0.046011
-0.061962
-0.097298
-0.168410
0.019008
-0.089078
-0.092675
-0.134675
-0.148374
-0.053310
-0.071462
-0.122924
-0.050678
-0.025923
-0.119580
-0.026145
-0.085348
0.031140
-0.162618
-0.091931
-0.040531
-0.072215
-0.094547
-0.131809
-0.022396
-0.105267
-0.055219
-0.040533
-0.067726
-0.075127
0.038278
0.013941
0.009375
-0.008548
0.063930
0.017193
0.019084
0.070702
-0.046822
0.040382
0.036871
0.071998
0.202918
0.075747
0.123142
0.102881
0.026120
0.061620
0.043506
0.099037
0.000813
-0.007170
0.011860
0.006757
-0.006621
0.000021
-0.054864
-0.124126
-0.087652
-0.007158
-0.047659
-0.052448
-0.075329
-0.068526
-0.047432
-0.156204
-0.137870
-0.040803
-0.041959
-0.069670
-0.125305
-0.093619
-0.104802
-0.196631
-0.078138
-0.126083
-0.074945
-0.080903
-0.156050
-0.112550
-0.145112
-0.152628
-0.039202
-0.027230
0.229863
0.471953
0.817057
1.069973
1.237401
1.191524
1.025279
0.763805
0.412719
0.064221
-0.198497
-0.189939
-0.300009
-0.337463
-0.277914
-0.182224
-0.155317
-0.158233
-0.132563
-0.123372
-0.069266
-0.096317
-0.039046
-0.020598
-0.034037
-0.027045
-0.019163
-0.070035
-0.031552
-0.011298
0.002687
-0.033795
-0.002974
0.062022
0.025952
0.040385
0.032891
0.086613
0.069741
0.096470
0.083536
0.160852
0.142667
0.177446
0.184316
0.190765
0.260112
0.207494
0.253315
0.281644
0.284503
0.323855
0.301000
0.416538
0.403687
0.390033
0.455260
0.322383
0.466075
0.427865
0.426629
0.421233
0.473195
0.400215
0.495453
0.441587
0.465114
0.317049
0.306896
0.327036
0.354688
0.365788
0.269742
0.340377
0.293304
0.240785
0.281783
0.294960
0.223964
0.226997
0.233087
0.087344
0.125261
0.161353
0.040836
0.115127
0.104121
0.115705
0.091145
-0.017751
-0.013357
-0.032382
-0.016558
-0.014299
0.045622
0.085709
0.038386
-0.000152
0.056607
-0.049597
-0.078421
-0.073823
-0.043875
0.003369
-0.045421
-0.061878
-0.103689
-0.067665
-0.000120
0.034955
0.006140
-0.049139
-0.015745
-0.012187
0.003577
-0.055938
-0.012032
-0.048543
0.039082
-0.012422
-0.042107
-0.022329
0.029704
-0.006710
-0.088030
-0.042175
-0.024873
-0.048736
0.042774
-0.098969
0.059544
-0.065942
-0.023931
-0.042435
-0.018992
-0.010388
-0.013591
0.024702
-0.036203
0.001748
-0.009363
0.064651
-0.019390
-0.030799
-0.045175
-0.038408
-0.076329
-0.011001
-0.019628
0.029972
-0.015376
0.010691
-0.042593
0.018354
-0.032728
-0.033400
-0.076549
-0.047499
-0.025693
0.032484
-0.061832
-0.034425
0.054818
-0.043194
0.044891
0.028128
0.076348
0.036229
-0.026704
0.061441
0.092618
-0.006544
0.028794
0.064908
0.056284
0.092911
0.098356
0.155369
0.112144
0.121394
0.210920
0.226741
0.130403
0.101079
0.184263
0.053869
0.212520
0.146911
0.189890
0.225188
0.195662
0.264597
0.185250
0.166717
0.091958
0.108274
0.138689
0.124615
0.083690
0.079630
0.079057
0.093971
0.104400
0.083163
0.045072
0.064671
0.017891
-0.045485
-0.029574
0.055448
0.116915
0.026571
0.111023
0.095798
0.027201
-0.013653
0.035898
-0.038129
0.060837
0.064640
-0.012552
0.039579
0.042068
-0.019988
0.004036
0.028565
0.077991
0.258680
0.551547
0.782472
1.106400
1.355916
1.382520
1.218194
0.961391
0.632467
0.340771
0.108744
-0.061913
-0.146612
-0.221162
-0.133420
-0.108493
-0.029523
-0.045697
0.031229
0.000046
0.036691
0.067210
0.040486
0.135111
0.042612
0.126762
0.068245
0.060331
0.072265
0.092558
0.126945
0.123997
0.155790
0.142041
0.174288
0.147398
0.175174
0.172997
0.269742
0.255697
0.214083
0.220405
0.258520
0.309306
0.314901
0.322769
0.353025
0.350922
0.386947
0.360655
0.441450
0.518998
0.431822
0.470888
0.471096
0.496180
0.601617
0.562510
0.559938
0.503877
0.541594
0.465353
0.493971
0.583868
0.454800
0.566044
0.534070
0.523547
0.474079
0.440520
0.438433
0.491269
0.534543
0.432133
0.417652
0.402311
0.413045
0.438218
0.321216
0.326108
0.353720
0.306782
0.228776
0.234325
0.239664
0.128576
0.316635
0.125373
0.167717
0.125817
0.195777
0.127718
0.122464
0.207850
0.074105
0.033961
0.169261
0.111378
0.040755
0.075417
0.131415
0.137717
0.093543
0.100366
0.001631
0.064050
0.080630
0.072453
0.095406
0.071038
0.012274
0.022351
0.088954
0.038036
0.020675
0.057338
0.079784
0.114939
0.125283
0.053964
0.100706
0.129583
0.061620
0.066650
0.091745
0.092266
0.081535
0.086585
0.089718
0.028502
0.118142
0.023414
0.005331
0.100564
0.083824
0.102880
0.057510
0.066245
0.020105
0.011958
0.072016
