-0.040114
0.074533
-0.034578
0.062161
-0.032269
0.004555
0.037804
0.077071
0.057527
0.022014
0.022336
0.058120
0.021916
-0.058936
-0.005943
-0.012696
-0.051274
-0.012017
0.015189
0.009477
-0.001024
0.044529
-0.033539
0.065863
0.071192
0.040877
0.020724
0.009854
0.009598
0.038175
0.118068
0.072370
0.121097
0.068252
0.080756
0.043459
0.056177
0.069637
0.128688
0.082858
0.138014
0.153531
0.108722
0.189195
0.072471
0.137577
0.226951
0.207647
0.153951
0.148735
0.284739
0.140537
0.163768
0.279274
0.118507
0.167241
0.182022
0.224302
0.156650
0.193781
0.145658
0.164284
0.141429
0.144833
0.115816
0.069064
0.183172
0.067074
0.086458
0.019650
0.075862
0.071297
0.043600
0.082441
0.013566
0.143557
0.026298
0.108360
0.046323
0.017913
0.053485
0.113516
0.108585
0.100030
0.061823
0.127624
0.121917
0.006706
0.027785
-0.018689
0.077093
0.046876
0.033875
0.037169
-0.005549
0.066978
0.098678
0.257718
0.558618
0.894313
1.217357
1.399797
1.500000
1.301367
1.102908
0.819875
0.441827
0.113219
-0.049868
-0.202709
-0.225263
-0.231597
-0.114548
-0.082584
0.008649
0.006034
0.012131
0.128527
-0.002332
-0.055063
0.101879
-0.056649
0.093192
0.100408
0.063033
0.054375
0.054031
0.097303
0.118387
0.080031
0.136832
0.108361
0.069037
0.143683
0.197510
0.194397
0.171111
0.150828
0.098870
0.205823
0.132724
0.111559
0.270971
0.199972
0.275217
0.243923
0.294612
0.314004
0.295973
0.381373
0.439008
0.408350
0.393669
0.418339
0.423771
0.515822
0.573625
0.468059
0.554808
0.560624
0.600974
0.566736
0.569100
0.603523
0.560661
0.600458
0.625441
0.562025
0.582566
0.564397
0.564510
0.578621
0.481347
0.488831
0.438879
0.490988
0.473667
0.442211
0.366019
0.445236
0.408250
0.338749
0.380559
0.283922
0.247719
0.327535
0.188334
0.249212
0.215897
0.246059
0.202943
0.215434
0.196324
0.206893
0.194011
0.236207
0.111833
0.109658
0.099520
0.114325
0.132181
0.103489
0.071828
0.117109
0.034802
0.116674
0.098280
0.146797
0.079396
0.039635
0.121149
0.114791
0.066701
0.043568
0.099580
0.078024
0.083205
0.093272
0.160615
0.065577
0.056289
0.082208
0.058132
0.098495
0.071597
0.101188
0.119097
0.183069
0.115653
0.026840
0.067566
0.113215
0.053108
0.021365
0.137901
0.122862
0.059446
0.103125
0.016765
0.075218
0.110685
0.098075
0.087386
0.052856
0.061863
0.103523
0.057748
0.099400
0.018006
0.030478
0.110906
0.165700
0.019719
0.094995
0.029467
0.111032
0.052454
0.055478
0.095629
0.091357
0.039505
0.062272
0.071214
0.060325
0.023806
0.056459
0.109580
0.083252
0.044303
0.062825
0.049807
0.052063
0.021107
0.094535
-0.029585
0.057187
0.040831
0.072397
0.115538
0.084562
0.123911
0.068572
0.067013
0.155841
0.076406
0.072246
0.124112
0.071929
0.040162
0.151580
0.119101
0.207692
0.194502
0.181061
0.091808
0.124843
0.177838
0.133541
0.244672
0.337068
0.204203
0.212619
0.208867
0.200296
0.214381
0.153543
0.226247
0.255844
0.208590
0.158938
0.192996
0.202225
0.103999
0.160345
0.219769
0.164401
0.241245
0.141160
0.157170
0.103026
0.146233
0.148054
0.017732
0.095696
0.094004
0.048712
0.109848
0.076779
0.074012
0.086912
0.077925
0.119720
-0.021520
0.036988
0.082108
0.034835
0.099692
0.063208
0.092277
-0.002404
-0.044737
0.008526
-0.065335
0.130330
0.049010
0.052409
0.059401
-0.062645
0.061268
0.010710
-0.043235
0.244274
0.373739
0.741387
1.067575
1.400200
1.462856
1.319433
1.048270
0.754387
0.450920
0.111010
-0.125280
-0.151692
-0.311754
-0.297022
-0.158175
-0.041303
0.049721
-0.000853
0.041743
0.064296
0.001213
-0.042926
0.029643
0.047545
0.041959
0.154939
0.005718
0.061151
-0.009889
-0.034316
0.040047
0.094979
0.021862
0.029341
0.009518
0.008837
0.124520
0.166740
0.119859
0.117907
0.124027
0.123619
0.119744
0.174339
0.098148
0.162653
0.179814
0.339798
0.278845
0.200969
0.265316
0.300525
0.326519
0.341781
0.304349
0.359465
0.303810
0.435450
0.419424
0.434521
0.434145
0.438714
0.472965
0.459234
0.468364
0.501266
0.433814
0.528551
0.507316
0.485310
0.447524
0.396356
0.445061
0.481415
0.485434
0.445232
0.399985
0.368869
0.410405
0.435472
0.347296
0.293925
0.345763
0.275969
0.165106
0.257330
0.161183
0.136946
0.246220
0.116008
0.152110
0.126304
0.102839
0.147288
0.047267
0.017319
0.083501
0.061612
-0.010481
0.018356
-0.000772
0.015994
0.052837
-0.002525
-0.054703
0.010031
-0.018394
-0.003661
0.032589
0.044764
0.031443
-0.078865
0.006597
0.044462
-0.028793
-0.016699
0.022033
-0.084593
-0.038147
-0.058782
-0.050782
-0.008245
0.098417
-0.103091
-0.098230
-0.038466
-0.032406
-0.021226
-0.048105
-0.012379
-0.014453
-0.051300
-0.055850
0.027478
0.060088
-0.077593
-0.070200
0.014941
0.004958
0.049901
-0.007103
-0.029269
-0.001149
0.016809
-0.042882
-0.037253
-0.048613
-0.066084
-0.055255
0.034439
-0.021633
-0.068883
-0.100427
0.015925
-0.110711
-0.095013
-0.034750
-0.003082
-0.037681
-0.055960
-0.073679
-0.091109
-0.040202
-0.046395
0.021869
-0.046276
-0.013840
-0.055847
-0.082516
-0.038419
-0.081450
-0.077506
-0.148909
-0.009160
-0.096021
-0.091998
-0.026103
0.011439
-0.091780
-0.034713
-0.049126
-0.046391
-0.127434
-0.016533
0.009204
-0.018448
-0.157703
-0.032126
0.015724
-0.023037
-0.025273
-0.037229
0.059846
0.001939
-0.092875
0.028347
0.109568
0.036206
0.086910
0.022001
0.087037
0.121110
0.056682
0.139475
0.146020
0.161727
0.106580
0.099648
0.101819
0.107339
0.139378
0.140508
0.133354
0.176172
0.105439
0.080733
0.143096
0.073269
-0.007046
0.000122
0.036540
0.082332
0.019236
-0.046185
0.046316
0.000002
-0.012027
-0.054669
-0.039077
-0.070835
-0.004681
0.063904
0.078517
-0.043857
-0.038492
-0.014125
-0.049238
-0.039760
-0.089687
-0.046410
-0.047091
0.020966
-0.064639
-0.019810
-0.046342
-0.038084
0.029678
-0.055781
-0.076679
-0.100631
-0.169889
-0.076347
-0.057636
0.075697
0.270501
0.542373
0.913923
1.187135
1.280263
1.220343
1.121563
0.860495
0.490975
0.230817
-0.023374
-0.200322
-0.333678
-0.284317
-0.289384
-0.163136
-0.105486
-0.071514
-0.083558
0.038987
-0.013348
-0.001153
0.009935
-0.037091
-0.052779
-0.028101
-0.045252
-0.063189
0.017484
-0.000342
0.016615
0.040441
-0.022677
0.089871
-0.009842
0.067863
0.038906
0.001167
0.085002
0.100912
0.031211
-0.016888
0.032121
0.070757
0.083024
0.103332
0.190305
0.190147
0.198743
0.159497
0.217094
0.262692
0.271181
0.329313
0.303349
0.287369
0.372207
0.356495
0.396237
0.345993
0.401419
0.333595
0.357845
0.405546
0.487352
0.431936
0.533046
0.541014
0.436810
0.430725
0.500313
0.454301
0.446941
0.381396
0.495305
0.374403
0.328966
0.391148
0.374174
0.338217
0.330430
0.287988
0.275105
0.258086
0.263211
0.273593
0.263773
0.276360
0.205735
0.077430
0.204300
0.194815
0.084535
0.030370
0.091014
0.136651
0.058096
0.115298
0.032654
0.034743
0.066191
0.141803
0.068169
-0.049725
-0.050717
0.049982
0.057684
0.020110
0.107729
0.032436
-0.023157
-0.017883
0.041411
0.020559
0.019633
-0.009668
-0.012929
0.016724
-0.027397
-0.034074
0.091647
-0.003113
0.053420
0.034423
0.028840
0.039710
-0.020982
0.000543
-0.009335
-0.014651
0.043050
0.085301
-0.009091
0.000665
0.006514
-0.010741
0.013054
0.021179
0.069670
-0.071179
-0.038401
0.051756
0.021631
-0.042133
0.013439
-0.020211
0.035681
0.006094
0.006969
0.027996
0.073386
0.096022
0.054739
-0.038462
-0.020309
0.083841
0.077889
0.055307
0.028289
-0.023010
0.092596
0.026388
0.041368
0.030617
0.063865
0.037846
0.051092
0.051575
0.031222
0.021133
0.065369
0.076323
0.040758
0.002471
0.114173
0.000002
0.008676
0.035267
0.093925
0.090537
0.042058
0.029808
-0.010690
0.098936
0.099872
0.027999
0.108014
0.083123
0.113498
0.052195
0.115342
0.138263
0.073785
0.151580
0.137674
0.127701
0.127732
0.115051
0.173675
0.155761
0.190746
0.208624
0.172118
0.290463
0.222613
0.192961
0.238565
0.252805
0.257565
0.201366
0.218799
0.155578
0.229686
0.210962
0.232679
0.222882
0.241384
0.243016
0.210954
0.230575
0.102700
0.127359
0.087372
0.138789
0.045449
0.135411
0.159803
0.075077
0.065863
0.083697
0.051026
0.113388
0.001236
0.018147
0.071574
0.124696
0.058791
0.050174
0.093996
0.137723
0.078783
0.077839
0.103518
0.014240
0.064159
0.049302
0.040852
0.135198
0.044399
-0.009625
-0.011670
0.041833
0.115298
0.142333
0.359668
0.651391
0.969466
1.300627
1.395018
1.473487
1.308250
1.000360
0.694326
0.320435
0.048448
-0.071341
-0.266540
-0.161130
-0.150156
-0.148069
-0.009257
-0.006611
0.048661
0.089185
0.140191
0.097707
0.187973
0.059153
0.080160
0.109547
0.078023
-0.006595
0.057179
0.143174
0.126708
0.064616
0.151229
0.057493
0.143632
0.039600
0.107728
0.131184
0.225741
0.191783
0.174845
0.242795
0.202445
0.157046
0.201228
0.298387
0.194951
0.239239
0.291797
0.349416
0.348948
0.340457
0.383915
0.359610
0.365089
0.424204
0.457530
0.478641
0.520567
0.496862
0.432334
0.535514
0.533995
0.589212
0.573843
0.581490
0.630655
0.663138
0.515389
0.601833
0.552121
0.561327
0.601109
0.577756
0.516127
0.565771
0.487664
0.482675
0.522657
0.456423
0.493372
0.407909
0.416511
0.387097
0.390090
0.271412
0.348183
0.298483
0.210825
0.232923
0.280617
0.212281
0.222664
0.252151
0.170023
0.132294
0.114960
0.193972
0.129713
0.124312
0.081611
0.232908
0.120310
0.090094
0.099476
0.072680
0.068588
0.100379
0.084978
0.112779
0.106001
0.172332
0.086188
0.230388
0.035837
0.129743
0.118758
0.097872
-0.005069
0.155578
0.131269
0.115273
0.145859
0.120255
0.091421
0.069715
0.116255
0.109390
0.071934
0.094642
0.147091
0.064912
0.102449
0.042140
0.106450
0.015984
0.151059
0.141503
0.130372
0.080663
0.115496
0.066696
0.020931
0.090801
0.068070
0.065960
0.012938
0.107072
0.113242
0.062559
0.075476
0.036908
0.080919
0.029185
0.059208
0.089501
0.066586
0.066528
0.130902
0.085575
0.076196
0.070954
0.034313
0.053642
0.082896
0.055493
0.065759
0.135862
0.060659
0.132008
0.137418
0.036753
0.013250
0.062817
-0.010306
0.099078
0.131534
0.069840
0.046251
0.030875
0.035942
0.092761
0.082472
0.118226
0.051316
0.098951
0.099123
0.101767
0.104932
0.053673
0.121066
0.047576
0.076561
0.049289
0.143859
0.167722
0.085584
0.156051
0.156602
0.171985
0.203766
0.210347
0.190580
0.190987
0.306067
0.164303
0.216565
0.192966
0.224005
0.282888
0.188760
0.229761
0.129435
0.245648
0.237299
0.207223
0.174659
0.149027
0.107738
0.120121
0.066539
0.075098
0.128841
0.132166
0.094582
0.031147
0.069608
0.056150
0.018603
0.023649
-0.042591
0.055856
0.089455
0.149631
0.063817
-0.036265
0.043019
0.019207
0.034878
0.025802
0.013862
0.021545
0.110499
0.023175
0.062835
0.079213
0.068989
-0.023453
0.072183
-0.023375
-0.089458
-0.028511
-0.027677
0.039955
0.238740
0.479490
0.774325
1.151611
1.295058
1.292800
1.249072
1.023900
0.711902
0.424010
0.100075
-0.166126
-0.267691
-0.299829
-0.187679
-0.126979
-0.086493
-0.093810
-0.006169
0.012988
0.063003
-0.012310
-0.002246
0.038234
-0.035680
0.131105
0.002557
-0.002803
0.018676
0.011558
-0.015406
0.002173
-0.003841
0.048474
-0.018844
0.102462
0.073226
0.110345
0.026228
0.010547
0.080421
0.082751
0.086785
0.061250
0.107812
0.142872
0.156126
0.153887
0.253161
0.251127
0.216337
0.296168
0.314596
0.372343
0.372569
0.313353
0.344837
0.346374
0.369083
0.334473
0.526463
0.419932
0.457483
0.483304
0.438481
0.478030
0.437087
0.439237
0.490834
0.450768
0.533238
0.439988
0.336622
0.439319
0.439408
0.466527
0.421340
0.416120
0.423146
0.316839
0.301861
0.242384
0.197088
0.226316
0.148539
0.195598
0.239216
0.203510
0.220788
0.151663
0.213961
0.259946
0.048854
0.166132
0.092707
-0.006744
0.006725
-0.001472
-0.081025
0.014309
-0.023806
-0.008028
-0.050506
-0.066896
-0.036077
-0.064245
-0.012602
0.078854
-0.053653
-0.065014
-0.012147
-0.034588
-0.015657
-0.044825
-0.051664
0.018904
-0.036873
-0.007507
-0.107283
-0.014747
-0.060545
-0.016856
0.008341
-0.014988
0.067806
-0.076733
-0.045771
-0.105094
-0.082213
-0.038239
-0.079837
-0.007455
-0.045767
-0.037734
0.003416
-0.064758
-0.010802
-0.101817
-0.137287
-0.135933
-0.032663
-0.047295
-0.137871
-0.148412
-0.117365
-0.106197
-0.113065
-0.120554
-0.092259
-0.085190
-0.042815
-0.047575
-0.027917
-0.020335
-0.152860
-0.041004
-0.036308
-0.162937
-0.061833
-0.025330
-0.023205
-0.055749
-0.104346
-0.057613
-0.053753
-0.112417
-0.090516
-0.080349
-0.084943
-0.009213
-0.074044
-0.059536
-0.016428
-0.122349
-0.098590
-0.054545
-0.048737
-0.097419
-0.128226
-0.034741
-0.063147
-0.061709
-0.017981
-0.077488
-0.098227
-0.070736
-0.058636
-0.106271
-0.013947
-0.078381
-0.002540
0.007002
-0.003685
-0.013605
-0.030989
0.066791
0.038867
0.081270
-0.050697
0.006204
0.099932
0.088338
0.097397
0.049596
0.048102
0.054591
0.080673
0.015563
0.118411
0.143205
0.135518
0.069118
0.087920
0.051306
0.045845
0.077270
0.055852
0.020516
-0.032597
-0.075887
-0.117118
-0.074033
0.037147
-0.038273
-0.020783
-0.101778
-0.055128
-0.047085
-0.032004
-0.076668
-0.169155
-0.050795
-0.162616
-0.008275
-0.022638
-0.098194
-0.087977
-0.089027
-0.136701
-0.045305
-0.068732
-0.103462
-0.120930
-0.023421
-0.112335
-0.088925
-0.110796
-0.064278
-0.021095
-0.100103
-0.096453
-0.121646
-0.210215
-0.077820
0.082011
0.354633
0.504790
0.972478
1.255914
1.329871
1.165232
0.984779
0.685669
0.396959
0.018265
-0.216413
-0.272546
-0.365963
-0.256075
-0.306680
-0.222022
-0.190750
-0.120280
0.001316
-0.048112
-0.064076
-0.080492
-0.104478
-0.043806
-0.059568
-0.146908
-0.035474
-0.098832
-0.060748
-0.050654
-0.059193
-0.027714
-0.063633
-0.048498
-0.031996
-0.000252
-0.046070
-0.050274
0.043960
0.032015
0.077065
-0.028815
0.021618
0.192032
0.123845
0.066518
0.026777
0.197197
0.180810
0.239500
0.176544
0.198808
0.287538
0.195253
0.207634
0.315159
0.270557
0.381422
0.393032
0.311299
0.366458
0.419826
0.410479
0.442674
0.366197
0.404946
0.478358
0.465395
0.393093
0.440879
0.373817
0.449351
0.371751
0.377471
0.354123
0.375200
0.350646
0.323389
0.340765
0.364783
0.259766
0.251991
0.269268
0.251753
0.273082
0.251671
0.167145
0.091359
0.111973
0.117046
0.128324
0.125028
0.083710
0.093342
0.071417
0.045177
-0.035223
-0.057788
0.076436
0.050573
0.050431
-0.060410
0.029125
0.015758
0.008782
-0.036483
-0.074940
-0.104364
-0.106215
-0.051921
-0.063851
-0.087013
-0.055903
-0.040239
-0.004524
0.001744
-0.036866
-0.057750
-0.102638
-0.009856
-0.098474
-0.027597
0.026454
-0.014889
-0.046997
-0.065731
-0.059911
-0.023917
-0.094281
0.055378
-0.031279
-0.014243
-0.059038
-0.003632
-0.032829
-0.115662
-0.013028
-0.093173
-0.046659
-0.099527
-0.029401
-0.078774
-0.062773
0.051008
-0.013167
0.027532
-0.057675
-0.084983
0.023739
-0.021837
-0.099091
0.036346
-0.012850
0.005171
-0.085071
-0.032938
0.041824
-0.015097
0.007938
-0.047967
-0.008625
-0.087719
0.016124
0.021379
-0.009276
-0.072194
-0.009831
-0.051114
-0.016466
0.011307
-0.030926
0.027645
0.055564
-0.008560
0.065053
-0.099183
-0.022191
-0.009972
-0.069158
0.019319
-0.048334
-0.044656
-0.087546
-0.054776
-0.015859
0.087880
0.016165
0.022729
0.048924
0.011929
0.056751
0.072965
0.039886
0.048388
0.050793
0.151001
0.169846
0.114683
0.077181
0.193686
0.135336
0.203987
0.262304
0.148061
0.152731
0.177539
0.176936
0.203253
0.154398
0.164840
0.176822
0.183757
0.170158
0.154164
0.133726
0.135771
0.214362
0.110445
0.128434
0.220198
0.084438
0.115495
0.031543
0.087281
0.025170
0.035769
0.062753
0.099364
-0.042654
0.023337
0.065007
0.074933
-0.097609
0.034883
0.046339
0.034915
-0.011874
0.022161
-0.032432
0.001577
0.047861
-0.030921
-0.013608
0.047732
-0.000021
0.045384
0.073833
0.042742
0.049131
0.029167
-0.029988
-0.136169
0.039247
0.119685
0.382573
0.640255
0.985833
1.331754
1.410491
1.390653
1.130208
0.948836
0.527013
0.183724
-0.147990
-0.202717
-0.276555
-0.235481
-0.231646
-0.091447
-0.063778
0.007348
-0.005347
0.036953
0.018184
-0.007421
-0.003278
0.089861
0.013290
0.039889
0.075666
0.107059
0.062114
-0.020531
0.012771
0.063243
0.084963
0.004578
0.068518
0.134853
0.119958
0.094957
0.132798
0.122422
0.111300
0.101778
0.185789
0.140192
0.178310
0.174687
0.230629
0.286525
0.340464
0.201933
0.317501
0.314192
0.355779
0.309582
0.402181
0.400766
0.346584
0.456655
0.489745
0.476405
0.497133
0.507763
0.449130
0.515925
0.565775
0.536081
0.544222
0.561727
0.538294
0.614111
0.532849
0.479964
0.442686
0.508244
0.518216
0.545624
0.460273
0.436455
0.552694
0.464447
0.384303
0.348730
0.333349
0.379051
0.214835
0.311995
0.199087
0.161187
0.267147
0.207743
0.248232
0.196770
0.227500
0.171175
0.123900
0.175737
0.125643
0.075409
0.069889
0.056157
0.102427
0.099970
0.017968
-0.011617
0.063350
-0.000698
0.027796
0.102012
0.052082
0.060033
-0.073068
0.001540
0.091315
0.066268
0.108920
0.100097
0.044913
0.091543
0.022157
0.127401
0.110028
0.072107
0.019663
-0.015925
-0.002648
0.061129
0.056165
0.087805
0.056539
0.055298
0.032873
0.030685
-0.050180
0.082504
0.116630
0.047171
0.032615
0.104011
0.023678
0.043430
0.086198
0.049983
0.031864
0.054914
0.075045
0.041279
0.069717
0.065233
0.045731
-0.003532
0.050691
0.075550
0.033410
0.058064
0.057548
0.107389
0.037848
0.101319
0.077610
-0.012468
0.036256
0.026750
0.090813
0.020186
-0.043780
0.000691
0.010997
0.075055
-0.013726
0.025647
0.061151
-0.007959
0.060151
0.034459
0.031086
0.064905
0.013826
0.024792
-0.052918
-0.007642
0.044825
0.045002
0.071097
-0.026222
-0.017967
0.029309
0.102580
-0.060361
0.060139
0.012096
0.017907
0.021461
0.135764
0.059031
0.138546
0.120616
0.132471
0.044428
0.118904
0.130948
0.163863
0.188675
0.113028
0.159068
0.160611
0.168318
0.241490
0.128581
0.152514
0.232071
0.198522
0.217343
0.146160
0.126664
0.195669
0.081097
0.211414
0.150694
0.124471
0.069982
0.043439
0.018489
0.048014
0.026053
0.016504
0.010137
-0.008230
-0.005469
0.049018
0.153185
-0.024677
0.030055
0.027459
-0.003956
0.030299
-0.024886
-0.047289
0.036766
0.020071
0.000450
-0.042808
-0.055067
-0.038488
-0.020406
-0.115191
-0.012549
0.025190
0.009581
-0.124062
-0.063289
-0.100394
-0.083191
-0.015871
0.112952
0.277812
0.610412
0.945392
1.173704
1.408680
1.318277
1.212596
0.875414
0.509144
0.262716
-0.058990
-0.188790
-0.316270
-0.310702
-0.298431
-0.148451
-0.133176
-0.104880
-0.064873
-0.028693
-0.074130
-0.063602
-0.045522
-0.019527
-0.008709
0.048908
-0.076407
-0.071020
-0.014681
0.022443
0.008717
-0.025929
0.023320
-0.121936
-0.091599
0.069505
0.007491
0.033667
-0.046932
0.061993
0.040726
0.038976
0.047992
0.101421
0.073849
0.122844
0.166377
0.189712
0.153676
0.129043
0.225691
0.235347
0.266674
0.246631
0.213063
0.214534
0.291163
0.352472
0.326101
0.384093
0.339921
0.271713
0.425035
0.413078
0.407329
0.425778
0.470156
0.467778
0.407832
0.383278
0.393971
0.443828
0.371321
0.432316
0.322949
0.319972
0.356534
0.335361
0.303229
0.299590
0.338256
0.266033
0.186409
0.291613
0.200034
0.186210
0.179106
0.165108
0.071677
0.119951
0.064773
0.084979
0.078975
-0.022707
0.095126
0.043618
0.021087
-0.020732
-0.002912
0.052752
0.069432
-0.026403
0.007921
-0.027125
-0.006889
-0.059709
-0.108482
-0.016113
-0.079272
-0.043960
-0.141935
-0.126106
-0.080705
-0.028046
-0.049104
-0.089103
-0.037940
-0.105796
-0.067818
-0.055394
-0.059023
-0.070901
-0.041973
-0.152993
-0.085255
-0.057657
-0.053202
-0.106612
-0.108578
-0.154208
-0.093409
-0.113618
-0.080000
-0.053559
-0.058871
-0.078629
-0.113228
-0.113916
-0.109076
-0.164164
-0.078409
-0.073081
-0.056264
-0.032871
-0.141283
-0.065685
-0.057753
-0.209121
-0.077740
-0.103482
-0.093390
-0.156879
-0.062930
-0.104181
-0.046652
-0.121401
-0.002058
-0.029879
-0.027761
-0.038986
-0.114200
-0.089707
-0.098502
-0.077247
-0.079559
-0.154756
-0.070185
-0.121040
-0.110334
-0.138714
-0.086261
-0.060088
-0.115052
-0.173132
-0.028858
-0.024535
-0.148912
-0.110268
-0.112209
-0.084055
-0.057881
-0.101746
-0.105217
-0.082343
-0.080756
-0.054680
-0.025586
0.015183
-0.127683
-0.058903
-0.040509
-0.084896
-0.044556
-0.086689
-0.052678
0.032861
-0.006795
-0.032977
0.048969
0.035879
0.019307
-0.015471
0.082627
0.054635
0.103651
0.080784
0.102725
0.037591
0.089945
0.119662
0.052815
0.144627
0.102001
-0.012654
0.037836
0.016644
0.033304
-0.007375
-0.018102
-0.001710
-0.085387
-0.100488
0.007856
-0.049679
0.019032
-0.045397
-0.048089
-0.097809
-0.076387
-0.105084
-0.002322
-0.097203
-0.092921
-0.116044
-0.088132
-0.058154
-0.104987
-0.149042
-0.095695
-0.176291
-0.002115
-0.135110
-0.030762
0.034368
-0.057429
-0.072949
-0.042565
-0.110756
-0.104352
-0.185126
-0.127269
-0.178942
-0.184211
-0.139006
0.159901
0.388552
0.773502
1.014652
1.314959
1.327368
1.123046
0.881185
0.608770
0.231869
0.024097
-0.220116
-0.395481
-0.307524
-0.305320
-0.255547
-0.160272
-0.162655
-0.132555
-0.070794
-0.072677
-0.091258
-0.059575
-0.146768
-0.039264
-0.061152
-0.071839
-0.046104
-0.042521
-0.090783
-0.077341
-0.110986
-0.103992
-0.069009
-0.079948
-0.082062
-0.014930
0.080953
-0.008746
-0.014665
-0.008369
-0.019914
0.107991
0.034540
-0.011191
-0.016569
0.062710
0.074239
0.056655
0.077293
0.235910
0.212421
0.237635
0.222994
0.297552
0.277595
0.325947
0.249471
0.230142
0.327197
0.386217
0.384646
0.317710
0.296741
0.482447
0.398179
0.489849
0.452201
0.482049
0.409170
0.435885
0.474449
0.433838
0.340231
0.411802
0.408330
0.363112
0.430162
0.303342
0.347229
0.283860
0.366728
0.315953
0.243415
0.230581
0.210828
0.140813
0.182071
0.167834
0.052721
0.072557
0.107195
0.076399
0.058818
0.107737
0.114387
0.076975
0.088315
-0.008842
0.018453
0.034491
-0.012694
-0.025361
-0.001382
-0.008168
-0.086763
-0.026219
0.020720
-0.048157
-0.064849
-0.006239
-0.025042
-0.066921
-0.013675
0.001296
-0.014367
-0.074561
-0.092268
-0.062923
-0.036760
0.029474
-0.026118
-0.068185
-0.057003
0.012513
-0.060424
-0.012394
-0.020145
-0.045208
-0.016133
-0.036046
-0.063884
0.027336
0.032626
-0.043292
-0.005102
-0.033650
0.007848
-0.014768
0.005433
0.007890
-0.008114
-0.054286
-0.083490
-0.071566
-0.034807
0.028911
0.012515
0.002169
0.045572
-0.062821
-0.049438
0.006284
-0.006318
0.001520
0.045748
-0.025262
0.024234
0.024478
-0.057368
-0.000244
0.012298
-0.008816
0.004394
-0.036849
-0.007741
0.037440
0.004328
-0.026516
0.018051
-0.006720
-0.008329
0.000394
0.022985
-0.023562
0.067285
-0.034781
0.102112
-0.014184
-0.013707
0.012383
0.027546
-0.027886
0.063299
0.040006
0.001499
0.034797
0.104909
-0.082146
0.032793
0.068841
0.072342
0.036766
0.097092
0.134928
0.065011
0.081997
0.120727
0.077762
0.100524
0.160732
0.123206
0.127784
0.239977
0.127294
0.150065
0.074481
0.140332
0.160371
0.198808
0.167354
0.184839
0.192332
0.264735
0.102324
0.173990
0.140065
0.092033
0.109040
0.113607
0.053194
0.115770
0.082323
0.134676
0.023474
0.030212
0.071665
0.057086
0.075355
0.068233
0.029490
0.033467
0.039957
0.133071
0.053794
0.023175
0.052047
0.040648
0.100121
0.020596
0.008079
0.092472
-0.004364
0.051473
0.021019
0.124312
0.045058
0.131473
0.042150
0.007753
0.016324
0.047166
-0.005763
0.059197
0.237375
0.414940
0.798938
1.091881
1.343104
1.459128
1.243332
1.078907
0.803849
0.414255
0.141008
-0.096963
-0.208030
-0.271350
-0.219298
-0.143334
-0.008641
0.013374
0.043491
-0.007843
0.049266
0.043503
0.024592
0.027115
0.012307
0.045245
0.081002
0.055043
0.108197
0.133545
0.185251
0.088653
0.093022
0.105060
0.069504
0.062865
0.157595
0.093670
0.164292
0.048162
0.184431
0.182202
0.088641
0.193249
0.166243
0.241445
0.197849
0.270952
0.323289
0.242579
0.232900
0.349783
0.287191
0.397113
0.414433
0.364709
0.466587
0.415906
0.425675
0.535327
0.477368
0.505173
0.607882
0.536401
0.461472
0.619925
0.636305
0.512743
0.602728
0.553547
0.565265
0.488297
0.480526
0.567696
0.564884
0.543305
0.462116
0.498208
0.418716
0.408212
0.472790
0.420625
0.376776
0.381465
0.446075
0.233475
0.337570
0.345054
0.344163
0.271708
0.258773
0.265264
0.192611
0.132539
0.156706
0.247202
0.208036
0.178472
0.136117
0.180697
0.179761
0.170833
0.110911
0.107975
0.120040
0.064072
0.037337
0.098866
0.107443
0.155733
0.117016
0.004964
0.165669
0.021241
0.075251
