-0.178174
0.193666
0.048349
0.356715
0.343848
-0.014864
0.111795
-0.076252
0.352419
-0.113628
0.292342
0.137235
0.068648
0.319980
-0.057758
-0.310278
-0.690531
0.276351
0.073858
0.653077
-0.272772
0.258470
0.136325
0.023315
0.198790
0.026818
0.036581
0.172902
-0.358517
-0.591175
-0.041957
0.206748
0.301280
-0.244379
0.516539
0.826015
-0.557205
0.444199
0.121326
-0.272399
0.605451
0.444858
-0.161074
0.384246
0.183971
0.137282
-0.342088
-0.030854
-0.004009
-0.184836
0.084457
0.404976
-0.479213
0.409666
0.194434
0.302612
0.438048
0.101227
0.084571
0.056048
-0.725824
0.273519
-0.281317
-0.435504
0.375633
0.060460
0.030654
0.509708
0.631872
0.734448
0.299466
0.921204
0.849943
0.199949
0.257082
0.719038
0.910515
0.231085
0.554757
-0.290481
-0.251529
0.483488
0.045359
-0.417350
0.393671
0.046019
0.653713
-0.140842
0.433624
0.132834
-0.120126
0.166345
0.194239
-0.204451
-0.089368
0.000355
0.095271
-0.069765
0.037371
0.477773
0.182228
0.092117
0.717664
0.046772
-0.170679
0.099369
0.087265
0.720857
0.460248
-0.534212
0.079275
0.272221
0.627066
0.380031
0.008110
0.028375
-0.025636
-0.271674
-0.145503
0.572516
0.430181
0.080954
0.282633
0.111036
-0.003419
-0.144034
0.794344
0.169235
0.094505
-0.019059
0.370942
-0.164479
0.049938
0.119559
-0.082300
0.343888
-0.419442
0.037162
0.069403
-0.185180
-0.492692
0.590305
0.483306
0.063968
0.108945
0.269324
-0.121447
-0.298328
0.152220
-0.219947
0.600903
-0.207105
-0.100607
0.617107
0.490164
-0.008761
-0.256676
-0.731452
-0.062026
0.086578
0.690444
0.125731
0.097488
-0.013839
-0.720072
0.274221
0.069460
0.136631
-0.019125
0.349859
0.353634
0.317682
-0.290521
0.171970
0.331364
-0.110568
-0.159573
0.059777
-0.469348
-0.385147
0.592163
0.096489
0.359275
-0.062438
-0.114557
0.305337
-0.539826
-0.164192
0.382741
0.190176
-0.084651
0.294852
-0.087748
-0.537208
-0.625380
-0.077188
-0.212485
0.529636
-0.231937
0.184533
0.283193
-0.322895
0.004897
-0.119525
0.138217
0.244961
-0.117281
-0.251969
-0.439941
0.661609
-0.045823
0.251873
0.678952
0.165089
1.404769
-0.309090
0.502563
-0.140584
0.076181
-0.250410
-0.131774
0.150713
0.364007
0.152191
-0.246424
0.137564
0.241086
0.255790
0.406203
-0.104378
0.098417
0.224753
0.160428
0.272095
0.716807
0.149174
-0.077727
0.813065
0.275000
0.353644
0.294095
0.080738
-0.064432
0.060671
0.279587
0.162578
0.435649
0.329367
-0.241955
-0.033110
0.640359
0.486645
0.707638
0.450179
0.714709
0.382170
0.460474
0.144212
-0.086796
0.321882
0.381567
-0.159158
-0.210406
-0.592934
0.855206
0.483611
0.137697
0.068030
0.395826
-0.025223
0.193507
-0.166105
-0.236140
0.232142
0.323711
-0.594084
-0.144098
0.070556
-0.055708
0.152367
0.606395
-0.124548
0.615498
0.668476
-0.184516
0.431900
0.281041
0.297829
-0.021338
0.211201
-0.058864
0.239837
0.393644
0.521090
0.288341
0.508713
0.018530
0.401190
0.064912
0.571248
0.627095
0.124115
0.275516
-0.623117
0.230765
-0.256640
0.303256
0.439145
0.090532
0.195774
0.687968
-0.361742
0.228157
0.024986
0.231941
-0.135508
-0.094540
-0.083148
0.177994
0.627054
0.203637
-0.237221
-0.130470
-0.547774
0.301915
0.206970
0.011980
0.580047
0.144923
-0.173108
-0.055232
0.338599
-0.260825
-0.636870
-0.351483
0.135433
0.398207
0.046797
0.211082
0.359605
0.096500
0.375025
-0.331190
-0.160257
0.119697
0.453464
0.680521
0.683298
-0.493349
0.382404
-0.549464
-0.312516
-0.390823
-0.089526
0.019731
0.225514
-0.666540
0.010587
0.036582
-0.289637
-0.097383
-0.005938
-0.095922
0.157073
-0.214140
-0.111017
-0.736611
-0.164444
0.134995
0.640152
0.500620
0.231590
0.061479
0.094905
0.080050
-0.111248
0.384614
0.284302
-0.089447
0.009470
-0.548773
0.202391
0.068981
-0.428526
-0.159992
0.222781
0.235920
0.030303
0.269406
0.305852
-0.051094
0.040648
0.063826
-0.334232
0.306354
-0.087615
0.061311
0.383232
-0.109876
0.047567
-0.559511
0.506142
-0.116736
0.366127
-0.050160
0.511532
-0.294738
0.753206
0.371926
-0.428693
-0.333242
-0.767555
-0.194037
0.000631
-0.068245
0.293392
0.247819
-0.351878
-0.149084
0.160014
0.260256
0.155852
-0.236795
0.109942
-0.421607
-0.029976
-0.095019
-0.184419
0.600716
0.178976
0.714588
0.416149
-0.139599
0.473443
0.815937
0.761029
-0.151476
0.578775
0.230327
-0.116782
-0.443016
-0.050126
-0.029180
-0.096138
0.282986
0.547670
-0.434853
0.452992
-0.491606
0.313475
0.085765
-0.175508
0.295325
-0.072192
0.006377
0.505536
0.142595
0.405553
0.130891
-0.399408
0.053347
-0.126945
-0.407335
0.148389
0.445128
0.536661
0.220527
0.262739
-0.227649
0.316062
0.656566
0.741488
0.594268
-0.190228
0.496625
-0.218547
-0.212305
-0.221350
0.415070
0.021106
-0.685753
-0.167108
-0.450190
0.016578
0.116499
-0.162313
0.252445
0.193128
-0.130891
-0.184172
0.462652
-0.124507
-0.211587
-0.168446
-0.148102
0.384499
0.130237
0.086785
-0.075867
0.234321
-0.144060
-0.225691
0.590041
-0.005269
0.811486
-0.237236
0.437287
0.238391
-0.304791
-0.198205
-0.193137
0.666323
0.217197
-0.241309
0.174411
0.154518
0.528256
0.409005
-0.053008
-0.113765
0.123444
0.175062
0.190060
0.041478
-0.235216
0.391379
0.142572
0.296760
-0.084292
-0.052784
-0.241235
-0.294123
0.370145
0.383539
-0.137215
-0.304500
-0.382463
0.089278
0.251587
-0.420191
0.310597
0.264187
-0.016980
0.306678
0.049986
-0.167009
-0.097213
0.200538
-0.606789
-0.131485
0.190649
0.381851
-0.011579
0.228708
0.185350
-0.653615
-0.178285
0.240935
0.373235
0.002631
0.049343
-0.219497
-0.267581
-0.387078
-0.053596
-0.210712
0.042746
-0.250921
0.525404
-0.159114
0.115751
0.497632
0.095623
0.134015
1.047717
-0.038631
-0.313202
-0.405476
0.220102
-0.195569
-0.211941
0.083275
0.231189
0.028195
-0.180465
0.214975
-0.285179
0.202961
-0.049580
0.704852
0.282846
-0.116171
0.056368
0.011248
-0.300871
0.307257
0.076672
0.448008
0.251245
0.101046
-0.528097
0.493020
0.292104
0.371307
-0.501864
-0.507403
-0.167392
0.183150
-0.448234
-0.190479
-0.151756
0.329535
0.581273
0.528379
0.689959
0.301715
0.715326
0.415333
-0.121330
0.603336
0.990902
-0.201377
0.344145
0.398853
-0.042208
0.016021
-0.407451
0.332677
-0.017864
-0.011932
0.448533
0.063294
-0.199261
0.672527
0.485259
-0.123727
0.310816
-0.006398
0.220737
0.003272
-0.148769
0.368369
0.359416
0.742001
0.103538
-0.416484
0.519123
-0.419311
0.679357
0.431677
0.169046
-0.218941
0.030170
0.151858
0.100803
0.243629
0.376064
-0.257962
0.225425
-0.283066
0.157339
0.006384
0.178122
0.424043
0.104841
0.458040
0.646786
0.252866
-0.077041
0.806205
0.085088
0.464440
0.277283
0.059008
0.226846
-0.231559
-0.257176
0.372852
-0.008054
0.192910
-0.137147
0.216283
0.416083
-0.290585
0.091461
0.142972
0.261042
0.283132
0.108837
0.430388
-0.049397
0.442368
-0.478823
-0.259708
0.379276
-0.362185
0.491065
0.189667
-0.376691
0.327801
-0.281767
-0.179186
-0.046659
-0.392592
-0.227760
0.036104
-0.196482
0.252717
0.200369
0.222381
-0.341294
-0.126682
-0.064017
-0.171291
-0.369149
0.124788
-0.133413
-0.505445
-0.296111
0.170410
-0.317057
-0.655727
-0.554303
-0.224988
-0.198091
-0.200646
-0.505201
0.015744
0.341026
-0.359924
0.151439
0.017678
0.042503
0.292598
0.049158
-0.143446
0.482208
0.320842
-0.232059
0.001588
-0.248776
-0.151405
0.182735
0.565033
-0.281827
0.436644
0.044908
-0.459105
-0.369481
0.244391
-0.046182
0.267721
0.472802
-0.257879
-0.385386
0.381293
0.140506
0.045754
-0.259220
0.532829
-0.434294
0.075197
-0.038912
0.056592
-0.146753
-0.543556
-0.583226
-0.084121
-0.266534
0.043393
-0.169643
-0.317682
0.034530
-0.028998
0.373361
-0.378117
0.204164
0.665459
-0.114998
-0.146755
0.210359
-0.000298
-0.238720
0.488207
0.123890
0.251952
-0.658703
-0.398772
-0.823863
0.226315
-0.308139
0.719720
-0.309259
0.205704
0.557395
0.498868
0.606828
0.717216
0.491872
0.301843
0.442102
-0.310740
0.093891
-0.884069
0.013252
-0.051112
0.620167
0.474121
-0.152316
-0.147871
-0.114390
-0.251092
0.508503
0.004472
0.160268
-0.466396
0.496321
0.036347
-0.106587
0.161338
-0.223778
0.565705
-0.285365
0.734115
0.128082
0.071916
0.342844
-0.619410
0.220613
0.253397
-0.219077
0.341265
0.300772
-0.317312
0.784229
0.034944
0.247280
0.248038
0.062445
0.491425
0.897961
-0.081971
0.148495
0.487534
0.433894
0.130923
-0.391430
0.069194
0.244195
0.314520
0.055037
0.319670
0.203539
0.110350
0.262145
-0.049046
0.214006
0.019622
-0.343173
0.109242
0.412933
0.106290
0.098016
-0.046745
0.332343
-0.130432
-0.213006
0.586582
0.418448
0.165813
0.147321
-0.447937
0.076936
-0.289009
0.766530
0.464867
-0.263196
-0.005419
-0.387340
-0.002930
-0.134572
-0.205913
-0.071608
0.102935
0.098484
0.306396
-0.033533
-0.287082
-0.071592
0.092181
-0.452601
0.189717
0.617332
-0.030839
-0.275267
0.035294
0.093032
-0.087331
-0.169913
-0.136377
-0.143002
-0.027727
0.011844
0.328118
-0.331499
0.423406
0.107595
-0.111375
-0.553472
-0.320650
0.538341
-0.309156
0.120335
1.180797
-0.318736
-0.024782
0.143902
0.672274
-0.562941
-0.690598
0.556528
-0.419656
-0.413124
-0.174463
0.098464
-0.291492
0.942497
-0.101614
0.061358
0.196318
-0.675387
-0.219331
0.033653
-0.326010
-0.348536
-0.007679
0.325545
0.521612
0.370615
0.782033
-0.133220
1.000410
-0.275894
0.550969
0.173748
0.129182
0.553203
0.240989
0.180616
0.408275
0.331867
0.363052
-0.120812
0.168867
0.711286
-0.432213
0.276661
0.253053
0.050194
0.007868
-0.036862
-0.027243
0.026575
0.389573
0.089562
0.636165
-0.239043
-0.197364
-0.302158
-0.424604
0.057767
0.205055
0.042422
0.963833
0.348562
0.353034
0.966042
1.169818
0.806455
0.091260
-0.318561
0.045531
0.108063
-0.144288
0.408469
0.580599
0.110762
0.310053
-0.356071
0.711033
0.350788
0.057179
0.441262
-0.655631
-0.160924
0.254385
0.757512
0.138003
-0.296872
-0.567133
0.201213
-0.039291
-0.082427
-0.162471
0.100281
0.256634
0.505414
0.348694
0.268257
0.246914
0.170219
0.129040
0.323137
0.077981
-0.067382
-0.152980
-0.051050
0.067870
0.351679
-0.013468
0.007202
-0.287253
0.029017
0.711593
-0.195241
-0.045008
0.289325
0.636251
0.298776
0.512815
0.662695
0.140147
0.003236
-0.207719
0.065923
-0.447073
0.483372
0.105284
0.784658
0.573731
-0.628558
0.398825
0.305041
0.067117
-0.390494
0.288461
0.139351
-0.188691
0.360010
-0.098087
0.085290
0.931654
0.389857
0.099772
0.586871
0.048831
-0.962317
0.296354
-0.098562
-0.169092
0.252478
0.077627
0.733594
0.083197
0.029980
-0.306895
-0.140281
0.161766
-0.098723
-0.144018
0.322677
-0.146248
0.164619
-0.093515
-0.049321
-0.185177
0.270427
0.512868
0.169266
0.698278
0.366010
0.677678
-0.245983
0.050532
-0.125569
-0.450279
0.125603
0.021215
-0.503767
0.626579
0.204927
0.284813
0.027407
0.211980
-0.043660
0.337831
-0.124019
0.018763
-0.294177
-0.113830
-0.042423
0.064715
0.317505
0.466176
0.441458
-0.018246
-0.044701
-0.322317
0.436259
0.016323
-0.533466
0.188509
0.229874
-0.610731
0.633947
-0.290920
-0.243665
0.048816
0.570220
0.499170
-0.088788
-0.282155
-0.215553
-0.404204
-0.155696
-0.078292
0.122388
0.482292
0.165213
0.376993
-0.094242
-0.352959
0.291715
0.248150
0.119530
0.031977
-0.259673
-0.696918
0.442708
-0.197244
0.206770
-0.634794
0.079911
0.893065
-0.351222
-0.520978
-0.007579
0.539699
0.452749
-0.076319
0.512078
0.224123
-0.085208
0.486431
0.408066
0.166413
0.918619
1.211137
0.667919
0.778490
0.410656
-0.025327
0.019205
-0.403510
-0.383953
0.055358
0.139928
-0.093959
0.127928
0.534700
0.057656
-0.023915
0.369163
0.111749
0.213136
-0.306136
-0.025368
0.543695
0.039353
0.136191
0.493093
-0.270446
-0.189177
0.315576
-0.094608
-0.032973
-0.022856
-0.332334
-0.662295
0.448960
-0.515312
-0.028953
0.344370
0.333814
-0.305771
0.102888
0.132348
-0.107643
0.188791
0.097296
0.085925
0.454954
-0.261107
0.421559
0.262722
-0.068306
0.188843
0.013915
0.085720
0.180116
0.072484
-0.152555
0.130663
0.184328
0.145609
-0.395403
0.130509
-0.284939
-0.190889
0.760043
-0.178801
-0.108019
-0.198581
0.153940
0.507931
0.425872
-0.068618
1.057424
0.295147
-0.059881
0.397453
-0.182334
-0.016838
0.262114
0.239955
0.081889
0.029065
-0.354348
-0.226994
-0.061200
-0.174485
0.625465
-0.532697
-0.186693
-0.498220
-0.454154
-0.527683
-0.608953
0.223696
0.230255
0.539808
-0.153038
-0.002856
0.127701
0.166185
0.173239
-0.034615
-0.096470
-0.050643
-0.324002
-0.306529
0.076864
-0.004939
0.000338
-0.012144
0.230553
-0.014285
0.254835
-0.390447
-0.044314
0.636735
-0.094091
0.600145
-0.882259
-0.526552
-0.253715
0.512470
0.152677
-0.207304
0.039090
0.250303
-0.744452
0.404195
0.112711
-0.194689
-0.455612
-0.275880
0.450455
0.197409
0.264471
0.305862
-0.752377
-0.252882
0.199276
0.483584
-0.107336
0.448218
0.294554
0.240713
-0.453533
0.402374
0.525798
-0.371471
0.426139
0.230403
-0.000108
0.162370
0.228396
-0.006977
0.297277
0.398956
-0.140367
-0.282536
-0.089308
-0.376452
0.047269
-0.432809
0.183993
-0.116319
0.751016
-0.149637
0.079207
0.076519
0.087871
-0.268848
-0.034079
-0.394751
-0.490293
-0.036097
0.121493
-0.316965
0.409955
-0.207365
0.250160
0.296827
0.631652
0.531137
1.107748
0.643855
0.393545
0.150470
0.251418
0.184796
0.524153
-0.105731
0.172089
-0.512695
0.066236
0.123918
0.106405
0.040344
-0.004679
-0.061991
-0.250863
-0.423563
-0.098858
-0.105698
-0.056610
0.190999
-0.413570
-0.299722
0.290460
0.536251
0.208727
0.036219
-0.089551
0.049988
-0.165949
0.157785
0.520615
-0.449945
-0.628022
0.073126
0.507379
-0.103961
0.500098
0.304880
0.160423
0.499878
0.007230
0.063107
0.713914
0.231844
0.301987
0.689467
0.420243
0.220930
-0.229320
0.234536
0.636599
0.394371
0.482518
0.066907
0.119005
0.291404
0.155447
0.023994
-0.212704
0.100707
0.464834
0.452071
0.309920
-0.056639
0.149070
0.123759
0.093562
0.294930
0.278058
0.151965
-0.035024
0.174248
0.403625
0.194944
-0.043888
0.366547
-0.310367
0.169732
0.271076
0.015820
0.010186
-0.831453
0.462293
0.073268
0.195676
-0.054474
-0.173489
-0.070456
0.120942
-0.512791
0.292343
-0.250864
-0.289846
0.201293
0.177445
0.261327
-0.176251
-0.202408
-0.550512
0.136301
-0.912079
-0.162142
-0.497096
0.171039
0.265496
-0.415709
0.083645
-0.056800
-0.609074
-0.244590
-0.052807
-0.140221
-0.536648
0.152297
-0.151840
-0.278681
0.363280
0.170083
-0.116833
0.601074
0.477416
-0.241951
-0.446701
-0.692122
0.254811
0.194387
0.567282
-0.433902
0.068047
0.310106
0.080021
-0.575440
-0.214256
0.281856
-0.309226
-0.306077
0.582420
-0.627220
0.263644
-0.149271
-0.148547
0.032894
-0.021484
0.491569
0.137192
0.689245
-0.115171
0.001801
-0.319404
-0.177714
0.110899
0.348016
0.140804
-0.115666
-0.369617
0.325805
-0.453611
0.514205
0.124608
-0.471199
-0.071680
-0.563759
-0.013217
-0.345081
0.179144
0.348798
-0.264462
-0.092184
-0.036128
-0.141555
0.221506
-0.324587
-0.083567
0.230505
0.548822
-0.050699
0.010205
-0.096158
0.630449
0.878895
0.397628
0.693871
-0.270196
0.184505
-0.167717
-0.544432
-0.320044
-0.005345
0.248602
0.635986
-0.307710
0.831026
-0.205590
-0.607654
0.343585
0.761894
-0.645200
-0.143554
0.006044
-0.683834
-0.228332
0.193631
0.225980
0.720061
0.135462
0.046931
0.191855
-0.148689
-0.410717
-0.027533
0.437905
-0.209213
-0.543389
0.433152
-0.174857
0.433878
0.238422
0.012278
-0.036259
0.015810
0.759146
0.024828
0.191663
0.342156
-0.360304
0.438396
0.786057
0.260328
0.545844
0.061528
0.439089
0.454372
0.508285
0.644953
0.104517
-0.045524
0.383673
-0.082219
0.717197
0.190511
0.150639
-0.732677
-0.130342
0.366886
-0.763000
-0.418123
0.253931
-0.263298
-0.359065
-0.101455
0.123270
-0.047510
0.000211
-0.233494
0.233650
0.063289
-0.062730
0.044689
-0.220117
-0.094945
-0.285440
-0.197637
-0.551663
-0.017074
0.685215
-0.198986
0.100930
-0.167632
-0.302504
-0.449219
-0.079401
0.200765
-0.144314
-0.316834
-0.805695
-0.056403
-0.051188
0.293103
-0.168396
0.788022
-0.016835
0.331354
0.210228
0.148015
0.022497
0.052185
0.062786
-0.668376
-0.116547
-0.129541
0.647458
-0.041736
0.268538
0.128143
0.193941
-0.054963
-0.023632
0.347144
0.464742
-0.189295
-0.474712
0.338064
-0.148712
0.280115
-0.198933
0.345483
0.909990
-0.264841
0.336675
-0.064924
-0.292292
0.538429
0.474131
-0.444337
0.367250
0.315863
0.176264
-0.262552
0.432486
0.446586
0.031244
-0.118176
0.076036
-0.125664
-0.081090
0.377792
-0.252654
0.041655
0.522792
-0.120559
-0.274960
-0.270733
-0.048619
0.825445
0.776886
-0.283014
-0.942318
0.708569
-0.275355
-0.041317
-0.388678
0.079562
0.137629
-0.519660
-0.135978
0.213928
-0.107474
0.094271
-0.352386
0.166032
-0.059488
0.255314
0.155606
0.372324
0.323313
0.474555
0.213853
0.682643
0.567424
0.634181
0.541041
0.782854
0.738555
-0.002537
0.427808
-0.702966
0.253475
-0.417136
-0.179494
0.128358
0.089014
0.534574
0.487532
0.104413
0.065470
0.336247
-0.176229
-0.101716
0.139701
0.024137
0.208608
0.040056
-0.046768
0.203076
0.120987
0.721395
0.729897
-0.006222
0.265781
-0.057179
0.502102
0.114911
0.518953
-0.100378
0.279060
-0.142534
-0.128915
0.124254
-0.317704
0.477904
0.116043
0.134561
0.306479
0.243813
0.253777
1.500000
0.204956
0.346664
0.551239
0.379453
0.408137
0.658533
-0.119448
0.108893
0.067701
-0.076561
0.281178
0.151902
0.150038
1.075434
-0.416828
0.589297
-0.118884
0.145552
0.273934
0.318667
-0.321262
0.139432
0.013189
0.144114
-0.120383
0.169587
-0.281798
0.073061
-0.168908
0.267292
-0.217524
0.492331
-0.321165
0.089074
-0.212938
-0.231131
0.084141
-0.050683
-0.527362
-0.365619
0.109985
0.553377
0.130280
0.717723
0.350485
-0.131619
-0.503417
0.775088
0.498175
0.276629
0.027494
-0.439869
0.157550
-0.259398
0.155947
-0.055268
-0.224895
0.089223
-0.310106
-0.021279
0.697893
0.765627
-0.468391
-0.601088
-0.546862
0.279477
-0.145176
-0.663039
-0.217141
-0.163857
0.697787
0.321383
0.935549
0.439099
0.044782
-0.033154
-0.186546
0.043835
-0.228449
0.494229
-0.398381
-0.095567
0.250680
0.408688
0.343281
-0.000295
-0.018564
0.236575
-0.227075
0.095891
0.575922
0.368232
0.563788
-0.076751
0.210010
0.412542
-0.178627
0.258964
-0.407224
0.312014
-0.141498
0.464719
0.162920
-0.127282
-0.043469
-0.061855
-0.289311
0.329666
0.166440
0.692826
-0.525328
-0.165106
1.068234
0.273029
0.000657
0.096611
0.327850
-0.244340
-0.092481
0.388188
0.213922
-0.330211
0.183229
-0.017265
0.190122
-0.106865
0.195008
-0.306454
0.227300
-0.129359
0.176879
-0.169575
-0.050483
0.221012
0.903990
0.380419
0.369908
0.081347
-0.014548
0.245702
-0.639418
-0.120079
-0.222936
-0.398656
0.311381
-0.378189
-0.301792
0.036041
0.649785
-0.292304
-0.396104
-0.137220
0.073654
0.151998
-0.201408
-0.238043
0.113365
0.215652
0.526169
-0.383281
0.241851
0.594476
0.100780
0.694782
0.037733
0.097342
0.478039
0.720902
0.070717
-0.247970
-0.228539
0.600416
0.504413
0.199998
0.139393
-0.148374
0.038175
-0.162047
0.462928
-0.001287
0.046467
-0.138037
0.190737
0.502739
0.165839
0.212850
0.327933
-0.027663
-0.724097
0.151776
0.496768
-0.415996
0.296741
-0.076918
0.467202
-0.334907
-0.310975
-0.379540
-0.402569
-0.811878
0.212912
-0.511454
-0.169663
0.498035
-0.498264
-0.778593
-0.110356
0.091572
-0.231585
-0.271898
-0.385022
-0.057998
-0.037873
0.290313
0.404076
-0.045328
0.096110
-0.215628
0.402960
-0.395434
-0.124316
-0.074999
0.159287
0.253088
0.040682
0.191113
-0.087575
-0.049088
0.049062
-0.341420
-0.040787
-0.711663
-0.126532
0.241942
-0.283228
0.120827
0.441217
-0.044141
-0.251038
-0.273451
-0.143918
0.029802
-0.584448
-0.643064
0.646288
0.089482
0.620554
-0.290225
-0.407101
0.123912
0.246189
-0.424381
0.325224
-0.465452
0.014875
0.707558
-0.064173
0.127099
0.171424
-0.415032
-0.284542
-0.163868
-0.023023
-0.028410
0.115123
-0.150764
0.264780
0.136548
-0.551183
-0.085097
0.421388
-0.416950
-0.133458
-0.367187
0.481438
0.069762
0.181610
0.303933
-0.098200
-0.276126
0.654310
-0.363482
-0.489019
0.301426
0.391005
0.335856
-0.029086
-0.010750
0.680196
-0.092626
-0.395797
0.398482
-0.508044
-0.090499
0.018558
-0.139610
0.239923
-0.428975
-0.217584
-0.402876
-0.230191
0.127510
-0.285829
0.175644
0.040357
0.039333
0.219158
-0.113132
0.094065
-0.057650
0.591405
0.643374
0.410986
0.139496
0.832547
1.287601
0.461303
0.121955
0.736987
0.057693
0.155697
-0.058516
-0.287860
-0.412835
-0.518762
0.166236
0.198450
-0.437725
0.042734
-0.012928
0.027859
-0.354436
0.493733
-0.122617
-0.456455
0.406995
-0.168786
0.109532
-0.094369
-0.018998
0.328576
0.254119
-0.093253
0.491715
-0.219704
0.295526
-0.247989
0.192046
0.000259
0.352234
-0.052642
-0.506187
-0.355357
0.335609
0.639996
0.267777
-0.306914
0.391504
0.596910
0.171750
0.808187
0.358265
0.108961
0.908999
0.145732
0.627263
-0.243286
0.197062
0.000956
0.519397
-0.282309
0.570621
0.584361
0.359753
0.326186
-0.417178
0.220762
-0.429977
0.018047
0.054963
0.242013
0.652087
-0.290611
-0.072769
0.000485
0.357347
0.213550
-0.102930
-0.088538
-0.226600
-0.086679
0.356870
-0.149499
0.473983
0.173897
0.315262
0.439258
0.107444
0.080991
0.199567
-0.190956
-0.459824
-0.038897
-0.513689
0.316249
0.316556
0.066727
-0.080509
-0.141928
-0.025345
-0.472008
0.228333
-0.111301
0.384490
0.396823
0.204437
-0.172456
-0.294064
-0.030998
0.020772
0.370248
-0.302614
0.096728
-0.122411
0.198102
0.189956
-0.252772
-0.252961
-0.070266
-0.290624
-0.053787
-0.468942
-0.095171
0.291175
-0.393847
-0.233854
-0.137572
-0.510743
-0.400242
0.038117
0.591533
-0.090108
0.062494
-0.328435
0.246636
-0.337542
-0.226562
-0.390726
-0.180804
0.578257
0.102403
-0.197795
-0.462216
0.053886
0.085841
0.557444
0.202808
0.439154
0.455629
-0.219170
0.279238
0.200509
0.003900
-0.243441
0.013479
0.157827
0.080241
0.342593
0.144170
-0.118114
0.559788
-0.041685
0.572832
0.059819
-0.162891
0.024750
-0.278889
-0.672703
0.433799
-0.462130
-0.132148
-0.562097
-0.235531
-0.197377
-0.008292
0.479940
0.170058
-0.409309
-0.290391
-0.703638
-0.430378
-0.339410
0.203851
0.320065
0.387833
1.039735
0.535820
0.640809
0.330205
0.340643
-0.118331
-0.105017
0.136346
0.317092
0.268055
0.216284
-0.110344
0.008613
-0.524740
0.190030
-0.302600
0.128045
0.042059
0.049821
0.074194
0.390781
0.034382
0.026798
0.359737
-0.232235
0.154354
0.022789
0.455460
0.262206
0.371538
0.288263
-0.105153
0.333003
0.001301
0.743160
-0.374480
-0.021389
0.027278
0.381537
0.315722
-0.004475
0.193099
0.037727
0.855796
-0.198385
-0.314485
0.469629
0.382328
0.467571
0.414653
0.533916
-0.056130
0.209121
-0.102939
0.914500
0.307582
-0.121856
0.233607
0.089959
-0.008799
0.021626
0.117565
0.254946
-0.133423
0.382252
0.118294
0.216857
0.336228
-0.034615
0.207633
0.359502
0.134531
0.522334
-0.715597
-0.463197
0.047613
0.314548
0.330483
-0.193921
0.171080
0.098861
0.226308
0.299788
-0.007874
-0.715561
-0.551027
-0.054062
-0.395423
0.135569
-0.193621
0.019766
0.567073
0.069133
0.047196
-0.052440
0.225656
0.203419
0.084941
-0.226193
-0.146674
-0.045925
0.039897
0.659052
-0.487096
0.018250
0.389522
-0.079376
0.107473
-0.216347
-0.280432
0.274327
0.077759
-0.087446
-0.074583
0.162859
-0.201067
0.355499
0.218115
0.428826
0.117936
0.238628
0.490113
0.096282
0.441913
-0.414469
-0.149813
0.292149
-0.585123
0.394685
-0.476240
0.106435
0.219114
-0.313862
0.005898
0.770003
-0.027615
-0.252806
-0.295564
-0.287526
-0.675831
0.367109
0.058194
0.095521
-0.320600
-0.270978
0.103194
-0.164526
0.457371
-0.013637
0.383889
-0.070689
0.255621
-0.201796
0.247788
0.336382
0.504795
0.227224
0.232980
-0.202028
-0.236782
-0.051719
-0.003790
-0.184086
0.169136
0.113670
0.721537
0.008728
-0.372706
-0.308433
0.062301
-0.046061
-0.280760
-0.263185
-0.142751
0.580637
-0.001899
0.275555
0.661774
-0.398687
0.389425
0.042147
0.211819
0.671479
1.033592
0.174343
0.355237
0.371003
-0.024855
-0.286606
-0.282589
-0.347839
-0.383990
-0.234565
0.736336
0.370938
-0.172860
0.060121
0.178098
-0.089124
0.375015
0.233734
0.516493
0.258183
0.059469
0.117746
-0.218849
0.047460
-0.378090
-0.113741
0.328923
0.626400
0.103450
0.099755
0.064141
0.066867
0.055442
0.120860
0.010859
0.554414
0.437135
0.041181
0.137426
-0.217114
-0.026749
0.273920
0.095384
-0.102054
0.358205
0.655172
-0.531502
-0.305012
-0.054181
0.680695
0.837955
-0.379306
0.354104
-0.010355
0.270445
0.151819
0.597474
0.556160
0.198981
0.428155
0.623943
-0.201246
0.520271
0.066593
-0.344589
0.258469
0.660328
-0.090851
-0.306672
0.427808
-0.530859
0.285232
-0.369998
-0.166109
0.274217
0.372816
0.003987
