-0.056771
0.044967
-0.000150
-0.012734
0.002132
0.024387
-0.028857
-0.036005
-0.028151
0.051141
0.002144
-0.045788
-0.029213
0.113005
0.024153
-0.008712
-0.075223
-0.076225
0.112761
0.057332
0.089213
0.039979
0.039758
0.032410
0.027278
0.090191
0.081359
0.080399
0.012237
0.101672
0.164276
0.059365
0.209359
0.129602
0.161755
0.163508
0.191901
0.175158
0.230598
0.237928
0.203084
0.198703
0.130746
0.223102
0.166982
0.223754
0.267167
0.109367
0.149131
0.249654
0.141737
0.157733
0.083663
0.173449
0.188638
0.138402
0.098464
0.084078
0.061457
0.056018
0.082640
0.102418
0.012572
0.098605
0.064663
0.104770
0.011350
0.056409
0.092361
0.049953
0.008586
0.060891
0.063269
0.104260
-0.016845
0.146712
0.222577
0.469051
0.666920
1.075501
1.273288
1.396007
1.361550
1.095180
0.857427
0.428207
0.079945
-0.103299
-0.117835
-0.125832
-0.059231
-0.001419
-0.020676
0.096059
0.040867
0.062231
0.089460
0.109256
0.042633
0.122980
0.092657
0.098090
0.151783
0.077947
0.149137
0.152352
0.268862
0.132302
0.196365
0.241188
0.225317
0.260697
0.277315
0.306452
0.354505
0.433467
0.426211
0.379497
0.344038
0.515893
0.435889
0.500245
0.465805
0.516975
0.616902
0.491748
0.557071
0.568836
0.622354
0.548260
0.593747
0.586758
0.507520
0.598471
0.629732
0.536345
0.556181
0.532845
0.536788
0.538055
0.537021
0.529838
0.475970
0.467660
0.422048
0.434486
0.386657
0.311872
0.423757
0.261136
0.354708
0.268487
0.312211
0.211656
0.254257
0.173330
0.184705
0.225205
0.211244
0.187233
0.193143
0.116875
0.197801
0.119703
0.147064
0.123587
0.164404
0.098765
0.054704
0.055983
0.061586
0.121798
0.072801
0.110970
0.090053
0.134578
0.108747
0.092996
0.080425
0.054916
0.106295
0.091426
0.077083
0.015959
0.105942
0.076504
0.000682
0.046792
0.100932
0.087191
0.053605
0.083130
0.138016
0.086561
0.137482
0.146624
0.114646
0.111043
0.092775
0.071400
0.078168
0.100802
0.099462
0.095452
0.037546
0.069344
0.151929
0.088658
0.101666
0.080340
0.040574
0.170803
0.134201
0.091710
0.078914
0.107234
0.107946
0.112416
0.093052
0.132583
0.073374
0.085556
0.130074
0.046734
0.054380
0.131230
0.090553
0.208769
0.191334
0.143021
0.142633
0.206946
0.124629
0.129291
0.154940
0.214867
0.198649
0.202132
0.171475
0.230801
0.341868
0.223335
0.291363
0.287958
0.214112
0.210782
0.211733
0.190601
0.187271
0.167299
0.271036
0.228275
0.254429
0.271436
0.163478
0.113035
0.177064
0.146591
0.154594
0.174058
0.098771
0.047442
0.190605
0.116943
0.043281
0.114229
0.083458
0.117173
0.092137
0.188079
0.118731
0.086199
-0.002877
0.076701
0.115625
0.071046
-0.040761
0.035970
0.127969
0.208757
0.526210
0.878879
1.134280
1.401171
1.500000
1.293604
1.172207
0.675685
0.361695
0.073328
-0.103351
-0.166007
-0.139643
-0.054890
-0.044522
0.040709
0.020395
0.104242
0.136219
0.069713
0.150761
0.064485
0.102504
0.140180
0.155190
0.091227
0.090081
0.147259
0.116790
0.229190
0.139986
0.295596
0.242709
0.290152
0.236813
0.327907
0.224802
0.294416
0.399330
0.342842
0.433162
0.520412
0.427919
0.562327
0.396961
0.455623
0.551192
0.596954
0.548419
0.468961
0.587624
0.647961
0.665265
0.545057
0.616134
0.548828
0.601033
0.487676
0.554659
0.486343
0.507995
0.535722
0.442208
0.534766
0.414366
0.406667
0.362089
0.405425
0.413665
0.293432
0.370790
0.319008
0.216150
0.241671
0.228487
0.215468
0.184342
0.171560
0.192509
0.131474
0.131706
0.108394
0.129471
0.118261
0.063374
0.077321
0.069840
0.030315
0.003245
0.042863
0.082710
0.056623
0.081271
0.060403
-0.014854
0.080489
0.065785
-0.023452
0.040578
0.033655
0.056914
-0.014120
0.029818
0.033496
0.058591
-0.010731
0.064172
-0.047306
0.014464
0.007536
-0.038868
-0.007403
-0.044622
0.021572
0.079993
0.047074
0.000672
0.073674
-0.006442
0.040531
-0.032263
-0.020760
0.018154
-0.024409
0.011373
0.009739
0.027050
-0.014556
0.053779
-0.019599
0.045797
-0.030178
-0.021279
-0.031491
0.044596
0.073755
0.001346
-0.008631
0.083048
-0.033789
-0.001376
0.024550
-0.031047
0.035645
0.048501
0.043202
-0.049894
0.034075
-0.004677
-0.036551
0.068997
0.026597
0.087892
0.084379
0.088484
0.082629
0.133233
0.069774
0.113198
0.103784
0.076135
0.122368
0.116920
0.142074
0.132866
0.231980
0.213956
0.218155
0.186282
0.111479
0.146244
0.169596
0.117005
0.134833
0.142350
0.092047
0.108818
0.066795
0.111241
0.023498
0.065710
0.017432
0.024199
-0.031085
0.059234
-0.034015
0.035959
-0.085122
-0.039420
-0.035242
0.017901
-0.039630
0.029825
-0.079298
-0.083492
0.056136
-0.039137
0.013000
-0.051544
0.104530
-0.012829
0.045991
0.249187
0.510961
0.879442
1.068151
1.387874
1.408005
1.195667
0.858962
0.379762
0.207307
-0.138940
-0.196211
-0.263025
-0.173666
-0.221891
-0.029310
0.032350
0.001245
-0.021788
0.006392
0.031948
0.020124
0.021657
0.063861
0.114660
0.007013
0.065339
0.072515
0.091792
0.055092
0.057912
0.049665
0.116228
0.157008
0.115692
0.185049
0.143766
0.184499
0.192515
0.178273
0.279823
0.313286
0.317594
0.374177
0.271493
0.369986
0.353528
0.359098
0.370969
0.378260
0.451300
0.410325
0.484279
0.466528
0.488188
0.478178
0.528039
0.493549
0.562273
0.537775
0.423266
0.488264
0.389568
0.430976
0.351181
0.327869
0.300264
0.375831
0.310435
0.263287
0.278658
0.228408
0.204276
0.207511
0.217658
0.212057
0.198197
0.115398
0.132679
0.062641
0.022681
0.036846
0.043669
0.043105
0.100442
0.060987
0.133382
-0.043219
0.026799
-0.001958
0.053872
0.008267
0.032309
-0.001301
-0.006363
-0.029414
-0.028887
-0.098779
-0.117008
-0.030929
-0.004277
-0.010188
-0.057753
0.024723
-0.086294
-0.018943
-0.068942
-0.026668
-0.105078
-0.013775
-0.006917
-0.005009
-0.097859
-0.003796
-0.041332
0.050819
-0.092173
-0.048574
-0.035160
0.014894
-0.030899
0.020159
-0.007492
-0.042411
-0.045550
0.038298
0.012410
-0.028094
0.017799
-0.015813
-0.097635
0.038840
0.002495
-0.069233
-0.050051
-0.034872
0.028845
-0.049620
-0.047753
-0.012610
-0.108245
-0.049178
-0.031380
-0.020467
-0.067760
-0.025318
0.034756
0.042695
0.030910
-0.010424
0.034991
0.088650
0.062647
0.077164
0.108071
0.001066
0.176149
0.060742
0.119794
0.115584
0.127345
0.124974
0.106147
0.180800
0.141589
0.107388
0.137995
0.208926
0.125637
0.125540
0.119872
0.172848
0.098781
0.105519
0.156695
0.136225
0.076255
0.148814
0.013868
0.056061
0.125253
0.016100
0.042396
-0.018324
-0.018453
0.058198
0.006448
0.054331
-0.034907
-0.104623
0.029844
-0.019943
-0.040330
-0.027649
-0.035957
-0.012656
0.009439
-0.037338
-0.052082
-0.082561
-0.085384
-0.043963
0.116663
0.261303
0.632588
0.982025
1.279037
1.408432
1.400839
1.142452
0.822994
0.371831
0.143671
-0.146693
-0.165125
-0.203839
-0.161711
-0.085624
-0.070207
-0.085729
0.020691
0.036561
-0.084207
0.051837
0.083413
-0.014376
0.070342
0.052028
0.073087
0.061289
0.105237
0.081864
0.176260
0.115502
0.241498
0.111917
0.222544
0.197116
0.232155
0.215144
0.187231
0.353998
0.261258
0.266708
0.365252
0.375732
0.365974
0.426863
0.378244
0.444933
0.525271
0.494490
0.485728
0.560784
0.511531
0.559465
0.445989
0.535057
0.537446
0.437194
0.550470
0.545271
0.497384
0.513330
0.522476
0.518754
0.519507
0.518356
0.419759
0.491785
0.410113
0.435299
0.331700
0.224678
0.336515
0.240922
0.286782
0.253706
0.268604
0.228839
0.216589
0.157325
0.183736
0.205871
0.216501
0.191221
0.136886
0.080203
0.058954
0.113659
0.063794
0.128322
0.153450
0.095180
0.071666
0.114661
0.164587
0.130096
0.150245
0.079635
0.127078
0.008949
0.052905
0.086034
0.044292
0.058063
0.053556
0.070806
0.036674
0.057056
0.053498
-0.045418
0.068560
-0.004838
0.084975
0.101728
0.098937
0.043343
0.030824
0.091843
0.080377
0.033897
0.062537
0.077133
0.011479
0.024032
0.044248
0.024431
0.048194
0.045383
0.036358
0.040516
0.051250
0.074927
0.140744
0.065616
0.123142
0.018913
0.066581
0.073309
0.063849
-0.035910
0.041690
0.011376
0.069336
0.090663
0.086501
0.103992
0.112668
0.108715
0.074077
0.171892
0.154362
0.118771
0.116957
0.138365
0.093363
0.256582
0.218553
0.149368
0.191551
0.252450
0.229918
0.161232
0.213679
0.244512
0.266718
0.275140
0.258816
0.225336
0.276133
0.219478
0.225016
0.303972
0.247787
0.203913
0.180614
0.271421
0.241350
0.204729
0.167141
0.160531
0.147537
0.144109
0.039243
0.148071
0.141548
0.188551
0.102208
0.120994
0.069544
0.145971
0.175158
0.095168
0.154244
0.087401
0.005395
0.067920
0.044474
0.051176
0.120770
0.087097
0.014947
0.128196
0.089132
0.261256
0.491255
0.905056
1.092970
1.409389
1.483220
1.397904
1.126408
0.775514
0.468346
0.156602
-0.125504
-0.137513
-0.175138
-0.019357
-0.023409
0.070205
0.182216
0.153781
0.138974
0.138533
0.122067
0.166748
0.177623
0.201759
0.059511
0.137611
0.191597
0.164545
0.210696
0.152569
0.235269
0.364314
0.306589
0.266169
0.316470
0.281129
0.332860
0.392683
0.364578
0.347260
0.370934
0.486598
0.413056
0.467159
0.546915
0.449019
0.610384
0.586038
0.601805
0.511210
0.516805
0.570670
0.577710
0.621367
0.524942
0.553602
0.543961
0.584889
0.646194
0.582434
0.585525
0.601691
0.589433
0.561956
0.505902
0.466196
0.491010
0.510797
0.420416
0.458745
0.385410
0.414189
0.394728
0.397003
0.295489
0.300258
0.330244
0.214850
0.291201
0.163448
0.167785
0.145249
0.210624
0.135864
0.096526
0.131249
0.190580
0.127009
0.064716
0.141501
0.128997
0.130994
0.124753
0.160075
0.146931
0.128901
0.094422
0.141573
0.016807
0.145824
0.058476
0.111619
0.184392
0.058034
0.070290
0.070255
0.128758
0.016798
0.049588
0.148343
0.050858
0.161750
0.069969
0.085140
0.059801
0.117630
0.076012
0.028624
0.052185
0.040808
0.123086
0.041145
0.105490
0.071473
0.179415
-0.022549
0.061939
0.076020
0.083114
0.058865
0.113573
0.084551
0.066153
0.101377
0.089261
0.114199
0.135948
0.105415
0.047273
0.082190
0.025124
0.086919
0.046756
0.158465
0.063140
0.014996
0.075982
0.096700
0.062864
0.071413
0.183654
0.070706
0.096146
0.096109
0.138615
0.116160
0.155920
0.234337
0.179484
0.187091
0.168184
0.219616
0.169805
0.239520
0.203765
0.167509
0.221312
0.205335
0.249232
0.258020
0.250936
0.203683
0.268470
0.180329
0.210232
0.209579
0.203006
0.156649
0.184498
0.048711
0.066982
0.110749
0.158117
0.144669
0.031746
0.068097
0.082411
-0.033743
0.072184
0.013572
0.044584
0.063014
0.093355
0.031415
0.075467
0.024901
0.035937
0.056914
0.038928
-0.032784
0.012738
0.100172
0.213436
0.553014
0.797506
1.188401
1.321495
1.443690
1.209845
0.974769
0.591095
0.237296
-0.074724
-0.141361
-0.202810
-0.144017
-0.104594
0.064600
-0.030148
0.060180
0.030838
0.173347
-0.017118
0.041550
0.079010
0.128987
0.058921
-0.052156
0.163875
0.096808
0.199743
0.125146
0.122949
0.183164
0.220271
0.171125
0.226840
0.191669
0.159624
0.313966
0.192295
0.289417
0.466664
0.321310
0.382157
0.327783
0.450561
0.374515
0.446385
0.471208
0.454998
0.457508
0.509604
0.521534
0.551533
0.592609
0.573803
0.474146
0.527329
0.518009
0.435816
0.483618
0.471374
0.513302
0.461779
0.453451
0.450069
0.412412
0.395814
0.483023
0.339475
0.432077
0.329694
0.294888
0.306426
0.239434
0.181153
0.193421
0.197560
0.234549
0.142922
0.170800
0.100054
0.180383
0.112058
0.122671
0.080851
0.074667
-0.012106
0.089835
-0.029577
0.047894
-0.003571
-0.005733
-0.068523
-0.018300
0.002153
0.030043
-0.046063
-0.037938
-0.016935
-0.007656
-0.031563
-0.046276
-0.070944
0.030721
-0.081252
-0.070975
-0.039853
-0.016990
0.040742
0.001391
0.042984
0.055866
-0.049437
-0.093068
-0.093683
-0.034260
-0.024607
-0.040105
0.008417
-0.067859
-0.033207
-0.090803
-0.058478
-0.049422
-0.028313
0.020197
-0.129339
-0.083444
-0.053976
-0.039633
-0.022187
-0.047333
-0.080709
-0.088295
0.017066
-0.059517
-0.041158
-0.034276
-0.083621
-0.000247
-0.145603
-0.027135
-0.025081
-0.064886
0.015518
-0.016312
-0.077720
0.036169
-0.104808
-0.020429
-0.067305
-0.061673
-0.121644
-0.006102
0.049141
0.023506
0.014697
0.037435
0.016203
0.034677
0.011687
0.144881
0.087192
0.059524
0.102151
0.157842
0.134313
0.097003
0.079029
0.077928
0.107063
0.145047
0.044100
0.057380
0.054252
0.021661
0.018725
-0.006224
0.006392
0.085225
0.099020
0.023723
-0.026806
0.020985
-0.012165
-0.124263
-0.000594
-0.058339
-0.080557
-0.051487
-0.070096
-0.051805
-0.019956
-0.066893
-0.070404
-0.106618
-0.000128
-0.048810
-0.061682
-0.115844
-0.064576
-0.052954
0.096756
0.234017
0.488690
0.840164
1.149916
1.276285
1.270755
1.057180
0.767905
0.372642
0.065645
-0.184699
-0.271775
-0.362656
-0.326525
-0.236674
-0.052203
-0.122427
-0.130977
-0.060468
-0.017602
-0.037440
-0.057207
-0.013508
0.001051
-0.075599
0.051930
-0.005925
0.095829
0.123281
-0.028209
0.036928
0.086596
0.184647
0.120369
0.087736
0.091141
0.060413
0.132798
0.148303
0.184816
0.194138
0.272758
0.236616
0.372346
0.331146
0.332398
0.375401
0.429417
0.421779
0.330806
0.389342
0.434330
0.407755
0.311179
0.456014
0.430088
0.413026
0.423107
0.464107
0.420195
0.471738
0.360940
0.297760
0.357402
0.386178
0.311910
0.342586
0.341694
0.332608
0.271031
0.250975
0.113126
0.174962
0.153717
0.176148
0.188127
0.129900
0.082950
0.098311
0.093008
0.088639
0.048539
0.155222
-0.025789
0.007870
-0.028879
0.052535
0.014101
0.045276
0.005342
-0.131771
-0.031087
-0.126234
0.003435
-0.081294
-0.050049
-0.035686
-0.110364
-0.002907
-0.012168
-0.041186
-0.078152
-0.019934
-0.009506
-0.009799
-0.088361
-0.031091
-0.081135
-0.037772
-0.141240
0.008041
-0.007404
-0.035137
-0.103252
-0.043139
-0.075510
-0.142440
-0.048800
-0.104348
-0.082873
-0.070117
-0.099089
-0.054823
-0.036471
-0.041657
-0.018137
-0.079718
-0.061322
-0.121498
-0.179902
-0.027653
-0.083206
-0.022582
-0.050224
-0.050685
-0.060884
-0.062508
0.020443
-0.001271
-0.128938
-0.108231
-0.058643
-0.051789
-0.076575
-0.038077
-0.045739
-0.084154
-0.060311
-0.021804
-0.058945
0.036672
-0.077362
0.023115
0.024292
0.036298
0.049019
0.041272
0.093981
0.005368
0.059783
0.080825
0.130347
0.083597
0.048597
0.117042
0.137180
0.099279
0.137513
0.215320
0.166558
0.048178
0.105788
0.083033
0.080908
0.027390
0.035506
0.041555
0.039174
0.067518
0.002572
0.036160
0.055162
-0.004888
0.019655
-0.008284
0.005136
0.012894
-0.063435
-0.012827
-0.056386
-0.079137
-0.002484
-0.048753
0.019817
0.019485
-0.019048
-0.044405
-0.141307
-0.017177
-0.080078
-0.086735
-0.061097
0.076040
0.376779
0.647662
0.975874
1.253266
1.426585
1.294321
1.076756
0.634405
0.325225
0.076647
-0.172182
-0.266790
-0.242530
-0.203592
-0.102140
-0.089749
-0.048436
-0.058646
0.001844
-0.008940
0.114772
0.066025
0.067239
0.041273
0.020875
0.067972
0.056739
0.054918
-0.013096
0.098294
0.059766
0.163865
0.173680
0.113607
0.171956
0.239089
0.218725
0.274006
0.249546
0.401383
0.339696
0.362609
0.342676
0.355512
0.359956
0.511741
0.436056
0.393534
0.497741
0.454895
0.468718
0.485087
0.468431
0.470411
0.587639
0.435016
0.486634
0.478549
0.447391
0.444724
0.490318
0.444937
0.451797
0.486333
0.390890
0.509954
0.391430
0.419441
0.285056
0.322194
0.347181
0.289444
0.245025
0.263390
0.281580
0.185448
0.225533
0.156340
0.172158
0.100708
0.168024
0.093145
0.111717
0.095249
0.098639
0.051731
0.046536
0.068556
0.023263
0.038524
0.078503
0.000434
0.036539
-0.005798
0.066577
0.088814
0.120885
-0.009240
0.009562
0.094257
0.002324
0.102576
0.016837
0.074544
0.044850
0.006780
-0.140082
0.100176
-0.003984
0.010696
0.097731
-0.026034
0.004186
0.071435
0.027602
0.019195
0.020898
0.043422
-0.016755
0.023975
0.066764
0.123118
0.028235
0.068607
-0.100451
-0.012600
-0.056128
-0.011681
-0.047012
0.029385
0.057240
0.018622
0.059936
0.012552
-0.076485
0.061209
0.075307
0.077063
0.114669
0.001837
0.002200
0.082797
-0.019644
0.018818
-0.009269
0.090175
0.046848
0.067049
0.036760
0.094016
0.131663
0.038923
0.083740
0.082002
0.091081
0.143935
0.209006
0.104709
0.191823
0.091975
0.102480
0.181757
0.161739
0.231791
0.232717
0.186194
0.306436
0.183264
0.163397
0.261875
0.137052
0.172542
0.207557
0.096198
0.159121
0.202467
0.121115
0.211568
0.122342
0.109987
0.046709
0.081576
0.094313
0.139032
0.076777
0.122626
0.019892
0.089948
0.089571
0.051356
0.099477
-0.001386
0.026122
0.050390
0.065599
0.094952
0.014606
0.056250
-0.016150
0.063187
0.013449
0.079992
0.233306
0.520831
0.855117
1.127006
1.394819
1.381171
1.380793
0.980477
0.659679
0.243882
-0.024005
-0.148580
-0.214148
-0.202505
-0.130847
0.002481
0.055308
0.082974
0.035008
0.068797
0.015606
0.060628
0.035137
0.124712
0.107778
0.186395
0.085787
0.101712
0.193199
0.107500
0.198393
0.177919
0.248456
0.193574
0.235045
0.171593
0.246826
0.236183
0.293099
0.337176
0.348540
0.347849
0.354770
0.463926
0.471900
0.430051
0.452173
0.508246
0.428630
0.524946
0.534565
0.502459
0.528245
0.551673
0.511898
0.583507
0.565098
0.563183
0.534527
0.593932
0.513319
0.465602
0.523374
0.386060
0.469228
0.476593
0.392246
0.347006
0.357883
0.361022
0.349682
0.308789
0.246705
0.332582
0.328952
0.226869
0.204927
0.137318
0.232796
0.183617
0.117466
0.185124
0.139088
0.055581
0.110530
0.098777
0.104286
0.059717
0.051487
0.163121
0.048439
0.028734
0.061210
0.004881
0.024162
0.105312
0.034862
0.110607
0.038423
0.033951
0.055626
0.092047
0.090555
-0.064365
0.086519
-0.006543
0.007283
0.052490
0.030798
0.039703
0.006255
0.105191
-0.012709
0.043838
0.034482
-0.021478
0.019473
0.012334
0.021299
0.024974
0.030836
0.021236
0.013823
0.026081
0.042756
-0.013196
0.072190
0.079969
0.058236
-0.060118
0.022621
0.036035
0.110329
-0.016702
-0.024479
0.018235
0.037018
0.011181
0.026637
0.022789
0.080536
0.020357
0.020017
0.059844
-0.061512
-0.096743
-0.048151
-0.029403
0.088718
0.044070
0.055480
0.024984
0.095954
0.053338
0.087422
0.219068
0.146276
0.118508
0.098480
0.074101
0.125316
0.127668
0.216699
0.157983
0.142753
0.191062
0.194339
0.112287
0.133994
0.149546
0.198417
0.126920
0.147224
0.158340
0.090254
0.230605
0.142387
0.097544
0.025319
0.008888
0.046166
0.040446
0.040283
0.089916
0.004515
-0.053711
-0.069114
-0.029317
0.020859
0.003020
0.033149
-0.021541
-0.069837
-0.071580
0.040790
-0.042697
-0.028333
-0.111359
-0.003787
-0.077060
-0.042255
-0.026797
0.095032
0.252520
0.465074
0.857645
1.106805
1.283922
1.348571
1.120439
0.806778
0.422230
0.126225
-0.144064
-0.232033
-0.209404
-0.189128
-0.128759
-0.144181
-0.040382
-0.023928
0.032017
-0.111619
-0.003068
0.003180
-0.065352
0.058196
0.096550
-0.039565
0.049506
-0.035668
0.089195
0.088550
0.127736
0.124955
0.083522
0.116064
0.154513
0.227431
0.180292
0.221141
0.272436
0.310920
0.254878
0.294980
0.241134
0.261611
0.354648
0.302853
0.383126
0.459226
0.420865
0.410719
0.391747
0.464647
0.416403
0.375409
0.430188
0.464595
0.437528
0.473794
0.351924
0.486287
0.429822
0.379189
0.412889
0.401809
0.347276
0.309043
0.312458
0.318153
0.216487
0.259574
0.266208
0.174052
0.242957
0.204327
0.161483
0.143346
0.100529
0.149402
0.041296
0.058495
0.090081
0.032068
-0.035946
0.026434
0.013085
-0.020556
0.037957
-0.000360
-0.042456
0.019753
-0.103928
-0.022365
-0.052448
-0.029935
-0.138957
-0.031468
-0.069119
-0.058241
-0.020322
-0.068669
-0.069702
-0.000043
-0.117370
-0.029463
-0.130502
-0.159488
-0.087130
-0.083862
-0.081601
0.025255
-0.036502
-0.079471
-0.026340
-0.104624
-0.105804
-0.086291
-0.081443
-0.161909
-0.028000
-0.048261
-0.120741
-0.067793
-0.055496
-0.177491
0.018581
-0.065255
-0.140601
-0.040317
-0.109527
-0.063483
-0.148657
-0.147615
0.027086
-0.165463
-0.084574
-0.104663
-0.119426
-0.045138
-0.040156
-0.146090
-0.097208
-0.137505
-0.137018
-0.108806
-0.035329
-0.156458
-0.130856
-0.072464
-0.024273
-0.057930
0.005028
-0.034634
0.030307
0.042791
-0.056455
-0.032187
0.013523
0.026794
0.060672
0.019100
0.082037
0.036524
0.034052
0.040138
0.115955
0.114226
0.091761
0.054471
0.016516
0.016781
0.091244
-0.008700
0.069829
0.094013
0.038001
-0.030138
-0.072746
0.047358
-0.013867
-0.042317
0.012852
-0.021379
-0.038033
-0.114788
-0.032442
-0.034093
-0.109258
-0.046621
-0.070777
-0.142205
-0.094462
-0.133823
-0.068454
0.014853
-0.070868
-0.040206
-0.119445
-0.040599
-0.107900
-0.072663
-0.163013
-0.001627
0.095056
0.176256
0.500475
0.903063
1.198960
1.322108
1.310040
0.978366
0.591110
0.304004
-0.031396
-0.237030
-0.318805
-0.341229
-0.226564
-0.205248
-0.061092
-0.104172
-0.089852
-0.051833
-0.076943
-0.089345
-0.041720
-0.011175
-0.043277
-0.031789
-0.004284
-0.048448
0.129207
0.066483
0.074040
0.061130
-0.001695
0.040358
0.127821
0.036029
0.133341
0.165180
0.157632
0.232609
0.182652
0.233496
0.202291
0.277288
0.204614
0.289654
0.382843
0.396666
0.352146
0.402533
0.405951
0.306117
0.416485
0.400866
0.449569
0.325932
0.457837
0.420125
0.396399
0.405014
0.437823
0.365918
0.432304
0.374869
0.333982
0.301743
0.398750
0.342896
0.294853
0.270889
0.262332
0.254894
0.270296
0.214111
0.171298
0.192218
0.066966
0.226362
0.173512
0.064693
0.028496
0.092549
0.099965
0.021989
0.030541
-0.024349
0.020553
0.008054
0.020822
-0.011601
0.025489
-0.096107
-0.030050
-0.066028
-0.069174
0.031016
-0.029725
0.028815
-0.171864
-0.018997
-0.022826
-0.076221
-0.001535
-0.051774
-0.061914
-0.022965
-0.046875
0.094818
-0.065376
-0.001825
-0.012528
-0.104314
-0.149189
-0.004922
-0.022813
-0.096430
-0.039118
-0.076268
-0.025911
-0.065612
-0.119046
-0.028504
0.017321
-0.006562
-0.027293
-0.084265
-0.134976
-0.037598
0.012496
-0.039736
-0.070676
-0.096543
-0.098753
-0.138803
0.032318
0.034262
-0.088015
-0.101647
-0.068981
-0.056487
0.036956
0.013049
0.005505
-0.084969
-0.025338
0.027359
-0.022457
-0.032386
-0.001704
0.019710
-0.046894
-0.020600
0.029990
-0.017088
0.001388
0.054899
0.123678
0.059873
0.104708
0.131441
0.119883
0.037085
0.148897
0.152585
0.059326
0.148205
0.115461
0.174639
0.196248
0.166010
0.100112
0.135066
0.073376
0.083869
0.077784
0.094427
0.110215
0.046833
0.128417
0.043974
0.062842
-0.015235
-0.050255
0.085538
0.053385
0.008896
0.042160
0.029209
0.031201
0.027281
-0.047595
0.079834
-0.038351
-0.047105
0.052130
-0.066312
0.015588
0.039576
-0.033354
-0.014866
-0.006948
0.053249
0.067488
0.210498
0.505470
0.722507
1.047800
1.416764
1.423071
1.267033
0.956957
0.679985
0.193524
0.061425
-0.189356
-0.283046
-0.176080
-0.175443
-0.019224
-0.022910
0.037495
0.034484
0.073047
0.036849
0.068203
0.168905
0.056990
0.049206
0.172859
0.084613
0.079772
0.188206
0.065053
0.212533
0.148902
0.140849
0.165278
0.182110
0.224091
0.280099
0.278669
0.282601
0.210111
0.310174
0.332159
0.361236
0.410318
0.386266
0.472495
0.390137
0.428552
0.493689
0.561173
0.501315
0.474399
0.515507
0.562683
0.491433
0.586657
0.528401
0.530664
0.582501
0.543779
0.503899
0.617314
0.509830
0.511770
0.468731
0.479594
0.411922
0.386560
0.386792
0.393091
0.325417
0.315229
0.340430
0.315439
0.342396
0.281145
0.274878
0.212759
0.108652
0.237016
0.193319
0.138250
0.104906
0.134879
0.193793
0.110738
0.144057
0.059325
0.141615
0.096386
0.031986
0.107642
0.066910
0.089856
0.129315
0.083449
0.009941
0.057128
0.119282
0.136636
0.074391
0.047398
0.116593
0.066948
0.065519
0.039028
0.020300
0.031900
0.072857
0.054220
0.078327
0.161823
0.017702
0.000254
-0.018942
0.007218
0.003028
0.033373
0.083641
0.093384
0.077598
0.087260
0.066057
0.013887
0.064621
0.014257
0.027819
0.094616
0.064011
0.083259
-0.002853
0.027043
0.024222
0.066361
0.161489
0.038554
0.091434
0.119511
0.095174
0.074298
-0.010493
0.096271
-0.007922
-0.072111
0.066357
0.113355
0.109991
0.107206
0.069470
0.137212
0.077964
0.144283
0.130208
0.180339
0.114409
0.145201
0.208495
0.088047
0.206022
0.178445
0.224618
0.210408
0.270287
0.193650
0.236224
0.239368
0.246091
0.306992
0.299305
0.252519
0.194488
0.220268
0.222029
0.175672
0.220334
0.212279
0.199700
0.182204
0.221803
0.208775
0.197081
0.062259
0.114749
0.156213
0.084466
0.127822
0.063547
0.029019
0.117780
0.100226
0.088317
0.004369
0.069460
0.108523
