0.051886
-0.066786
-0.138175
0.034449
-0.069606
0.036482
0.026705
0.003160
0.040122
0.044188
-0.019064
0.055601
-0.040881
0.065794
-0.071252
-0.004099
0.045923
0.036316
0.016103
0.051551
0.021075
0.046396
-0.021317
0.011590
0.179173
0.079678
-0.001396
0.053449
0.136677
0.118450
0.148708
0.213169
0.144355
0.100849
0.144937
0.147885
0.174886
0.175702
0.208710
0.171231
0.252710
0.167125
0.206245
0.201899
0.163149
0.181871
0.194752
0.079702
0.186034
0.174293
0.184055
0.155109
0.153152
0.143445
0.106457
0.115431
0.078740
0.091479
0.143765
0.176898
0.045099
0.018697
0.108032
0.138215
0.034528
0.021590
0.062670
0.053310
0.135447
0.051372
-0.015407
0.052685
0.005760
-0.006210
0.047237
0.048591
0.042324
0.085978
0.207894
0.380865
0.624964
0.957586
1.194780
1.437984
1.336181
1.277484
0.833406
0.460120
0.240254
-0.052594
-0.209434
-0.214823
-0.144589
-0.039867
0.043127
0.055037
0.056159
0.055146
-0.016860
0.025032
0.072192
0.124432
0.105710
0.067994
0.141486
0.204796
0.218963
0.110191
0.148958
0.091209
0.244087
0.223545
0.242414
0.233555
0.292238
0.291456
0.350543
0.232185
0.351969
0.260457
0.421129
0.348588
0.382317
0.460522
0.423599
0.507295
0.500178
0.520836
0.531489
0.531824
0.609676
0.552666
0.519166
0.548285
0.532665
0.545230
0.605390
0.522430
0.568323
0.577017
0.600053
0.512958
0.537172
0.446156
0.462487
0.485973
0.399625
0.406111
0.434681
0.360520
0.399576
0.403497
0.327985
0.348004
0.341869
0.274240
0.254591
0.263030
0.240709
0.228966
0.217097
0.122654
0.190235
0.147926
0.135069
0.164338
0.130113
0.176544
0.052269
0.095647
0.081042
0.095587
0.179800
0.089018
0.160562
0.052396
0.106741
0.112517
0.150003
0.079372
0.083216
0.084107
0.119860
0.065181
0.037568
0.149537
0.030810
0.206356
0.133792
0.073673
0.067352
0.058714
0.122619
0.076609
0.088194
0.012417
0.078537
0.026424
0.081989
0.128866
0.110863
0.149868
0.028644
0.131712
0.067080
0.131576
0.069434
0.081748
0.091156
0.082367
0.178914
0.082231
0.046574
0.105186
0.062863
0.095474
-0.053275
0.115830
0.053513
0.072574
0.122535
0.047364
0.151524
0.031570
0.076500
0.150101
0.158882
0.040689
0.034420
0.089927
0.090403
0.169890
0.132545
0.135596
0.070895
0.095319
0.090509
0.232604
0.223085
0.101501
0.130749
0.200913
0.183992
0.278507
0.170826
0.197945
0.324687
0.205056
0.206400
0.227606
0.235619
0.166818
0.230879
0.222442
0.229682
0.203938
0.206741
0.217963
0.220794
0.176298
0.177616
0.258271
0.171588
0.137414
0.176959
0.155521
0.128480
0.087239
0.101046
0.058082
0.134329
0.053829
0.165249
0.101249
0.105561
0.120576
0.137537
0.027923
0.036204
-0.002287
0.034652
0.059060
0.078039
0.079154
0.024042
0.070671
0.151835
0.321801
0.556924
0.919810
1.113679
1.394760
1.431264
1.366583
1.057582
0.573708
0.340013
0.060339
-0.193351
-0.133612
-0.175222
-0.124692
0.063017
0.016434
0.067608
0.022973
0.146625
0.195111
0.097028
0.130153
0.082129
0.125053
0.090196
0.084895
0.082191
0.110737
0.164800
0.201600
0.129259
0.131320
0.265400
0.162840
0.180882
0.274777
0.214043
0.293830
0.325441
0.331037
0.307391
0.369995
0.389154
0.384638
0.416285
0.485548
0.392169
0.436576
0.473430
0.472716
0.473658
0.511173
0.547654
0.513584
0.509535
0.554038
0.513746
0.489982
0.505665
0.587636
0.538898
0.476778
0.455816
0.531856
0.502627
0.558406
0.386927
0.390231
0.419507
0.390348
0.229511
0.337292
0.260214
0.314345
0.224468
0.301315
0.212284
0.157298
0.179037
0.186704
0.160604
0.205766
0.121477
0.132373
0.112660
0.209086
0.060193
0.084853
0.044098
0.131048
0.026076
0.048869
0.076576
0.028353
0.003741
0.071083
-0.015387
-0.007722
-0.075634
-0.051971
-0.055580
0.004680
0.026184
-0.069138
-0.014793
-0.030825
0.052854
0.017297
0.079001
0.066828
0.028290
0.027566
-0.000476
0.010737
0.042338
-0.028021
-0.082533
0.006059
-0.041235
0.007376
-0.002838
0.031374
-0.047903
0.021821
0.038005
0.007972
0.072459
0.027119
-0.003807
-0.032520
0.012226
-0.012584
-0.018824
0.032108
0.009015
-0.083697
0.033728
-0.041081
0.055306
0.015196
-0.045893
-0.012126
-0.064884
-0.039643
-0.032272
0.072415
-0.054589
-0.012377
0.063342
-0.003100
0.035333
0.059730
-0.055570
-0.061459
0.030364
0.082019
0.049341
0.000527
0.029094
0.086616
0.144298
0.182058
0.097062
0.187792
0.114800
0.177597
0.185250
0.198062
0.159806
0.146905
0.103125
0.159271
0.130071
0.168147
0.126638
0.146556
0.115923
0.076882
0.115248
0.063301
0.056224
0.088057
0.009846
-0.016379
0.105604
0.045329
0.015223
-0.074307
-0.027210
0.030297
-0.031587
-0.068548
0.004314
-0.000494
0.011946
-0.017134
0.021028
-0.020032
-0.011645
-0.065194
-0.021326
-0.066731
-0.044644
-0.044567
0.015837
-0.065878
0.052586
0.176206
0.390502
0.629465
0.975584
1.190535
1.263925
1.275601
1.148285
0.745649
0.261752
-0.017452
-0.242442
-0.317373
-0.270083
-0.188344
-0.135098
-0.032238
-0.056698
-0.054039
0.043928
-0.101194
-0.026612
0.053826
-0.052918
0.023220
0.046005
0.026274
0.054891
0.030888
0.066827
0.032207
0.027824
0.074172
0.106076
0.189233
0.181141
0.180294
0.168225
0.226512
0.171017
0.193184
0.160759
0.249054
0.342294
0.236835
0.305196
0.434766
0.360109
0.354543
0.400722
0.404137
0.493025
0.503094
0.513002
0.397511
0.384162
0.474995
0.479793
0.472887
0.549784
0.480469
0.440549
0.431458
0.434937
0.427279
0.414988
0.335114
0.372017
0.347623
0.279017
0.317640
0.229675
0.231361
0.249688
0.201108
0.195525
0.139293
0.222474
0.186659
0.153163
0.152895
0.055096
0.123970
0.104029
0.058149
0.042714
0.059147
0.005920
0.087866
0.003524
-0.020728
0.012182
-0.045446
0.005421
-0.003791
-0.018451
-0.004770
-0.054244
-0.040621
0.003403
0.004050
-0.051580
0.001313
-0.052412
-0.069324
-0.062204
-0.015942
-0.023022
0.049431
-0.035595
-0.104220
-0.084952
-0.042577
0.030361
-0.042612
-0.009386
0.005456
-0.054425
-0.073610
0.013883
-0.078898
0.031708
0.011381
-0.090784
-0.000298
-0.085440
0.037048
-0.088204
-0.068179
-0.024257
0.002072
-0.054402
-0.022033
-0.024392
-0.029241
-0.064441
-0.048192
-0.002729
0.022288
-0.008590
-0.043457
0.012456
-0.003603
0.043160
0.028268
-0.025887
-0.077090
-0.007062
-0.076857
-0.031762
-0.059717
-0.021928
0.029912
-0.011696
-0.010661
0.019320
0.022732
-0.034012
0.028770
0.035297
0.069541
0.098371
0.143964
0.149023
0.022251
0.084699
0.143110
0.117128
0.127489
0.147524
0.113153
0.166465
0.091704
0.142916
0.210835
0.168878
0.168274
0.147434
0.044360
0.144731
0.132683
0.134390
0.089681
0.140997
0.027827
0.114274
0.062676
0.043917
0.074551
0.086850
0.033525
-0.002665
-0.021819
0.028108
0.033060
-0.004323
0.023786
-0.003518
-0.015000
0.001011
0.066757
-0.021596
0.008769
-0.022216
-0.027316
-0.061046
-0.077438
0.027341
0.116289
0.274613
0.478415
0.770585
1.248373
1.410546
1.314437
1.217279
0.831996
0.479842
0.131616
-0.087803
-0.228649
-0.150112
-0.206400
-0.156149
-0.013173
-0.046188
-0.009303
-0.038541
0.034175
-0.001781
0.004000
0.107492
0.061722
0.123792
0.030993
0.093470
0.028554
0.122101
0.124294
0.147539
0.069828
0.169977
0.201755
0.188563
0.214247
0.233890
0.286458
0.263714
0.231050
0.296437
0.336465
0.377905
0.422075
0.393575
0.344899
0.371718
0.427967
0.449086
0.406630
0.513812
0.553941
0.489202
0.454459
0.539132
0.505281
0.536385
0.570232
0.512087
0.614533
0.467779
0.517088
0.505580
0.410411
0.458683
0.465070
0.414496
0.437288
0.458071
0.399517
0.419427
0.291082
0.281753
0.333935
0.291615
0.229090
0.312917
0.238036
0.171185
0.293955
0.147356
0.138521
0.241740
0.135153
0.138903
0.132150
0.098603
0.111026
0.099564
0.084795
0.131037
0.033850
0.063379
0.076518
0.137789
-0.015602
0.031613
0.220277
0.072039
0.103097
0.021745
0.097361
0.003551
0.075876
0.043537
0.118729
-0.006643
0.069893
0.061195
0.027496
0.140983
0.031221
0.044792
0.019885
0.060834
0.101387
0.079208
0.100322
0.069324
0.050617
0.123828
0.057447
0.122780
0.060365
0.022761
0.089331
0.079536
0.033569
0.061339
0.028807
0.012802
0.035553
0.063589
0.058610
0.061931
0.141423
0.081437
0.032645
0.085544
0.108481
0.079689
0.073134
0.089996
0.018552
0.150028
0.089837
-0.014191
0.107125
0.104455
0.046926
0.096249
0.150116
0.129850
0.060170
0.149143
0.139910
0.110937
0.069520
0.157942
0.161520
0.158600
0.150220
0.241006
0.145859
0.297171
0.217333
0.233427
0.251194
0.286997
0.214787
0.186593
0.241665
0.227929
0.292348
0.203800
0.294264
0.260181
0.162491
0.152546
0.259255
0.185867
0.129192
0.176986
0.169041
0.156876
0.124516
0.147968
0.194851
0.139581
0.153280
0.117468
0.162655
0.145000
0.130912
0.033853
0.083896
0.141193
0.081770
0.092071
0.108001
0.124984
0.121819
0.079478
0.036202
0.024271
0.020741
0.059683
0.142456
0.277214
0.525561
0.878651
1.203548
1.477207
1.500000
1.372568
1.078126
0.669752
0.336477
0.008449
0.002325
-0.154662
-0.125475
-0.087214
0.010982
0.070150
0.113653
0.113349
0.136624
0.117846
0.132368
0.157151
0.110588
0.129137
0.124743
0.240095
0.139565
0.190123
0.131720
0.280765
0.284089
0.313162
0.225169
0.276297
0.133923
0.413638
0.232131
0.318544
0.307605
0.354379
0.402794
0.446331
0.395068
0.453676
0.448470
0.523732
0.479613
0.382179
0.541501
0.512179
0.592332
0.444748
0.580514
0.634269
0.636953
0.561695
0.647987
0.566194
0.574009
0.510839
0.586962
0.636026
0.536960
0.555486
0.582527
0.582537
0.481361
0.567327
0.421614
0.504053
0.423723
0.391689
0.339345
0.297060
0.356431
0.193130
0.275744
0.281279
0.280544
0.259568
0.258721
0.130341
0.132403
0.211788
0.117982
0.174602
0.174264
0.167290
0.087740
0.059811
0.050453
0.072112
0.229718
0.152537
0.107630
0.119440
0.118012
0.125352
0.022585
0.123280
0.069170
0.090273
0.048249
0.142023
0.192785
0.017422
0.079955
0.108979
-0.014116
0.097346
0.073753
0.067312
0.038297
0.068640
0.090138
0.073781
0.048471
0.073646
0.061012
0.181248
0.037267
0.023634
0.073561
0.124718
0.089369
0.036963
0.189046
-0.012703
0.062453
0.031174
0.052395
0.023746
0.129695
-0.019559
0.093612
0.108619
0.049116
0.022680
0.044352
-0.012841
0.095978
0.074551
0.079369
0.093507
0.101822
0.051269
0.008616
0.154850
0.112063
0.042656
0.099893
0.111609
0.114110
0.139283
0.130136
0.084311
0.088222
0.093103
0.136715
0.093752
0.237006
0.165949
0.219991
0.128202
0.222354
0.088985
0.157347
0.181629
0.234469
0.244584
0.276898
0.257304
0.229767
0.230893
0.203398
0.220966
0.165236
0.218161
0.147679
0.156737
0.142994
0.129789
0.154514
0.092066
0.082574
0.074907
0.075274
0.056142
0.077395
0.074038
-0.003726
0.006297
0.001283
0.069036
0.047329
0.130644
0.060476
0.022455
-0.021021
-0.044888
0.038006
0.040958
0.033017
0.033688
-0.013703
-0.054294
0.149091
0.170253
0.361134
0.656342
1.028642
1.287857
1.401136
1.319711
1.053817
0.642160
0.357720
-0.059843
-0.189319
-0.200974
-0.245869
-0.187736
-0.078375
-0.086070
0.042744
0.018822
-0.015498
-0.064444
-0.021669
0.088384
0.045131
0.027053
0.064978
0.060962
0.032258
0.070527
0.064127
0.146050
0.117208
0.150063
0.115689
0.075543
0.195314
0.155388
0.162605
0.212165
0.220547
0.300793
0.283621
0.293699
0.357167
0.290807
0.376649
0.424965
0.458693
0.377673
0.382993
0.441552
0.381656
0.513072
0.465674
0.515438
0.476177
0.394296
0.494429
0.542826
0.512887
0.478243
0.505084
0.411552
0.448409
0.383778
0.498051
0.400105
0.419377
0.391709
0.305809
0.311786
0.338240
0.323299
0.222943
0.233962
0.267308
0.228016
0.219824
0.129724
0.174492
0.088006
0.108970
0.079162
0.108517
0.039460
0.073222
-0.005521
-0.008007
0.054653
-0.024729
-0.033498
0.029576
-0.066628
0.002636
0.050486
-0.045334
0.003836
0.012480
-0.070669
0.025100
-0.017250
-0.023189
-0.070635
0.049734
-0.041882
-0.010246
-0.106876
-0.086664
-0.010008
-0.037271
-0.009448
-0.013393
0.020457
-0.113893
0.005028
-0.040109
-0.083709
-0.069231
-0.082148
-0.060063
-0.097171
-0.101659
-0.081003
-0.115767
-0.090835
-0.064042
0.000792
0.026951
-0.111940
-0.031612
-0.055358
-0.110162
-0.056539
-0.087162
-0.022975
-0.123723
-0.122174
-0.069027
-0.045366
-0.038230
-0.048443
-0.049706
-0.001449
-0.036326
-0.070660
0.026016
-0.011630
-0.155250
-0.002345
-0.120733
-0.032689
-0.036085
-0.080323
-0.065963
-0.048561
-0.006284
-0.064156
0.000042
-0.006661
-0.016309
0.066368
-0.018309
0.056515
0.073089
0.025442
0.098073
0.049363
0.124859
0.108159
0.107194
0.102289
0.151767
0.126945
0.088108
0.122431
0.077475
0.127484
0.059760
0.097423
-0.002732
0.052936
0.073958
0.038824
0.030130
0.120078
-0.000995
-0.066746
-0.039883
0.007923
-0.031735
-0.069043
-0.122772
-0.028888
-0.095739
-0.089065
-0.101095
-0.098501
-0.065648
-0.025506
-0.083716
-0.087951
-0.025052
-0.003785
-0.105221
-0.047679
-0.049430
-0.105172
-0.067435
0.014511
0.189828
0.528751
0.908979
1.072275
1.251430
1.317616
1.069839
0.739925
0.419762
0.077981
-0.260299
-0.285153
-0.315370
-0.275564
-0.200298
-0.141949
-0.150557
-0.068257
-0.017021
-0.074731
-0.096888
-0.024505
-0.074573
-0.055318
-0.034010
-0.079361
-0.066263
0.058259
0.058047
0.049199
0.044844
0.090740
0.075818
0.067998
0.130139
0.159476
0.084233
0.117979
0.165090
0.175829
0.126702
0.217336
0.189477
0.302118
0.247204
0.310531
0.326321
0.308284
0.426872
0.380526
0.404500
0.436471
0.386404
0.435054
0.474848
0.483523
0.371992
0.364879
0.412950
0.454679
0.508309
0.351358
0.476097
0.446290
0.418655
0.252835
0.332221
0.326183
0.319149
0.335733
0.307812
0.274979
0.222511
0.170599
0.193491
0.175978
0.206920
0.100443
0.128165
0.113595
0.091300
0.023009
0.002060
-0.001882
0.045041
-0.031677
-0.045838
-0.022605
-0.033630
0.017320
0.059613
-0.005414
-0.021287
-0.024385
-0.023217
0.014690
-0.092016
-0.080385
-0.009249
-0.110408
-0.077750
-0.010066
0.020127
-0.098848
-0.068659
0.002866
-0.041467
-0.090254
0.007440
-0.047156
-0.086710
-0.027605
-0.068452
-0.100122
-0.062915
-0.086185
-0.117543
-0.056255
-0.113291
0.028986
-0.070481
-0.069593
-0.042156
-0.066022
-0.092614
-0.052527
-0.033798
-0.013913
-0.081128
-0.055858
-0.103052
-0.028163
-0.074865
-0.065335
-0.041350
-0.050858
-0.086334
-0.130745
-0.057430
-0.047082
0.002933
-0.100280
-0.052087
-0.113490
-0.024303
-0.058772
-0.053829
-0.017724
-0.060618
-0.000348
-0.015180
0.042103
0.017660
-0.038441
0.013600
0.081901
0.014745
0.009504
-0.011371
-0.006964
0.054294
0.069591
0.117662
0.036747
0.052801
0.093954
0.134990
0.085490
0.123494
0.214006
0.166496
0.203153
0.177565
0.122683
0.127370
0.171750
0.114847
0.174766
0.139166
0.086178
-0.018374
0.061202
0.100258
0.078350
0.040517
0.014246
0.067777
0.063034
0.024465
-0.010318
0.031528
0.012584
0.035524
0.053394
0.009200
-0.035824
0.062872
-0.023520
0.036429
-0.001209
-0.014117
-0.022844
0.014116
0.019166
-0.003539
-0.100330
-0.020605
0.084921
0.201530
0.433965
0.768450
0.987834
1.362671
1.375896
1.218391
0.925628
0.600434
0.339207
-0.030153
-0.228531
-0.263512
-0.238142
-0.123106
-0.081332
-0.013946
-0.046147
0.037632
0.061930
0.002221
-0.060858
-0.000637
0.036750
-0.000234
0.039787
0.025332
0.139661
0.132959
0.072713
0.058253
0.056985
0.129958
0.145430
0.213978
0.176472
0.210563
0.178437
0.287011
0.291259
0.274699
0.230646
0.282760
0.411516
0.416242
0.401299
0.389773
0.447063
0.431970
0.520519
0.474250
0.457575
0.437559
0.510944
0.549145
0.581875
0.504458
0.515143
0.458668
0.572245
0.475718
0.497466
0.560954
0.497074
0.495617
0.445828
0.513575
0.389947
0.458128
0.372846
0.367833
0.403803
0.293366
0.316014
0.318311
0.243185
0.222165
0.227143
0.214555
0.161597
0.207028
0.156761
0.138958
0.121160
0.069215
0.134187
0.139390
0.099580
0.124982
0.052643
0.055259
0.079795
0.154009
0.036616
0.086314
0.096320
0.052005
0.009002
0.006113
0.099258
0.055539
0.090019
-0.001597
0.009277
0.046830
0.074877
0.059670
0.112223
-0.057097
0.053443
-0.031252
0.027088
-0.014228
0.009869
0.069206
0.051692
0.067239
0.139209
0.072361
0.028431
0.098079
0.097746
0.027920
0.007204
0.039853
0.007190
0.047471
0.055493
0.025993
0.083033
0.100120
0.032730
0.023695
0.033009
0.046609
0.010833
-0.056869
0.115742
0.062706
0.060793
0.008589
0.004022
0.009310
0.159760
-0.028351
0.032070
0.114710
0.137397
-0.034012
0.106575
0.075276
0.006203
0.060476
-0.003124
0.000499
0.057445
0.055061
0.152819
0.204369
0.165670
0.093906
0.146128
0.146609
0.219309
0.161299
0.227230
0.260912
0.196011
0.309612
0.297140
0.175117
0.160501
0.271187
0.172654
0.155394
0.265591
0.205525
0.211505
0.290666
0.105662
0.154041
0.087349
0.079181
0.149031
0.084514
0.132887
0.041730
0.088374
0.043381
0.058846
0.103075
0.028429
0.095943
0.021985
0.118946
0.100002
0.046821
0.049414
0.038758
0.066376
0.120027
0.027254
0.026431
0.034709
-0.012091
0.018919
0.016188
0.057408
0.220852
0.523779
0.795690
1.053112
1.315889
1.396799
1.329112
1.157659
0.678101
0.354813
0.130982
-0.155814
-0.167482
-0.235550
-0.127854
-0.065360
-0.032798
0.038856
0.084620
-0.038094
0.038979
0.084173
-0.015570
0.051381
0.139379
0.125193
0.049518
0.112177
0.118340
0.129294
0.136850
0.112164
0.114281
0.147497
0.285829
0.176140
0.275637
0.228662
0.259957
0.278684
0.349317
0.356811
0.349410
0.312939
0.395246
0.342063
0.391035
0.464211
0.371231
0.520637
0.461465
0.512787
0.502172
0.514589
0.532504
0.504650
0.538387
0.547433
0.499182
0.510466
0.511376
0.464578
0.455883
0.500019
0.509885
0.407304
0.364346
0.462710
0.350500
0.347594
0.360334
0.375322
0.317202
0.251582
0.258325
0.327160
0.214867
0.201305
0.098456
0.183071
0.172708
0.212185
0.204821
0.129322
0.100920
0.156132
0.136534
0.086050
0.068827
0.082129
0.010473
0.024577
0.061766
0.044447
0.027853
0.093362
-0.010637
0.021198
-0.006002
0.008619
-0.001316
0.014784
0.047121
0.115338
-0.046152
-0.003362
0.069726
-0.014540
-0.043854
0.007696
0.024544
-0.029656
-0.039084
-0.020046
-0.066545
0.022737
-0.026322
-0.000080
-0.008614
-0.033338
0.010922
-0.062109
-0.008472
-0.012062
0.126565
-0.085718
-0.071761
0.038816
0.002536
0.011584
-0.044711
-0.040493
-0.047982
0.023571
-0.025783
-0.018996
0.049232
-0.058972
0.032343
-0.096509
-0.005619
-0.040011
-0.017369
0.019075
-0.037462
0.028375
0.004822
0.054249
-0.076667
-0.078512
0.052662
0.001401
-0.014549
-0.026656
0.009827
-0.012164
0.042721
0.081845
0.048067
-0.000269
0.069370
0.063477
0.049098
0.099258
0.075046
0.126745
0.100849
0.131059
0.099543
0.155541
0.090243
0.107299
0.110330
0.081986
0.070468
0.171234
0.104730
0.047100
0.032838
0.095307
0.089466
0.010785
-0.002460
0.046221
0.032553
-0.022002
0.018281
0.051712
-0.009947
0.067746
-0.045186
0.000332
-0.015837
-0.042199
-0.010680
-0.073567
-0.010991
-0.064004
-0.095199
-0.023384
-0.052281
-0.088235
-0.084137
-0.088461
-0.057972
-0.063454
-0.059238
-0.083545
0.019130
0.250559
0.545179
0.730494
1.161645
1.222662
1.277812
1.115549
0.786942
0.427466
0.066217
-0.189657
-0.346226
-0.342509
-0.275901
-0.186527
-0.157203
-0.074882
-0.090199
-0.068631
-0.064139
-0.084036
-0.032710
-0.060420
-0.042442
-0.056902
0.106661
-0.034553
0.031970
0.036625
0.010001
0.056151
0.078592
0.009816
0.084723
0.106990
0.195427
0.055936
0.182137
0.149537
0.160624
0.213387
0.252859
0.226671
0.285743
0.302682
0.237612
0.343452
0.307117
0.391904
0.380098
0.386251
0.404462
0.393919
0.385212
0.393033
0.461054
0.450668
0.460475
0.350128
0.429083
0.417451
0.450766
0.391424
0.418267
0.362726
0.312966
0.308694
0.265410
0.244471
0.294788
0.174755
0.220782
0.114012
0.133598
0.233706
0.115714
0.160971
0.120257
0.059802
0.063106
0.020153
-0.002689
0.105070
0.028114
-0.044513
-0.046747
0.027160
0.005209
-0.006074
-0.094805
-0.061201
-0.051268
-0.080583
-0.006907
-0.102948
-0.058074
-0.076035
-0.076513
-0.025653
-0.032905
-0.079724
-0.017163
-0.088941
-0.081053
-0.147971
-0.121424
-0.152206
-0.043671
-0.105039
-0.107872
-0.169343
-0.166004
-0.104377
-0.162763
-0.062064
-0.075947
-0.032978
-0.112233
-0.073152
-0.120919
-0.025819
-0.122561
-0.105975
-0.069487
-0.132372
-0.045837
-0.175170
-0.060843
-0.105909
-0.144825
-0.092997
-0.141763
-0.062923
-0.065208
-0.153685
-0.112377
-0.117085
-0.057916
-0.121345
-0.110363
-0.114077
-0.134379
-0.077880
-0.073183
-0.117974
-0.132004
-0.126127
0.000967
-0.128084
-0.059870
-0.050114
-0.096419
-0.063996
-0.127980
-0.058696
0.003816
-0.084071
-0.078107
-0.045218
0.021363
-0.022531
-0.033286
0.024858
0.047122
0.025360
0.060924
0.013158
-0.001121
0.155999
0.087335
0.145066
0.188713
0.090369
0.028589
0.054967
0.029406
0.105604
0.090845
0.138559
0.084349
0.046207
-0.027356
-0.033036
0.107163
-0.005451
-0.051898
-0.009483
0.017467
-0.105311
-0.061853
-0.019807
-0.123432
-0.086436
-0.060925
-0.045599
-0.107187
-0.063075
-0.043636
-0.069659
-0.030596
-0.031344
-0.108329
-0.107725
-0.061481
-0.017814
-0.110751
-0.061350
-0.033864
0.073356
0.376335
0.694912
1.071645
1.247467
1.250584
1.168434
0.986021
0.503178
0.225819
-0.112653
-0.304660
-0.388082
-0.330215
-0.255847
-0.123684
-0.110458
-0.114421
-0.065561
-0.126407
0.032076
0.006856
-0.038695
-0.053112
-0.028581
-0.028851
0.052997
0.048776
-0.032356
0.068106
0.022126
0.022443
0.134728
0.113266
0.181530
0.092645
0.145092
0.152848
0.161587
0.198103
0.262434
0.297826
0.276320
0.299610
0.219852
0.290280
0.287143
0.326630
0.334629
0.420344
0.473518
0.483252
0.367262
0.427017
0.413962
0.372905
0.431226
0.445161
0.378465
0.411673
0.444524
0.403986
0.434579
0.405926
0.407749
0.362954
0.382130
0.406729
0.282558
0.357586
0.308234
0.317659
0.285764
0.139799
0.256126
0.172727
0.211470
0.081354
0.080756
0.051158
0.102372
0.151406
0.071940
0.016197
0.085965
0.088771
0.037163
-0.069837
0.025114
0.045963
-0.018058
0.032598
-0.022980
-0.054697
-0.019770
0.015445
-0.097699
0.004728
0.006158
-0.046022
-0.055211
-0.032327
-0.063162
-0.067801
-0.027331
0.006747
-0.048791
-0.132185
-0.031156
-0.064594
0.007298
0.021174
0.031972
-0.065192
-0.061374
0.022500
0.041001
-0.021634
0.002616
-0.043585
-0.022342
-0.014146
-0.061449
0.028692
-0.013850
0.030859
0.020465
-0.036248
0.042778
0.017934
-0.069769
0.059684
0.059969
-0.026959
0.035836
0.003148
0.002665
0.070549
0.081886
-0.045445
0.067604
-0.007790
-0.022772
-0.023162
0.045512
0.030144
-0.065168
0.053506
0.106445
-0.000159
-0.010116
0.055676
0.003753
0.054460
0.076971
0.139921
0.069230
0.097503
0.087687
0.086544
0.161578
0.075455
0.113206
0.142013
0.223460
0.081379
0.222480
0.162651
0.203646
0.222293
0.123607
0.143256
0.224128
0.148784
0.203631
0.208088
0.194192
0.238698
0.181454
0.239778
0.103372
0.210771
0.108307
0.084214
0.149723
0.174439
0.125007
0.081204
0.115632
0.142948
0.058603
0.056442
0.136927
0.033001
0.066200
0.046828
0.048229
0.014360
0.062712
0.068751
0.094291
0.052230
-0.017579
-0.093342
0.060167
-0.041739
0.028621
0.062604
0.134577
0.387134
0.756525
1.060204
1.318409
1.387471
1.348379
1.117742
0.744844
0.421948
0.120776
-0.132553
-0.226075
-0.142913
-0.123157
-0.058113
0.056977
-0.042171
0.072071
0.053850
0.057713
0.041428
0.020080
0.079502
0.132849
0.110949
0.143550
0.134501
0.171126
0.062131
0.131632
0.162623
0.244381
0.187428
0.208897
0.229209
0.258011
0.267607
0.226613
0.368255
0.235613
0.422503
0.362230
0.409335
0.364901
0.339970
0.460647
0.515115
0.416478
0.523253
0.566798
0.431640
0.629912
0.556909
0.579545
0.561904
0.581344
0.584994
0.489825
0.587404
0.515019
0.562858
0.557589
0.546226
0.469761
0.508441
0.522490
0.439441
0.469757
0.465063
0.479513
0.396267
0.296772
0.398714
0.397101
0.390660
0.275258
0.224732
0.253652
0.268391
0.180304
0.262074
0.212492
0.121510
0.289717
0.147490
0.157534
0.143195
0.143430
0.095921
0.104865
0.060438
0.066596
0.146642
0.055685
0.085939
0.143706
-0.008901
0.017443
0.153171
0.061961
0.090088
0.091737
0.075145
0.043285
0.153353
0.048775
0.089761
0.060717
0.115436
0.045473
0.132356
0.114085
0.100946
0.070989
0.056476
0.187606
0.005114
0.152543
0.019428
0.050074
0.086217
0.104668
0.108112
0.076174
0.041438
0.021246
0.072720
0.014617
0.019764
