-0.041935
-0.050143
0.020752
-0.034206
-0.038724
0.028244
0.042042
0.054356
0.092824
0.000631
0.000497
0.002359
0.014681
-0.054958
-0.043193
-0.071099
-0.004824
0.081304
0.028394
0.013451
-0.031773
0.032346
-0.056804
-0.000115
0.030345
-0.014171
0.036241
-0.039821
-0.070848
0.020869
0.074026
-0.037524
0.009865
0.022417
0.078256
0.108972
0.055896
0.043695
0.055783
0.115433
0.081666
0.096700
0.138808
0.239226
0.155808
0.157364
0.168865
0.166053
0.198924
0.212775
0.162480
0.218418
0.199736
0.269223
0.190252
0.170067
0.218483
0.110663
0.255378
0.112360
0.125120
0.109661
0.099352
0.106457
0.252437
0.100965
0.128838
0.123034
0.146612
0.070189
0.099430
0.076540
0.100951
0.073814
-0.018591
0.044163
0.089052
0.131365
0.044539
0.013324
0.113345
0.028309
0.052304
0.051701
0.060627
0.047413
0.064174
0.093031
0.041492
0.039998
0.056570
0.004716
0.037077
0.006875
-0.031431
-0.007401
0.001361
0.075798
0.088134
0.393636
0.607102
0.965312
1.268188
1.500000
1.485932
1.358081
1.005282
0.681200
0.361979
0.042975
-0.093098
-0.256128
-0.273281
-0.191761
-0.095505
-0.107360
-0.040441
0.054759
0.052403
0.132410
0.090080
0.188214
0.096909
0.035831
0.043129
0.130377
-0.011961
0.101854
0.072497
0.078042
0.060779
0.016487
0.068876
0.055457
0.123555
0.073757
0.099360
0.086934
0.153094
0.164003
0.049764
0.162339
0.208823
0.277289
0.253730
0.215234
0.240703
0.221609
0.364023
0.270964
0.317669
0.340264
0.437056
0.346726
0.390440
0.454360
0.459463
0.334146
0.497075
0.543743
0.579316
0.561735
0.546688
0.619521
0.561245
0.548092
0.567333
0.517941
0.562857
0.580378
0.587947
0.456193
0.546997
0.500082
0.550877
0.530565
0.499595
0.501309
0.498107
0.435677
0.459986
0.418125
0.426461
0.390434
0.367316
0.335047
0.361021
0.367803
0.252462
0.208385
0.237852
0.277011
0.269736
0.282322
0.191954
0.216503
0.206837
0.062817
0.141383
0.146718
0.149146
0.085859
0.172709
0.119584
0.144417
0.120223
0.104610
0.081970
0.099428
0.057377
0.135822
0.042215
0.093070
-0.001763
0.116393
0.077659
0.079959
0.191312
0.074739
0.146284
0.067420
0.099500
0.046196
0.093965
0.067541
0.100098
0.060496
-0.001621
0.055922
0.162321
0.049039
0.095613
0.034319
0.173381
0.174530
0.123241
0.051166
-0.024110
0.135833
0.014016
0.119626
0.095777
0.041573
0.134218
0.094977
0.086412
0.035968
-0.032240
0.175345
0.087855
0.128751
0.038888
0.034839
0.048408
0.106480
0.103482
0.019944
0.106991
0.079933
-0.004811
0.017123
0.077606
0.039651
0.112146
0.088403
0.119685
0.079336
0.072114
0.125491
-0.001407
0.085589
0.148702
0.086937
0.101554
-0.005966
0.052637
0.047659
0.091893
0.017344
0.065241
0.038762
0.082215
0.063529
0.031601
0.133680
0.064557
0.022633
0.048841
0.056907
0.081647
0.022040
0.124923
0.166019
0.007685
0.132065
0.074599
0.084577
0.060094
0.159076
0.187281
0.194925
0.165467
0.205815
0.242679
0.188393
0.187958
0.228196
0.224600
0.265592
0.149689
0.258861
0.276206
0.214394
0.161291
0.159095
0.176706
0.200287
0.158607
0.227248
0.124072
0.182903
0.115336
0.119132
0.152442
0.204993
0.102525
0.134341
0.087226
0.121984
0.045872
0.098149
0.075722
0.038013
0.067176
0.079190
0.032043
0.033695
0.061912
0.142721
0.053916
0.120208
-0.046569
0.044248
0.002478
0.090467
0.009483
0.069966
-0.011997
0.068599
-0.003955
0.016790
0.047813
0.019970
0.001503
0.014583
-0.015573
0.027023
0.096967
0.323102
0.742365
1.079847
1.332816
1.420310
1.435593
1.164722
0.859623
0.545591
0.204453
-0.068060
-0.230663
-0.281807
-0.284556
-0.201096
-0.045608
-0.040898
-0.003169
0.035827
0.038628
0.015540
0.007188
0.097984
0.042329
-0.027856
0.018240
0.000577
0.046792
0.058027
-0.073840
0.033483
0.032078
0.004181
-0.005034
0.115223
0.121301
0.029882
-0.012054
0.146628
0.056993
0.214101
-0.001294
0.112965
0.150034
0.155453
0.104296
0.145606
0.167910
0.257783
0.191954
0.247363
0.192736
0.329903
0.247038
0.305724
0.322374
0.377854
0.478424
0.392346
0.434883
0.354297
0.400158
0.473814
0.452458
0.502387
0.566578
0.473741
0.496855
0.498299
0.592916
0.579821
0.496434
0.562073
0.448145
0.406530
0.436911
0.460386
0.423151
0.372181
0.398853
0.452662
0.312193
0.294041
0.345425
0.290521
0.252434
0.269382
0.212923
0.201339
0.183517
0.199794
0.212106
0.096218
0.129402
0.067088
0.080491
0.037526
0.043878
0.043918
0.130150
-0.027727
-0.004880
0.002319
-0.004338
-0.013774
0.079693
-0.005541
-0.001669
0.010206
-0.046628
-0.051481
0.113137
-0.077846
0.052119
0.069988
-0.001488
-0.047032
-0.064176
-0.018814
0.004165
-0.036109
-0.088231
-0.097771
-0.007199
-0.019164
0.023273
0.003400
-0.013504
-0.099701
-0.092200
-0.045625
-0.041961
-0.054403
-0.070091
0.029857
-0.081867
-0.110834
-0.034246
-0.045669
-0.081541
-0.058343
-0.082438
-0.006717
-0.097000
0.004949
-0.040756
0.002256
-0.031624
0.024869
-0.038006
0.014499
-0.029365
-0.032981
-0.016688
0.003665
-0.029589
0.029658
-0.018235
-0.095590
-0.045220
-0.001492
-0.000938
-0.056845
-0.122958
-0.067823
-0.033013
-0.046873
0.005101
0.036888
-0.041957
-0.086401
-0.078133
-0.048385
-0.138042
-0.024383
-0.070731
-0.044649
-0.109081
-0.057268
0.008323
-0.010649
-0.082810
-0.030125
-0.052130
-0.113952
-0.012212
-0.059105
-0.038655
0.039800
-0.027222
0.035661
-0.046920
-0.058608
-0.018381
-0.001778
-0.071907
0.083191
-0.045185
0.143531
0.061862
0.000966
0.016374
0.113104
0.077783
0.024879
0.101330
0.086178
0.168787
0.129945
0.119820
0.095952
0.150054
0.126876
0.165607
0.054277
0.134481
0.107456
0.047492
0.085336
0.028346
0.143996
0.093672
0.127151
0.029542
0.042976
-0.027366
0.083399
-0.070512
-0.009275
-0.045075
-0.043286
-0.060089
0.046324
-0.065314
0.006570
0.043584
0.004966
-0.042570
0.055263
0.008370
-0.071887
-0.028567
0.006950
0.018210
-0.084834
-0.029408
0.031491
-0.084585
-0.037036
-0.036071
-0.007647
-0.020363
-0.046197
-0.121430
-0.104667
-0.145859
-0.106058
0.034239
0.140617
0.484791
0.794874
1.055571
1.317464
1.374723
1.281203
1.132437
0.669965
0.362564
0.043931
-0.182562
-0.368705
-0.392975
-0.297269
-0.219293
-0.140146
-0.015694
-0.069805
-0.009073
0.030361
-0.009484
-0.033493
-0.011736
-0.105519
-0.026337
-0.070169
-0.009434
-0.031809
-0.002189
0.003461
-0.024847
0.081895
0.009314
-0.039830
-0.005919
0.006736
0.072289
0.054635
-0.002194
0.113600
0.054967
0.054067
0.141051
0.129648
0.128006
0.078851
0.110417
0.155774
0.164319
0.290798
0.185985
0.212528
0.279613
0.321214
0.247130
0.326446
0.306034
0.365569
0.335766
0.386656
0.397925
0.433520
0.422590
0.441251
0.421469
0.484673
0.435746
0.444902
0.517981
0.498213
0.466129
0.481178
0.463143
0.414662
0.434676
0.453369
0.522570
0.417864
0.373947
0.336512
0.295879
0.289690
0.282355
0.218263
0.320028
0.316339
0.171601
0.240064
0.170502
0.167211
0.167208
0.132687
0.146052
0.163657
0.008213
0.098120
0.070957
0.070208
-0.005436
0.065589
0.025948
0.031853
-0.017176
0.058726
0.120825
0.061487
0.055070
0.023606
0.012356
0.096057
0.039245
0.012461
0.028838
-0.058441
0.033303
0.014496
-0.006150
0.012104
0.016597
-0.014835
0.006485
0.047817
0.043475
-0.025540
0.032569
0.051904
0.018426
0.059760
-0.011156
-0.005547
0.018789
0.025132
0.087094
0.020943
0.093570
0.065571
0.104951
0.026981
0.016485
0.090851
0.054899
0.049999
0.005714
0.003588
0.095813
0.052266
0.052583
-0.013789
0.061862
0.098332
0.045267
0.021393
-0.061757
0.049384
0.088982
0.106333
0.019103
-0.001691
0.014581
0.074895
0.012075
0.054547
0.099805
0.016495
0.036188
-0.014503
0.063625
0.061327
0.013052
0.023947
0.057397
-0.016229
0.060658
0.024866
0.029647
0.073558
0.080920
0.061508
0.006285
0.065063
0.087835
0.040472
0.084502
-0.034598
0.032871
0.035260
0.117487
0.044642
0.102924
-0.006468
0.030239
0.062507
0.019251
0.087740
0.108851
0.123341
0.073126
0.140152
0.150107
0.190666
0.122543
0.222183
0.100819
0.185420
0.267747
0.212718
0.202858
0.192779
0.228191
0.267995
0.228901
0.258901
0.230429
0.176540
0.213758
0.265596
0.221367
0.190393
0.192168
0.245326
0.118165
0.210015
0.124463
0.174275
0.106875
0.101762
0.125931
0.060554
0.087661
0.136782
0.173138
0.089937
0.078906
0.178119
0.118852
0.117760
0.054669
0.115784
0.068684
0.157501
0.096049
0.183188
0.061058
0.023159
0.141352
0.113129
0.096295
0.061560
0.045568
0.071143
0.063157
0.089710
0.095820
0.058967
0.000265
-0.016073
0.073283
0.131620
0.456764
0.643215
0.998574
1.301802
1.476140
1.456597
1.309720
0.977778
0.650954
0.320386
0.038272
-0.147534
-0.165967
-0.201537
-0.207391
-0.119669
0.001022
0.054177
0.042526
0.099886
0.036901
0.031464
0.072234
0.098857
0.130975
0.085663
0.125229
0.133498
0.160568
0.101420
0.130398
0.145889
0.086923
0.205778
0.118341
0.112057
0.119614
0.142051
0.159811
0.221519
0.188775
0.126488
0.201139
0.200337
0.232316
0.243078
0.274495
0.257173
0.277978
0.271474
0.300868
0.298178
0.385609
0.317667
0.383200
0.390156
0.403742
0.446063
0.504731
0.523225
0.493401
0.536917
0.584396
0.510049
0.547617
0.565890
0.621279
0.582907
0.515678
0.651364
0.541044
0.555410
0.579970
0.576890
0.500886
0.552592
0.595283
0.492472
0.499330
0.554230
0.437516
0.428678
0.426341
0.411106
0.418816
0.398838
0.356858
0.322377
0.272077
0.328525
0.297155
0.306513
0.272229
0.260169
0.259074
0.193846
0.199588
0.112621
0.227142
0.183263
0.100466
0.174156
0.072326
0.152379
0.108368
0.114798
0.045607
0.100368
0.135326
0.078115
0.102987
0.106008
0.141251
0.083554
0.043597
0.172927
0.067895
0.099764
0.059919
0.069233
0.033099
0.081421
0.123691
0.126661
0.131266
0.050331
-0.033217
0.108279
0.044011
0.130505
0.066314
0.153498
0.102938
0.082461
0.070008
0.060710
0.039856
0.083233
0.079750
0.024551
0.097199
0.102905
0.048125
0.094534
0.124176
0.016836
0.030713
0.026517
0.084448
0.083895
0.109235
0.098277
0.130060
0.029184
0.029146
0.054814
0.007260
0.067155
-0.011180
0.129161
0.091760
0.095253
0.040092
0.010965
0.088915
0.060274
-0.007641
0.151707
0.057615
0.056907
0.057702
0.063814
0.077120
0.085924
0.165533
-0.040221
0.065804
0.034571
0.031070
0.054717
0.103677
0.119373
0.071718
0.036486
0.055710
0.075383
-0.009866
0.152098
0.064991
0.062534
0.079202
0.075361
0.089204
0.079097
0.072352
0.112373
0.127551
0.111764
0.183766
0.059609
0.172706
0.152446
0.122123
0.155327
0.144499
0.142906
0.214747
0.195316
0.174131
0.209304
0.232054
0.165140
0.200132
0.252019
0.167062
0.174015
0.111534
0.102862
0.134360
0.191726
0.073661
0.156175
0.212226
0.124436
0.062573
0.144252
0.112622
0.102721
0.122218
0.067269
0.006100
0.073328
0.016804
0.133988
-0.017308
0.074794
0.013181
0.158712
0.021190
0.112574
0.008596
-0.031627
-0.019273
0.043931
-0.052121
0.050541
0.044196
0.065965
-0.028231
0.006736
0.009205
-0.039365
0.005470
0.021400
0.047083
-0.078638
-0.104817
0.049762
0.149618
0.471042
0.693001
1.093728
1.380571
1.404884
1.289467
1.144230
0.823426
0.480826
0.188824
-0.075955
-0.272186
-0.328911
-0.260020
-0.185994
-0.123055
-0.077184
-0.018860
0.012031
0.006891
0.047198
-0.055034
0.015709
0.021536
-0.040186
-0.000096
0.065060
0.069980
0.025552
-0.040526
0.043492
0.043550
0.077393
0.025783
0.068306
0.060287
0.048043
0.016727
0.032468
0.101328
0.074160
0.046872
0.069164
0.089965
0.136073
0.089582
0.054657
0.168593
0.202107
0.179996
0.141720
0.227178
0.255049
0.244405
0.268635
0.360607
0.305770
0.346942
0.332957
0.397508
0.440025
0.426407
0.352462
0.359005
0.385564
0.342250
0.410807
0.443868
0.434434
0.484931
0.462334
0.608823
0.499378
0.509275
0.475411
0.410873
0.395468
0.423667
0.267606
0.347096
0.333876
0.278088
0.271738
0.230912
0.291908
0.218910
0.160269
0.199047
0.170804
0.116790
0.110552
0.122703
0.140109
0.054864
0.040256
0.067557
0.014234
0.095625
0.087972
-0.014922
-0.029415
-0.084503
-0.014940
-0.007167
-0.060722
-0.022206
0.139707
0.013688
0.039297
-0.056545
0.023935
-0.028606
-0.040712
-0.020371
-0.031705
-0.121958
-0.038825
-0.043615
-0.109921
-0.015994
-0.093436
0.000430
0.020657
-0.094585
-0.013676
-0.120930
-0.033372
-0.117369
-0.025062
-0.074356
-0.070911
-0.068310
-0.034192
-0.071957
-0.002104
-0.107666
-0.160261
-0.077607
-0.028811
-0.104840
-0.019056
-0.027574
-0.102118
-0.070941
0.004392
-0.009473
-0.069676
-0.084056
-0.050326
-0.071522
-0.089237
-0.106351
-0.073493
-0.066790
-0.081116
-0.089675
-0.129586
0.059284
-0.039939
-0.066601
-0.030425
-0.102521
-0.055261
-0.062403
-0.056899
-0.022490
-0.089480
-0.060634
-0.026122
-0.099018
-0.093712
-0.024746
-0.107422
-0.073141
-0.065577
-0.065748
-0.134906
-0.198774
-0.142636
-0.004214
-0.069438
-0.026570
-0.124023
0.023129
-0.107697
-0.084168
-0.123507
-0.117350
-0.059524
-0.125249
-0.020375
-0.043262
-0.070548
-0.040374
0.032154
-0.055451
-0.032408
-0.012965
-0.013682
-0.042588
0.096028
-0.010990
0.061161
0.046196
0.002357
0.085747
0.030927
0.123112
0.070368
0.085550
0.020490
0.050425
0.089292
0.101927
0.064536
-0.000532
0.062915
0.090647
0.132665
0.010373
0.029540
-0.024048
0.012901
-0.033459
-0.060144
-0.073656
0.048180
-0.079112
-0.071760
-0.000824
-0.025245
-0.031484
-0.062181
-0.004717
-0.071430
-0.119896
-0.043743
-0.058414
-0.008262
-0.088472
-0.018728
-0.035153
-0.036505
-0.067296
-0.036118
-0.149440
-0.097896
-0.043978
-0.092902
0.019463
-0.111125
-0.068432
-0.118467
-0.139636
-0.162505
-0.193125
-0.168774
0.073555
0.073667
0.382652
0.812356
1.012565
1.283898
1.306557
1.160116
0.853526
0.619186
0.321594
-0.013982
-0.221193
-0.351095
-0.390497
-0.385979
-0.235077
-0.159134
-0.151223
-0.060230
-0.095007
-0.051174
-0.118087
-0.010743
-0.087818
-0.036949
-0.007428
0.002020
-0.060339
-0.017646
-0.135292
-0.082407
-0.078089
-0.047988
0.003437
0.010300
0.013935
-0.045822
0.033946
0.019149
0.047333
0.022230
0.003841
0.053768
0.093984
0.023951
0.118709
0.120318
0.109915
0.086029
0.157451
0.197413
0.161631
0.198027
0.225931
0.245174
0.269959
0.268234
0.384629
0.393128
0.341326
0.324084
0.446031
0.408246
0.449175
0.378341
0.407788
0.334904
0.428079
0.471739
0.445875
0.429344
0.455636
0.450592
0.389297
0.469996
0.437352
0.448342
0.307227
0.454920
0.344781
0.332268
0.336948
0.327094
0.234196
0.158115
0.213621
0.217256
0.290712
0.123073
0.155093
0.150078
0.115742
0.133067
0.056530
0.152508
0.039714
0.065808
0.030924
0.092778
0.115451
0.095448
0.018150
-0.004757
0.076312
0.021881
0.036225
0.034261
-0.077281
-0.083913
0.012484
0.010805
-0.041318
-0.094446
-0.031392
0.002669
-0.053780
-0.023585
0.063376
-0.021668
0.010408
0.031764
0.020233
-0.042448
0.007169
-0.032882
-0.008165
-0.011480
-0.036172
-0.015093
-0.073504
-0.020428
0.002348
0.052068
-0.008638
0.056685
-0.055078
0.012280
-0.080289
-0.008830
0.050679
-0.004423
-0.071145
-0.016503
0.015806
0.080105
0.003046
-0.024673
-0.040464
-0.037534
-0.018768
-0.045108
-0.027073
0.008925
0.042601
-0.013343
-0.026864
-0.001354
0.053970
-0.007515
0.030456
-0.078689
-0.051286
0.027796
-0.017729
-0.002865
-0.030980
-0.004877
-0.013234
0.011567
0.053167
-0.041769
-0.007236
0.057284
0.047813
-0.004158
-0.045076
0.014478
0.016536
0.045293
-0.003309
0.014868
-0.019011
-0.010694
0.113658
-0.020590
0.083210
0.041429
0.057974
0.005427
0.053587
0.097971
0.048385
0.112996
0.019920
-0.042787
0.059931
0.024005
0.095342
0.104037
0.084467
0.205217
0.104794
0.129239
0.111965
0.188810
0.154062
0.160074
0.290058
0.186461
0.219210
0.181905
0.192110
0.210808
0.147796
0.169499
0.212984
0.155534
0.060085
0.154344
0.177131
0.151642
0.198031
0.080435
0.033087
0.048434
0.140601
0.144065
0.020873
0.039932
0.125323
0.104643
0.043880
0.024203
0.006643
0.019172
0.094840
-0.024644
0.067546
0.066486
0.105586
0.052826
0.001532
0.016869
0.075811
0.080114
0.006921
0.086817
0.093666
-0.033241
0.065398
0.104690
-0.007402
0.032069
-0.030265
0.009277
-0.019244
-0.034168
0.035027
0.183748
0.437041
0.702398
1.076506
1.283985
1.464379
1.482364
1.126358
0.840403
0.565444
0.206539
0.027327
-0.260034
-0.204137
-0.280396
-0.222967
-0.129006
-0.025937
-0.016063
0.041740
0.052344
0.046585
0.074030
0.026913
0.048497
0.067441
0.002006
-0.038265
0.076534
0.057043
0.056976
-0.042676
0.118975
0.108648
0.073427
0.050822
0.161111
0.054765
0.091427
0.108452
0.060080
0.107804
0.149318
0.183604
0.155183
0.197982
0.167538
0.258266
0.212856
0.318132
0.215156
0.219013
0.246946
0.305636
0.325700
0.327065
0.403351
0.417612
0.396507
0.415405
0.455752
0.471715
0.494347
0.590644
0.488147
0.536218
0.538439
0.579704
0.558636
0.556234
0.612412
0.516435
0.564859
0.504386
0.588162
0.559255
0.486874
0.455696
0.495137
0.442164
0.459332
0.431594
0.426091
0.406474
0.341775
0.309686
0.283945
0.292550
0.279626
0.266996
0.256868
0.258325
0.149054
0.163147
0.232687
0.215856
0.118301
0.164795
0.141204
0.075273
0.028408
0.074177
0.093221
0.101172
-0.019044
0.111473
-0.015508
0.097397
0.050736
0.048359
0.045231
0.067306
0.094427
-0.085277
0.045840
-0.014383
-0.024564
-0.010377
0.091370
-0.001780
0.027347
0.075400
-0.023278
-0.014997
0.062248
-0.053027
0.011570
0.019631
0.051887
0.087800
-0.050842
0.043034
0.091860
0.069613
0.020811
0.091553
-0.012629
0.031408
0.095987
0.021586
0.011417
0.012906
-0.044900
0.010575
-0.005967
0.006396
0.039958
-0.019406
0.048354
-0.024610
0.015261
0.019270
0.054128
0.037559
-0.060000
-0.019293
0.061960
-0.025974
0.026359
-0.057693
-0.046578
-0.001782
-0.034215
0.029758
0.030991
0.028652
-0.021111
0.035985
-0.019581
-0.021082
-0.003785
0.066542
0.047501
0.060912
-0.049532
0.050494
0.016613
-0.005771
0.029286
0.020969
-0.003586
0.026654
-0.020462
0.032177
0.052885
0.003537
-0.010598
-0.002178
-0.016423
-0.018751
0.005085
-0.004634
-0.011349
0.012002
-0.002951
0.017502
0.137632
0.071297
0.070566
0.088836
0.086837
0.046941
0.071721
0.052174
0.128147
0.213282
0.086067
0.168229
0.175080
0.149843
0.109325
0.212363
0.140630
0.156785
0.172699
0.184159
0.175787
0.105785
0.178224
0.120337
0.055173
0.140578
0.138499
0.133882
0.154549
0.098545
0.010758
0.060386
0.125850
0.058997
0.070874
0.031883
0.048968
-0.043045
-0.061179
-0.036778
-0.021703
-0.019554
-0.013584
-0.023897
-0.014072
-0.012422
0.013895
-0.046514
0.005929
-0.045274
-0.127535
-0.077160
0.082631
-0.038261
0.007481
0.060213
-0.028309
-0.060111
-0.104607
-0.142332
-0.134097
-0.115716
-0.145584
0.151819
0.467621
0.714974
1.044672
1.302319
1.351538
1.210122
0.978543
0.706292
0.298767
-0.003741
-0.163328
-0.372879
-0.330361
-0.366759
-0.162457
-0.180526
-0.131120
-0.164330
-0.096817
-0.049647
-0.117424
-0.046431
-0.028025
-0.074805
-0.100013
0.039810
-0.085125
0.045890
0.031355
-0.032321
-0.006843
-0.017325
-0.015142
0.077830
-0.072330
-0.040677
0.049746
0.022303
0.039850
0.017237
0.041960
0.067497
0.044081
0.034338
0.084811
0.174512
0.046696
0.168196
0.081062
0.166386
0.238820
0.190650
0.144176
0.255275
0.244053
0.262741
0.315125
0.341987
0.334341
0.358970
0.358457
0.363749
0.369371
0.433882
0.446850
0.433526
0.410303
0.450541
0.442868
0.439094
0.417242
0.443471
0.390074
0.393255
0.366692
0.354187
0.344474
0.392452
0.360189
0.319604
0.244901
0.275630
0.243288
0.200428
0.216732
0.168736
0.136679
0.194660
0.073329
0.187472
0.047708
0.114902
0.085428
0.150881
0.007613
0.023432
-0.042485
-0.037120
0.010340
-0.014903
-0.007652
-0.076484
-0.102152
-0.028550
-0.151524
-0.043114
-0.096303
-0.028405
-0.145423
-0.079058
-0.045141
-0.094753
-0.104925
-0.166383
-0.128403
-0.099876
-0.138950
-0.074677
-0.148650
-0.111113
-0.043107
-0.090746
-0.128780
-0.118420
-0.056900
-0.111020
-0.114769
-0.132020
-0.176865
-0.095535
-0.057813
-0.085260
-0.132367
-0.072595
-0.154636
-0.069163
-0.106116
-0.132716
-0.149597
-0.131147
-0.129687
-0.153550
-0.011819
-0.132927
-0.026712
-0.070245
-0.146677
-0.116273
-0.087783
-0.044337
-0.090220
-0.066853
-0.051219
-0.080941
-0.093128
-0.141407
-0.084621
-0.076309
-0.061699
-0.059795
-0.118019
-0.147510
-0.140000
-0.067846
-0.080905
-0.112877
-0.062568
-0.029828
0.018193
-0.091464
-0.107446
-0.090083
-0.060833
-0.106628
-0.125099
-0.053639
-0.084835
-0.097641
-0.089860
-0.100451
-0.094322
-0.145077
-0.072302
-0.104744
-0.127969
-0.082995
-0.074350
-0.064871
-0.077914
-0.128950
-0.143008
-0.002313
-0.032244
-0.092298
0.005323
-0.029061
0.011546
-0.004886
0.014091
0.018638
0.016309
0.004002
0.108560
0.092365
0.142728
0.058754
0.030849
0.007958
0.042292
-0.059613
0.052606
0.133043
0.099036
0.032429
0.087890
0.027939
-0.000385
0.048632
0.108965
-0.001630
-0.052447
0.082850
0.067461
0.036761
-0.074398
0.001527
-0.075973
-0.018427
-0.058256
-0.034578
-0.002222
-0.129834
-0.045341
-0.089535
-0.135655
-0.021793
-0.083514
-0.183144
-0.053856
-0.016387
-0.078481
-0.123653
-0.105289
-0.044659
-0.084047
-0.085816
-0.096217
-0.009597
-0.076508
-0.055885
-0.098036
-0.081710
-0.067058
-0.157730
-0.235331
-0.148015
-0.209621
0.022783
0.304478
0.555865
0.842936
1.219000
1.313323
1.339641
1.116598
0.850245
0.566697
0.239204
-0.074198
-0.232447
-0.276798
-0.365787
-0.348380
-0.308489
-0.145729
-0.149643
-0.080833
-0.035729
-0.109671
-0.032626
-0.056931
-0.101919
-0.036777
-0.025778
-0.060038
-0.017001
-0.066704
-0.049069
-0.063096
-0.103905
0.009869
-0.076071
0.077680
0.001884
-0.110741
-0.007669
0.052106
0.055421
-0.019685
0.028489
0.024245
0.081993
0.038177
0.177462
0.187845
0.126813
0.134776
0.162322
0.204062
0.198728
0.212606
0.332231
0.226901
0.242219
0.303862
0.260792
0.311836
0.361011
0.426643
0.398515
0.444311
0.431847
0.481379
0.445906
0.444642
0.528170
0.433696
0.364546
0.435485
0.409193
0.488805
0.414098
0.422064
0.451903
0.413086
0.445014
0.430863
0.324011
0.357201
0.341151
0.300378
0.250500
0.271753
0.278977
0.232033
0.299279
0.193828
0.198077
0.169511
0.195226
0.141077
0.122774
0.052640
0.057001
-0.015379
0.170288
-0.020533
0.041489
0.011352
-0.002350
0.014748
0.035497
-0.063464
-0.019682
-0.005935
0.037238
-0.054096
0.010156
0.047471
-0.029108
0.009990
0.012912
0.029372
-0.022329
0.017570
-0.011160
-0.042606
0.046832
-0.025807
-0.007656
0.051129
-0.012237
0.055182
-0.051117
-0.058892
-0.008044
-0.042146
0.018696
-0.013330
-0.037640
-0.002370
0.038233
0.008583
-0.110226
0.066415
0.023706
-0.048980
0.051970
-0.034954
-0.048640
0.034114
0.075995
0.025985
0.033479
-0.023758
-0.034534
0.013082
-0.005011
0.007612
0.015605
0.062164
0.053624
-0.046884
0.039191
0.020239
-0.022874
-0.029003
0.037252
0.073126
0.084792
0.020884
0.046719
0.002035
0.048602
0.004606
0.118227
0.037369
0.066406
-0.003654
0.065711
0.084194
0.066166
0.013696
0.040953
0.051904
0.053216
-0.023737
0.001743
-0.022657
0.040491
-0.025592
0.065123
-0.003711
0.009878
-0.021815
-0.008099
0.071247
0.082940
0.121499
-0.004880
0.092605
0.066912
0.083059
0.129263
0.091238
0.095742
0.150532
0.144323
0.186027
0.149167
0.193978
0.177850
0.216450
0.215362
0.163165
0.259541
0.223880
0.163583
0.242426
0.253281
0.370709
0.178697
0.163127
0.124530
0.119869
0.222241
0.207234
0.224084
0.154775
0.166921
0.126197
0.137321
0.102153
0.143796
0.084331
0.077798
0.089221
0.076210
0.119122
-0.034981
0.049136
0.033301
0.078106
0.178969
0.015054
0.084734
0.011744
0.114798
0.149417
0.053561
-0.061290
0.035035
0.063881
0.171641
0.097003
0.047479
0.061360
0.025443
0.094355
0.116368
-0.024454
0.021253
0.024738
-0.103524
-0.011776
0.044859
0.306617
0.465515
0.761722
1.117566
1.282822
1.469504
1.366682
1.132605
0.872382
0.540518
0.200185
-0.028449
-0.183612
-0.261197
-0.258087
-0.195380
-0.044438
0.063396
0.118043
0.024663
0.108222
0.072444
0.044715
0.060998
0.076072
0.138114
0.054819
0.113048
0.125638
0.078977
0.054428
0.130765
0.121491
0.036640
0.081148
0.090898
0.111329
0.167304
0.089179
0.095030
0.187160
0.228037
0.070004
0.196880
0.172185
0.191924
0.247270
0.257065
0.275545
0.254983
0.294126
0.184033
0.317361
0.285674
0.363671
0.357594
0.341131
0.392868
0.406770
0.401247
0.475223
0.469762
0.493203
0.446836
0.618723
0.536043
0.589677
0.534461
0.620676
0.544531
0.574162
0.563312
0.559859
0.583577
