-0.046893
-0.076542
0.029449
-0.011806
-0.034394
0.040519
-0.037689
-0.076866
0.000551
0.002513
0.022911
-0.069434
0.033850
0.075850
-0.073848
0.074430
0.044805
0.061725
-0.005400
0.001125
-0.048123
0.041983
0.018479
0.020736
0.011517
0.079413
0.063902
0.060254
0.037030
0.023823
0.124379
0.117887
0.068814
0.137587
0.135228
0.133273
0.156864
0.228505
0.185157
0.144162
0.228467
0.224186
0.190395
0.175030
0.139479
0.134691
0.245895
0.190731
0.168621
0.230942
0.239518
0.158998
0.231449
0.193510
0.146674
0.181757
0.123263
0.085846
0.114545
0.047021
0.115415
0.105202
0.030620
0.120924
0.089334
0.053886
0.020969
0.029473
0.016085
0.049633
0.047257
0.072242
0.045045
0.013364
0.028342
0.076217
0.045929
0.065877
0.030955
0.017234
0.036494
-0.066554
-0.004942
0.036152
0.135471
0.287701
0.563994
0.895338
1.235514
1.355921
1.483996
1.288660
0.965946
0.651994
0.294885
0.021669
-0.159864
-0.265587
-0.151288
-0.066585
-0.089106
-0.037493
0.007624
0.132426
0.068496
0.101173
0.098415
0.117412
0.062453
0.097273
0.159056
0.058519
0.159545
0.112392
0.135356
0.125862
0.123920
0.125102
0.182501
0.128953
0.188691
0.227125
0.208877
0.211173
0.264714
0.291844
0.240627
0.252357
0.318553
0.326893
0.284311
0.359010
0.470506
0.460495
0.472724
0.468697
0.519269
0.506772
0.540311
0.471402
0.541411
0.523782
0.576687
0.515813
0.585847
0.635839
0.563596
0.660312
0.593961
0.517867
0.566037
0.534537
0.457920
0.565807
0.501116
0.586551
0.480374
0.397856
0.491142
0.493497
0.344234
0.409653
0.343646
0.331557
0.291693
0.251968
0.281041
0.327625
0.259084
0.227542
0.115823
0.166872
0.164761
0.179066
0.223318
0.137676
0.138020
0.163587
0.206644
0.086149
0.118160
0.138966
0.001587
0.103840
0.086547
0.089535
0.143103
0.103582
0.121819
0.171119
0.134843
0.143989
0.059503
0.110808
0.046299
0.083347
0.069557
0.125942
0.115514
0.098674
-0.005689
0.090461
0.071391
0.062750
0.100134
0.088590
0.016705
0.145009
-0.018738
0.045391
0.082724
0.092883
0.129266
0.063580
0.006236
0.080716
0.052900
0.099768
0.000714
0.096175
0.115417
0.166703
-0.000921
0.056773
0.059287
0.100460
0.027738
0.082498
0.055189
0.146473
0.135037
0.107952
0.086527
-0.021812
0.101894
0.046181
0.003291
0.153677
0.100677
0.036004
0.123580
0.076056
0.070480
0.066130
0.156052
0.117188
0.129810
0.092545
0.117496
0.127420
0.131632
0.084168
0.078870
0.117460
0.084513
0.142234
0.161407
0.137330
0.200353
0.167707
0.154376
0.239852
0.257830
0.164725
0.244397
0.168358
0.247607
0.287423
0.177287
0.257272
0.252575
0.310091
0.127839
0.218676
0.156901
0.186759
0.169144
0.128002
0.193677
0.227855
0.189423
0.172649
0.177114
0.098102
0.064081
0.135536
0.162977
0.074832
0.098366
0.133917
0.087172
0.106801
0.059480
0.039512
0.097382
0.119988
0.103758
0.153780
0.088008
0.013678
0.075573
0.124460
0.025808
-0.098703
0.029658
-0.015920
0.018986
0.069087
0.093504
0.336625
0.626493
0.973012
1.302442
1.465038
1.428816
1.251711
0.927288
0.573114
0.278778
-0.131207
-0.154792
-0.156527
-0.224564
-0.157362
-0.110670
-0.040639
0.011754
0.041075
0.066473
0.076025
0.116341
0.117131
0.012265
0.038981
0.040179
0.143986
0.110893
0.077276
0.096454
0.056726
0.063331
0.140884
0.228991
0.092133
0.130553
0.190598
0.186731
0.177012
0.244072
0.205837
0.235887
0.304301
0.314857
0.306534
0.284550
0.254517
0.391765
0.307794
0.356987
0.410453
0.502739
0.506338
0.434484
0.498731
0.439365
0.488487
0.566969
0.524976
0.557265
0.582172
0.494307
0.579098
0.463932
0.547916
0.469311
0.534917
0.450922
0.469040
0.427437
0.390397
0.406396
0.317645
0.415208
0.343647
0.312356
0.320791
0.325735
0.249287
0.249477
0.232457
0.261240
0.171105
0.186437
0.155889
0.194525
0.078359
0.037086
0.092521
0.101493
0.068536
0.008586
0.129792
0.001874
0.073229
0.071936
-0.000516
0.083917
0.026005
0.069341
0.020050
-0.022819
0.012543
-0.047056
0.070668
0.066055
0.007023
0.050385
0.044112
-0.005344
0.021954
0.073118
0.054909
0.022680
0.067620
0.049627
0.006962
-0.003874
0.024750
-0.044177
-0.073736
-0.065205
0.033481
-0.026135
0.009236
0.001193
-0.094982
-0.010307
0.026841
-0.018345
-0.014444
-0.004311
-0.011956
0.048530
-0.069475
0.064240
0.042021
-0.009985
0.027222
-0.089324
-0.034179
0.049921
-0.008552
-0.101705
-0.037335
0.001068
-0.096145
-0.014358
-0.013287
-0.002113
0.021008
0.049948
-0.070246
0.027819
0.053239
0.048653
-0.008665
-0.025080
0.018474
-0.009501
-0.016588
0.008443
0.066473
-0.003236
-0.003002
0.036927
0.014565
0.074613
0.058087
-0.010232
0.053753
0.061729
0.064538
0.118105
0.030113
0.087080
0.099511
0.080816
0.088353
0.097357
0.081013
0.195491
0.153876
0.017740
0.164811
0.127321
0.178033
0.088678
0.118539
0.154354
0.126461
0.052096
0.063693
0.044169
-0.003877
0.042441
0.116506
0.070763
0.056501
0.044322
-0.051875
0.015168
0.060972
-0.017694
0.087317
-0.033749
-0.059882
-0.089484
-0.025377
-0.084333
-0.017730
-0.066157
-0.043705
0.020295
0.008511
-0.079854
-0.019711
-0.020886
-0.080575
-0.013005
-0.103847
-0.070139
-0.075611
0.065563
0.295361
0.561508
0.842673
1.131285
1.335111
1.192875
1.149966
0.792312
0.454126
0.024620
-0.130233
-0.278336
-0.289740
-0.297278
-0.132357
-0.189941
-0.057728
-0.002951
0.013791
0.001983
0.054988
-0.065600
-0.023165
-0.063079
-0.044843
-0.046850
-0.006199
0.011727
0.035156
0.041949
0.071255
-0.027060
0.034120
0.104632
0.046341
0.131203
0.036829
0.207765
0.183336
0.140303
0.125133
0.129487
0.222917
0.249494
0.196843
0.200615
0.213062
0.281404
0.224414
0.333828
0.353421
0.391421
0.411006
0.400239
0.362204
0.355971
0.413330
0.458619
0.407397
0.439719
0.407209
0.434716
0.430014
0.451632
0.423448
0.462671
0.372200
0.343295
0.427530
0.393747
0.358782
0.336743
0.342781
0.268006
0.345327
0.282990
0.215169
0.144163
0.210818
0.203016
0.129762
0.129499
0.130952
0.138759
0.124530
0.079002
0.045338
0.071091
0.089358
0.080779
0.050777
-0.003204
-0.077785
0.001998
0.080744
0.002106
-0.026700
0.042991
0.048805
-0.053012
-0.051831
0.031999
-0.059655
-0.054822
-0.074027
-0.039857
-0.031416
-0.007009
0.048514
0.034929
0.048768
-0.092384
-0.047292
-0.049967
0.004796
0.004526
0.028214
-0.073734
-0.074227
0.021678
-0.013697
-0.026331
-0.064202
0.002269
-0.028207
0.013506
-0.051496
-0.027857
-0.016305
-0.051574
0.007470
-0.068852
0.010682
-0.052375
-0.029107
-0.019815
-0.040892
-0.003410
-0.039945
-0.092228
-0.030583
-0.005783
-0.024458
-0.053246
0.024296
-0.019788
0.007017
0.010064
-0.037836
-0.043813
-0.059235
-0.051766
-0.048313
-0.019279
0.003222
0.000824
-0.022116
0.028609
-0.033347
0.013238
0.005989
0.061818
0.000959
0.039566
0.008108
0.077020
0.119237
0.045602
0.034747
0.031465
-0.021330
-0.002808
0.026151
0.163054
0.103698
0.089414
0.119842
0.172534
0.105625
0.300387
0.135914
0.195914
0.171921
0.138683
0.200492
0.217582
0.190311
0.133493
0.182443
0.101141
0.127733
0.177473
0.100769
0.143662
0.209369
0.125029
0.157608
0.153416
-0.004908
0.006031
0.072640
0.068370
-0.002328
0.027265
0.006524
0.029008
0.058843
0.013044
-0.010134
0.076058
-0.065746
0.084098
0.035756
0.103901
-0.014837
-0.021197
0.068669
0.044079
-0.037585
0.013037
0.009112
-0.060704
0.088865
0.128435
0.391454
0.678379
0.935235
1.330233
1.490889
1.377531
1.233683
0.787846
0.457269
0.095432
-0.050189
-0.200402
-0.182303
-0.211568
-0.099616
-0.011572
0.014402
0.020031
0.056719
0.078945
0.106707
0.110826
0.034830
0.051122
0.084551
0.027546
0.078486
0.065295
0.127391
0.042901
0.092324
0.169418
0.148011
0.164330
0.194004
0.153019
0.199327
0.217377
0.182368
0.230520
0.138441
0.270956
0.291905
0.346145
0.332817
0.361681
0.305016
0.381322
0.435249
0.454179
0.389165
0.496551
0.484437
0.524276
0.497595
0.511268
0.570671
0.542438
0.581631
0.596443
0.654512
0.609658
0.493139
0.518649
0.581037
0.559598
0.554542
0.511167
0.589381
0.553411
0.530177
0.456500
0.455148
0.405056
0.415757
0.394478
0.343040
0.248230
0.311081
0.352612
0.269039
0.172355
0.213431
0.213000
0.213189
0.191936
0.145695
0.138982
0.076329
0.162626
0.170412
0.093451
0.110937
0.065526
0.087858
0.110484
0.128989
0.099936
0.127582
0.109654
0.033983
0.023074
0.058827
0.063353
0.099398
0.049501
0.098504
0.131554
0.067255
0.027429
0.097495
0.066996
0.018495
0.056102
0.028005
0.082366
0.050647
0.062010
0.065992
0.059055
0.141886
0.051218
0.065582
0.134540
0.081534
0.105552
0.013225
0.083776
0.079045
0.155647
0.136558
0.073304
0.122904
0.068885
0.096331
0.068938
0.097743
0.101834
0.090594
0.103121
0.149039
0.105791
0.150224
0.114676
0.049121
0.165074
0.069545
0.118074
0.160401
0.121110
0.064758
0.118431
0.096411
0.122621
0.078255
0.082529
0.118762
0.123384
0.171308
0.148672
0.149386
0.079998
0.150825
0.179806
0.130226
0.087834
0.178931
0.152336
0.137304
0.081819
0.115726
0.212632
0.177361
0.221260
0.209300
0.171227
0.235714
0.211648
0.239148
0.276710
0.285100
0.268379
0.267161
0.210782
0.308863
0.332113
0.302744
0.199537
0.261260
0.257982
0.204719
0.210228
0.193341
0.236595
0.158191
0.179079
0.216294
0.118275
0.085086
0.153743
0.190178
0.160041
0.094857
0.107735
0.102126
0.045220
0.108345
0.134519
0.159925
0.135521
0.136896
0.073849
0.195100
0.154093
0.105822
0.148340
0.116765
0.070080
0.071825
0.107353
0.095423
0.119658
0.133313
0.222634
0.431624
0.769267
1.050664
1.339698
1.500000
1.400138
1.246290
0.828668
0.470827
0.265329
-0.012913
-0.191899
-0.146295
-0.132155
-0.168710
-0.042150
0.065993
0.098470
0.109844
0.116312
0.081971
0.018841
0.043527
0.150493
0.090892
0.112492
0.071533
0.132017
0.125899
0.125626
0.083520
0.183342
0.178714
0.185873
0.163190
0.196915
0.201956
0.164005
0.250480
0.172050
0.326632
0.356583
0.281273
0.379369
0.374833
0.466074
0.392953
0.448041
0.508160
0.471867
0.468597
0.496990
0.538764
0.497625
0.515723
0.500171
0.628983
0.528363
0.594299
0.597078
0.674860
0.545327
0.481799
0.566995
0.575376
0.462330
0.522906
0.522987
0.539638
0.407667
0.408831
0.484841
0.395347
0.408927
0.416570
0.393614
0.363566
0.310753
0.231215
0.321280
0.282257
0.290570
0.296609
0.254229
0.191707
0.153543
0.172396
0.141913
0.110022
0.045078
0.114900
0.035076
0.087068
0.130368
0.139015
0.106143
0.087298
0.070296
0.077255
-0.029069
0.067303
0.153651
0.134244
0.030989
0.105250
-0.069545
0.056303
0.002654
0.017836
0.024233
-0.046322
-0.015157
0.081577
0.013743
0.037921
0.027802
-0.024638
0.106055
0.049842
0.026841
0.044486
0.062853
0.014705
0.104036
-0.029098
0.097590
0.038060
-0.000988
0.125658
0.019496
0.026553
0.060114
0.012017
0.092683
0.006783
-0.000050
-0.002262
0.040084
-0.001276
-0.019456
0.030910
0.077767
0.048758
0.100101
0.043833
-0.014109
0.040371
0.027594
0.012850
0.031349
-0.019539
-0.021899
0.060649
-0.001678
0.041938
0.031278
0.002865
-0.030095
-0.097980
0.001622
-0.063092
0.075980
0.035608
-0.056979
0.001413
0.000421
0.066875
0.013507
0.058656
-0.021601
0.108113
0.078861
0.120349
0.119596
0.164768
0.135035
0.129299
0.134304
0.163153
0.122892
0.203782
0.167018
0.216973
0.130259
0.164240
0.167993
0.101903
0.109331
0.073602
0.103872
0.066406
0.130887
0.000632
0.172177
0.115952
0.067642
0.057619
0.012175
0.071098
0.016264
0.100233
-0.091556
-0.000523
-0.112425
0.001958
0.004732
0.008761
0.041714
-0.009923
0.052935
-0.022135
-0.056904
-0.052413
0.021941
-0.032420
-0.113263
0.018423
-0.062976
0.054342
-0.032958
-0.100343
-0.051120
0.016076
0.104182
0.308577
0.716714
0.943695
1.266949
1.365491
1.204926
1.046120
0.633257
0.418845
0.008182
-0.245606
-0.353234
-0.294667
-0.254747
-0.123200
-0.171303
-0.037474
-0.029223
-0.023197
-0.080618
0.046271
0.011721
-0.039082
-0.033792
-0.044160
-0.050268
-0.006697
0.067044
-0.025714
0.031110
0.053502
0.134220
0.064310
-0.007975
0.088653
0.127238
0.141762
0.130622
0.053767
0.061416
0.194906
0.228849
0.195197
0.227450
0.271549
0.214678
0.256750
0.320026
0.341789
0.310596
0.351798
0.375856
0.393539
0.403534
0.426622
0.360568
0.462289
0.505335
0.482493
0.420519
0.467765
0.438772
0.488498
0.392321
0.444315
0.397124
0.448160
0.339017
0.320501
0.386620
0.338866
0.346723
0.292800
0.228139
0.198062
0.173627
0.160381
0.177357
0.279847
0.211814
0.176928
0.058362
0.099141
0.100441
0.061512
0.051164
0.080081
0.064742
0.050363
-0.024075
-0.042440
0.028155
-0.001690
-0.038979
-0.062222
-0.084527
-0.049013
-0.061270
-0.071198
-0.047379
-0.076998
-0.052128
-0.027235
-0.093546
-0.017281
-0.117011
-0.105816
-0.082482
-0.095264
-0.070855
-0.086778
-0.083924
-0.116281
-0.091750
-0.153052
-0.065603
-0.094901
-0.163504
-0.093107
-0.087371
-0.147588
-0.111995
-0.088917
-0.082807
-0.073665
-0.113590
-0.074885
-0.078153
-0.139259
0.043199
-0.069774
-0.058436
-0.158657
-0.123871
-0.110077
-0.062899
-0.073467
-0.038817
-0.058908
-0.082402
-0.045333
-0.146918
-0.095239
-0.021786
-0.092435
-0.085735
-0.055207
-0.044078
-0.093544
-0.115549
-0.035476
-0.039296
-0.125204
-0.005973
0.017880
-0.031536
-0.060320
-0.080164
-0.164044
-0.097373
-0.084291
-0.049904
-0.065896
0.005453
0.063456
-0.046614
0.031223
-0.030379
-0.087282
-0.022731
-0.050346
-0.007617
-0.022880
0.070275
0.083046
0.084793
0.118421
0.083187
0.054184
0.137670
0.128324
0.105189
-0.007805
0.057693
0.141184
0.087077
0.040868
0.045334
0.114954
0.069094
0.048135
-0.023882
0.018805
-0.021988
0.030224
0.037235
0.002534
-0.084889
0.003441
0.033860
-0.039393
0.038113
0.009158
-0.087549
-0.014202
-0.058839
-0.027095
-0.033303
-0.037422
0.015193
-0.042209
-0.076801
-0.151383
-0.023393
-0.061148
-0.045128
-0.057019
-0.032921
-0.141282
-0.047671
-0.126963
-0.047342
-0.040972
0.095500
0.407417
0.714439
1.022065
1.207867
1.325791
1.193526
0.973142
0.637187
0.300922
-0.009728
-0.310805
-0.358456
-0.313483
-0.263178
-0.225745
-0.175589
-0.115823
-0.089881
-0.044356
-0.058655
-0.030229
0.002995
-0.014146
-0.004527
-0.044593
0.010098
-0.005980
-0.020491
-0.043523
-0.043791
0.042014
0.002862
-0.039984
0.112414
0.008714
0.049615
0.082301
0.102067
0.117120
0.164607
0.124439
0.179035
0.252602
0.273865
0.273204
0.299603
0.249914
0.317461
0.389822
0.336444
0.348913
0.365438
0.404196
0.427329
0.438736
0.478878
0.490148
0.480870
0.499861
0.363424
0.430704
0.388410
0.508762
0.392552
0.434497
0.487298
0.448394
0.352259
0.403869
0.349897
0.329402
0.374694
0.260664
0.271450
0.248100
0.298794
0.219377
0.258180
0.303274
0.195838
0.199258
0.202544
0.130444
0.145917
0.104495
0.109554
0.062397
0.092352
0.107217
0.057525
-0.062449
0.038975
0.024837
0.024846
-0.008600
0.015101
-0.032383
0.050309
0.003745
-0.038332
-0.050910
-0.099783
0.005038
0.053837
0.008732
-0.009467
-0.032091
-0.059786
-0.047344
0.005360
0.015755
0.017148
0.048998
-0.031411
0.010934
-0.052243
-0.031272
-0.038353
-0.050233
-0.094463
-0.017288
0.051936
0.015623
-0.038202
0.058416
0.051416
0.035678
-0.087658
0.073129
0.001988
0.064308
0.023981
-0.041469
-0.032009
-0.017475
0.030232
-0.083962
-0.020275
0.034284
0.014799
0.057472
0.001653
0.030118
0.039372
0.023934
0.012070
0.004498
0.003442
-0.046524
0.006548
-0.053749
-0.037349
0.071780
0.002998
0.005186
0.111891
0.024565
0.119584
0.065679
0.098644
0.045607
0.006850
-0.022058
0.005453
0.054797
0.105133
0.027672
0.106771
0.039452
0.117354
0.071743
0.041678
0.131528
0.146632
0.109257
0.111710
0.148336
0.314301
0.119347
0.258230
0.178394
0.253893
0.219888
0.231845
0.180319
0.192290
0.094519
0.165812
0.167383
0.157889
0.110001
0.208415
0.141922
0.088309
0.155983
0.083366
0.114620
0.144749
0.110626
0.101978
0.074910
0.073320
0.077947
0.063098
0.019737
0.057089
0.088162
0.065299
0.030618
0.100164
0.043749
0.072492
0.079293
0.031304
0.040005
0.025321
0.096412
0.041724
0.061319
0.071099
0.010584
0.069524
0.084070
0.303824
0.562328
0.768772
1.131455
1.320808
1.425773
1.339036
1.032422
0.683002
0.317826
0.076497
-0.169445
-0.184391
-0.123343
-0.118819
-0.076112
-0.021923
-0.010154
-0.034569
0.078813
0.100931
0.174511
0.016257
0.016661
0.046475
0.098777
0.051626
0.112129
0.144970
0.057815
0.107658
0.089829
0.177270
0.106746
0.124080
0.115316
0.231056
0.207673
0.178508
0.215964
0.214956
0.267095
0.323166
0.298297
0.322852
0.360844
0.435827
0.426311
0.398524
0.399132
0.453585
0.449841
0.465308
0.487745
0.506188
0.604458
0.493077
0.546680
0.561670
0.501071
0.597855
0.528361
0.538134
0.484218
0.525235
0.497620
0.548238
0.501384
0.561452
0.559234
0.376873
0.452086
0.378315
0.340693
0.439929
0.352534
0.252337
0.344348
0.295077
0.328907
0.309095
0.237999
0.269681
0.176702
0.229827
0.185870
0.189677
0.120334
0.184103
0.057246
0.145678
0.082958
0.091662
0.132608
0.065345
0.021278
0.015464
0.048048
0.103761
0.063905
-0.006711
-0.027552
0.000829
0.065589
0.034415
0.039444
0.013397
0.053444
-0.037566
0.080471
0.040908
0.113777
-0.026264
0.013333
0.104540
0.120171
0.088513
0.082828
0.071761
0.065589
0.033656
0.115439
0.024092
-0.041001
0.047273
0.084295
0.016016
0.036232
0.038560
0.015800
0.105849
0.002153
0.091213
0.046551
0.024116
0.113281
0.068013
0.038302
0.006865
0.051446
0.046700
-0.001111
0.028941
0.071396
0.046984
0.050349
-0.001833
-0.030762
-0.092070
-0.001290
0.060740
0.022931
0.076757
-0.051150
0.034068
-0.066232
0.091385
0.004570
-0.015908
0.006350
0.048956
0.117913
0.041503
0.007470
0.027977
0.108310
0.050891
0.107453
0.083727
0.075981
0.134434
0.065645
-0.032934
0.058431
0.162664
0.099734
0.121626
0.069529
0.104672
0.132731
0.185298
0.133997
0.136599
0.189121
0.160516
0.134092
0.120846
0.108560
0.171118
0.172286
0.108917
0.090509
0.148082
0.088649
0.019774
0.126183
0.067097
0.116330
0.090902
0.122716
-0.022756
0.039402
0.023386
0.068284
-0.017295
0.015506
-0.036188
0.046409
0.033677
0.011635
-0.070994
0.001181
-0.113888
-0.080697
0.003902
-0.083593
-0.031991
-0.039446
0.010883
0.043373
-0.073027
-0.062291
-0.085403
0.029995
0.195420
0.469617
0.773111
1.127130
1.278991
1.404615
1.240971
0.987323
0.569615
0.230767
0.012254
-0.249210
-0.348781
-0.262105
-0.163683
-0.171871
-0.071680
-0.047006
-0.029332
-0.092694
-0.077021
-0.004367
0.071262
0.042279
-0.061444
-0.023337
0.043563
0.012426
0.046791
-0.042446
-0.031431
0.045738
0.107287
0.103443
0.086164
0.009095
0.081890
0.095986
0.153695
0.120805
0.204434
0.123309
0.204488
0.269369
0.236403
0.262008
0.254155
0.386081
0.263774
0.356315
0.365394
0.401308
0.430798
0.433118
0.462025
0.401417
0.490675
0.412561
0.432613
0.476125
0.421823
0.411495
0.426549
0.485351
0.502287
0.312318
0.424741
0.405501
0.489763
0.384395
0.373501
0.370044
0.308224
0.322002
0.180026
0.261933
0.326363
0.148597
0.195923
0.186949
0.181525
0.166343
0.162038
0.105284
0.101167
0.150299
0.039986
0.103826
-0.056436
0.065226
0.025818
-0.081296
0.048243
-0.075781
0.032170
-0.118857
-0.017961
-0.120892
0.029230
0.027633
-0.072737
-0.063324
-0.063409
-0.116302
-0.071901
-0.096809
-0.117739
-0.110841
-0.112985
-0.060490
-0.097067
-0.063975
-0.144349
-0.082819
-0.044500
-0.079968
-0.063637
-0.114293
-0.140183
-0.093031
-0.086511
-0.074717
-0.040038
-0.006086
-0.115194
-0.014565
-0.133645
-0.053051
-0.095666
-0.122315
-0.049497
-0.093364
-0.070418
-0.090005
-0.018710
-0.045175
-0.095328
-0.107418
-0.127351
-0.078741
-0.093960
-0.172904
-0.027751
-0.104564
-0.146569
-0.034318
-0.170978
-0.069177
-0.113041
-0.040190
-0.102255
-0.012261
-0.083780
-0.071886
-0.063509
-0.072252
-0.130911
-0.063884
-0.000785
-0.100006
-0.079983
-0.145412
-0.042335
-0.098154
-0.029023
-0.102441
-0.100896
-0.034951
-0.079113
-0.090689
-0.131207
-0.038123
-0.021721
0.139246
-0.001337
0.032856
0.069336
0.086251
-0.011475
-0.031568
0.012706
-0.016751
0.087276
0.012957
0.119236
0.049759
0.093420
0.086800
0.037268
0.058677
0.039595
0.043039
-0.099175
0.067507
0.029458
0.037531
-0.068293
0.039008
-0.031706
-0.019286
-0.059530
-0.088237
-0.056352
0.024545
-0.030905
-0.082820
-0.084554
-0.090206
-0.072776
-0.179211
-0.124067
-0.044481
-0.056511
-0.130751
-0.061813
-0.078690
-0.135727
-0.091988
-0.080040
-0.133639
-0.113769
-0.166641
-0.127444
-0.044885
0.173427
0.443870
0.797724
1.026506
1.297392
1.301798
1.137577
0.832926
0.512074
0.152088
-0.198046
-0.346237
-0.373817
-0.395273
-0.218791
-0.202917
-0.169430
-0.031402
-0.031266
-0.072340
-0.031452
-0.119493
-0.081144
-0.128928
-0.083459
0.006214
-0.129089
-0.069672
0.029860
0.005233
-0.013536
0.007156
-0.043123
-0.004125
0.058365
0.055268
0.063629
0.023168
0.103107
0.045554
0.129109
0.201495
0.143895
0.224363
0.232634
0.162530
0.192092
0.226285
0.282292
0.335931
0.431598
0.359933
0.330380
0.384460
0.312723
0.316188
0.346495
0.438825
0.397316
0.437937
0.396826
0.406849
0.439017
0.413328
0.347167
0.391192
0.377540
0.372148
0.412390
0.316901
0.326987
0.300657
0.284944
0.290196
0.242142
0.255672
0.232280
0.160137
0.089864
0.137346
0.167720
0.213928
0.038740
0.080855
0.115021
0.132525
0.074575
0.038928
0.004503
-0.001768
0.043856
-0.001242
0.096307
0.028574
0.028776
-0.004843
-0.026175
-0.030038
0.025629
0.006995
-0.059059
0.004390
-0.009231
-0.152600
-0.051016
-0.001294
-0.058981
-0.052509
-0.044477
0.023322
-0.043574
0.036421
-0.102287
-0.082599
-0.073762
-0.054837
-0.091120
-0.129829
0.013727
-0.008114
-0.017098
-0.061643
-0.064906
-0.035473
-0.057175
-0.070204
-0.098801
-0.065603
-0.034376
-0.065013
-0.031873
-0.110320
-0.103072
-0.013589
-0.102664
0.000457
-0.067979
0.002498
0.007320
-0.093731
-0.038092
-0.022428
-0.105713
-0.010969
0.033193
-0.039914
-0.002003
0.029678
-0.046760
-0.037169
-0.028290
-0.056313
0.041719
-0.002646
0.083887
-0.062577
0.023622
-0.041673
-0.058413
-0.079962
0.003449
-0.007119
0.032834
-0.046511
-0.045797
-0.040510
-0.063039
-0.021571
0.018655
0.061118
0.031554
0.069367
0.031296
0.058450
0.116139
0.035254
0.151991
0.206827
0.180838
0.143503
0.197246
0.159521
0.227082
0.101531
0.142082
0.232578
0.145084
0.129885
0.133234
0.183958
0.116993
0.124644
0.148783
0.117110
0.046514
0.057122
-0.010903
0.012215
0.007437
0.143843
0.014048
0.035234
0.083246
-0.001684
0.002649
0.018408
0.033425
0.085299
0.052747
-0.023654
-0.004789
0.012627
-0.015035
0.008545
0.073400
0.012585
-0.026780
0.015173
0.065778
0.021805
-0.014074
-0.053613
-0.055036
0.060467
0.139879
0.644012
0.904694
1.308931
1.428318
1.434376
1.181253
0.884008
0.618023
0.259797
-0.086812
-0.178101
-0.219477
-0.159051
-0.108779
-0.152703
0.008813
0.004388
-0.020564
0.114106
-0.010113
0.025948
0.119974
0.123054
0.068584
0.118154
0.147575
0.126813
0.083043
0.034401
0.187903
0.073460
0.124866
0.131465
0.130412
0.222719
0.193636
0.211202
0.198552
0.194684
0.277102
0.278129
0.226012
0.326516
0.341461
0.350161
0.337710
0.481716
0.410267
0.450015
0.410119
0.410313
0.426932
0.540134
0.597601
0.497832
0.525533
0.533249
0.580145
0.575631
0.572868
0.495931
0.520176
0.614850
0.538066
0.587777
0.531300
0.410844
0.450709
0.500054
0.425998
0.402580
0.382868
0.328365
0.332509
0.354913
0.319846
0.227074
0.307831
0.353274
0.235071
0.283761
0.201870
0.178615
0.169216
0.223312
0.230022
0.158606
0.123236
0.120763
0.188023
0.104579
0.136794
0.121256
0.018406
0.082936
0.161309
0.108805
0.109176
0.105978
0.120989
0.034691
0.122253
0.033753
0.151374
0.004502
0.084172
0.109412
0.083228
-0.019641
0.099439
0.072494
0.040436
0.158005
0.046454
0.069467
0.031671
0.043371
0.051607
0.029735
0.034993
0.083934
0.076317
0.083652
0.047516
0.003158
-0.028840
0.034667
0.074549
0.095398
0.099222
-0.035841
0.059278
0.057644
0.015224
0.037773
0.071812
0.111158
0.049207
0.095785
0.068680
0.025516
0.044785
0.122625
0.085258
0.064287
-0.002093
0.077571
0.090399
0.075975
0.033335
0.043409
0.078348
0.143176
0.055968
0.021578
0.065112
0.094390
0.059712
0.152186
0.129093
0.068233
0.041912
0.105412
0.133025
0.144577
0.089618
0.037158
0.116508
0.124422
0.212059
0.153708
0.140412
0.210927
0.172862
0.145748
