0.015088
-0.009924
-0.041619
-0.070966
-0.093611
0.022836
-0.015278
0.032482
-0.035581
-0.056518
0.069652
-0.048533
0.037957
-0.001434
0.077008
0.077710
0.008934
0.119097
0.049115
0.036979
0.034064
-0.038131
0.038380
0.013193
0.098868
0.078741
0.180070
0.136673
0.128746
0.120751
0.084885
0.190208
0.169725
0.091622
0.216168
0.138174
0.218952
0.150638
0.259837
0.231300
0.224968
0.244492
0.294941
0.184216
0.133121
0.200972
0.149401
0.117310
0.165007
0.191038
0.147239
0.184545
0.087649
0.079224
0.104125
0.060429
0.066452
0.089772
0.001247
0.063663
0.096191
0.053743
0.005856
0.026393
0.037366
0.031586
0.059303
0.086509
-0.038209
-0.019614
0.065232
0.074654
0.082549
0.263693
0.523361
0.758005
1.107909
1.335865
1.476267
1.470396
1.145662
0.742549
0.267221
0.115149
-0.103398
-0.199050
-0.181189
-0.093579
-0.000803
0.022352
0.115062
0.095572
0.006223
0.076453
0.153595
0.167036
0.109567
0.202527
0.086582
0.117983
0.204591
0.110556
0.200886
0.194382
0.218875
0.231428
0.256350
0.190436
0.255649
0.331853
0.306950
0.419613
0.405081
0.473223
0.389243
0.472255
0.502380
0.475106
0.499837
0.457929
0.665549
0.569645
0.622796
0.547234
0.625170
0.552409
0.635907
0.623747
0.571923
0.533678
0.643439
0.577216
0.561260
0.543654
0.613515
0.524351
0.441281
0.505346
0.410119
0.447317
0.372890
0.406124
0.363239
0.286751
0.457802
0.372277
0.316276
0.321194
0.315157
0.256305
0.282868
0.173564
0.162733
0.222574
0.154080
0.176550
0.196100
0.154489
0.124822
0.099121
0.022937
0.107075
0.104135
0.095974
0.155735
0.080028
0.049244
0.011099
0.018381
0.045566
0.129472
0.129063
0.079997
0.106125
0.061534
0.083513
0.132696
0.072640
0.111102
0.084370
0.107419
0.123086
0.104243
0.096799
0.102107
0.086546
0.156610
0.126378
0.049378
0.108121
0.113880
0.024705
0.039903
0.135084
0.133094
0.043083
0.139187
0.017254
0.068724
0.076914
0.109952
0.053306
0.108437
0.085515
0.096322
0.172271
0.139979
0.119123
0.059786
0.101536
0.087760
0.068432
0.119813
0.050131
0.152480
0.110354
0.189881
0.115359
0.205395
0.124275
0.126846
0.195779
0.151909
0.263298
0.208024
0.123190
0.241507
0.195697
0.346957
0.262810
0.261801
0.349953
0.317964
0.252147
0.184367
0.304071
0.276888
0.244495
0.242651
0.268786
0.174794
0.242534
0.210195
0.166686
0.163335
0.206368
0.182089
0.143964
0.221247
0.156996
0.101736
0.098488
0.182620
0.097943
0.155807
0.173818
0.028047
0.106058
0.058377
0.163745
0.080905
0.087456
0.018319
0.043790
0.161245
-0.021833
0.021748
0.176597
0.408352
0.642137
0.889990
1.292956
1.488273
1.485779
1.333108
1.068573
0.731274
0.350247
-0.042484
-0.062845
-0.201723
-0.117886
-0.022132
0.034710
0.050108
0.142313
0.093438
0.066133
0.155971
0.160363
0.083190
0.212675
0.212482
0.179230
0.171711
0.220095
0.201965
0.098475
0.144910
0.216105
0.255954
0.305337
0.199408
0.329099
0.413478
0.310192
0.295852
0.330463
0.353650
0.467430
0.526262
0.530180
0.472846
0.486246
0.572643
0.526769
0.562608
0.546686
0.531406
0.649807
0.648459
0.580351
0.713980
0.627050
0.588958
0.596434
0.608565
0.516752
0.481314
0.617277
0.527334
0.602095
0.467996
0.449536
0.410280
0.351604
0.340240
0.430530
0.293897
0.321516
0.357731
0.260551
0.296018
0.258986
0.228963
0.200070
0.192709
0.223464
0.165056
0.129054
0.204210
0.067679
0.101836
-0.026959
0.114215
0.081090
0.049281
0.038097
0.132017
-0.000440
0.096089
-0.000739
0.102658
0.094898
0.014409
0.041358
0.077716
0.037737
0.039625
0.124554
0.110243
0.041589
-0.046058
-0.019570
-0.088995
0.016302
-0.060517
0.021318
0.114348
0.031370
0.025256
-0.070358
0.053251
0.111234
0.020712
-0.013499
-0.007131
0.049281
0.088270
0.060300
0.004552
0.095562
0.037706
0.108540
0.040070
-0.000282
0.047976
0.071340
0.061439
-0.049303
0.041686
-0.078510
0.124723
-0.009568
0.073013
0.005667
0.048323
0.045373
-0.045562
0.042190
0.086920
-0.014157
0.114093
0.110612
-0.002583
0.065605
0.108338
0.090808
0.174923
0.119857
0.054362
0.134463
0.200528
0.099553
0.098842
0.134098
0.235571
0.188458
0.212249
0.127565
0.138567
0.109204
0.078646
0.131721
0.177839
0.208294
0.103118
0.151329
0.151303
0.188567
0.057270
0.077746
0.017511
0.029150
0.068861
0.023522
0.037684
-0.030762
0.021085
0.013105
0.033224
0.013864
-0.020741
-0.018597
0.046296
-0.013331
0.043367
-0.012929
0.014607
-0.051897
-0.001724
0.011797
0.137340
0.253026
0.409254
0.782045
1.123409
1.392919
1.471346
1.215625
0.862948
0.572286
0.200387
-0.080302
-0.223761
-0.232553
-0.191127
-0.159866
-0.068441
-0.085499
-0.063570
-0.020141
-0.028982
-0.023010
0.030130
0.001035
0.093330
0.036951
0.184841
0.067622
0.132058
0.036299
0.091969
0.161548
0.058363
0.101099
0.215449
0.246745
0.229632
0.320167
0.296132
0.321564
0.374683
0.311829
0.300892
0.411212
0.358444
0.431148
0.445118
0.417254
0.529446
0.518599
0.375926
0.477737
0.451247
0.469183
0.455864
0.573179
0.545614
0.518006
0.437506
0.638807
0.483827
0.478335
0.338123
0.387853
0.415859
0.342304
0.289828
0.272247
0.253543
0.303712
0.197610
0.226455
0.227829
0.206531
0.262849
0.180462
0.087536
0.125622
0.036190
0.185600
0.035941
0.031864
0.023734
0.067304
0.059223
-0.018863
-0.065412
-0.020306
-0.024581
0.012103
-0.028586
0.019047
-0.064097
0.026389
0.014597
0.045752
-0.041258
0.003676
-0.082770
-0.014862
-0.086120
-0.020689
-0.091969
-0.015084
-0.031630
-0.018763
-0.023092
-0.051165
-0.043733
-0.079766
-0.039739
-0.096627
-0.021329
-0.023669
-0.055389
-0.068631
-0.100791
-0.009877
-0.060343
-0.074310
-0.038962
-0.066980
-0.021766
-0.034078
-0.024040
-0.020353
0.036336
-0.016673
-0.030338
-0.070833
-0.132963
-0.054924
-0.078426
-0.021940
-0.065226
-0.001940
-0.095608
0.071883
0.073316
0.027583
-0.007117
-0.033215
-0.039865
-0.051389
-0.071114
-0.059397
0.005489
-0.006161
0.015478
0.086343
0.000234
0.116972
0.108224
-0.020308
0.084653
0.122940
0.103496
0.110379
0.182769
0.091872
0.198898
0.146928
0.145944
0.139128
0.087256
0.145192
0.170423
0.137281
0.217691
0.125776
-0.003990
-0.000802
0.084511
0.129060
0.003836
0.006516
0.037523
0.008540
-0.006334
0.033797
-0.049196
-0.018807
-0.036824
0.005589
-0.074005
0.047362
-0.001398
-0.008781
-0.146469
-0.018130
-0.009013
-0.055923
-0.074600
-0.022098
0.013305
0.064121
0.279580
0.524187
0.904722
1.203027
1.338019
1.394703
1.201889
0.863085
0.367031
0.076268
-0.064536
-0.214131
-0.211296
-0.207859
-0.088418
-0.051610
0.071941
-0.050957
0.008723
0.052558
0.002140
0.045613
0.065741
0.091814
0.137342
0.033016
0.107633
0.177072
0.096134
0.138189
0.192842
0.201003
0.172969
0.182767
0.218288
0.284296
0.289592
0.318000
0.299031
0.429311
0.387227
0.337261
0.412510
0.428343
0.437902
0.450381
0.549124
0.448886
0.521469
0.658784
0.588394
0.548652
0.589834
0.567402
0.579482
0.523780
0.576720
0.592350
0.574708
0.489527
0.433353
0.503763
0.499678
0.405528
0.423203
0.359385
0.431872
0.302910
0.399112
0.285257
0.229123
0.288056
0.265775
0.158481
0.240624
0.223769
0.170914
0.127913
0.087810
0.166306
0.102290
0.097026
-0.016711
0.133509
0.123239
0.066373
0.007138
0.063865
0.002126
0.023419
0.082241
-0.016485
-0.001080
-0.061095
0.052888
0.034252
0.084551
0.069410
0.073791
0.004108
-0.040843
-0.027759
0.022689
0.016146
-0.021079
-0.011936
0.121530
-0.007697
0.053294
0.104716
-0.005850
0.075030
0.010108
0.024473
0.048395
0.061303
0.057985
0.094140
-0.021912
-0.007831
0.000604
0.061893
0.181092
0.036773
0.041271
-0.067697
0.103217
0.079883
0.101101
-0.010389
0.019385
0.057850
0.076960
-0.043280
0.053695
0.098706
0.115653
0.011248
0.123131
0.127648
0.191791
0.066943
0.093270
0.007299
0.101104
0.168907
0.153204
0.167488
0.111836
0.109755
0.260914
0.208463
0.111458
0.201961
0.248254
0.224963
0.317147
0.241464
0.324773
0.317251
0.269856
0.181185
0.232867
0.170216
0.287180
0.172903
0.134256
0.278949
0.230123
0.120461
0.170769
0.171239
0.163009
0.137523
0.184532
0.072399
0.182815
0.125542
0.128094
0.024504
0.137330
0.072624
0.153829
0.088381
0.086783
0.147379
0.086977
0.130395
0.119598
0.000326
0.032400
0.087338
0.074725
0.047840
0.272262
0.378335
0.746600
1.127938
1.324512
1.465894
1.442514
1.216321
0.982422
0.560673
0.169509
-0.075088
-0.172117
-0.103332
-0.082564
-0.024690
0.061005
0.187082
0.092721
0.195147
0.117466
0.175504
0.186204
0.169969
0.192974
0.123060
0.145299
0.133566
0.281252
0.219279
0.247800
0.273803
0.270684
0.287821
0.310447
0.302991
0.333928
0.321448
0.351984
0.390128
0.516816
0.402310
0.477511
0.504440
0.449188
0.552420
0.628464
0.584511
0.583068
0.593643
0.520072
0.701385
0.609664
0.631910
0.604716
0.638915
0.675369
0.606182
0.639863
0.640692
0.543859
0.622904
0.529944
0.517773
0.513383
0.486464
0.519416
0.470708
0.402768
0.424541
0.438937
0.391642
0.369528
0.339643
0.258461
0.291937
0.261047
0.218964
0.327968
0.288689
0.209075
0.247695
0.123509
0.217411
0.195375
0.153385
0.128952
0.105138
0.206757
0.151878
0.134005
0.155485
0.156765
0.046512
0.083423
0.087319
0.148240
0.131091
0.106784
0.106876
0.000192
0.089189
0.145938
0.068631
0.087336
0.097579
0.095983
0.077052
0.035463
0.160389
0.159762
0.105283
0.064567
0.140393
0.122431
0.073025
0.158713
0.109219
0.053537
0.148026
0.100649
0.118935
0.154389
0.049336
0.065685
0.039437
0.108597
0.089481
0.083775
0.029516
0.067123
0.104671
0.034610
0.122222
0.053480
0.082192
0.065299
0.142873
0.084631
0.141340
0.065064
-0.002862
0.057265
0.087108
0.143922
0.139680
0.178897
0.131490
0.245556
0.208849
0.153447
0.173321
0.209105
0.196434
0.235859
0.182678
0.137239
0.224844
0.218318
0.198872
0.209261
0.244078
0.229277
0.250909
0.300893
0.214380
0.279677
0.274567
0.170256
0.175973
0.268026
0.191956
0.138155
0.194033
0.134454
0.157780
0.085556
0.101076
0.159392
0.151876
0.102163
0.051912
0.057624
0.045827
-0.038077
0.055088
0.007754
0.055735
0.108479
0.116814
0.081924
0.064310
0.048350
0.058679
0.112587
0.281138
0.473001
0.790984
1.187850
1.314453
1.474368
1.418283
1.121660
0.774863
0.350107
-0.021105
-0.113193
-0.097907
-0.156532
-0.084889
-0.024123
0.090374
0.114536
0.066602
0.131200
0.032631
0.231564
0.201058
0.159220
0.089795
0.099039
0.197451
0.143130
0.242373
0.138040
0.162706
0.198489
0.294036
0.257131
0.292363
0.317732
0.245150
0.323433
0.379058
0.378418
0.469330
0.271284
0.441625
0.421108
0.446837
0.567554
0.499866
0.540775
0.540319
0.550185
0.535032
0.542056
0.573246
0.579663
0.596584
0.581213
0.554252
0.591222
0.462165
0.531156
0.512428
0.527420
0.506401
0.525439
0.403694
0.447825
0.502452
0.389554
0.402076
0.311441
0.292189
0.292490
0.265701
0.238450
0.230352
0.257469
0.156434
0.133133
0.086541
0.157366
0.117379
0.137810
0.122564
0.104558
0.103261
0.172829
0.092768
0.025044
0.028298
0.085800
0.007146
0.018463
0.017630
0.122029
-0.041499
0.037444
0.066089
0.017232
0.045384
0.004632
-0.066354
0.034128
0.014596
0.052881
0.062198
-0.078745
0.096885
-0.044778
0.021054
-0.005802
0.026916
-0.118254
0.072300
-0.067940
-0.046447
-0.059129
-0.040703
0.064748
-0.019199
-0.087787
-0.026538
-0.065051
0.060184
0.047914
-0.009036
-0.001762
-0.027771
0.037605
-0.070683
-0.045067
-0.035352
-0.035891
0.048360
0.020484
-0.037664
-0.040837
-0.037451
0.072675
0.000956
-0.089541
0.021271
-0.025144
0.006296
0.002757
0.074113
-0.000186
0.067574
0.085527
-0.004252
0.080241
0.069735
0.100748
0.031958
0.148229
0.135111
0.160476
0.193816
0.142712
0.111896
0.117768
0.145924
0.118176
0.160233
0.150602
0.109056
0.195332
0.111403
0.092426
0.084696
-0.005773
0.064189
0.080995
0.073995
0.041921
0.053552
0.036872
-0.047533
0.030340
-0.022042
-0.042246
-0.010598
-0.069770
0.006509
-0.034636
-0.021207
-0.104191
-0.038332
-0.039355
-0.102890
-0.114593
-0.033648
-0.134096
-0.017242
-0.037088
0.099334
0.147886
0.401991
0.743641
1.040401
1.359789
1.441894
1.303463
0.997892
0.579306
0.209746
-0.149433
-0.195301
-0.355657
-0.336804
-0.196540
-0.068185
-0.046348
-0.021577
-0.100905
-0.084804
-0.088756
0.003670
-0.029257
0.034374
0.006110
-0.115641
0.068517
-0.003581
0.056602
0.023935
0.062422
0.213868
0.094392
0.121299
0.142495
0.196082
0.122499
0.207620
0.279450
0.263658
0.236058
0.220976
0.348938
0.298738
0.366064
0.387867
0.444618
0.375714
0.361503
0.482096
0.503101
0.401779
0.525848
0.437741
0.478593
0.444321
0.463626
0.437537
0.464191
0.366532
0.404067
0.416255
0.370473
0.349121
0.318603
0.350702
0.338254
0.305333
0.282166
0.282356
0.211183
0.189320
0.219947
0.145320
0.146614
0.091198
0.136150
0.133521
0.061557
0.035873
-0.016961
0.008891
-0.005122
-0.108801
-0.014179
0.018163
-0.084532
-0.035871
-0.073410
-0.095069
-0.027506
-0.072568
-0.114710
-0.015661
-0.043884
-0.133302
-0.085241
-0.141399
0.026335
-0.156212
-0.057435
-0.096865
-0.080081
-0.071525
-0.118128
-0.156572
-0.123861
-0.090956
-0.113562
-0.063508
-0.149199
-0.050875
-0.123139
-0.080500
-0.123175
-0.118961
-0.072948
-0.069717
-0.103883
-0.079589
-0.034689
-0.122851
-0.053098
-0.105842
-0.110638
-0.078900
-0.019136
-0.126387
-0.093229
-0.135763
-0.021836
-0.116859
-0.089529
-0.022952
-0.071750
-0.058115
-0.070615
-0.022244
-0.153135
-0.086997
-0.032300
-0.074228
0.009588
-0.035329
-0.048616
-0.029978
0.037692
0.018490
0.012410
0.068847
-0.028997
0.084904
0.048523
-0.010036
0.057030
-0.029772
0.102257
0.172692
0.205400
0.042031
0.208560
0.195002
0.133032
0.114107
0.156710
0.165650
-0.020705
0.062968
0.017751
0.058332
0.045695
0.029350
0.117965
0.065141
-0.034892
0.079950
-0.023262
-0.047033
0.024623
0.045575
-0.005820
0.002633
-0.049962
-0.073054
-0.058810
-0.026993
-0.044552
-0.108659
-0.074158
-0.052680
-0.050280
-0.043220
-0.070384
-0.051184
0.091963
0.263808
0.501635
0.801293
1.101560
1.259986
1.387981
1.269614
0.868775
0.487423
0.153613
-0.098934
-0.287567
-0.311262
-0.319470
-0.186179
-0.178616
-0.000597
-0.066651
-0.002499
-0.010748
0.002523
0.006109
0.036332
0.043822
0.011351
0.066923
0.103130
0.099736
0.083057
0.121622
0.063703
0.045071
0.234195
0.182125
0.216652
0.210112
0.260586
0.283284
0.232968
0.244149
0.219241
0.339085
0.374385
0.342171
0.391823
0.441450
0.508332
0.443798
0.480350
0.529008
0.502306
0.500218
0.529924
0.511871
0.485228
0.620216
0.464523
0.514542
0.518208
0.390099
0.387800
0.414711
0.521558
0.410157
0.310896
0.296713
0.346562
0.322154
0.323455
0.226735
0.288340
0.225678
0.225694
0.255668
0.181556
0.086806
0.195522
0.099085
0.181814
0.138355
0.091400
0.112302
0.056144
0.117632
0.095789
0.117238
0.074644
0.004428
0.065411
0.080233
0.019944
-0.064250
-0.017530
-0.002140
0.033814
0.028781
0.043276
-0.026035
-0.013894
-0.034446
-0.009674
-0.016281
-0.027988
0.076602
0.008606
-0.037326
-0.017929
0.030534
-0.024562
-0.148547
0.015444
-0.036547
-0.090866
-0.019910
-0.020887
0.040911
0.031842
-0.033952
0.001983
0.042667
-0.033602
-0.015415
-0.042579
0.065211
-0.060201
0.043637
0.054236
0.084132
-0.013520
0.047711
-0.001094
0.017259
-0.039989
0.039482
-0.027435
0.120568
0.032219
0.029998
0.060007
0.049270
0.036917
0.055678
-0.023296
0.053944
0.007230
0.068584
0.134391
0.092221
0.034870
0.068160
0.158373
0.204965
0.034611
0.119602
0.151238
0.191585
0.200529
0.230676
0.154528
0.123289
0.148012
0.192033
0.225530
0.198449
0.172290
0.139298
0.255530
0.116974
0.209899
0.112599
0.083658
0.158443
0.186836
0.133298
0.083409
0.073080
0.103391
0.006043
-0.015847
0.053886
0.129695
0.007108
0.061722
0.084645
-0.030198
0.069985
0.025051
0.014307
0.067907
0.007766
0.074195
0.012478
-0.021854
0.088436
0.155446
0.246778
0.664606
0.970712
1.305073
1.424937
1.401177
1.259334
1.027270
0.538673
0.221132
-0.142028
-0.162376
-0.072034
-0.109951
-0.094720
-0.019152
0.085379
0.141964
0.066852
0.003916
0.132823
0.123783
0.046856
0.138190
0.063424
0.152774
0.163297
0.097282
0.199026
0.177517
0.224202
0.228269
0.131898
0.226143
0.259007
0.314486
0.285082
0.409957
0.463267
0.408016
0.418659
0.417955
0.515656
0.471715
0.463753
0.494863
0.550619
0.576770
0.595527
0.584609
0.568600
0.568253
0.589621
0.586968
0.570403
0.558995
0.530480
0.573871
0.564469
0.506053
0.528290
0.580733
0.525369
0.461268
0.444804
0.454972
0.491619
0.413724
0.416955
0.443721
0.384808
0.279302
0.237922
0.297217
0.256159
0.236447
0.276669
0.166983
0.176489
0.172500
0.170711
0.175262
0.186123
0.024706
0.059073
0.065417
0.074969
0.123307
0.098484
0.061492
0.086676
0.071942
0.064110
0.030671
0.073581
0.059141
0.043737
0.068191
0.054394
0.037597
-0.015795
0.142284
0.082545
0.064473
0.027904
0.082703
0.031000
0.100543
-0.086232
0.088221
0.059075
0.107546
0.041942
0.065404
0.045422
-0.020011
0.062933
-0.015871
0.081698
0.055326
0.016947
-0.072604
0.026849
-0.008141
0.077754
0.054701
0.014852
0.045773
0.048967
0.035988
0.021991
0.117308
0.113471
0.064872
-0.003342
0.041090
0.075911
0.079646
0.026235
0.069736
0.060233
0.134244
0.096293
0.130735
0.101811
0.100266
0.103108
0.008738
0.061177
0.087105
0.086695
0.150436
0.169458
0.241153
0.179790
0.170666
0.180946
0.206505
0.191955
0.317653
0.232624
0.133956
0.200194
0.165696
0.163535
0.175640
0.149013
0.120640
0.241209
0.123685
0.112546
0.130525
0.106615
0.104563
0.022147
0.114495
0.120149
0.162010
0.095251
0.144279
0.018743
0.052959
0.036758
-0.031460
-0.074080
0.088042
0.050145
0.033173
0.022563
0.023621
0.059302
0.061500
0.041286
0.101710
0.060407
0.394706
0.676739
1.002428
1.337677
1.426342
1.369440
1.215555
0.789464
0.398337
0.083098
-0.061191
-0.268522
-0.256076
-0.129343
-0.091913
-0.000876
0.007697
-0.059638
0.005457
0.023368
0.115646
0.099145
0.086770
0.089177
0.099966
0.079823
0.084907
0.087168
0.100728
0.177020
0.165381
0.199037
0.298038
0.236171
0.218923
0.327742
0.243462
0.226878
0.308315
0.302672
0.362125
0.344708
0.329585
0.376151
0.485591
0.464744
0.573458
0.481841
0.515938
0.468047
0.588208
0.516909
0.452653
0.540975
0.443085
0.447001
0.590141
0.538488
0.477445
0.416590
0.453568
0.465356
0.484778
0.333362
0.417697
0.289295
0.327135
0.262052
0.252976
0.304284
0.251172
0.254131
0.229319
0.220495
0.171805
0.147031
0.169387
0.146394
0.014733
0.045800
0.125033
-0.059890
0.005424
-0.000041
0.012529
0.007896
-0.009773
-0.054737
-0.014995
0.025607
-0.044403
-0.154060
-0.005308
-0.028071
-0.015125
-0.035073
-0.092127
-0.013649
-0.078394
-0.062326
-0.075532
-0.049898
0.016795
-0.045980
-0.048752
-0.088318
-0.103240
-0.060243
-0.019120
-0.173006
-0.107024
-0.069782
-0.017043
-0.123400
-0.068177
-0.187261
-0.065605
-0.046869
-0.120615
-0.033714
0.008418
-0.006051
-0.035251
-0.062176
-0.021810
-0.147766
-0.104250
-0.086695
-0.102235
-0.050879
-0.076679
-0.089854
-0.020488
-0.039017
0.006933
0.012850
-0.141282
-0.013803
-0.064336
-0.129086
-0.098379
0.016768
0.010738
-0.055571
-0.016201
-0.049065
-0.062332
0.052795
0.027824
0.016824
0.039955
-0.044024
0.062470
0.069854
0.046305
0.115328
0.052127
0.106308
0.150922
0.078350
0.067195
0.057968
0.130867
0.006384
0.091712
0.153876
0.089446
-0.005734
0.040565
0.008858
0.031250
0.028617
-0.013820
-0.075716
-0.076647
0.044391
-0.036474
-0.082537
-0.107840
-0.098118
-0.049195
-0.084829
-0.131868
-0.182066
-0.119727
-0.107208
-0.082728
-0.061127
-0.107218
-0.102417
-0.228159
-0.088386
-0.166191
0.013826
0.065252
0.291365
0.674374
0.924059
1.255765
1.314994
1.225495
0.979999
0.659479
0.237861
-0.085092
-0.287280
-0.319845
-0.296728
-0.240299
-0.137142
-0.262944
-0.154641
-0.117208
-0.056742
-0.067626
-0.077325
-0.079129
-0.076909
-0.102204
-0.031208
-0.010088
-0.005177
-0.031087
0.008481
0.090033
0.044761
0.080720
0.132799
0.051407
0.150392
0.182673
0.169724
0.055993
0.213647
0.389259
0.299274
0.193264
0.384626
0.283011
0.416712
0.369803
0.410107
0.372152
0.442230
0.452788
0.458844
0.370854
0.481192
0.441792
0.424075
0.450993
0.336514
0.436606
0.395525
0.361051
0.400015
0.351685
0.363381
0.340201
0.259969
0.335658
0.348838
0.200115
0.159252
0.162184
0.232686
0.185225
0.093615
0.106990
0.120540
0.109345
0.131615
0.068283
-0.081836
-0.050350
0.028890
-0.042706
-0.013350
-0.070608
0.003710
-0.018195
-0.121578
0.021991
-0.040115
-0.124122
-0.100712
-0.105873
-0.092318
-0.042732
-0.187406
-0.140310
-0.121706
-0.099054
-0.166872
-0.022370
-0.078544
-0.116764
-0.047586
-0.128088
-0.013884
-0.125031
-0.117316
-0.086691
-0.144444
-0.114894
0.010798
-0.045945
-0.167018
-0.144541
-0.166675
-0.160988
-0.051835
-0.046750
-0.129514
-0.093329
-0.211802
-0.068303
-0.024878
-0.076395
-0.088280
-0.113706
-0.121585
-0.061682
-0.050314
-0.134357
-0.062899
-0.065436
-0.097001
-0.080960
-0.182180
0.001971
0.026560
0.016834
-0.153752
-0.051827
-0.115202
-0.036767
0.018881
-0.025884
-0.034515
-0.043720
-0.025604
0.043750
-0.077254
0.036160
0.038489
0.028537
0.024394
0.106375
0.074818
0.080514
0.056792
0.065588
0.237754
0.113902
0.162866
0.115003
0.137084
0.130209
0.084181
0.114009
0.091066
0.024863
0.018754
0.041212
0.043154
0.050114
0.078202
-0.004070
0.000726
-0.007352
0.029129
0.044872
0.134473
-0.008394
-0.026019
-0.011831
-0.062899
-0.093569
0.014796
0.007399
-0.047658
-0.024456
-0.005388
-0.016694
-0.108748
-0.129779
-0.124862
0.002043
0.235537
0.466032
0.783866
1.029603
1.313042
1.365063
1.305365
0.944347
0.586986
0.212633
-0.028768
-0.276524
-0.248297
-0.239730
-0.161225
-0.068758
-0.095543
-0.116023
-0.018337
0.002065
0.012585
0.057673
-0.066642
0.052712
0.007406
0.019989
0.037142
0.159831
0.066275
0.122712
0.092563
0.206003
0.101854
0.212988
0.142924
0.200008
0.220869
0.251906
0.199360
0.349857
0.320704
0.272380
0.320857
0.367094
0.388418
0.445529
0.405353
0.408477
0.481865
0.527790
0.491202
0.579395
0.526046
0.543823
0.531473
0.523867
0.533889
0.470178
0.573264
0.506217
0.435356
0.452011
0.498352
0.311574
0.400215
0.368947
0.307348
0.361883
0.304845
0.314430
0.315095
0.306446
0.317234
0.195024
0.266381
0.118025
0.175049
0.167821
0.161044
0.140250
0.137760
0.107827
0.093733
-0.054016
0.018163
-0.002272
0.044066
0.142937
0.072104
0.064109
-0.054384
-0.047728
0.065094
0.067864
0.065691
0.063486
0.084710
0.061977
0.054816
0.058975
-0.009231
-0.030433
0.080591
0.022751
0.031914
-0.030667
-0.012904
0.131303
-0.041493
0.036440
0.016285
-0.025317
0.103894
0.105580
0.023240
-0.030374
0.010298
-0.005328
0.027649
0.086532
0.012987
0.066536
0.042445
0.114658
-0.016655
0.006538
0.017850
0.075977
0.002114
0.029776
0.049040
0.097786
0.054182
-0.013617
0.113024
0.029021
0.083410
0.027575
0.095215
0.098601
-0.026229
0.019944
0.066208
0.101922
0.047946
0.046722
0.142371
0.109722
0.252741
0.125286
0.110616
0.194014
0.161328
0.121717
0.132093
0.230240
0.194953
0.181867
0.247328
0.190665
0.207005
0.263483
0.282620
0.175809
0.266998
0.170430
0.172457
0.218553
0.236287
0.199334
0.139046
0.248447
0.215808
0.091626
0.184049
0.110313
0.161339
0.110667
0.068037
0.066993
0.200725
0.024964
0.130344
0.061002
0.016629
0.066963
0.089055
-0.065997
0.099451
-0.001111
0.043208
0.037383
0.056735
0.084837
0.189186
0.328963
0.548739
0.838493
1.233064
1.450509
1.500000
1.298698
1.017772
0.608450
0.208078
0.063897
-0.147726
-0.113376
-0.177421
-0.065657
0.012422
0.042141
0.001664
0.153473
0.074269
0.101034
0.142715
0.139754
0.067603
0.189861
0.190240
0.176396
0.221227
0.240826
0.206887
0.248648
0.268281
0.357099
0.299202
0.342240
0.322813
0.274436
0.348426
0.397724
0.454459
0.478083
0.477102
0.524742
0.551702
0.471150
0.460387
0.495950
0.613735
0.635082
0.647127
0.675552
0.552208
0.661085
0.595155
0.560100
0.543053
0.660047
0.580011
0.644025
0.608900
0.540770
0.520964
0.456450
0.486278
0.509500
0.494200
0.495270
0.373378
0.559789
0.362447
0.347084
0.379580
0.258446
0.282337
0.236886
0.277692
0.302423
0.206230
0.251606
0.259438
0.195513
0.238617
0.073306
0.134288
0.162644
0.106278
0.174002
0.170785
0.140423
