-0.018362
-0.038005
0.016811
0.030045
0.027999
-0.024103
0.039608
0.014122
0.040678
-0.052555
0.026311
0.009664
-0.038052
0.017155
0.017034
-0.012878
0.090479
-0.062171
0.062360
0.034222
0.119468
0.128549
0.062389
0.105305
0.039836
0.064224
0.053340
0.130807
0.066897
0.241861
0.120930
0.207189
0.258590
0.186832
0.148905
0.172838
0.139086
0.228279
0.202202
0.220309
0.205488
0.177180
0.220832
0.143735
0.097981
0.182293
0.152687
0.033500
0.114697
0.192408
0.086870
0.115679
0.097747
0.059408
0.057079
0.174544
0.109825
0.049698
0.067734
0.101215
0.072847
-0.010600
0.031385
0.015548
0.036945
0.010891
0.030857
0.084056
0.120760
0.182978
0.372558
0.710577
1.000371
1.279975
1.500000
1.340066
1.118524
0.784707
0.343283
0.029317
-0.163687
-0.164903
-0.146542
-0.092626
-0.002157
0.115212
0.057817
0.139967
0.052901
0.170629
0.140848
0.096486
0.196892
0.070236
0.181198
0.109761
0.183832
0.252296
0.274758
0.262876
0.208713
0.309391
0.141545
0.429567
0.348415
0.481957
0.411028
0.405834
0.436160
0.411219
0.484336
0.477962
0.471160
0.537887
0.494036
0.559835
0.527049
0.628479
0.498176
0.559730
0.547372
0.554124
0.583990
0.636229
0.470465
0.571221
0.557961
0.607025
0.550428
0.552907
0.493799
0.463914
0.482476
0.432773
0.423720
0.316875
0.346045
0.326686
0.292925
0.278024
0.214338
0.339918
0.219933
0.210726
0.225557
0.211141
0.126853
0.132937
0.188415
0.126656
0.148514
0.183395
0.129196
0.093953
0.115505
0.071568
0.060266
0.078725
0.046558
0.100226
0.100870
0.099521
0.026502
0.051234
0.037211
0.095854
0.135525
0.157103
0.052269
0.117578
0.085326
0.124124
0.055691
0.052748
0.115924
0.076568
0.128707
-0.000778
0.045650
0.036711
0.131864
0.083850
0.050742
0.101847
0.120176
0.021655
0.144335
0.107065
0.105928
0.122635
0.055011
0.105449
0.076393
0.058613
-0.000802
0.070803
0.097262
0.050657
0.111821
0.086542
0.103276
0.089672
0.150860
0.075138
0.103564
0.171504
0.099125
0.102051
0.099912
0.179721
0.107649
0.185248
0.259017
0.218213
0.131364
0.196394
0.256287
0.286736
0.301101
0.258836
0.297344
0.261156
0.177503
0.186209
0.282681
0.277799
0.125595
0.279197
0.218811
0.201510
0.336082
0.266381
0.139601
0.118192
0.234493
0.083327
0.147824
0.167778
0.148763
0.089060
0.175339
0.086390
0.145307
0.107670
0.146248
0.108446
0.095454
0.133365
0.111897
0.058091
0.129374
0.152649
0.031515
0.078279
0.246330
0.451776
0.778850
1.000589
1.269679
1.372106
1.476255
1.090732
0.841086
0.513875
0.159075
-0.036456
-0.085160
-0.071435
-0.094570
0.086376
0.059157
0.015945
0.105262
0.112530
0.143665
0.167443
0.085932
0.115876
0.255134
0.114268
0.137155
0.210722
0.303886
0.258906
0.289708
0.256634
0.308765
0.322042
0.430393
0.330590
0.370635
0.425742
0.442184
0.374111
0.482899
0.468108
0.463803
0.411025
0.553713
0.509167
0.498962
0.566386
0.621675
0.564072
0.556751
0.563884
0.568501
0.581763
0.653201
0.617276
0.529714
0.458921
0.552265
0.515166
0.550807
0.465529
0.391421
0.427629
0.426444
0.423371
0.358027
0.393799
0.276895
0.355964
0.270280
0.340712
0.268412
0.278618
0.191051
0.158197
0.279573
0.223215
0.162614
0.201574
0.109920
0.101633
0.135692
0.128841
0.101803
0.085713
0.137523
0.128557
0.016805
0.070520
0.014727
0.069129
0.058473
0.082209
0.045847
0.038324
0.112573
0.021248
0.049091
0.016805
0.024402
0.057633
-0.001203
0.062555
0.000452
-0.070117
0.043505
-0.005386
-0.006343
0.046916
0.027972
-0.043439
0.078968
-0.033742
0.005332
0.018082
0.031887
-0.036195
0.023770
0.052143
-0.016003
0.015189
0.006996
0.047606
0.058855
-0.021827
0.022238
-0.034368
0.048855
0.081980
0.037300
0.043910
0.155788
0.036556
0.052126
0.035427
0.076744
0.082654
0.068134
0.041336
0.132261
0.089978
0.072641
0.133473
0.154568
0.180197
0.097479
0.161371
0.120786
0.157145
0.109448
0.274169
0.192807
0.170572
0.107158
0.215321
0.179061
0.153952
0.184191
0.070884
0.063996
0.167540
0.094039
0.167689
0.191726
0.124726
0.055942
0.078157
0.087589
0.048073
0.089791
0.008596
0.025995
0.070920
0.096765
0.010738
-0.045413
0.062446
0.003448
0.044702
-0.006415
-0.012841
0.026724
-0.097343
-0.030905
0.096585
0.315022
0.567432
0.845594
1.088034
1.286946
1.421552
1.112199
0.823074
0.541916
0.074179
-0.077739
-0.239693
-0.185938
-0.126630
-0.062834
0.056604
0.019222
-0.073157
0.034238
0.118385
0.098991
0.030409
0.102557
0.064170
0.109072
0.073079
0.129181
0.171757
0.163386
0.194517
0.284388
0.223944
0.173720
0.232339
0.284572
0.334491
0.313304
0.308105
0.286849
0.364571
0.428225
0.338205
0.382096
0.401744
0.440881
0.414244
0.478132
0.448570
0.513757
0.480201
0.519476
0.522820
0.516911
0.538081
0.466739
0.536262
0.413920
0.496587
0.467353
0.376588
0.380039
0.356223
0.274209
0.337097
0.261132
0.287949
0.261659
0.232889
0.214895
0.213107
0.184719
0.149781
0.132071
0.212884
0.163209
0.066235
0.111402
0.028081
0.056782
0.059826
0.055326
0.037914
0.023530
0.030388
0.018217
0.020658
0.065179
0.002869
-0.035505
-0.101441
-0.040444
0.020525
-0.037549
-0.060528
-0.036201
-0.004135
-0.045008
-0.031323
0.028567
-0.095349
-0.064925
-0.001990
0.008748
-0.060880
-0.076556
-0.000430
-0.012916
-0.004271
-0.008045
-0.035436
-0.044442
-0.053909
-0.067678
-0.069681
-0.099610
-0.011236
0.019355
-0.129165
-0.061457
-0.028939
0.022214
-0.010749
-0.044567
-0.100592
-0.065626
-0.112742
-0.063708
-0.061207
-0.045671
-0.058342
0.098223
-0.006813
-0.027952
-0.072363
-0.077448
0.036544
0.016067
0.051756
-0.013750
0.100316
-0.014687
0.077390
0.063465
0.030682
0.094823
0.075394
0.149474
0.198372
0.153449
0.087408
0.153262
0.109066
0.075254
0.206094
0.094312
0.165051
0.139730
0.248381
0.137650
0.100042
0.177201
0.136781
0.101820
0.003000
0.110090
-0.000020
-0.008361
-0.067930
0.017315
-0.021141
-0.080060
-0.086218
-0.023097
-0.052687
-0.012436
-0.021541
0.012635
0.036085
-0.045436
-0.055971
-0.084889
0.020810
-0.157714
-0.061008
0.083634
0.297043
0.471001
0.671814
1.107782
1.194441
1.303021
1.251442
0.935009
0.458814
0.121463
-0.057899
-0.230486
-0.271703
-0.293676
-0.147624
-0.098186
-0.017179
-0.028348
-0.020806
-0.037475
-0.089257
-0.013720
0.053550
-0.005997
0.027899
0.148795
0.086854
0.053497
0.125026
0.133449
0.135198
0.125962
0.234699
0.174194
0.297135
0.221679
0.351198
0.350719
0.322870
0.378214
0.361071
0.397439
0.432503
0.423354
0.485806
0.472735
0.486087
0.407146
0.567975
0.522094
0.503605
0.541584
0.484548
0.477528
0.543942
0.499685
0.437208
0.454533
0.429346
0.484978
0.389891
0.404950
0.390088
0.369515
0.381771
0.370347
0.234663
0.318853
0.206427
0.143325
0.234079
0.231260
0.177308
0.170471
0.159029
0.268659
0.153124
0.048903
0.046074
0.006183
0.047605
0.001747
0.050212
0.050805
0.005860
0.061135
0.004468
-0.041927
0.037722
-0.035118
0.017472
0.064880
0.098075
-0.000202
0.041143
0.055173
-0.004136
-0.054105
0.013155
0.055145
-0.009923
0.023133
-0.038116
-0.030999
0.000195
-0.007320
0.024914
0.035876
0.035236
-0.023109
-0.053405
0.013141
-0.029772
0.082163
0.018659
0.025009
0.065518
-0.021198
0.083502
0.021912
0.057276
-0.003569
0.169684
0.018440
0.009562
0.033417
-0.012426
-0.050961
0.025546
0.067518
0.054292
0.036768
0.068494
0.120163
0.049574
0.052343
0.040462
0.075628
0.095980
0.139442
0.023066
0.158563
0.158788
0.089377
0.192466
0.148293
0.100777
0.180146
0.153828
0.236082
0.238624
0.215261
0.171200
0.198042
0.219526
0.182351
0.254764
0.110756
0.196382
0.249580
0.164523
0.161353
0.160640
0.226589
0.155074
0.240218
0.046927
0.130094
0.088835
0.125692
0.088825
0.060317
0.061058
0.097059
0.050041
0.104507
0.091710
-0.018885
0.074731
0.056900
0.062600
0.005937
-0.024894
0.071009
0.117184
0.272715
0.463909
0.837700
1.157910
1.351985
1.397163
1.331847
1.032491
0.676814
0.351020
0.032087
-0.081665
-0.054290
-0.140564
-0.043074
0.024897
0.085180
0.074429
0.175375
0.104164
0.113896
0.192380
0.104093
0.186253
0.187159
0.213323
0.176470
0.219802
0.238411
0.243895
0.262153
0.301645
0.367386
0.315768
0.332695
0.342906
0.310357
0.401486
0.364254
0.529827
0.417500
0.571678
0.521249
0.562106
0.493453
0.510904
0.578921
0.599913
0.642344
0.591726
0.724322
0.588627
0.599441
0.547274
0.564579
0.610771
0.507607
0.449002
0.588660
0.571267
0.528012
0.498632
0.397463
0.493185
0.396883
0.432604
0.364588
0.332500
0.341214
0.337997
0.341159
0.311396
0.294285
0.255332
0.221804
0.294567
0.280140
0.150928
0.216224
0.102970
0.118507
0.180592
0.128760
0.151839
0.097153
0.172667
0.125377
0.106054
0.212896
0.142961
0.077056
0.161090
0.076964
0.104790
0.125094
0.116134
0.135735
0.037189
0.084419
0.068695
0.092993
0.047375
0.159623
0.048945
0.080681
0.125733
0.053272
0.076453
0.185337
0.154321
0.138563
0.118166
0.121111
0.156429
0.102595
0.138017
0.082964
0.100067
0.078119
0.151452
0.081783
0.131324
0.063731
0.137793
0.078787
0.108807
0.114054
0.038210
0.058175
0.111323
0.139825
0.089293
0.131414
0.128163
0.129133
0.133837
0.096844
0.168765
0.132057
0.178067
0.222645
0.189767
0.143873
0.187912
0.237873
0.215919
0.212189
0.245565
0.238639
0.193070
0.295787
0.159964
0.261153
0.286123
0.247811
0.285799
0.217510
0.262644
0.207422
0.298891
0.355080
0.218363
0.194463
0.238283
0.126821
0.246791
0.158436
0.144655
0.152883
0.162557
0.120875
0.134629
0.175636
0.139652
0.193565
0.055288
0.141670
0.072094
0.163968
0.094183
0.078071
0.010934
0.080079
0.027810
0.154356
0.249494
0.508492
0.722828
1.114554
1.280589
1.474281
1.367848
1.122233
0.726345
0.386116
0.110612
0.008955
-0.086026
-0.062264
-0.047380
0.016042
0.054117
0.029512
0.155020
0.145527
0.092672
0.109555
0.165768
0.225733
0.185200
0.136282
0.151576
0.228862
0.230008
0.263267
0.264627
0.270569
0.307492
0.207387
0.261257
0.349021
0.337392
0.426773
0.424990
0.477546
0.456521
0.396921
0.493864
0.465842
0.529197
0.516945
0.520330
0.510677
0.603273
0.618774
0.682605
0.542950
0.628388
0.627387
0.558022
0.522505
0.542129
0.560733
0.546931
0.533563
0.449624
0.491496
0.462257
0.461805
0.464182
0.480952
0.399797
0.352090
0.324535
0.338513
0.209518
0.207232
0.225042
0.231120
0.196835
0.250149
0.220742
0.170827
0.171272
0.100013
0.154696
0.122066
0.075083
0.221521
0.111216
0.025714
0.059497
0.074699
0.100259
0.031068
0.133831
0.083916
0.075704
0.110543
0.079825
0.077739
0.085315
0.019697
0.124272
0.012218
0.033569
0.045543
-0.045943
0.002977
-0.040963
0.119808
-0.043846
0.057902
0.078747
-0.018921
-0.034278
0.039353
-0.050101
-0.002873
0.093744
0.047818
-0.032446
0.086875
-0.070641
0.021367
0.026365
0.058047
0.073145
0.023538
0.033544
0.108028
-0.050421
0.067889
0.030027
0.014676
0.042508
0.017800
-0.021319
0.078383
0.084565
0.052709
0.064401
0.014579
0.089994
0.032242
-0.063703
0.124511
0.076776
0.148256
0.150569
0.078155
0.144624
0.078809
0.208990
0.164591
0.113942
0.181253
0.165047
0.078472
0.134098
0.135738
0.111754
0.140809
0.114037
0.175159
0.096820
0.147502
0.041504
0.155476
0.057111
0.071567
0.046655
0.000256
0.058724
0.036180
-0.000451
0.091475
-0.012046
0.056821
0.009243
-0.038950
-0.041709
-0.001277
0.044690
-0.019264
0.027268
0.040436
0.046649
-0.049186
0.025302
0.068324
0.329222
0.615814
0.896406
1.149542
1.295510
1.243355
1.108863
0.647431
0.308608
0.063362
-0.159130
-0.240149
-0.201884
-0.116028
-0.081973
-0.015823
-0.041082
-0.056909
0.021101
0.012679
0.027045
0.073047
0.034338
0.018689
0.150105
0.116922
0.001155
0.089074
0.147560
0.075181
0.139231
0.163510
0.142117
0.322140
0.205756
0.204547
0.224137
0.311528
0.314068
0.367137
0.395666
0.472640
0.430261
0.340642
0.455276
0.385493
0.432769
0.461054
0.531315
0.430414
0.426316
0.419519
0.444943
0.486289
0.498273
0.393719
0.376003
0.499173
0.415617
0.337289
0.388815
0.303073
0.311865
0.308598
0.259877
0.245295
0.203371
0.272148
0.150055
0.163443
0.148531
0.210873
0.063878
0.103339
0.134699
0.094564
0.077220
0.017047
0.031554
0.020055
0.010719
-0.000566
-0.061889
0.039877
-0.008024
-0.021411
-0.013504
-0.130495
-0.039952
-0.047233
-0.005813
-0.048844
-0.053005
-0.070140
-0.044020
-0.124215
-0.059465
-0.041114
-0.058340
-0.045600
-0.026135
-0.128206
-0.101818
-0.077078
-0.077725
-0.049684
-0.072776
-0.068389
-0.058176
-0.065174
-0.033604
-0.163456
-0.095820
-0.033334
-0.147125
-0.112630
-0.084968
-0.109220
-0.021225
-0.156474
-0.068522
-0.022720
0.042744
-0.133778
-0.120567
0.008257
-0.097367
0.006749
0.017593
-0.088130
-0.057448
-0.076638
-0.020470
-0.080089
-0.011953
-0.078289
-0.058889
-0.032386
-0.038149
-0.006362
-0.024799
0.046108
-0.088803
0.017296
0.037424
0.051520
0.110804
0.034994
0.149795
0.127243
0.124155
0.104961
0.178915
0.058914
0.097394
0.070261
0.087319
0.036505
0.109750
0.002742
0.076190
0.035592
0.014220
0.002819
0.013670
0.004395
-0.015052
-0.022090
0.025724
0.008074
-0.043611
-0.045926
-0.007785
-0.041373
-0.068752
-0.039599
0.009907
-0.120619
-0.059728
-0.073260
0.024328
-0.077190
-0.025005
-0.009794
0.033195
0.248424
0.446561
0.814568
1.113742
1.345583
1.267216
1.057804
0.734020
0.327098
0.057897
-0.085989
-0.207919
-0.256506
-0.205282
-0.159378
-0.068195
-0.057153
-0.099669
-0.005288
-0.038415
-0.021968
-0.020804
-0.023700
0.009717
0.027983
0.033267
0.122693
0.074799
0.094485
0.086244
0.224198
0.188495
0.217940
0.220358
0.204491
0.293748
0.251536
0.267186
0.296161
0.309881
0.327615
0.321682
0.427678
0.373332
0.482049
0.431178
0.383913
0.421621
0.439013
0.469827
0.389054
0.357497
0.426273
0.434281
0.413845
0.398430
0.389622
0.384075
0.385854
0.384292
0.300987
0.238613
0.427831
0.370430
0.269351
0.272126
0.158311
0.239058
0.201619
0.086234
0.174660
0.125074
0.106147
0.091972
0.117125
0.104158
0.104249
0.044766
0.093379
-0.045213
0.002160
0.013856
0.002098
0.023706
-0.010821
-0.004534
-0.013910
0.035118
-0.060982
-0.084250
-0.045740
0.059412
-0.033907
-0.075980
-0.069567
-0.019845
-0.027845
0.010519
-0.037793
-0.083732
-0.039790
-0.047589
-0.070460
-0.092345
-0.019812
-0.067118
-0.044023
-0.079426
0.007088
-0.024708
-0.023843
-0.021328
-0.024465
-0.013080
0.022770
-0.006279
0.024193
-0.061826
-0.023122
-0.031738
-0.015357
0.015976
-0.034264
-0.076681
-0.035793
-0.060969
-0.020743
0.060132
-0.043201
-0.026651
0.052382
-0.090146
-0.005145
0.024520
0.016350
0.084030
0.042906
0.061562
0.010270
0.089848
0.109186
0.060321
0.039059
0.007943
0.213852
0.135272
0.074697
0.117806
0.141411
0.125344
0.126912
0.143974
0.148273
0.127018
0.073297
0.126661
0.166950
0.134767
0.125014
0.168502
0.097529
0.049621
0.084982
0.043657
0.074276
0.131054
0.058069
0.075069
0.059064
0.103888
0.087142
0.058634
-0.053923
0.010263
-0.013183
0.040910
-0.088530
-0.042645
-0.062258
0.040794
0.031579
-0.014202
0.019328
0.004096
0.095415
0.246823
0.565069
0.793512
1.111280
1.288762
1.324372
1.213278
0.919555
0.580469
0.186190
0.016380
-0.195806
-0.205706
-0.114875
-0.106390
-0.052417
-0.036714
0.014500
0.015824
0.038179
0.113838
0.006592
0.100210
0.159410
0.082134
0.124665
0.094027
0.202955
0.216877
0.211344
0.270078
0.222256
0.275552
0.282242
0.251613
0.352715
0.301450
0.329859
0.408099
0.396019
0.425666
0.500848
0.422416
0.490642
0.507403
0.459676
0.567958
0.549360
0.506055
0.550695
0.419301
0.545108
0.598309
0.478672
0.561127
0.481548
0.468795
0.487684
0.463043
0.511230
0.460787
0.425493
0.382607
0.341465
0.409566
0.309810
0.356466
0.358527
0.245520
0.219997
0.282091
0.164491
0.207483
0.092887
0.218455
0.177093
0.116300
0.152082
0.228528
0.115245
0.138056
0.070907
0.097371
0.070659
0.082769
0.111517
0.145159
0.079659
0.181439
0.084520
0.082383
0.020204
0.040334
0.107900
0.086649
0.010488
-0.001136
0.059778
0.011184
0.094451
0.075242
0.101342
0.006686
-0.028180
0.040536
0.109948
-0.012343
0.059830
0.033458
-0.005958
0.093589
0.036656
-0.029057
0.066970
0.044814
0.096571
0.004793
0.032037
0.054764
0.102349
0.074240
0.022003
0.074873
0.032639
0.041556
0.023974
0.076199
0.052169
0.043369
0.029200
0.050640
0.090282
0.061975
0.138018
0.014398
0.091211
0.080817
0.084677
0.119681
0.150210
0.039524
0.142530
0.105230
0.167514
0.181276
0.184100
0.234229
0.167510
0.157962
0.140151
0.220047
0.294090
0.248191
0.230877
0.225851
0.275383
0.217483
0.130945
0.113666
0.219195
0.101251
0.178374
0.156248
0.156166
0.163948
0.107759
0.063569
0.139107
0.125672
0.103894
0.105305
0.098674
0.098022
0.000853
0.045468
0.099350
0.064008
0.034642
0.088128
0.055215
-0.054439
-0.003100
0.097447
-0.018042
0.133999
0.245091
0.442182
0.870642
1.148467
1.257957
1.447880
1.278942
0.946618
0.622229
0.314546
-0.008357
-0.099096
-0.143098
-0.039284
-0.052819
0.025962
0.086438
0.109290
0.092578
0.030874
0.074315
0.047265
0.134339
0.133474
0.238511
0.186054
0.097728
0.104483
0.255016
0.185736
0.235959
0.276006
0.294594
0.214952
0.336104
0.327557
0.273743
0.507672
0.439537
0.384679
0.437896
0.414048
0.412438
0.488981
0.493296
0.490582
0.513601
0.499639
0.557115
0.503849
0.534367
0.526176
0.547487
0.568395
0.606609
0.543803
0.454242
0.506999
0.496468
0.472277
0.511182
0.468003
0.392922
0.381113
0.427496
0.295153
0.356386
0.250297
0.308653
0.243896
0.271311
0.211612
0.154285
0.158887
0.135871
0.173236
0.110490
0.137696
0.131203
0.073639
0.060202
0.153508
0.069416
0.077706
0.039386
-0.040191
0.061263
0.030833
-0.007423
0.014462
0.088442
-0.015943
0.043156
0.025916
0.051264
0.060386
0.056940
0.096695
0.004061
0.030741
-0.007766
0.063050
-0.000242
0.000442
-0.020260
0.004741
0.034778
0.000077
0.017379
0.084410
-0.064275
-0.007616
0.010822
0.027346
0.051693
0.103153
-0.016502
-0.009832
0.009380
-0.033480
-0.048424
-0.065958
0.009749
-0.084156
-0.026870
-0.019096
0.004716
0.040872
-0.059845
-0.056402
-0.073608
0.054569
0.081494
-0.026325
0.002313
0.037780
0.083555
0.104960
0.076129
0.106072
0.144503
0.054314
0.100765
0.007308
0.132728
0.100377
0.073862
0.159767
0.090370
0.143440
0.198698
0.161353
0.154678
0.163928
0.116589
0.043892
0.114476
0.119921
0.158903
0.137499
0.161949
0.091542
0.064253
0.026410
0.041423
-0.005737
-0.064674
0.037040
0.045658
0.004162
0.004618
-0.016923
-0.049007
-0.040340
-0.065440
-0.030871
-0.075557
-0.064122
-0.105451
-0.039446
-0.068397
-0.068500
-0.087047
-0.048940
0.069692
0.083549
0.382501
0.654172
1.027492
1.208018
1.336361
1.242117
0.878533
0.590095
0.237741
-0.084010
-0.226369
-0.200075
-0.263952
-0.168635
-0.098090
-0.088985
-0.058517
0.050202
-0.073549
0.016300
0.035688
-0.001665
0.017486
0.080745
0.041866
-0.026683
0.057503
0.180236
0.142632
0.142499
0.126889
0.161879
0.187850
0.261802
0.269243
0.248949
0.306908
0.225499
0.291159
0.426975
0.512771
0.295686
0.325326
0.435441
0.345388
0.369063
0.465991
0.458586
0.467499
0.430846
0.385342
0.458802
0.449302
0.506725
0.403794
0.366455
0.423702
0.359366
0.466583
0.350505
0.343216
0.315387
0.304917
0.307124
0.207935
0.274350
0.225420
0.184710
0.099613
0.079571
0.063341
0.076820
0.106608
0.029832
0.029032
0.050648
0.057299
0.061050
-0.025328
-0.017687
-0.017172
-0.013891
-0.030699
-0.064528
-0.103508
-0.016605
-0.104531
-0.019561
-0.102238
-0.076564
-0.034057
-0.087430
-0.032817
-0.119306
-0.037855
-0.070039
-0.055601
-0.110638
-0.140705
-0.098340
-0.080598
-0.099099
-0.155754
-0.074968
-0.106207
-0.041934
-0.082092
-0.135914
-0.130927
-0.029823
-0.130880
-0.184099
-0.082758
-0.119755
-0.057405
-0.024298
-0.157041
-0.097113
-0.101651
-0.066909
-0.091030
-0.114951
-0.074046
-0.074931
-0.088971
-0.076105
-0.102500
-0.069407
-0.147486
0.014423
-0.138341
-0.151204
-0.078392
-0.066247
-0.061458
0.017568
-0.113374
-0.034323
0.024309
-0.065049
-0.006418
0.010993
-0.001198
0.042694
0.015755
0.079450
0.030417
0.008564
0.097247
0.107832
-0.011214
0.068523
0.091456
0.104968
0.087774
0.060681
0.025988
0.066253
0.006385
0.022378
-0.008616
0.003087
-0.064643
-0.021372
0.047484
-0.063425
0.059909
0.037260
-0.053946
-0.089213
-0.145379
-0.130303
-0.094744
-0.148981
-0.112508
-0.072113
-0.051737
-0.160848
-0.033000
-0.095788
-0.082043
-0.047609
-0.043515
-0.055647
0.094952
0.305301
0.551879
0.829557
1.104688
1.357501
1.252624
1.027140
0.641484
0.179747
-0.036195
-0.178587
-0.318309
-0.301059
-0.296318
-0.143514
-0.050660
-0.062041
-0.047184
-0.110664
0.062989
0.033568
-0.037874
0.017038
0.024313
0.089393
0.064064
0.123597
-0.005445
0.131009
0.096497
0.129177
0.069345
0.210985
0.150584
0.224040
0.136512
0.243271
0.276705
0.262609
0.227900
0.252511
0.295258
0.326173
0.321735
0.347394
0.359611
0.402247
0.383909
0.383977
0.368956
0.472389
0.432928
0.489582
0.468044
0.390938
0.354710
0.489029
0.399243
0.399612
0.451938
0.381920
0.291917
0.382479
0.344806
0.294034
0.163286
0.143927
0.242000
0.142093
0.171076
0.116360
0.150764
0.073159
0.127455
0.104347
0.118439
0.032358
0.009326
0.009024
0.029639
-0.023766
0.024736
-0.041283
-0.102627
-0.020476
0.015404
-0.045018
-0.073422
-0.037910
0.004577
-0.029718
-0.106065
-0.068849
-0.158467
-0.050462
0.003025
-0.009919
-0.092449
-0.070278
-0.091891
-0.001431
-0.141923
-0.032746
-0.082721
-0.042833
-0.092881
-0.049980
-0.094546
-0.069578
-0.043956
-0.037440
-0.109745
-0.032451
-0.083615
-0.054668
-0.117050
-0.052026
-0.027368
-0.040788
0.048026
-0.004431
-0.006106
-0.098362
0.006640
-0.050787
-0.093476
0.024848
-0.076399
0.003576
-0.034583
-0.037206
-0.066963
-0.042360
-0.047667
0.044558
0.013060
0.030797
0.013548
0.103508
0.046825
0.029073
0.033028
0.026513
0.011726
0.170263
0.123275
0.129132
0.127626
0.098552
0.051427
0.068986
0.116832
0.106705
0.159494
0.109453
0.147110
0.146369
0.085261
0.207370
0.098882
0.136364
0.135354
0.089673
0.098285
0.101128
0.074063
0.027824
-0.064356
0.084115
0.090857
0.073745
0.058622
0.044389
-0.012239
0.018868
-0.035528
0.022089
-0.064642
-0.078605
-0.005640
0.013096
-0.014396
0.053922
0.088765
0.103049
0.294093
0.636692
0.936215
1.234828
1.409558
1.343797
1.077247
0.799011
0.431811
0.161396
-0.053521
-0.213068
-0.229488
-0.165747
-0.088980
-0.018570
0.007160
0.001665
0.005430
0.021119
0.101482
0.122766
0.033485
0.094625
0.116120
0.064607
0.134635
0.145478
0.183701
0.241301
0.281268
0.219071
0.228037
0.248795
0.257466
0.268461
0.281425
0.363650
0.364330
0.405104
0.433236
0.421030
0.498021
0.477753
0.537006
0.410090
0.516356
0.458643
0.557485
0.604145
0.577848
0.498920
0.607631
0.500120
0.509873
0.546105
0.565837
0.502344
0.537781
0.440508
0.405162
0.490387
0.457526
0.448331
0.376247
0.413289
0.303421
0.314853
0.242669
0.329470
0.307891
0.239676
0.252720
0.178685
0.093935
0.189447
0.200512
0.162289
0.095230
0.193057
0.147468
0.098708
0.032265
0.102515
0.111508
0.194368
0.100550
0.046438
0.136508
0.074581
-0.017910
0.101811
0.002644
0.011056
0.063316
-0.042635
0.069712
0.072836
0.078499
0.001081
0.066059
0.018173
0.019798
0.066178
0.022899
0.046274
0.070938
-0.005054
0.057085
0.079845
0.075051
-0.003532
0.066988
-0.087495
0.037901
-0.000147
0.060098
0.064088
0.072784
0.064041
0.045316
0.018215
0.074020
-0.008583
0.085088
0.066812
0.155706
0.121087
0.013673
0.110020
0.066643
0.086573
0.057502
0.108067
0.124109
0.048552
0.149147
0.176787
0.093721
0.179626
0.107747
0.226572
0.184493
0.162373
0.226629
0.197975
0.194088
0.255434
0.242028
0.251377
0.246197
0.272591
0.177778
0.184937
0.242015
0.279267
0.285266
0.293757
0.194867
0.198897
0.148778
0.265152
0.137791
0.221810
0.148847
0.096507
0.109596
0.112915
0.165254
0.216789
0.083508
0.146217
0.060215
0.068069
0.076507
0.111246
0.040949
0.055625
0.079056
0.082181
0.064181
0.063692
0.119645
0.042121
0.239141
0.441216
0.545119
0.899950
1.166020
1.425686
1.409767
1.273888
0.913646
0.610005
0.234661
0.050124
-0.121006
-0.156101
-0.049747
-0.005060
0.092866
0.036264
0.134775
0.235494
0.187909
0.137240
0.186536
0.114521
