-0.013336
0.062008
-0.045731
-0.003864
-0.028394
0.047088
-0.041723
0.040755
0.060375
-0.054315
-0.058760
0.051923
-0.019924
0.026942
-0.038423
0.074796
-0.066352
-0.051535
-0.069616
0.028206
0.024765
0.045178
0.105846
0.029154
0.057396
0.083892
0.076476
0.133385
0.037713
0.061871
0.082313
0.048192
0.105476
0.140457
0.144912
0.113365
0.102705
0.165888
0.196211
0.295699
0.198489
0.171521
0.185671
0.154637
0.155473
0.187962
0.177476
0.189148
0.171343
0.110303
0.222973
0.111709
0.197744
0.054619
0.123994
0.127225
0.095188
0.060001
0.097374
0.093360
0.100451
0.081809
-0.034105
0.044344
0.074757
0.020874
-0.052900
0.013694
0.086156
0.043227
0.045202
-0.013043
0.002845
-0.006064
0.048321
0.012590
0.012563
0.049088
-0.027233
0.018772
0.357239
0.622542
0.854084
1.158111
1.282432
1.338804
1.268834
0.992725
0.542466
0.198866
-0.025991
-0.135178
-0.214615
-0.138558
-0.095548
-0.039113
0.082233
0.009515
0.144014
0.070417
0.149479
0.112584
0.071071
0.033090
0.085489
0.087682
0.091937
0.131891
0.106264
0.071997
0.151748
0.140433
0.180424
0.124153
0.187113
0.246063
0.188896
0.324306
0.239429
0.264266
0.334112
0.334218
0.305889
0.373884
0.449205
0.370633
0.425274
0.452708
0.565496
0.466776
0.482391
0.545937
0.567170
0.524376
0.560543
0.560979
0.570908
0.609075
0.513823
0.572180
0.594294
0.566039
0.522995
0.547762
0.542269
0.549914
0.458161
0.473480
0.451644
0.446325
0.495452
0.384583
0.372368
0.335443
0.278242
0.265874
0.320676
0.240889
0.239108
0.282130
0.197145
0.159060
0.180060
0.239036
0.137915
0.143666
0.222395
0.224600
0.105315
0.088781
0.123573
0.073469
0.100299
0.086189
0.107001
0.059532
0.052029
0.088079
0.116088
0.017898
0.037106
0.100326
0.044726
0.180103
0.140931
0.156376
0.050900
0.092414
-0.041675
0.083382
0.084444
0.105468
0.085423
0.050760
0.114021
0.043979
0.215522
0.076217
0.085056
0.120299
0.060446
0.130718
0.084809
0.112809
0.087361
0.113431
0.064662
0.127094
0.103131
0.121440
0.072132
0.097138
0.167091
0.155297
0.089006
0.099766
0.115795
0.103893
0.081780
0.058075
0.138822
0.149278
0.105388
0.055071
0.036612
0.119937
0.099059
0.117475
0.098615
0.024843
0.122310
0.086791
0.087091
0.070085
0.077426
0.095159
0.146777
0.133471
0.096956
0.070682
0.114653
0.143166
0.220571
0.205849
0.181888
0.073774
0.313739
0.195282
0.221783
0.287308
0.195576
0.307626
0.240268
0.210151
0.160695
0.266677
0.308207
0.277227
0.268108
0.261941
0.216943
0.139141
0.126908
0.211217
0.203607
0.235761
0.191122
0.128720
0.096631
0.115380
0.196616
0.093753
0.126331
0.124479
0.179826
0.102406
0.037867
0.078085
0.070921
0.098377
0.006825
0.075963
0.080436
0.122277
0.009912
0.107142
0.151125
0.044052
0.064072
0.029458
0.032270
0.249518
0.402766
0.829799
1.156846
1.395865
1.441211
1.275189
1.029757
0.701828
0.304534
0.052035
-0.119484
-0.174159
-0.162501
-0.052811
-0.028165
-0.006384
0.041652
0.013159
0.035858
0.107494
0.070916
0.110281
0.100648
0.103096
0.103599
0.047003
0.159997
0.107141
0.107812
0.114494
0.070938
0.159638
0.236443
0.161345
0.188679
0.262031
0.169976
0.255698
0.211291
0.330120
0.310668
0.260498
0.321588
0.379252
0.339653
0.441491
0.412063
0.494444
0.554898
0.424567
0.445559
0.527896
0.577841
0.472798
0.496707
0.537998
0.531454
0.476646
0.544139
0.483367
0.518120
0.559328
0.486378
0.562112
0.538354
0.453726
0.493196
0.405816
0.502715
0.362188
0.413233
0.410603
0.336337
0.293069
0.330024
0.189359
0.165138
0.194570
0.172979
0.228460
0.260739
0.165186
0.172230
0.091836
0.238164
0.092471
0.099520
0.084601
0.091015
0.126187
0.035261
-0.021893
0.080758
0.056834
0.070649
0.045134
0.078091
-0.019599
0.067949
0.021811
0.058436
0.005515
0.014782
-0.067930
-0.013802
0.016169
0.010041
0.073987
0.033809
-0.000529
-0.024026
-0.047063
0.004459
-0.026752
0.071281
-0.092513
-0.027515
0.024470
0.003101
0.000011
-0.009473
-0.076166
-0.057861
-0.037531
-0.051507
0.010764
-0.030921
-0.061705
-0.034639
0.039370
0.043002
-0.021513
-0.068036
-0.030568
-0.027130
-0.050790
-0.050065
-0.027403
-0.008023
0.000338
-0.016335
0.005608
-0.096721
0.043302
0.054916
-0.035638
-0.026818
0.027812
-0.090392
-0.040139
-0.000229
0.008777
-0.036561
-0.051353
-0.025443
0.050225
0.051952
0.083516
0.048129
0.015066
-0.027661
0.023190
0.083619
0.190742
0.096124
0.085861
0.191907
0.153824
0.155084
0.184801
0.210183
0.145934
0.159464
0.152123
0.108015
0.176333
0.143774
0.106762
0.156872
0.102352
0.163531
0.022752
0.024780
0.103363
0.025589
0.074613
0.037700
-0.011970
0.102885
-0.008220
-0.021081
0.005372
0.067432
0.042907
0.039897
0.109253
0.012402
-0.021429
-0.027855
0.015371
-0.073977
-0.002174
0.095091
-0.056615
-0.011575
-0.008181
-0.040572
-0.051208
-0.048757
-0.039872
0.104765
0.278724
0.591729
0.854878
1.118648
1.328490
1.345161
0.996317
0.675256
0.244036
0.045410
-0.240567
-0.187876
-0.326027
-0.182119
-0.208195
-0.124958
-0.068982
-0.014183
0.030782
-0.052830
0.001290
-0.088196
-0.021651
-0.022469
-0.022286
0.002603
-0.022113
-0.079685
0.058815
0.019876
0.046945
0.081024
0.092600
0.134460
0.100526
0.154915
0.126164
0.169911
0.186076
0.193889
0.164458
0.252265
0.252958
0.269408
0.240593
0.350172
0.373891
0.277503
0.384917
0.342585
0.394077
0.411323
0.427330
0.447343
0.494618
0.538799
0.466978
0.419091
0.462524
0.436901
0.439873
0.404467
0.381807
0.399891
0.430873
0.394125
0.425864
0.323357
0.272017
0.258900
0.302819
0.193570
0.281926
0.259958
0.233902
0.158877
0.253148
0.166454
0.135878
0.096150
0.164280
0.122233
0.052159
0.117720
0.040353
0.088218
0.066518
0.095166
-0.004291
0.001555
0.047591
-0.088614
-0.079328
0.007188
-0.036763
0.013341
-0.053497
-0.081838
-0.046273
0.000889
-0.076123
-0.088968
-0.060846
-0.013814
-0.039402
-0.096243
-0.033183
-0.123156
-0.079692
-0.043273
-0.134513
-0.060584
-0.061070
-0.056715
-0.063108
-0.033181
-0.088078
-0.120581
-0.065405
-0.049211
-0.038503
0.051830
-0.075404
-0.018382
-0.065177
-0.066634
-0.012300
0.047187
-0.008460
-0.015515
0.012876
-0.037012
-0.042830
-0.062921
-0.046360
0.015554
-0.065584
-0.044420
-0.049412
-0.002159
0.035603
-0.080908
-0.040490
-0.087454
0.006650
-0.093735
-0.081821
0.043643
0.000835
-0.062790
-0.004444
0.047037
-0.035634
0.014864
0.020502
0.035511
-0.004418
0.062382
0.035380
-0.000489
0.110584
0.086122
0.062034
0.077663
0.136581
0.092765
0.117124
0.093408
0.162545
0.131005
0.164445
0.170464
0.150206
0.131769
0.205812
0.128660
0.156604
0.162783
0.105491
0.103141
0.124219
0.143607
0.102308
0.134646
0.031735
0.042648
0.052861
0.055121
0.040406
0.111347
-0.012314
-0.052747
0.082183
0.057729
0.002744
-0.029877
-0.067133
-0.019387
-0.042273
0.046678
-0.055510
-0.015351
-0.046453
-0.012533
0.059709
-0.013803
0.004171
-0.034250
-0.006509
0.021406
0.053132
0.387304
0.560648
0.899695
1.134361
1.327963
1.319278
1.083290
0.765337
0.553278
0.143516
-0.157694
-0.366051
-0.177334
-0.135874
-0.157120
-0.048937
-0.091426
0.047002
0.030277
0.018207
0.086674
0.084566
0.014953
0.038178
-0.023370
0.100270
0.044807
0.080880
0.055036
0.049174
0.140277
0.081757
0.179781
0.219775
0.083550
0.202698
0.172311
0.238426
0.257829
0.266624
0.255614
0.304152
0.302019
0.335492
0.394841
0.354792
0.367771
0.439426
0.388322
0.390271
0.459123
0.446987
0.522810
0.524520
0.520462
0.501028
0.515230
0.584894
0.561302
0.562963
0.549618
0.462280
0.472656
0.483827
0.455450
0.422190
0.433669
0.504996
0.360735
0.326810
0.331984
0.398855
0.362942
0.323738
0.294178
0.326484
0.247908
0.184295
0.264240
0.197333
0.250207
0.190081
0.165919
0.237003
0.215077
0.174208
0.099242
0.190298
0.123937
0.079473
0.153382
0.154018
0.069377
0.094103
0.074618
0.078243
0.068614
0.070673
0.082693
0.078188
0.046419
0.000191
0.077764
0.018991
0.086426
0.056748
0.127623
0.080806
0.044907
0.054742
0.049664
0.123073
0.049180
0.097199
0.135715
0.035865
0.076577
0.041927
0.057674
0.068764
0.046952
0.063901
0.064499
0.107653
0.020315
0.085386
0.103869
0.118929
0.044486
0.129532
0.061075
0.053643
0.028843
0.015941
0.119762
0.016843
0.101638
0.021404
0.030992
0.164321
0.129929
0.078448
0.004557
0.042231
0.059031
0.090082
0.123643
0.057380
0.091326
0.048447
0.141206
0.134249
0.093603
0.046135
0.114582
0.104644
0.159790
0.163899
0.104770
0.107011
0.122726
0.188181
0.244306
0.174011
0.217992
0.281692
0.236481
0.192390
0.307490
0.258552
0.191262
0.240096
0.217423
0.238541
0.214952
0.318938
0.277076
0.259971
0.265375
0.246411
0.221029
0.239195
0.218508
0.245042
0.154006
0.217292
0.140472
0.233431
0.174126
0.183983
0.097014
0.122228
0.134589
0.159932
-0.037661
0.090831
0.091956
0.074039
0.155372
0.179146
0.103766
0.102415
0.092499
0.140414
0.103243
0.057286
0.047952
0.100678
0.041770
0.034260
0.131146
0.322437
0.573049
0.891231
1.186372
1.500000
1.451193
1.326669
0.998750
0.666740
0.264000
0.001808
-0.140795
-0.081225
-0.151269
0.007544
-0.063869
0.111118
0.076856
0.121383
0.170459
0.179422
0.168278
0.172925
0.139096
0.084705
0.097355
0.087690
0.137823
0.189089
0.178287
0.181605
0.231852
0.215595
0.250514
0.248382
0.195986
0.235997
0.253189
0.277367
0.403330
0.400126
0.415016
0.422818
0.449488
0.448458
0.336183
0.408832
0.437064
0.489583
0.505576
0.495037
0.480711
0.545718
0.536161
0.559683
0.659419
0.599320
0.578014
0.571186
0.615910
0.628980
0.475203
0.574633
0.496028
0.493305
0.469053
0.521054
0.437631
0.509974
0.403410
0.362386
0.381802
0.345777
0.280862
0.358094
0.257186
0.244671
0.320903
0.175711
0.193417
0.210015
0.250718
0.206695
0.185256
0.148474
0.208948
0.106490
0.144757
0.164503
0.202592
0.109132
0.103385
0.058368
0.100731
0.083468
0.113212
0.060627
0.135215
0.099302
0.066060
0.115586
0.108130
0.081645
0.103298
0.120422
0.087080
0.070903
0.121133
0.065033
0.051872
0.033714
0.119196
0.064704
0.099704
-0.016513
0.115976
0.071932
0.141860
0.014797
0.064231
0.056970
0.027878
0.001899
0.088298
0.014232
0.027502
-0.021117
0.076004
0.117807
0.002895
0.114071
0.080564
0.033120
0.051464
0.046184
0.115213
0.138107
0.075030
0.064252
0.108665
0.062732
0.006805
0.154745
0.066144
0.084496
0.067490
0.078677
0.021081
0.044567
0.052693
0.066462
0.090932
0.058249
0.025167
0.091313
0.090444
0.114587
0.161239
0.010294
0.165606
0.105408
0.132645
0.087184
0.069703
0.087050
0.135170
0.193094
0.175124
0.141126
0.244914
0.205229
0.145523
0.140378
0.233189
0.229462
0.263417
0.172673
0.186913
0.187014
0.110953
0.131940
0.145347
0.210189
0.132645
0.188597
0.158169
0.108242
0.072936
0.076116
-0.005346
0.073517
0.090811
0.028498
0.084091
0.017172
-0.017961
-0.026720
0.030311
0.031046
-0.009215
0.067053
-0.042248
0.118461
0.017155
-0.023533
0.001166
-0.011501
0.061396
-0.005752
-0.025046
0.036000
0.166099
0.407155
0.709887
1.088382
1.270877
1.336589
1.218564
0.882428
0.668627
0.293399
-0.005405
-0.158745
-0.190123
-0.264938
-0.149548
-0.062961
0.009254
0.036974
0.033604
0.028268
0.031192
0.024659
0.080250
0.104302
0.049366
0.101293
0.047721
0.030691
0.100424
0.089963
0.107880
0.092825
0.111369
0.180888
0.173223
0.082917
0.178567
0.117591
0.228285
0.250004
0.183696
0.225250
0.253399
0.290979
0.202091
0.319998
0.345821
0.459877
0.438634
0.393459
0.339517
0.395612
0.406819
0.475012
0.521331
0.441276
0.470598
0.483596
0.382465
0.550384
0.374370
0.420901
0.461133
0.441412
0.379427
0.348183
0.344890
0.384362
0.281118
0.405243
0.317742
0.265497
0.295974
0.248740
0.291318
0.170261
0.228089
0.257006
0.133240
0.171226
0.060428
0.148578
0.020170
0.041908
0.047852
0.036470
0.020559
-0.002201
0.065638
-0.124632
-0.027987
-0.045175
-0.011963
-0.081617
-0.122269
-0.013876
0.037987
-0.077224
0.001361
-0.049016
-0.080969
-0.047357
-0.092383
-0.054494
-0.018681
-0.113863
-0.058343
0.005593
-0.034540
-0.050258
-0.066388
-0.026116
-0.117434
-0.040458
-0.019289
-0.043744
-0.094081
-0.037641
-0.061720
-0.008781
-0.023105
-0.065945
0.029839
-0.057081
-0.016719
-0.115092
-0.066726
-0.081229
0.000410
-0.109257
-0.025526
-0.101699
-0.099069
-0.042098
-0.038622
-0.060203
-0.061318
-0.072732
-0.094804
-0.092956
-0.112431
-0.032904
-0.080963
-0.048871
-0.127215
-0.065782
-0.053397
-0.122421
-0.006888
-0.100871
-0.062390
-0.005336
-0.087849
-0.009470
-0.060853
-0.014906
-0.061921
0.016080
-0.070589
0.007885
-0.069786
0.009042
-0.003028
0.041080
0.103614
0.116167
0.048953
-0.007054
0.108457
0.127550
0.103189
0.118672
0.091396
0.098010
0.113953
0.103887
0.032791
0.118182
0.017879
0.073509
0.075686
0.067873
0.052143
0.030480
-0.027534
-0.040622
-0.013489
-0.022376
-0.007292
-0.010908
0.006605
0.006170
0.004137
0.008967
-0.065113
-0.098606
-0.057819
-0.052351
-0.085654
-0.026986
-0.043176
-0.043790
-0.080976
-0.071737
0.028158
-0.053753
-0.091932
-0.094583
-0.082545
-0.084632
-0.111946
0.000237
0.252358
0.612054
0.941913
1.189118
1.247991
1.144299
1.020629
0.693551
0.297329
-0.012336
-0.166797
-0.299704
-0.382438
-0.255321
-0.218675
-0.109312
-0.093798
-0.054690
-0.057415
-0.056726
0.001149
0.003575
-0.110986
-0.074833
-0.054486
-0.088659
0.072115
-0.020615
0.043155
0.082752
0.057343
-0.022734
0.090297
0.062516
0.087527
0.046799
0.078549
0.142325
0.155362
0.170139
0.234672
0.197229
0.215094
0.277288
0.317799
0.246129
0.320913
0.324395
0.346655
0.353100
0.346849
0.348259
0.351968
0.375627
0.457275
0.492135
0.432698
0.449145
0.418490
0.389157
0.391905
0.442440
0.455303
0.425094
0.371824
0.362687
0.304179
0.213448
0.260764
0.270685
0.277482
0.239379
0.241994
0.213964
0.219856
0.177425
0.181080
0.086896
0.139817
0.124103
0.058849
-0.008702
0.005986
0.052060
0.116342
0.136614
-0.062011
-0.007267
0.026832
-0.002566
-0.058662
0.030021
-0.099206
-0.025566
0.005875
-0.050327
0.002130
-0.022575
0.022043
-0.079477
-0.050369
-0.061129
-0.052868
-0.003168
-0.065023
-0.160575
-0.066532
-0.102850
-0.042937
-0.025575
-0.074719
-0.052754
-0.094858
-0.093660
-0.056770
0.021890
0.001401
-0.073813
-0.047640
0.003660
-0.042873
-0.031583
0.036710
-0.034972
-0.008810
-0.024656
-0.013515
-0.099078
-0.023265
-0.075922
0.007226
-0.119802
-0.037386
0.008795
0.044369
0.002240
-0.034824
-0.036345
-0.059185
-0.039054
0.002638
-0.005246
-0.079726
-0.015462
-0.022445
-0.015969
0.018532
-0.009056
-0.099335
0.051607
-0.005682
0.000684
0.027921
-0.009577
0.011922
0.040624
0.006116
0.043445
0.076225
-0.000905
0.008914
0.084672
0.071312
0.066265
0.057235
0.068988
0.146587
0.146641
0.141001
0.115838
0.169117
0.151637
0.104585
0.112219
0.152653
0.190112
0.204611
0.205384
0.208292
0.039570
0.132830
0.119257
0.148898
0.086642
0.076467
0.060797
0.013105
0.017034
0.047888
0.101282
-0.001617
0.058962
-0.008061
0.071492
0.075702
0.030046
0.022717
-0.051891
0.053541
0.028583
0.037517
0.023487
0.014399
-0.027355
0.040772
-0.002839
-0.020245
0.010345
-0.059641
-0.025117
0.144686
0.263146
0.506289
0.940937
1.145677
1.360176
1.355587
1.169703
0.831116
0.444840
0.117291
-0.082465
-0.270054
-0.209321
-0.184928
-0.164235
0.007451
0.004201
0.057702
0.025902
-0.050208
0.012946
-0.044424
0.101407
0.083762
0.091433
0.127686
0.092276
0.061129
0.113471
0.107209
0.098578
0.079124
0.148587
0.137438
0.145930
0.166202
0.206615
0.204488
0.250379
0.231875
0.251992
0.303532
0.390890
0.332374
0.321823
0.363778
0.341356
0.412432
0.459613
0.469539
0.372234
0.477028
0.436197
0.485830
0.508623
0.427873
0.511141
0.561581
0.503523
0.546721
0.531165
0.536334
0.502190
0.543083
0.542230
0.439581
0.434599
0.486074
0.457947
0.373882
0.359319
0.313406
0.315522
0.361148
0.260129
0.331494
0.296914
0.252363
0.220308
0.204642
0.180717
0.209703
0.158266
0.179027
0.119383
0.009835
0.125530
0.079511
0.161846
0.149376
0.060114
0.061967
0.127771
0.071526
0.029760
0.018777
0.067680
-0.014452
0.080371
-0.011315
0.087151
0.143739
0.092991
0.103883
0.029072
-0.001826
0.038299
0.083280
-0.001925
0.003383
-0.006785
0.059082
0.020197
0.052526
-0.005252
0.095683
0.035152
0.175533
0.092429
-0.024677
0.093268
0.121490
0.061862
0.055935
0.025258
0.025954
0.083397
0.064960
-0.001229
0.099036
0.078478
0.063809
0.013678
-0.048142
0.033222
0.003040
0.064298
0.089295
0.117985
0.054455
0.079593
0.025112
0.028445
0.061140
0.089532
0.052241
0.145445
-0.019731
0.003930
0.009889
0.017845
0.036687
0.092019
0.062401
0.101944
0.039291
0.108483
0.050971
0.143886
0.103794
0.021030
0.158502
0.102793
0.141537
0.159217
0.149697
0.151019
0.223215
0.163967
0.170686
0.306866
0.130175
0.198411
0.313118
0.212396
0.247846
0.189961
0.192353
0.207543
0.176114
0.176026
0.161698
0.191352
0.086071
0.045739
0.096380
0.122124
0.194557
0.116759
0.078529
0.160422
0.069539
0.016220
-0.052611
0.064242
0.051826
0.053274
0.045755
0.066603
-0.007358
0.026062
-0.022372
0.084409
0.090058
0.063312
0.093522
0.099659
0.047466
-0.059075
0.001672
0.100012
0.239574
0.463397
0.845435
1.175954
1.393158
1.382387
1.241543
0.977491
0.628626
0.308424
0.027799
-0.247694
-0.156853
-0.182546
-0.104617
-0.130239
0.054338
-0.030857
-0.030196
0.053358
-0.002986
0.011229
0.097402
0.057951
0.062669
0.090828
0.077545
0.086485
0.067824
0.127545
0.078312
0.068919
0.127435
0.209796
0.091743
0.266780
0.168422
0.133213
0.208053
0.216852
0.295819
0.186220
0.278563
0.363731
0.344557
0.344430
0.390259
0.397655
0.399029
0.451897
0.448684
0.465558
0.483153
0.552090
0.513469
0.493752
0.557032
0.525042
0.523679
0.545898
0.433084
0.548350
0.471341
0.538686
0.398314
0.481608
0.387867
0.414238
0.433408
0.325516
0.297960
0.351658
0.264706
0.302731
0.321601
0.270896
0.286069
0.209842
0.159873
0.203732
0.228177
0.128716
0.162806
0.130219
0.150304
0.057949
0.036252
0.005603
0.133271
0.110593
0.105244
0.033246
0.056992
0.126944
0.018634
-0.011819
0.061314
0.019846
-0.037775
-0.028839
0.049639
0.003844
0.028776
0.007465
0.036426
-0.031548
-0.006489
0.036139
-0.056885
-0.009985
-0.057001
-0.051289
-0.102705
-0.001313
-0.057913
-0.053137
-0.040151
-0.069402
-0.033083
-0.003903
0.020064
0.000645
0.028106
-0.001206
-0.063398
-0.024295
0.029400
-0.063617
-0.089904
-0.067111
-0.107464
-0.047531
-0.088577
-0.061517
-0.064479
-0.005519
-0.025292
-0.043058
-0.070751
-0.036192
-0.056839
-0.108648
0.038072
-0.017364
-0.000488
-0.032176
-0.012679
-0.079738
-0.033286
-0.080198
-0.074428
-0.057308
-0.052408
-0.069452
0.022954
0.028109
0.001678
-0.026913
0.022959
-0.002843
0.017703
0.034938
0.022333
0.078706
0.018334
0.084890
0.065861
0.118787
0.081333
0.105009
0.105478
0.172684
0.121128
0.129358
0.095550
0.047031
0.153640
0.153560
0.069833
0.047811
0.049742
0.145856
0.054861
0.086626
-0.004066
-0.073329
0.052471
0.062261
-0.164118
0.005025
0.042242
-0.033719
-0.063356
0.004516
0.043573
-0.109357
-0.122618
0.019383
-0.080773
-0.125136
-0.079136
-0.092792
-0.125397
-0.051944
-0.145622
-0.105024
-0.154878
-0.061445
-0.116087
-0.033632
-0.038814
0.138562
0.302547
0.650023
0.795516
1.239417
1.300236
1.210853
0.892764
0.578169
0.253113
-0.089178
-0.209046
-0.327085
-0.265903
-0.245218
-0.212257
-0.091483
-0.056470
-0.086996
-0.084656
-0.033044
-0.081681
-0.094045
-0.049670
-0.086463
-0.003774
-0.088600
0.011563
-0.038196
-0.038773
0.005501
0.047094
0.035372
0.054209
0.055697
0.064377
0.149185
0.159908
0.062712
0.196359
0.143713
0.173331
0.175894
0.187306
0.242057
0.200815
0.191917
0.284717
0.256369
0.304974
0.365149
0.306850
0.332250
0.345809
0.352258
0.413031
0.476311
0.406142
0.374983
0.383456
0.456495
0.400079
0.425761
0.423162
0.338626
0.314587
0.281586
0.296545
0.247938
0.306148
0.228098
0.203534
0.233787
0.206899
0.193364
0.187950
0.054085
0.123408
0.078687
0.074529
0.034376
-0.000761
0.043305
0.089389
-0.061482
0.025305
0.030496
0.039417
-0.051852
-0.057581
-0.022697
-0.007590
-0.099280
-0.098974
-0.025883
-0.052291
-0.046334
-0.072061
-0.110283
-0.084583
-0.062984
-0.127311
-0.108690
-0.141976
-0.097658
-0.064719
-0.139473
-0.099934
-0.091800
-0.166346
-0.114905
-0.099008
-0.070895
-0.085690
-0.054555
-0.067937
-0.036735
-0.096817
-0.103812
-0.113026
-0.081250
-0.080717
-0.028610
-0.049880
-0.040753
-0.172771
-0.141551
-0.047195
-0.186201
-0.056078
-0.031027
-0.100421
-0.110264
-0.074008
-0.125987
-0.071742
-0.205650
-0.141538
-0.033790
-0.108003
-0.220422
-0.088056
-0.066044
-0.056322
-0.075632
-0.067427
-0.135663
-0.122312
-0.099458
-0.098365
-0.079824
-0.092510
-0.127459
-0.055381
-0.117024
-0.076581
-0.056016
-0.044862
-0.058721
-0.061098
-0.058319
-0.003185
0.008246
-0.050631
-0.024237
0.070113
0.016425
0.085486
0.086851
0.049341
0.046209
0.130821
0.095460
0.140523
0.050798
0.134309
0.090882
0.125030
0.096669
0.065632
0.072410
0.090237
0.049317
-0.024758
-0.068372
0.049133
-0.028638
0.004442
-0.090260
-0.011036
-0.040108
-0.063141
-0.051209
0.019859
-0.071793
-0.043186
-0.011937
-0.036016
-0.077760
-0.046750
-0.108068
-0.113177
-0.077832
-0.075104
-0.048045
-0.065575
-0.162506
-0.096017
-0.162105
-0.099297
-0.061024
0.024820
0.263960
0.558429
0.866401
1.124733
1.257385
1.182115
1.003802
0.683771
0.371871
0.003755
-0.202814
-0.322061
-0.322640
-0.236482
-0.159929
-0.003924
-0.022467
0.002424
-0.030572
0.025549
-0.072286
0.022763
-0.068069
-0.042813
0.005240
-0.004184
0.031802
0.069269
0.066855
0.099813
0.127747
0.104498
0.095387
0.132101
0.087705
0.143280
0.154744
0.209397
0.107683
0.278975
0.251057
0.230727
0.268965
0.241351
0.260637
0.324702
0.338583
0.328067
0.415342
0.475051
0.473390
0.440050
0.488304
0.400548
0.367537
0.417653
0.410889
0.482095
0.504351
0.426397
0.466652
0.427722
0.468301
0.418853
0.408486
0.371295
0.380688
0.328533
0.339635
0.283771
0.310062
0.277648
0.282381
0.213069
0.263406
0.230540
0.200688
0.124515
0.219759
0.180150
0.186940
0.014670
0.134844
0.108945
0.049707
0.115323
0.072888
0.073967
0.098047
0.027705
0.111879
0.037188
-0.058380
0.046688
-0.028388
-0.032780
0.023167
0.024640
-0.059589
-0.024616
-0.026779
0.023522
-0.029881
-0.003653
0.022491
-0.004896
-0.016109
-0.007181
0.021220
0.021334
0.025095
0.003615
0.004021
-0.059846
0.110992
0.011596
-0.069478
0.017950
0.006862
0.016582
0.004771
0.017854
0.052794
-0.026293
-0.047581
-0.018577
0.054273
-0.066504
0.026811
0.042135
-0.004040
-0.037043
-0.046418
0.079380
0.036340
0.037616
0.021077
-0.012087
0.019906
0.034125
-0.095179
0.006764
-0.014155
0.050483
0.077717
0.093265
0.047329
0.040796
0.038114
-0.022736
0.148574
0.033009
-0.028032
0.016597
0.028089
-0.050589
0.064892
0.123529
0.034376
0.069826
0.123198
0.175281
0.089494
0.100087
0.136269
0.138678
0.231760
0.199189
0.171495
0.198193
0.187958
0.197842
0.238442
0.170195
0.217485
0.169701
0.245869
0.233378
0.201725
0.194341
0.235686
0.121475
0.117627
0.172476
0.128847
0.263272
0.026206
0.146182
0.114579
0.110944
0.114276
0.108445
0.060579
0.157321
0.017649
0.106905
0.067908
0.067232
0.084827
0.018148
0.128346
0.023675
0.052062
0.090762
0.041680
0.027500
0.007000
0.038971
-0.011050
0.045296
0.125735
0.316510
0.613780
0.939261
1.164666
1.342786
1.423171
1.228673
0.906458
0.542178
0.199518
-0.007098
-0.121245
-0.181733
-0.220529
-0.035249
-0.050063
-0.004507
0.064159
0.115708
-0.002633
0.057667
0.144224
0.075269
-0.004508
0.081589
0.068422
0.113812
0.042846
0.141815
0.187709
0.105365
0.123127
0.161522
0.220846
0.250867
0.255874
0.272026
0.255543
0.310963
0.237041
0.313671
0.300994
0.405387
0.384427
0.460597
0.412936
0.411522
0.427893
0.500857
0.484854
0.509267
0.540145
0.490075
0.511989
0.549770
0.539909
0.578689
0.460921
0.549471
0.552172
0.538162
0.530966
0.509723
0.565235
0.447346
0.619918
0.499462
0.431527
0.438642
0.372349
0.388293
0.365265
0.378364
0.340723
0.327913
0.305648
0.256032
0.253294
0.198109
0.201345
0.173928
0.135439
0.215419
0.188755
0.261500
0.175985
0.091186
0.175412
0.106236
0.123139
0.115183
0.134049
0.055016
0.059526
0.083609
-0.010670
