0.035513
-0.035446
0.003039
0.007858
-0.011522
-0.020916
0.033400
0.109027
0.049272
0.002771
-0.003460
-0.002449
-0.038329
0.054924
0.027481
-0.055927
0.067213
-0.045601
-0.014521
0.093240
-0.028892
0.014995
0.055225
0.025508
0.093803
0.042610
0.013760
0.126341
-0.015926
0.177014
0.131832
0.102565
0.047235
0.160268
0.139670
0.156289
0.137125
0.092605
0.243297
0.212274
0.216183
0.193401
0.158409
0.199364
0.167036
0.216180
0.187961
0.207782
0.160040
0.174102
0.130505
0.115044
0.196281
0.125045
0.137745
0.128558
0.122072
0.113131
0.140858
0.054141
0.099008
0.017505
0.106543
-0.001345
0.093761
0.063908
0.079636
0.032951
0.038375
0.077168
-0.043582
0.027501
0.086590
0.060308
0.008417
0.099486
0.008482
0.052965
0.067147
-0.002890
0.138544
0.288352
0.517119
0.821471
1.172648
1.326879
1.493486
1.318260
1.033759
0.743436
0.228418
0.007176
-0.136439
-0.187187
-0.160863
-0.075521
-0.080120
0.002191
-0.014685
0.032217
0.075475
0.121758
0.108296
0.067129
0.038419
0.067140
0.177753
-0.019860
0.166170
0.149966
0.107968
0.176261
0.172184
0.131761
0.307149
0.280039
0.245398
0.292196
0.284287
0.260464
0.205786
0.427042
0.384684
0.367316
0.312677
0.377010
0.333655
0.440392
0.502862
0.556919
0.523960
0.533376
0.520054
0.553553
0.555134
0.539290
0.523552
0.640505
0.572570
0.513609
0.555135
0.596820
0.681203
0.544002
0.471642
0.501549
0.605430
0.522354
0.441840
0.512679
0.480209
0.453615
0.520026
0.356664
0.353904
0.360550
0.346398
0.350629
0.337446
0.274924
0.339631
0.281010
0.221820
0.166708
0.159224
0.183969
0.192343
0.110885
0.190354
0.167513
0.134832
0.201325
0.096784
0.143038
0.220093
0.058350
0.089471
0.125450
0.148246
0.117598
0.013049
0.098636
0.069879
0.077718
0.048130
0.090249
0.163990
0.103184
0.092218
0.073380
0.023797
0.020519
0.112643
0.119673
0.113730
0.058766
0.118635
0.043730
0.058138
0.099026
0.029550
0.175558
0.076729
0.093269
0.114365
0.151011
0.112938
0.063147
0.086768
0.082474
0.054047
0.189909
0.091343
0.104591
-0.008974
0.089711
0.098642
0.136401
0.137489
0.084759
0.099017
0.050919
0.211219
0.106527
0.054324
0.080804
0.074013
0.128676
0.092567
0.055225
0.073768
0.026466
0.028223
0.082797
0.104058
0.133727
0.099845
0.143223
0.180413
0.115699
0.146055
0.172964
0.170075
0.187458
0.131238
0.148221
0.196093
0.195328
0.193210
0.163919
0.275877
0.203653
0.213423
0.228614
0.318303
0.256607
0.298465
0.263936
0.335900
0.294393
0.294916
0.253629
0.230206
0.253519
0.247713
0.159388
0.170371
0.214162
0.157823
0.146634
0.177561
0.090281
0.077267
0.099073
0.118661
0.057178
0.101196
0.137505
0.148728
0.083875
0.060952
0.126117
0.176778
0.145506
0.153919
0.049356
0.064862
0.054909
0.062475
0.168364
0.067857
0.076775
0.004442
0.082652
0.015353
0.267296
0.501277
0.821543
1.096062
1.400224
1.452581
1.405619
1.134717
0.809778
0.438136
0.083528
-0.160704
-0.208628
-0.192440
-0.118634
-0.017937
-0.037215
0.091518
-0.006350
0.033113
0.034942
0.073084
0.097201
0.089316
0.035265
0.225436
0.115257
0.008207
0.109636
0.111482
0.143037
0.072700
0.201152
0.220425
0.198476
0.247823
0.105306
0.305756
0.143160
0.257791
0.337479
0.311857
0.308325
0.376586
0.317713
0.354882
0.327503
0.470622
0.518842
0.469025
0.466148
0.488346
0.455593
0.483696
0.517894
0.577637
0.556918
0.529263
0.530026
0.441512
0.553011
0.601555
0.529428
0.514865
0.524269
0.579174
0.462219
0.390033
0.469237
0.419918
0.455971
0.397069
0.439752
0.382723
0.365083
0.300339
0.264568
0.280064
0.231651
0.189259
0.134126
0.171086
0.145613
0.084246
0.178340
0.121547
0.059329
0.125899
0.107843
0.056891
0.085404
0.092003
0.063431
0.040787
0.007911
0.051630
0.120137
-0.012024
-0.009869
-0.084968
0.018050
0.046279
-0.018029
0.001108
-0.002389
0.030841
-0.000844
0.056856
0.015635
0.040967
-0.007917
-0.057081
-0.018706
0.026214
0.028444
0.060711
-0.030961
0.068007
0.063235
-0.025387
0.033220
0.023532
0.009853
0.048829
0.020730
0.023432
-0.044326
-0.058285
-0.027315
-0.063177
-0.042546
0.070382
-0.001521
0.014191
-0.010620
-0.062173
-0.024476
0.029495
0.010727
-0.006097
0.003119
0.013949
0.016279
0.015790
0.100802
-0.038098
-0.053094
-0.042109
-0.002107
0.029046
-0.008314
-0.016637
-0.049637
0.007239
-0.011915
-0.016131
-0.008541
-0.035339
-0.010234
0.075251
0.068358
0.059820
-0.042513
0.015724
0.014140
0.032055
0.164175
0.096269
0.134556
0.108795
0.178448
0.095303
0.157444
0.109212
0.131913
0.105407
0.054200
0.133028
0.183174
0.115097
0.115756
0.060566
0.131163
0.127117
0.045014
0.117951
0.134942
0.096950
0.034352
0.047956
0.053427
0.072021
-0.001667
0.056441
0.014287
-0.054576
-0.011815
-0.039782
0.070329
-0.025720
0.043295
-0.060957
-0.055693
-0.057653
0.016187
-0.102785
0.063951
0.012204
0.001759
-0.121040
-0.027810
-0.092381
-0.148798
-0.003849
0.101263
0.259473
0.539177
0.890638
1.198663
1.357189
1.478106
1.127705
0.876609
0.446100
0.098393
-0.246946
-0.294110
-0.308656
-0.294521
-0.146249
-0.179089
-0.093430
-0.043131
-0.005693
-0.021930
-0.047560
-0.066844
0.052525
-0.008809
0.109726
0.054295
0.006066
0.043624
0.003288
0.044793
0.128627
0.047933
0.056701
0.048437
0.071086
0.079815
0.112630
0.122460
0.200616
0.244854
0.202048
0.191331
0.247502
0.281201
0.287145
0.343471
0.425518
0.323895
0.396967
0.425844
0.360561
0.410467
0.446799
0.511460
0.507156
0.438035
0.500394
0.427190
0.453269
0.425000
0.392601
0.381744
0.459221
0.533446
0.470316
0.439738
0.454516
0.337064
0.356541
0.326472
0.312171
0.225169
0.174044
0.229847
0.273453
0.226854
0.247650
0.236281
0.151951
0.168799
0.097118
0.115011
0.116735
0.073372
0.126800
0.059924
0.079488
0.046807
-0.009955
0.027903
0.050270
-0.010445
-0.029008
-0.011930
-0.048620
-0.016707
0.031746
-0.026096
-0.064709
0.024040
-0.015914
-0.019235
-0.128225
-0.054646
-0.066832
0.040554
-0.099068
-0.053576
-0.102314
0.007745
-0.033172
-0.049716
0.016576
-0.060688
-0.080752
-0.015079
-0.064844
-0.050515
-0.031590
-0.016327
-0.041131
-0.075265
-0.039597
-0.063919
0.026686
-0.028459
-0.096671
-0.000174
0.006710
-0.054707
-0.013963
-0.060612
-0.080957
-0.079204
-0.001456
-0.061300
-0.027262
-0.084593
-0.094208
-0.034252
-0.036112
0.053496
-0.022490
0.053012
-0.017980
0.095990
-0.018595
-0.023870
0.027458
-0.021886
-0.063817
-0.023716
0.000218
0.022184
-0.014558
0.028900
-0.028858
-0.006873
0.013965
-0.024147
0.016604
0.033748
0.091355
0.090222
0.027050
0.135541
0.034055
0.046480
0.206610
0.126941
0.143228
0.193615
0.167116
0.221305
0.198571
0.088790
0.221769
0.205901
0.165797
0.135010
0.133314
0.111141
0.186350
0.156714
0.080996
0.167089
0.057040
0.071713
0.061327
0.045946
0.000709
0.081947
-0.048127
-0.035940
0.047017
0.092160
0.042712
0.047427
-0.005043
0.032405
0.000833
0.017891
0.051147
-0.071447
-0.045703
0.038019
-0.011669
0.111520
-0.006392
0.037030
-0.020544
-0.067201
-0.026483
0.088953
0.252123
0.482660
0.898003
1.106750
1.321774
1.448191
1.251439
0.959477
0.615054
0.200863
0.050031
-0.171674
-0.298050
-0.195127
-0.164925
-0.142308
-0.071278
0.051901
0.010008
0.087809
-0.026670
0.062424
0.055099
0.118219
0.094292
0.010804
0.100210
0.092853
0.099631
0.064777
0.158238
0.140732
0.149305
0.080048
0.175634
0.292776
0.197061
0.251629
0.151001
0.300191
0.303419
0.355970
0.334516
0.340807
0.317078
0.333430
0.334754
0.419422
0.445274
0.359075
0.448208
0.516792
0.535614
0.504662
0.548951
0.464326
0.540879
0.557713
0.552600
0.541466
0.529561
0.583950
0.631579
0.558187
0.508126
0.570545
0.402583
0.473257
0.532274
0.482729
0.496380
0.427658
0.323045
0.305191
0.326618
0.293474
0.268037
0.279024
0.194886
0.218222
0.261865
0.217639
0.232754
0.151033
0.129984
0.175251
0.170488
0.128926
0.142336
0.092109
0.235357
0.120419
0.118344
0.050517
0.078885
0.095221
0.072915
0.058110
0.036928
0.054459
0.057262
0.085957
0.079808
0.061302
0.065679
0.052055
0.067821
0.076459
0.002255
0.020894
0.110250
0.125358
0.103838
0.012189
0.074979
0.109708
0.049400
-0.020495
0.073690
0.020578
0.042734
0.046074
0.112866
0.104367
0.060061
0.023566
0.135849
0.130945
0.037994
0.061421
0.044295
0.120516
0.083830
0.142298
0.169924
0.074038
0.022522
0.111783
0.071195
0.085997
0.056074
0.034064
0.071588
-0.033375
0.129372
0.055170
0.078728
0.120718
0.110845
0.172864
0.098553
0.153669
0.037203
0.052519
0.105533
0.070560
0.080427
0.048413
0.086011
0.159099
0.151512
0.209854
0.108419
0.176971
0.145307
0.232898
0.253981
0.252834
0.233181
0.232666
0.232499
0.262038
0.350156
0.349619
0.338651
0.228389
0.304886
0.284585
0.326104
0.271761
0.290260
0.245637
0.185060
0.249914
0.223103
0.198137
0.197039
0.137897
0.202832
0.189513
0.126472
0.134816
0.205598
0.187598
0.068764
0.205264
0.112769
0.117826
0.122532
0.154095
0.174507
0.029772
0.065911
0.043210
0.071434
0.061750
0.116275
0.066464
0.024268
0.102645
0.135383
0.108733
0.079632
0.141307
0.332678
0.536647
0.887933
1.176326
1.500000
1.446016
1.369050
1.129548
0.695071
0.457772
0.135945
-0.069349
-0.187386
-0.180373
-0.101501
0.032626
0.034738
0.168338
0.125783
0.041396
0.030615
0.066255
0.127498
0.094801
0.217685
0.140199
0.141691
0.139660
0.148446
0.048992
0.240172
0.158432
0.188583
0.196158
0.281755
0.261128
0.233008
0.379270
0.336396
0.349600
0.342116
0.322111
0.369336
0.452852
0.403534
0.492528
0.430140
0.395597
0.480979
0.566045
0.560071
0.603954
0.609034
0.611952
0.592394
0.587627
0.618034
0.617376
0.531359
0.573442
0.623278
0.581596
0.681588
0.574012
0.549155
0.577777
0.505107
0.557161
0.437125
0.452381
0.406400
0.346735
0.428606
0.347807
0.353436
0.404144
0.351593
0.364354
0.287788
0.259593
0.348482
0.261533
0.218293
0.112311
0.206958
0.145828
0.123095
0.096398
0.193068
0.144667
0.167782
0.050640
0.049080
0.160930
0.084414
0.024627
0.096006
0.103586
0.040447
0.191360
0.121721
0.062294
0.156389
0.061843
0.040091
0.087986
0.041913
0.078386
0.106737
0.082362
0.083230
0.140627
0.046384
0.109069
0.146670
0.075545
0.003510
0.054582
0.082524
0.103351
0.003800
-0.013384
0.060902
0.050621
0.093546
0.032982
0.168159
0.108051
0.034282
0.043760
0.056551
0.105891
0.061937
0.078206
0.017735
-0.011009
0.092230
0.064509
0.124991
0.076067
0.101291
0.021550
0.030762
-0.029384
-0.003346
0.117519
0.001618
0.018978
0.054175
0.055900
0.052081
0.013836
0.035092
0.025315
-0.030990
0.002318
0.059681
-0.016059
0.029426
0.115852
0.006177
0.075662
0.109367
0.124508
0.179101
0.075778
0.062635
0.161402
0.160772
0.130913
0.153352
0.169296
0.148838
0.200135
0.142320
0.196683
0.110342
0.150438
0.272568
0.231162
0.142030
0.136317
0.215342
0.134706
0.168405
0.210603
0.190079
0.144301
0.159505
0.107465
0.119277
0.035321
0.079609
0.004342
0.090681
0.097440
0.064314
0.129236
0.088543
0.018885
0.007393
-0.022703
0.015161
0.024630
-0.048054
-0.043095
0.037244
0.085993
0.033477
0.003555
0.031474
-0.005621
-0.066300
0.033220
0.124822
0.304243
0.624943
1.010150
1.196701
1.486148
1.342251
1.093742
0.706032
0.469686
0.139964
-0.180726
-0.208675
-0.278974
-0.186397
-0.104738
-0.024176
-0.060415
0.045303
-0.028998
0.039826
0.004886
-0.047689
-0.030758
0.046551
0.006703
0.076170
0.048472
0.038383
0.026451
0.077889
0.138141
0.048803
0.090756
0.236363
0.093266
0.077560
0.126307
0.073968
0.208878
0.285147
0.192875
0.340778
0.272969
0.312178
0.260075
0.308663
0.332649
0.353213
0.322320
0.366116
0.407806
0.363318
0.429765
0.490093
0.434090
0.525742
0.577572
0.536443
0.464426
0.548356
0.546418
0.446828
0.374258
0.418842
0.458431
0.432555
0.270424
0.387842
0.308841
0.341130
0.364983
0.323119
0.292669
0.216980
0.208912
0.200943
0.226056
0.044593
0.174966
0.186891
0.109120
0.087922
0.044696
0.003615
0.127723
0.117564
0.067750
-0.027610
0.029915
0.023418
-0.067127
0.046426
-0.026961
-0.035579
0.007720
-0.004701
-0.073764
-0.019697
0.014806
0.027899
-0.041583
-0.088492
-0.062748
-0.107865
-0.034435
-0.024847
-0.085424
-0.128149
-0.026261
-0.015533
-0.084736
0.000167
-0.026319
-0.127487
-0.074894
-0.144079
-0.075077
-0.099764
-0.029260
-0.045275
-0.049093
-0.073128
-0.085844
-0.094036
-0.063992
-0.091377
-0.079363
-0.041378
-0.065609
-0.105214
-0.086259
-0.033663
-0.077783
-0.047347
-0.047240
-0.018541
-0.106994
-0.064805
-0.100296
-0.115705
-0.077751
-0.111012
-0.135203
-0.068503
-0.053259
-0.056214
-0.067975
-0.051279
-0.025921
-0.063260
-0.158090
-0.047202
-0.067831
-0.101994
-0.028059
-0.077287
-0.068768
-0.051161
-0.074037
0.048184
-0.046800
-0.049012
-0.053954
0.025700
0.038645
-0.042258
0.109182
0.044142
0.016665
0.138928
0.090251
0.074959
0.100945
0.087337
0.072760
0.042890
0.116860
0.062807
0.049669
0.088556
0.100523
-0.000928
0.114734
-0.002075
-0.018677
-0.027118
-0.022275
0.041856
0.014284
-0.005634
0.007652
-0.052867
-0.030556
-0.032376
-0.015103
-0.072527
-0.053519
-0.116552
-0.057481
-0.145171
-0.111286
-0.045250
-0.128006
-0.066966
-0.061556
-0.077212
-0.030191
-0.115461
-0.131049
-0.089721
-0.139303
-0.078717
-0.053905
0.034147
0.115481
0.491086
0.776623
1.096089
1.344477
1.277792
1.263197
0.756094
0.533905
0.151406
-0.229906
-0.296966
-0.342406
-0.326312
-0.316297
-0.120616
-0.098214
-0.094611
-0.102085
-0.016094
-0.030472
-0.044687
-0.042067
0.007341
-0.024846
-0.122319
0.055312
-0.033740
0.022707
-0.002312
-0.043848
-0.001095
0.070465
-0.004306
0.142637
0.150143
0.057876
0.130330
0.193135
0.103635
0.131041
0.154136
0.196465
0.225340
0.273015
0.221048
0.313371
0.246773
0.341867
0.342881
0.364729
0.416304
0.381737
0.418799
0.460774
0.420555
0.486469
0.507415
0.457277
0.452540
0.434318
0.392151
0.403864
0.478094
0.395357
0.374551
0.371882
0.360191
0.420825
0.333454
0.308617
0.278834
0.299166
0.284148
0.275448
0.174374
0.173898
0.138875
0.089828
0.106191
0.091712
0.132056
-0.016065
0.030061
0.143235
0.055482
0.099317
0.027119
0.017583
0.110887
0.011034
0.020309
-0.024673
-0.029293
0.009791
0.020576
-0.095940
-0.003170
-0.056302
-0.023851
-0.037470
-0.038465
-0.125493
-0.004982
-0.019766
-0.087740
-0.035229
0.044622
-0.086192
-0.030852
-0.026646
-0.097085
0.003714
-0.107472
-0.101747
0.014400
-0.033126
-0.044250
-0.038911
0.013040
-0.044040
0.012445
-0.094377
-0.128519
-0.078736
-0.047533
-0.074876
-0.103863
-0.032444
-0.085956
0.016071
-0.048961
0.019942
-0.016208
-0.009404
-0.066344
-0.011626
-0.086107
0.008841
-0.010497
0.076793
-0.015505
-0.066598
-0.055017
-0.052015
-0.070184
-0.053076
-0.005565
-0.081065
-0.055931
-0.055966
-0.061936
0.061493
-0.011606
0.047047
0.002106
-0.013859
0.061045
-0.089504
0.032007
0.025827
0.043823
0.067411
0.085666
0.102900
-0.006174
0.137353
0.132984
0.144913
0.095340
0.110260
0.173243
0.145701
0.225056
0.199666
0.201335
0.157343
0.187643
0.218785
0.145185
0.111922
0.204626
0.123012
0.120710
0.077602
0.130929
0.101573
0.094733
0.014726
0.175926
0.013969
0.106340
0.091833
0.014576
0.017138
0.003882
-0.025388
-0.013275
0.023237
0.011460
-0.032833
-0.002135
-0.003850
-0.052745
-0.001230
-0.008321
0.019043
0.041116
-0.024266
-0.026075
-0.051209
0.019083
-0.017203
0.073466
0.217206
0.464283
0.852537
1.130170
1.322220
1.391519
1.259708
0.968392
0.655916
0.288519
0.072864
-0.177521
-0.226715
-0.216636
-0.226787
-0.036612
-0.067625
-0.034703
0.043324
0.016024
-0.014074
0.103351
0.045571
-0.015022
0.035999
0.119260
0.092677
0.158661
0.116234
0.074705
0.106480
0.137689
0.093717
0.197045
0.191417
0.142091
0.221971
0.239850
0.291701
0.184224
0.326036
0.271183
0.290209
0.306517
0.399904
0.461771
0.479867
0.402150
0.445809
0.439593
0.476049
0.462239
0.558163
0.550225
0.541501
0.622730
0.531006
0.589936
0.634860
0.580046
0.508858
0.635794
0.559100
0.556731
0.512507
0.482704
0.436727
0.443847
0.470369
0.454139
0.384648
0.516709
0.330114
0.436973
0.251756
0.337070
0.286567
0.301929
0.220120
0.289723
0.165994
0.222040
0.211541
0.152479
0.164936
0.104934
0.199986
0.129211
0.061715
0.093154
0.047445
0.065652
0.093471
0.108844
0.123228
0.055725
0.013627
0.044306
0.136050
0.026225
0.057993
0.032370
0.072075
0.099861
0.105741
0.025361
-0.044633
0.027919
0.077944
0.021794
0.049393
0.078264
0.035611
-0.039990
0.076831
0.105988
0.042241
0.000920
0.072402
0.022583
0.031779
0.024610
0.084197
0.052873
0.100913
0.010880
0.078257
0.001580
0.001047
0.060646
0.008559
0.045015
0.030102
0.049501
0.062804
0.106566
0.021147
0.047856
0.062517
-0.037715
0.033350
0.089714
0.044581
0.014442
0.055109
0.071603
0.063108
0.078081
0.051852
0.115236
0.041700
0.012825
0.059691
0.038025
-0.021238
0.013209
0.104172
0.054749
0.149892
0.061126
0.058496
0.114195
0.081287
0.085206
0.121835
0.120006
0.160674
0.130371
0.184334
0.188755
0.113216
0.183385
0.197302
0.209180
0.155707
0.220494
0.172209
0.270511
0.147557
0.202865
0.223266
0.194862
0.118160
0.241985
0.165792
0.070979
0.199111
0.141656
0.123152
0.112961
0.099252
0.081378
0.086760
0.069875
0.026500
0.133333
0.042499
0.060454
-0.029613
0.034125
0.006868
0.051737
0.042086
0.027916
0.000024
0.022806
0.018538
0.003642
-0.036251
-0.018123
-0.000215
0.015689
0.028517
0.065978
0.183619
0.422114
0.761505
1.098521
1.281525
1.403783
1.287443
1.158306
0.725254
0.370403
0.103120
-0.147693
-0.269821
-0.223633
-0.183652
-0.118605
-0.029570
0.042448
0.048212
0.001410
0.006245
0.030551
0.099780
0.029013
0.072895
0.049659
0.029865
0.053819
0.098598
0.079383
0.094858
0.060380
0.092086
0.122596
0.265354
0.090667
0.149314
0.186724
0.169059
0.268561
0.269097
0.202503
0.276113
0.256085
0.305540
0.307427
0.426995
0.337120
0.411822
0.437374
0.509416
0.449206
0.528130
0.495115
0.451439
0.471085
0.550957
0.504136
0.487082
0.476360
0.497176
0.504690
0.510466
0.495913
0.485187
0.345673
0.400257
0.398740
0.388581
0.385395
0.371340
0.328150
0.342446
0.312836
0.269485
0.300597
0.189727
0.187671
0.194429
0.183632
0.178254
0.151139
0.171243
0.103889
0.084780
0.117464
0.068836
0.064001
0.039081
0.034138
0.012244
0.052928
0.013801
-0.007250
0.031499
-0.059385
-0.020884
0.035966
-0.005281
-0.024326
-0.075705
0.022544
0.014518
-0.010820
-0.010543
-0.029359
-0.070256
0.019144
0.018527
-0.086271
-0.064865
-0.113831
-0.011498
0.004578
-0.030619
-0.007578
-0.039496
-0.067200
0.055610
-0.068287
-0.081787
0.031329
-0.021307
-0.126713
-0.063104
-0.137302
-0.053643
-0.111329
-0.014538
-0.066736
-0.104248
-0.077955
0.002343
-0.112291
-0.091427
-0.059027
-0.038905
-0.002948
-0.089692
-0.068515
0.008955
-0.070092
-0.041275
-0.062551
-0.014101
-0.068358
-0.043359
-0.067065
-0.074423
0.007146
-0.012946
-0.055602
-0.011618
-0.133910
0.005145
-0.060362
-0.044204
0.030505
0.004674
-0.089989
0.029655
-0.039886
0.024153
-0.023711
0.069676
0.021816
-0.042656
-0.008836
0.039716
0.120007
0.065525
0.102585
0.040491
0.100269
0.091465
0.156157
0.034803
0.138891
0.134766
0.104961
0.074582
0.094777
0.138733
0.091225
0.013227
0.044507
0.097436
0.084924
0.076623
0.028449
0.007133
-0.007124
-0.065830
0.013136
-0.039769
-0.019978
-0.075648
-0.079335
-0.053633
-0.122269
0.005479
-0.052960
-0.042802
-0.140618
-0.094507
-0.112194
-0.013088
-0.072185
-0.045426
-0.033018
-0.110093
-0.212973
-0.074530
0.007505
-0.052156
0.125101
0.533621
0.892968
1.170205
1.305500
1.364669
1.183891
0.726107
0.389717
0.060355
-0.200121
-0.310762
-0.339242
-0.264967
-0.211725
-0.163341
-0.165494
-0.101194
-0.043480
-0.142321
-0.083415
-0.063203
-0.004011
-0.161775
-0.069507
0.004573
-0.010276
-0.044221
-0.056202
0.012108
-0.028639
0.004927
-0.037394
0.061469
0.092975
0.036334
0.115796
0.046733
0.052648
0.145248
0.110906
0.182607
0.207272
0.271354
0.232894
0.257994
0.287835
0.265119
0.289568
0.361780
0.350353
0.323091
0.338137
0.357301
0.320017
0.474188
0.357263
0.298696
0.525413
0.405887
0.411677
0.423145
0.427912
0.436202
0.379401
0.344043
0.359585
0.297173
0.237102
0.264462
0.265202
0.184720
0.288699
0.195174
0.151117
0.121870
0.155218
0.173323
0.123665
0.083404
0.056815
0.008628
0.009377
-0.023225
0.057720
0.026274
-0.019645
-0.027584
0.021761
-0.107304
-0.128300
-0.037029
-0.065700
0.029612
-0.120072
-0.069364
-0.092116
-0.096675
-0.062362
-0.054870
-0.072995
-0.042980
-0.040270
-0.134495
-0.080769
-0.143657
-0.089617
-0.041223
-0.097574
-0.114184
-0.098798
-0.155255
-0.134182
-0.166227
0.003560
-0.053632
-0.066015
-0.059474
-0.068411
-0.147150
-0.122857
-0.034472
-0.140531
0.028445
-0.092427
-0.087710
-0.103037
-0.179791
-0.072011
-0.106299
-0.029581
-0.009094
-0.128991
-0.041463
-0.138964
-0.098887
-0.078706
-0.124333
-0.081273
-0.067120
-0.140253
-0.137463
-0.107275
-0.046671
-0.058695
-0.112939
-0.100263
-0.077008
-0.097479
-0.081073
-0.029075
-0.101731
-0.022869
-0.123341
-0.034659
-0.039924
-0.037971
0.013916
-0.042022
-0.028964
-0.030642
-0.098411
-0.006811
-0.041938
-0.049030
0.029956
0.067049
0.019322
0.019226
0.095996
0.085103
0.149212
0.013584
0.115191
0.130808
0.043629
0.078061
0.057001
0.125351
0.060706
0.103421
0.060456
0.057461
0.061863
0.064405
0.099144
0.046743
0.001846
0.094831
-0.013919
0.011839
0.005806
-0.024739
0.035876
-0.032535
-0.097283
-0.028402
-0.037635
-0.108725
-0.050234
-0.085617
0.014693
-0.049334
-0.081405
0.007345
0.032356
-0.079351
-0.076614
-0.029816
-0.129870
-0.113905
-0.089268
-0.115262
0.063140
0.226397
0.341394
0.783615
1.106888
1.297476
1.289853
1.147781
0.930135
0.578594
0.152102
-0.115631
-0.250384
-0.296024
-0.369591
-0.280798
-0.150083
-0.048806
-0.023573
-0.037932
-0.013093
0.011588
0.024694
-0.034963
0.041972
0.071767
-0.053321
0.047791
0.052465
0.018076
0.066705
0.065106
0.058302
0.103450
0.063697
0.043457
0.109792
0.158099
0.208190
0.191306
0.181778
0.185715
0.245789
0.206296
0.236014
0.323777
0.346377
0.379284
0.288372
0.313255
0.480109
0.410991
0.492683
0.524496
0.452435
0.436129
0.549775
0.484008
0.527105
0.507185
0.479534
0.535291
0.525701
0.510700
0.514752
0.418602
0.402053
0.481396
0.410633
0.440156
0.435541
0.357693
0.297193
0.417707
0.353441
0.243467
0.226322
0.240470
0.210512
0.255147
0.160751
0.193801
0.154884
0.114551
0.116247
0.113492
0.120542
0.138984
0.123986
0.021214
0.069087
0.006703
0.028793
0.039424
0.098879
0.054124
0.034027
0.105190
0.004027
0.006532
0.010414
0.018436
0.015715
0.060327
-0.038163
0.050466
0.026973
0.046914
-0.003139
0.083178
-0.044343
0.048809
0.035999
0.032588
0.021685
-0.022726
0.002036
0.082963
0.031920
0.095603
0.061288
0.064225
0.052573
0.017067
-0.035610
0.089417
0.024276
-0.038470
0.052116
0.028949
0.063119
0.013452
-0.036434
0.132287
0.043059
0.115445
0.012002
0.023806
0.091139
-0.002757
0.014491
0.105271
-0.015008
0.079963
0.080954
0.049355
0.011740
0.025529
-0.021863
0.127301
-0.029852
0.020593
0.071526
0.048022
0.006517
0.115026
0.094679
0.087394
0.137531
0.024692
0.074919
0.122296
0.157036
0.061705
0.123524
0.188298
0.138616
0.129922
0.174148
0.132069
0.214541
0.186681
0.183126
0.271409
0.281125
0.303029
0.201444
0.239435
0.219769
0.276844
0.130676
0.249444
0.216628
0.258735
0.147277
0.160503
0.185802
0.152312
0.158917
0.195389
0.126188
0.116014
0.075737
0.145225
0.189024
0.026037
0.162096
0.150962
0.115957
0.007938
0.154245
0.046379
0.113802
0.031102
0.079865
0.106934
0.051362
0.097147
0.035011
0.116104
0.045260
0.026041
0.007684
0.046912
0.148682
0.237028
0.476428
0.831719
1.170605
1.353463
1.448113
1.416785
1.137494
0.800884
0.369563
0.116472
-0.111868
-0.190597
-0.194599
-0.192504
-0.008803
0.018702
0.088947
0.043667
0.068713
0.075265
0.084373
0.136194
0.111195
0.170702
0.118798
0.022070
0.133655
0.133824
0.202732
0.124059
0.188012
0.233756
0.186038
0.196005
0.235048
0.213316
0.278173
0.309648
0.308852
0.302976
0.408993
0.313182
0.354880
0.376048
0.403456
0.462472
0.513814
0.449214
0.508403
0.492674
0.506764
0.496810
0.602585
0.469872
0.517902
0.555030
0.671544
0.548694
0.536207
0.564245
0.617132
