0.058539
-0.064096
0.051332
0.070455
-0.019156
0.070401
0.013885
0.038817
0.022745
-0.050009
-0.007909
0.026914
0.009400
-0.069265
-0.066732
0.005113
0.038297
0.078853
0.062982
0.049511
0.061148
-0.030197
-0.047969
0.027299
-0.025324
0.077236
0.064282
0.063582
0.095894
0.130010
0.102144
0.099981
0.106570
0.204434
0.112634
0.172440
0.259358
0.099272
0.161147
0.229332
0.184570
0.248028
0.204087
0.174252
0.213587
0.218917
0.222875
0.221948
0.136237
0.204861
0.173175
0.130727
0.190453
0.210670
0.113156
0.071641
0.098341
0.141216
0.038467
0.148969
0.061189
0.100493
0.056040
0.038977
0.071385
-0.047641
-0.044684
-0.013392
0.134068
0.135027
0.031721
0.025963
0.097511
0.056041
-0.000582
0.064503
0.062293
0.067159
0.066683
0.075406
0.371549
0.541338
0.884162
1.183940
1.367996
1.500000
1.315741
0.904994
0.574155
0.281154
-0.038841
-0.223771
-0.193373
-0.155988
-0.076737
-0.051792
-0.035078
0.126148
0.079160
0.079809
0.108763
0.081218
0.086584
0.105666
0.100544
0.137305
0.090416
0.188062
0.122861
0.129902
0.247033
0.189331
0.260322
0.111625
0.255297
0.163796
0.212534
0.220179
0.295499
0.291673
0.315994
0.376008
0.403766
0.411695
0.399680
0.490212
0.529396
0.416772
0.422817
0.507308
0.455533
0.517643
0.554034
0.614471
0.549084
0.588256
0.553198
0.629495
0.654447
0.673245
0.635786
0.559925
0.545649
0.575998
0.539166
0.582330
0.512016
0.482608
0.386794
0.456639
0.462900
0.438672
0.381742
0.381156
0.404233
0.332235
0.222448
0.352616
0.262444
0.285113
0.324924
0.155351
0.223739
0.188103
0.217807
0.200897
0.173476
0.089311
0.129709
0.168102
0.124667
0.115346
0.069313
0.105981
0.040542
0.124510
0.073239
0.100173
0.166513
0.055318
0.089820
0.105756
0.058712
0.052713
0.075075
0.048480
0.052879
0.041835
0.123618
0.049523
0.072138
0.042799
0.040511
0.107608
0.119155
0.089374
0.100929
0.049050
0.163236
0.139590
0.081849
0.070934
0.159006
0.082249
0.005696
0.056540
0.128260
0.112991
0.115557
0.121414
0.095905
0.145455
0.048907
0.048722
0.008597
0.120328
0.107014
0.047369
0.086494
0.096948
0.079958
0.116890
0.143352
0.102948
0.099564
0.082846
0.109226
0.098839
-0.037527
0.089713
0.127945
0.032748
0.081897
0.068557
0.163907
0.067461
0.148643
0.054565
0.135747
0.192906
0.151347
0.201343
0.180534
0.293450
0.228600
0.216348
0.179223
0.248601
0.236607
0.225229
0.291540
0.245334
0.274046
0.313387
0.262649
0.301154
0.349645
0.283018
0.167864
0.244225
0.185463
0.095931
0.183849
0.204972
0.258546
0.150431
0.175893
0.216496
0.117792
0.105481
0.119504
0.082868
0.022774
0.149732
0.186681
0.090673
0.120866
0.016072
0.160686
0.112612
0.034557
0.035968
0.085830
0.094924
0.052847
0.149711
0.104219
0.097384
0.062123
0.117510
0.105309
0.317269
0.588184
0.884201
1.178513
1.372996
1.474796
1.309244
1.024009
0.747245
0.365267
0.005475
-0.113924
-0.131146
-0.169075
-0.051749
-0.093908
0.015649
0.090418
0.116061
0.087992
0.056615
0.125054
0.118457
0.109723
0.046156
0.057115
0.158476
0.099988
0.201253
0.063776
0.144347
0.148432
0.150963
0.231472
0.208158
0.168409
0.323975
0.274937
0.292665
0.216378
0.262191
0.419537
0.410452
0.305159
0.405735
0.424876
0.443552
0.361445
0.515656
0.533424
0.412440
0.453389
0.462118
0.502012
0.584973
0.495622
0.486790
0.590035
0.449526
0.593232
0.594275
0.544711
0.510850
0.532162
0.554959
0.494939
0.523682
0.530548
0.467886
0.431672
0.443411
0.387529
0.432606
0.344295
0.377620
0.268831
0.242808
0.213841
0.290411
0.200878
0.151000
0.233442
0.234289
0.190765
0.227595
0.138193
0.120708
0.056210
0.038562
0.080646
0.075458
0.037710
0.017983
-0.009309
0.031802
0.025589
-0.033571
-0.027746
0.041326
-0.012598
0.044767
0.016624
0.039374
-0.017181
-0.049397
0.009689
0.078535
0.009794
0.088445
0.108115
-0.009818
-0.028501
0.041772
-0.039755
0.015119
-0.026653
-0.034398
0.028355
0.070175
0.034765
-0.067071
-0.022603
-0.012172
0.068295
-0.090568
0.046727
0.008854
-0.055792
-0.016853
-0.056369
-0.032073
0.004872
-0.015456
0.018048
-0.088762
-0.034102
-0.023928
-0.014916
-0.030429
-0.009189
0.014368
-0.072807
0.053634
0.000905
-0.116029
0.081501
-0.078215
0.078210
0.020518
0.032899
0.058240
0.041962
0.014141
0.018297
0.044406
0.055279
0.068553
-0.026573
0.057530
-0.065749
0.082351
0.067814
0.135368
0.061790
0.075514
0.017874
0.123983
0.092957
0.224278
0.185278
0.181718
0.151500
0.175640
0.131189
0.215427
0.116486
0.143706
0.162391
0.124657
0.074684
0.105888
0.080223
0.067250
0.113748
0.105396
0.078667
0.025339
0.064029
0.035238
0.020635
-0.031422
0.021041
0.036511
-0.021019
-0.039548
-0.026517
0.013079
0.024379
-0.002197
-0.011574
-0.030601
0.012220
-0.094817
-0.085215
-0.008632
0.067449
-0.009017
-0.178076
-0.108365
0.020346
-0.001144
0.151671
0.348432
0.645144
1.020466
1.242974
1.284627
1.266080
1.086334
0.709853
0.411601
0.054077
-0.178195
-0.282288
-0.273834
-0.168802
-0.227855
0.016374
-0.018749
-0.031983
-0.011157
-0.039432
-0.037385
0.024951
-0.015180
0.012562
0.000921
-0.073673
-0.057567
0.103307
0.063566
0.028725
0.150052
0.110546
0.139033
0.090769
0.125113
0.086320
0.128554
0.226267
0.160374
0.235661
0.210879
0.255523
0.226112
0.300418
0.319900
0.290470
0.374866
0.400269
0.402313
0.458237
0.432652
0.431359
0.467620
0.420230
0.497312
0.520626
0.576935
0.468315
0.413575
0.453672
0.568398
0.381349
0.413348
0.521668
0.407349
0.444482
0.444067
0.321981
0.307913
0.368757
0.306037
0.313622
0.283919
0.375524
0.237832
0.250496
0.193161
0.230973
0.150511
0.192774
0.112781
0.121128
0.144934
0.049264
0.051837
0.094340
0.087822
0.087653
0.044403
-0.002039
-0.034165
-0.022059
0.001779
-0.008918
-0.014201
-0.029066
-0.020018
0.082962
-0.045927
0.080639
-0.156176
-0.027632
0.001659
-0.048879
-0.000445
-0.015735
-0.112256
-0.079204
0.035357
-0.015346
-0.096595
0.007913
-0.019406
0.001444
-0.089323
-0.088478
-0.010835
-0.056832
-0.049199
-0.049662
-0.056918
-0.033091
-0.047844
-0.067433
-0.041528
0.059566
-0.033831
-0.020124
0.046219
-0.032545
-0.009979
-0.057577
-0.154737
-0.031217
0.048431
0.012705
-0.024854
-0.019212
0.023047
0.023324
-0.009962
-0.004643
0.002292
0.021906
-0.045664
-0.086717
-0.055513
0.007635
-0.075417
0.002437
-0.037710
-0.037979
0.014977
-0.075906
0.096237
0.046744
0.056080
0.065990
-0.009776
0.013896
0.119808
0.030218
0.042594
0.084368
0.097752
0.121312
0.067535
0.095356
0.156734
0.200483
0.151949
0.249131
0.129921
0.171486
0.203453
0.205473
0.134863
0.186123
0.114288
0.177807
0.098256
0.112966
0.133057
0.036197
0.042150
0.063613
0.033904
0.110427
0.068546
0.038394
0.073876
0.070455
-0.036065
0.009304
0.003518
-0.142858
-0.038971
-0.016064
-0.026650
0.018924
-0.042108
0.016056
-0.012470
0.008348
-0.053579
0.050763
-0.031553
-0.032009
0.012373
-0.008613
0.175397
0.267526
0.568201
0.888311
1.256130
1.444681
1.424649
1.122330
0.856047
0.480478
0.098468
-0.170992
-0.231162
-0.271841
-0.178668
-0.148520
-0.080909
-0.010815
-0.056687
0.009936
0.089498
0.018401
0.012754
0.080487
0.091964
0.115488
0.098308
0.100203
0.071042
0.110477
0.075223
0.109886
0.179738
0.107910
0.201980
0.149368
0.201865
0.209262
0.258845
0.361216
0.313376
0.355128
0.335509
0.300166
0.295762
0.450645
0.367337
0.404439
0.494763
0.417376
0.514979
0.535577
0.428171
0.478621
0.555018
0.505621
0.518194
0.522962
0.630678
0.541939
0.539605
0.521011
0.546271
0.493831
0.464607
0.444908
0.497037
0.445368
0.496092
0.485176
0.406172
0.303889
0.422497
0.396442
0.339799
0.308485
0.285085
0.380797
0.240257
0.244625
0.299960
0.198212
0.204963
0.254483
0.186896
0.115913
0.113907
0.220747
0.157835
0.096472
0.140085
0.133226
0.082913
0.040926
0.126261
0.118101
0.056923
0.077647
0.039229
0.131497
0.068960
0.089932
0.056433
0.056942
0.041027
0.034740
0.046761
0.116984
0.113516
0.008474
0.076120
0.064697
0.028813
0.093238
0.090472
0.056719
0.115013
0.085396
0.099091
0.081778
0.096345
0.024521
0.075292
0.079967
0.066309
0.102549
0.101712
0.104577
0.037150
-0.042218
0.097234
0.095493
0.086205
0.009871
0.113195
0.062493
0.164232
0.050602
0.088141
0.111581
-0.076657
0.120707
0.034761
0.005055
0.046203
0.006308
0.095744
0.066117
0.091935
-0.025896
0.088844
0.152350
0.110183
0.145323
0.094636
0.062500
0.108970
0.140444
0.113670
0.084080
0.159140
0.235522
0.193703
0.266175
0.100651
0.151426
0.255031
0.230852
0.247122
0.270146
0.262827
0.175679
0.282293
0.278526
0.252243
0.244386
0.194587
0.201364
0.316792
0.216159
0.251892
0.156399
0.152316
0.226206
0.167045
0.195015
0.140276
0.191069
0.203349
0.110616
0.158401
0.122687
0.212367
0.224735
0.074445
0.182870
0.073828
0.062203
0.168401
0.136010
0.062830
0.072329
0.105152
0.138192
0.088554
0.073717
0.097308
0.075062
0.021139
0.119343
0.032294
0.143806
0.386403
0.572812
0.883116
1.288561
1.486624
1.491721
1.375607
1.044099
0.701007
0.371621
0.049065
-0.183825
-0.224724
-0.152918
-0.044679
-0.009183
0.092621
0.098408
0.095922
0.142226
0.076920
0.148784
0.115458
0.155827
0.179233
0.089731
0.129246
0.239476
0.194491
0.216659
0.164507
0.146050
0.184700
0.289466
0.208576
0.275834
0.270990
0.355131
0.409213
0.346698
0.319682
0.389538
0.439643
0.346072
0.463897
0.475255
0.485541
0.484865
0.525316
0.515942
0.494757
0.575680
0.631228
0.533326
0.525758
0.587188
0.592254
0.503067
0.563172
0.684460
0.622886
0.571278
0.628756
0.546920
0.571768
0.535790
0.587150
0.586399
0.501710
0.447196
0.433184
0.395392
0.489648
0.396203
0.407553
0.342607
0.386021
0.289608
0.240837
0.283622
0.248636
0.178417
0.351943
0.162607
0.198655
0.198811
0.151924
0.130627
0.189344
0.115743
0.156279
0.185658
0.131125
0.116906
0.086945
0.123678
0.109202
-0.006193
0.068877
0.026138
0.075642
0.122031
0.012283
0.081292
0.114429
0.088949
0.079300
0.083342
0.137751
0.091131
0.088950
0.140092
0.073388
0.134369
0.076499
0.099178
0.059703
0.042522
0.044283
0.035209
0.035177
0.071317
0.090357
0.175043
0.090177
0.036593
0.069754
0.049605
0.112188
0.038824
0.097619
0.039472
0.176565
0.093254
0.009066
0.037338
0.091851
0.094007
0.084600
0.068323
0.031362
0.099829
-0.004909
0.074983
0.048300
0.048852
0.034850
0.112208
0.061095
-0.034940
0.035075
0.116291
0.107918
0.094524
0.139340
-0.008197
0.130714
0.085392
0.104252
0.062873
0.154494
0.036502
0.132303
0.159759
0.157903
0.176763
0.157225
0.210285
0.166163
0.212705
0.195485
0.135450
0.148606
0.221409
0.155888
0.189207
0.145917
0.217529
0.206414
0.151210
0.159646
0.109001
0.198497
0.132985
0.129490
0.154389
0.110302
0.127315
0.006227
0.049233
0.034548
0.024014
-0.002793
-0.043630
0.037660
0.081642
-0.002683
0.045887
-0.005191
-0.003832
0.010362
0.086156
-0.033824
-0.068607
-0.044758
-0.019129
0.047413
-0.001676
-0.030215
-0.007168
0.109092
0.286791
0.450872
0.719284
1.128525
1.306960
1.411245
1.219966
1.069113
0.756350
0.343793
0.000520
-0.201817
-0.219819
-0.225096
-0.164801
-0.045742
-0.058181
-0.029762
-0.056316
0.003319
0.070139
0.011304
-0.074406
0.065035
0.104826
0.080354
0.006717
0.022065
0.037059
0.041975
0.097010
0.123537
0.156652
0.081843
0.135590
0.155383
0.124694
0.207615
0.211472
0.263642
0.277649
0.260719
0.284011
0.249664
0.365132
0.354216
0.349616
0.452635
0.356965
0.479592
0.384481
0.444956
0.480048
0.411720
0.453327
0.485470
0.394372
0.468625
0.378056
0.498464
0.486938
0.516208
0.333086
0.427257
0.422880
0.327414
0.431617
0.308811
0.328812
0.349887
0.329563
0.312135
0.278873
0.256484
0.231119
0.221855
0.255684
0.190420
0.183761
0.092809
0.197885
0.109385
0.068027
0.085532
0.080576
0.033578
0.010128
0.007436
0.016506
0.102203
-0.014420
0.012599
-0.035807
0.029055
-0.048241
0.066439
-0.006362
-0.054573
-0.040186
-0.037229
-0.049714
0.007092
-0.083290
-0.055937
-0.068597
-0.040320
-0.127142
-0.066806
-0.095278
-0.084717
-0.017305
-0.081243
-0.016996
-0.017852
-0.067752
-0.104417
-0.031076
-0.079498
-0.011667
0.050342
-0.057197
-0.057847
-0.044890
-0.038544
0.047829
-0.079560
-0.089348
-0.034197
-0.103637
-0.078464
-0.030501
0.002462
0.062956
-0.162034
-0.072393
-0.055330
-0.104875
-0.029796
-0.021686
-0.056094
0.001091
0.000834
-0.126569
-0.014024
-0.048098
-0.083408
-0.088362
-0.042352
-0.094461
-0.133551
-0.082291
-0.063484
-0.069568
-0.077517
-0.102177
-0.051107
-0.013821
0.003199
0.054127
0.012136
-0.030407
0.043085
-0.008338
-0.010312
0.084030
0.034265
0.016418
0.099609
-0.036999
0.073001
0.094415
0.081346
0.100795
0.157055
0.066992
0.094652
0.111613
0.110930
0.094927
0.122010
0.077565
0.045631
0.075391
0.121527
0.007771
0.013256
0.015552
-0.051200
-0.009578
-0.138977
-0.029501
-0.009494
-0.079424
-0.003595
-0.052658
-0.033201
-0.043104
-0.124647
-0.029486
-0.084870
-0.111181
-0.039444
-0.131376
-0.097120
-0.070885
-0.128260
-0.047436
-0.081942
-0.058455
-0.141530
-0.145453
0.040065
0.336670
0.556019
0.873923
1.206643
1.307262
1.257370
1.074436
0.695797
0.353738
0.068794
-0.237405
-0.360815
-0.413910
-0.315657
-0.153218
-0.216246
-0.115075
-0.103845
-0.057326
-0.030685
-0.097838
0.038408
-0.088275
-0.061032
-0.040030
-0.019173
-0.041461
0.062605
-0.015617
-0.000299
-0.032124
0.047905
0.045949
0.090518
0.163493
0.060758
0.121034
0.128951
0.148718
0.200413
0.179936
0.235474
0.239889
0.326475
0.264958
0.358151
0.293716
0.375694
0.353697
0.326307
0.383284
0.386424
0.387750
0.443021
0.421161
0.430811
0.428821
0.399634
0.380726
0.428738
0.396003
0.459089
0.423445
0.396746
0.401882
0.292672
0.346740
0.326052
0.334038
0.322197
0.273520
0.217547
0.288633
0.175002
0.215696
0.187706
0.119771
0.176888
0.156996
0.131696
0.163132
0.157552
0.102445
0.052467
0.066785
0.096369
-0.014361
0.012408
-0.072255
-0.054839
-0.040741
0.027928
-0.029558
-0.073559
-0.034666
-0.003597
-0.022965
0.047884
-0.076010
-0.003377
-0.014388
-0.047598
-0.044604
-0.024515
-0.022620
-0.047975
-0.020216
-0.062176
-0.075357
-0.055677
-0.110891
-0.058715
0.011168
0.018909
-0.149364
-0.085168
-0.016412
-0.046097
-0.003694
-0.082041
-0.023295
-0.073827
-0.050513
-0.061638
-0.039727
-0.083886
-0.073103
-0.039362
-0.051993
-0.036437
-0.079484
-0.083024
-0.028847
-0.036084
-0.008946
-0.146757
-0.090615
-0.028102
-0.079481
0.014035
-0.098130
-0.085408
-0.035621
-0.052054
-0.010406
0.088234
-0.043313
0.022308
-0.000729
-0.112443
-0.087105
-0.003274
-0.033705
-0.022228
0.012040
0.053241
0.009070
0.022478
0.044838
0.118172
0.001031
0.064296
0.129401
0.145439
0.069924
0.060843
0.090725
0.154777
0.242171
0.069459
0.136482
0.143065
0.125433
0.175232
0.095765
0.114555
0.264805
0.203142
0.234036
0.210088
0.102862
0.047309
0.109969
0.123006
0.016992
0.108790
0.043992
0.034293
0.069282
-0.016983
0.038325
0.053250
-0.006074
0.033427
-0.008736
0.050058
0.051795
0.025567
0.030223
0.051157
0.034347
0.026339
0.055108
0.091006
0.053034
-0.011246
0.031917
-0.035104
-0.059756
0.081446
0.021397
0.240399
0.623120
0.904568
1.184252
1.346297
1.299964
1.208557
0.880390
0.478188
0.214695
-0.086953
-0.218148
-0.210668
-0.196842
-0.165303
-0.054960
-0.001244
0.009494
-0.013006
0.026052
0.000767
-0.045556
0.019475
0.005544
0.072648
0.087663
-0.014355
0.092793
0.111491
0.082579
0.101354
0.244146
0.136898
0.135036
0.198976
0.161670
0.209884
0.316790
0.174427
0.227165
0.269422
0.291394
0.399704
0.331032
0.311627
0.392145
0.468259
0.388545
0.367959
0.482852
0.502102
0.504789
0.539537
0.506720
0.487207
0.472200
0.549663
0.585742
0.531865
0.513021
0.504650
0.590489
0.523676
0.509422
0.531975
0.570238
0.512046
0.460763
0.477469
0.422072
0.387676
0.415117
0.354451
0.384512
0.344265
0.327341
0.293186
0.254797
0.261600
0.253122
0.169164
0.228937
0.098508
0.164117
0.139009
0.097190
0.129471
0.108350
0.115361
0.078004
0.123734
0.130958
0.097897
0.053560
0.069271
0.038052
0.045866
-0.005588
0.005732
0.036782
0.040314
0.067681
0.044826
-0.035279
-0.017306
0.118094
0.026358
0.105464
-0.004866
0.047551
0.074475
-0.049300
0.006465
0.054793
-0.031123
0.029863
0.001400
0.053938
0.031564
0.044324
0.064643
0.054916
0.091146
0.105649
0.115111
0.030110
-0.007839
0.069744
0.079782
0.018934
0.098287
-0.035214
0.083747
0.021326
-0.023573
-0.041968
-0.016209
0.139771
0.030918
0.142939
0.073736
0.063546
0.079802
-0.008937
0.074949
0.088183
0.045521
0.091198
0.012668
0.026433
0.166213
0.055563
-0.043846
0.133382
0.085242
0.082410
0.130613
0.089629
0.098936
0.102144
0.106988
0.108339
0.124271
0.069025
0.112859
0.171386
0.148513
0.145502
0.225393
0.216640
0.244576
0.149309
0.229625
0.205943
0.249299
0.174235
0.177870
0.182956
0.219815
0.189151
0.202873
0.173935
0.192539
0.105500
0.186683
0.075627
0.097444
0.025696
0.041921
0.057976
0.178717
0.115996
0.118996
0.090370
0.022849
0.026167
0.057222
0.123139
0.036398
-0.000430
0.093486
-0.031993
-0.001141
0.092127
0.050273
-0.015085
-0.016576
-0.003046
0.044283
0.043530
0.130722
0.252340
0.536087
0.797543
1.135682
1.425020
1.446016
1.293465
1.012006
0.690699
0.322628
-0.048338
-0.139799
-0.217728
-0.259496
-0.091469
0.009131
0.020495
0.035988
0.066681
-0.020232
0.121520
0.017113
0.063703
0.070276
0.118898
0.060475
-0.005500
0.040735
0.216268
0.072667
0.055598
0.053748
0.151186
0.195573
0.105375
0.159181
0.137172
0.222836
0.195228
0.236000
0.340524
0.325472
0.359364
0.267436
0.351063
0.443293
0.393462
0.434839
0.502750
0.479513
0.406787
0.453613
0.484209
0.462195
0.523523
0.522123
0.475167
0.566079
0.550390
0.523696
0.606130
0.466373
0.484432
0.487539
0.529635
0.467559
0.475539
0.437054
0.363289
0.403236
0.396609
0.387746
0.331412
0.253818
0.248238
0.228925
0.206715
0.206193
0.214566
0.125454
0.136887
0.137990
0.216793
0.080341
0.114837
0.082378
0.078639
0.051286
0.081174
0.123160
0.047318
0.022157
0.104159
0.094609
-0.024843
-0.051487
-0.006421
-0.002651
0.011718
-0.018320
0.022479
0.102821
-0.137655
-0.027294
-0.082528
-0.049733
0.022344
-0.011266
-0.040422
-0.024974
-0.004504
0.013369
-0.131875
-0.047966
-0.043429
-0.002759
-0.065326
0.050986
-0.041646
0.018407
-0.018947
0.028475
0.044562
-0.090948
-0.031260
-0.046392
0.004446
0.004939
0.002711
0.039274
-0.102824
-0.022703
-0.037486
0.052936
-0.041091
0.006682
-0.029165
-0.005802
-0.106790
-0.008715
0.010041
-0.100952
-0.011842
-0.053443
-0.015163
-0.024283
-0.081492
-0.002456
-0.007791
-0.064535
0.019419
0.001736
0.068390
0.035015
-0.055369
-0.028704
-0.013472
-0.039647
0.076022
0.039794
0.034963
0.099589
0.071547
0.059985
0.071200
0.072647
0.095974
0.006368
0.061569
0.078025
0.081295
0.104542
0.109561
0.055893
0.140321
0.093416
0.104745
0.067602
0.122826
0.044390
0.007316
0.125524
0.080489
0.111807
0.061669
0.017549
0.013311
0.047634
-0.019366
0.011508
-0.053675
-0.051084
-0.024347
-0.036074
-0.038719
-0.120167
-0.032010
-0.065133
-0.079568
-0.045955
-0.117874
-0.056038
-0.107135
-0.049808
-0.070239
-0.051358
-0.127173
-0.132779
-0.078521
-0.082753
0.011866
0.089178
0.344748
0.605927
0.945489
1.181855
1.335130
1.240103
0.963066
0.715347
0.203512
-0.131964
-0.270076
-0.388630
-0.394512
-0.257533
-0.219213
-0.146173
-0.181412
-0.183192
-0.021734
-0.040090
-0.091929
-0.076066
-0.021977
-0.069174
-0.099634
0.000181
-0.036727
-0.033714
-0.010788
-0.042192
-0.080220
0.065506
-0.022011
0.037014
0.101187
0.089751
0.135623
0.221735
0.140379
0.196808
0.167238
0.213684
0.194329
0.215461
0.180892
0.296804
0.290432
0.352059
0.275171
0.398248
0.392598
0.420575
0.414656
0.429380
0.462698
0.449885
0.467870
0.365484
0.421422
0.463934
0.356041
0.440099
0.330140
0.368718
0.404565
0.324518
0.282602
0.319273
0.263843
0.331715
0.224599
0.268507
0.207045
0.129451
0.183092
0.129716
0.164010
0.091610
0.031262
0.019913
0.002632
0.097554
0.034312
0.035695
0.045658
-0.017327
0.013437
0.008382
-0.039202
-0.042581
-0.091643
-0.069481
-0.117773
-0.023732
-0.128783
-0.129284
-0.088112
-0.054683
-0.134317
-0.114562
-0.069693
-0.068293
-0.123214
-0.163248
-0.088373
-0.053412
-0.082539
-0.115717
-0.170611
-0.133121
-0.126677
-0.156528
-0.092119
-0.119901
-0.114239
-0.111853
-0.035477
-0.026755
-0.092417
-0.158470
-0.052593
-0.105222
-0.138717
-0.161889
-0.122587
-0.133746
-0.102684
-0.108042
-0.138948
-0.040386
-0.112845
-0.044724
-0.114805
-0.052457
-0.178042
-0.121651
-0.167454
-0.134525
-0.046632
-0.129230
-0.069119
-0.072145
-0.098210
-0.074770
-0.092862
-0.102329
-0.117579
-0.021625
-0.162397
-0.141154
-0.102244
-0.049924
-0.071284
-0.063501
-0.038859
-0.001019
-0.072207
0.048766
-0.038813
-0.034710
-0.020405
0.038004
-0.011729
0.047799
0.009098
0.001975
0.011206
0.045821
0.108479
0.132217
0.108584
0.039118
0.072149
0.169914
0.139035
0.107236
0.065214
0.176833
0.065916
0.028362
0.034368
0.035245
0.093515
0.029106
0.048172
-0.012909
-0.023969
-0.016144
-0.073542
0.080199
0.019583
0.002441
0.004690
-0.074823
0.034840
-0.114501
-0.061238
-0.071307
-0.023875
-0.068688
-0.098693
-0.049014
0.008884
-0.031014
-0.034974
-0.128993
-0.130877
-0.044929
-0.053955
-0.085875
0.070485
0.233621
0.581893
0.920076
1.147880
1.324664
1.309288
1.010944
0.725398
0.386109
0.014672
-0.177519
-0.357552
-0.313869
-0.225617
-0.241198
-0.162658
-0.043029
-0.042590
-0.143094
0.006452
-0.011518
0.002366
-0.056727
-0.045928
0.021413
-0.027392
0.013929
-0.036975
0.044574
0.096368
0.017012
0.090428
0.052132
0.184502
0.122812
0.163214
0.161970
0.226401
0.203783
0.227107
0.284281
0.230498
0.235925
0.291171
0.312489
0.387591
0.279872
0.388874
0.475768
0.426690
0.515424
0.440237
0.415587
0.336616
0.563980
0.431212
0.406596
0.519064
0.377502
0.445179
0.405268
0.470950
0.443226
0.337015
0.426763
0.412299
0.423464
0.319697
0.397943
0.408431
0.363954
0.265357
0.342081
0.341159
0.212884
0.199974
0.296985
0.171609
0.187168
0.195922
0.212486
0.059691
0.111497
0.134098
0.100374
0.051152
0.103616
0.018488
0.014739
0.010647
0.051943
0.044590
0.021296
0.070838
0.027308
0.026192
-0.039502
0.022019
0.007872
0.069521
0.056703
-0.010520
-0.088447
-0.064363
0.049043
-0.009094
0.003049
-0.024227
0.030495
0.100320
0.093187
0.001144
-0.038458
-0.037680
-0.044023
0.059562
0.039496
0.055410
0.006924
0.101195
0.028724
0.037458
0.037279
0.092872
-0.073173
-0.062989
0.042143
0.072221
0.071700
0.043502
-0.034042
0.019596
0.029287
0.024669
-0.031571
-0.009484
0.020117
0.090802
0.006477
0.123349
0.022197
0.063914
0.068541
0.103778
0.007436
0.037194
0.065672
0.036585
0.007392
0.071475
0.017278
0.059044
0.006579
0.129275
0.060101
0.122915
0.076307
0.092687
0.021616
0.055390
0.130282
0.118731
0.090636
0.176120
0.084298
0.137885
0.194129
0.220478
0.201580
0.181142
0.183491
0.172571
0.217353
0.307582
0.180939
0.171162
0.237773
0.128395
0.170646
0.206016
0.285516
0.205403
0.197864
0.141122
0.183820
0.174276
0.124885
0.140971
0.068579
0.112023
0.079284
0.101348
0.106858
0.040454
0.058864
0.145245
0.020946
0.040627
0.039309
0.049856
0.097834
-0.061266
0.083061
0.068721
0.071489
0.069397
0.096144
0.044503
0.041450
0.030963
0.145891
0.366181
0.592833
0.972841
1.267115
1.391367
1.460748
1.234809
0.922837
0.585867
0.243541
-0.069868
-0.227563
-0.259014
-0.113046
-0.065233
0.034402
0.014363
0.067092
0.127219
0.054923
0.069315
0.185218
0.079212
0.148518
0.141933
0.120996
0.131796
0.140310
0.162023
0.125384
0.180289
0.194002
0.200005
0.152089
0.192480
0.221845
0.238691
0.279096
0.245639
0.335179
0.325357
0.386350
0.346624
0.444539
0.367713
0.465007
0.466892
0.509097
0.526050
0.492591
0.519741
0.578833
0.529246
0.552415
0.630284
0.564819
0.571009
0.592576
0.615480
0.550594
0.684499
0.473523
0.560192
0.525243
0.546614
0.572419
0.466937
0.519383
0.478355
0.421950
0.425342
0.414493
0.334101
0.365454
0.370073
0.265845
0.256477
0.342489
0.259681
0.164861
0.261685
0.201107
0.261802
0.177768
0.277414
0.164408
0.191008
0.150276
0.092607
0.038099
0.081992
0.107945
0.058501
0.120481
0.075383
-0.006528
