0.002517
-0.030448
0.067683
0.024944
-0.053281
0.001792
-0.000676
0.074910
0.059886
0.041144
-0.005059
0.012013
-0.026005
0.025541
0.051101
0.032839
0.058586
0.012843
0.037045
-0.006093
0.036810
0.077614
0.043317
0.026752
0.056626
0.080200
0.082845
0.154817
0.051052
0.125820
0.121612
0.111202
0.196082
0.212258
0.175223
0.127924
0.178882
0.154563
0.200090
0.189757
0.219988
0.080255
0.169111
0.234361
0.199186
0.204089
0.152417
0.138740
0.145206
0.181495
0.086717
0.118829
0.102720
0.089783
0.031351
-0.014220
0.078124
0.037835
0.065110
0.080236
0.035385
0.015451
0.010857
0.110619
0.103660
0.085456
0.024278
0.003414
0.054352
0.127185
0.057254
0.210428
0.403108
0.649871
0.909119
1.150873
1.263517
1.185821
0.911201
0.590542
0.256270
0.110928
-0.053384
-0.145026
-0.088900
-0.031438
0.074269
0.048897
0.016393
0.134763
0.102197
0.144099
0.079391
0.118392
0.096587
0.147259
0.149070
0.173325
0.176638
0.217913
0.218987
0.172817
0.258965
0.276689
0.235899
0.128145
0.289144
0.271279
0.386570
0.325397
0.411676
0.453237
0.445579
0.448134
0.431153
0.450997
0.506622
0.488393
0.498337
0.488262
0.535756
0.546938
0.569682
0.491506
0.564590
0.492818
0.536962
0.532894
0.514029
0.520516
0.506327
0.519578
0.454646
0.485121
0.377384
0.463977
0.349737
0.310606
0.431472
0.336367
0.368701
0.290056
0.293110
0.346835
0.282676
0.193870
0.267478
0.315023
0.163381
0.247912
0.197841
0.234950
0.181940
0.145602
0.149463
0.124953
0.119307
0.133913
0.164233
0.046342
0.199574
0.135936
0.094226
0.138042
0.041647
0.058730
0.105594
0.112416
0.092524
0.134375
0.071092
0.050957
0.060997
0.094787
0.104000
0.064919
0.136561
0.085256
0.139806
0.107504
0.071826
0.210908
0.052922
0.012282
0.054697
0.054487
0.097129
0.100762
0.076130
0.075495
0.102098
0.122720
0.034203
0.089336
0.144002
0.144543
0.162838
0.102408
0.138654
0.074379
0.117388
0.129023
0.121055
0.105861
0.056375
0.091955
0.108214
0.121569
0.110800
0.172084
0.187261
0.104805
0.155068
0.110901
0.143167
0.193504
0.231008
0.210333
0.215550
0.226624
0.192007
0.345025
0.270857
0.250644
0.199652
0.230728
0.239196
0.230364
0.302747
0.227155
0.210298
0.336654
0.292394
0.231314
0.235684
0.161243
0.215318
0.203371
0.153518
0.128539
0.205738
0.229720
0.169151
0.202382
0.166905
0.131232
0.134262
0.151331
0.132733
0.167269
0.145492
0.118380
0.120043
0.131404
0.129956
0.154037
0.103713
0.172103
-0.002095
0.121872
0.178935
0.254022
0.528229
0.741184
1.047965
1.296354
1.350978
1.207955
1.016063
0.710284
0.285296
0.086724
-0.055132
-0.056506
-0.061333
-0.027022
0.112686
0.104056
0.142354
0.171778
0.163092
0.144693
0.149936
0.199415
0.147965
0.228048
0.239539
0.212560
0.226027
0.196097
0.246507
0.270586
0.246594
0.402435
0.331137
0.336430
0.374281
0.388829
0.385848
0.423804
0.427457
0.414567
0.482037
0.489070
0.470536
0.499323
0.600323
0.496518
0.583730
0.535435
0.495383
0.549957
0.512248
0.554149
0.549236
0.548099
0.618028
0.582770
0.621459
0.594610
0.612595
0.608317
0.539195
0.421978
0.461393
0.459992
0.512460
0.420094
0.374982
0.382762
0.301728
0.294255
0.382827
0.283485
0.259186
0.237096
0.311035
0.217202
0.227436
0.150420
0.203525
0.241217
0.201061
0.226236
0.149960
0.092956
0.186911
0.025237
0.139829
0.109943
0.147484
0.159774
0.133487
0.152050
0.059373
0.081205
0.109217
0.154665
0.069028
0.093162
0.073040
0.179197
0.047902
0.097383
0.059333
0.132240
0.131402
0.025739
0.145512
0.035533
0.067731
0.146788
0.142129
0.001554
0.076088
0.039789
0.092737
0.027641
0.072403
0.075668
0.130885
0.072251
-0.000740
0.093361
0.131352
0.082785
0.093050
0.065200
0.062134
0.092446
0.029774
0.126321
0.086919
0.134326
0.099359
0.091139
0.103464
0.095450
0.069435
0.194930
0.108240
0.164695
0.166764
0.120701
0.194232
0.117447
0.150603
0.201299
0.129612
0.173092
0.229214
0.220469
0.202660
0.272180
0.267504
0.214957
0.225495
0.235821
0.237193
0.207261
0.195607
0.210436
0.212166
0.177249
0.187979
0.197250
0.227011
0.202972
0.175100
0.167799
0.087822
0.102572
0.047565
0.067215
0.107292
0.118875
0.143696
0.006569
0.084506
0.099926
0.065969
0.078607
0.057507
0.177710
0.110290
0.105718
0.044758
0.054253
0.096806
0.110288
0.115005
0.289438
0.491202
0.726176
1.007613
1.124684
1.241448
1.163645
0.882482
0.655759
0.298415
0.049921
-0.046810
-0.187064
-0.016583
-0.032618
0.036077
0.068947
0.121006
0.066132
0.177931
0.181190
0.107970
0.092953
0.101832
0.173911
0.149402
0.171351
0.183540
0.131035
0.194546
0.211414
0.181048
0.228497
0.271486
0.261483
0.255974
0.372258
0.340626
0.357720
0.404931
0.399025
0.444764
0.414529
0.400545
0.455062
0.545428
0.452669
0.528704
0.489971
0.460453
0.487104
0.529460
0.544430
0.548627
0.486418
0.525912
0.596413
0.549728
0.451154
0.447871
0.507235
0.411855
0.477626
0.391913
0.421410
0.313310
0.406448
0.293092
0.340400
0.286068
0.278448
0.193875
0.256288
0.283572
0.234348
0.231648
0.123939
0.179084
0.142676
0.160651
0.172962
0.115323
0.143918
0.059781
0.101995
0.076630
0.075261
0.069773
0.142220
0.050650
0.059453
0.061946
0.082971
0.100912
0.024221
0.075783
0.137996
0.031243
0.089867
0.145071
0.001932
0.102587
0.077128
0.062104
0.074317
0.096326
0.085715
0.073228
0.089231
-0.000540
0.021245
0.081939
0.028526
0.095454
0.078403
0.074251
0.028634
0.069689
0.018292
0.023427
0.065047
0.087891
0.052968
0.110532
0.098618
0.154602
0.085265
0.127391
0.089312
0.114962
0.079086
0.016315
0.085476
0.068239
0.099682
0.083144
0.072691
0.080306
0.000616
0.177133
0.064704
0.090412
0.135897
0.184913
0.128039
0.187132
0.148484
0.152820
0.203008
0.138745
0.268707
0.264084
0.209490
0.228678
0.283378
0.265841
0.262263
0.274726
0.226821
0.249263
0.274475
0.196774
0.205431
0.233276
0.252287
0.242680
0.141778
0.155348
0.116421
0.192487
0.065950
0.191658
0.138112
0.069255
0.106051
0.130267
0.114419
0.031185
0.113386
0.134531
0.110163
0.124235
0.105798
0.099909
0.063318
0.111128
0.081767
0.083408
0.108913
0.157257
0.328223
0.535701
0.824907
1.004531
1.259000
1.245729
1.136066
0.859865
0.540967
0.287162
0.016036
-0.120273
-0.117741
-0.020355
0.056664
0.042029
0.058202
0.142594
0.117672
0.108056
0.175730
0.156979
0.201910
0.146077
0.235105
0.222036
0.184487
0.186939
0.269198
0.228059
0.181179
0.299316
0.321191
0.346384
0.285780
0.366459
0.351840
0.364226
0.438696
0.478289
0.472432
0.457546
0.522740
0.449083
0.512925
0.520120
0.565061
0.528571
0.558778
0.533098
0.583023
0.548688
0.597341
0.546102
0.610028
0.585784
0.599857
0.525021
0.495912
0.547866
0.463936
0.501037
0.437946
0.482688
0.457010
0.432790
0.402508
0.399343
0.278696
0.345210
0.433241
0.315592
0.323369
0.322198
0.279957
0.285116
0.248143
0.196337
0.294090
0.320002
0.213706
0.172468
0.237190
0.119881
0.231429
0.142706
0.166619
0.190559
0.190438
0.112422
0.172635
0.140563
0.201441
0.160336
0.173277
0.160690
0.122969
0.161099
0.215858
0.108819
0.218906
0.148455
0.176015
0.147560
0.218708
0.120287
0.177137
0.146454
0.128977
0.196033
0.122462
0.201894
0.161172
0.088631
0.180963
0.095815
0.106463
0.160128
0.153979
0.177197
0.131869
0.160296
0.151038
0.118706
0.212820
0.165358
0.160544
0.115623
0.155301
0.187475
0.201878
0.163982
0.175698
0.180204
0.162186
0.244072
0.204317
0.136519
0.193482
0.271953
0.218512
0.196790
0.193206
0.222315
0.266199
0.183966
0.273809
0.242235
0.253683
0.341553
0.310182
0.358809
0.381330
0.353112
0.338169
0.394546
0.312681
0.375039
0.332668
0.362846
0.342770
0.319921
0.364991
0.429795
0.306465
0.324187
0.323993
0.302995
0.297649
0.271306
0.294729
0.229164
0.263488
0.244188
0.254839
0.214877
0.235085
0.204374
0.202598
0.259985
0.263294
0.224479
0.197693
0.216819
0.288927
0.238844
0.238520
0.271736
0.196013
0.272049
0.362965
0.695654
0.992079
1.269430
1.347301
1.432865
1.218044
0.923231
0.592455
0.364779
0.033628
0.018875
0.064039
0.072760
0.104729
0.198428
0.175978
0.242792
0.206363
0.224271
0.328542
0.315812
0.264415
0.277544
0.275794
0.360023
0.352231
0.361110
0.281027
0.417772
0.355958
0.388562
0.405762
0.489164
0.475710
0.487157
0.535731
0.528133
0.502048
0.579764
0.447972
0.612382
0.548590
0.542868
0.627961
0.684263
0.667078
0.680872
0.711256
0.712615
0.696650
0.679542
0.727436
0.729813
0.727135
0.589039
0.634252
0.654488
0.607964
0.683627
0.640113
0.606051
0.654603
0.586066
0.558380
0.541205
0.554377
0.516965
0.464191
0.480818
0.471472
0.457381
0.407497
0.429371
0.446330
0.414169
0.356505
0.320610
0.330121
0.230058
0.310300
0.390602
0.324206
0.289470
0.343588
0.294940
0.329548
0.277536
0.238731
0.225522
0.326173
0.224540
0.286314
0.248845
0.275256
0.244850
0.245543
0.282236
0.281758
0.286908
0.279126
0.264226
0.267013
0.242040
0.227736
0.283765
0.210240
0.217683
0.238992
0.285810
0.278254
0.210990
0.239423
0.252972
0.259557
0.213406
0.143698
0.296522
0.282494
0.276902
0.271945
0.243180
0.263508
0.214757
0.310174
0.318151
0.293684
0.273872
0.242437
0.263545
0.267574
0.255466
0.270092
0.208189
0.235096
0.263687
0.313863
0.265616
0.332869
0.297782
0.278356
0.310390
0.312362
0.338004
0.314861
0.410751
0.381317
0.376766
0.330714
0.329960
0.364124
0.405432
0.441056
0.414620
0.388935
0.380403
0.358470
0.402579
0.342123
0.377139
0.403501
0.356973
0.353158
0.361037
0.349384
0.316060
0.346900
0.314580
0.275804
0.397708
0.316107
0.319426
0.314679
0.309125
0.299224
0.276230
0.236544
0.279425
0.292712
0.243251
0.231360
0.257977
0.176413
0.227410
0.233255
0.182212
0.310615
0.245144
0.278370
0.282518
0.530506
0.795759
1.058475
1.302529
1.414912
1.475423
1.270462
0.906194
0.557706
0.286524
0.154802
0.087616
0.078062
0.144070
0.126865
0.221798
0.365358
0.245619
0.301469
0.261702
0.233570
0.294214
0.299613
0.241192
0.350618
0.330287
0.358478
0.310621
0.322219
0.365808
0.393925
0.409219
0.432195
0.416308
0.440700
0.441625
0.477670
0.506753
0.529060
0.518051
0.567931
0.594183
0.618035
0.626550
0.642580
0.653164
0.662608
0.671607
0.714309
0.678481
0.658061
0.746956
0.709586
0.606685
0.662590
0.733040
0.667780
0.692388
0.656183
0.554535
0.586755
0.675537
0.538240
0.549283
0.565648
0.507533
0.485517
0.466170
0.541453
0.455615
0.484316
0.438689
0.431600
0.344498
0.353705
0.311202
0.351805
0.354268
0.300213
0.314226
0.290470
0.241594
0.281391
0.295168
0.276989
0.233335
0.177864
0.205775
0.292751
0.181251
0.216527
0.281088
0.254907
0.221951
0.218190
0.244872
0.195331
0.199019
0.238996
0.242232
0.212421
0.294773
0.177594
0.248919
0.247781
0.174117
0.214113
0.215040
0.149657
0.235771
0.181290
0.222699
0.279613
0.212416
0.179186
0.238616
0.164217
0.203898
0.275716
0.259859
0.224541
0.281055
0.251177
0.232598
0.246447
0.193291
0.186213
0.222260
0.270809
0.191674
0.138555
0.252848
0.205229
0.172068
0.216999
0.151871
0.306496
0.236740
0.211252
0.205795
0.209725
0.238041
0.222956
0.277001
0.278896
0.326133
0.319616
0.318495
0.290969
0.337152
0.384592
0.327207
0.309534
0.306592
0.310841
0.404542
0.439248
0.332730
0.330186
0.406585
0.334042
0.260991
0.244495
0.372358
0.345222
0.331747
0.254504
0.253574
0.280563
0.249868
0.260635
0.241126
0.233579
0.178657
0.190337
0.195797
0.168009
0.134185
0.206910
0.155231
0.135047
0.216378
0.165612
0.186347
0.135688
0.100679
0.138527
0.178452
0.172166
0.254553
0.434831
0.654923
0.963050
1.314737
1.383306
1.327397
1.075978
0.780144
0.466480
0.240367
0.013938
-0.019995
-0.042155
0.030724
0.087239
0.121150
0.196173
0.135683
0.214505
0.179136
0.234633
0.167874
0.238489
0.184183
0.250330
0.225175
0.247676
0.243553
0.239355
0.354171
0.376875
0.371595
0.307879
0.350783
0.403065
0.380198
0.407634
0.490431
0.445667
0.486145
0.415702
0.570756
0.499458
0.564901
0.596265
0.553462
0.536687
0.499477
0.578841
0.598394
0.604765
0.658644
0.627155
0.548245
0.562255
0.625679
0.585126
0.548716
0.545555
0.531723
0.502861
0.461297
0.522464
0.495313
0.513949
0.452392
0.388808
0.383748
0.428511
0.432160
0.401975
0.398848
0.340086
0.229062
0.296179
0.275039
0.269586
0.262785
0.191232
0.228445
0.225546
0.259325
0.251309
0.247465
0.205040
0.177248
0.134830
0.214358
0.212499
0.210823
0.142329
0.169315
0.150059
0.145447
0.062534
0.098941
0.139945
0.155499
0.143936
0.136195
0.138794
0.151058
0.124391
0.167191
0.214837
0.168589
0.130302
0.134462
0.143527
0.139177
0.167885
0.154888
0.146272
0.107531
0.149728
0.152533
0.205586
0.130388
0.148001
0.133778
0.152135
0.127986
0.085906
0.147565
0.157191
0.168221
0.196171
0.176228
0.123257
0.182006
0.138801
0.166916
0.055771
0.207447
0.186440
0.113486
0.182284
0.115190
0.254611
0.107456
0.211164
0.178139
0.215023
0.165834
0.257665
0.272064
0.223996
0.264564
0.214994
0.272436
0.199544
0.244458
0.334244
0.287765
0.327151
0.274495
0.291527
0.278964
0.340810
0.294101
0.284000
0.285167
0.320733
0.291761
0.286988
0.259090
0.264949
0.276243
0.269744
0.196135
0.202449
0.172711
0.199385
0.117783
0.191501
0.205586
0.214200
0.155432
0.186472
0.155978
0.210794
0.251274
0.119605
0.228546
0.136469
0.210152
0.166652
0.163035
0.252058
0.304991
0.431751
0.785382
1.016243
1.252995
1.379195
1.266487
1.084056
0.783892
0.399211
0.126265
0.033341
-0.044357
-0.028414
0.106178
0.140017
0.204736
0.184845
0.174273
0.255925
0.165827
0.241244
0.238161
0.241563
0.248276
0.240710
0.190588
0.341873
0.314336
0.327335
0.287700
0.326681
0.266252
0.368832
0.325456
0.378826
0.462221
0.430224
0.429673
0.435798
0.528247
0.526137
0.564114
0.491419
0.583331
0.615087
0.554722
0.639243
0.642882
0.699774
0.595151
0.624570
0.629056
0.649481
0.598189
0.605823
0.625816
0.621389
0.543665
0.595466
0.556315
0.468083
0.531415
0.614123
0.499113
0.568549
0.474314
0.510607
0.349954
0.405430
0.333032
0.401469
0.388710
0.377935
0.397870
0.297677
0.343124
0.233215
0.301259
0.255871
0.317134
0.306011
0.281618
0.231325
0.315960
0.173845
0.242566
0.180510
0.218956
0.215806
0.302868
0.283196
0.249201
0.193004
0.233152
0.176665
0.225946
0.157669
0.216900
0.192121
0.232188
0.214884
0.245734
0.272241
0.205762
0.217111
0.180985
0.289766
0.279911
0.221081
0.206208
0.230379
0.197440
0.274736
0.179348
0.175022
0.247703
0.183291
0.229669
0.278009
0.143327
0.206030
0.174741
0.286598
0.236874
0.345821
0.235785
0.199053
0.229422
0.212809
0.296946
0.253923
0.190687
0.157827
0.230844
0.223986
0.256588
0.234536
0.222130
0.277866
0.220484
0.255355
0.304589
0.304018
0.313032
0.288648
0.286546
0.362200
0.309423
0.338437
0.378304
0.451257
0.355992
0.343192
0.396744
0.394385
0.383163
0.379121
0.446532
0.393399
0.478679
0.381199
0.350316
0.354178
0.368348
0.335871
0.365377
0.303755
0.308751
0.270593
0.309456
0.319908
0.226490
0.252609
0.324660
0.220870
0.294233
0.289065
0.324514
0.267222
0.248432
0.232884
0.276141
0.229650
0.250679
0.256699
0.273226
0.285277
0.199567
0.304168
0.462588
0.583201
0.853499
1.195314
1.426393
1.417694
1.420014
1.080055
0.811619
0.470691
0.307591
0.184819
0.079745
0.124023
0.215291
0.242160
0.280377
0.285453
0.303118
0.272159
0.348507
0.293610
0.323479
0.298077
0.347254
0.241057
0.361429
0.373186
0.362003
0.418234
0.476310
0.448146
0.430737
0.443558
0.414447
0.488616
0.516082
0.515393
0.508124
0.592283
0.573018
0.592997
0.616956
0.654212
0.642264
0.570106
0.688091
0.669112
0.702005
0.646979
0.739695
0.792078
0.706426
0.728793
0.722511
0.736957
0.682930
0.724635
0.734799
0.657988
0.707500
0.635593
0.588653
0.647713
0.657692
0.588804
0.666648
0.593970
0.515224
0.518101
0.475864
0.446288
0.443767
0.497740
0.453037
0.433327
0.461033
0.389557
0.356521
0.427420
0.381787
0.393964
0.406582
0.313150
0.436940
0.341593
0.341490
0.300700
0.274343
0.299894
0.264014
0.294879
0.325030
0.345983
0.304061
0.289463
0.305848
0.267911
0.349982
0.315000
0.261315
0.285383
0.397041
0.304597
0.302146
0.351639
0.255761
0.281613
0.276751
0.304667
0.252564
0.348464
0.248723
0.214950
0.300081
0.272868
0.229612
0.300248
0.271244
0.265873
0.347571
0.307129
0.369342
0.283220
0.344169
0.270643
0.321747
0.257710
0.342424
0.307565
0.274599
0.285649
0.271161
0.281988
0.325414
0.314613
0.282390
0.286908
0.288359
0.309310
0.354927
0.335199
0.336384
0.380139
0.300467
0.365487
0.346880
0.337983
0.336771
0.371200
0.370728
0.444225
0.408075
0.388670
0.433936
0.428174
0.417200
0.443028
0.460119
0.448171
0.442579
0.401512
0.465588
0.453752
0.400004
0.387077
0.392088
0.401388
0.410408
0.414393
0.380397
0.390514
0.291919
0.346862
0.335034
0.352991
0.302908
0.264851
0.355301
0.314898
0.344776
0.278916
0.310001
0.295463
0.340927
0.295910
0.330813
0.266241
0.314275
0.381425
0.454345
0.628334
0.897305
1.194606
1.426294
1.412980
1.362169
1.099873
0.774183
0.517096
0.226244
0.158980
0.111536
0.079477
0.178022
0.259396
0.252153
0.286027
0.311538
0.304701
0.274430
0.355673
0.268120
0.369880
0.278571
0.404679
0.379390
0.403557
0.320645
0.322287
0.398170
0.330558
0.420780
0.405222
0.474670
0.431983
0.508812
0.554015
0.566968
0.596025
0.554168
0.600988
0.563934
0.616775
0.613381
0.635808
0.677531
0.711466
0.736663
0.712510
0.661368
0.743271
0.734860
0.762721
0.699044
0.706198
0.734473
0.645957
0.643029
0.643044
0.708522
0.720410
0.620565
0.658519
0.583431
0.530652
0.477337
0.513032
0.578019
0.508335
0.504766
0.396289
0.388203
0.373813
0.393508
0.336948
0.367765
0.414959
0.318794
0.385579
0.370613
0.339171
0.391194
0.296516
0.339311
0.339997
0.272956
0.342385
0.266674
0.232968
0.242493
0.263395
0.301878
0.219037
0.272237
0.234040
0.255372
0.232599
0.234069
0.255481
0.216155
0.298591
0.254003
0.211431
0.280094
0.236749
0.220691
0.165520
0.234181
0.232268
0.238239
0.231779
0.177415
0.239987
0.172000
0.287719
0.248107
0.252972
0.198970
0.296315
0.190869
0.208550
0.290986
0.234538
0.280176
0.230403
0.229447
0.266679
0.198700
0.170867
0.239876
0.282986
0.271503
0.242419
0.209389
0.237612
0.213508
0.179226
0.207185
0.240532
0.277479
0.234361
0.239178
0.281125
0.263299
0.260443
0.277783
0.345000
0.282232
0.332162
0.278731
0.329666
0.348606
0.242036
0.363182
0.367888
0.361058
0.346109
0.425827
0.344851
0.307175
0.282783
0.426767
0.353668
0.345018
0.394510
0.296216
0.322151
0.251243
0.268240
0.270006
0.270222
0.207379
0.244725
0.270174
0.261096
0.209171
0.149273
0.236407
0.228004
0.206164
0.144047
0.198925
0.206161
0.159748
0.202909
0.200832
0.188431
0.173593
0.291782
0.333061
0.557071
0.843427
1.165227
1.359344
1.333621
1.233377
1.008689
0.664228
0.342079
0.154708
-0.017630
-0.115684
0.018311
0.009070
0.117005
0.201366
0.200065
0.259843
0.215919
0.295411
0.200928
0.284527
0.263668
0.260581
0.264008
0.251807
0.313302
0.304860
0.382201
0.277308
0.390565
0.396096
0.390781
0.396229
0.364393
0.372335
0.446129
0.520905
0.508434
0.483284
0.590279
0.571948
0.523173
0.627559
0.525717
0.611484
0.599826
0.605090
0.547132
0.616322
0.613813
0.657353
0.621909
0.637762
0.577128
0.568894
0.656407
0.545713
0.554934
0.552871
0.533492
0.520797
0.501658
0.527244
0.470839
0.508570
0.396664
0.447034
0.449915
0.384671
0.412285
0.346168
0.252097
0.311234
0.391492
0.306352
0.353705
0.248437
0.293170
0.171447
0.246438
0.247400
0.228498
0.198755
0.183567
0.226256
0.203831
0.236000
0.235697
0.251205
0.182304
0.114804
0.213512
0.147734
0.199502
0.188930
0.167816
0.213115
0.158159
0.183484
0.163732
0.221606
0.166846
0.147940
0.138886
0.193909
0.193622
0.195055
0.175837
0.202242
0.140579
0.217396
0.133548
0.198850
0.194231
0.159012
0.170958
0.157489
0.155480
0.105935
0.157306
0.169903
0.134581
0.141821
0.161437
0.147262
0.225010
0.143238
0.123871
0.216836
0.184744
0.236671
0.208307
0.204613
0.251999
0.224180
0.108630
0.195315
0.247099
0.183608
0.140827
0.161371
0.243117
0.220618
0.283804
0.277730
0.285205
0.298345
0.282761
0.270035
0.270046
0.276800
0.345282
0.380408
0.329294
0.297618
0.285255
0.310609
0.298749
0.354157
0.277631
0.364864
0.336890
0.295184
0.273315
0.251857
0.325403
0.158954
0.346508
0.223873
0.261879
0.197356
0.128248
0.223644
0.244982
0.185277
0.159773
0.203741
0.183380
0.177104
0.208376
0.241126
0.210384
0.203356
0.219739
0.122649
0.143619
0.240868
0.303206
0.401553
0.621385
0.851532
1.191865
1.331156
1.337977
1.219510
0.901461
0.609183
0.279173
0.098022
0.039229
-0.009023
0.056434
0.073221
0.142572
0.232306
0.176011
0.142212
0.313766
0.196872
0.249191
0.216475
0.263891
0.302757
0.239820
0.216961
0.338156
0.367927
0.406383
0.379042
0.426373
0.374314
0.365797
0.420141
0.437642
0.509076
0.439174
0.503807
0.464001
0.458436
0.604911
0.489657
0.638991
0.623899
0.639246
0.638433
0.645067
0.690113
0.657191
0.635939
0.643077
0.650677
0.673998
0.588446
0.658965
0.712951
0.620700
0.589706
0.590769
0.553360
0.638012
0.543263
0.543860
0.500554
0.541856
0.515090
0.487775
0.475384
0.505527
0.409683
0.447872
0.416763
0.368011
0.340883
0.321897
0.318483
0.362898
0.343828
0.246981
0.248852
0.373108
0.321881
0.227786
0.278026
0.237790
0.220085
0.225374
0.278946
0.290137
0.330075
0.204447
0.295022
0.278180
0.245948
0.255027
0.262170
0.126749
0.313114
0.249288
0.249959
0.199017
0.238289
0.306022
0.213750
0.219028
0.218881
0.225304
0.266984
0.299847
0.167853
0.209784
0.289354
0.168184
0.207975
0.223046
0.255747
0.306329
0.216072
0.239332
0.215653
0.256303
0.252074
0.267884
0.236605
0.179896
0.227980
0.291728
0.245374
0.165728
0.189271
0.213467
0.249936
0.316008
0.309464
0.220097
0.344494
0.192576
0.237788
0.300178
0.253942
0.315079
0.258303
0.287429
0.291381
0.297659
0.340451
0.358256
0.357973
0.430399
0.344638
0.389614
0.358090
0.343428
0.401693
0.423112
0.368639
0.422419
0.350092
0.332236
0.459765
0.342831
0.390890
0.442496
0.471675
0.421289
0.391167
0.391504
0.323630
0.367543
0.353168
0.337398
0.340381
0.297313
0.329380
0.260585
0.325640
0.303534
0.289012
0.331524
0.257875
0.335470
0.295607
0.287231
0.241598
0.297284
0.187152
0.268449
0.295397
0.404096
0.495312
0.802813
1.032501
1.318337
1.463230
1.500000
1.313476
1.040252
0.713363
0.430764
0.185545
0.188445
0.159535
0.181549
0.252771
0.284552
0.275691
0.311247
0.342723
0.369000
0.236949
0.347643
0.379530
0.384281
0.396488
0.340330
0.382857
0.389276
0.376875
0.398586
0.479907
0.407877
0.490229
0.564083
0.526532
0.562531
0.550005
0.584302
0.599038
0.568535
0.605773
0.699169
0.645056
0.631611
0.761250
0.735539
0.737653
0.731353
0.710213
0.696442
0.842993
0.754161
0.774420
0.800521
0.740309
0.710876
0.741865
0.642314
0.686843
0.710293
0.677886
0.617107
0.616253
0.620825
0.623136
0.642681
0.537791
0.590010
0.542624
0.495584
0.456766
0.490590
0.514565
0.442143
0.432539
0.429283
0.410444
0.415228
0.362081
0.332063
0.394626
0.361563
0.313406
0.391511
0.322336
0.306552
0.328821
0.219081
0.273649
0.315226
0.323637
0.332086
0.264364
0.309672
0.328977
0.328398
0.320806
0.254686
0.289492
0.314663
0.220737
0.360946
0.319774
0.341469
0.272136
0.290423
0.419815
0.294660
0.329118
0.331359
0.293375
0.280907
0.314680
0.290706
0.246568
0.348317
0.371628
0.269912
0.328541
0.276263
0.273506
0.308183
0.415955
0.271084
0.314803
0.360647
0.366268
0.277711
0.279550
0.330466
0.291864
0.299707
0.283146
0.348356
0.317752
0.284657
0.330328
0.338346
0.342163
0.415284
0.305213
0.271831
0.351693
0.427522
0.290507
0.374623
0.404100
0.476228
0.387047
0.403217
