0.417902
-0.133436
0.527750
-0.147215
-1.034243
-0.087921
-0.063093
-0.394767
0.010103
-0.373471
-0.019611
0.152021
0.114444
-0.078274
0.233299
0.334012
0.126622
0.636621
0.023060
-0.391562
0.014320
0.347244
-0.062492
-0.338476
0.390146
0.307070
-0.396293
0.228868
0.143465
0.539312
0.871729
-0.158274
-0.170244
-0.321256
0.181063
0.262941
-0.451202
0.121425
0.101281
0.552578
-0.503089
0.523065
0.708053
-0.032090
0.245809
-0.088321
-0.287325
0.743715
0.867842
-0.148130
0.368803
0.277667
-0.468945
0.249020
0.230734
0.536971
0.688733
0.560030
0.218440
0.910620
-0.517190
-0.070238
0.406868
0.231359
0.476565
0.329692
0.574463
-0.168896
-0.073377
0.000036
-0.257283
-0.282617
-0.071708
0.012936
0.081653
0.155125
0.093955
-0.201160
1.141627
0.017537
0.079188
0.182665
-0.105958
-0.504608
-0.028823
1.110399
0.494914
0.910174
0.836560
0.604563
0.220278
-0.034295
0.416637
1.026601
0.206217
0.696855
-0.534225
0.068625
-0.077104
-0.680447
-0.283379
-0.895628
-0.035907
0.641671
-0.707325
0.386507
0.143124
0.194815
0.218516
0.024283
0.518577
-0.316306
0.664685
0.320195
0.371049
0.345254
0.382451
0.576004
-0.495194
-0.029670
0.681798
0.532572
0.563756
0.113828
-0.107362
0.332636
0.620187
0.824190
-0.017227
0.513571
-0.307125
-0.765934
0.452341
1.323933
0.917884
0.138909
0.005859
0.229530
0.346653
1.461246
0.067855
0.305155
0.123134
0.349693
0.549159
-0.228089
0.452770
0.173597
0.056447
0.005404
0.094959
0.696903
-0.077636
-0.403583
0.438232
0.421811
-0.103095
0.036670
0.144847
0.766950
0.456637
0.019053
0.245371
-0.292812
0.338717
-0.001173
0.457189
-0.211600
0.030905
-0.024680
0.704812
0.068460
0.474464
0.179096
-0.299803
0.450688
-0.014613
0.495690
0.023827
0.036967
-0.060431
-0.269859
0.582363
-0.482142
0.246235
0.486112
0.051951
0.145685
0.326045
0.239790
0.305801
0.084168
-0.288874
0.028751
-0.050193
1.044967
0.840444
-0.180769
-0.123055
-0.276497
-0.507878
0.313656
0.283788
-0.191867
-0.025240
-0.266089
0.073967
-0.454994
0.076714
0.599647
-0.478394
-0.393388
0.821115
-0.162640
0.146242
0.319802
0.042419
-0.076588
0.471458
0.646495
0.048888
0.496307
0.237891
0.590107
-0.000133
-0.389532
0.127672
0.076516
-0.077214
0.416406
0.905071
0.282151
0.587963
0.409672
0.148650
0.973927
-1.021025
0.839307
0.240484
-0.668732
0.591190
0.592199
0.267736
0.369057
-0.376404
0.117008
0.351122
-0.401216
0.674726
-0.203545
-0.434419
0.512326
0.080211
0.767252
0.713846
-0.101083
-0.340788
0.362767
-0.609422
-0.343609
0.679979
0.314986
0.343003
-0.447968
0.058494
-0.078278
0.171588
0.802680
0.658531
0.023072
-0.372646
0.794592
-0.376705
0.047841
0.292145
0.021521
0.300266
0.406807
-0.576700
-0.417015
0.491660
0.140196
-0.308034
-0.360368
-0.156279
-0.079549
-0.194673
-0.207097
-0.121582
-0.008840
-0.401089
-0.118692
0.570444
0.394274
0.278675
-0.463366
-0.335120
-0.121556
0.061576
0.631042
-0.002580
0.354789
0.146469
-0.471514
1.002142
0.227832
0.538023
0.552372
1.049617
0.938525
0.624252
0.680833
0.590624
0.209465
0.122111
-0.259252
-0.302737
0.423505
0.330832
-0.020091
0.173216
-0.199445
-0.610083
-0.459650
-0.470102
-0.184130
0.060926
0.363677
0.077492
-0.404851
-0.615841
0.317250
0.617821
-0.594199
0.336296
-0.294662
0.086867
0.114151
-0.103732
-0.244448
0.325784
0.193600
-0.663070
-0.021116
0.285655
0.586820
-0.551754
0.752886
-0.026794
-0.500388
0.350655
-0.272931
0.832295
-0.580360
0.029531
0.988086
0.378731
0.389547
0.076273
0.958603
0.296208
0.644213
0.349260
-0.067790
0.137650
0.265996
0.438760
0.261647
0.254493
0.589093
-0.232671
-0.096446
0.175550
-0.061090
0.692203
-0.484462
0.345008
0.805731
0.176810
0.168273
-0.047179
0.405207
0.101030
0.882067
0.329455
0.186223
-0.102461
0.181895
0.254457
0.371529
0.032400
-0.394292
0.743195
-0.288912
0.369116
-0.085904
0.614954
-0.622932
0.152100
0.294466
0.540439
-0.045179
0.384620
0.491751
-0.669547
-0.670688
0.276695
0.058338
-0.181423
-0.569791
0.245426
0.160248
-0.429108
-0.119980
-0.563843
0.265647
0.032643
-0.047758
0.068671
-0.176256
0.276203
0.371723
-0.361849
0.107906
-0.320949
-0.419200
0.555916
-0.105614
-0.348903
0.103320
0.152623
-0.178445
-0.009673
-0.048558
-0.231480
-0.232541
-0.211872
-0.811991
0.413848
-0.504494
0.414404
0.015236
-0.284665
0.607826
-0.142896
-0.483301
-0.118538
0.087373
-0.179793
0.425347
-0.303033
-0.193686
0.202921
-0.164156
0.157958
0.037997
0.294048
-0.020739
-0.041043
-0.451651
-0.318630
-0.866568
-0.139609
-0.494451
0.108039
-0.383098
-0.011857
-0.663664
0.136807
0.017690
0.424815
0.234249
0.214260
-0.222673
-0.234719
0.032559
-0.410722
-0.374189
0.105154
-0.422005
0.254033
-0.275187
0.479011
-0.234485
-0.031807
-0.292118
-0.369859
-0.574959
-0.053193
-0.222915
0.293781
0.078890
0.261678
-0.323681
-0.243989
-0.138248
0.089711
-0.321559
-0.442430
-0.217944
0.072753
-0.359744
0.026904
0.114507
-0.311446
-0.112059
-0.261360
0.107951
0.293504
-0.134930
-0.191767
-0.105893
0.031488
-0.159683
0.042740
0.214668
-0.184110
-0.034065
0.126716
0.112595
0.040657
0.080083
-0.073351
0.615299
0.104569
0.205374
0.123086
0.990888
0.481285
0.897127
0.931231
1.243069
-0.213987
0.113080
0.206213
-0.361671
0.668794
-0.176765
0.380372
0.035746
-0.266046
0.017050
0.019435
0.338256
-0.275693
0.074663
-0.302732
-0.243963
-0.039036
-0.193381
-1.025493
0.344319
0.138512
0.087722
-0.545784
0.278268
-0.986243
-0.249107
0.047891
-0.494455
0.026258
0.341877
0.465829
-0.091154
0.083629
0.418355
-0.334061
-0.053022
-0.049928
0.418672
0.270122
-0.142328
-0.507820
0.116202
0.838159
0.230077
-0.119250
-0.099921
0.113064
0.203715
-0.128037
-0.112316
0.185523
-0.129384
0.331383
0.308098
0.065195
-0.503944
-0.518088
0.347747
0.448791
0.633485
0.400276
0.429676
-0.047265
0.237665
0.462918
0.214409
0.463354
-0.031445
-0.210565
0.600191
-0.001610
-0.110125
0.244869
0.229358
-0.428648
-0.209672
0.560387
-0.137217
0.142386
0.292166
0.007175
0.852317
-0.067532
0.129807
0.084828
-0.453109
0.269913
-0.354826
0.160482
-0.493383
0.233929
0.344437
0.228470
-0.660530
0.419611
-0.411432
0.673285
0.027036
0.125605
-0.555202
0.197566
-0.973081
0.031099
0.137122
-0.146927
-0.116584
-0.223857
0.088765
-0.591202
0.021516
0.116383
0.253406
0.425736
0.189710
0.129251
-0.234480
-0.473562
0.096890
-0.249745
0.477175
-0.060408
-0.228841
-0.454960
-0.266863
0.188378
-0.142595
-0.841104
-0.159505
-0.056800
0.307038
0.369307
0.110299
-0.312033
-0.054024
-0.388207
-0.400605
-0.572699
-0.584423
-0.304703
-0.325571
-0.211176
0.323069
-0.188968
-0.100343
-0.292731
-0.067856
0.685370
-0.161677
-0.009370
0.092331
-0.498897
-0.378791
-0.737377
0.327250
0.706626
-0.595126
0.205892
0.325278
1.218314
0.314399
0.227316
0.162166
0.126781
0.256447
-0.141803
0.735684
0.452119
0.335126
-0.169490
0.368956
0.324057
0.097008
0.270796
-0.248659
0.229487
-0.294752
0.230267
0.047511
0.326913
-0.202563
-0.157117
-0.012497
-0.306946
0.852536
-0.053793
0.183341
-0.104903
-0.321897
0.310392
-0.342088
0.582538
0.308449
0.362329
-0.405855
-0.378398
-0.691992
-0.783178
0.071491
0.105114
-0.489831
0.842173
-0.274765
-0.503293
0.222237
0.651484
-0.007662
0.404796
0.418621
-0.219378
0.092148
-0.636037
-0.285006
-0.372428
-0.079152
0.679394
0.306968
0.326864
0.258760
0.603629
0.139416
0.590509
0.363435
-0.023863
0.287799
0.035530
-0.439083
0.067178
0.767208
0.200863
0.101259
-0.136810
0.052789
0.431172
-0.434575
0.449004
-0.383910
-0.318119
0.252536
-0.337543
0.451557
-0.413718
0.269392
0.497078
0.267389
0.070448
-0.404139
-0.031556
-0.094352
-0.734340
-0.078484
-0.498849
-0.001179
0.474983
-0.362848
0.435059
0.372352
0.070217
0.246605
-0.026982
-0.105619
0.529421
0.545718
0.686342
-0.075599
0.276906
0.267497
0.784468
-0.288464
-0.359667
-0.304761
0.290414
0.384242
-0.138832
0.336919
0.308470
0.780549
0.845504
-0.122321
0.072436
0.240864
-0.245110
0.408062
-0.360442
-0.300376
-0.165242
-0.353608
-0.091313
0.044430
-0.006911
0.544041
-0.269146
0.046345
0.058005
-0.413638
0.057059
-0.401287
0.254403
-0.037001
0.206140
0.136470
0.363167
-0.086632
0.035966
0.239279
-0.234854
-0.077199
0.190446
-0.509030
0.195264
0.069415
0.603284
0.603686
-0.164355
0.278614
-0.430792
0.290840
0.184643
0.356462
-0.427182
0.174019
0.625763
0.164553
-0.061070
0.471655
0.031733
-0.208814
0.534620
-0.049416
-0.002175
-0.164592
0.772292
-0.486501
-0.095563
0.512877
0.062717
0.251811
0.260953
0.319119
0.605336
0.352359
-0.748634
0.042775
-0.301602
0.109092
0.290368
0.543659
0.486975
-0.035708
-0.031826
-0.490190
0.237464
0.449782
0.216177
-0.649707
-0.159063
-0.063256
0.123059
0.214734
0.253802
0.071465
-0.191111
-0.262245
0.042333
-0.018302
0.081813
0.013554
-0.190299
0.091829
-0.252071
0.152537
-0.444987
-0.318646
0.316729
0.034153
-0.241384
0.412461
0.551679
0.168870
0.757545
0.182677
0.406777
-0.172791
-0.233798
-0.226963
-0.087470
0.281627
0.083391
0.137747
-0.158040
-0.067145
0.142810
0.007878
-0.481771
0.475036
-0.046447
0.363877
0.203694
0.683928
-0.024276
0.416607
0.459897
0.121834
-0.734794
0.601574
0.111837
0.456862
1.128885
-0.096275
-0.378369
0.602772
0.014582
0.166858
0.449963
0.182845
0.601743
0.229292
-0.084046
-0.476499
-0.181386
0.671159
0.143360
0.209924
0.409226
0.050351
-0.437987
0.242776
-0.011745
-0.400016
-0.244999
0.179831
0.296087
-0.382246
0.067525
-0.380479
-0.192325
0.098495
0.789766
0.750242
0.552697
0.862673
0.677709
0.387996
-0.055719
-0.500071
-0.364728
-0.294771
-0.047504
-0.677608
-0.009486
0.051327
0.582508
0.334687
0.529011
0.066266
-0.736865
0.124251
-0.703819
-0.205204
-0.008982
-0.316671
-0.255250
0.368849
-0.562079
0.221733
0.561080
-0.248641
-0.407492
0.062713
0.222768
0.046616
0.713015
0.186709
-0.666046
0.871052
0.509944
0.114415
0.237203
0.481597
-0.298436
0.110898
0.267992
-0.410501
0.474178
-0.097546
0.213139
0.629653
1.039932
0.227959
-0.031170
0.617456
0.029770
0.054110
0.538854
0.221704
0.005586
0.676955
0.300264
0.716964
0.510724
0.823036
0.021478
0.220717
0.586947
-0.181377
1.172504
0.457034
0.363228
-0.050938
0.575011
-0.189496
0.966628
-0.102819
0.684899
-0.277073
-0.191640
-0.555071
-0.164800
0.277294
-0.029138
-0.467908
0.073430
0.251613
-0.091219
-0.287120
-0.331270
-0.175629
0.415083
0.359801
0.119859
-0.249318
-0.432275
-0.206026
-0.154299
-0.078426
0.378102
0.133383
0.049240
-0.037243
-0.078061
0.613008
0.301100
0.467715
0.043818
-0.028859
-0.106094
-0.403708
-0.820910
-0.169972
0.117327
-0.112630
0.231622
0.075661
-0.086578
-0.003746
1.132310
0.467159
0.591916
-0.158675
0.687042
0.346278
-0.300662
-0.579540
-0.345223
0.234529
-0.507015
-0.386781
0.479816
0.303303
0.205406
0.151456
0.028142
0.150402
0.288386
0.483715
0.553403
0.118810
-0.220233
0.346969
-0.400398
-0.258695
-0.536222
0.149018
0.105245
-0.409306
-0.029391
-0.635838
-0.196009
0.317319
0.351098
-0.165898
-0.547698
0.443712
-0.301395
0.393467
0.120343
-0.299755
-0.084916
0.451311
0.631689
-0.222963
0.056243
-0.068554
0.817047
0.386454
-0.227177
0.158048
-0.350654
0.383923
0.697070
-0.205266
1.014096
0.156075
0.479429
0.254363
0.216045
0.260849
-0.121076
0.874506
0.352161
0.109523
0.189649
0.050807
-0.593779
0.381698
-0.150973
0.388006
0.148279
0.023901
0.011582
0.077712
-0.671762
0.105749
-0.079402
0.214501
0.139858
0.297854
-0.175357
0.067399
-0.315106
0.264914
0.377807
-0.696992
0.348172
0.534138
-0.189760
-0.032873
-0.188758
-0.053853
0.066423
0.358644
-0.067239
-0.224320
0.181309
0.103619
-0.806639
-0.043820
-0.097622
0.164957
0.331241
1.041071
0.222918
0.409168
0.654015
-0.080042
-0.184958
0.124991
-0.395902
-0.781261
-0.475084
0.433886
0.398241
-0.472853
-0.078955
0.080998
-0.086158
0.540178
-0.099217
-0.187418
0.025592
0.664697
-0.199538
0.665088
0.322332
0.575828
-0.409062
-0.055994
0.353209
-0.448613
-0.056970
0.265981
0.354938
0.235744
0.353965
0.439141
-0.366835
-0.326243
0.370866
-0.224096
0.300353
0.328916
0.438966
-0.465842
0.194970
0.015762
-0.049443
0.503127
0.455123
-0.049510
-0.445044
0.609293
0.607817
0.134171
-0.134662
0.578987
0.301351
-0.452473
-0.150235
0.910938
0.237632
0.067976
0.224067
-0.004426
0.228761
0.565562
0.661273
-0.041818
0.096895
0.223681
0.676679
-0.256238
0.402253
0.457726
0.525829
0.787366
0.317689
-0.563708
0.536220
-0.111182
0.196376
0.484673
0.326354
0.504686
0.038076
-0.267289
0.483186
-0.149456
-0.456177
0.028885
0.551798
0.074090
-0.157044
-0.067433
0.007429
-0.564873
0.136696
-0.106316
-0.050904
-0.151604
0.551506
0.494334
0.106379
-0.510706
-0.278384
0.317296
0.163139
-0.796941
-0.234370
-0.505041
-0.226178
0.703863
0.077405
-0.281049
-0.260796
0.353757
-0.511911
-0.114072
-0.187023
-0.311554
0.001751
-0.642169
-0.486807
-0.702888
0.286629
-0.348277
0.607512
0.553177
-0.324787
0.061192
-0.259441
0.077014
0.024794
-0.265689
-0.336510
-0.206347
-0.303016
-0.639405
-0.026115
0.070934
-0.370584
-0.063187
0.569703
-0.087057
0.165698
-0.189288
-0.187146
0.368711
-0.841199
0.095865
-0.491457
0.181663
0.393954
-0.724891
-0.472822
-0.043427
-0.642051
-0.454340
-0.780538
-0.002695
0.204837
-0.526522
-0.170675
-0.358297
0.130793
0.352235
-0.423475
-0.101033
-0.019998
-0.149938
-0.228307
0.061938
0.098863
0.222873
0.275672
-0.072293
-0.189531
0.042415
-0.381486
-0.062841
0.026232
0.675952
-0.097930
-0.800232
-0.162778
0.453149
0.167483
-0.056587
0.234915
0.076409
0.288826
-0.516429
-0.189202
-0.048053
-0.320045
0.036491
0.245672
-0.202660
-0.692813
-0.199137
-0.285186
-0.868563
0.114396
0.233440
-0.272005
-0.177444
0.661275
-0.265852
-0.010978
-0.238863
0.226715
0.006654
0.246176
0.653101
0.009144
0.337859
-0.303499
-0.181371
0.987085
0.359057
0.453147
0.629554
1.275479
-0.161277
0.499842
0.642145
0.434689
0.009476
0.105807
0.552601
-0.206628
-0.376135
0.068517
0.193860
0.609584
-0.375939
-0.126682
-0.199323
0.639545
0.047852
0.141078
0.200158
1.214214
0.018746
0.549520
-0.677905
-0.343825
-0.351771
-0.152079
0.005218
-0.080420
-0.126884
-0.465094
0.061097
-0.160342
0.024966
-0.298457
0.399301
-0.157585
0.370251
0.465141
0.635397
0.334973
0.081548
-0.308678
0.362407
-0.319480
-0.300769
0.684707
0.050356
0.514157
-0.356809
0.559400
0.049259
-0.026209
-0.004612
0.861734
-0.460552
0.830523
0.541539
0.157604
0.110982
0.647520
-0.158259
0.551512
0.627624
0.406341
-0.266628
0.027933
0.192738
0.533539
0.165525
0.424955
0.090617
0.122114
0.748079
0.201944
-0.126328
-0.352686
-0.234427
-0.301268
-0.095831
0.366217
-0.514249
-0.088340
0.094862
-0.467577
-0.380941
0.241149
0.054469
0.805632
0.394867
-0.290740
-0.278358
0.761016
-0.357889
0.267514
-0.070822
0.059401
-0.007903
0.066687
0.115164
0.123498
0.011311
-0.385655
0.098510
0.192961
0.244005
0.412241
0.686442
0.422175
1.362138
0.260911
-0.229480
-0.177125
-0.957051
-0.143764
0.243706
-0.274574
-0.103005
-0.567285
0.558516
0.181098
0.147286
-0.867240
0.279875
0.800887
-0.097300
0.069121
-0.599459
-0.226346
-0.360585
0.343810
0.502560
-0.075112
-0.616309
-0.768605
-0.134786
0.201395
-0.079589
0.143240
0.203746
0.194280
-0.137503
-0.650502
0.249495
0.500542
-0.646006
-0.289413
-0.351336
0.002698
-0.071600
-0.082096
-0.604139
-0.278149
-0.143388
-0.878213
-0.371073
0.484721
0.114206
-0.565946
-0.169321
-0.244799
0.281360
-0.009435
0.137140
-0.175769
0.236362
0.111094
-0.014899
0.086538
0.798529
-0.266447
-0.561836
0.196324
-0.118310
0.167025
-0.276052
0.040486
-0.030359
-0.171464
-0.029852
0.384853
-0.107018
0.098516
0.160592
-0.410372
0.772234
0.387023
-0.347769
0.085228
0.297491
0.194541
0.346324
0.310518
0.337975
-0.198876
0.653632
0.146013
0.543075
-0.420832
0.715904
0.383501
-0.302873
0.253586
-0.096366
0.190476
-0.183233
0.374189
-0.040640
0.008585
-0.027165
0.592866
0.319573
0.213429
-0.082974
0.536703
0.079044
0.059967
0.719869
0.543177
0.924535
0.943984
1.465384
0.130774
0.347309
0.651538
0.396617
0.350917
-0.403617
-0.191286
0.493979
-0.347145
-0.290185
0.268684
0.214721
0.595635
-0.082780
-0.243066
0.400297
0.165176
0.018231
-0.103270
-0.012727
0.680673
0.403955
-0.267022
0.724368
0.062030
0.571362
0.193327
0.158643
0.038924
0.273486
0.215885
0.112010
0.341101
-0.317476
0.395914
-0.031910
-0.350246
0.160246
0.523832
-0.119057
0.863177
0.287980
-0.214508
1.199153
0.212570
0.839100
-0.024612
-0.453114
0.077191
0.098404
-0.215867
0.191513
0.363028
0.282417
1.124764
0.952921
0.456311
0.661152
0.487479
0.010305
0.761068
0.296201
0.218980
0.069181
0.209670
0.174172
0.737364
0.198598
-0.224793
0.192527
-0.309339
-0.067593
0.228162
0.025773
0.079401
0.621091
0.229610
0.207972
-0.179009
-0.898657
0.129799
0.280464
0.459641
-0.030797
0.486117
-0.590581
-0.276615
0.568342
-0.013504
-0.572740
0.278900
-0.002425
0.309073
0.322719
-0.426603
0.242600
-0.358897
-0.134791
-0.005323
0.353610
-0.586263
0.195740
0.031635
-0.000525
0.343989
-0.172752
-0.453784
0.040357
-0.207155
0.281346
-0.036725
-0.283165
-0.924647
-0.389057
-0.494336
-0.667787
-0.068522
0.623271
-0.115782
-0.080181
-0.614657
0.336491
-0.339962
-0.219679
-0.264262
-0.205744
-0.290983
0.009415
-0.073617
0.048466
0.454509
0.167078
0.408079
-0.549644
0.554854
-0.060327
-0.724829
-0.566643
0.238192
-0.389367
0.534011
0.265843
0.034642
0.445947
0.008291
-0.197278
-0.214050
0.122735
-0.498031
-0.851120
-0.073759
-0.583540
-0.295450
0.276977
0.060247
0.188546
0.161945
-0.037481
0.068847
0.158899
-0.256751
0.115550
-0.459126
-0.073266
0.059033
0.133648
-0.013912
0.146565
0.044500
0.287399
0.090339
0.128337
0.481495
0.291953
0.863428
-0.241007
0.349193
-0.195786
0.336686
0.080392
-0.441064
0.312865
0.746535
-0.806424
-0.084646
-0.113012
-0.205793
-0.112020
-0.171732
0.138453
0.106905
-0.459554
-0.270743
0.786634
-0.092193
-0.377558
-0.140138
-0.019921
0.295247
0.239056
0.257502
-0.143196
0.053741
0.592768
-0.452336
-0.279465
0.402265
0.218416
-0.052221
0.169122
0.423397
0.396065
0.393109
0.027869
-0.434870
-0.332438
0.173545
0.689475
0.619164
0.513374
0.784704
-0.094485
0.165720
0.071628
0.098236
-0.102725
0.079165
-0.295126
-0.070317
0.319180
-0.196295
0.105128
-0.050627
0.508949
0.461780
-0.062716
-0.428195
-0.286696
-0.377593
0.058790
-0.150847
-0.190996
-0.027036
-0.562401
0.046240
-0.340948
0.130057
-0.089589
0.313529
-0.653397
0.047647
0.100868
0.192812
0.131074
0.163916
0.129451
0.359667
-0.034863
0.552197
-0.192330
0.112078
0.281007
0.393289
0.120995
-0.045286
-0.261494
0.134929
0.548760
-0.162964
0.017547
0.378346
0.277524
-0.335087
0.849964
0.202977
0.145525
0.367387
0.503363
-0.228840
0.683544
0.423744
0.747509
-0.061495
0.040950
0.491508
0.353438
0.450108
-0.560816
-0.276454
0.425065
0.105598
0.762702
-0.339144
-0.697419
0.392996
-0.356851
0.332620
-0.023899
-0.510435
0.076782
-0.648004
-0.033113
0.425874
0.053099
0.166645
-0.427718
0.085796
-0.382292
0.340397
0.330233
0.204612
-0.764809
0.886264
-0.445456
-0.489866
0.085529
-0.164610
0.206378
0.302087
0.267444
0.833238
-0.021434
0.322153
0.287135
-0.157579
-0.283355
-0.256669
-0.330013
0.248780
-0.059878
0.107973
0.043449
-0.058109
0.226323
-0.473558
-0.418320
0.189848
-0.453283
-0.168371
0.010242
-0.414395
0.500275
-0.196226
-0.298781
0.296754
0.359252
0.066573
-0.359465
0.122412
-0.241600
-0.244229
0.028377
-0.284917
0.100107
0.809119
0.169837
0.260825
-0.062645
-0.088592
0.341695
0.615847
0.031640
-0.127650
0.167454
-0.403055
-0.395674
0.209097
-0.479004
-0.278258
0.743307
-0.088702
-0.528240
-0.005925
-0.170391
-0.339002
0.153617
-0.176143
-0.367770
-0.255030
-0.341382
-0.556057
0.207051
-0.267113
-0.109140
0.303486
0.402459
-0.786691
-0.216076
0.820277
0.184300
0.144619
0.572002
-0.277974
-0.243643
-0.120137
0.311740
-0.689133
-0.289045
0.178438
0.111504
-0.032161
0.188770
0.403252
0.661811
0.049646
-0.490670
0.240025
0.104125
0.196353
0.048333
-0.281976
-0.331293
0.015623
-0.110891
0.088821
-0.827414
-0.086317
0.187589
0.475030
0.480012
0.247306
0.454905
-0.369316
0.222595
-0.126486
0.057527
0.532489
0.250085
0.114851
0.300114
0.149305
-0.055798
-0.511682
0.726070
-0.440470
-0.113958
0.391385
0.493382
0.082692
0.377947
0.666341
0.582615
1.500000
-0.027151
-0.503300
0.084982
-0.240034
-0.350613
0.053950
0.280698
0.449855
0.288876
-0.277238
-0.310688
-0.127069
0.446591
0.087980
-0.240923
0.172950
0.267108
-0.068406
-0.026152
0.153583
-0.297829
0.258112
0.357043
-0.036543
-0.464179
-0.319481
0.393885
0.187756
0.002843
-0.199707
-0.000248
0.437475
-0.084275
-0.582491
-0.303849
0.213753
0.145090
-0.404306
0.362444
0.160251
0.565983
0.702391
0.062330
0.318221
-0.025938
-0.112859
0.169214
0.478957
-0.215305
-0.268600
-0.032200
-0.002586
0.249057
0.349939
-0.047628
-0.408773
0.409050
0.190281
0.321642
0.590113
0.350611
-0.076102
0.021748
0.741439
0.069427
-0.143540
-0.384864
0.126631
0.174536
0.297950
-0.317621
-0.278064
0.457003
0.447574
0.582129
-0.357312
0.246997
0.292744
0.559834
-0.143175
0.276515
-0.640556
0.427759
0.113440
-0.348727
0.027054
-0.061193
0.380169
0.270691
0.015141
0.197502
-0.693044
0.120515
-0.073866
-0.049007
-0.144382
-0.604895
-0.119149
-0.405898
0.216923
-0.198170
-0.067907
-0.279670
0.271981
-0.029770
0.310681
-0.318811
-0.124388
-0.869829
-0.620638
0.331480
-1.041673
0.037828
0.198649
0.238685
-0.122338
-0.617825
-0.640821
0.155003
-0.152329
0.288582
0.617505
0.296529
0.128387
0.412236
0.020277
0.013995
0.008338
-0.389642
0.076645
0.551664
0.073591
-0.130964
0.416030
0.550533
0.295334
0.156054
0.233408
0.065337
-0.741462
-0.007047
-0.379096
-0.247077
-0.127945
-0.224642
0.008473
-0.147839
-0.363274
-0.013831
0.277198
-0.097100
-0.195790
-0.523337
-0.074381
0.214351
-0.082737
-0.050052
0.106496
-0.156937
0.389071
0.019806
0.127661
-0.428969
-0.369395
-0.391960
0.322218
0.039783
-0.045269
-0.389929
-0.019017
0.156822
0.340543
0.391220
0.364466
0.046098
-0.176977
-0.376273
0.507094
0.077933
-0.512038
0.707677
0.050721
-0.210195
-0.469919
0.155867
-0.695807
0.382190
-0.024779
0.151412
0.284607
-0.147454
0.256992
-0.047727
-0.193965
0.451865
0.150582
-0.738584
0.328974
-0.116210
0.706793
-0.334093
-0.163476
0.071593
0.218742
0.526552
-0.385781
-0.081176
-0.011617
-0.133242
-0.463131
-0.044808
0.284671
-0.158937
-0.703814
0.107075
0.639388
0.637810
0.419118
0.383570
0.519222
0.602703
0.276262
-0.834036
-0.583698
0.031195
-0.456881
-0.252334
-0.209391
0.198486
-0.233075
0.222109
-0.212859
-0.225048
0.126558
0.150510
0.222240
0.488337
-0.212363
-0.315448
-0.493660
0.553768
-0.866096
-0.208653
0.038450
0.580659
-0.392812
0.277960
0.097766
0.478348
-0.162879
0.376089
0.157347
0.326201
0.354214
0.322837
0.610604
0.502768
0.542573
0.057822
0.317278
-0.153579
0.032323
-0.049492
0.335464
0.312208
0.206911
0.442897
0.006293
0.050303
0.182473
0.218158
0.230500
-0.103882
-0.309170
-0.132673
0.347545
0.085952
0.233741
0.634025
0.366642
0.611080
-0.242947
0.187375
0.233803
0.282597
-0.049882
0.179592
-0.980402
0.323977
0.573948
0.227377
-0.075715
-0.010174
-0.165450
0.330208
0.235705
-0.090386
-0.343765
0.377398
-0.583931
-0.127763
-0.217971
0.172182
-0.031383
-0.054990
-0.284563
0.137222
0.388869
0.488789
-1.102192
0.293561
0.682090
-0.065437
-0.034220
-0.066233
-0.073471
-0.378723
0.022626
-0.192195
-0.132930
-0.631167
0.051977
0.305183
-0.234591
-0.370585
0.351161
-0.103680
0.295532
-0.458327
0.159192
0.118350
-0.359414
0.231723
0.263632
-0.747874
-0.462791
-0.210800
-0.129773
0.805564
0.195940
-0.361496
-0.180080
0.223981
0.055412
-0.211223
0.034504
-0.590991
0.628152
-0.189881
-0.003199
-0.101062
-0.568108
-0.027876
0.442818
0.092628
-0.134503
-0.145777
0.594143
-0.006238
-0.468026
0.457349
0.352747
0.451578
0.010146
0.479620
-0.003993
-0.491745
0.363622
0.080117
-0.119603
0.024432
-0.410371
0.200703
-0.655487
-0.423235
0.893002
0.037410
-0.439971
0.298784
0.153372
0.682074
0.463556
-0.586033
0.048798
0.214130
0.338701
0.305300
0.512210
-0.665312
0.463879
-0.141729
0.273220
0.089077
0.436024
0.219196
0.315902
-0.327448
-0.601817
0.599359
0.346347
-0.453753
0.163092
0.215751
-0.407312
0.065327
0.039765
0.317166
0.073512
-0.018162
0.163188
-0.298552
0.422764
0.151436
0.492649
0.277968
0.140887
-0.227522
0.149384
-0.458800
-0.040562
0.026171
-0.220215
-0.088909
