0.079436
0.026122
-0.000698
-0.013599
0.018806
-0.027753
-0.027073
-0.008698
0.019657
0.055400
-0.018729
0.035259
0.024663
-0.099103
0.058485
0.012651
-0.020029
-0.032136
-0.067087
0.031501
0.068020
0.056656
0.000938
0.006193
0.018952
0.054447
0.025374
0.034184
0.002387
0.096395
0.067897
0.056522
0.101653
0.097504
0.176159
0.137042
0.171882
0.148093
0.205926
0.131864
0.164659
0.051165
0.190961
0.180796
0.239546
0.233892
0.189713
0.179911
0.256520
0.230867
0.132299
0.221099
0.150739
0.175176
0.147903
0.152158
0.105861
0.127561
0.134350
0.117951
0.103320
0.150076
0.077116
0.098072
0.096173
0.044988
0.007802
0.127025
0.082849
0.063594
0.088095
0.038909
0.003918
-0.004096
0.050924
0.017717
0.102475
0.067303
0.091009
0.094049
0.032427
-0.058044
0.003102
0.068021
0.101373
0.313244
0.653696
0.821431
1.240091
1.422089
1.500000
1.217631
1.102485
0.642842
0.390068
0.000730
-0.151121
-0.216581
-0.232222
-0.118621
0.022456
-0.070168
0.021169
0.026074
0.118544
0.146703
0.058199
0.128963
0.096467
0.084099
0.120816
0.124988
0.138518
0.120310
0.104794
0.162905
0.144777
0.129396
0.117841
0.064090
0.252924
0.180503
0.215454
0.307537
0.157534
0.233529
0.269949
0.228055
0.361373
0.339779
0.368766
0.416377
0.425812
0.396839
0.475926
0.476918
0.498964
0.447311
0.534450
0.501493
0.596931
0.545378
0.591682
0.559960
0.524176
0.595112
0.594738
0.597555
0.529885
0.623530
0.588191
0.633254
0.533742
0.557795
0.526177
0.506397
0.466659
0.497131
0.444514
0.411487
0.378581
0.386152
0.352444
0.358250
0.281449
0.332262
0.308744
0.249783
0.191709
0.203650
0.179898
0.249604
0.084599
0.183958
0.149711
0.144605
0.159043
0.078831
0.098894
0.037008
0.111343
0.054564
0.104797
0.110793
0.067691
0.041352
0.135795
0.057231
0.056744
0.087625
0.132699
0.053329
0.107084
0.112726
0.094722
0.123168
0.156197
0.054268
0.088490
0.040487
0.105873
0.019249
0.112318
0.090992
0.101227
0.193031
0.047883
0.138408
0.059893
0.011042
0.017446
0.132781
0.060264
0.023694
0.086743
0.072262
0.077360
0.063760
0.085875
0.042952
0.117866
0.123103
0.060618
0.120747
0.044305
0.170027
0.149282
0.111941
0.194113
0.095890
0.109108
0.122098
0.089227
0.093103
0.012101
0.060234
0.053847
0.111932
0.094903
0.056892
0.139854
0.085468
0.099224
0.081041
0.124135
0.143015
0.055613
0.123959
0.156803
0.105559
0.155146
0.057961
0.135010
0.186802
0.193096
0.191781
0.229663
0.169775
0.115146
0.199690
0.194683
0.145361
0.154874
0.280554
0.254330
0.252014
0.171394
0.265938
0.298565
0.256559
0.203250
0.234955
0.247636
0.216023
0.188226
0.252135
0.175119
0.275192
0.150600
0.170397
0.048892
0.204544
0.142015
0.133774
0.116941
0.117917
0.058145
0.059289
0.116135
-0.004662
0.037033
0.110667
0.074723
0.122504
0.041407
0.166551
0.097128
0.033759
0.099167
-0.010979
0.022440
0.097729
0.101322
0.049129
-0.001783
-0.016313
-0.030593
-0.032807
0.187275
0.254815
0.617327
0.969379
1.210698
1.465805
1.413225
1.273078
1.015454
0.594264
0.280072
-0.087199
-0.209109
-0.245101
-0.132388
-0.141946
-0.067047
0.018912
0.029586
0.101015
0.043635
0.018320
0.032353
0.145152
0.084237
0.065485
0.088544
0.071534
0.071868
0.140808
0.092297
0.153700
0.145303
0.150550
0.067970
0.083355
0.178145
0.236913
0.221497
0.273074
0.224905
0.153123
0.256556
0.307778
0.303472
0.375549
0.322261
0.301412
0.401246
0.385777
0.375620
0.507720
0.438707
0.497661
0.521773
0.458440
0.503821
0.551719
0.504324
0.600574
0.598117
0.534852
0.560605
0.536402
0.545703
0.558791
0.419433
0.586631
0.459764
0.461651
0.460049
0.459726
0.473896
0.390049
0.363559
0.334202
0.404932
0.288164
0.241770
0.227110
0.205114
0.308987
0.156838
0.251131
0.243185
0.139656
0.185063
0.124750
0.101386
0.072980
0.109299
0.167722
0.009966
-0.016575
0.064047
0.008555
-0.006161
0.075242
0.058736
0.068901
-0.007623
0.052281
0.021661
0.019417
0.029680
-0.035898
0.024553
0.060831
0.042959
0.028202
-0.102720
-0.026103
0.022950
0.043798
0.021373
-0.060112
0.002992
0.009501
0.016373
0.046084
0.013580
-0.002821
-0.035986
0.012615
0.005140
-0.063482
0.037215
-0.035437
0.018828
-0.090429
0.047705
0.017440
0.026918
-0.017739
-0.052994
0.004310
0.017455
-0.041325
-0.039537
0.043997
0.008101
0.012376
-0.054137
-0.061523
0.002377
-0.019600
0.068965
0.003783
-0.054554
0.010458
-0.000337
-0.040760
0.023760
-0.020630
-0.110060
-0.012754
-0.005369
-0.003692
0.034357
-0.021733
0.000708
-0.002591
-0.036567
0.010805
0.055420
0.010721
0.005823
-0.009487
0.097734
-0.012717
0.007610
0.064358
0.014909
0.031686
0.072251
0.120796
0.138804
0.046010
0.093229
0.090425
0.165746
0.063278
0.113861
0.186111
0.213173
0.097646
0.170806
0.161767
0.156667
0.054955
0.139800
0.058807
0.099659
0.100373
0.102655
0.101226
0.083740
-0.020108
-0.003313
-0.016236
-0.040325
0.006510
-0.025432
-0.008248
-0.010169
-0.064159
-0.003929
-0.047379
-0.056657
-0.068513
0.011976
-0.054746
-0.013447
-0.009881
-0.059428
-0.080059
-0.073015
-0.032788
-0.102120
-0.049427
-0.017538
-0.024708
-0.035236
-0.096647
0.069612
0.328526
0.554407
0.894054
1.208714
1.367761
1.333709
1.184782
0.841954
0.485710
0.130619
-0.115452
-0.319190
-0.279695
-0.286337
-0.211267
-0.157433
-0.086577
-0.005652
-0.130436
-0.099981
0.019332
0.035714
-0.056219
-0.059032
-0.050883
0.018280
-0.014819
-0.027193
0.009725
-0.005874
-0.033806
0.097908
0.027076
0.130061
0.130024
0.090511
0.129435
0.097979
0.117409
0.159959
0.239970
0.219191
0.248258
0.202664
0.278826
0.291806
0.308029
0.320416
0.317885
0.345445
0.384494
0.450784
0.360717
0.369682
0.416578
0.455625
0.441055
0.476932
0.457109
0.442438
0.503664
0.446036
0.450138
0.434269
0.417097
0.429040
0.286450
0.379950
0.441982
0.361826
0.392629
0.332739
0.360789
0.287717
0.381938
0.324924
0.241729
0.279206
0.248037
0.223337
0.160510
0.206822
0.150058
0.097005
0.135847
0.202740
0.117211
0.064782
0.083648
0.018208
0.029441
0.024609
0.078397
-0.064963
0.027054
0.059681
-0.039582
0.002030
0.029506
-0.035381
-0.019803
-0.064818
0.043720
0.013677
-0.011522
0.095353
-0.072323
-0.001032
-0.058768
-0.042974
0.093142
0.100148
0.015244
-0.016052
-0.024607
-0.061813
0.000542
-0.006634
-0.130318
0.007209
-0.112147
-0.034903
-0.032661
-0.073090
-0.081969
-0.057399
-0.015613
-0.015661
-0.045735
-0.020669
-0.012773
-0.093631
0.007130
-0.006237
0.055286
-0.023588
-0.043117
0.026543
-0.056367
-0.032655
-0.042468
0.036030
-0.067901
0.081766
0.028240
0.018912
0.016161
0.010909
-0.050154
-0.045942
-0.016029
-0.013990
-0.059867
-0.053545
0.027036
-0.059731
-0.014303
0.019599
-0.028844
-0.031502
-0.043394
0.004397
0.008411
0.058925
0.004708
0.061841
0.039677
0.048984
0.158098
-0.017139
0.070772
0.033747
0.104839
0.120023
0.147563
0.156573
0.120843
0.157594
0.151455
0.176815
0.171594
0.163333
0.171276
0.185540
0.203198
0.156869
0.194826
0.217006
0.131420
0.136786
0.154374
0.126288
0.117884
0.174691
0.121866
0.103588
0.054612
0.023609
0.133736
0.041994
0.024394
0.122603
-0.022233
0.017609
0.056905
0.072908
0.052230
-0.014615
0.057786
-0.042601
-0.016752
0.015928
0.016698
0.033635
0.041881
0.057859
0.055065
0.051833
-0.017484
-0.007545
-0.049437
-0.029431
-0.012396
0.116002
0.345522
0.675913
1.017736
1.296928
1.377276
1.328873
1.198012
0.840616
0.451082
0.156175
-0.136479
-0.139262
-0.255701
-0.248117
-0.122178
-0.028889
-0.056189
0.076865
0.050708
0.108368
0.057137
-0.039942
0.049316
-0.037286
0.027915
0.093549
0.097257
0.061461
0.089656
0.069283
0.107146
0.140885
0.137230
0.164064
0.167479
0.159443
0.111515
0.204006
0.153422
0.191953
0.276361
0.283512
0.288980
0.439605
0.370504
0.377727
0.356561
0.412119
0.444826
0.504989
0.485965
0.423223
0.556980
0.604087
0.497469
0.547887
0.527115
0.659064
0.503110
0.515045
0.520055
0.594072
0.575732
0.568909
0.574430
0.494306
0.492438
0.566050
0.505097
0.459513
0.465842
0.399659
0.432310
0.462712
0.475744
0.466028
0.403488
0.335384
0.252568
0.309937
0.310090
0.233595
0.274215
0.204766
0.296595
0.247812
0.195541
0.251783
0.127211
0.158001
0.125037
0.187604
0.135726
0.089635
0.034404
0.130190
0.091475
0.091177
0.033464
0.052206
0.059802
0.050425
0.092057
0.117168
0.042634
0.038920
0.066760
0.077687
0.144599
0.032703
0.039238
0.157536
0.127377
0.101014
0.082121
0.076319
0.128789
0.068940
0.143909
0.135311
0.031746
0.134546
0.082508
0.079629
0.038716
0.017482
0.133127
0.077193
0.086633
0.100136
0.090673
0.058289
0.097355
0.113468
0.066032
0.136263
0.118499
0.152400
0.154280
0.010442
0.139038
0.049529
0.092545
0.169282
0.048668
0.067230
0.062519
0.021700
0.070206
0.045509
0.127080
0.093809
0.122535
0.023565
0.075607
0.042828
0.111239
0.105727
0.126575
-0.061446
0.102093
0.095560
0.121060
0.071516
0.111898
0.156917
0.152580
0.053334
0.167737
0.140760
0.114115
0.226822
0.147469
0.214524
0.085954
0.253123
0.289173
0.194223
0.224610
0.312999
0.266512
0.272183
0.205020
0.216866
0.196837
0.279366
0.232424
0.276460
0.308692
0.241049
0.258248
0.231066
0.242193
0.227278
0.139512
0.176956
0.230759
0.121966
0.096189
0.150972
0.160798
0.049162
0.135323
0.122544
0.157825
0.080156
0.150698
0.083315
0.083242
0.150840
0.104689
0.108076
0.071426
0.150110
0.022308
0.047581
0.067599
0.135403
0.123383
0.073672
0.106154
0.046351
0.076082
0.296532
0.407110
0.740813
1.156969
1.296391
1.484045
1.412543
1.215953
0.896830
0.537047
0.153336
-0.081861
-0.168453
-0.193836
-0.074447
-0.032454
0.040991
-0.002928
0.058954
0.153656
0.061837
0.157231
0.161026
0.017206
0.044149
0.070057
0.057472
0.094039
0.219774
0.171584
0.053884
0.205041
0.159381
0.172845
0.098904
0.101375
0.126778
0.285134
0.209869
0.236515
0.219462
0.276024
0.257630
0.401424
0.229521
0.369797
0.445399
0.523680
0.377265
0.493724
0.508637
0.543457
0.561492
0.519227
0.447672
0.535671
0.505564
0.549138
0.548158
0.522461
0.615117
0.584307
0.603455
0.566833
0.608801
0.581475
0.543948
0.618137
0.553462
0.552549
0.427353
0.459730
0.388273
0.419244
0.499095
0.370129
0.412695
0.299338
0.391779
0.346450
0.396245
0.234703
0.268791
0.255431
0.237782
0.256807
0.155189
0.210530
0.231967
0.196530
0.073211
0.113024
0.084614
0.113331
0.088591
0.143879
0.108409
0.058633
0.054159
0.059884
0.089637
-0.032073
0.058740
0.082456
0.111614
0.114752
0.083602
0.061828
0.125482
0.072207
0.035699
0.030529
0.039205
0.045107
0.007060
0.079106
0.052822
-0.044685
0.021792
0.058333
0.089958
0.002271
-0.016737
0.038324
0.052959
0.021962
0.076077
0.023530
0.060435
0.033259
0.002516
0.033748
-0.018836
-0.042712
0.018190
0.076678
0.013828
0.012859
-0.002433
0.087509
-0.047674
0.009682
0.021818
-0.030633
0.007525
0.022283
0.029427
-0.053112
0.056154
0.001394
0.009557
-0.010976
-0.001948
-0.041032
0.033118
0.028464
0.032000
0.056260
-0.028427
0.050187
0.015502
0.056436
-0.003338
0.024850
-0.046093
0.059978
0.062440
0.015309
0.053728
-0.015159
0.057462
0.123528
0.093676
0.069486
0.129550
0.051799
0.153955
0.096860
0.157831
0.155274
0.208124
0.156402
0.174644
0.173228
0.167886
0.233929
0.109158
0.136304
0.162433
0.094968
0.150612
0.050711
0.101415
0.086406
0.082587
0.062670
0.032948
0.044522
0.022664
0.073533
0.008464
-0.050488
0.065486
-0.024144
-0.042008
0.104174
0.020272
-0.048993
0.004537
0.023035
-0.036712
-0.012939
0.000155
0.056511
0.018003
-0.145542
-0.057020
-0.027234
-0.019497
-0.008194
-0.102121
-0.149333
-0.151123
-0.008063
0.180623
0.339386
0.627536
0.985055
1.225873
1.340914
1.319251
1.080144
0.694699
0.368676
0.008385
-0.151900
-0.307001
-0.417216
-0.222018
-0.157181
-0.137032
-0.095747
-0.139892
-0.016771
-0.064901
0.023454
-0.089779
-0.046247
-0.069523
0.014840
0.071898
-0.008863
-0.033077
-0.045470
-0.005626
0.007483
0.098565
0.045130
0.058625
0.056624
0.097813
0.042714
0.034697
0.097637
0.251044
0.126707
0.179552
0.193282
0.229461
0.294574
0.268907
0.358219
0.243484
0.335775
0.356373
0.387864
0.350594
0.298893
0.420113
0.399429
0.466230
0.349137
0.431624
0.475667
0.447444
0.526996
0.335949
0.463091
0.437183
0.424469
0.395269
0.378583
0.316797
0.386693
0.348950
0.333496
0.288535
0.316646
0.211268
0.332465
0.247819
0.204636
0.114551
0.183374
0.161886
0.075417
0.169679
0.168295
0.151111
0.100050
0.087316
0.090822
0.115388
0.106800
0.024657
-0.053708
-0.083538
-0.030445
0.017962
0.006306
-0.097660
-0.021936
-0.052554
-0.062853
-0.080074
-0.033086
-0.120422
-0.135762
-0.050314
-0.064638
-0.116541
-0.104844
-0.032817
-0.096441
-0.057116
-0.093516
-0.109022
-0.072263
-0.063236
-0.060534
-0.050900
-0.101269
-0.046386
-0.101485
0.022634
-0.077711
-0.050184
-0.052498
-0.100470
-0.065879
-0.093711
-0.068727
-0.101702
-0.107309
-0.074643
-0.109729
-0.089486
-0.111921
-0.068595
-0.113727
-0.045284
-0.132593
-0.118056
-0.098812
-0.050174
-0.158981
-0.103708
-0.075599
-0.025204
-0.062186
-0.049735
-0.060549
-0.056278
-0.057306
-0.055993
-0.145266
-0.068708
-0.050477
-0.050754
-0.089653
-0.128751
-0.035694
-0.015106
-0.098911
-0.086977
-0.053635
-0.026379
-0.027582
0.035706
-0.008863
-0.061840
0.042460
-0.084011
0.009126
0.023460
-0.034822
-0.032604
-0.026307
-0.017729
0.089333
0.022313
0.024526
0.070221
0.065541
0.082592
0.160760
0.124480
0.151639
0.163877
0.128645
0.144664
0.060183
0.145321
0.077274
0.057761
0.043631
0.011859
0.080101
0.077505
0.064749
0.033433
0.021391
0.030545
-0.073313
-0.003719
-0.012644
-0.027161
-0.044101
-0.021086
-0.016382
-0.145386
-0.102803
-0.019584
-0.104220
-0.094784
-0.000391
-0.009368
-0.068787
-0.076612
-0.044817
-0.042933
-0.050003
-0.043270
-0.100306
-0.115948
-0.157851
-0.087821
0.035099
0.098886
0.390574
0.677662
1.086791
1.263749
1.323166
1.247242
0.982072
0.626774
0.304158
0.019242
-0.222566
-0.321191
-0.280307
-0.313655
-0.187175
-0.221944
-0.077484
-0.090013
-0.053093
-0.109360
-0.045809
0.011588
-0.004961
0.005179
-0.002134
-0.066870
-0.097524
-0.105452
0.065661
0.029519
0.018133
0.096421
0.045372
0.068410
0.054063
0.158185
0.101496
0.065322
0.051073
0.123222
0.166174
0.229546
0.174579
0.205055
0.305376
0.333002
0.254150
0.263446
0.359937
0.352756
0.443081
0.437269
0.346472
0.401833
0.507343
0.457687
0.504622
0.468559
0.521452
0.467289
0.541241
0.426066
0.492585
0.527958
0.516060
0.515879
0.431632
0.366666
0.518825
0.417824
0.302167
0.364059
0.391162
0.306340
0.333563
0.248157
0.271563
0.194001
0.287672
0.189767
0.132623
0.192475
0.118792
0.162833
0.105176
0.168705
0.083883
0.072819
0.117816
0.000160
0.037495
0.030187
0.049076
0.043023
-0.037023
-0.000247
0.028561
0.040185
0.003060
0.049474
0.012838
0.017828
-0.014705
0.012671
0.005772
-0.036276
-0.019884
0.006301
0.003396
-0.015918
-0.066033
-0.058033
0.064542
0.043874
0.094974
-0.044805
0.013859
-0.038130
-0.013198
-0.055671
-0.044463
-0.005225
-0.011750
-0.027719
0.000618
0.013159
0.016438
-0.003022
-0.030144
0.066344
-0.050974
-0.008852
0.024187
0.094070
-0.057972
0.024036
-0.029440
0.025921
-0.047224
0.090742
0.046910
-0.023625
0.107901
-0.035879
0.006601
0.027752
-0.019905
0.049021
-0.044626
0.021726
0.063820
0.060723
0.008211
-0.036456
0.018034
0.067077
-0.007633
0.111699
0.002922
0.087713
0.080149
0.012881
-0.057697
0.081048
0.070537
0.011715
-0.044049
0.046707
0.062570
0.119528
0.076659
0.068720
0.043548
0.201071
0.199631
0.181574
0.158107
0.195356
0.189418
0.187736
0.064000
0.259692
0.188226
0.276789
0.214051
0.249323
0.241196
0.211113
0.211210
0.233020
0.223914
0.110878
0.201986
0.124831
0.109818
0.078272
0.103781
0.072132
0.065163
0.039603
-0.033141
0.038367
-0.017832
0.065095
0.070556
0.042417
0.053146
0.030079
0.125805
0.039004
0.029270
0.055359
0.029980
0.008789
0.068651
0.065375
0.002287
0.001094
0.093112
0.103521
0.031279
0.027905
0.105548
0.219198
0.516019
0.823957
1.080665
1.434108
1.395629
1.265301
1.111381
0.743183
0.254652
0.040303
-0.193045
-0.309216
-0.274632
-0.078963
-0.028416
-0.057006
0.050696
0.066618
0.020260
0.045745
0.055282
0.063706
0.022558
0.048599
0.078363
0.014315
0.066703
0.088379
0.098619
0.134838
0.105957
0.186920
0.201902
0.178919
0.170187
0.177664
0.168599
0.219628
0.217296
0.275230
0.252482
0.311349
0.207966
0.312291
0.351265
0.342580
0.353407
0.371933
0.416195
0.486817
0.498173
0.565875
0.521708
0.511487
0.471269
0.533719
0.499200
0.534354
0.623729
0.605644
0.592094
0.492560
0.612493
0.499400
0.651711
0.537044
0.534596
0.483794
0.467186
0.482336
0.565286
0.476270
0.425762
0.455405
0.284343
0.380941
0.338196
0.351749
0.336664
0.306195
0.318454
0.244733
0.254612
0.166789
0.213421
0.070058
0.186291
0.055970
0.204764
0.189339
0.115990
0.089415
0.076522
0.091369
0.008653
0.064319
0.076877
0.058184
0.109289
-0.008042
0.052129
-0.001492
0.032527
0.129101
0.061734
0.016331
0.111847
0.031229
0.076165
0.039953
0.074754
-0.081321
0.075675
0.100196
0.070069
0.021710
0.071146
0.056752
0.087359
0.032027
0.025201
0.005546
0.070167
0.077905
-0.030588
0.058285
0.080346
-0.001182
0.033524
0.073149
0.053350
0.070942
0.026718
-0.046105
0.054682
0.022643
0.059512
0.009894
0.042036
0.016161
0.116119
0.067444
0.024663
-0.045722
0.063100
0.048820
-0.015293
-0.029203
0.020111
-0.013209
0.071060
0.024160
0.053162
0.054132
-0.041672
0.024814
0.058448
-0.058069
-0.022162
0.023694
0.080324
-0.011416
0.021118
0.049029
0.044085
0.072076
0.006334
0.052720
0.051676
0.059534
0.004992
0.052233
0.071536
0.062148
0.117440
0.154347
0.168214
0.101974
0.239879
0.197854
0.172904
0.112506
0.212849
0.223639
0.184055
0.184197
0.196195
0.210865
0.228047
0.101936
0.051974
0.128035
0.125740
0.094169
0.094847
0.104238
0.091860
0.109319
0.078530
0.026564
0.049984
0.000040
0.053099
0.052880
-0.013274
0.039467
0.033958
-0.014541
0.014331
-0.065023
0.020182
0.039902
-0.034135
0.121187
-0.019528
-0.023077
0.042658
-0.027216
-0.018114
-0.006532
-0.098895
-0.037512
0.046377
0.245634
0.404496
0.804652
1.084424
1.288224
1.388566
1.247499
0.930666
0.639484
0.294472
-0.082985
-0.313992
-0.369927
-0.249776
-0.209181
-0.207115
-0.077502
-0.018574
-0.039946
-0.114804
0.003280
0.026547
0.004600
0.020095
-0.061237
0.031206
-0.063382
0.071897
0.013261
-0.024589
0.061747
0.014483
0.025284
0.082699
0.069362
0.049817
0.128661
0.083051
0.075885
0.215895
0.136682
0.148678
0.167557
0.258288
0.220583
0.295611
0.272558
0.314976
0.367382
0.324140
0.361900
0.420763
0.400958
0.449504
0.417514
0.503287
0.509429
0.429799
0.477382
0.418491
0.454266
0.444129
0.457706
0.445818
0.420040
0.471029
0.478737
0.525567
0.332913
0.430236
0.336353
0.318093
0.405531
0.250502
0.187172
0.265822
0.210632
0.160032
0.134543
0.241480
0.202601
0.063109
0.186892
0.097904
0.073306
0.082189
0.038118
0.002875
-0.008371
0.072413
0.022480
-0.035163
0.028200
-0.019342
-0.009933
-0.057539
0.028113
0.001508
-0.007123
-0.084258
-0.033154
-0.095301
-0.060235
-0.031571
-0.056227
-0.014365
-0.129921
-0.180147
-0.037003
-0.037204
-0.060343
-0.158562
-0.077815
-0.068721
-0.088087
-0.041612
-0.056764
-0.177816
0.011633
-0.063582
-0.048648
-0.060314
-0.138670
-0.106225
-0.140670
-0.111356
-0.059876
-0.111733
-0.046668
-0.093535
-0.111001
-0.095493
-0.069370
-0.097830
-0.110050
-0.117586
-0.141202
-0.116011
-0.080595
-0.069904
-0.082128
-0.096023
-0.171990
-0.147146
-0.031636
-0.022624
-0.151833
-0.063292
-0.085707
-0.154864
-0.113023
-0.143782
-0.054458
-0.089038
-0.158972
-0.121717
-0.099257
-0.108116
-0.066226
-0.037829
-0.061274
-0.041567
-0.034062
-0.073393
-0.009221
-0.008768
-0.081278
-0.048441
-0.044382
-0.083308
-0.066245
0.009196
-0.069150
0.031944
0.016357
-0.010631
0.110072
0.096106
0.091119
0.095022
-0.006845
0.029030
0.047098
0.063514
0.033117
-0.005613
0.046222
0.085587
0.134823
0.066411
0.054426
0.052401
-0.023898
0.011594
-0.027682
0.001721
-0.040120
-0.082094
-0.009709
-0.030359
-0.063865
-0.013385
-0.063996
-0.087169
-0.093769
-0.114090
-0.071963
-0.029477
-0.130810
0.020254
-0.074780
-0.075379
-0.122200
-0.119487
-0.183881
-0.172007
-0.131879
-0.141174
-0.113794
-0.140834
-0.063726
-0.125041
-0.157300
0.012956
0.176489
0.458564
0.745677
1.125355
1.272317
1.285128
1.049272
0.913414
0.443447
0.152715
-0.201381
-0.300169
-0.350920
-0.301032
-0.325126
-0.110389
-0.126900
-0.097591
-0.042143
-0.129405
-0.107206
-0.040390
-0.134646
-0.097616
-0.079035
-0.009096
0.021688
-0.033859
-0.026723
-0.145542
0.036510
-0.074989
-0.036519
0.080078
0.059948
0.111893
-0.016396
0.043503
0.180367
0.162524
0.167015
0.167475
0.199320
0.258943
0.245370
0.233677
0.215286
0.268923
0.338730
0.263203
0.277167
0.355385
0.350907
0.274972
0.413633
0.458036
0.391583
0.342634
0.412095
0.499347
0.445018
0.405249
0.317089
0.448713
0.437051
0.332658
0.364875
0.470994
0.463171
0.382250
0.516943
0.368549
0.351440
0.270371
0.293901
0.254780
0.156840
0.279103
0.216188
0.124936
0.179891
0.071185
0.142454
0.065195
0.171490
0.030685
0.078895
-0.016448
0.072045
0.039113
-0.007405
-0.015935
0.021044
-0.114751
-0.047829
0.062775
-0.024223
-0.017086
-0.036591
-0.067746
-0.042781
0.013521
-0.050216
-0.043156
-0.016563
-0.031444
-0.040967
-0.086075
-0.100102
-0.073535
-0.101835
-0.080516
0.056562
0.024360
0.055003
-0.031715
-0.101144
-0.081233
-0.043023
-0.060506
-0.039098
-0.071705
-0.008186
0.077917
-0.089800
-0.002345
-0.096680
-0.019969
-0.015422
-0.131505
0.018668
0.030886
-0.019906
0.107708
-0.007539
0.070319
-0.056787
-0.087800
-0.065315
0.008493
-0.054243
0.007938
-0.021124
-0.009006
0.032807
-0.099911
-0.016354
-0.013178
-0.031239
-0.009718
-0.059018
-0.047911
-0.020805
0.014596
-0.111244
-0.054807
0.003163
-0.016596
-0.050357
-0.008657
-0.069655
-0.042439
-0.012145
0.043076
-0.005457
0.084418
0.021237
0.021876
0.088710
0.048162
0.010735
0.016929
0.035822
0.101223
0.143280
0.135426
0.146836
0.191327
0.199102
0.201244
0.088017
0.163533
0.099166
0.233333
0.149417
0.133011
0.066323
0.230112
0.145503
0.224783
0.109709
0.209387
0.126702
0.144303
0.024077
0.116248
0.131263
0.055973
0.097668
0.060435
0.027863
-0.018698
0.114273
0.035710
0.039227
0.082276
0.060116
0.014709
-0.045599
-0.059028
0.025135
-0.040330
-0.016339
-0.017506
0.003224
0.019847
-0.038553
0.101012
0.103032
-0.000607
-0.122916
-0.030760
0.022115
0.093911
0.351500
0.540398
1.024352
1.244601
1.387220
1.464403
1.243552
0.896476
0.546355
0.205395
-0.026367
-0.250778
-0.174635
-0.260477
-0.140595
-0.159528
-0.023949
-0.001611
0.063324
0.110890
0.098688
0.010068
0.005179
0.038258
0.113246
0.040629
0.087919
0.012886
0.054965
0.167657
0.118457
0.125008
0.116069
0.166013
0.147294
0.137141
0.212306
0.152754
0.234067
0.216997
0.195305
0.353564
0.273997
0.268611
0.317951
0.364239
0.320728
0.339058
0.340570
0.487308
0.431336
0.512682
0.518284
0.479684
0.444613
0.534441
0.555899
0.498995
0.577884
0.569823
0.549941
0.582179
0.602721
0.534247
0.654186
0.537425
0.539033
0.491917
0.580161
0.395346
0.495806
0.404119
0.462595
0.438364
0.313850
0.391324
0.341567
0.334968
0.195100
0.291572
0.314246
0.304820
0.177796
0.248208
0.249880
0.278614
0.205811
0.286859
0.180967
0.213079
0.137110
0.145493
0.134035
0.110277
0.143740
0.092923
0.130650
0.091338
0.139922
0.087825
0.017890
0.096555
0.034864
0.068359
0.105782
0.091966
0.075350
-0.023996
-0.012644
0.067633
0.049636
0.086598
0.078127
0.010975
0.022273
-0.000283
0.106448
0.062201
0.119095
0.079388
0.017763
0.071583
0.136108
0.044838
0.093244
0.069748
0.005785
0.064343
-0.010692
0.096991
0.127276
-0.015954
0.059161
0.036081
0.129658
0.096832
0.099158
0.043786
0.019923
0.151211
0.099575
0.029287
0.092610
0.124140
0.046756
0.018826
0.078657
0.072775
-0.023428
0.002786
0.052533
0.030710
0.044402
0.118409
0.065093
-0.004931
0.077411
0.067832
0.125647
0.083578
0.115376
0.065050
0.127850
0.152572
0.045022
0.065869
0.096393
0.095482
0.136176
0.178580
0.109968
0.160502
0.165576
0.211749
0.186615
0.244140
