-0.083894
0.009365
0.011029
-0.036655
0.007545
-0.021945
0.040397
-0.053072
0.023206
0.038140
-0.024967
-0.090399
-0.001247
0.019607
-0.007875
0.073359
0.000731
0.054186
0.132135
0.029122
0.049217
-0.016658
0.068730
0.027319
0.085868
0.043022
0.035168
0.062054
0.027028
0.046730
0.067966
0.087386
0.069896
0.089933
0.156783
0.180776
0.235672
0.162168
0.249373
0.141458
0.184498
0.181751
0.165120
0.227768
0.307735
0.256707
0.212159
0.259172
0.186584
0.150288
0.178926
0.182754
0.154896
0.089574
0.157894
0.097352
0.081154
0.143920
0.122495
0.091652
0.089794
0.061355
0.118231
0.123139
0.105153
-0.005910
0.045590
0.066721
0.072743
0.053200
0.051213
0.060480
0.061082
-0.014880
0.089780
0.018518
0.151348
0.038605
-0.025451
-0.020271
0.056145
-0.000664
0.092363
0.041370
0.076592
0.261560
0.546361
0.904128
1.217845
1.455799
1.496656
1.306567
1.041593
0.682888
0.302439
-0.003655
-0.151453
-0.259175
-0.167226
-0.142391
-0.026110
0.031302
-0.017936
0.115688
0.055902
0.028088
0.093706
0.132083
0.066621
0.140966
0.084001
0.056484
0.117249
0.146578
0.122856
0.192473
0.141606
0.176199
0.248905
0.171098
0.219230
0.314165
0.210273
0.189333
0.283750
0.318289
0.364475
0.362712
0.283131
0.355672
0.414415
0.430745
0.483145
0.404179
0.479685
0.543743
0.553817
0.473797
0.534034
0.594860
0.571981
0.575281
0.543989
0.524280
0.502363
0.634802
0.598960
0.538900
0.605361
0.610752
0.599951
0.573978
0.538946
0.493886
0.459966
0.474054
0.476882
0.479895
0.328322
0.400378
0.340063
0.385625
0.365458
0.347186
0.332977
0.246744
0.285734
0.235024
0.280170
0.270281
0.239793
0.209371
0.248627
0.182926
0.265506
0.105940
0.128645
0.079450
0.146962
0.135567
0.057365
0.128470
0.126778
0.134208
0.045598
0.110734
0.015811
0.157159
0.009132
0.090292
0.124203
0.016098
0.124295
0.102897
0.125826
0.011829
0.098357
0.143263
0.088915
0.029125
0.153191
0.112745
0.121694
0.001390
0.057011
0.037050
0.050653
0.108538
0.127328
0.123866
0.104590
0.091250
0.087294
0.135419
0.067583
0.060646
0.075216
0.053947
0.057316
0.036267
0.049946
0.062239
0.049116
0.045848
0.075175
0.084537
0.057166
0.140525
0.109282
0.013287
0.072552
0.051800
0.117777
0.053012
0.035526
0.088177
0.111817
0.065259
0.152536
0.147778
0.044870
0.119047
0.013197
0.085069
0.136141
0.072217
0.062817
0.147255
0.049857
0.106610
0.135652
0.125582
0.058209
0.159539
0.084255
0.152199
0.171358
0.081650
0.114907
0.187862
0.219647
0.277515
0.280960
0.158356
0.238740
0.314735
0.265089
0.230108
0.251305
0.280975
0.231025
0.251347
0.262812
0.262182
0.228263
0.239510
0.200042
0.235506
0.200759
0.179258
0.167162
0.163497
0.117465
0.134416
0.176252
0.126356
0.083414
-0.056009
0.105077
0.071955
0.099626
0.133890
0.035741
0.162267
0.080427
0.072886
0.069070
-0.001671
0.015335
0.118038
0.058160
0.030337
0.051114
0.120476
-0.015720
-0.014025
0.078832
0.025406
0.145366
0.297619
0.542770
1.063096
1.273092
1.404276
1.491086
1.219871
0.941927
0.630130
0.261110
0.019029
-0.195517
-0.163981
-0.262929
-0.082294
-0.067025
-0.062742
0.007432
0.094752
0.112179
0.073521
0.094085
0.084165
0.163916
0.072995
0.070327
0.054126
0.069519
0.070214
0.128238
0.170848
0.184972
0.097947
0.155807
0.134769
0.218217
0.131523
0.134978
0.192223
0.169227
0.222747
0.334675
0.286203
0.231305
0.357092
0.382762
0.498778
0.388047
0.457671
0.408435
0.410647
0.408493
0.496743
0.516952
0.560157
0.553776
0.568106
0.606559
0.540425
0.571770
0.546739
0.479034
0.471520
0.566544
0.463452
0.455627
0.478692
0.407271
0.442416
0.431399
0.403785
0.340365
0.435587
0.396655
0.355595
0.372848
0.321366
0.205900
0.212631
0.329355
0.336436
0.315267
0.202142
0.203263
0.149889
0.189202
0.141682
0.132264
0.077480
0.111645
0.075779
0.089344
0.002862
-0.006469
0.070145
0.017534
0.067386
0.076616
0.033462
0.020257
0.023275
0.090127
-0.015236
0.002795
0.017269
-0.000369
0.070720
0.021187
-0.035202
-0.053733
-0.000659
-0.000344
-0.019929
-0.016709
-0.033399
0.059412
-0.048548
0.009846
0.081193
0.045830
-0.017441
-0.025406
-0.001605
0.120472
0.056802
-0.036582
-0.055777
-0.006523
-0.042289
-0.060719
0.086186
-0.062791
0.044374
0.005824
-0.034835
-0.054975
0.003225
-0.032672
-0.039924
-0.087498
-0.062857
-0.046634
0.010786
-0.082078
-0.080672
-0.008168
-0.040658
-0.030412
-0.070910
0.004743
0.004254
-0.010991
0.031502
-0.013047
-0.003098
-0.052836
-0.053342
-0.012674
-0.002976
-0.098687
-0.061898
-0.041736
-0.034772
0.000641
-0.088470
0.006701
0.062931
0.072811
0.049060
0.107702
0.082239
-0.013755
0.059256
0.105346
0.010754
0.127438
0.064771
0.185634
0.187983
0.087571
0.041021
0.113098
0.238991
0.164279
0.155382
0.207193
0.110536
0.176712
0.057537
0.219832
0.088855
0.180898
0.050206
-0.026315
0.112424
-0.000207
0.031848
0.068000
0.092896
-0.008198
0.032073
0.059251
0.090290
-0.063152
-0.028740
-0.083653
-0.020343
-0.038734
-0.039658
-0.030712
-0.071178
-0.025928
-0.034657
-0.112956
-0.084468
-0.095765
-0.036622
-0.043697
0.027434
-0.048667
-0.083924
-0.077847
-0.042392
0.156875
0.283127
0.541042
0.863663
1.182840
1.390016
1.311248
1.190845
0.837749
0.480713
0.176830
-0.079947
-0.396367
-0.306681
-0.193201
-0.183871
-0.160872
-0.032708
-0.006776
-0.099340
0.029369
-0.080657
0.009467
-0.074364
-0.009117
-0.024866
-0.002428
0.002384
0.067028
0.007853
0.007904
0.009977
0.012959
0.047938
0.040002
0.054583
0.085987
0.102248
0.183338
0.110181
0.197719
0.174166
0.140542
0.171841
0.300182
0.345415
0.241524
0.334912
0.218855
0.358585
0.339443
0.327947
0.357766
0.366782
0.346573
0.396049
0.415019
0.416252
0.433509
0.448068
0.399064
0.407005
0.486179
0.410792
0.473920
0.450538
0.471679
0.472821
0.439601
0.445981
0.408347
0.358243
0.300260
0.349091
0.272009
0.317552
0.283298
0.178611
0.262095
0.187130
0.209523
0.171066
0.192112
0.159212
0.143158
0.053967
0.101976
0.023413
0.042802
-0.089357
0.016151
0.065075
0.064382
0.095566
0.010193
-0.127287
-0.046705
-0.015779
0.024515
-0.083677
-0.036325
-0.069887
-0.033713
0.032156
-0.030394
0.022474
0.076177
-0.026862
-0.061671
-0.031876
-0.035445
-0.089363
-0.106196
0.016157
0.039027
-0.056935
0.017253
-0.082492
-0.092217
-0.082037
-0.054890
0.052761
-0.059646
-0.093449
-0.019589
-0.002380
-0.023563
-0.140699
0.010971
-0.046998
-0.046986
-0.006488
0.018375
-0.022874
-0.007856
-0.025912
0.028078
-0.063567
-0.091858
-0.012276
-0.015923
-0.041795
-0.005411
0.003297
-0.043510
-0.107194
0.018743
-0.014305
-0.043288
-0.029005
-0.006719
-0.000036
0.012633
-0.007206
0.009607
-0.066536
0.051492
-0.036027
-0.030214
0.021499
-0.022348
0.003885
0.037583
-0.003230
0.069083
-0.006134
-0.048540
-0.043237
0.050648
-0.006299
0.127456
0.162641
0.061252
0.039770
0.156814
0.082657
0.179808
0.106624
0.144027
0.104550
0.183735
0.170791
0.113432
0.162097
0.211004
0.108800
0.237130
0.203988
0.144762
0.251663
0.139590
0.150933
0.105444
0.141344
0.104867
0.114130
0.077581
0.062149
0.145349
0.047405
-0.012949
0.106308
0.112808
0.026184
0.066310
0.010905
-0.030362
0.092394
0.042338
-0.002163
0.012319
0.022972
-0.017048
-0.041872
0.004574
-0.042648
0.026583
-0.005031
0.037314
-0.018297
-0.000116
0.010606
0.023846
0.047768
0.172550
0.321286
0.725917
0.987798
1.272465
1.447735
1.420390
1.181311
0.875440
0.520752
0.132429
-0.093321
-0.197307
-0.249507
-0.218876
-0.187655
-0.008492
-0.002881
0.003780
0.095092
-0.006578
0.123120
0.104069
0.092818
0.044796
0.041673
0.101593
0.117971
0.110916
0.101776
0.044376
0.171077
0.120366
0.178343
0.137629
0.180223
0.166473
0.153130
0.263274
0.217629
0.244647
0.305404
0.228982
0.331895
0.255108
0.341963
0.369691
0.353409
0.442271
0.455876
0.388421
0.389798
0.535496
0.523945
0.517694
0.526802
0.572275
0.530513
0.582057
0.511465
0.563682
0.548657
0.640106
0.581185
0.539699
0.596298
0.576819
0.567694
0.468047
0.597929
0.512326
0.430370
0.410913
0.505243
0.418453
0.382817
0.379668
0.421081
0.391114
0.265571
0.250582
0.314566
0.301483
0.216442
0.205410
0.299291
0.220399
0.173250
0.145903
0.217147
0.147673
0.102888
0.213011
0.118702
0.088605
0.173253
0.065078
0.079880
0.035454
0.108944
0.077735
0.088959
0.066494
0.065290
-0.006119
0.097068
0.023190
0.137840
0.099452
0.110381
0.015247
0.037057
0.132692
0.041676
0.106923
0.043923
0.072386
0.120758
0.069228
0.078655
0.156793
0.133678
0.040821
0.126843
0.091510
0.118365
-0.001565
0.126661
0.091517
0.068945
0.054698
0.121570
0.022422
0.150270
0.120200
0.045270
0.075553
0.034285
0.090448
0.167128
0.061688
0.048790
0.091008
0.065950
0.104840
0.122725
0.090280
0.121149
0.098418
0.025842
0.046747
0.080448
0.074837
0.074517
0.105821
0.081369
0.155201
0.093408
0.078683
0.087745
0.103841
0.131576
0.032422
0.089470
0.125724
0.168593
0.059419
0.162930
0.160393
0.166290
0.169696
0.160664
0.179176
0.216510
0.219026
0.234057
0.192353
0.266832
0.230966
0.218532
0.334219
0.218362
0.321642
0.290618
0.296684
0.247925
0.287769
0.233449
0.258848
0.311653
0.189686
0.365968
0.163311
0.166374
0.137160
0.231783
0.145145
0.160619
0.168719
0.082515
0.183674
0.190421
0.101407
0.106474
0.107182
0.130085
0.137772
0.140326
0.067160
0.050580
0.046612
0.078320
0.087338
0.125165
0.107155
0.118585
0.015788
0.097554
0.100766
0.134047
0.020283
0.080219
0.118433
0.060265
0.155132
0.501056
0.726824
1.152669
1.373785
1.500000
1.445820
1.176918
0.877447
0.579853
0.234201
-0.030160
-0.154225
-0.159800
-0.047946
-0.144403
0.032926
-0.062656
0.053387
0.196172
0.113907
0.099430
0.097160
0.133622
0.048486
0.149239
0.090219
0.065311
0.196858
0.149753
0.126282
0.200335
0.185038
0.138134
0.204524
0.182157
0.196363
0.208178
0.273067
0.247068
0.283773
0.277482
0.346621
0.397178
0.333957
0.377919
0.431946
0.387203
0.454826
0.439751
0.499569
0.512245
0.507021
0.499906
0.538688
0.560898
0.526878
0.590023
0.504988
0.619120
0.572097
0.557136
0.567635
0.643084
0.542494
0.584676
0.640881
0.490875
0.570018
0.549841
0.536988
0.527401
0.442241
0.416051
0.357457
0.411472
0.351792
0.361580
0.369159
0.294274
0.269021
0.337640
0.225176
0.223090
0.201084
0.185514
0.266625
0.051033
0.158713
0.055447
0.164917
0.045370
0.100628
0.066280
0.107080
0.124500
0.094369
0.104226
-0.038912
-0.002995
0.085270
0.018268
0.068923
0.061686
0.000352
0.052853
0.065914
-0.006407
0.025706
-0.017175
0.038793
0.060004
-0.012119
0.111885
0.010854
0.024793
0.060387
0.029720
0.097394
0.069510
0.003015
0.042454
-0.020605
0.036188
0.050032
0.034239
0.002702
0.011766
0.061754
0.075290
0.072178
0.069327
0.020342
-0.033176
0.080925
-0.042871
-0.013379
0.063443
0.096557
-0.008542
0.057761
0.030572
0.015747
0.015492
0.070760
0.031107
-0.005345
0.040035
0.000347
0.009096
0.019617
0.020644
0.138271
0.034206
-0.034029
0.030866
-0.006407
0.060483
0.051955
0.078094
0.027196
0.095926
-0.022422
0.076681
0.065760
-0.025453
-0.003088
-0.041719
0.042504
0.003399
-0.015210
0.155593
0.207428
0.117643
0.125935
0.078582
0.042317
0.146655
0.175569
0.084232
0.065981
0.216065
0.225384
0.156303
0.158213
0.217712
0.152668
0.110008
0.220330
0.143387
0.163499
0.117630
0.103467
0.068424
0.131045
0.045826
0.038158
0.153803
0.085240
0.038065
0.036985
0.057616
-0.037940
-0.019734
-0.011696
-0.032429
0.084812
-0.017075
0.091066
-0.030760
-0.053997
-0.062536
0.047787
-0.000590
-0.009126
0.007741
-0.029351
0.032204
-0.064986
-0.090051
-0.100264
-0.096249
-0.057843
-0.056799
0.083649
0.319265
0.655860
0.935417
1.277916
1.425814
1.309555
1.137477
0.695336
0.391055
0.030559
-0.258286
-0.334332
-0.300279
-0.342510
-0.173953
-0.063889
-0.117363
-0.077359
-0.079147
-0.050066
-0.034401
-0.006183
0.016417
-0.108452
0.018661
-0.051984
-0.018464
0.076887
0.006484
-0.063548
0.073555
-0.038175
0.059531
-0.058405
0.113789
0.131989
0.025605
0.079463
0.153678
0.085389
0.140763
0.090674
0.142971
0.169457
0.265312
0.253074
0.299343
0.383719
0.355599
0.261522
0.335605
0.401804
0.312537
0.362848
0.400481
0.450783
0.426292
0.441295
0.459566
0.472816
0.430099
0.369348
0.476946
0.345597
0.413272
0.456469
0.453619
0.353512
0.389328
0.379605
0.429754
0.338535
0.332415
0.251935
0.239023
0.246446
0.212707
0.126092
0.216717
0.187776
0.182500
0.124078
0.095750
0.088512
0.146882
-0.005541
0.051709
0.062153
0.018766
-0.071297
-0.033465
-0.038162
-0.049353
-0.070123
0.025470
0.007842
-0.144786
-0.059064
-0.071948
-0.097516
-0.107169
0.021080
-0.051918
-0.041486
-0.037461
-0.003908
-0.151002
-0.068898
-0.036366
-0.071933
-0.077565
-0.083573
-0.042461
-0.127076
0.003241
-0.037707
-0.087652
-0.019777
-0.049929
0.014175
-0.161484
-0.078341
-0.110285
-0.042587
-0.107109
-0.127042
-0.068695
-0.116497
-0.071931
-0.060557
-0.135986
-0.159900
-0.083667
-0.144718
-0.110502
-0.121416
-0.070153
-0.038093
-0.048291
-0.093061
-0.104232
-0.135160
-0.051847
-0.079164
-0.084440
-0.125023
-0.123903
-0.090030
-0.032363
-0.069389
0.013388
-0.086859
-0.067600
-0.136411
-0.057881
-0.047137
-0.076060
-0.179065
-0.058973
-0.097074
-0.132207
-0.048930
-0.175891
0.086013
-0.057197
0.088278
0.064264
-0.002070
0.000043
-0.075103
-0.073096
-0.037561
0.085231
0.012293
-0.043996
0.056673
0.017885
-0.022570
0.131137
0.031377
0.029760
0.117752
0.126758
0.177499
0.199660
0.003019
0.092097
-0.038280
0.085136
0.093104
0.099689
0.120789
0.090700
0.031292
0.003943
-0.055936
-0.050923
-0.002414
-0.031629
-0.009330
0.003688
0.036108
-0.059092
-0.080607
-0.004677
-0.123146
-0.052458
-0.115013
-0.108235
-0.064226
-0.011539
-0.049616
0.028598
-0.033444
-0.071160
-0.113515
-0.051376
-0.077579
-0.042109
-0.095291
-0.103337
-0.122005
-0.009290
0.050930
0.370025
0.764086
1.038383
1.217216
1.356654
1.302539
1.032649
0.665498
0.226663
-0.117066
-0.246116
-0.341936
-0.293844
-0.206891
-0.229313
-0.103661
0.000846
-0.013609
-0.090598
-0.128313
-0.005344
-0.058745
-0.054768
-0.093619
-0.075908
-0.024442
-0.088261
0.031353
0.035795
-0.033890
0.049024
0.011772
-0.035063
0.098754
0.070845
0.117955
0.132704
0.079574
0.106208
0.145134
0.200817
0.206356
0.075419
0.231221
0.247806
0.259545
0.306901
0.240044
0.408375
0.348664
0.393012
0.352082
0.494090
0.500620
0.440266
0.429845
0.439385
0.417289
0.431202
0.479134
0.440987
0.440511
0.487052
0.376795
0.447808
0.403079
0.439846
0.502339
0.386848
0.404175
0.421851
0.335686
0.279880
0.348242
0.280847
0.230010
0.240998
0.348980
0.258196
0.214321
0.143965
0.123214
0.146821
0.174242
0.051063
0.133350
0.049889
0.068519
0.087112
0.045982
0.097422
0.034654
0.086908
0.031986
0.020008
0.015939
0.026470
0.052799
0.087866
-0.019108
-0.009633
0.003840
-0.065051
-0.049067
0.002835
-0.065144
0.034124
0.034372
-0.069905
-0.033906
-0.032285
-0.070798
0.010249
0.071999
-0.057165
-0.058003
-0.025685
0.000641
-0.018937
-0.055271
0.076711
-0.071897
0.027459
0.020297
-0.031180
0.018572
-0.017741
-0.029474
-0.067893
-0.052968
0.005220
-0.038967
-0.024422
0.076217
0.031832
-0.043419
-0.021685
-0.028060
0.033074
0.049266
0.024155
-0.004167
0.023997
0.005504
-0.007426
0.011284
0.011093
0.051796
0.025551
-0.019286
-0.048904
-0.015964
0.003565
-0.035210
0.017486
0.053476
0.036664
-0.013870
0.049928
0.082428
0.013141
0.062676
0.099133
0.074088
0.065162
0.109388
0.129086
0.050475
0.151016
0.093915
0.087090
0.093571
0.055105
0.144720
0.138623
0.158197
0.183994
0.104916
0.147721
0.296639
0.208238
0.258037
0.255444
0.197316
0.264500
0.203392
0.139898
0.235299
0.203508
0.191122
0.214003
0.111344
0.154937
0.110752
0.115553
0.186636
0.145899
0.154178
0.081904
0.124313
0.058787
0.088975
0.076331
0.087554
0.086800
0.135592
0.088598
0.014045
0.111417
0.074081
0.079001
0.061122
0.012299
0.078708
0.087485
0.018939
0.047613
0.078390
0.032716
0.069656
-0.050583
-0.026554
0.130710
0.309029
0.536633
0.881326
1.160859
1.442213
1.443989
1.346344
1.036354
0.798531
0.329648
-0.002565
-0.111046
-0.191309
-0.347613
-0.160842
-0.023446
-0.027844
-0.012589
0.084887
-0.034361
0.045504
0.008766
0.107299
0.075613
0.042794
0.036050
0.163142
0.047767
0.055326
0.093273
0.140458
0.065296
0.105718
0.165427
0.179367
0.140824
0.152048
0.190449
0.175082
0.232402
0.262127
0.206694
0.276218
0.242771
0.309644
0.381703
0.269172
0.378738
0.321817
0.492516
0.453247
0.463810
0.543169
0.504602
0.508898
0.517863
0.578439
0.542657
0.592273
0.607988
0.550087
0.616101
0.579627
0.568233
0.478402
0.509228
0.578714
0.517730
0.507837
0.493721
0.476210
0.401745
0.441236
0.471981
0.386781
0.371448
0.281872
0.298251
0.369176
0.307268
0.314151
0.192565
0.174595
0.176322
0.212010
0.245340
0.183443
0.192208
0.109720
0.088410
0.092152
0.104571
0.139430
0.117037
0.180466
0.045803
0.140654
0.103575
0.049168
-0.017045
0.085539
0.048367
0.061159
0.039519
0.053874
0.021591
0.076241
0.036807
0.107751
0.016733
0.037092
0.041223
-0.024299
0.052293
0.088222
0.021980
-0.007547
0.077412
0.018756
0.045311
-0.006685
0.096091
0.003911
0.056633
0.096692
0.017388
0.092908
0.119191
0.059869
-0.038305
0.020230
-0.020818
0.037517
0.017178
0.024441
0.052768
0.008447
0.010423
0.056789
0.019374
-0.008095
0.135214
0.062217
0.004433
0.020820
0.052147
0.003176
-0.041492
0.025680
0.085882
0.031076
-0.005316
0.014104
0.048413
0.063652
0.030262
-0.001661
0.004015
0.016854
0.006012
-0.016849
-0.053542
0.007055
-0.117870
0.022853
0.011719
0.015436
-0.000531
0.070994
0.162120
0.056748
0.064750
0.117181
0.190821
0.119240
0.184835
0.165695
0.208621
0.148274
0.215636
0.151974
0.220718
0.187627
0.113904
0.103694
0.145085
0.206978
0.176603
0.175257
0.125703
0.267932
0.042324
0.090276
0.187956
0.099225
0.056165
0.039391
0.122178
0.077594
0.026954
0.008381
0.004060
0.050924
0.053573
-0.020100
0.095484
0.055545
0.011986
-0.017522
-0.052912
-0.022272
-0.002487
0.021290
-0.024585
-0.016047
0.014335
0.001500
-0.023934
-0.071665
-0.090433
-0.074762
-0.077712
-0.067797
0.077262
0.188334
0.506157
0.860334
1.153266
1.274869
1.320177
1.235608
0.961330
0.544806
0.244137
-0.018480
-0.275386
-0.299622
-0.195372
-0.193126
-0.151082
-0.100480
-0.069359
-0.010356
-0.027821
-0.062315
0.008770
-0.010426
0.082091
-0.045173
0.020270
0.025096
-0.030516
-0.061726
0.070174
0.094107
0.084677
-0.022691
0.062790
0.096215
0.026587
0.138143
0.162515
0.137740
0.186714
0.099866
0.106618
0.143981
0.172150
0.255945
0.259911
0.319483
0.275914
0.347830
0.321634
0.391472
0.386722
0.399672
0.371667
0.372742
0.433873
0.346719
0.369987
0.426428
0.519949
0.502564
0.442145
0.488114
0.505258
0.392714
0.402648
0.368417
0.445111
0.452686
0.405565
0.472496
0.330515
0.261003
0.333311
0.339030
0.232384
0.232976
0.197616
0.207228
0.180796
0.131738
0.160652
0.048658
0.098712
0.112454
0.160766
0.096710
-0.033354
0.026870
-0.028689
0.058319
-0.005081
-0.052816
-0.028447
-0.006963
-0.059793
-0.028024
-0.106829
-0.025699
0.038471
-0.039227
-0.018374
-0.024467
-0.099105
-0.020732
-0.118636
-0.042213
0.000077
-0.038470
-0.104579
-0.015215
-0.145009
-0.026423
0.035120
-0.113340
-0.085593
-0.036784
-0.036806
-0.096805
-0.039301
-0.064217
-0.078243
-0.110559
-0.146716
-0.126266
-0.087204
-0.068069
-0.076667
-0.035597
-0.054014
-0.053641
-0.030143
-0.062475
-0.096424
-0.056319
-0.058647
-0.041015
-0.060608
-0.121533
-0.059429
-0.046371
-0.028594
-0.152472
-0.111832
-0.125369
-0.179735
-0.137844
-0.186158
-0.141675
-0.098055
-0.046306
-0.125701
-0.119508
-0.021545
-0.024548
-0.069486
-0.120351
-0.111355
-0.088179
-0.175124
-0.081977
-0.066991
-0.048954
-0.062562
0.018136
-0.017315
-0.080318
-0.013419
-0.015370
-0.068456
-0.052468
-0.053280
-0.015160
-0.005956
-0.018430
0.079983
0.051948
-0.003558
0.103304
0.055395
0.136275
0.044168
0.020369
0.129773
0.071314
0.090575
0.038767
0.105035
0.103119
0.098387
0.053233
0.074913
-0.042048
0.065489
0.011190
-0.039537
-0.026358
0.014332
0.027754
-0.058602
-0.008875
-0.078182
-0.047102
-0.013375
-0.134116
-0.061773
-0.155005
-0.102278
-0.138197
-0.074005
-0.057784
-0.198957
-0.037708
-0.158859
0.048237
-0.106618
-0.054292
-0.030398
-0.044132
-0.114936
-0.092307
-0.131485
-0.188835
-0.055723
0.190845
0.418500
0.771458
1.112396
1.298370
1.342026
1.137771
0.798887
0.465561
0.105801
-0.108864
-0.346694
-0.361490
-0.377138
-0.347796
-0.246120
-0.047293
-0.145018
-0.092293
-0.152757
-0.102306
-0.090768
0.038000
-0.157818
0.005961
-0.068806
-0.118809
-0.155220
-0.051118
-0.017746
-0.046372
-0.092279
0.046461
0.068146
0.048643
0.024087
0.018788
0.089083
0.091305
0.102629
0.169049
0.117798
0.062825
0.123771
0.161904
0.193654
0.186828
0.213598
0.250987
0.225485
0.341559
0.401101
0.413480
0.436897
0.456910
0.366401
0.494038
0.456359
0.460681
0.528503
0.533241
0.422875
0.557550
0.494527
0.406208
0.422712
0.435329
0.404134
0.363866
0.428664
0.444225
0.293959
0.332856
0.213096
0.289849
0.205011
0.263407
0.212984
0.263474
0.242022
0.196333
0.073380
0.133211
0.024708
0.033639
0.074853
0.018709
-0.011569
-0.010401
0.000244
-0.034741
0.024288
-0.038710
-0.044192
0.028530
-0.088080
0.016032
-0.027291
-0.054008
-0.080434
-0.035514
-0.033030
-0.046359
-0.111088
-0.008861
-0.073385
-0.034665
-0.005972
-0.011526
-0.036656
-0.034125
-0.009115
-0.009462
-0.043892
-0.153337
-0.068160
-0.067263
-0.016624
-0.006851
-0.078281
-0.071261
-0.013416
-0.113308
-0.062492
-0.107015
0.026092
-0.060000
0.050773
-0.083794
-0.010467
-0.073645
-0.114242
-0.063374
-0.025232
0.011603
0.010884
-0.115637
-0.082222
0.003636
-0.066461
-0.079627
0.032164
0.005407
-0.046013
-0.090224
0.021402
-0.077594
-0.053578
0.004268
-0.013861
-0.022309
0.032291
0.029489
-0.019602
-0.009947
-0.071209
-0.012885
-0.088789
0.003770
0.020420
-0.000311
0.015243
-0.030457
0.002391
0.028154
0.051299
-0.019434
0.042023
-0.023435
0.111449
-0.025961
0.053763
0.092088
0.033087
0.060468
0.155515
0.100554
0.125657
0.168877
0.155668
0.175802
0.126428
0.128783
0.241182
0.238989
0.201844
0.186343
0.134603
0.173598
0.191815
0.177134
0.126865
0.214988
0.166043
0.104249
0.103002
0.024953
0.033678
0.090238
0.030410
-0.022541
0.033527
0.071826
0.074495
0.029246
0.107679
-0.005801
0.019243
-0.004784
-0.019769
-0.039155
0.057286
0.014873
-0.092152
-0.029115
0.025926
0.021116
-0.073957
0.035027
0.058262
-0.052023
-0.039638
0.019139
0.093394
0.302149
0.643100
0.903031
1.212279
1.390059
1.336945
1.144739
0.886088
0.647883
0.253072
-0.043046
-0.212482
-0.225354
-0.246052
-0.111740
-0.082705
-0.062465
0.089218
0.013492
-0.046179
0.046215
0.057798
0.037599
0.061399
0.048806
0.003564
0.029582
0.007013
0.065995
0.058440
0.097561
0.175672
0.131688
0.069612
0.157629
0.143731
0.185470
0.178169
0.144703
0.186976
0.261193
0.234487
0.280198
0.252508
0.314523
0.395647
0.414982
0.359250
0.360251
0.405558
0.487477
0.495108
0.504298
0.587074
0.534414
0.469550
0.535806
0.539208
0.539514
0.620531
0.613655
0.470620
0.604839
0.504653
0.575828
0.504009
0.526404
0.545936
0.489274
0.533109
0.474287
0.506261
0.465396
0.465771
0.312145
0.399621
0.308709
0.398257
0.307211
0.267742
0.282031
0.268095
0.193261
0.281098
0.190344
0.249845
0.134832
0.108552
0.126528
0.077430
0.187188
0.093477
0.133478
0.031328
0.060461
0.031515
0.071572
0.062662
0.095393
0.114793
0.056769
0.180238
0.004850
-0.016958
0.142401
0.111108
0.048734
0.083629
-0.001277
0.089742
0.023892
0.023618
0.004693
0.136525
0.079407
0.114068
0.000427
0.014996
0.068931
0.061961
0.087092
0.117709
0.038705
0.038701
0.092178
0.048216
0.146654
0.115671
0.164063
0.142872
0.034045
0.087559
0.029750
0.049843
0.097199
0.104430
0.096059
0.024034
0.057018
0.079451
0.065615
0.059993
0.088871
0.107265
0.018464
0.122934
0.108229
-0.035641
0.185627
0.099963
0.045156
0.092603
-0.022947
0.040779
0.125378
0.076020
0.048388
0.098991
0.123696
0.078768
0.070155
0.036235
0.137508
0.056697
0.084921
0.114984
0.166318
0.149786
0.071422
0.168488
0.206279
0.157427
0.154378
0.217370
0.128441
0.169747
