0.075027
-0.039005
-0.022650
0.018470
0.027045
-0.018728
0.003602
0.045811
-0.035075
0.029664
0.116996
0.082785
0.034618
0.026118
-0.042218
0.054436
0.034640
0.049604
0.072673
0.010799
0.038428
0.006133
0.020583
0.001645
-0.039697
-0.016233
0.040482
0.074138
0.044133
0.089354
0.064667
0.088809
0.071654
0.056632
0.127829
0.061565
0.129754
0.137318
0.115388
0.165872
0.126160
0.205064
0.208694
0.172525
0.230815
0.179910
0.319213
0.177592
0.171581
0.243778
0.197824
0.162651
0.080046
0.234075
0.156429
0.138288
0.162133
0.246598
0.149280
0.168216
0.133280
0.075134
0.095164
0.035679
0.007394
0.024490
0.049975
0.079155
-0.026569
0.055994
0.063634
0.017425
-0.017469
0.053920
0.055781
0.070021
0.059602
0.027928
0.038831
0.035445
0.008102
0.044742
0.061927
0.137071
-0.065322
0.025232
0.104053
0.168879
0.378111
0.679151
0.957152
1.171991
1.500000
1.389525
1.221385
0.955854
0.627995
0.278500
-0.027452
-0.112917
-0.201707
-0.180595
-0.076998
-0.039851
0.034133
0.053110
0.147677
0.098646
0.096258
0.140196
0.015615
0.062353
0.087210
0.082917
0.112019
0.063084
0.077092
0.133691
0.010341
0.100987
0.056486
0.144231
0.138589
0.251796
0.167870
0.229108
0.265634
0.278480
0.205873
0.272794
0.321734
0.316637
0.338682
0.264621
0.373357
0.410659
0.331368
0.404636
0.379685
0.350020
0.468341
0.478035
0.529307
0.449512
0.517093
0.445107
0.502943
0.576161
0.529601
0.559616
0.609597
0.656060
0.584364
0.596417
0.547292
0.611985
0.518541
0.570373
0.534852
0.498971
0.472350
0.470274
0.480146
0.433738
0.450630
0.332432
0.378377
0.301113
0.348072
0.265220
0.269209
0.343014
0.235619
0.221636
0.192674
0.155781
0.249612
0.135091
0.235749
0.054609
0.118213
0.075944
0.149596
0.085185
0.161526
0.119695
0.088932
0.124520
0.050437
0.170960
0.145776
0.161933
0.089451
0.104963
0.171163
0.174811
0.070012
0.124194
0.138530
0.210967
0.088422
0.059993
0.127740
0.089135
0.144000
0.118654
0.087352
0.104633
0.065219
0.080389
0.102655
0.075739
0.051345
0.096170
0.047581
-0.042806
0.099409
0.162680
0.020744
0.097797
0.109429
0.005430
0.139069
0.037050
0.153690
0.079349
0.110363
0.096413
0.130540
0.106478
-0.001274
0.109612
0.101490
0.008207
0.062639
0.118930
0.088448
0.183921
0.017480
0.088630
0.129094
0.107224
0.112335
0.102696
0.079050
0.025818
0.158308
0.139265
0.131352
0.074476
0.081243
0.128628
0.140433
0.069039
0.089732
0.069903
0.170086
0.118201
0.120664
0.186737
0.069041
0.080543
0.143120
0.121906
0.086189
0.175957
0.204982
0.180053
0.213908
0.192299
0.239568
0.113927
0.294582
0.192566
0.256842
0.224523
0.315171
0.220043
0.213583
0.129403
0.226626
0.223717
0.153188
0.223099
0.216953
0.127687
0.066504
0.203677
0.137940
0.075289
0.218896
0.094931
0.088052
0.091202
0.130536
0.065193
0.082716
0.091412
0.088884
0.127695
0.110147
0.038353
0.056295
0.074699
0.128865
0.029582
0.031494
0.135318
0.085286
0.018745
0.053790
0.082420
0.063286
0.078035
0.015369
0.005491
-0.042742
0.043914
0.176658
0.418975
0.788660
1.093719
1.371895
1.430405
1.491117
1.163997
0.805598
0.466904
0.183664
-0.090446
-0.133436
-0.269480
-0.182302
-0.132132
-0.020998
0.089174
0.125087
0.119780
0.019764
0.028983
0.025606
0.021702
-0.043158
0.035884
0.112760
0.077020
0.013993
0.126746
-0.005702
0.126020
0.081995
0.114339
0.113384
0.093994
0.158086
0.087952
0.230249
0.182771
0.137740
0.211301
0.259450
0.296249
0.319994
0.249650
0.350304
0.330370
0.290026
0.448313
0.447231
0.377793
0.379027
0.459485
0.487155
0.492164
0.436499
0.412327
0.606173
0.548139
0.519885
0.537111
0.588943
0.476841
0.501808
0.500963
0.453213
0.563424
0.488594
0.429380
0.489045
0.397086
0.473306
0.395295
0.419657
0.408746
0.315561
0.333525
0.323316
0.218764
0.268678
0.197835
0.258230
0.264876
0.210472
0.135928
0.149964
0.092849
0.130603
0.158267
0.160842
0.111923
0.121711
0.126662
0.139020
0.059355
0.046966
0.060103
-0.010547
0.128942
-0.074210
0.099278
0.007510
-0.018471
0.049844
0.039436
0.059825
0.045715
0.074789
-0.042717
-0.040665
0.001879
-0.079832
-0.068579
-0.003477
0.009465
0.026542
0.104835
-0.017695
0.063158
-0.010633
-0.054169
0.009949
-0.042406
-0.022172
0.049948
0.001429
-0.021794
-0.047864
-0.022258
-0.016621
-0.058308
-0.021640
-0.083940
-0.066680
-0.051339
-0.021008
-0.015205
-0.005252
0.018977
-0.033088
-0.051370
0.012883
-0.070795
0.038106
0.070319
-0.045179
-0.003841
-0.060653
0.005912
-0.048507
-0.068566
-0.065324
-0.044121
-0.043723
-0.061055
-0.063701
-0.034722
-0.035198
-0.060891
-0.041342
-0.012805
-0.022819
0.033110
-0.017764
-0.008456
-0.074741
-0.123537
-0.032193
0.026938
-0.043012
0.051445
-0.014833
0.035361
0.017142
0.056640
0.034348
0.077425
0.042428
0.100632
0.057001
0.093358
0.108893
0.065978
0.128282
0.124600
0.133822
0.184864
0.100490
0.171120
0.153139
0.156500
0.104959
0.175278
0.077455
0.088640
0.090957
0.096489
0.052461
0.068470
0.041265
0.050976
0.027969
0.110524
0.054252
0.012184
-0.007183
0.018029
0.004932
-0.039744
0.000695
0.019848
-0.045798
-0.007912
0.011057
-0.032896
-0.010466
-0.066079
0.016235
-0.028041
0.019414
-0.011899
-0.070258
-0.031435
-0.089242
0.003090
-0.073612
-0.078049
-0.020067
-0.097585
0.096926
0.117249
0.435423
0.662947
1.074544
1.263175
1.325802
1.291795
1.022864
0.663820
0.362227
-0.029658
-0.190450
-0.343698
-0.309488
-0.275122
-0.168034
-0.174013
-0.089814
-0.061504
-0.050095
-0.012119
-0.031991
-0.076982
-0.020361
0.044445
-0.036523
0.017139
0.012745
-0.021456
0.005966
-0.016914
-0.020819
0.063688
0.102532
0.023171
0.058460
0.092137
0.089313
0.018019
0.119102
0.089796
0.093645
0.226532
0.212922
0.203498
0.205401
0.272264
0.246857
0.220838
0.244076
0.416725
0.273850
0.354638
0.349460
0.372961
0.352746
0.430831
0.385941
0.371011
0.411562
0.462739
0.531678
0.412126
0.396390
0.392650
0.391112
0.474551
0.492005
0.404172
0.394169
0.455158
0.378378
0.447075
0.354022
0.320878
0.281256
0.339875
0.296559
0.221598
0.224641
0.128441
0.221699
0.158150
0.200470
0.140961
0.090639
0.039078
0.099787
0.116811
0.118405
0.038907
0.085256
-0.043755
0.113322
0.014513
0.052499
0.014690
0.019418
-0.036846
-0.034199
-0.010285
0.032909
0.022255
-0.062930
0.021703
-0.010865
0.029587
0.029267
0.002764
-0.013087
0.050198
0.053980
-0.055382
0.007260
-0.037545
-0.022859
-0.054091
-0.087319
-0.054409
0.035344
-0.026858
0.007420
-0.107984
0.038064
0.013549
0.028263
0.007489
0.007551
-0.018222
-0.029703
-0.043314
-0.048283
-0.020138
0.000647
-0.022102
-0.045558
0.013374
0.002344
-0.054164
-0.024174
0.012805
0.009581
0.016810
0.021994
-0.050577
0.006611
-0.058233
-0.042196
-0.045668
0.001250
-0.001866
0.102653
0.009395
-0.036623
-0.083753
-0.022220
-0.022831
0.017151
-0.060601
-0.026818
-0.015509
0.047151
0.033473
-0.032873
0.020462
0.067550
-0.019954
0.058976
0.120165
0.087411
0.013086
-0.025600
0.016729
0.059202
0.127929
0.034990
0.072418
0.127250
0.048517
0.116748
0.103270
0.132188
0.150848
0.175627
0.147463
0.212717
0.257337
0.184571
0.240990
0.191012
0.241510
0.156381
0.192547
0.124546
0.095226
0.134060
0.160678
0.168880
0.191274
0.172660
0.133677
0.183821
0.044453
0.079175
0.066811
0.110895
0.081760
0.138597
0.082756
0.092794
0.054434
0.017042
0.061536
-0.056471
0.006797
0.072602
-0.054571
0.019574
0.070297
0.087821
-0.030142
0.089166
0.114337
0.057662
0.062393
-0.018478
0.044811
-0.021799
0.007671
-0.019084
0.069167
0.269050
0.556750
0.836730
1.221866
1.451836
1.382863
1.222056
1.036931
0.691511
0.316171
0.010174
-0.127772
-0.178792
-0.199943
-0.184837
-0.044876
-0.038167
0.084243
0.064580
0.032322
0.091114
0.108858
0.064924
0.127681
0.133019
0.109382
0.091487
0.073152
0.067360
0.180666
0.095313
0.107794
0.180220
0.109791
0.158251
0.212669
0.129134
0.213854
0.264237
0.181652
0.239205
0.320462
0.311539
0.267605
0.274538
0.342272
0.299427
0.360115
0.333473
0.459218
0.412210
0.388440
0.493516
0.526489
0.496449
0.566084
0.532394
0.543474
0.588662
0.528994
0.640469
0.637531
0.554370
0.611244
0.519108
0.593105
0.516415
0.487582
0.441710
0.615266
0.528412
0.466276
0.480240
0.421066
0.472348
0.361609
0.445677
0.411233
0.385357
0.244587
0.276916
0.323221
0.324546
0.289552
0.247944
0.216586
0.249371
0.216385
0.241035
0.107905
0.131618
0.066510
0.096426
0.140895
0.166204
0.255568
0.146840
0.170268
0.130152
0.171496
0.231645
0.151792
0.094482
0.006756
0.086642
0.150461
0.089287
0.071653
0.092878
0.094476
0.122131
0.156296
0.082686
0.090040
0.062286
0.104992
0.064738
0.224748
-0.010728
0.144692
0.120604
0.085066
0.065559
0.115344
0.067508
0.039013
0.102697
0.074357
0.083172
0.026294
0.100141
0.138710
0.156512
0.048133
0.068420
0.063484
0.050134
0.077436
0.064016
0.139826
0.042144
0.084375
0.142335
0.112572
0.121044
0.022578
0.106885
0.120113
0.050822
0.071083
0.143312
0.049814
0.090141
0.114359
0.102807
0.144202
0.095033
0.028769
-0.011244
0.165308
0.093136
0.088619
0.140029
0.122395
0.131933
0.114444
0.154483
0.139417
0.089963
0.144685
0.199835
0.111942
0.238064
0.202773
0.161469
0.120901
0.154181
0.223405
0.244393
0.272587
0.300488
0.196386
0.218329
0.242748
0.253935
0.197520
0.312570
0.231536
0.327315
0.326795
0.243123
0.241641
0.267616
0.145612
0.236843
0.198662
0.223843
0.204457
0.239713
0.138859
0.191908
0.147106
0.197443
0.100165
0.187195
0.111774
0.174309
0.138693
0.086608
0.109371
0.101153
0.135478
0.047177
0.012125
0.178928
0.127013
0.123167
0.048514
0.064851
0.095157
0.135500
0.131015
0.101808
0.057636
0.115726
0.105108
0.151821
-0.044352
0.018017
0.080531
0.083814
0.374855
0.760970
0.888838
1.303183
1.410056
1.479725
1.249683
0.956587
0.693707
0.307011
0.011306
-0.199710
-0.196193
-0.186735
-0.019584
-0.057656
0.002459
0.010229
0.106041
0.085934
0.029776
0.099325
0.100393
0.036701
0.103358
0.055830
0.075359
0.175569
0.128508
0.058451
0.079373
0.083972
0.080574
0.126780
0.125357
0.130950
0.213483
0.210601
0.119248
0.128547
0.225118
0.230805
0.275697
0.349728
0.335703
0.369015
0.320354
0.411969
0.408656
0.266666
0.464376
0.344964
0.477410
0.537848
0.510334
0.531428
0.546391
0.549653
0.566377
0.556068
0.603947
0.510673
0.562697
0.509408
0.584279
0.539987
0.537738
0.482575
0.540073
0.497502
0.505086
0.436456
0.341531
0.325357
0.465340
0.386238
0.428942
0.345500
0.264760
0.325848
0.352933
0.304081
0.267355
0.195960
0.233727
0.219063
0.186998
0.181852
0.136361
0.122697
0.107049
0.145836
0.094173
0.126768
0.118860
0.059850
0.092607
0.001470
0.052620
-0.003494
0.035589
-0.016574
0.092673
0.095845
0.064250
-0.007156
-0.018032
-0.025693
0.051633
-0.006005
0.082143
0.048146
0.097554
0.009224
0.043888
0.010048
0.092389
-0.034161
-0.002430
-0.065612
-0.041466
0.045385
0.028352
-0.025692
0.020094
-0.021523
-0.031403
-0.039830
-0.080796
0.046147
-0.032219
0.014563
-0.001587
0.025680
0.058767
0.048949
0.054321
-0.039780
-0.009828
0.075098
0.080224
-0.059877
-0.014102
-0.026905
0.014176
0.112575
-0.028957
0.015553
0.020058
0.028342
-0.030197
-0.031140
-0.089400
0.017785
0.028788
-0.008709
-0.081093
0.013551
-0.076815
-0.040131
0.032228
-0.052660
0.053408
-0.045064
-0.032926
-0.030081
-0.029345
-0.013025
-0.008102
0.000833
0.046787
-0.029847
0.017325
-0.001588
0.013954
0.058206
0.042581
0.087584
0.089984
0.144893
0.054281
0.054537
0.164516
0.106123
0.120279
0.145490
0.169066
0.172302
0.118879
0.097346
0.129730
0.144261
0.132470
0.182922
-0.005481
0.067597
0.163120
0.123341
0.132652
0.086721
0.061773
0.003635
-0.026730
0.074247
-0.037679
-0.012672
0.058842
0.000165
-0.021708
0.006096
-0.000823
0.011165
0.014193
-0.043377
-0.066980
-0.094487
-0.006950
-0.031892
-0.044811
-0.013312
-0.047912
0.030210
-0.023675
-0.061030
-0.155905
-0.045226
-0.106728
-0.120320
-0.099168
-0.044475
-0.007025
0.189978
0.613328
0.964808
1.252460
1.305340
1.234919
1.164550
0.786104
0.420580
0.126398
-0.163003
-0.413830
-0.317136
-0.296620
-0.241768
-0.217596
-0.134006
-0.115938
-0.095313
-0.053038
-0.066948
0.045147
0.007593
-0.146333
-0.002532
0.009189
-0.053761
-0.111539
-0.039636
-0.019303
-0.058167
-0.024627
0.008236
-0.014168
-0.009284
-0.015329
0.047641
-0.008256
0.047615
0.110551
0.071962
0.151644
0.127891
0.135056
0.193912
0.246124
0.228017
0.269235
0.282505
0.329783
0.249096
0.294888
0.385672
0.352301
0.421056
0.369031
0.376280
0.404195
0.395544
0.434056
0.379935
0.293290
0.435885
0.420612
0.384230
0.492378
0.409300
0.450152
0.431517
0.388984
0.359804
0.334164
0.336359
0.335527
0.264314
0.256873
0.263119
0.223969
0.211101
0.166254
0.122373
0.127127
0.106135
0.169716
0.156378
0.088786
0.074100
0.082450
0.055172
0.067054
0.015107
0.009739
0.017760
-0.024409
-0.102880
-0.106814
-0.026033
-0.038663
-0.007685
-0.092409
0.001245
-0.049706
-0.206705
-0.113640
-0.044040
-0.096791
-0.151330
-0.082852
-0.052599
0.005943
-0.105250
-0.132389
-0.145388
-0.079542
-0.079997
-0.084246
-0.132195
-0.110336
-0.078595
-0.062915
-0.048255
-0.003786
0.010995
-0.116972
-0.115753
-0.132070
-0.072156
-0.082202
0.031822
-0.049060
-0.104175
-0.096821
-0.077888
-0.044871
-0.073362
-0.088204
-0.028910
-0.091527
-0.048074
-0.065808
-0.076132
-0.077991
-0.090164
-0.079760
-0.050275
-0.114762
-0.077013
-0.071770
-0.048143
-0.098482
-0.103814
-0.109781
-0.022697
-0.059515
-0.094954
-0.056139
-0.052712
0.022247
-0.005296
-0.062814
-0.109310
-0.127359
-0.105089
-0.079253
-0.035205
-0.114048
-0.084407
-0.008547
-0.049295
-0.018959
-0.066144
-0.000243
0.065290
-0.130957
-0.101523
-0.035911
0.114440
0.055210
0.050099
0.075095
0.081097
0.065592
0.034370
0.108185
0.092321
0.057410
0.053610
0.153140
0.017656
0.111674
0.123743
0.117601
0.075438
0.105179
0.053487
0.098122
0.095552
0.055123
0.055005
0.028364
0.092378
0.093244
-0.016000
0.031148
-0.082550
-0.090825
-0.032709
-0.080116
0.025965
-0.119051
0.013885
-0.029048
0.007027
-0.005168
0.021779
-0.002668
-0.001706
-0.086536
-0.094693
0.025481
-0.066830
-0.061758
-0.062569
-0.047552
0.003078
-0.048185
-0.085876
-0.080487
-0.014932
-0.024175
0.116661
0.298070
0.766182
1.056683
1.193393
1.406548
1.200182
1.033373
0.705980
0.353016
0.082513
-0.197024
-0.347688
-0.308631
-0.192446
-0.214203
-0.126565
-0.012226
-0.116117
-0.024609
-0.041675
-0.007360
-0.080368
-0.055504
-0.044870
-0.014201
0.015678
0.020806
-0.025293
0.042160
0.005832
-0.019200
0.029955
0.016703
-0.040475
0.043636
0.041856
0.158174
0.107028
0.075720
0.186086
0.084185
0.223111
0.192602
0.170460
0.169405
0.266245
0.296654
0.357582
0.373658
0.299528
0.390416
0.345588
0.439182
0.408404
0.476120
0.404162
0.475606
0.499133
0.531570
0.424846
0.467945
0.456647
0.510786
0.418982
0.450704
0.543396
0.460907
0.533598
0.462980
0.416573
0.403910
0.390271
0.400419
0.398732
0.378865
0.365559
0.247519
0.292657
0.260187
0.222793
0.278870
0.231017
0.259038
0.135701
0.183635
0.100598
0.212081
0.082797
0.015899
0.101707
0.044800
0.042606
0.156732
0.059732
0.060863
0.066578
-0.023395
0.009019
0.066041
0.059364
0.053635
0.075715
-0.023679
0.053972
0.116713
-0.003620
0.028971
0.022210
0.052332
0.004604
0.099561
0.056598
-0.031584
0.097118
-0.029687
0.034475
0.078919
0.008845
-0.017223
0.004426
0.016497
0.067184
0.028606
-0.032303
0.075461
0.015777
0.039903
0.052683
-0.041034
0.002403
0.077318
0.048217
-0.001699
0.055299
0.033641
-0.017711
0.029237
0.128425
0.026453
0.017677
0.008601
0.078152
0.038660
0.025112
-0.020413
0.058237
0.034990
0.070690
-0.013466
0.009941
0.084686
0.059606
0.053041
0.023829
0.004692
-0.002470
0.101071
0.047547
0.053261
0.053981
0.029988
0.096649
0.064486
0.013627
0.040983
0.041624
0.035075
0.049573
0.153272
0.029983
0.061692
0.120333
0.100040
0.066559
0.108788
0.057070
0.111673
0.157229
0.123072
0.099455
0.142702
0.165158
0.160950
0.201586
0.244279
0.198853
0.271038
0.261033
0.237613
0.203233
0.178487
0.132527
0.249701
0.266180
0.253806
0.162092
0.234358
0.153690
0.108389
0.107090
0.148118
0.182910
0.142816
0.075235
0.132784
0.110733
0.090529
0.033814
0.101549
0.102103
0.110418
-0.017978
0.060957
0.107862
0.093253
0.108161
0.059754
0.107527
0.119545
0.045982
0.033245
-0.002317
0.114266
0.057328
0.035930
0.008481
0.021186
-0.033306
-0.004160
0.083706
0.223096
0.507315
0.784949
1.180488
1.356912
1.348646
1.272860
1.099500
0.728729
0.343100
0.089579
-0.125687
-0.261217
-0.214343
-0.220029
-0.153569
-0.055131
0.028016
-0.067367
0.037663
0.122738
0.134298
0.103205
0.080653
0.146975
0.072531
0.145406
0.088075
-0.033115
0.122952
0.172034
0.063867
0.106681
0.175601
0.136134
0.097493
0.150556
0.183583
0.190483
0.229044
0.166165
0.300741
0.214751
0.269260
0.284741
0.271687
0.275684
0.329506
0.306712
0.426533
0.379433
0.417568
0.401588
0.387033
0.420796
0.494988
0.576094
0.543558
0.504246
0.505305
0.612106
0.543605
0.522355
0.521993
0.549793
0.496719
0.532699
0.573709
0.376752
0.565364
0.501167
0.456760
0.497674
0.388171
0.399701
0.407551
0.369106
0.287876
0.368483
0.233137
0.243406
0.320129
0.159524
0.192778
0.227497
0.180068
0.195587
0.194493
0.168621
0.144714
0.194774
0.085246
0.118069
0.023728
0.034965
0.133125
0.058136
0.080180
0.050254
0.042201
-0.013656
0.026381
0.026343
0.112356
0.042381
0.042693
-0.006591
0.056952
0.038535
-0.006826
0.026955
-0.014304
0.031227
-0.052426
-0.007941
0.012804
-0.009711
0.023887
0.142383
-0.008001
-0.005860
0.019570
0.022871
0.077734
-0.010198
0.015071
-0.020851
-0.041184
0.001631
0.023250
0.017548
0.076548
0.058652
0.021801
0.049220
0.030604
0.026118
-0.051948
-0.007380
0.048303
-0.043032
0.070791
0.024683
-0.014735
0.025927
0.062755
0.034407
0.054930
-0.048662
0.003732
0.002050
0.014679
0.042730
-0.022361
-0.065984
0.074264
0.017643
-0.007564
-0.023127
0.008547
-0.032463
0.020795
-0.047615
-0.031526
-0.003573
0.015730
-0.068701
0.009164
-0.020612
-0.127322
-0.037591
-0.018614
-0.038291
0.073062
0.074180
0.030898
0.018437
0.060502
0.077970
0.047106
0.076790
0.094416
0.068091
0.124635
0.104160
0.127300
0.143212
0.122370
0.198047
0.196514
0.047462
0.099092
0.165345
0.243823
0.147511
0.124560
0.160048
0.035410
0.110936
0.094979
0.051824
0.065147
0.051442
0.131117
0.060664
-0.013335
0.062109
-0.023708
0.041838
-0.058415
0.005226
-0.093641
0.013185
-0.016876
0.045597
0.015203
-0.094740
-0.040209
-0.076552
-0.022511
-0.030645
-0.010054
-0.060403
-0.027407
-0.051905
-0.055055
-0.006518
-0.108097
-0.026068
-0.060210
0.037039
0.210514
0.504241
0.798673
1.045035
1.330600
1.304385
1.127957
0.919100
0.469632
0.170757
-0.087676
-0.217828
-0.437897
-0.292840
-0.226922
-0.188973
-0.179091
-0.106651
-0.000034
-0.067877
0.018023
-0.046435
-0.006275
-0.056455
-0.061931
-0.003516
-0.041536
-0.041265
-0.018103
-0.021354
0.058126
-0.066381
-0.012584
-0.059362
0.014867
0.031593
0.038093
0.112786
0.106110
0.056655
0.085335
0.130056
0.139470
0.083788
0.191923
0.275102
0.283810
0.148701
0.248884
0.244671
0.273667
0.318633
0.338835
0.351615
0.295862
0.416657
0.335354
0.447769
0.388858
0.423807
0.393391
0.380555
0.487342
0.419690
0.353948
0.420160
0.417619
0.425324
0.317247
0.422830
0.336451
0.409758
0.331654
0.247570
0.237119
0.225795
0.235051
0.207910
0.136613
0.196466
0.136635
0.067491
0.113570
0.110223
0.122857
0.093059
0.067705
0.070088
-0.031162
0.042332
0.004336
0.058500
-0.010072
-0.065972
0.080592
-0.001027
-0.058731
-0.000189
-0.092133
-0.036138
-0.068990
-0.003324
-0.053565
-0.077286
-0.095244
-0.149280
-0.048626
-0.113906
-0.126339
-0.107761
-0.039093
-0.131169
-0.107301
-0.054744
-0.128835
-0.068568
-0.047658
-0.170770
-0.083969
-0.030592
-0.077744
-0.097679
-0.165873
-0.056623
-0.071252
-0.102982
-0.044240
-0.075726
-0.137615
-0.099183
-0.062984
-0.121449
-0.119151
-0.115738
-0.101882
-0.151008
-0.052084
-0.055015
-0.139855
-0.075372
-0.022114
-0.092361
-0.160389
-0.045454
-0.139840
-0.193115
-0.119421
-0.069111
-0.036723
-0.041070
-0.077068
-0.113596
-0.158422
-0.095031
-0.121601
-0.128263
-0.099963
-0.123009
-0.093544
-0.086831
-0.100181
-0.132315
-0.157603
-0.106472
-0.093997
-0.052189
-0.025838
-0.059246
-0.122114
-0.108492
0.010342
-0.103401
-0.098868
-0.134436
-0.003819
-0.068635
0.008085
-0.067097
-0.004798
0.048906
0.016961
0.083211
0.009926
0.014720
0.086641
0.043153
0.085687
0.038514
0.058970
0.039551
0.052759
0.138080
0.109844
0.167500
0.131910
-0.041758
0.175252
0.075382
0.029970
0.071578
0.066036
0.023548
0.069049
0.049119
0.073859
-0.045010
0.028890
-0.056732
-0.022036
-0.147558
-0.027837
-0.012834
0.027894
-0.118725
-0.147878
-0.125440
-0.081679
-0.102076
-0.091086
-0.074776
-0.132152
-0.044637
-0.065383
-0.133815
-0.123337
-0.049432
-0.092548
-0.020150
-0.115561
-0.092557
0.045015
0.340643
0.558504
0.887621
1.091235
1.249351
1.336061
1.056580
0.776462
0.397437
0.040393
-0.187629
-0.327005
-0.315491
-0.303570
-0.227906
-0.187800
-0.084721
-0.106496
-0.126984
-0.080438
-0.041624
-0.095897
-0.026339
-0.028400
-0.072054
-0.015457
-0.022706
-0.009163
-0.058904
0.061052
0.025324
-0.111519
-0.042870
-0.017373
0.034441
0.026228
0.032165
0.052756
0.052583
0.077604
0.100978
0.194669
0.250487
0.205825
0.193767
0.226038
0.277758
0.295975
0.372656
0.247741
0.368881
0.287730
0.302156
0.375939
0.449708
0.409159
0.454226
0.414104
0.422629
0.436720
0.437665
0.457504
0.477400
0.439210
0.363546
0.456759
0.383436
0.497004
0.406233
0.440487
0.386205
0.344338
0.440405
0.294249
0.385271
0.407962
0.311696
0.228153
0.294862
0.244270
0.187819
0.168548
0.105438
0.224152
0.111666
0.057519
0.089145
0.132563
0.082942
0.033170
0.050957
0.101035
0.026824
-0.032475
0.041547
-0.009426
-0.037198
-0.015475
-0.004731
-0.053069
-0.054079
-0.004217
-0.012428
-0.051923
0.001872
0.025636
-0.023346
-0.049444
-0.008172
-0.032470
0.017068
-0.035795
-0.024476
-0.042037
-0.024654
-0.011883
-0.004183
-0.009387
0.068111
-0.013651
0.035353
-0.016950
0.026966
-0.009348
-0.035623
0.001937
0.062038
0.020543
0.060272
-0.007661
-0.055390
-0.014427
0.015701
-0.023159
-0.069850
0.021149
-0.028646
-0.013459
0.028784
0.033113
0.067889
0.018695
-0.034230
-0.042085
0.055180
-0.053170
0.010189
0.030239
-0.001565
0.118466
0.046386
0.039459
-0.022414
0.009258
-0.021349
-0.005905
0.009781
-0.058886
0.019256
0.079567
-0.010333
-0.023488
-0.026578
0.026476
0.107411
-0.010241
-0.024506
0.014009
0.099155
0.118158
0.044169
0.084805
0.043957
0.143677
0.034632
0.043814
0.089227
0.101373
0.075116
0.176675
0.195967
0.158565
0.152362
0.241252
0.212374
0.233204
0.174463
0.193793
0.118943
0.240109
0.133546
0.269230
0.311516
0.235489
0.129243
0.248437
0.154156
0.147095
0.222737
0.232382
0.074530
0.037298
0.092760
0.122019
0.035623
0.023194
0.069759
0.104762
0.056936
0.083427
0.125658
0.087352
0.049145
0.087164
0.106563
0.129983
0.056153
0.053388
0.011189
0.063532
0.083912
0.040802
0.070856
0.026526
0.003420
0.067696
0.020034
0.071008
-0.073450
0.017736
0.183717
0.440359
0.787418
1.106043
1.305431
1.433276
1.384533
1.082891
0.825782
0.517131
0.129612
-0.079351
-0.311628
-0.184592
-0.133190
-0.196636
-0.089920
0.099553
0.055977
0.055129
0.149599
0.012207
0.129371
0.042972
0.049893
-0.027219
0.111489
0.040254
0.084082
0.036807
0.044461
0.155308
0.146318
0.066223
0.135598
0.162306
0.136431
0.194781
0.212654
0.155689
0.197601
0.175271
0.279163
0.298316
0.328772
0.313863
0.301468
0.314757
0.352510
0.429186
0.388851
0.477422
0.479784
0.528071
0.478811
0.495587
0.539119
0.562420
0.496259
0.663406
0.605900
0.626195
0.501183
0.564948
0.575976
0.587796
0.614461
0.547680
0.412777
0.519096
0.491751
0.505663
0.460653
0.471233
0.454170
0.438428
0.464732
0.395049
0.367959
0.366151
0.351467
0.339197
0.305531
0.244369
0.302853
0.238849
0.310330
0.212406
0.271788
0.251616
0.185935
0.176328
0.125158
0.040983
0.154104
0.145859
0.053137
0.120589
0.098857
0.027367
0.119088
0.080368
0.080815
0.087144
0.097420
