0.029799
0.018502
-0.125606
-0.002598
-0.023617
0.008969
0.026977
0.014018
-0.046656
0.060493
-0.005809
-0.030235
0.096582
0.040420
0.041480
0.007632
-0.009574
0.021144
-0.040833
0.114021
0.097851
0.069831
0.139258
0.059718
0.115372
0.088896
0.054727
0.125211
0.003774
0.138834
0.122951
0.190097
0.125509
0.154793
0.138318
0.234206
0.202983
0.260722
0.218315
0.273320
0.158614
0.135538
0.173831
0.189214
0.092742
0.150820
0.184458
0.059414
0.186945
0.109516
0.184398
0.119905
0.095808
-0.018487
0.083629
0.111638
0.106711
0.081367
0.032402
0.038295
0.064589
0.108519
0.009418
0.067945
0.092836
0.003882
0.072468
0.001755
0.030829
0.068660
0.269442
0.408035
0.740523
1.052014
1.262250
1.478579
1.444910
1.085221
0.721010
0.334099
0.063589
-0.097796
-0.147509
-0.078148
0.004259
-0.013609
-0.005902
0.056715
0.156825
0.107301
0.100749
0.167653
0.142015
0.167091
0.143583
0.219830
0.226411
0.190807
0.297190
0.189472
0.260455
0.252500
0.310314
0.268973
0.321084
0.353057
0.286912
0.355930
0.455366
0.436359
0.465221
0.462244
0.460556
0.532788
0.442445
0.562978
0.594048
0.526026
0.596688
0.617480
0.644116
0.602693
0.547289
0.619067
0.569662
0.595117
0.543043
0.539166
0.623132
0.582582
0.623356
0.526755
0.455454
0.472551
0.443548
0.500240
0.364449
0.501531
0.407436
0.382927
0.314685
0.327308
0.368684
0.362782
0.280484
0.289426
0.165051
0.076037
0.206949
0.147994
0.198717
0.128009
0.139863
0.243823
0.052776
0.182458
0.110599
0.073430
0.129519
0.136700
0.061460
0.109343
0.059713
0.057832
0.148653
0.085319
0.039718
0.118317
0.057445
0.019706
-0.008161
0.113396
0.095703
0.097924
0.018136
0.011332
0.145819
0.082845
0.121846
0.009232
0.143854
0.115407
0.075450
0.097511
0.112156
0.059742
0.114310
0.040629
0.107626
0.033326
0.066026
0.075531
0.126863
0.062616
0.130871
0.079338
0.048628
0.071497
0.119734
0.109617
0.049470
0.105645
0.071919
0.121681
0.036236
0.060748
0.129079
0.147261
0.134264
0.176790
0.144295
0.102778
0.225464
0.175369
0.263324
0.151322
0.185569
0.198556
0.212312
0.198455
0.251492
0.243034
0.347199
0.213796
0.186012
0.323371
0.270714
0.269185
0.217110
0.317906
0.263979
0.256679
0.199035
0.184958
0.232788
0.136713
0.230740
0.140154
0.128918
0.171687
0.201697
0.128150
0.129825
0.166000
0.116123
0.126805
0.134411
0.160129
0.117073
0.049731
0.083655
0.101007
0.112315
0.080529
0.133360
0.071881
0.165927
0.183377
0.386162
0.635129
0.937088
1.272210
1.481577
1.387841
1.327046
0.912584
0.575219
0.274084
-0.026925
-0.118017
-0.071869
-0.083811
-0.013709
0.091236
0.117408
0.045151
0.103373
0.074437
0.193040
0.137466
0.178397
0.199684
0.172779
0.264128
0.201205
0.257748
0.262587
0.312633
0.318173
0.262887
0.262946
0.288988
0.337691
0.419153
0.374914
0.396506
0.524901
0.425119
0.429578
0.555600
0.465188
0.505634
0.499478
0.472910
0.476764
0.599462
0.596523
0.619019
0.633516
0.666411
0.616289
0.563703
0.588932
0.541778
0.489518
0.606399
0.552181
0.538207
0.475987
0.534760
0.470966
0.441600
0.434311
0.418499
0.372931
0.412373
0.355612
0.333441
0.260613
0.302324
0.252946
0.299089
0.180115
0.167391
0.156126
0.234589
0.141649
0.161564
0.210926
0.143359
0.131093
0.129311
0.064028
0.163566
0.068733
0.072889
0.024125
0.069820
0.022786
-0.052049
0.063193
0.026449
0.052440
0.045108
0.016684
-0.004508
-0.018992
0.057935
-0.035736
0.047734
0.103756
0.033160
-0.067987
-0.076576
0.042592
0.070075
-0.024427
-0.030724
0.047569
0.081654
0.076982
-0.009496
0.015978
0.007691
-0.014446
0.040325
0.007739
0.007206
-0.018003
0.000161
0.017527
0.028993
-0.024770
0.040996
0.008817
-0.052783
0.040544
0.047153
-0.042271
0.077531
-0.045593
0.098611
0.058780
0.148734
0.014736
0.057202
0.082165
0.020481
0.074316
0.121227
0.069866
0.086176
0.116337
0.136173
0.099495
0.162002
0.079290
0.190878
0.124802
0.193692
0.225396
0.121284
0.194299
0.215854
0.135853
0.140832
0.064954
0.141330
0.175010
0.099217
0.128320
0.063724
0.160913
0.073802
0.139790
0.155644
-0.042294
0.065707
0.083842
0.119213
0.029665
0.012412
-0.042223
0.073692
-0.006595
0.050114
0.064110
0.013706
0.025713
0.062516
-0.017814
-0.061202
0.044305
-0.046741
0.057658
0.199974
0.339910
0.669398
1.072887
1.267940
1.376124
1.250763
1.042340
0.674740
0.266732
0.055490
-0.182516
-0.179947
-0.161916
-0.078446
-0.136190
0.025624
-0.024079
-0.018735
0.033608
-0.000280
-0.027095
-0.042992
0.013671
0.121360
0.135953
0.040351
0.089621
0.138352
0.162210
0.172400
0.159715
0.155087
0.216900
0.224240
0.245531
0.202894
0.333805
0.318206
0.298221
0.419223
0.392811
0.313798
0.401082
0.422339
0.424802
0.479726
0.540128
0.481388
0.494416
0.524359
0.406976
0.448217
0.525600
0.479241
0.447547
0.500427
0.492433
0.447531
0.419808
0.385395
0.374015
0.329920
0.365466
0.406219
0.258788
0.305184
0.306954
0.239196
0.228012
0.198121
0.191040
0.212347
0.194973
0.157864
0.053063
0.125577
0.062314
0.125879
0.028211
0.065399
0.088122
-0.078664
0.002546
0.001944
-0.029450
-0.027074
-0.010869
-0.080630
0.079155
-0.022098
0.000706
-0.051123
-0.092213
-0.001198
-0.038174
-0.024032
-0.006732
0.006835
-0.041659
-0.026962
-0.077464
-0.021845
-0.060889
-0.006846
-0.008484
-0.091720
-0.001803
-0.020813
0.041836
-0.008687
0.012287
-0.094269
-0.106510
0.029967
-0.014170
-0.088111
-0.121384
-0.064738
-0.008668
0.009325
-0.016987
-0.090263
-0.125988
-0.023538
-0.013421
-0.065402
-0.072903
-0.009324
-0.002201
0.079237
0.048278
0.013942
-0.024317
-0.047729
-0.026625
0.002750
-0.052898
-0.009281
0.034863
0.001004
-0.010142
0.034170
0.005792
0.093458
0.118021
0.119556
0.097856
0.173237
0.058609
0.067258
0.124039
0.186570
0.083184
0.230476
0.114913
0.143333
0.124741
0.177283
0.156711
0.061089
0.042112
0.112970
0.193537
0.049825
0.038119
0.066971
0.020057
0.031266
-0.005988
0.016134
-0.012721
0.021458
0.040979
0.061109
-0.041120
-0.069180
-0.024490
-0.023294
0.056007
-0.044618
-0.089032
-0.087728
-0.036325
-0.026253
-0.086365
0.023087
0.038567
0.239383
0.589097
0.830930
1.120184
1.375259
1.389319
1.191512
0.917799
0.452016
0.084459
-0.111213
-0.235447
-0.106596
-0.223071
-0.110985
-0.089722
-0.026424
0.092322
0.004745
0.036980
0.060396
-0.021113
0.037893
0.033324
0.082986
0.055096
0.164709
0.217966
0.182364
0.162215
0.131153
0.251959
0.170146
0.159655
0.271371
0.352864
0.331263
0.277993
0.296790
0.346673
0.355117
0.427859
0.415477
0.403499
0.420550
0.466624
0.501591
0.426058
0.477709
0.441115
0.522188
0.553969
0.541740
0.514864
0.475597
0.461891
0.533702
0.456349
0.521016
0.433806
0.409886
0.458471
0.429445
0.379379
0.291304
0.349256
0.239072
0.325640
0.219369
0.333697
0.194407
0.147903
0.172795
0.215032
0.243125
0.184006
0.175659
0.042010
0.142360
0.028342
0.040110
0.101199
0.068285
0.050837
0.035601
0.109037
0.012244
0.003482
-0.049114
0.028754
0.005646
0.029511
0.003066
0.067920
0.190433
0.038729
0.009422
-0.071471
-0.025235
0.022685
-0.042066
0.014344
0.011225
-0.008299
0.087799
0.093750
0.024729
0.046193
-0.061525
0.086722
0.028700
0.012745
0.031680
0.020106
0.013576
0.035612
0.079845
0.038846
0.037343
0.012303
0.050445
0.011768
-0.030489
0.050504
0.055655
0.021147
0.062799
0.041341
0.004556
-0.060602
-0.014422
0.039876
0.098530
0.010692
0.104608
0.144356
0.027610
0.015224
0.006370
0.082588
0.051163
0.077973
0.184073
0.101871
0.196452
0.188615
0.099646
0.090423
0.235108
0.197309
0.161738
0.192342
0.240124
0.236039
0.155617
0.308337
0.160455
0.181806
0.231288
0.310426
0.143091
0.132507
0.187816
0.097919
0.129535
0.228524
0.240832
0.141114
0.180207
0.197863
0.116821
0.106504
0.201261
0.093432
0.022763
0.084714
0.091548
0.059990
0.101864
-0.011175
0.138741
0.122089
0.074041
0.081086
0.029417
0.035312
0.083657
0.238245
0.409915
0.814213
1.054378
1.240885
1.500000
1.272219
1.156161
0.748961
0.420428
0.073728
-0.110146
-0.105342
-0.096678
-0.081680
-0.043770
0.103509
0.129866
0.103867
0.164610
0.144707
0.145746
0.034948
0.101946
0.208828
0.196123
0.238186
0.220952
0.292178
0.266813
0.143237
0.260328
0.232814
0.410941
0.337090
0.388366
0.384718
0.399695
0.373671
0.381129
0.463760
0.516549
0.480348
0.551714
0.547986
0.570068
0.566284
0.550169
0.559770
0.574850
0.604635
0.507683
0.522482
0.591647
0.556774
0.508609
0.522603
0.582476
0.581634
0.571573
0.540561
0.581414
0.406410
0.400850
0.425243
0.400186
0.474147
0.443658
0.417102
0.423215
0.361126
0.363802
0.282992
0.277087
0.317995
0.102832
0.227196
0.125046
0.262157
0.172140
0.236254
0.219208
0.145800
0.197596
0.192258
0.170457
0.217744
0.086160
0.124259
0.165642
0.148797
0.168217
0.034709
0.117572
0.144281
0.085318
0.205728
0.063778
0.082975
0.051192
0.106033
0.087605
0.124354
0.162959
0.033672
0.122741
0.101452
0.033196
0.038419
0.023219
0.044430
0.075405
0.176373
0.072614
0.008524
0.171408
0.203276
0.099637
0.095273
0.098479
0.090401
0.096468
0.081832
0.153006
0.094170
0.124013
0.164678
0.169837
0.052032
0.041840
0.086258
0.067909
0.053078
0.143494
0.134696
0.020117
0.127980
0.147223
0.165549
0.120008
0.099638
0.173678
0.200146
0.248933
0.156965
0.211763
0.159505
0.269960
0.218841
0.198733
0.178697
0.276669
0.276584
0.264802
0.257931
0.219066
0.221101
0.256806
0.274087
0.387114
0.206254
0.252893
0.280616
0.166974
0.209798
0.222053
0.130396
0.198232
0.255773
0.185088
0.142290
0.148327
0.126831
0.160179
0.094396
0.049644
0.077598
0.094971
0.110972
0.115462
0.130614
0.061575
0.083430
0.091813
0.088198
0.098432
0.101035
0.122075
0.341477
0.678683
0.930285
1.173204
1.412156
1.421996
1.305523
0.973297
0.561123
0.275768
0.047450
-0.098135
-0.159789
-0.047813
0.020497
0.058685
0.124396
0.076781
0.107310
0.082988
0.027204
0.009141
0.171761
0.189834
0.243972
0.223286
0.219978
0.242846
0.187233
0.221765
0.279642
0.348119
0.257616
0.337192
0.294450
0.292907
0.363326
0.327918
0.347010
0.560699
0.451078
0.450626
0.493373
0.471913
0.533304
0.566610
0.586717
0.548759
0.582444
0.597262
0.505334
0.618677
0.548398
0.632128
0.511982
0.569200
0.557378
0.545762
0.462350
0.484556
0.491677
0.420595
0.512960
0.467896
0.468236
0.463796
0.389322
0.321552
0.270663
0.354566
0.269862
0.259721
0.282699
0.236884
0.246311
0.222476
0.211197
0.213261
0.140321
0.181446
0.159512
0.163988
0.091267
0.060904
0.043992
0.069062
0.119958
0.091099
0.024082
0.078541
0.079716
0.023423
0.011924
0.046557
0.032201
0.103274
0.073211
0.024369
0.017403
-0.026509
0.076161
0.010668
0.051322
0.062415
0.015376
0.065397
0.019718
0.035531
0.015333
0.038054
0.016537
-0.007540
0.045537
-0.041971
-0.061966
0.024375
0.105826
-0.021815
0.048506
-0.008840
-0.005798
0.052905
0.067947
0.005553
0.037719
0.004697
-0.047081
-0.063906
0.044854
-0.009136
-0.003768
0.041522
-0.004327
0.011592
0.105790
0.033704
0.067334
0.079799
0.074206
0.114239
0.053221
0.073363
0.065098
0.059175
0.076894
0.159903
0.151439
0.057160
0.121177
0.133048
0.179168
0.276001
0.136206
0.197003
0.180673
0.082650
0.171381
0.166981
0.144587
0.140163
0.140252
0.112647
0.068622
0.116934
0.115485
0.032277
0.089496
0.013425
-0.012054
0.083751
0.028626
-0.010402
-0.020974
-0.004675
0.017519
0.067656
0.060393
0.011326
0.064010
0.028254
0.010133
-0.004506
0.027573
0.049546
0.030850
-0.013790
0.038524
0.172301
0.406875
0.614497
0.889132
1.278645
1.366801
1.305678
0.995238
0.608379
0.235255
-0.025457
-0.174374
-0.175360
-0.147761
-0.094997
-0.060758
-0.070069
-0.007559
-0.083088
0.004445
0.089536
0.083441
-0.015147
0.067382
0.056398
0.058360
0.081163
0.088345
0.073683
0.140630
0.148283
0.210866
0.152123
0.217171
0.232173
0.198912
0.185041
0.193416
0.276466
0.261420
0.386376
0.403800
0.371921
0.381534
0.357913
0.382211
0.441316
0.442165
0.416536
0.392733
0.457347
0.500302
0.525914
0.488875
0.546758
0.527018
0.386757
0.530755
0.430277
0.476864
0.441774
0.317909
0.364807
0.342615
0.348140
0.227050
0.301932
0.228573
0.252113
0.263558
0.248042
0.162164
0.158592
0.093777
0.171697
0.099380
0.065054
0.036212
0.038913
0.046438
0.003983
0.017406
-0.089004
0.073077
-0.049997
0.016133
0.029966
-0.083881
-0.032406
-0.051957
-0.054126
-0.029436
-0.039280
-0.125201
-0.061750
-0.020999
-0.026109
-0.009300
-0.126457
-0.021764
0.058868
-0.154018
-0.047289
0.010797
-0.112218
-0.054754
-0.167921
-0.041149
0.007284
-0.131136
-0.077725
-0.158700
-0.092439
-0.070735
-0.084641
-0.001095
-0.032347
-0.025437
-0.045852
-0.129877
-0.037258
-0.023703
-0.215420
-0.081210
-0.136659
-0.009190
0.014444
-0.103335
-0.005766
-0.104878
-0.120033
-0.141434
-0.129236
-0.050664
-0.114075
-0.026997
0.023458
-0.004641
-0.051257
-0.050860
-0.031158
-0.008898
-0.059788
-0.031992
-0.084057
0.018562
0.056829
0.005421
0.017659
0.091830
0.095301
0.065356
0.065726
0.120908
0.154885
0.066401
0.145674
0.067091
0.097169
0.110617
0.138314
0.104662
0.126797
-0.011259
0.035653
0.002101
-0.056148
0.013221
0.005572
-0.007440
0.011799
-0.050927
-0.076109
-0.005757
0.011941
-0.018162
-0.083165
-0.051529
-0.059091
-0.130059
-0.024608
-0.007495
-0.100943
-0.054482
-0.069156
-0.043438
-0.035811
0.075008
0.208277
0.471848
0.779339
1.090757
1.317104
1.318965
1.107657
0.832349
0.410705
0.070843
-0.167432
-0.218187
-0.184655
-0.261391
-0.167675
-0.117659
-0.017011
-0.027619
0.046599
-0.036533
0.016233
0.066954
0.087254
0.039939
0.070943
0.087337
0.053411
0.012429
0.111958
0.062532
0.121568
0.081608
0.239396
0.173613
0.233845
0.224260
0.236685
0.275283
0.300981
0.276229
0.306145
0.315509
0.321502
0.408005
0.374372
0.444049
0.455698
0.458297
0.455953
0.514018
0.463489
0.446015
0.388246
0.417597
0.421286
0.447193
0.438965
0.478453
0.376194
0.402343
0.361811
0.272699
0.334189
0.359626
0.349319
0.275773
0.309163
0.305720
0.217966
0.286365
0.210573
0.220666
0.170856
0.108224
0.120006
0.073578
0.143325
0.046163
0.064378
0.065065
0.054099
0.028158
0.038483
-0.105365
0.079121
0.018205
0.021631
-0.051818
-0.034297
-0.011338
-0.025144
-0.019969
-0.041733
-0.072261
-0.015527
-0.079403
0.011714
-0.049254
-0.049393
0.001286
0.062416
0.036296
-0.022829
0.023741
0.000045
0.021001
0.054600
0.082375
-0.058501
-0.011094
-0.040117
0.033764
-0.058372
0.027797
-0.020681
-0.035219
0.060595
-0.079645
-0.017449
-0.036334
0.006422
-0.097219
0.066402
0.031957
-0.080336
-0.142642
0.040834
0.000824
-0.004446
-0.021980
0.019878
0.092552
-0.031107
-0.059108
0.049210
0.030081
0.019373
-0.009119
-0.000836
0.018937
0.016676
0.088548
0.110543
-0.004976
0.035788
0.031512
0.138747
0.117320
0.154058
0.136717
0.140121
0.144509
0.128317
0.183547
0.196908
0.087812
0.238518
0.206615
0.233527
0.143640
0.077431
0.195351
0.110857
0.131461
0.111333
0.119569
0.039138
0.159100
0.043941
0.061238
0.056459
0.083146
0.062864
0.020148
-0.021679
0.085483
0.107678
-0.060774
-0.021698
0.046203
-0.040163
0.034705
0.010184
-0.021003
-0.038820
0.062871
0.067098
0.233308
0.437031
0.775619
1.030406
1.193379
1.450791
1.328529
1.030289
0.731086
0.328462
0.052793
-0.163909
-0.155854
-0.206215
-0.129518
-0.014326
0.041726
0.050515
0.033765
0.016921
0.101217
0.159742
0.097681
0.130960
0.087607
0.122541
0.027298
0.119186
0.190974
0.199812
0.282101
0.267400
0.225948
0.304238
0.174224
0.365464
0.319273
0.338697
0.366547
0.342548
0.504802
0.423188
0.441151
0.445616
0.527942
0.548519
0.492073
0.518382
0.622087
0.536155
0.619044
0.555191
0.527591
0.535501
0.562545
0.490676
0.570707
0.591410
0.428064
0.578921
0.514838
0.479523
0.466170
0.452914
0.417547
0.395817
0.309597
0.338095
0.321319
0.318612
0.227386
0.282214
0.270790
0.207833
0.143355
0.273211
0.101807
0.201145
0.141613
0.080404
0.152325
0.042548
0.007653
0.128157
0.149934
0.104684
0.100806
0.037145
0.049920
0.068912
0.118995
-0.032238
0.109988
0.083833
0.101392
0.021789
0.072662
0.033321
0.074323
0.065112
0.046087
0.023477
0.000631
0.080510
0.041438
0.029774
0.036364
0.023860
0.125831
0.039064
0.053331
0.070147
0.094026
0.056315
0.067668
0.037340
0.025624
-0.033830
0.135347
0.073073
-0.010501
0.062728
0.117788
0.076209
-0.002397
0.034439
0.061599
0.030207
0.106000
0.082224
-0.012359
0.007538
0.067567
0.126913
0.064806
0.073359
0.047930
0.121049
0.083934
0.163912
0.106862
0.134190
0.113793
0.092529
0.246568
0.142419
0.146234
0.232260
0.279496
0.144385
0.222538
0.217188
0.279824
0.274443
0.225712
0.251372
0.207559
0.239668
0.190683
0.230676
0.173020
0.179325
0.218609
0.150335
0.235999
0.151189
0.200027
0.125887
0.115491
0.109295
0.089150
0.004375
0.078993
0.099506
0.067931
-0.043896
0.046591
0.034275
0.051998
0.052303
0.024900
0.056282
0.043402
0.049012
0.074697
0.016039
0.121028
0.119379
0.286428
0.520165
0.883941
1.173094
1.339069
1.408387
1.170319
0.873646
0.554149
0.152120
0.016442
-0.158970
-0.186752
-0.136608
-0.081750
-0.014613
-0.038062
0.029533
0.086972
0.005860
0.073316
0.062056
0.116163
0.154928
0.126406
0.161849
0.175929
0.207483
0.226504
0.251433
0.151766
0.249752
0.330490
0.279874
0.305856
0.324126
0.306954
0.337688
0.277113
0.317887
0.447224
0.465486
0.489721
0.468378
0.458859
0.492944
0.502912
0.501539
0.539521
0.590195
0.530311
0.442374
0.507925
0.575988
0.537141
0.512187
0.571888
0.545827
0.520636
0.525922
0.451594
0.450996
0.418349
0.490462
0.342973
0.417465
0.358144
0.333981
0.262109
0.304119
0.227249
0.228646
0.234583
0.208795
0.193108
0.174072
0.124656
0.155856
0.045977
0.117254
0.125004
0.054683
0.104592
0.077625
0.148552
0.041093
0.009346
0.092310
0.067672
-0.030808
-0.014281
-0.039917
-0.014720
0.036107
-0.049948
0.026946
-0.093188
0.020821
-0.063926
-0.004544
0.016043
0.023299
-0.064287
0.030206
-0.027965
-0.022861
-0.077931
-0.001080
0.022403
0.030780
0.040341
-0.001341
-0.025850
-0.020212
0.006918
-0.004798
-0.090541
-0.024071
0.129458
-0.059859
-0.021867
-0.084302
0.041967
0.008717
0.042000
0.060998
-0.045534
-0.120865
-0.048677
-0.028259
-0.023009
0.015130
0.008960
-0.034508
0.028761
-0.030876
-0.037663
0.016353
0.033889
-0.019340
-0.018222
0.170396
0.050941
0.026873
0.113362
0.061284
0.078668
0.097961
0.075994
0.196218
0.170634
0.110856
0.129481
0.154512
0.172033
0.114676
0.077639
0.158146
0.191186
0.162513
0.094896
0.097210
0.048392
0.098625
0.050495
0.054414
0.075075
-0.054940
-0.024547
0.098556
0.014419
-0.005425
0.013309
0.030198
0.019914
-0.044880
-0.052224
-0.110105
-0.134214
-0.071650
-0.053019
-0.080508
-0.127210
-0.074057
-0.038643
-0.125695
0.053850
0.103397
0.424464
0.653815
0.917680
1.249051
1.430187
1.268535
1.029410
0.599145
0.237673
0.001494
-0.290521
-0.256643
-0.228610
-0.149663
-0.072260
-0.107244
-0.065125
-0.048694
-0.100912
-0.040216
-0.016408
0.046676
-0.025480
0.077206
-0.035529
0.097485
0.086026
0.095315
0.020141
0.113649
0.252286
0.156769
0.131892
0.193549
0.252250
0.222906
0.332888
0.287194
0.249919
0.241529
0.291237
0.306901
0.359448
0.293580
0.392201
0.421183
0.415393
0.442497
0.485062
0.415303
0.425052
0.357687
0.437573
0.440079
0.468782
0.366509
0.436899
0.471880
0.408243
0.401865
0.316222
0.370403
0.346721
0.240907
0.314362
0.236139
0.294191
0.161900
0.134662
0.191154
0.117299
0.004109
0.082710
0.066480
0.066124
0.113388
0.063359
0.010951
0.051057
0.046867
0.098764
-0.073385
-0.033448
-0.125413
-0.083246
-0.080281
-0.082741
-0.166188
-0.133063
-0.087692
-0.111163
-0.122554
-0.105834
-0.094851
-0.049490
-0.093770
-0.089961
-0.087368
-0.165790
-0.109301
-0.038248
0.004575
-0.160083
-0.063619
-0.050849
-0.072599
-0.053385
-0.148085
-0.160135
-0.031445
-0.093159
-0.122938
-0.105290
-0.094010
-0.106135
-0.080457
-0.029169
-0.057461
-0.080238
-0.174594
-0.160755
-0.082214
-0.106402
-0.107794
-0.022147
-0.130363
-0.064015
-0.145477
-0.107922
-0.048392
-0.096725
-0.057854
-0.078735
-0.022728
0.055629
-0.065683
-0.127871
-0.008579
-0.076358
-0.084511
-0.060491
-0.032934
-0.007052
-0.030534
0.036760
-0.024232
0.030458
0.045154
0.016627
0.066317
0.121210
0.080737
0.025574
0.127401
0.071883
0.078176
0.073330
0.066951
0.098722
0.104342
0.069987
0.105060
0.076231
-0.012358
-0.029229
-0.010540
0.057088
0.010799
-0.042481
-0.124407
-0.031211
0.002254
-0.067260
-0.036052
-0.048093
-0.095390
-0.025468
-0.169216
-0.087974
-0.036368
-0.080848
-0.085662
-0.077324
-0.059041
-0.038685
0.046833
-0.040451
0.152171
0.425718
0.830103
1.031995
1.272740
1.205116
1.140655
0.810291
0.432942
0.046039
-0.167812
-0.301983
-0.317771
-0.250934
-0.310035
-0.093635
-0.095359
-0.103894
-0.132545
-0.039803
-0.022985
-0.079459
0.043436
0.010539
-0.012852
-0.109744
0.044435
0.029654
0.041607
0.151046
0.053593
0.038890
0.189688
0.149115
0.220453
0.360466
0.218396
0.244938
0.272994
0.311312
0.316081
0.391946
0.392008
0.370584
0.435533
0.391554
0.353585
0.382156
0.499099
0.472980
0.450717
0.418625
0.394892
0.449495
0.417035
0.447128
0.473833
0.483870
0.434686
0.451059
0.407220
0.290181
0.314587
0.396876
0.345475
0.335184
0.276532
0.260228
0.209051
0.162241
0.112876
0.252624
0.160479
0.146291
0.119404
-0.015328
0.078537
0.003093
0.053307
0.106359
-0.004588
0.035955
0.068706
-0.042850
0.015995
-0.086831
0.001001
-0.015768
-0.078369
0.023656
-0.054388
-0.010086
-0.000756
0.005018
-0.047555
0.055693
-0.093620
-0.047547
-0.039506
-0.020674
-0.058734
0.012882
-0.028137
-0.066501
-0.043888
-0.075576
-0.057693
-0.072210
-0.075847
0.046134
-0.041918
-0.039922
-0.089834
-0.072494
-0.049506
-0.026479
-0.034631
0.003348
-0.000682
-0.026353
-0.098096
0.019214
-0.092253
0.046706
-0.016540
-0.078367
-0.046008
0.018871
-0.051966
-0.071186
-0.034965
-0.058664
-0.003169
-0.037084
-0.017990
0.068544
-0.020780
-0.025628
0.112990
-0.044729
0.051672
0.041409
0.024482
0.025254
0.180018
0.092609
0.137667
0.112911
0.217184
0.185783
0.099026
0.189482
0.124225
0.108696
0.215044
0.124906
0.188907
0.168713
0.155786
0.129141
0.156744
0.127249
0.097620
0.116297
0.236810
0.078656
0.106365
0.107759
0.102026
0.069846
0.140090
0.040150
0.041183
0.063053
-0.008228
-0.036556
-0.010921
-0.013221
0.053311
0.069849
-0.055914
0.106960
-0.062513
0.031608
0.019021
-0.053323
0.160247
0.194836
0.362892
0.733031
1.031588
1.207620
1.364436
1.321782
1.020015
0.698095
0.340851
-0.047575
-0.141224
-0.168709
-0.212260
-0.035722
-0.074670
0.011009
-0.053890
0.123543
0.114065
0.093356
0.132630
0.035980
0.091544
0.146515
0.098328
0.158150
0.174669
0.152756
0.180509
0.186823
0.230238
0.237362
0.262294
0.281931
0.373371
0.322238
0.271560
0.434092
0.346433
0.490095
0.425807
0.467079
0.498583
0.506145
0.435673
0.553469
0.594993
0.495897
0.501732
0.538180
0.636301
0.554866
0.595555
0.646662
0.556701
0.478859
0.547654
0.530710
0.526738
0.564075
0.453146
0.456431
0.456255
0.450097
0.469284
0.373857
0.358471
0.281270
0.366666
0.272732
0.265839
0.246401
0.201028
0.206592
0.217034
0.182994
0.201144
0.178470
0.195261
0.127227
0.117879
0.216736
0.103851
0.074933
0.126177
0.040974
0.095739
0.116335
0.140674
0.055462
0.014176
0.097293
0.072355
0.121388
0.093300
-0.041312
0.021769
0.110145
0.110270
0.122689
0.074200
0.136334
0.035178
0.016069
0.134823
0.049570
0.061307
0.030509
0.059602
0.092512
0.083305
0.066191
0.055421
0.075647
0.063214
0.081464
0.098478
0.083510
0.036429
0.104983
0.042697
0.061831
0.070297
0.141171
0.039505
0.083069
0.067388
0.050143
0.114275
0.098838
0.079867
0.099085
0.138741
0.120805
0.084733
0.078135
0.136564
0.147444
0.115332
0.104114
0.139196
0.076979
0.178799
0.228569
0.146513
0.172591
0.189494
0.249209
0.314547
0.232826
0.203661
0.275893
0.196981
0.225095
0.244793
0.321517
0.284777
0.314378
0.255978
0.227516
0.199033
0.253827
0.201207
0.225107
0.245353
0.206417
0.251907
0.205203
0.112972
0.109668
0.070294
0.095838
0.082205
0.094239
0.162517
0.144245
0.076166
0.043071
0.058861
