0.024730
-0.087008
0.076335
-0.036303
-0.033885
-0.043136
0.081114
0.067943
-0.027607
-0.021890
0.046608
-0.011091
0.019203
-0.006642
0.066402
0.063971
-0.004068
0.065558
0.014072
-0.001982
0.105814
0.068750
0.052533
0.191531
0.109206
0.119474
0.229313
0.104333
0.168755
0.146996
0.233078
0.146428
0.187800
0.139285
0.197216
0.179296
0.192740
0.235853
0.226527
0.196869
0.223131
0.230915
0.161376
0.130490
0.144930
0.174274
0.165801
0.155764
0.114137
0.096842
0.119296
0.033048
0.130414
0.104177
0.093144
0.070721
0.131500
0.121587
0.077225
0.000423
0.068252
0.131276
0.063707
0.062125
0.060753
0.044410
0.013298
0.060707
0.065020
0.015850
0.094375
0.240326
0.491196
0.740204
1.017769
1.362193
1.435968
1.329311
1.084878
0.727661
0.373920
0.057408
-0.120953
-0.149734
-0.110706
-0.083369
-0.010002
0.031788
0.096511
0.056341
0.119934
0.044893
0.196910
0.162504
0.158919
0.175149
0.166981
0.114423
0.207501
0.225711
0.234900
0.232036
0.244637
0.201047
0.178748
0.339291
0.319401
0.344479
0.292066
0.348440
0.377224
0.400631
0.438744
0.514932
0.474647
0.473205
0.504876
0.612468
0.528424
0.518245
0.606706
0.552507
0.652969
0.642247
0.615035
0.645418
0.592269
0.526380
0.574537
0.556235
0.536079
0.611487
0.503748
0.540623
0.441430
0.443708
0.376379
0.426867
0.346920
0.280049
0.365972
0.294628
0.277058
0.269536
0.360376
0.295602
0.165126
0.142647
0.193690
0.181366
0.216516
0.144453
0.131484
0.176766
0.085429
0.150012
0.148438
0.066505
0.107562
0.154897
0.195441
0.213065
0.083194
0.086290
0.049987
0.043717
0.041161
0.072918
0.123181
0.109410
0.056795
0.034207
0.078053
0.063011
0.073068
0.047232
0.053735
0.103925
0.047177
0.096751
0.096713
0.143440
0.067973
0.008390
0.101694
0.128094
0.088424
0.052557
0.143421
0.111230
0.104241
0.074490
0.094529
0.042501
-0.020713
-0.001924
0.089165
0.110372
0.048031
0.130154
0.100739
0.123345
0.090213
0.029860
0.118687
0.116996
0.145740
0.098764
0.126050
0.177868
0.131701
0.118681
0.155354
0.122226
0.196786
0.051214
0.229535
0.165055
0.216811
0.199924
0.242240
0.275183
0.291324
0.267766
0.217520
0.240710
0.298106
0.221613
0.334709
0.286634
0.299726
0.257056
0.242898
0.249026
0.254658
0.238677
0.292438
0.145301
0.172589
0.235718
0.056833
0.166772
0.210104
0.217380
0.206374
0.145931
0.167091
0.151091
0.146769
0.093729
0.094428
0.063052
0.042081
0.104208
0.044227
0.099520
0.136550
0.098743
0.083718
0.085865
0.119274
0.344146
0.527532
0.884352
1.217442
1.376241
1.453147
1.327954
1.034499
0.640546
0.324640
0.101396
-0.110952
-0.074508
-0.051387
0.018332
0.015579
0.005424
0.098485
0.074731
0.141588
0.191146
0.189650
0.189815
0.113998
0.165399
0.167623
0.108937
0.165396
0.233974
0.241908
0.218944
0.236879
0.271325
0.305190
0.283672
0.325728
0.387708
0.404985
0.409258
0.365936
0.462582
0.454854
0.530831
0.470416
0.463705
0.544104
0.437033
0.534131
0.487971
0.537187
0.654731
0.515170
0.593269
0.617974
0.574566
0.553537
0.574991
0.553640
0.534738
0.577241
0.503572
0.442142
0.450254
0.474785
0.407117
0.420791
0.413026
0.402498
0.333263
0.411651
0.272701
0.244744
0.239779
0.237901
0.221640
0.196036
0.265618
0.244167
0.219115
0.110322
0.179996
0.148108
0.213887
0.161325
0.091808
0.166341
0.034667
0.112926
0.034018
0.076632
0.152851
0.038551
0.012171
0.028287
0.077657
0.065739
0.050588
0.039330
0.033524
0.088820
-0.016937
0.019869
0.075855
0.047093
0.008087
0.087259
0.028263
0.060786
0.045105
0.037047
0.007476
-0.007619
-0.032164
0.016475
0.012378
-0.007544
0.065629
0.016597
-0.068631
-0.040174
0.019035
0.040976
0.006600
0.101921
0.038864
-0.004235
0.080755
-0.021860
0.015694
0.099030
0.034796
0.029135
-0.074472
0.046592
0.076438
-0.013650
0.060706
0.051439
0.068285
0.151218
0.007703
0.004975
0.125128
0.114079
0.088785
0.016441
0.162183
0.195495
0.092009
0.217872
0.134620
0.213526
0.138296
0.175762
0.164490
0.117380
0.188454
0.205673
0.164309
0.207043
0.140449
0.128111
0.171987
0.117131
0.042901
0.104240
0.043999
0.084165
0.134658
0.094452
0.017894
0.091354
0.023956
0.003493
-0.028316
0.016014
-0.005057
-0.046420
0.054488
0.007691
0.011060
0.056358
-0.062058
0.023236
-0.068348
0.028082
0.015631
-0.023499
0.025740
0.018742
0.117390
0.405864
0.712287
1.134777
1.357013
1.336052
1.272761
0.915472
0.636843
0.137339
-0.011688
-0.235031
-0.235234
-0.132177
-0.093420
-0.003134
0.036051
-0.029615
0.043205
0.017147
0.051722
0.075572
-0.047241
0.002974
-0.004097
0.110004
0.073674
0.065919
0.061413
0.147452
0.123823
0.149379
0.240459
0.197757
0.174192
0.174149
0.239324
0.224581
0.280339
0.331426
0.313912
0.390107
0.393186
0.367872
0.510571
0.400965
0.471898
0.457078
0.421134
0.378129
0.468670
0.467763
0.509602
0.429457
0.495437
0.499292
0.496479
0.459171
0.457580
0.429353
0.355898
0.404781
0.392295
0.312861
0.370405
0.222902
0.276459
0.256042
0.399612
0.193276
0.181059
0.166623
0.270865
0.141358
0.021484
0.106974
0.180458
0.045750
0.075961
0.092008
0.035360
0.117193
0.046145
0.055959
0.061356
0.028963
-0.043812
0.041122
-0.001351
-0.019584
0.023055
0.034827
-0.013023
-0.049347
-0.025524
-0.077180
-0.038525
-0.003426
-0.016829
-0.102089
-0.021866
-0.020017
-0.073598
-0.067684
-0.035490
-0.084476
-0.107889
-0.065084
-0.004817
-0.072507
-0.066217
-0.041785
-0.042978
0.002096
-0.078673
-0.136890
-0.106832
0.079226
-0.008114
-0.073994
-0.038330
0.029351
-0.003549
-0.141762
-0.068466
-0.013096
-0.021181
-0.014122
-0.006019
-0.040447
-0.087347
-0.011043
0.004685
-0.030385
-0.019733
-0.019507
-0.052583
-0.034116
0.096010
-0.010449
0.002647
0.002614
0.047373
-0.047790
0.020877
0.037450
0.012701
0.100455
0.023173
0.084506
0.186355
0.181121
0.043156
0.103718
0.047196
0.188847
0.152173
0.047073
0.154944
0.217258
0.151656
0.145951
0.163399
0.134509
0.176212
0.126631
0.051596
0.035110
0.027941
0.067527
0.010263
0.051226
0.087099
-0.010026
0.000723
0.010891
0.085007
0.010408
-0.000224
-0.056759
0.040210
-0.061797
-0.083822
0.001183
-0.064559
-0.014387
0.084113
-0.048895
-0.075464
0.166952
0.200086
0.564884
0.795620
1.106046
1.343974
1.304977
1.108354
0.889300
0.498551
0.102022
-0.159966
-0.251028
-0.184361
-0.167785
-0.124498
-0.086253
-0.022484
0.022152
-0.028166
0.001811
-0.049169
0.096595
0.047571
0.082853
0.100352
0.076051
0.153773
0.091868
0.094431
0.167583
0.195330
0.184355
0.204806
0.162657
0.192813
0.236618
0.270270
0.331430
0.305034
0.387476
0.397179
0.358160
0.390059
0.460716
0.382786
0.463354
0.440956
0.486231
0.489710
0.551727
0.414764
0.515115
0.491644
0.466845
0.559461
0.432725
0.546649
0.531265
0.409920
0.462757
0.469720
0.468000
0.403086
0.423270
0.367387
0.431649
0.360327
0.242925
0.295232
0.289941
0.246037
0.199848
0.275176
0.254142
0.189732
0.156773
0.099722
0.182099
0.109153
0.113086
0.115342
0.116740
0.030085
0.042967
0.127887
0.112775
0.025241
0.005427
0.079119
0.090164
0.028432
-0.003499
-0.066655
0.008444
-0.029066
0.086833
0.055099
-0.008779
0.006563
-0.029419
-0.017151
-0.004654
-0.062441
-0.014406
0.056725
0.012125
-0.023653
-0.047923
0.053806
0.024900
-0.012634
0.082387
-0.047611
-0.026332
0.089581
0.066000
0.016924
0.040115
0.043392
-0.017708
0.046056
0.061120
-0.001040
0.082083
0.048407
0.050435
0.057767
-0.013509
0.114372
0.107257
0.060140
0.059418
0.110690
-0.007913
0.070746
0.063801
0.081285
0.109881
0.086441
0.030138
0.139260
0.162822
0.023117
0.183805
0.030100
0.154220
0.148586
0.226485
0.139160
0.236055
0.159997
0.168241
0.264104
0.264973
0.175626
0.162395
0.264497
0.217925
0.252359
0.173247
0.236393
0.154838
0.205662
0.206477
0.258863
0.229003
0.154310
0.120379
0.136834
0.157585
0.083266
0.178359
0.158601
0.027573
0.018078
0.072681
0.129208
0.025460
0.050099
0.038478
0.103325
0.080129
0.031674
0.074403
0.077074
0.113537
0.167865
0.068557
0.067257
0.163677
0.299258
0.610084
0.899560
1.304198
1.439130
1.452825
1.223270
0.893637
0.577662
0.184357
-0.039690
-0.013307
-0.095301
-0.116582
0.034443
-0.039478
0.111598
0.042495
0.102403
0.148592
0.155968
0.108689
0.220430
0.123832
0.182138
0.215264
0.155557
0.229261
0.247802
0.300704
0.302748
0.248045
0.307506
0.306165
0.384374
0.277127
0.298119
0.380352
0.514841
0.378743
0.443735
0.479157
0.498110
0.520655
0.568166
0.603413
0.635168
0.552307
0.556578
0.673621
0.637690
0.617633
0.596931
0.613763
0.685133
0.548084
0.607711
0.517104
0.540903
0.499204
0.509591
0.534686
0.419910
0.527621
0.468682
0.592822
0.448869
0.366537
0.383202
0.373964
0.313056
0.384615
0.314546
0.288963
0.299353
0.296522
0.211180
0.230441
0.238404
0.140144
0.104181
0.244271
0.096180
0.150872
0.161014
0.139810
0.140141
0.166441
0.068243
0.170681
0.076002
0.098032
0.118958
0.212679
0.192784
0.082808
-0.008821
0.058247
0.108349
0.147387
0.126439
0.140129
0.099503
0.156547
0.070780
0.009434
0.098356
0.008936
0.177383
-0.031892
0.185011
0.088206
0.085360
0.106869
0.082581
0.103258
0.155894
0.137342
0.154972
0.083745
0.098652
0.105334
0.028261
0.029571
0.077827
0.044560
0.100029
0.088353
0.059295
0.045698
-0.000195
0.106156
0.127292
0.023050
0.107515
0.120462
0.049866
0.053055
0.175536
0.151396
0.150038
0.177874
0.157609
0.210393
0.208326
0.199866
0.231343
0.198861
0.167600
0.166004
0.179728
0.213908
0.306146
0.266716
0.322971
0.305765
0.305519
0.204447
0.264553
0.318519
0.205357
0.331821
0.249317
0.232446
0.223470
0.243454
0.205335
0.253370
0.151366
0.150460
0.130065
0.155691
0.047276
0.110208
0.186116
0.118123
0.122552
0.155877
0.110439
0.134779
0.030724
0.027488
0.020978
0.179139
0.004491
-0.038280
0.064004
0.027843
0.098517
0.219555
0.375642
0.683852
1.053417
1.237718
1.500000
1.424369
1.180174
0.830306
0.490064
0.158983
-0.035245
-0.175789
-0.080331
-0.174763
0.054174
0.032581
0.031289
0.057852
0.116227
0.111016
0.220114
0.187063
0.231310
0.138665
0.174501
0.188826
0.174529
0.182820
0.233507
0.268888
0.242679
0.336555
0.223400
0.359945
0.367284
0.297124
0.336764
0.341914
0.358443
0.385827
0.519385
0.403539
0.424770
0.448968
0.432416
0.457069
0.489002
0.531144
0.516891
0.562976
0.558416
0.486913
0.596431
0.588454
0.596222
0.532341
0.626632
0.467654
0.451881
0.506407
0.542564
0.486042
0.493242
0.407655
0.493391
0.421626
0.373643
0.363992
0.360617
0.282113
0.261155
0.271429
0.226399
0.268535
0.165206
0.168542
0.182918
0.213551
0.166583
0.149239
0.156718
0.074327
0.164406
0.071844
0.140006
0.096360
0.112647
0.045580
0.023802
-0.000451
0.057009
-0.045483
0.103593
0.058712
0.002794
0.058442
-0.019898
0.017880
0.097903
0.015929
-0.023033
-0.008983
0.076368
0.065672
0.064217
0.072381
0.032245
-0.018095
0.037198
-0.036460
0.041584
0.021484
-0.018557
0.027485
-0.060682
-0.090205
0.012319
0.056190
-0.018698
-0.010123
0.077881
0.002776
0.001890
0.014867
-0.060147
0.017366
0.045051
-0.104032
0.065116
0.014562
0.044075
0.039828
-0.001779
0.089023
-0.031299
0.066188
-0.038901
0.030617
0.061304
0.072744
0.059773
0.044271
-0.000301
0.064159
0.099277
0.114359
0.116358
0.079049
0.074698
0.120589
0.255236
0.177481
0.163312
0.122769
0.143728
0.096834
0.161771
0.218182
0.250528
0.188305
0.141025
0.089848
0.086347
0.127652
0.063359
0.107241
0.090449
0.058860
0.057295
0.046057
0.128178
-0.036777
0.010176
0.027486
0.000618
-0.002714
-0.060731
-0.069062
-0.032582
-0.059003
0.029351
-0.058492
-0.039755
-0.057721
0.015083
-0.018196
0.016325
-0.012399
0.005210
0.084624
0.224576
0.591519
0.957146
1.153707
1.380152
1.315519
1.043145
0.697540
0.360033
0.002045
-0.269019
-0.227392
-0.294027
-0.161345
-0.171492
-0.101372
-0.017878
0.068696
-0.069527
0.016256
0.093412
0.012938
-0.024828
-0.004568
0.067314
0.106093
0.069134
0.095858
0.062182
0.159379
0.167600
0.115968
0.143287
0.219587
0.177326
0.182281
0.181590
0.259767
0.132510
0.280842
0.322941
0.414161
0.293145
0.383338
0.408018
0.438703
0.407260
0.443576
0.411255
0.548133
0.455109
0.350162
0.455167
0.497076
0.479702
0.517584
0.433280
0.419352
0.462431
0.303828
0.388853
0.385237
0.281847
0.355678
0.335330
0.412270
0.225072
0.182046
0.295942
0.191006
0.125245
0.149475
0.141309
0.053659
0.051294
0.192955
0.035867
-0.013191
0.028879
0.030131
-0.097339
-0.111095
-0.033082
-0.108346
-0.042738
-0.099419
-0.021322
0.031466
-0.117160
-0.100379
-0.007772
-0.075685
-0.103338
-0.057971
-0.086775
-0.060402
-0.123501
-0.022648
-0.095432
-0.043152
-0.078556
-0.072599
-0.015709
-0.139666
-0.066306
-0.048300
-0.091368
-0.066812
-0.062607
-0.120485
-0.131878
-0.012991
-0.035496
-0.088422
-0.043460
-0.184529
-0.109147
-0.085363
-0.011355
-0.112587
0.009417
-0.092103
-0.034239
-0.066341
-0.067086
0.015136
-0.088787
-0.108252
-0.094303
-0.039100
-0.058776
-0.122788
-0.080619
-0.037974
-0.047929
-0.059688
-0.088226
-0.062012
-0.020801
-0.036139
-0.040721
-0.010308
-0.002149
-0.124483
0.091964
-0.062194
0.060387
-0.001762
-0.039730
0.108955
0.095543
0.080625
0.084036
0.130891
0.054156
0.100198
0.096047
0.150058
0.068447
0.185026
0.104163
0.023526
0.095655
0.064950
-0.036587
0.078764
0.005525
0.004957
0.040932
0.068398
0.025762
-0.014620
0.037067
-0.119803
-0.040136
-0.105371
-0.053526
-0.042615
-0.160285
-0.116637
-0.072364
-0.073166
-0.102792
-0.080431
-0.099012
-0.151200
-0.095166
0.024799
0.019017
-0.107073
0.336384
0.539310
0.939666
1.288708
1.301843
1.245795
0.979238
0.663366
0.305038
0.065238
-0.209205
-0.253296
-0.283017
-0.274608
-0.115066
-0.141719
-0.116862
-0.092767
0.032214
0.022278
-0.049074
-0.071065
0.011830
0.027543
0.007757
0.076367
0.145109
0.087326
0.126014
0.064074
0.111963
0.079485
0.146663
0.261523
0.259632
0.226255
0.299508
0.298708
0.305340
0.296240
0.347844
0.341981
0.396726
0.435948
0.360311
0.462296
0.360915
0.433731
0.424481
0.489776
0.522480
0.510561
0.538525
0.375270
0.482430
0.503358
0.430961
0.500507
0.425209
0.261431
0.358019
0.314982
0.349035
0.314030
0.283202
0.247318
0.326719
0.286315
0.276305
0.228465
0.245502
0.165104
0.246256
0.170044
0.139067
0.066444
0.057575
0.106327
0.030732
0.045300
0.013015
0.085354
-0.063372
-0.005956
0.029654
-0.004239
0.042345
-0.006694
0.028123
-0.018235
0.051690
-0.088951
-0.007349
-0.035123
-0.063054
0.018814
-0.024526
0.000746
0.034289
-0.038712
-0.071986
-0.075430
0.025143
-0.025341
-0.010265
-0.065311
-0.007806
-0.070667
-0.024025
-0.105401
-0.011216
-0.066427
0.067435
-0.066602
-0.053162
0.060375
0.051623
0.044092
-0.035456
0.002270
0.015906
-0.079610
-0.078241
-0.045145
-0.093785
-0.072378
-0.079684
-0.060519
-0.015969
-0.094016
-0.015444
-0.009688
0.007507
-0.005770
0.067266
0.022183
-0.019913
0.042613
0.110288
0.020407
0.017440
0.063101
0.092351
0.080695
0.051559
0.056217
0.134907
0.079100
0.088129
0.122308
0.180571
0.105257
0.156580
0.099932
0.093818
0.166437
0.295917
0.163193
0.104568
0.178585
0.149541
0.196778
0.158627
0.267349
0.068218
0.070841
0.206647
-0.022271
0.106528
0.130491
0.017636
0.065740
0.097280
0.171653
0.001594
0.078461
0.002495
0.085711
0.061370
0.082154
0.030683
0.031302
0.034114
-0.030740
0.020549
-0.077252
0.020326
-0.029985
0.063729
0.197505
0.409063
0.670834
1.053526
1.308712
1.367243
1.287901
1.101909
0.723841
0.309870
0.034974
-0.097321
-0.110829
-0.132613
-0.079157
-0.051458
0.025255
-0.014268
0.029774
0.116383
0.090322
0.140773
0.143558
0.049817
0.111400
0.190556
0.211691
0.156549
0.125148
0.129682
0.255635
0.168193
0.209692
0.170747
0.275353
0.232613
0.337276
0.409597
0.363135
0.360510
0.460828
0.387061
0.355027
0.486853
0.430871
0.493175
0.492120
0.491848
0.584693
0.580320
0.569669
0.495420
0.578195
0.623884
0.557750
0.630754
0.630759
0.505205
0.524982
0.549724
0.536491
0.524366
0.437989
0.475508
0.359773
0.362483
0.338856
0.363752
0.269815
0.314553
0.252462
0.294148
0.247161
0.249962
0.205594
0.191156
0.220953
0.166203
0.256627
0.128568
0.130312
0.129952
0.111238
0.139695
-0.003471
0.121044
0.009396
0.119673
-0.001510
0.069323
0.014742
0.081527
0.038847
0.097564
0.073160
0.146759
0.042439
0.069011
0.097737
0.063196
0.089190
0.044686
0.070500
-0.000476
0.081932
0.052490
0.086511
0.063982
0.042824
0.037341
0.097677
0.051247
-0.001308
0.059337
-0.021717
0.038506
-0.049592
0.071091
0.068306
0.005356
0.033134
0.034305
0.070050
-0.059215
0.021707
0.054043
-0.020665
0.082817
0.114889
0.049510
-0.022809
0.014577
0.030789
-0.003190
0.057723
0.072998
0.011024
0.020029
0.110199
0.048618
0.113176
0.114272
0.100306
0.109354
0.149883
0.202427
0.162908
0.275425
0.170531
0.203518
0.176604
0.124181
0.276281
0.233577
0.189533
0.190162
0.214123
0.247695
0.294445
0.227066
0.169990
0.222315
0.173162
0.169950
0.186401
0.149761
0.190603
0.165361
0.151610
0.110149
0.135094
0.100237
0.141813
0.158530
0.126555
0.044104
0.055931
0.086851
0.046643
0.115656
0.063942
0.048122
0.001349
0.012681
-0.013510
0.032912
0.111478
0.148133
0.114144
0.042902
0.215443
0.422688
0.811978
1.138744
1.381584
1.398292
1.300751
1.036860
0.632636
0.337336
-0.044011
-0.188143
-0.182810
-0.121252
-0.094027
-0.031031
0.094498
0.080455
0.121127
0.042097
0.062342
0.103889
0.108972
0.077221
0.146721
0.080016
0.092229
0.111528
0.128074
0.149619
0.206465
0.248802
0.238064
0.242502
0.301701
0.174398
0.248330
0.267972
0.418377
0.352121
0.437506
0.370164
0.454174
0.379655
0.467133
0.463862
0.529184
0.479483
0.543288
0.563375
0.551281
0.521855
0.546849
0.547823
0.566373
0.509664
0.520844
0.486418
0.472719
0.415835
0.484430
0.425591
0.340204
0.432174
0.316312
0.378732
0.416542
0.333763
0.292216
0.244416
0.298406
0.205818
0.267755
0.255533
0.142156
0.169754
0.130729
0.114507
0.084284
0.130050
0.081632
0.017177
0.073108
0.088122
0.101251
-0.015812
-0.013322
0.002980
-0.006481
0.025275
-0.016441
0.016481
-0.032889
-0.005056
-0.004750
-0.095198
0.025565
-0.120945
-0.015966
-0.011060
-0.061217
-0.011804
-0.055014
0.025164
0.041913
-0.014493
-0.066426
-0.060845
-0.033716
-0.027729
-0.087310
-0.056015
0.003471
-0.017035
-0.011061
-0.132326
-0.022816
-0.043165
-0.065772
-0.048037
0.002144
-0.006900
-0.043583
-0.032043
0.019902
-0.050260
-0.052392
-0.044460
-0.048959
0.076460
-0.008074
-0.005844
0.006461
-0.013419
-0.041660
-0.011146
0.087772
0.035337
-0.078748
-0.088339
-0.011034
-0.026040
-0.044068
-0.033384
0.054821
0.098691
0.059443
-0.035175
0.100736
0.129313
0.099499
0.093104
0.176249
0.105563
0.163253
0.076338
0.152161
0.146394
0.146646
0.116828
0.207573
0.076796
0.142208
0.030092
0.025834
0.048198
0.034362
0.154087
0.049659
-0.016392
-0.044456
-0.024213
0.027982
-0.012857
0.021490
-0.010079
-0.126775
-0.016295
-0.018922
-0.056465
-0.046168
-0.061894
-0.023591
-0.075491
-0.053390
-0.140883
-0.116798
-0.146717
-0.062130
-0.033295
0.188360
0.393509
0.682918
1.090478
1.263156
1.284133
1.080543
0.897745
0.443961
0.095201
-0.054620
-0.252226
-0.308209
-0.270532
-0.218782
-0.223391
-0.007066
-0.057630
-0.000187
-0.077173
0.062491
0.036998
-0.046148
0.004107
0.072036
0.059356
0.064107
0.002016
0.087009
0.052349
0.117920
0.099261
0.101952
0.170258
0.181728
0.245042
0.162447
0.262181
0.243821
0.274125
0.379060
0.312210
0.350952
0.266215
0.408069
0.330193
0.383248
0.420857
0.488864
0.414428
0.449130
0.458403
0.419062
0.465215
0.400189
0.460301
0.365122
0.347104
0.356833
0.308787
0.321647
0.393971
0.404905
0.326478
0.214419
0.303758
0.209879
0.225774
0.170846
0.145873
0.162080
0.153754
0.124904
0.231909
0.034923
0.013613
0.111271
0.028827
0.091902
0.020916
-0.059323
-0.047710
-0.033689
-0.076887
-0.089943
0.022066
-0.041563
-0.032951
-0.136806
-0.094839
-0.067691
-0.138103
-0.113286
-0.063484
-0.069341
-0.117144
-0.090073
-0.014530
-0.084584
-0.109927
-0.117722
-0.153623
-0.114502
-0.108736
-0.099683
-0.111670
-0.100761
-0.023637
-0.156011
-0.046415
-0.062423
-0.052944
-0.085285
-0.138204
-0.118832
-0.140360
-0.089709
-0.167165
-0.013672
-0.016377
-0.142047
-0.050081
-0.059871
-0.066844
-0.084559
-0.153398
-0.147257
-0.065901
-0.103101
-0.097549
-0.138809
-0.122412
-0.072493
-0.042554
-0.157549
-0.037309
-0.111215
-0.101112
-0.021365
-0.082919
-0.006362
-0.058745
-0.024052
-0.094010
-0.000695
-0.016878
0.032189
0.052463
-0.018309
0.026395
0.036485
0.046635
0.080849
0.128484
0.114581
0.001054
0.092819
0.105199
0.194899
0.139249
0.081848
0.128880
0.087008
-0.071867
0.086911
0.040927
0.090792
-0.010256
-0.033063
-0.026970
-0.026685
0.003617
-0.025305
-0.038103
-0.070141
-0.114192
-0.047003
-0.062798
-0.087403
-0.137261
-0.119892
-0.009894
-0.108798
-0.086868
-0.056753
-0.032287
-0.166665
-0.072856
-0.058206
-0.046917
0.103038
0.514655
0.740694
1.073709
1.292363
1.270076
1.213694
0.868443
0.446195
0.067103
-0.061423
-0.281807
-0.266961
-0.276756
-0.241300
-0.093471
-0.110427
0.011722
-0.048227
-0.029353
-0.086386
0.004351
0.071440
0.017922
0.061365
0.067370
-0.030730
0.068216
0.103410
0.033324
0.106221
0.198467
0.156292
0.145935
0.310783
0.245403
0.208546
0.240654
0.226232
0.255213
0.259769
0.373677
0.335394
0.397281
0.453371
0.375476
0.320998
0.438378
0.427020
0.445942
0.426831
0.427819
0.503050
0.414240
0.463764
0.445292
0.475057
0.489892
0.416062
0.417237
0.370682
0.402761
0.443934
0.398474
0.278655
0.353348
0.204200
0.221413
0.305836
0.209346
0.224477
0.200894
0.244829
0.144520
0.113632
0.213443
0.059713
0.153841
0.048881
0.127510
0.007811
0.012205
0.046941
0.039340
0.019482
-0.015221
0.033540
0.029911
0.048081
-0.025992
-0.015005
0.034985
0.001888
0.042702
-0.014272
-0.073405
0.003065
-0.032193
-0.068459
-0.020547
-0.022817
-0.003546
-0.092030
-0.055909
0.031419
-0.030307
-0.006505
-0.053154
0.005694
-0.123678
-0.003947
-0.033221
-0.043079
-0.036282
-0.146437
-0.034360
-0.006674
-0.005454
-0.036361
-0.035925
0.032473
0.017320
0.000506
0.010601
0.022971
-0.036771
-0.070432
-0.029500
-0.025600
0.002947
-0.046033
-0.037419
0.014528
-0.019828
0.053158
0.076882
0.045776
-0.003933
-0.016229
0.053580
0.087008
0.047280
0.036147
0.082627
0.097927
0.006270
0.037295
0.012721
0.098028
0.223836
0.115442
0.072854
0.120220
0.201570
0.234780
0.104523
0.141593
0.137623
0.128684
0.168885
0.232016
0.164947
0.141315
0.124935
0.170636
0.088182
0.115138
0.102096
0.140786
0.169792
0.142026
0.085741
0.063757
0.000016
0.110487
0.079765
0.057176
-0.020854
0.055861
0.020269
-0.003309
-0.049556
0.022435
0.028244
0.025324
0.027380
0.034338
0.011025
0.047341
0.151459
0.393011
0.641910
0.980072
1.180023
1.421122
1.377266
1.168196
0.900237
0.583715
0.137336
-0.025123
-0.141822
-0.193056
-0.101277
0.021907
0.044142
0.034674
0.118992
0.100105
0.197165
0.090867
0.122189
0.079857
0.124125
0.097608
0.100238
0.168219
0.215796
0.144064
0.225023
0.190613
0.176220
0.202399
0.256783
0.221614
0.359342
0.351588
0.290355
0.384442
0.443250
0.413817
0.413291
0.454175
0.520005
0.535119
0.458742
0.484387
0.576231
0.612754
0.589720
0.587888
0.562261
0.590545
0.595935
0.520702
0.623544
0.567342
0.510005
0.529093
0.545111
0.437301
0.496555
0.508305
0.465022
0.436474
0.441910
0.511899
0.411061
0.376885
0.357434
0.269001
0.239267
0.273781
0.237733
0.245666
0.247538
0.209595
0.231682
0.144463
0.027114
0.148067
0.194016
0.134551
0.149358
0.148201
0.135277
0.141165
0.076272
0.058344
0.124437
0.039493
0.031931
0.030573
0.146307
0.016394
-0.003536
0.123625
0.017554
0.123617
0.110305
0.025395
0.009858
0.084057
0.115112
0.063284
0.109018
0.046801
0.064349
0.004918
0.102269
0.066912
0.151046
0.025962
0.064393
0.107117
0.125757
0.063185
0.112660
0.128591
0.064334
0.021368
0.140413
-0.025667
0.150979
0.030904
0.094282
0.016176
0.057650
0.032172
0.047967
0.166704
0.041532
0.057648
0.131469
0.165982
0.077498
0.098903
0.108115
0.123645
0.160795
0.049949
0.091503
0.081818
0.169418
0.108852
0.161079
0.101330
0.321421
0.192431
0.182739
