0.034008
0.063988
-0.013666
0.120632
-0.084835
0.023527
-0.016547
0.020139
-0.083103
0.020499
-0.045377
0.014869
0.060112
0.040966
0.018672
0.081658
0.025212
0.001455
-0.039769
0.037312
0.026340
0.131631
0.043325
0.014930
0.025541
0.112479
0.066229
0.004108
0.086111
0.158221
0.180034
0.145022
0.073563
0.174304
0.148219
0.149213
0.107261
0.126003
0.148188
0.200317
0.202760
0.229952
0.197759
0.190932
0.156903
0.168920
0.183549
0.160259
0.154557
0.185014
0.140764
0.164666
0.202224
0.112286
0.144813
0.130100
0.120095
0.041046
0.095510
0.123326
0.114172
0.089061
0.090266
-0.009168
-0.006840
0.015981
0.063936
0.031284
-0.000073
0.022590
0.058397
0.054442
0.035964
-0.008170
0.013606
0.098754
0.023415
0.048691
0.187756
0.382183
0.630658
0.974787
1.308188
1.434970
1.351486
1.211278
0.815928
0.581587
0.134182
-0.065383
-0.165794
-0.171931
-0.222216
-0.069417
-0.060830
0.036092
0.079769
0.034375
0.062816
0.149907
0.009481
0.068198
0.064156
0.078934
0.078183
0.071292
0.179806
0.185827
0.155700
0.211307
0.184914
0.206148
0.159593
0.214846
0.172620
0.276551
0.179904
0.239231
0.364996
0.350846
0.464896
0.399864
0.473979
0.443386
0.388190
0.404065
0.500624
0.512165
0.506365
0.590540
0.527441
0.554964
0.556887
0.578364
0.523421
0.645820
0.552282
0.546393
0.583036
0.524594
0.548134
0.472239
0.469652
0.561977
0.495601
0.477217
0.560255
0.541986
0.397370
0.347618
0.364278
0.398229
0.420432
0.371613
0.291069
0.363901
0.278926
0.271895
0.209581
0.183013
0.252126
0.250476
0.139119
0.171666
0.122558
0.158171
0.052239
0.127353
0.140951
0.048491
0.163689
0.113915
0.072064
0.062144
0.070319
0.032689
0.060843
0.082505
0.097970
0.053846
0.173001
0.084043
0.034509
0.046126
0.002678
0.147735
0.114702
0.040430
0.103528
0.074346
0.088802
0.175176
0.004662
0.074357
0.069307
0.103473
0.166889
0.066006
0.107332
0.081466
0.058994
0.052476
0.071519
0.118166
0.104432
0.031746
0.095681
0.076137
0.170942
0.080853
0.073069
0.033447
-0.018058
0.118463
0.143629
0.063258
0.027888
0.124945
0.084983
0.032062
0.103277
0.104477
0.082556
0.058302
0.103888
0.132106
0.087659
0.114443
0.140159
0.149623
0.125442
0.134590
0.073003
0.173310
0.086542
0.152533
0.078381
0.145739
0.132198
0.150406
0.322555
0.248991
0.153119
0.179717
0.316342
0.182894
0.305913
0.167201
0.256939
0.275813
0.294212
0.199269
0.313497
0.269616
0.211753
0.135799
0.243541
0.139197
0.267273
0.187622
0.128528
0.131804
0.204738
0.124036
0.047825
0.182871
0.165629
0.080995
0.121597
0.109171
0.103444
0.161903
0.012759
0.098105
0.179564
0.054368
0.015820
0.116189
0.065496
0.055855
0.111401
0.168432
0.065615
0.048389
-0.087652
0.121228
0.105062
0.324613
0.540231
0.853314
1.181902
1.373339
1.500000
1.346951
1.079553
0.668178
0.289546
0.030434
-0.144351
-0.217931
-0.144110
-0.048147
-0.061021
-0.035076
0.095322
0.114047
0.115363
-0.008342
0.091257
0.154826
0.137802
0.115076
0.093831
0.091618
-0.002022
0.158159
0.093081
0.119347
0.176733
0.259654
0.137877
0.234114
0.165382
0.287758
0.281534
0.231696
0.352334
0.412961
0.322899
0.396433
0.281470
0.354034
0.499178
0.450064
0.454119
0.447768
0.475732
0.600070
0.441938
0.540298
0.563787
0.528241
0.539792
0.509333
0.468459
0.533559
0.552254
0.525283
0.544259
0.517339
0.479474
0.543885
0.473562
0.397293
0.403458
0.359834
0.405992
0.417537
0.303748
0.310979
0.345462
0.238632
0.216527
0.301929
0.240982
0.252869
0.228153
0.205254
0.129095
0.151399
0.066559
0.189766
0.158269
0.157843
0.115324
0.030319
0.109985
0.070722
0.058054
0.012685
0.124036
0.047182
0.058015
-0.020821
-0.018956
-0.016694
0.025036
0.003940
-0.044445
0.028698
-0.055252
0.011958
0.075870
0.011873
0.098783
0.119787
-0.019172
0.001406
0.075213
-0.003832
0.007277
0.062083
-0.005625
0.028006
0.018101
-0.007459
-0.014146
0.020692
0.100492
-0.065885
0.070063
0.005846
-0.013891
-0.059043
0.002551
-0.031584
-0.091658
-0.047912
0.050497
-0.028575
0.008390
-0.030223
0.017233
0.004027
-0.019670
-0.037266
0.025409
-0.055499
0.017519
0.048798
-0.056475
0.034309
0.010137
0.011752
0.029253
-0.031005
0.003865
-0.022241
-0.012774
-0.025273
0.027709
0.014981
0.055150
0.106539
0.077902
0.043661
0.117951
0.019514
0.145077
0.049877
0.111231
0.119636
0.100814
0.114901
0.180503
0.208466
0.152016
0.179927
0.162985
0.056076
0.129617
0.145595
0.205353
0.202999
0.103781
0.094912
0.130896
0.137128
0.042005
0.055423
0.056686
0.107932
-0.057999
0.011787
0.093780
-0.052518
0.015733
0.044109
-0.046244
-0.018762
-0.066313
-0.031344
-0.075583
-0.025477
-0.048859
0.019538
0.023507
-0.087013
0.011076
0.021142
0.000515
-0.097292
-0.073389
-0.100846
0.033433
0.097062
0.298629
0.626087
0.856768
1.233518
1.381011
1.134642
1.044067
0.703787
0.240310
0.027840
-0.218120
-0.310466
-0.293389
-0.207195
-0.110607
-0.089690
-0.049908
-0.086900
-0.009689
0.041902
0.038353
-0.075777
0.038256
-0.040972
0.031185
0.097290
0.004372
-0.069411
0.044793
0.093958
0.076956
0.075238
0.106173
0.116725
0.135270
0.095451
0.178964
0.271727
0.206235
0.205298
0.263660
0.289299
0.262895
0.281726
0.369369
0.400167
0.333736
0.346620
0.419788
0.419076
0.476327
0.500377
0.446441
0.453595
0.440545
0.488942
0.477285
0.428122
0.503240
0.396516
0.450855
0.430613
0.333078
0.419458
0.379750
0.344220
0.328438
0.355169
0.319280
0.185564
0.225160
0.304194
0.251856
0.251563
0.271943
0.263749
0.153804
0.167034
0.155587
0.099831
0.141859
0.129491
0.086367
0.062088
0.126574
0.078092
0.071071
0.012303
0.054154
-0.020318
0.033257
-0.027633
-0.061275
-0.105268
-0.065126
-0.013124
0.060843
0.034195
-0.048064
-0.128497
-0.022629
-0.041149
-0.063546
-0.022130
-0.036105
-0.009182
-0.042111
-0.043714
-0.051697
-0.077433
0.053629
-0.019573
-0.066112
0.013655
-0.030260
-0.057110
0.035156
-0.050890
-0.011142
-0.001885
-0.057861
-0.052260
0.013083
0.009691
-0.045056
-0.029493
-0.010895
-0.116622
-0.032730
-0.000481
0.031867
-0.041178
-0.044580
-0.023169
-0.096441
0.021239
-0.059776
-0.078373
0.016580
-0.000843
0.003636
-0.073770
-0.069156
0.041529
-0.059030
-0.000209
0.039765
-0.025223
-0.037283
-0.007395
-0.006270
0.006605
-0.017745
0.128601
0.034848
0.068643
0.010089
0.008552
0.055357
0.150079
0.055144
-0.005568
0.080221
0.126500
0.118960
0.060349
0.127006
0.142593
0.202673
0.156793
0.158554
0.172428
0.212701
0.138332
0.144403
0.113853
0.189525
0.137146
0.049961
0.101628
0.122745
0.053386
0.072152
0.077574
0.064515
0.030839
0.000993
0.016337
-0.026312
-0.020119
0.041106
0.000955
-0.023093
0.132893
-0.043646
-0.059961
-0.075267
0.001413
0.020455
-0.011627
-0.010215
-0.021367
-0.020440
-0.013857
-0.000032
-0.047986
-0.024923
0.040558
0.286580
0.531834
0.902883
1.241036
1.405261
1.391959
1.094149
0.854766
0.457484
0.082173
-0.157300
-0.203583
-0.251909
-0.211751
-0.132889
-0.053730
-0.010403
-0.026196
0.073267
0.024577
0.025398
-0.019723
0.072700
-0.014073
0.019810
0.086959
0.069604
0.150549
0.086365
0.120545
0.147908
0.176495
0.112943
0.120348
0.237919
0.186744
0.135924
0.195678
0.267416
0.227794
0.270794
0.349637
0.319649
0.259368
0.408173
0.383327
0.389134
0.459828
0.424178
0.474276
0.507520
0.494339
0.488591
0.607173
0.495767
0.490484
0.538130
0.542597
0.432948
0.540107
0.530738
0.483808
0.443315
0.520306
0.410228
0.421931
0.450369
0.383845
0.398719
0.378120
0.439459
0.296960
0.408802
0.317692
0.381232
0.267080
0.240354
0.265801
0.150225
0.212879
0.166353
0.159763
0.162187
0.156625
0.177116
0.166721
0.008456
0.107297
0.141957
0.117996
0.115074
0.061100
0.057168
0.095107
0.100406
0.030136
0.082558
0.006118
0.087908
0.014197
0.029339
0.060618
-0.004518
0.057316
0.097537
0.043304
0.127228
0.063252
0.115196
0.055170
0.021075
0.024741
0.044654
0.148136
0.049586
0.077514
0.167624
0.030499
0.107478
-0.001533
0.020034
0.040956
0.076717
0.107355
0.057623
0.093536
0.036841
0.113405
0.021941
0.049221
0.051598
0.023811
0.003706
0.017185
0.064167
0.091779
0.106487
0.070312
0.142373
0.158084
0.006610
0.118568
0.053197
-0.014235
0.113009
0.086511
0.122953
0.122349
0.051926
0.042884
0.132617
0.100166
0.060140
0.110066
0.092999
0.146228
0.133783
0.069121
0.170842
0.152952
0.157859
0.113524
0.198462
0.178763
0.233222
0.234092
0.253253
0.242198
0.333868
0.296408
0.253151
0.233936
0.265462
0.303159
0.246017
0.211513
0.184968
0.219735
0.242961
0.230715
0.264588
0.175292
0.223343
0.139943
0.196675
0.142169
0.215918
0.273981
0.093903
0.081337
0.038444
0.172972
0.092069
0.161742
0.086169
0.093926
0.028416
0.086465
0.116082
0.076207
0.042599
0.075896
0.114641
0.063815
-0.041665
-0.038722
0.058829
0.124676
0.338728
0.542464
0.820334
1.179404
1.408718
1.428257
1.300254
1.050676
0.731791
0.345884
0.065290
-0.054473
-0.216426
-0.152950
-0.031382
-0.005825
0.074553
0.115423
0.131134
0.033459
0.135353
0.077713
0.111192
0.145502
0.094340
0.137352
0.210879
0.154853
0.194938
0.159867
0.205580
0.156217
0.171370
0.226768
0.384681
0.310842
0.318790
0.312473
0.316435
0.317394
0.267751
0.345047
0.393610
0.440711
0.428941
0.546862
0.465864
0.589823
0.524782
0.500026
0.609993
0.587542
0.530205
0.564031
0.634304
0.597128
0.571439
0.604985
0.615511
0.589592
0.607748
0.553128
0.557285
0.557013
0.466215
0.497289
0.499439
0.472750
0.428239
0.429762
0.344464
0.322729
0.347642
0.377073
0.386680
0.386657
0.296084
0.303524
0.317602
0.288892
0.305839
0.247134
0.270995
0.160721
0.134729
0.172777
0.203221
0.120190
0.095798
0.081562
0.123938
0.092500
0.022876
0.065664
0.097690
0.127752
0.080481
0.136873
0.091649
0.158539
0.090112
0.114179
0.079856
0.092265
0.146890
0.112816
0.139214
0.095016
0.148885
0.070993
0.083485
0.056481
0.031359
0.083668
0.135579
0.098175
0.077577
0.111315
0.020240
0.071056
0.013263
0.071046
0.025541
0.091904
0.058891
0.084117
0.089094
0.030763
0.020859
0.059470
0.000342
0.039687
0.002017
0.088202
-0.015199
0.096188
0.124753
0.072439
0.026056
0.121732
0.063686
0.092190
0.037251
0.026412
0.111536
0.034212
0.089573
0.035872
0.076317
0.050838
0.119939
0.091790
0.114542
0.100830
0.130655
0.054874
0.129044
0.125393
0.139477
0.143034
0.153305
0.166951
0.222497
0.189802
0.161432
0.162033
0.274934
0.183579
0.161708
0.200807
0.253345
0.265160
0.210026
0.168990
0.167476
0.194985
0.244447
0.181627
0.082846
0.208586
0.239286
0.133439
0.113044
0.107776
0.158382
0.072877
0.065733
0.084037
0.053332
0.030641
0.067429
0.023012
0.139452
0.071289
-0.007442
0.039034
0.083543
0.028086
0.070797
0.028295
0.015361
0.006679
0.076971
0.043882
-0.024682
-0.007957
0.037416
0.039960
0.186690
0.365442
0.690264
1.048926
1.305735
1.402451
1.278891
1.052268
0.815293
0.423544
-0.003003
-0.077722
-0.196614
-0.259235
-0.125146
-0.075321
-0.061412
-0.015843
-0.035462
0.009499
-0.048946
0.048974
0.004716
0.007012
0.036226
0.087267
0.109792
-0.005861
0.063688
0.026098
-0.020727
0.075732
0.109400
0.158780
0.119257
0.169624
0.181050
0.207829
0.179053
0.217433
0.308755
0.152141
0.294229
0.246805
0.376131
0.360570
0.415175
0.471610
0.381099
0.477202
0.488501
0.398438
0.435590
0.488576
0.457998
0.500153
0.520880
0.518692
0.485652
0.431015
0.424484
0.443619
0.451614
0.430317
0.479848
0.448151
0.381843
0.418285
0.363455
0.360428
0.257905
0.296173
0.287219
0.240229
0.233091
0.268939
0.189781
0.120363
0.142619
0.191195
0.186421
0.111911
0.101095
0.056045
0.063468
0.073296
0.006862
0.030673
-0.050600
-0.048199
0.060499
0.041377
-0.020234
-0.007337
0.009225
0.053502
-0.054676
-0.025670
0.032704
-0.053977
0.049507
-0.029142
-0.011730
-0.040448
-0.052179
-0.094265
-0.049679
-0.045915
-0.066360
-0.026269
0.028200
-0.108060
-0.021186
0.028523
-0.097163
-0.053643
-0.037094
-0.076051
-0.088860
-0.025378
-0.078423
-0.050025
-0.030444
-0.024896
-0.051726
-0.092747
-0.120676
0.021113
-0.075035
-0.039336
-0.068062
-0.028480
-0.026641
-0.035492
0.001398
-0.088258
-0.107225
-0.065159
-0.017421
-0.086441
-0.061765
-0.018387
-0.053654
-0.041706
-0.032203
-0.054729
-0.093555
-0.029332
-0.065832
-0.065726
0.066072
-0.056971
-0.030500
0.006476
-0.093845
-0.003227
-0.048819
0.026120
-0.006338
0.051294
0.009288
0.045760
0.030390
0.060274
-0.002005
0.127741
0.038564
0.109940
0.147375
0.117610
0.034189
0.082040
0.132345
0.135490
0.053267
0.041624
0.113794
0.175672
0.083176
0.150421
0.041879
0.038336
0.089770
-0.008241
-0.031502
0.062607
-0.047038
-0.073363
0.005678
-0.121099
-0.061363
-0.066963
-0.123805
-0.024648
-0.075262
-0.002420
-0.054788
-0.049271
-0.097331
-0.049981
-0.067580
-0.017884
-0.110649
-0.054475
-0.151271
-0.146870
-0.127969
-0.069011
0.064604
0.245117
0.498213
0.763033
1.062583
1.263943
1.248150
1.117782
0.747767
0.422975
0.102663
-0.157764
-0.346557
-0.376957
-0.189408
-0.209508
-0.145067
-0.043951
-0.025980
-0.050284
-0.010986
-0.083648
-0.088831
-0.071998
-0.049015
-0.013118
0.049155
-0.061199
0.039680
-0.022454
0.039517
0.063559
0.064844
0.024601
0.042916
0.120796
0.082970
0.127031
0.154775
0.173477
0.212018
0.238890
0.239757
0.253626
0.251798
0.224743
0.312967
0.342737
0.272999
0.374115
0.355328
0.353302
0.448678
0.392141
0.422601
0.432965
0.401531
0.372644
0.415575
0.370711
0.392643
0.264672
0.407536
0.366565
0.409535
0.401697
0.402965
0.363323
0.346698
0.261604
0.319711
0.244678
0.224932
0.263488
0.202263
0.167695
0.168947
0.178849
0.120742
0.093917
0.022793
0.066802
0.066944
0.043801
0.016604
0.040965
-0.012296
0.023498
0.064779
0.022948
0.017230
0.070374
-0.066967
-0.019482
0.015574
-0.031610
-0.025896
-0.039135
-0.046502
-0.051557
-0.054139
-0.075245
-0.052631
-0.013795
-0.018305
-0.027304
-0.137278
-0.067528
-0.061671
0.001558
-0.000619
-0.131552
0.037310
-0.079475
-0.054456
-0.045422
-0.077634
0.048569
-0.087769
-0.004586
-0.042635
-0.044862
-0.113161
-0.027236
-0.077045
-0.036819
-0.081045
-0.149892
-0.103139
0.044600
-0.066690
-0.008544
-0.075049
-0.007444
-0.055751
-0.103494
-0.063830
-0.071680
-0.086052
-0.102858
-0.073960
-0.037493
-0.015614
-0.007519
-0.045924
-0.056473
-0.073197
0.054165
0.041282
-0.090131
-0.015224
-0.031809
-0.046903
-0.069210
0.010841
0.065897
0.037377
0.052826
-0.009479
-0.026759
0.056964
0.110090
0.048051
0.123150
0.047974
0.067363
0.156180
0.092486
0.138036
0.182734
0.187941
0.120438
0.261593
0.099309
0.136013
0.145108
0.193745
0.122662
0.185319
0.154380
0.185822
0.150674
0.100320
0.047274
-0.013889
0.033192
0.136904
0.009078
0.051847
0.082628
-0.020752
-0.015841
-0.021718
-0.035748
-0.081729
0.006762
-0.110071
0.052216
0.050074
0.008033
0.037356
-0.013499
-0.054617
0.012235
-0.120720
-0.019006
-0.034090
0.002559
0.039817
0.193218
0.488794
0.728511
1.072937
1.345586
1.345138
1.261255
0.913421
0.506452
0.213628
-0.014594
-0.204801
-0.252538
-0.140558
-0.165447
-0.138230
-0.029311
-0.017761
-0.038581
0.027618
-0.006106
0.004053
0.019979
0.090980
0.125163
0.098552
0.042117
0.135151
0.036978
0.097307
0.112775
0.211641
0.095333
0.199613
0.183963
0.253632
0.211339
0.167898
0.213975
0.290133
0.267433
0.391735
0.337971
0.388790
0.371012
0.445211
0.354110
0.413202
0.512307
0.458474
0.531775
0.491360
0.522912
0.432784
0.491021
0.510713
0.482175
0.494039
0.531329
0.544497
0.584919
0.473145
0.513702
0.539755
0.445233
0.556989
0.428306
0.414447
0.425194
0.311984
0.331383
0.367400
0.289422
0.230385
0.274447
0.336919
0.224540
0.163132
0.230570
0.271572
0.115363
0.314682
0.153754
0.149153
0.188043
0.181685
0.102446
0.083265
0.069396
0.083200
0.109959
0.022202
0.011483
0.037013
0.112786
0.052624
0.061463
0.007459
-0.010588
0.097920
0.023636
0.047496
0.097207
-0.041673
0.074258
0.089271
-0.003453
0.065421
0.037198
0.061005
0.099068
0.019957
0.021458
-0.026597
0.059984
0.134141
-0.002700
0.061658
0.045484
0.089083
0.033877
0.100207
0.055416
0.021433
0.090807
0.004766
0.027746
0.071310
0.014352
0.047226
0.052638
0.006956
0.032725
0.020155
-0.015906
-0.012264
-0.080530
0.011669
0.051234
0.035089
0.005653
0.015681
-0.010321
-0.002864
0.046448
0.084785
0.003054
-0.010771
0.026502
-0.017179
0.057955
0.074030
0.065799
0.014615
-0.003703
0.079205
0.062184
0.066380
0.139995
0.132061
0.119146
0.159184
0.204728
0.133673
0.181233
0.161059
0.219847
0.240504
0.229821
0.243726
0.221883
0.155720
0.197925
0.173237
0.258311
0.181738
0.170837
0.243587
0.178317
0.129219
0.159450
0.162261
0.125481
0.196109
0.139157
0.097369
0.041749
0.090126
0.093668
0.040172
0.068597
0.091555
0.131385
0.055843
0.000045
0.078935
0.059179
0.046973
0.111371
0.011854
0.066372
0.066612
0.011647
0.068168
0.095291
0.048959
0.103340
0.030726
0.211049
0.472651
0.775186
1.121468
1.307533
1.441420
1.375902
1.076741
0.766286
0.343333
0.092800
-0.168218
-0.192523
-0.229624
-0.165114
-0.113468
-0.001717
0.038635
-0.031751
0.144690
0.041059
0.063987
0.075092
0.087379
0.116108
0.050959
0.080239
0.139448
0.120698
0.121674
0.089048
0.212823
0.188122
0.204667
0.130851
0.205582
0.215234
0.296961
0.331097
0.381401
0.297045
0.368379
0.320240
0.261716
0.406115
0.409531
0.378266
0.399589
0.408243
0.419655
0.529680
0.486925
0.512182
0.494900
0.536290
0.542473
0.442415
0.524786
0.515592
0.510893
0.584901
0.487790
0.488128
0.403763
0.488995
0.410203
0.445334
0.395349
0.410414
0.379514
0.354775
0.337419
0.329709
0.327193
0.239672
0.296697
0.279836
0.203868
0.231318
0.233900
0.217070
0.150137
0.106480
0.147236
0.091339
0.071833
0.064403
0.032368
0.033597
0.037942
-0.016137
0.069385
0.022309
0.046331
0.061417
0.024901
0.034467
0.087083
0.080130
0.028099
-0.043816
0.037819
0.058598
0.036628
0.035392
-0.000146
0.008540
0.036548
-0.041371
0.044587
-0.049261
0.013402
-0.043377
0.049905
-0.002659
0.029352
0.001156
-0.048777
-0.030581
0.000518
0.046303
-0.012129
0.010840
0.027274
-0.138333
0.028404
0.023192
0.002378
-0.064939
-0.041009
0.004292
0.023562
-0.005348
-0.039342
-0.050319
0.006242
0.002920
-0.084850
-0.063477
-0.014563
-0.004807
-0.026688
-0.049457
-0.015105
-0.059372
-0.050486
-0.064687
0.029937
0.056617
-0.044423
-0.073288
-0.042860
0.039311
0.063201
0.020195
-0.005440
0.002719
0.051671
0.066236
-0.008459
0.073051
0.062415
0.060228
0.075483
0.049006
-0.000787
0.091644
0.115145
0.111109
0.084392
0.161144
0.150036
0.100972
0.193709
0.080451
0.073626
0.112958
0.126786
0.149071
0.140879
0.123442
0.181310
0.092862
0.118595
-0.031107
-0.012088
0.067424
0.005742
-0.000401
-0.055818
-0.037455
-0.111496
0.014157
-0.055345
-0.009134
-0.015866
-0.107644
-0.055964
-0.042802
-0.150454
-0.088807
-0.030758
-0.074966
-0.039204
-0.076433
-0.126515
-0.065990
-0.105209
0.043089
0.209592
0.478567
0.823881
1.159004
1.299519
1.370107
1.106141
0.763074
0.390605
0.116413
-0.224982
-0.301474
-0.379083
-0.300830
-0.164522
-0.086689
-0.034975
-0.101802
-0.106539
-0.123842
-0.101322
-0.075969
-0.092196
-0.045650
-0.028431
0.006745
-0.001550
-0.055450
0.042825
0.039775
0.015013
0.042708
-0.031803
0.106773
0.054126
0.073303
0.130769
0.141671
0.237609
0.161877
0.189990
0.280740
0.262116
0.233976
0.294193
0.245370
0.307399
0.324196
0.446802
0.451526
0.292548
0.440326
0.345865
0.414135
0.383367
0.450706
0.445985
0.437329
0.334034
0.352413
0.384401
0.426855
0.324012
0.372550
0.317539
0.357786
0.358950
0.285524
0.352730
0.226345
0.217461
0.216978
0.187411
0.186283
0.144024
0.239811
0.134276
0.132534
0.034801
0.089137
0.045944
0.045575
-0.007708
-0.006279
-0.017205
-0.018209
-0.024719
-0.015218
-0.034758
0.063278
-0.071841
-0.078895
-0.061576
-0.100215
-0.101043
-0.113631
-0.139311
-0.065102
-0.031042
-0.125541
-0.055053
-0.052079
-0.022346
-0.080081
-0.053067
-0.068975
-0.105283
-0.016594
-0.081948
-0.080622
-0.062405
-0.071620
-0.135517
-0.097827
-0.037701
-0.022684
-0.078618
-0.096050
-0.065979
-0.094768
-0.089028
-0.063112
-0.119792
-0.110477
-0.088759
-0.072202
-0.117316
-0.197027
-0.081076
-0.119607
-0.079003
-0.053255
-0.072067
-0.181972
-0.083964
-0.083610
-0.133068
-0.161369
-0.074558
-0.110042
-0.094469
-0.128808
-0.114026
-0.084081
-0.106349
-0.094226
-0.086540
-0.058857
-0.068649
-0.117114
-0.035767
-0.031859
-0.061956
-0.043725
-0.074923
0.027718
-0.084880
-0.031343
0.034821
-0.028679
0.031125
0.038669
-0.055695
0.042793
0.078155
0.022778
0.083400
0.065380
0.084229
0.079633
0.014854
0.079754
0.066132
0.028557
0.083917
0.121256
0.022794
0.047125
0.071284
-0.010384
0.061128
0.038353
0.028897
0.085296
-0.017440
0.056043
-0.024154
-0.116312
-0.031086
0.006843
-0.104563
-0.119996
-0.075049
-0.062793
-0.114989
-0.138290
-0.068920
-0.182103
-0.050772
-0.061008
-0.126642
-0.114609
-0.073971
-0.044592
-0.124560
-0.089251
-0.119408
-0.026758
0.143176
0.382063
0.700170
1.117323
1.221581
1.273743
1.117430
0.906360
0.542833
0.135923
-0.067791
-0.268140
-0.301619
-0.351225
-0.196467
-0.164507
-0.103259
-0.142316
-0.012367
-0.090789
-0.118353
0.000802
0.028627
-0.007052
0.008806
-0.010111
-0.034958
0.014458
-0.020339
0.067103
-0.038008
0.044976
0.040745
0.097189
0.091657
0.017735
0.219032
0.077018
0.115451
0.219611
0.239837
0.153088
0.261746
0.301619
0.294355
0.294893
0.397902
0.352210
0.352513
0.352809
0.379048
0.469329
0.503572
0.452300
0.464161
0.460277
0.384047
0.379757
0.416263
0.457087
0.427161
0.510652
0.455243
0.413518
0.392299
0.336752
0.389624
0.297699
0.398326
0.215112
0.256302
0.287472
0.253634
0.217961
0.273762
0.261660
0.133670
0.190700
0.247445
0.198820
0.113832
0.124110
0.086192
0.036631
0.108565
0.076046
0.010887
0.084423
0.016485
-0.003861
0.021710
-0.000928
0.087616
0.048259
-0.014019
0.006311
-0.060039
-0.013070
0.073639
-0.058262
-0.043991
0.073964
0.000592
-0.029315
-0.063531
-0.044567
0.000198
0.001649
-0.017566
0.021043
0.038739
0.089034
0.027866
0.021459
-0.026848
-0.034584
-0.037825
0.003573
-0.003157
-0.082219
-0.002185
-0.064658
-0.082445
0.060354
-0.086618
0.022341
-0.011086
-0.076353
0.018415
-0.008397
-0.045906
0.046979
-0.037042
-0.001129
0.011452
0.074731
-0.053774
0.004497
-0.035278
0.006419
0.049613
0.017529
0.076531
0.089937
-0.045397
0.010952
0.043426
0.002185
-0.059078
0.010824
0.019987
0.105894
-0.003666
0.135029
0.111495
-0.003911
0.056984
0.151807
0.095875
0.162752
0.117287
0.135887
0.211824
0.239670
0.157763
0.168470
0.255041
0.108293
0.183485
0.237285
0.139853
0.153368
0.151802
0.187906
0.120032
0.146237
0.152066
0.121362
0.192992
0.104135
0.134088
0.160510
0.055428
0.095584
0.039118
0.113648
0.130697
0.047041
0.133880
0.020101
0.030234
0.180722
0.085743
-0.009647
0.026921
-0.016363
-0.014386
-0.006478
0.120630
0.040618
0.046147
0.059794
0.127300
0.078510
-0.025796
0.000400
-0.029789
0.105512
0.193509
0.455007
0.619796
1.045933
1.356600
1.423574
1.421140
1.099432
0.761646
0.300593
0.057680
-0.019682
-0.191004
-0.160915
-0.131582
-0.019532
0.021737
0.091698
-0.020839
0.014986
0.073222
0.108073
0.147721
0.124084
0.155024
0.084884
0.022336
0.093705
0.228417
0.229998
0.167970
0.167327
0.170912
0.216682
0.177575
0.279444
0.242642
0.248562
0.301726
0.312395
0.343779
0.336899
0.319036
0.446381
0.423642
0.367065
0.491974
0.513397
0.405990
0.520742
0.471133
0.566950
0.528390
0.512248
0.489332
0.448548
0.552678
0.553923
0.550292
0.571900
0.504587
0.579920
0.503819
0.469120
0.609506
0.484738
0.538025
0.495730
0.419268
0.457605
0.447793
0.376129
0.264689
0.387215
0.306536
0.274694
0.276617
0.299568
0.215796
0.200967
0.184306
0.249573
0.159116
0.145537
0.139389
0.174093
0.177673
0.108804
0.057459
0.074149
0.075246
0.168266
0.104115
0.103341
0.031037
0.108345
0.109342
0.046387
0.030174
0.066370
0.078714
0.108089
0.072424
0.140262
0.022112
0.107201
0.056769
0.133943
0.145892
0.011621
0.058171
0.163897
0.133254
0.075240
0.085163
0.033125
0.099534
0.035927
0.049336
0.083769
0.097518
0.095226
0.098569
0.082536
0.071939
0.071426
0.086585
0.126328
0.006633
0.077611
