0.010362
-0.034097
0.072099
0.008081
0.023189
-0.040232
0.036547
-0.032840
0.010920
0.024095
0.009526
-0.038404
0.046155
0.037595
0.032232
0.091527
0.059309
-0.072839
0.068184
0.041888
-0.035863
0.006063
0.013648
0.041222
0.076946
0.033913
0.048791
-0.022100
0.068577
0.052694
-0.000979
0.089058
0.101204
0.063088
0.119176
0.109889
0.137253
0.145119
0.130803
0.223597
0.149749
0.149081
0.159157
0.232411
0.177083
0.223416
0.135409
0.208760
0.244097
0.189237
0.306902
0.230938
0.130612
0.183257
0.120624
0.045853
0.145514
0.257665
0.065255
0.099289
0.111746
0.127322
0.142336
0.113078
0.144140
0.063938
0.067243
0.149561
-0.010350
0.102162
0.077503
0.093474
0.048736
0.033041
0.051413
0.010858
-0.002214
0.041989
-0.002623
0.063993
0.005927
0.031286
-0.029031
-0.006371
-0.113682
-0.008204
0.005567
0.144227
0.394255
0.716188
0.996268
1.296804
1.500000
1.439979
1.237753
1.011896
0.575160
0.276923
-0.067385
-0.184371
-0.254100
-0.220460
-0.119016
-0.113557
0.047162
0.101054
0.057614
0.114673
0.120262
0.051175
0.072625
0.092214
0.095255
0.142015
0.076330
0.188095
0.172560
0.125847
0.095670
0.146534
0.168091
0.215103
0.148475
0.114889
0.235028
0.212091
0.170531
0.180146
0.215169
0.275130
0.212103
0.315767
0.385637
0.392463
0.330596
0.360650
0.399446
0.408283
0.383532
0.441212
0.441389
0.541223
0.449372
0.554265
0.507512
0.600308
0.593339
0.572152
0.554979
0.585486
0.575078
0.622837
0.527963
0.558879
0.587210
0.517084
0.516670
0.578228
0.456922
0.473435
0.431334
0.504518
0.417813
0.408038
0.404191
0.373799
0.406318
0.383749
0.297740
0.326352
0.318800
0.225036
0.251307
0.238535
0.224620
0.180361
0.246736
0.173562
0.171014
0.192023
0.113362
0.183232
0.193687
0.082985
0.151819
0.086342
0.124114
0.095720
0.122171
0.131805
0.044674
0.073339
0.119989
0.092875
0.098875
0.039213
0.142014
0.100802
0.106157
0.050177
0.140711
0.156229
0.069606
0.097974
0.067731
0.098167
0.021130
0.042041
0.111872
0.161108
0.087823
0.131433
0.032720
0.070104
0.174251
0.044509
0.084573
0.115798
0.102119
0.112688
0.113708
0.060495
0.068967
0.093983
0.054793
0.120765
0.059139
0.119726
0.092199
0.084818
0.053480
0.039048
0.064429
0.116846
0.092102
0.090475
0.116540
0.081863
0.043876
0.094982
0.043471
0.082877
0.188637
0.101699
0.061014
0.142502
0.033967
0.115680
0.063281
0.068909
0.158231
0.056171
0.119346
0.064505
0.064997
0.019156
0.083262
0.180047
0.129684
0.105333
0.176273
0.117909
0.101682
0.153634
0.186982
0.186818
0.179312
0.239419
0.157459
0.259801
0.136212
0.178535
0.171405
0.301276
0.263019
0.344878
0.216255
0.305751
0.225738
0.105760
0.248487
0.189312
0.228426
0.282206
0.252529
0.138205
0.196065
0.180901
0.227594
0.101791
0.100074
0.123556
0.107969
0.174797
0.116415
0.173614
0.131022
0.088887
0.052496
0.095307
0.031751
0.064819
0.020199
-0.048736
0.020805
0.062836
0.049841
0.006232
0.078665
0.080866
0.103088
0.020536
0.134654
0.094174
-0.090523
-0.046704
-0.072336
0.089133
0.129850
0.419329
0.744539
1.030740
1.424773
1.472872
1.355723
1.138800
0.816733
0.391556
0.208344
-0.032757
-0.189478
-0.210288
-0.248431
-0.117359
-0.065094
0.018001
-0.001842
0.112804
0.042337
0.127478
0.044989
0.083734
0.077471
0.077179
0.112647
0.017768
0.000000
0.000000
0.000000
0.000000
0.000000
0.000000
0.000000
0.000000
0.000000
0.000000
0.000000
0.000000
0.000000
0.000000
0.000000
0.000000
0.000000
0.000000
0.000000
0.000000
0.000000
0.000000
0.000000
0.000000
0.000000
0.000000
0.000000
0.000000
0.000000
0.000000
0.000000
0.000000
0.000000
0.000000
0.000000
0.000000
0.000000
0.000000
0.000000
0.000000
0.000000
0.000000
0.000000
0.000000
0.000000
0.000000
0.000000
0.000000
0.404648
0.373925
0.312372
0.233730
0.338354
0.230859
0.277618
0.177845
0.262294
0.125522
0.094056
0.154896
0.184296
0.118860
0.112115
0.103218
0.014543
0.035616
0.134566
-0.013046
0.092265
0.033690
0.077448
0.090504
0.090234
0.070176
0.062911
0.050858
0.078550
-0.029238
-0.015211
-0.048920
0.036950
-0.032188
-0.030096
0.030948
0.034286
0.028478
-0.048842
0.031405
0.012037
0.048394
-0.015685
0.037924
0.013841
-0.046217
0.044422
-0.012006
0.023908
0.009928
-0.049071
-0.009939
-0.025292
0.010053
-0.018318
-0.041154
0.078227
-0.033659
-0.043292
-0.002387
0.030207
-0.068921
-0.096565
-0.064085
-0.109567
-0.026042
-0.003435
-0.055876
0.042549
0.029244
0.023639
-0.063211
-0.078884
-0.046300
0.059594
0.012802
0.007025
-0.007534
-0.023679
0.009342
-0.033500
-0.015272
0.020459
-0.073021
0.057559
-0.065617
-0.037029
0.052274
0.015990
-0.035364
0.045021
-0.043881
0.048053
0.069215
-0.012944
0.022115
-0.045327
-0.003560
-0.011326
0.059841
0.038653
0.027829
0.066478
0.061928
0.130682
0.042720
0.109206
0.140398
0.052786
0.142152
0.106115
0.083690
0.070747
0.112147
0.098612
0.074006
0.111902
0.157225
0.149126
0.124883
0.124186
0.033736
0.118270
0.059870
0.015106
0.062996
0.146948
0.019186
-0.030843
0.004343
0.037646
-0.039706
-0.024520
0.009644
0.019164
0.013391
-0.000888
-0.079032
-0.025573
0.013608
-0.036440
-0.078848
-0.051178
-0.075345
-0.001418
-0.059253
0.006338
-0.016543
0.025816
-0.129800
-0.140191
-0.041843
-0.033148
-0.069742
0.048725
0.114779
0.376183
0.721463
1.029597
1.230312
1.480887
1.264908
1.066189
0.724252
0.302296
0.056323
-0.155523
-0.337502
-0.366736
-0.206695
-0.095924
-0.147745
-0.054857
-0.066220
-0.080528
-0.042022
-0.037756
-0.053266
-0.087419
-0.001007
0.029777
0.051558
-0.068772
0.059763
0.040973
-0.055073
-0.020688
0.079896
0.001374
0.068714
0.015699
0.124955
0.061172
0.097518
0.062817
0.137514
0.154827
0.198329
0.176233
0.204114
0.140603
0.262463
0.259435
0.279423
0.279318
0.302518
0.378273
0.401724
0.436904
0.450950
0.467187
0.388801
0.414508
0.382689
0.518991
0.445490
0.553251
0.476652
0.454721
0.470987
0.408881
0.484790
0.507105
0.449879
0.411891
0.375725
0.439801
0.348637
0.370857
0.298556
0.311642
0.268675
0.339675
0.289260
0.330619
0.180650
0.246972
0.198950
0.181860
0.107764
0.188115
0.056260
0.108137
0.036794
0.053318
0.057775
-0.029784
0.104768
0.046130
0.087091
-0.007763
0.122407
0.011381
-0.016256
-0.031163
-0.061041
-0.029112
-0.002011
-0.020927
-0.064701
-0.007810
-0.009534
0.041923
-0.040234
-0.040748
-0.110449
-0.034379
-0.013041
-0.006357
0.003871
0.002346
-0.072223
0.051444
-0.042761
-0.007054
0.043145
-0.060449
-0.064945
0.003359
0.015413
-0.034469
0.003658
0.027053
-0.046982
0.006803
0.099726
0.048376
0.026937
0.086871
0.015287
-0.032545
-0.050019
-0.001111
0.005876
-0.048978
0.040504
0.057747
-0.090487
0.049993
0.031732
-0.043643
-0.013452
-0.075750
-0.024447
0.050595
-0.038643
-0.015483
-0.055168
0.031339
0.041751
0.002669
-0.013683
-0.055211
0.084222
-0.025850
0.012145
-0.019874
-0.003980
-0.002071
-0.019122
0.020203
0.031394
0.088808
0.022024
0.024422
0.041697
0.030192
0.081351
0.038070
0.047772
0.100401
0.032314
0.055953
0.024667
0.072744
0.176821
0.113397
0.154017
0.104638
0.192760
0.188195
0.168276
0.172561
0.245409
0.214663
0.166557
0.112251
0.174353
0.194763
0.233545
0.040409
0.147100
0.251814
0.116573
0.084374
0.086552
0.109875
0.057622
0.100637
0.065968
0.141091
0.094886
0.059249
0.014317
0.028798
0.104412
0.067477
-0.019302
0.050992
0.042311
0.125737
0.034954
0.026259
0.103365
0.034108
0.027946
-0.086909
-0.033597
0.046517
0.074285
0.062977
0.018591
-0.048833
-0.022519
-0.003012
0.107706
0.264530
0.501478
0.817644
1.177480
1.372409
1.448364
1.398912
1.020972
0.706114
0.262345
0.024971
-0.084122
-0.203203
-0.290016
-0.234363
-0.107260
0.003502
0.018973
0.076695
0.038272
0.055281
0.094563
0.073022
0.021544
0.070451
0.041574
0.155162
0.129773
0.113230
0.079650
0.071610
0.144875
0.158923
0.113267
0.115522
0.157232
0.151367
0.191283
0.216637
0.321270
0.163192
0.239337
0.207355
0.312873
0.260376
0.380447
0.366681
0.438689
0.468739
0.410932
0.378203
0.456253
0.455221
0.395271
0.514089
0.522748
0.552135
0.622664
0.542522
0.595230
0.560371
0.574637
0.583695
0.592350
0.558346
0.504342
0.522972
0.481600
0.546250
0.550740
0.488997
0.480832
0.424286
0.435612
0.401662
0.488753
0.412081
0.341093
0.403411
0.403978
0.321963
0.365089
0.327933
0.314805
0.295370
0.242379
0.204401
0.199421
0.148974
0.272873
0.213069
0.153808
0.142337
0.101360
0.138757
0.107211
0.175433
0.141251
0.131957
0.100616
0.095814
0.050178
0.071101
0.159069
0.210954
0.133059
0.146171
0.138881
0.079925
0.029083
0.079404
0.137230
0.100011
0.057794
0.146729
0.038389
0.086416
0.118745
0.048411
0.085304
-0.012181
0.091406
0.088400
0.064291
0.081088
0.090120
0.057960
0.082335
0.067616
0.130500
0.104236
0.157332
0.088349
0.077506
0.147643
0.142063
0.084143
0.052023
0.109712
0.086725
0.105933
0.117679
0.101200
0.114331
0.065386
0.123041
0.049008
0.104952
0.026792
0.112107
0.077407
0.056919
0.085966
0.072204
0.093090
0.085389
0.032364
0.102793
0.104962
0.014869
0.064293
0.156773
0.015572
0.128261
0.038106
0.178313
0.048307
0.048507
0.056801
0.071218
0.101851
0.076370
0.095336
0.149870
0.138897
0.234426
0.176939
0.143496
0.131052
0.173759
0.256709
0.176516
0.197000
0.274036
0.230364
0.320293
0.229420
0.285682
0.286600
0.259019
0.219401
0.259006
0.260130
0.244647
0.245062
0.349064
0.169860
0.193161
0.167819
0.149502
0.296373
0.155200
0.108265
0.137064
0.127868
0.153497
0.051501
0.183447
0.097982
0.089497
0.146729
0.173596
0.067762
0.064737
0.070659
0.121077
0.071986
0.051238
0.006775
0.077345
0.083884
0.066318
-0.035152
0.043112
0.114778
0.078376
0.077140
0.023669
0.001348
0.079617
0.206827
0.340385
0.660591
0.940333
1.303274
1.403290
1.378775
1.210020
0.967796
0.665174
0.293328
-0.016829
-0.179744
-0.151048
-0.149194
-0.175711
-0.043505
0.056928
0.098857
0.097550
-0.032710
0.105897
0.063680
0.027615
0.054962
0.074542
0.130008
0.046826
0.062644
0.124979
0.137729
0.110711
0.086841
0.128744
0.072474
0.150791
0.116235
0.091707
0.167753
0.167172
0.167628
0.251926
0.214403
0.253375
0.361178
0.236483
0.353253
0.379328
0.333460
0.411050
0.434424
0.397416
0.413105
0.476673
0.544247
0.471437
0.494909
0.508250
0.556282
0.614940
0.591027
0.515203
0.559475
0.557447
0.607795
0.564254
0.481519
0.543682
0.606726
0.509223
0.502078
0.521665
0.544848
0.419244
0.450400
0.373852
0.434409
0.414401
0.374225
0.295738
0.287033
0.312614
0.331482
0.227796
0.195119
0.211063
0.142158
0.112816
0.176632
0.089002
0.137747
0.167175
0.119067
0.100526
-0.005628
0.093796
0.103478
0.052360
0.098409
-0.030436
0.074490
0.041134
0.067820
0.061049
0.016531
0.048132
0.014012
0.091726
-0.018424
0.059369
-0.050169
-0.035155
0.056299
0.021001
-0.012783
0.010645
-0.024268
0.052636
-0.040658
0.019686
0.029393
0.080435
0.111814
-0.023421
0.009989
-0.061272
-0.003793
0.001424
-0.053838
0.054489
0.008614
-0.072493
-0.012544
0.032596
0.058417
0.010954
0.034904
0.024176
-0.015225
-0.014985
-0.066645
-0.005646
-0.017414
-0.064975
-0.022415
-0.006999
0.007861
0.019250
-0.008499
0.064210
-0.023983
-0.010250
-0.070983
-0.031022
0.000841
-0.003591
-0.037591
-0.094672
-0.034148
0.019106
0.015777
-0.030719
-0.028973
-0.003237
-0.097767
-0.000204
-0.013167
0.031422
-0.007137
-0.004463
0.037565
0.024561
0.024065
-0.012221
0.020091
0.066517
0.032951
0.105559
0.084802
0.112380
0.147432
0.060081
0.098437
0.081673
0.145832
0.206257
0.110159
0.130856
0.192646
0.192263
0.071256
0.149790
0.191584
0.146661
0.067429
0.116070
0.135101
0.123191
0.083842
-0.024535
0.066718
0.085299
0.098515
0.019683
0.085238
0.060156
0.042395
0.022454
-0.049104
-0.016945
-0.007019
0.013188
0.050491
-0.007642
0.004595
-0.040946
-0.054287
-0.052463
-0.040433
0.000681
-0.128201
0.034529
-0.037565
-0.013335
-0.062263
-0.037237
-0.040049
-0.107863
-0.079666
-0.127787
-0.107245
0.053779
0.354958
0.619533
0.969161
1.229603
1.314842
1.212230
1.107154
0.822010
0.482564
0.053256
-0.167816
-0.289563
-0.379033
-0.310615
-0.169204
-0.254697
-0.017983
-0.085226
-0.008269
-0.029180
-0.081324
0.018241
-0.063393
-0.022323
-0.026786
-0.099540
-0.011226
-0.054836
-0.027199
-0.032143
0.069914
-0.015196
0.034446
-0.005505
0.079957
-0.001078
0.054096
0.014836
0.095082
0.117508
0.057142
0.190551
0.059684
0.193836
0.136026
0.129449
0.168874
0.256157
0.191625
0.310577
0.252206
0.240585
0.326569
0.346579
0.397545
0.370592
0.417692
0.385679
0.473797
0.420244
0.462704
0.515243
0.488550
0.396610
0.437946
0.403045
0.417448
0.397464
0.356196
0.324228
0.398116
0.309401
0.325196
0.268835
0.246757
0.218228
0.214516
0.311313
0.202938
0.269553
0.175644
0.082813
0.094400
0.152478
0.095635
0.134480
0.031063
0.032057
-0.029446
0.027059
0.046146
-0.045144
0.016197
-0.060775
-0.135292
-0.077258
-0.029114
-0.033759
-0.040409
-0.021387
-0.029824
-0.056331
-0.101014
-0.037549
-0.070073
-0.012407
-0.053588
-0.129221
-0.025240
-0.104997
-0.109219
0.030138
-0.110147
-0.024923
-0.078283
-0.053394
-0.100621
-0.056651
-0.155090
-0.047465
-0.084709
-0.071725
-0.087680
-0.073137
-0.060584
-0.030796
-0.108646
-0.052842
-0.061226
-0.102582
-0.087656
-0.078261
-0.149491
0.013501
-0.120419
-0.113420
-0.040673
-0.052024
-0.031227
-0.038726
-0.136998
-0.072074
-0.096301
-0.087495
-0.108596
-0.095431
-0.150866
-0.028056
-0.050526
-0.057392
-0.114145
-0.124387
-0.088766
-0.037285
-0.140495
-0.042142
-0.041505
-0.047076
-0.075021
-0.051710
-0.074590
-0.110041
-0.077072
0.020330
-0.030724
0.066402
-0.083660
-0.085698
0.044150
-0.101234
-0.041567
0.071945
-0.051424
-0.071853
0.035741
-0.056072
-0.029791
0.029102
0.040664
0.022291
0.090219
0.060793
0.126745
0.153279
0.001602
0.029829
0.100905
0.110429
0.156190
0.055733
0.074667
0.081464
0.063786
0.125793
0.244471
0.083651
0.044179
0.147611
0.083334
0.051402
0.021787
-0.026662
0.031881
0.032048
0.054237
-0.018450
0.034338
-0.049420
-0.064049
-0.043611
0.023272
-0.022136
-0.056585
-0.068326
-0.068941
-0.044585
-0.045911
-0.095148
-0.107159
-0.012787
-0.079240
-0.013295
-0.008603
0.011168
-0.104257
-0.040931
-0.113081
-0.133966
-0.039816
-0.073062
0.039802
0.426252
0.721040
0.981012
1.308685
1.407956
1.223009
1.074421
0.728378
0.266631
0.038723
-0.180230
-0.341772
-0.293523
-0.292856
-0.234942
-0.075005
-0.094242
0.011554
-0.035563
-0.067119
-0.047498
0.049398
-0.011416
-0.041627
0.041846
0.025827
0.033268
0.084692
-0.009602
0.069513
-0.031197
-0.068525
0.064546
0.020767
0.082158
0.088625
0.109945
0.056588
0.210468
0.082053
0.154225
0.162010
0.174006
0.222814
0.165071
0.306787
0.287901
0.363913
0.315353
0.299423
0.348041
0.340387
0.420681
0.434154
0.459626
0.466349
0.434405
0.470767
0.484624
0.490862
0.498495
0.538607
0.531537
0.492717
0.414278
0.508450
0.499173
0.467686
0.485409
0.447974
0.464260
0.406605
0.376864
0.374862
0.324665
0.274002
0.310963
0.317275
0.309790
0.247700
0.278009
0.194155
0.170194
0.174199
0.205002
0.168338
0.124647
0.244125
0.118835
0.047028
0.068983
0.068042
0.055660
0.087104
0.082830
0.099263
-0.018561
0.072938
0.041531
0.064385
0.035329
-0.056241
0.002444
-0.007114
-0.009641
0.008754
0.020645
-0.018617
0.011921
0.090509
0.073339
-0.006422
0.055815
0.025505
0.019274
-0.001117
-0.015855
0.040722
0.054551
0.042771
0.030402
-0.006236
0.041748
0.014709
0.037847
0.026784
-0.041944
0.026872
0.029947
0.029323
0.155102
0.029684
-0.033702
0.030526
-0.013498
0.107929
-0.003460
0.028671
0.022246
0.067657
-0.032745
0.076873
0.058375
-0.061632
-0.020074
0.015790
0.024591
0.060436
0.082299
0.011595
0.055074
-0.010448
0.046163
0.067413
0.160732
0.007221
0.025527
-0.036946
-0.012588
0.062188
0.040601
0.054828
0.069020
0.067101
0.053356
-0.005450
0.054742
0.052078
0.024643
0.060681
0.085763
0.023137
0.011217
0.130415
0.107899
0.198967
0.187420
0.106309
0.132295
0.145245
0.226102
0.132887
0.167875
0.198835
0.207419
0.188255
0.179287
0.256239
0.216541
0.207229
0.208145
0.254939
0.185790
0.169992
0.156479
0.187686
0.191168
0.256290
0.158084
0.104947
0.132581
0.062744
0.118932
0.123763
0.139152
0.195234
0.060846
0.000000
0.000000
0.000000
0.000000
0.000000
0.000000
0.000000
0.000000
0.000000
0.000000
0.000000
0.000000
0.000000
0.000000
0.000000
0.000000
0.000000
0.000000
0.000000
0.000000
0.000000
0.000000
0.000000
0.000000
0.000000
0.000000
0.000000
0.000000
0.000000
0.000000
0.000000
0.000000
0.333641
0.068514
-0.187790
-0.239979
-0.267389
-0.144426
-0.114786
-0.054505
0.041118
0.039068
0.091416
0.022152
0.014533
0.039211
0.037733
0.127911
0.030727
0.118689
0.052165
0.079104
0.038566
0.068299
0.076347
0.102941
0.100739
0.173838
0.110953
0.260232
0.134613
0.154607
0.243590
0.165975
0.266856
0.263344
0.250528
0.217762
0.301136
0.338787
0.348734
0.384916
0.273828
0.386462
0.338806
0.447954
0.421551
0.489027
0.442188
0.479800
0.603315
0.556376
0.558101
0.512976
0.605676
0.542269
0.512491
0.523207
0.576446
0.529359
0.536019
0.501028
0.438504
0.466078
0.471994
0.447841
0.436875
0.409084
0.403292
0.359215
0.340949
0.315146
0.340420
0.337053
0.353581
0.294806
0.178167
0.164881
0.198072
0.210008
0.128483
0.108960
0.088584
0.136198
0.061150
0.103159
0.136915
0.101735
0.110784
0.063058
0.069508
0.015571
0.104801
0.064740
0.139291
-0.001688
0.032546
-0.074875
0.033493
-0.002120
0.032173
0.018263
0.002987
0.044912
0.045235
-0.022963
-0.067705
0.038482
-0.026704
0.061873
-0.000425
-0.013902
0.041225
0.008235
0.070263
-0.015790
0.013308
-0.014895
-0.035668
-0.038371
-0.027757
-0.037237
0.013123
-0.032959
-0.064167
-0.027402
0.048834
0.050190
-0.007552
-0.025965
-0.004669
-0.018117
0.018487
-0.011931
-0.051468
-0.060478
-0.002829
0.012766
-0.006906
-0.095463
0.063751
-0.002687
0.058709
0.007662
0.041290
0.065707
-0.022590
-0.016379
-0.042716
0.068736
-0.049603
-0.075594
-0.091302
0.001699
-0.006614
-0.077700
0.019235
-0.077471
0.012740
0.070634
-0.010919
0.042118
-0.063618
0.024673
0.041765
-0.082818
-0.032218
0.156307
0.033065
-0.060057
0.048444
0.173041
0.056561
0.146173
0.057718
0.097857
0.090163
0.153798
0.216411
0.067923
0.138065
0.195390
0.217932
0.122307
0.147722
0.114734
0.124644
0.155729
0.074216
0.142135
0.043596
0.000000
0.000000
0.000000
0.000000
0.000000
0.000000
0.000000
0.000000
0.000000
0.000000
0.000000
0.000000
0.000000
0.000000
0.000000
0.000000
0.000000
0.000000
0.000000
0.000000
0.000000
0.000000
0.000000
0.000000
0.000000
0.000000
0.000000
0.000000
0.000000
0.000000
0.000000
0.000000
0.000000
0.000000
0.000000
0.000000
0.000000
0.000000
0.000000
0.000000
0.000000
0.000000
0.000000
0.000000
0.000000
0.000000
0.000000
0.000000
0.000000
0.000000
0.000000
0.000000
0.000000
0.000000
0.000000
0.000000
0.000000
0.000000
0.000000
0.000000
0.000000
0.000000
0.000000
0.000000
0.002028
-0.058510
0.016753
0.071758
0.044849
0.042046
0.086367
0.054792
0.096024
0.112379
0.110969
0.179164
0.141424
0.233512
0.281271
0.200385
0.314870
0.261669
0.278633
0.290750
0.328594
0.378669
0.313947
0.361333
0.417943
0.384595
0.412618
0.399878
0.412529
0.429910
0.439917
0.356048
0.418925
0.456361
0.405114
0.438696
0.421603
0.390280
0.340952
0.351031
0.371393
0.279803
0.322587
0.314056
0.189791
0.217282
0.166842
0.211373
0.219133
0.172987
0.062613
0.045775
0.036347
0.075943
0.030145
0.047022
0.012136
0.014501
-0.001281
-0.076157
-0.007716
0.009839
0.007470
-0.011711
-0.111577
-0.082201
-0.099382
-0.042069
-0.032360
-0.095350
-0.099349
-0.091805
-0.091334
-0.195683
-0.063261
-0.101960
-0.187716
-0.065835
-0.098029
-0.110768
-0.147199
-0.132055
0.038212
-0.075887
-0.066106
-0.150286
-0.088440
-0.193392
-0.143903
-0.082426
-0.100881
-0.147188
-0.159818
-0.089054
-0.065633
-0.062939
-0.150264
-0.061788
-0.052710
-0.090362
-0.139385
-0.134764
-0.136444
-0.111618
-0.095772
-0.111587
-0.055535
0.003199
-0.105490
-0.009920
-0.110304
-0.080755
-0.044376
-0.103695
-0.130562
-0.102092
-0.076877
-0.063543
-0.118573
-0.108803
-0.081536
-0.044860
-0.101112
-0.107875
-0.149194
-0.053631
-0.155674
-0.072537
-0.112598
-0.024975
-0.055912
-0.116537
-0.102056
-0.143657
-0.082805
-0.073832
-0.091569
-0.097793
0.025059
-0.035172
-0.067590
-0.030288
-0.000662
-0.082293
-0.100498
-0.071355
0.016332
-0.012122
0.052045
0.020479
-0.036420
-0.003337
0.051982
0.023390
0.043993
0.067256
0.091928
0.150246
-0.033437
0.097049
0.024186
0.051912
0.083899
0.055106
0.032699
0.040853
0.048689
0.030848
-0.029405
-0.027496
0.023912
-0.047419
-0.003158
0.012155
-0.052498
-0.050266
-0.072587
-0.124661
-0.058427
-0.101791
-0.139996
-0.100009
-0.023815
-0.059903
-0.075720
-0.077517
-0.080167
-0.003543
-0.101248
-0.017684
0.008792
-0.141488
-0.074410
-0.003925
-0.172337
-0.158645
-0.138908
-0.092414
-0.126615
0.017143
0.268173
0.509385
0.847149
1.202129
1.330237
1.305491
1.116192
0.746668
0.465722
0.102328
-0.174055
-0.320294
-0.367365
-0.349562
-0.226652
-0.219590
-0.130773
-0.111483
-0.042264
-0.113598
-0.049239
-0.012420
-0.058984
0.061788
-0.193020
-0.135839
-0.020399
0.002992
-0.108844
-0.083841
-0.020335
0.002925
-0.061838
-0.038014
0.068177
0.080574
0.134378
0.064933
0.042543
0.102690
0.119875
0.107303
0.132910
0.158435
0.112961
0.258224
0.252752
0.235430
0.335102
0.318184
0.313926
0.304195
0.383731
0.451972
0.434218
0.440827
0.452693
0.391809
0.465026
0.400021
0.404794
0.452638
0.477746
0.531655
0.524271
0.463738
0.478804
0.435257
0.361286
0.377804
0.326522
0.443821
0.330255
0.335158
0.338840
0.285474
0.246449
0.245837
0.308973
0.224554
0.225264
0.257486
0.249900
0.127705
0.181923
0.154882
0.080788
0.038548
0.064275
0.060127
0.072987
0.067822
0.058951
0.118956
0.024699
0.035913
0.010998
0.057583
-0.006653
0.067024
0.103068
-0.027276
0.018212
-0.085279
0.019408
0.014045
0.008466
0.024010
-0.068060
0.003952
-0.051437
-0.119948
0.009451
-0.022349
-0.007445
0.029085
0.014269
-0.020035
0.008560
-0.012774
0.016622
-0.045562
-0.001797
-0.028920
0.032961
0.018974
0.051862
-0.096186
-0.084873
0.020911
0.036082
-0.041700
-0.021636
-0.032466
0.018146
-0.038409
-0.068534
0.035757
-0.070426
-0.042632
-0.025369
-0.054107
-0.003994
-0.017101
0.001983
-0.081834
0.011981
-0.033550
0.101361
0.043705
0.008087
0.015615
0.014802
0.135226
-0.017336
0.085713
0.028421
0.001689
0.046856
0.067128
-0.007135
0.032071
0.089401
-0.010525
0.004951
0.040590
0.047851
0.056878
0.024891
0.054597
0.058931
0.155834
0.040825
0.070817
0.121284
0.140864
0.234651
0.094846
0.092327
0.132493
0.193107
0.234006
0.164320
0.156791
0.188112
0.260833
0.235217
0.221087
0.121554
0.206694
0.129362
0.108836
0.215207
0.216304
0.179806
0.238543
0.153808
0.149396
0.150934
0.127835
0.202037
0.159345
0.108276
0.190676
0.120697
0.067386
0.017389
0.013710
0.082970
0.058887
0.077635
0.045480
0.026626
0.101568
-0.023822
0.045185
0.144537
0.051027
0.141398
0.083674
-0.002137
0.098378
0.043849
0.132518
0.048578
0.058553
-0.002389
0.091127
-0.069834
0.091708
0.212907
0.416204
0.731903
1.007856
1.352190
1.455705
1.429849
1.223276
0.847357
0.369921
0.208194
-0.110493
-0.248490
-0.186417
-0.160914
-0.097207
-0.045570
0.013452
0.036539
0.065609
0.132912
0.091626
0.020831
0.021034
-0.026607
0.178981
0.139353
0.072840
0.082060
0.126473
0.103875
0.112116
0.115547
0.251512
0.096395
0.143324
0.137223
0.149540
0.167677
0.226114
0.194584
0.249913
0.317603
0.266710
0.290524
0.359268
0.374990
0.329511
0.306513
0.521514
0.480579
0.511448
0.451589
0.439134
0.418590
0.547751
0.558053
0.544172
0.541964
0.528957
0.547400
0.565034
0.599857
0.554786
0.619416
0.554517
0.541319
0.524161
0.587869
0.500452
0.517629
0.531888
0.435315
0.527902
0.467399
0.454530
0.419003
0.440335
0.405955
0.329442
0.307142
0.329500
0.292788
0.278062
0.344281
0.180922
0.230676
0.224727
0.201420
0.213051
0.220391
0.204907
0.136000
0.138392
0.155163
0.176042
0.100283
0.101987
0.122822
0.054883
0.075680
0.069027
0.082125
0.110905
0.066434
