0.020943
0.028765
0.070285
-0.026910
0.040561
-0.132277
-0.066795
-0.027769
0.056593
0.068364
0.019817
-0.002519
0.005685
-0.100126
0.021309
0.058445
0.094557
0.124054
0.019239
0.002216
0.013105
-0.015124
0.039412
0.061885
-0.032439
0.058482
0.052258
-0.023683
0.109497
0.120008
0.022984
0.199502
0.111842
0.135439
0.126643
0.192941
0.178381
0.184418
0.167851
0.143592
0.110481
0.277533
0.193345
0.207569
0.159700
0.191555
0.236880
0.112999
0.194730
0.247717
0.216316
0.099296
0.179739
0.131486
0.121017
0.050684
0.063810
0.015413
0.104116
0.094119
0.071258
0.087262
0.028750
0.074478
0.014371
0.034424
0.032826
0.015731
0.064945
-0.001548
0.071972
0.041505
0.131255
0.121413
0.088493
0.045953
0.064616
0.080175
0.144497
0.412183
0.625464
0.902181
1.266625
1.427575
1.444202
1.192068
0.910215
0.561838
0.175579
-0.065592
-0.158266
-0.207951
-0.135850
-0.023869
0.082131
0.107702
0.093295
0.061932
0.079793
0.104696
0.165003
0.120122
0.183925
0.038669
0.110620
0.083476
0.170701
0.094896
0.137225
0.154463
0.149255
0.259091
0.228492
0.281538
0.278172
0.307546
0.275533
0.337022
0.242286
0.373681
0.425210
0.459999
0.438967
0.370602
0.451470
0.448290
0.477935
0.525550
0.524001
0.491829
0.498748
0.498952
0.542318
0.565955
0.627531
0.585243
0.531775
0.607943
0.540252
0.597009
0.574380
0.517069
0.454711
0.524684
0.515255
0.550852
0.504621
0.528242
0.450373
0.340054
0.431107
0.298382
0.359764
0.353845
0.307448
0.289218
0.299247
0.294251
0.277902
0.274890
0.233496
0.190815
0.210347
0.193657
0.228513
0.140343
0.056627
0.036729
0.127391
0.113869
0.168017
0.145796
0.078000
0.094624
0.085917
0.047226
0.059173
0.141166
0.095716
0.155754
-0.000630
0.111229
0.176790
0.061188
0.067560
0.109113
0.049976
0.085739
0.062196
0.057073
0.118946
0.144090
0.076080
0.135513
0.073880
0.230324
0.128964
0.077004
0.074136
0.075491
0.091010
-0.012404
0.144586
0.024557
0.084454
0.142084
0.093502
0.147447
0.064257
0.127166
0.119054
0.105991
0.131399
0.049033
0.067465
0.086179
0.066008
0.136041
0.003707
0.136525
0.098468
0.096902
0.028140
0.077831
0.087638
0.114566
0.121506
0.041533
0.047974
0.101623
0.185430
0.128373
0.111737
0.094228
0.171760
0.148470
0.214658
0.086914
0.169226
0.204197
0.144756
0.182108
0.129357
0.209344
0.240536
0.184263
0.275876
0.217181
0.326104
0.245196
0.272829
0.305801
0.268060
0.210139
0.267921
0.280511
0.205051
0.198104
0.258014
0.239524
0.100933
0.149058
0.088237
0.130633
0.144238
0.153967
0.115854
0.074278
0.065280
0.066754
0.067384
0.145768
0.096068
0.071563
0.068116
0.058106
0.048888
0.055449
0.149036
0.090072
0.059359
0.182749
0.042300
0.059934
-0.009083
0.048879
0.148385
0.258308
0.484226
0.862042
1.229876
1.365157
1.407824
1.299522
0.991056
0.613160
0.360892
0.008471
-0.184249
-0.187732
-0.071899
-0.028075
0.040945
-0.013982
0.053066
0.019732
0.127701
0.069883
0.115081
0.144888
0.181079
0.119416
0.064001
0.165889
0.074805
0.126393
0.135493
0.201900
0.263517
0.193064
0.219045
0.298481
0.204910
0.213696
0.251725
0.282125
0.261545
0.265676
0.273213
0.352872
0.418210
0.388598
0.362887
0.403640
0.456759
0.527499
0.564532
0.444452
0.485253
0.672437
0.461227
0.501586
0.490067
0.621656
0.540705
0.572558
0.588995
0.553768
0.526401
0.485087
0.545427
0.457734
0.474113
0.484897
0.440988
0.413117
0.506941
0.420197
0.295662
0.336439
0.310998
0.279276
0.278255
0.257568
0.193358
0.263524
0.166686
0.112981
0.198499
0.142603
0.133793
0.156362
0.155891
0.051483
0.068880
0.053386
0.048545
-0.020514
0.033623
0.112947
-0.009710
0.054085
-0.045218
-0.029652
0.045017
0.001790
0.062427
0.017754
0.055309
-0.059911
-0.010077
-0.069514
-0.009219
0.080832
0.011895
0.056538
-0.009188
0.038845
0.072950
0.008477
0.062338
-0.027567
0.004400
-0.029059
0.059465
0.069772
0.080727
-0.049854
-0.019733
0.000924
0.073161
-0.035766
0.038761
0.007407
-0.032635
0.036691
0.055133
-0.009986
-0.026373
-0.085355
0.026315
-0.003373
-0.089231
0.018224
-0.002159
-0.006174
-0.001971
0.090651
-0.011545
-0.037175
0.009903
-0.021888
0.030082
0.045073
0.020807
-0.011682
0.031595
0.034372
0.012449
-0.105271
0.054902
0.027780
0.023422
0.012148
0.041897
0.018214
0.146939
0.101001
0.142308
0.106570
0.111980
0.121540
0.130916
0.128333
0.176001
0.117727
0.184088
0.128874
0.123036
0.232389
0.154018
0.107311
0.163043
0.113901
0.136741
0.141373
0.084221
0.050072
0.046296
0.054436
0.097324
0.068089
0.067389
0.022024
0.094179
0.058288
0.034467
0.057702
0.073477
-0.041406
-0.081680
0.051755
-0.083516
-0.009804
-0.011852
-0.056623
0.001250
-0.101230
-0.066372
-0.086640
-0.068905
0.049055
-0.036499
-0.052969
0.029354
0.158556
0.330652
0.596566
0.957430
1.246748
1.250692
1.270806
1.067835
0.726195
0.346721
0.054116
-0.171110
-0.276801
-0.248054
-0.219731
-0.136979
-0.147647
-0.048525
-0.036604
0.051420
0.011038
0.011648
0.009545
-0.013481
0.028908
0.056961
0.069329
0.040872
-0.000197
0.046810
0.008711
0.105958
0.143113
0.083331
0.169338
0.135586
0.149564
0.172521
0.211156
0.141890
0.145729
0.256939
0.323205
0.318493
0.260600
0.361654
0.340703
0.454730
0.370131
0.384532
0.500501
0.462892
0.413324
0.474894
0.468585
0.436124
0.497975
0.413933
0.418657
0.405406
0.449567
0.469129
0.419113
0.409421
0.396802
0.390670
0.434560
0.380611
0.297216
0.339895
0.283684
0.234665
0.259622
0.255363
0.194966
0.281039
0.134728
0.110732
0.146296
0.076841
0.084528
0.095192
0.067474
0.070034
0.077532
0.018758
0.009281
0.047142
-0.000797
0.079132
0.058952
-0.044366
0.006876
0.010784
0.012073
-0.110160
-0.040249
-0.026448
-0.022211
-0.055571
-0.051016
-0.025897
-0.051727
-0.014680
0.022055
-0.036471
-0.027829
-0.099198
0.007919
-0.013773
-0.114412
-0.039828
-0.051711
-0.089330
0.009993
-0.018956
-0.088862
-0.046569
-0.003331
-0.015548
-0.017843
-0.089821
-0.069179
-0.021452
-0.055602
-0.073362
-0.029802
-0.073715
-0.053933
-0.046834
-0.021472
0.027150
-0.026150
-0.025554
-0.037500
-0.027921
-0.093484
-0.011767
-0.082143
0.017160
0.041484
-0.061047
-0.078589
-0.050827
-0.029788
-0.101948
-0.046381
-0.012085
0.004914
-0.040606
-0.062252
-0.073693
0.063987
0.040584
-0.104538
0.038439
-0.085799
0.048385
0.023205
0.093647
0.148234
0.067670
0.062819
0.090525
0.058688
0.153188
0.132339
0.178301
0.103065
0.181090
0.179966
0.177630
0.234381
0.202624
0.196382
0.142593
0.222839
0.148115
0.057178
0.176502
0.086263
0.144387
0.079008
0.069231
0.112778
0.015614
-0.001912
0.084896
-0.021052
0.003437
0.103403
-0.089128
-0.027246
0.054944
-0.008786
0.036856
0.002713
0.024487
-0.100957
0.017358
-0.132344
-0.020484
0.062022
0.035442
-0.044888
-0.014291
-0.042696
0.003910
0.193713
0.345531
0.605509
0.857321
1.104384
1.369338
1.363690
1.171841
0.852660
0.414707
0.192616
-0.074608
-0.170982
-0.287115
-0.163365
-0.111856
-0.067010
-0.084020
-0.016504
0.061875
0.009034
0.014478
0.049562
0.058429
0.028956
0.105822
0.109952
0.017158
0.125654
0.131145
0.085685
0.037062
0.105382
0.144584
0.162595
0.222916
0.190662
0.270980
0.238988
0.282418
0.293185
0.321208
0.239445
0.271511
0.379009
0.345080
0.391766
0.398344
0.379275
0.485281
0.464094
0.550847
0.500047
0.565804
0.502771
0.483582
0.538444
0.503285
0.552504
0.588599
0.623925
0.483666
0.505871
0.538177
0.501231
0.423393
0.487955
0.416189
0.504758
0.410974
0.393165
0.427953
0.405821
0.295842
0.305164
0.264596
0.251235
0.317752
0.176352
0.150516
0.169421
0.155724
0.215642
0.108264
0.176296
0.065355
0.146573
0.101363
0.145167
0.132094
0.088176
0.101217
0.042276
0.072037
0.082972
0.105787
0.082989
0.049204
-0.008654
0.109510
0.025834
-0.030721
0.091544
-0.022995
0.095071
0.027146
0.095806
0.083484
0.052952
0.122015
0.056726
0.035042
-0.016376
0.110674
0.049153
0.055808
0.066458
0.076246
0.118835
-0.004768
0.028296
0.069308
0.010671
0.015503
0.079326
0.067639
0.023282
0.106707
0.099557
0.079738
0.182149
0.109882
0.060809
0.110752
0.066161
-0.006490
0.076229
0.071081
0.077204
0.052643
0.055818
0.003395
0.136787
0.057192
0.100154
0.095242
0.173582
0.068438
0.031681
0.088466
0.145193
0.148905
0.138813
0.013188
0.139603
0.079610
0.207277
0.106912
0.200971
0.183707
0.119176
0.070540
0.180742
0.194828
0.233380
0.231978
0.185763
0.241206
0.202244
0.234819
0.217855
0.178543
0.299458
0.258567
0.275761
0.221308
0.304007
0.252050
0.191345
0.177391
0.212312
0.184233
0.157956
0.169421
0.121868
0.218038
0.149338
0.198873
0.158491
0.088917
0.033686
0.129844
0.161484
0.125647
0.025498
0.083019
-0.007422
0.158913
0.066170
0.095129
0.012429
0.094234
0.088234
0.131020
0.090767
0.037876
0.060686
0.092051
0.203235
0.218446
0.595896
0.880846
1.256652
1.417355
1.438482
1.352182
1.093780
0.679493
0.322944
0.090715
-0.167044
-0.167558
-0.060868
-0.022650
-0.016877
0.109669
0.216492
0.017764
0.230623
0.107730
0.133379
0.134679
0.183993
0.057963
0.155155
0.113218
0.216042
0.130707
0.207124
0.190306
0.177095
0.296135
0.226802
0.242816
0.229912
0.307386
0.372789
0.284030
0.337197
0.402177
0.389610
0.407228
0.378410
0.468183
0.454528
0.441678
0.450878
0.458206
0.621835
0.541564
0.528059
0.503446
0.584100
0.577782
0.634850
0.613763
0.584581
0.593006
0.572886
0.571980
0.612956
0.563208
0.621143
0.475240
0.515375
0.496490
0.500930
0.469254
0.337987
0.441034
0.398541
0.383467
0.365732
0.379113
0.348368
0.315011
0.316136
0.255928
0.260430
0.169460
0.193520
0.210416
0.104421
0.159379
0.128417
0.197858
0.172597
0.134916
0.193044
0.194268
0.102995
0.136632
0.125250
0.136917
0.106359
0.145151
0.092172
0.139412
0.108092
0.103086
0.093904
0.072478
0.173050
0.096479
0.194336
0.096291
0.093808
0.036637
0.074849
0.112248
0.086646
0.112056
0.103200
0.080429
0.014952
0.139050
0.195728
0.161691
0.010799
0.079096
0.114871
0.077151
0.093308
0.126446
0.129664
0.101914
0.117745
-0.005815
0.080004
0.063438
0.095081
0.090485
0.041889
0.041805
0.069124
0.125447
0.109030
0.093725
0.098770
0.013225
0.034628
0.141068
0.052739
0.036348
0.016299
0.189717
0.049336
0.068942
0.009743
0.066016
0.016455
0.051992
0.108155
0.068481
0.101880
0.063700
0.081033
0.103455
0.097750
0.190075
0.249558
0.185447
0.128887
0.167974
0.200315
0.157776
0.261279
0.261038
0.185383
0.186733
0.181022
0.261325
0.256639
0.237084
0.124433
0.186087
0.168682
0.191242
0.000000
0.000000
0.000000
0.000000
0.000000
0.000000
0.000000
0.000000
0.000000
0.000000
0.000000
0.000000
0.000000
0.000000
0.000000
0.000000
0.000000
0.000000
0.000000
0.000000
0.000000
0.000000
0.000000
0.000000
0.000000
0.000000
0.000000
0.000000
0.000000
0.000000
0.000000
0.000000
0.000000
0.000000
0.000000
0.000000
0.000000
0.000000
0.000000
0.000000
0.000000
0.000000
0.000000
0.000000
0.000000
-0.038645
-0.032669
-0.003163
0.029179
0.042493
0.036853
0.112260
0.144835
0.028919
0.067070
0.003471
0.152523
0.082128
0.079508
0.031940
0.103620
0.084958
0.116967
0.172194
0.200431
0.269676
0.187774
0.229151
0.254582
0.234548
0.327903
0.298077
0.285353
0.314029
0.367155
0.262975
0.380611
0.445566
0.386376
0.422961
0.468764
0.476089
0.458634
0.493110
0.535389
0.530213
0.508751
0.488342
0.551883
0.479085
0.493114
0.487292
0.496834
0.428948
0.509648
0.462483
0.354862
0.383906
0.318844
0.230781
0.000000
0.000000
0.000000
0.000000
0.000000
0.000000
0.000000
0.000000
0.000000
0.000000
0.000000
0.000000
0.000000
0.000000
0.000000
0.000000
0.000000
0.000000
0.000000
0.000000
0.000000
0.000000
0.000000
0.000000
0.000000
0.000000
0.000000
0.000000
0.000000
0.000000
0.000000
0.000000
0.000000
0.000000
0.000000
0.000000
0.000000
0.000000
0.000000
-0.036908
-0.090007
-0.036333
-0.105431
-0.072334
-0.072202
-0.030085
-0.078325
-0.009249
-0.033743
-0.090641
-0.020767
-0.021740
-0.038856
-0.057685
-0.040364
-0.050017
-0.133548
-0.116638
-0.099847
-0.091387
-0.078676
-0.056866
-0.070735
-0.063185
-0.029340
-0.141758
-0.081941
0.035204
0.003046
-0.061125
-0.051236
-0.058082
-0.044593
-0.023482
-0.023431
-0.049417
-0.091029
0.013911
-0.009299
-0.032770
0.019094
0.037760
-0.006605
-0.032553
-0.059643
0.042189
-0.036160
-0.007086
-0.051230
-0.066618
0.140052
0.002341
0.067733
0.113035
0.064177
0.074438
0.080275
0.068430
0.115056
0.092639
0.141519
0.122774
0.130255
0.132802
0.080612
0.063089
0.080366
0.063373
0.043434
0.008649
-0.020912
0.054262
-0.019965
0.066644
-0.030708
-0.065723
-0.045700
0.012949
-0.012129
-0.006503
-0.013303
-0.186599
-0.006293
0.071517
-0.120281
-0.033578
-0.121284
-0.039993
-0.113825
-0.073624
-0.052228
-0.086932
-0.000519
-0.063067
-0.107241
-0.075478
-0.056660
0.037929
0.180976
0.530248
0.874582
1.105730
1.241730
1.196952
1.051584
0.697089
0.392516
0.054037
-0.161744
-0.262759
-0.348843
-0.208359
-0.142349
-0.163127
-0.151394
-0.056307
-0.094236
-0.113039
-0.056106
0.009495
-0.036485
-0.002400
-0.048039
-0.009645
-0.038649
0.017828
0.034283
0.068732
0.003661
0.017198
0.153838
0.089263
0.140670
0.157055
0.129543
0.104651
0.167526
0.155603
0.245262
0.206955
0.258877
0.331764
0.348573
0.380291
0.378892
0.281333
0.322900
0.420198
0.395604
0.407646
0.406613
0.398215
0.415798
0.385261
0.410609
0.459679
0.536145
0.368093
0.413081
0.401838
0.283733
0.397148
0.414523
0.348159
0.293304
0.360296
0.298742
0.286320
0.264710
0.251297
0.280901
0.279506
0.173816
0.227334
0.189877
0.164682
0.107479
0.087726
0.031983
0.037270
0.008437
0.082640
0.041735
0.028407
0.001512
-0.024997
0.038257
-0.012162
-0.028464
-0.053643
-0.046020
-0.007870
-0.047571
-0.069248
-0.042663
-0.034221
-0.054201
-0.093877
-0.016178
-0.042581
-0.058045
-0.065201
-0.013074
0.037214
-0.066387
-0.024162
-0.035798
-0.008256
-0.069360
-0.024338
0.018456
-0.078707
-0.151459
-0.098735
0.002973
-0.072349
-0.071509
0.024363
-0.038112
-0.041785
-0.056438
-0.000512
-0.069205
-0.076763
-0.056055
-0.102196
-0.103909
-0.043568
-0.061678
-0.034451
-0.053737
-0.084406
-0.072095
-0.060367
-0.031273
-0.009702
-0.006142
0.009552
0.034082
-0.035748
0.043202
0.021207
-0.151198
-0.022448
-0.005024
0.018961
-0.020364
-0.020856
0.011413
-0.036510
0.010228
0.007224
-0.020443
-0.002156
0.051917
0.011805
0.021723
0.085226
0.014218
0.098334
0.060558
0.055993
0.055812
0.259589
0.157246
0.155142
0.143219
0.103116
0.040726
0.143430
0.087698
0.085728
0.140378
0.094063
0.084424
0.142836
0.107363
0.144881
0.037929
0.065669
0.101869
0.126788
0.116082
0.083670
0.028507
-0.024310
0.059892
0.024734
-0.007266
-0.000830
0.040456
0.013318
-0.037387
-0.087600
0.018621
-0.027365
0.048404
-0.001734
-0.012660
0.015879
-0.001613
-0.023832
0.054500
-0.002558
-0.024884
0.047129
0.131862
0.480715
0.767681
1.083814
1.394182
1.370005
1.241613
0.996373
0.611644
0.225330
-0.006783
-0.200732
-0.251265
-0.284641
-0.100865
-0.076058
-0.019628
0.077223
0.046807
0.033729
0.048987
0.041918
0.126372
0.059239
0.051420
0.075321
0.110219
0.100367
0.114438
0.112996
0.058946
0.109102
0.137170
0.149164
0.078375
0.194191
0.111508
0.151381
0.211501
0.255962
0.267684
0.353685
0.251860
0.298348
0.337560
0.337820
0.396758
0.395435
0.472529
0.513989
0.578981
0.397253
0.454560
0.479019
0.491209
0.548397
0.448907
0.509312
0.567130
0.500070
0.447904
0.459889
0.499493
0.408163
0.523130
0.493533
0.469612
0.438228
0.378207
0.366422
0.283211
0.283648
0.278786
0.268587
0.313150
0.226162
0.298464
0.239375
0.205460
0.194553
0.146779
0.162508
0.133857
0.225810
0.137607
0.170746
0.116276
0.137980
0.089420
0.190589
0.115451
0.067453
0.040359
0.120368
0.109935
0.066895
0.099740
0.047119
0.007630
0.073316
0.069298
0.053887
0.071529
0.006902
-0.027428
0.005768
0.019235
0.081183
0.049572
0.015910
-0.024379
0.014756
0.052704
0.106390
0.096272
0.102290
0.055070
-0.005816
0.020332
-0.041045
0.005102
0.007890
-0.063184
0.116267
-0.005907
0.067140
0.026308
0.066457
0.060558
0.022964
0.128827
0.050241
0.122161
0.107933
0.047621
-0.045074
0.095878
-0.007930
0.108300
0.103939
-0.012885
0.055297
0.001242
-0.033364
0.108738
0.027492
0.058595
0.133573
0.037683
0.022851
0.017959
0.121119
0.079995
0.071131
0.143589
0.130492
0.094247
0.076253
0.070803
0.127004
0.200484
0.136698
0.133057
0.178321
0.159395
0.160298
0.213253
0.265651
0.277702
0.256086
0.213819
0.195319
0.213259
0.216298
0.197552
0.244345
0.262262
0.252621
0.175840
0.208704
0.117407
0.155060
0.093398
0.055538
0.139407
0.158526
0.087132
0.097224
0.109816
0.117206
0.063413
0.049376
0.049943
0.000854
0.006042
0.124171
0.083338
0.107199
0.065227
0.045453
-0.010526
0.063202
0.106650
-0.059423
-0.003395
0.066610
-0.032577
0.083216
0.149185
0.468680
0.704344
1.093028
1.282303
1.419748
1.360189
1.174312
0.767751
0.478636
0.073064
-0.056342
-0.184796
-0.184767
-0.098519
-0.083546
-0.055547
0.079907
-0.027989
0.026416
0.062784
0.109998
0.074250
0.053291
0.078187
0.090409
0.126250
0.101793
0.135264
0.125381
0.102560
0.129338
0.130445
0.213905
0.185265
0.156225
0.236296
0.203199
0.327469
0.250338
0.296240
0.224031
0.320372
0.337266
0.291555
0.360909
0.449954
0.448142
0.417010
0.564175
0.519974
0.439877
0.543952
0.559997
0.565556
0.566602
0.504469
0.585516
0.561390
0.545710
0.522643
0.467557
0.532984
0.464653
0.527690
0.502164
0.383910
0.449172
0.441588
0.418732
0.387035
0.330330
0.261834
0.316290
0.283754
0.323085
0.214024
0.206643
0.250216
0.213732
0.145200
0.106502
0.036348
0.116246
0.070293
0.059205
0.155421
0.000000
0.000000
0.000000
0.000000
0.000000
0.000000
0.000000
0.000000
0.000000
0.000000
0.000000
0.000000
0.000000
0.000000
0.000000
0.000000
0.000000
0.000000
0.000000
0.000000
0.000000
0.000000
0.000000
0.000000
0.000000
0.000000
0.000000
0.000000
0.000000
0.000000
0.000000
0.000000
0.000000
0.000000
0.000000
0.000000
0.000000
0.000000
0.000000
0.000000
0.000000
0.000000
0.000000
0.000000
0.000000
0.000000
0.000000
0.000000
0.000000
0.000000
0.000000
0.000000
0.000000
0.000000
0.000000
-0.007070
0.007599
0.034822
-0.041520
0.056218
0.007570
-0.069351
-0.054005
-0.031887
-0.050001
0.020831
0.061052
0.018784
0.022855
0.049243
0.053639
0.006683
0.072795
0.110571
0.069590
0.045874
0.083208
0.071732
0.082636
0.148781
0.147178
0.167715
0.131389
0.157401
0.103173
0.122399
0.162552
0.076553
0.150757
0.107003
0.061103
0.080396
0.172551
0.036099
0.018858
0.032968
0.030117
0.030043
0.006204
0.044390
-0.052155
0.017452
-0.045506
-0.023208
0.072301
-0.027149
-0.019563
-0.049809
-0.023601
-0.132054
-0.017860
-0.134353
-0.100253
0.037834
-0.034197
-0.008483
-0.017281
-0.171932
-0.109666
-0.088968
-0.005380
0.111079
0.238663
0.458112
0.819118
1.185793
1.394675
1.344922
1.097317
0.792754
0.446532
0.069637
-0.232455
-0.390143
-0.314998
-0.259004
-0.204502
-0.149016
-0.151746
-0.061368
-0.110721
-0.085388
-0.019696
-0.028931
-0.000949
0.032911
-0.053594
-0.020461
0.094159
-0.049425
-0.027572
-0.107065
0.021023
0.020601
0.111089
0.061001
0.103684
0.055881
0.098208
0.161205
0.218869
0.171266
0.200869
0.180305
0.206197
0.252724
0.243334
0.296151
0.264517
0.316569
0.387362
0.285401
0.341782
0.443457
0.480409
0.371997
0.385440
0.430582
0.436815
0.437548
0.474739
0.379248
0.429723
0.395269
0.352060
0.404216
0.355939
0.361909
0.275876
0.217615
0.231358
0.288799
0.261872
0.296621
0.149243
0.193162
0.217089
0.085107
0.133610
0.059664
0.122896
0.122623
0.018152
0.020096
-0.020693
-0.043702
-0.056537
-0.006954
0.053013
-0.024114
-0.135550
-0.005443
-0.097754
-0.151141
-0.001295
-0.159209
-0.076739
-0.098855
-0.133440
-0.151120
-0.072231
-0.000020
-0.089225
-0.138328
-0.068850
-0.095542
-0.188599
-0.073300
-0.103992
-0.088507
-0.103583
-0.132146
-0.023343
-0.090400
-0.145063
-0.061076
-0.115493
-0.067189
-0.057961
-0.038649
-0.082035
-0.141264
-0.080865
-0.097780
-0.058156
-0.065443
-0.160532
-0.045764
-0.113290
-0.082951
-0.138630
-0.079117
-0.077359
-0.055084
-0.097171
-0.129782
-0.176164
-0.118492
-0.096841
-0.086165
-0.126686
-0.179450
-0.117327
-0.069914
-0.047787
-0.077149
-0.080062
-0.116508
-0.069942
-0.130431
-0.112372
-0.128716
-0.055665
-0.059353
-0.030383
-0.101987
-0.025377
0.011991
0.004252
-0.089926
-0.012261
0.019397
-0.009402
0.062917
0.042702
0.022794
0.121530
0.063787
0.065166
0.057268
0.112630
0.068330
0.072795
0.064745
0.120059
0.040012
0.089489
0.087202
-0.029450
0.036797
0.077587
0.008363
0.031318
0.017599
-0.023160
-0.013029
0.019193
0.009979
-0.056370
-0.052748
-0.021442
-0.037494
-0.025176
-0.077048
-0.083175
-0.117421
-0.006434
-0.088617
-0.110040
-0.112553
-0.103442
-0.123438
-0.096013
-0.183245
-0.035703
-0.047690
-0.112552
-0.095878
-0.094847
-0.019365
0.188726
0.377799
0.667319
1.020519
1.243662
1.242763
1.271071
0.923742
0.521444
0.185308
-0.102627
-0.301287
-0.230841
-0.270069
-0.203564
-0.086016
-0.105257
-0.084047
-0.032655
-0.044518
-0.060724
0.050206
0.015278
-0.068074
-0.009295
0.003128
0.009476
0.032833
0.061393
-0.055273
0.035235
0.077950
0.033898
0.065919
0.099895
0.103359
0.121213
0.234883
0.128450
0.130060
0.199830
0.250918
0.241049
0.308530
0.287999
0.191933
0.314295
0.336613
0.323683
0.312835
0.457316
0.430203
0.361695
0.479026
0.528610
0.392221
0.433616
0.420105
0.386975
0.493345
0.451078
0.463461
0.404979
0.478671
0.367969
0.398119
0.364119
0.373301
0.312189
0.334185
0.331009
0.212093
0.274059
0.218407
0.177923
0.214107
0.171620
0.166086
0.147433
0.158362
0.127986
0.036745
-0.046305
0.094460
0.028363
-0.001331
0.105074
-0.041584
0.013423
-0.053812
0.044506
-0.030428
0.040109
-0.035499
0.033050
0.042186
-0.053522
0.030291
-0.017336
0.020465
-0.032425
0.006760
-0.030583
-0.013686
-0.057194
0.009966
0.021381
-0.004584
0.029106
-0.073968
-0.027401
-0.043866
-0.027755
0.008593
0.024646
-0.037975
0.015477
-0.010574
-0.101268
-0.126342
-0.058010
-0.027562
-0.062778
-0.046226
-0.019526
-0.041743
-0.058497
0.037593
-0.003363
0.002390
0.084055
0.047597
0.046893
0.003262
-0.018430
0.020882
-0.044746
0.029968
0.017527
0.061311
0.020710
0.066096
0.011512
0.026721
0.051040
-0.060783
-0.052092
-0.032389
-0.027876
-0.035826
0.027876
-0.014699
0.045658
0.054950
0.042074
0.041661
0.045415
0.125464
0.140907
0.165637
0.081268
0.165659
0.108342
0.147406
0.157301
0.211410
0.211168
0.230405
0.146754
0.192592
0.235076
0.262578
0.240301
0.146037
0.220418
0.254160
0.146843
0.232717
0.145169
0.105700
0.136345
0.104623
0.190634
0.091968
0.129327
0.119966
0.211042
0.055411
0.098692
0.078308
0.063318
0.166544
0.077369
0.094414
0.052094
0.046917
0.072396
0.053935
0.055964
-0.051920
0.059015
-0.050060
0.096596
0.007969
0.002372
0.033694
0.012580
0.118711
0.203668
0.445693
0.772873
1.050500
1.322052
1.500000
1.375124
1.114230
0.745056
0.389449
0.052319
-0.106637
-0.180209
-0.187899
-0.160835
-0.093630
0.009532
0.065970
0.071242
-0.027018
0.044385
0.004324
0.009630
0.065563
0.104025
0.207737
0.156679
0.101436
0.147448
0.129599
0.130139
0.216693
0.240679
0.139609
0.188447
0.249736
0.263114
0.323113
0.363035
0.354501
0.419409
0.329886
0.382802
0.414267
0.394330
0.473252
0.516223
0.380247
0.448665
0.581277
0.477537
0.498616
0.506382
0.489725
0.579309
0.590867
0.604270
0.520807
0.605743
0.555129
0.553746
0.477067
0.657852
0.541689
0.541975
0.520247
0.432738
0.430885
0.598467
0.445585
0.327417
0.377500
0.396991
0.311724
0.307851
0.315465
0.330648
0.321525
0.274093
0.245928
0.179785
0.235379
0.193638
0.317600
0.268863
0.118811
0.160307
0.237202
0.082940
0.098663
0.166447
0.050660
0.107522
0.034588
0.017746
0.101310
0.057889
0.114865
0.066628
0.070848
0.090503
0.043896
-0.027029
0.033090
0.068726
-0.004753
0.105453
0.049221
0.159155
0.121580
0.109636
0.044214
0.097995
0.067031
0.063491
0.139514
0.131718
0.154356
0.079752
0.070708
0.111302
0.137828
0.098128
0.048140
0.090327
0.071687
0.026642
0.060748
0.165399
0.135674
