0.023135
0.027206
-0.008716
0.084102
0.032864
-0.011799
-0.012740
0.093309
0.058285
-0.040486
-0.061352
0.049055
0.063040
-0.089458
0.048607
0.005900
-0.062885
0.049424
-0.084363
-0.026792
-0.018131
0.005804
-0.029770
0.133613
0.038131
-0.013341
0.082750
0.108650
0.019955
0.065383
0.103955
0.061621
0.050932
0.097896
0.130201
0.155091
0.129348
0.160233
0.192806
0.130536
0.295530
0.160313
0.146094
0.165519
0.172511
0.182235
0.209217
0.146316
0.245770
0.269199
0.097995
0.208063
0.139289
0.220338
0.200155
0.162510
0.161346
0.175560
0.078030
0.196108
0.106879
0.088565
0.079533
0.057947
0.119169
0.142000
0.105280
0.090394
0.040160
0.119106
0.108992
0.083176
0.055159
0.001211
0.060504
0.027366
0.117345
0.021162
0.007537
0.057465
-0.004263
0.108360
0.074654
0.093074
0.131689
0.006217
0.008987
0.020749
-0.014269
0.043264
0.162649
0.385016
0.708147
1.019410
1.230095
1.425020
1.394372
1.236745
0.961554
0.685573
0.279474
0.062876
-0.195945
-0.248050
-0.219210
-0.168158
-0.068077
-0.063249
0.019254
0.065631
0.043093
0.097573
0.064483
0.125234
0.092888
0.005350
0.069367
0.096149
0.000348
0.088156
0.101887
0.124229
0.095045
0.150250
0.135979
0.168800
0.068921
0.164716
0.164565
0.175633
0.222280
0.191669
0.277342
0.207487
0.313024
0.316333
0.247262
0.393998
0.265200
0.453776
0.379546
0.415621
0.520676
0.358445
0.480542
0.424028
0.493303
0.510879
0.564162
0.542376
0.539516
0.536918
0.523050
0.598796
0.529352
0.606754
0.616784
0.558126
0.622354
0.618569
0.536511
0.541314
0.482827
0.483340
0.514136
0.479344
0.363061
0.397843
0.525234
0.390989
0.344344
0.406339
0.327297
0.314679
0.330763
0.286844
0.276271
0.230707
0.159647
0.189111
0.273160
0.247997
0.162527
0.227422
0.157384
0.156015
0.114388
0.155742
0.108265
0.143366
0.175602
0.068321
0.158163
0.096390
0.130923
0.066860
0.025303
0.025648
0.081928
0.084598
0.115211
0.063440
0.097233
0.054636
0.137840
0.094838
0.048394
0.102370
-0.007736
0.015496
0.030219
0.074966
0.080666
0.058068
0.074198
0.172443
0.101365
0.014492
0.087346
0.054133
0.091148
0.140336
0.137674
0.041224
0.126161
0.044002
0.074999
0.061476
0.153036
0.123808
0.103561
0.125036
0.102684
0.076472
0.070588
0.066240
0.129471
0.130572
0.050613
0.089530
0.018075
0.171265
0.164116
0.116204
0.041872
0.036396
0.057053
0.151433
0.093055
0.120697
0.074729
0.093308
0.146992
0.113765
0.067794
0.059310
0.123457
0.081418
0.077474
0.128808
0.081131
0.080466
0.096886
0.069566
0.067000
0.042861
0.076383
0.199811
0.123226
0.079589
0.184323
0.223664
0.159291
0.205032
0.175416
0.196070
0.208092
0.177388
0.206039
0.222455
0.287920
0.181767
0.213983
0.203286
0.249655
0.224247
0.263301
0.245886
0.253842
0.282744
0.269603
0.258313
0.234121
0.216120
0.165889
0.154497
0.272518
0.172084
0.144429
0.096537
0.031567
0.149072
0.153816
0.189231
0.095857
0.083676
0.053331
0.099186
0.138444
0.016446
0.108070
0.033686
0.008532
0.051543
0.020332
-0.006042
0.082474
0.077157
0.016261
0.003475
0.047137
0.041483
0.096193
0.007805
0.056206
-0.089621
0.028702
0.043018
0.085077
0.429958
0.748932
0.960570
1.331663
1.500000
1.372691
1.222658
0.933765
0.557893
0.242819
0.014395
-0.201073
-0.246314
-0.252862
-0.219803
-0.075789
-0.009500
0.049617
0.092816
0.033109
0.051910
0.048104
-0.029477
0.045390
0.068214
0.067328
0.000675
0.071342
0.091589
0.115133
0.184493
0.038889
0.064547
0.123997
0.137134
0.148426
0.166204
0.072184
0.150372
0.196781
0.189105
0.178483
0.272409
0.246099
0.337148
0.266034
0.208027
0.274166
0.351551
0.263975
0.409475
0.388581
0.341073
0.470007
0.459474
0.449768
0.457450
0.456978
0.502961
0.470283
0.439406
0.569950
0.578802
0.531842
0.521936
0.528382
0.477057
0.461009
0.476121
0.530898
0.547241
0.427814
0.377747
0.406087
0.446347
0.387680
0.366706
0.352183
0.287716
0.301236
0.255199
0.231344
0.259259
0.206150
0.241458
0.178376
0.169465
0.198154
0.140730
0.166097
0.097292
0.022770
0.066451
0.040324
0.121601
0.063939
0.037822
0.074278
0.016143
0.006287
0.080399
0.031254
0.032045
0.032417
-0.053538
-0.015244
-0.012915
-0.007851
-0.081699
-0.018613
0.047960
0.078961
-0.087525
0.003726
-0.003559
-0.029287
-0.052414
-0.005186
-0.083383
-0.005852
0.027056
-0.007303
-0.086249
-0.037469
0.010242
-0.047447
0.026178
0.087549
-0.122057
0.001481
0.006043
-0.070454
0.002259
-0.026556
-0.044498
-0.056677
0.008780
-0.062170
0.010391
0.062249
-0.042181
-0.025242
-0.025551
0.001724
-0.072419
0.038388
-0.010868
-0.071844
-0.069507
-0.024120
0.013040
-0.059284
0.005212
-0.022576
-0.070762
-0.040560
-0.025739
-0.044676
-0.004936
-0.075351
0.043984
-0.019484
0.030150
0.040864
0.001864
-0.069077
0.016004
-0.044911
-0.076769
-0.026759
-0.042919
-0.001324
-0.023828
0.011944
-0.027680
0.007725
-0.026909
-0.055851
0.037609
0.007838
0.023321
0.020097
0.018117
0.017285
0.081966
0.064422
0.014407
0.109981
0.049778
0.120108
0.127665
0.163140
0.090023
0.229700
0.061309
0.135370
0.082889
0.170029
0.174673
0.151321
0.115294
0.104219
0.105024
0.055535
0.046106
0.079453
0.129166
0.067989
0.099609
-0.003367
0.061293
0.041212
-0.030413
0.026986
-0.030206
-0.043205
-0.009165
-0.018526
0.015011
-0.060874
-0.059927
-0.036221
-0.065530
0.023627
0.023469
-0.077825
-0.043481
-0.090665
-0.074262
-0.040724
-0.057672
-0.070565
-0.076433
-0.084641
-0.086945
-0.154954
-0.096576
0.005884
0.296240
0.560253
0.829598
1.169388
1.329338
1.335245
1.153623
0.905754
0.530690
0.170383
-0.026975
-0.177060
-0.455948
-0.326011
-0.251454
-0.191777
-0.119738
-0.088486
-0.074941
-0.074665
-0.067865
-0.031884
-0.059045
0.038477
-0.007356
-0.107905
0.000000
0.000000
0.000000
0.000000
0.000000
0.000000
0.000000
0.000000
0.000000
0.000000
0.000000
0.000000
0.000000
0.000000
0.000000
0.000000
0.000000
0.000000
0.000000
0.000000
0.000000
0.000000
0.000000
0.000000
0.000000
0.000000
0.000000
0.000000
0.000000
0.000000
0.000000
0.000000
0.000000
0.000000
0.000000
0.000000
0.000000
0.000000
0.000000
0.000000
0.000000
0.000000
0.000000
0.000000
0.000000
0.000000
0.000000
0.000000
0.000000
0.000000
0.000000
0.000000
0.000000
0.000000
0.000000
0.000000
0.000000
0.000000
0.000000
0.000000
0.000000
0.000000
0.000000
0.000000
0.000000
0.000000
0.000000
0.000000
0.000000
0.000000
0.000000
0.011020
0.064543
0.054623
-0.048363
-0.000564
0.016259
-0.066797
0.027801
0.110759
-0.022802
0.015668
-0.061124
-0.016956
-0.028163
-0.024179
-0.045606
0.063501
0.019382
0.071871
0.004854
0.048867
-0.024641
0.007794
0.007965
0.036166
0.010576
0.008911
-0.034811
0.000968
-0.038626
-0.007206
-0.042896
0.034565
-0.068932
0.000443
-0.035017
-0.076441
-0.062843
-0.020295
0.030095
0.049296
-0.019621
-0.018406
0.005839
-0.048934
0.008574
0.022513
0.019690
0.025643
0.033328
-0.014696
-0.008429
-0.044939
-0.027954
0.023478
-0.006611
-0.033578
0.043278
0.053872
-0.023443
-0.014984
-0.008642
0.092886
-0.018291
0.040321
-0.018089
-0.017790
-0.028556
0.007511
-0.062702
-0.017363
-0.063765
0.028824
-0.028635
0.014077
0.000161
0.028233
-0.010419
0.021445
0.029742
-0.009716
0.048956
0.041870
0.055668
0.070496
0.058514
0.119899
0.057834
0.166321
0.149061
0.178504
0.140626
0.165587
0.238510
0.263223
0.197314
0.222108
0.151394
0.167136
0.244073
0.166444
0.194007
0.160826
0.153739
0.178351
0.143702
0.154124
0.219891
0.052942
0.164252
0.077755
0.121863
0.119734
0.048773
0.056914
0.063527
0.119995
0.054492
0.011007
0.101826
0.038721
0.071837
-0.009676
0.059314
0.000838
0.076032
0.070717
0.123747
0.045308
0.047653
0.070597
-0.103534
0.040919
0.062160
0.050611
0.143786
-0.001793
0.022086
0.034706
0.058538
0.106022
0.299158
0.606751
0.905044
1.300501
1.429739
1.447986
1.350606
0.871852
0.613576
0.331963
0.013716
-0.095430
-0.197327
-0.142071
-0.105143
-0.083737
-0.015871
0.080157
0.091035
0.025470
0.112987
0.036975
0.136044
0.075647
0.112867
0.152407
0.081288
0.136555
0.054019
0.086127
0.093649
0.113019
0.096859
0.163408
0.209191
0.198769
0.170207
0.206749
0.251069
0.180936
0.214966
0.149162
0.225992
0.344391
0.306654
0.230406
0.321694
0.343371
0.398052
0.324290
0.363003
0.407891
0.352992
0.399025
0.488313
0.490149
0.518482
0.533890
0.572680
0.564710
0.523607
0.526553
0.614943
0.597372
0.647507
0.538339
0.570578
0.543264
0.577571
0.566461
0.530843
0.465847
0.548105
0.544471
0.515518
0.375658
0.389464
0.449861
0.465352
0.348926
0.378138
0.401305
0.304799
0.324491
0.280574
0.255751
0.216805
0.300411
0.284730
0.228096
0.169358
0.143370
0.217915
0.169768
0.210455
0.248531
0.201929
0.140023
0.154199
0.062626
0.173902
0.099820
0.174755
0.149091
0.152467
0.152870
0.119990
0.131281
0.083958
0.063680
0.088966
0.067398
0.132624
-0.004494
0.129378
0.093770
0.123213
0.076467
0.045231
0.050377
0.180933
0.055410
0.102725
0.014411
0.116963
0.089176
0.135414
0.189910
0.045204
0.105180
0.125522
0.147365
0.126773
0.098459
0.115987
0.105888
0.092275
0.124489
0.146064
0.110162
0.084641
-0.054098
0.130985
0.124218
0.055049
0.101012
0.091341
0.093764
0.075916
0.193224
0.123597
0.171902
0.108937
0.141118
0.073650
0.152887
0.099325
0.126762
0.053977
0.136310
0.073037
-0.027395
0.139138
0.023945
0.123528
0.090803
0.116644
0.051921
0.091299
0.116837
0.163538
0.104349
0.131239
0.104034
0.061188
0.109128
0.146684
0.118934
0.129399
0.160132
0.107329
0.151307
0.102915
0.111021
0.203229
0.204196
0.220969
0.205053
0.242837
0.199379
0.220584
0.339093
0.295554
0.184547
0.210602
0.179677
0.266381
0.273461
0.235014
0.242997
0.197823
0.290990
0.085567
0.175042
0.263077
0.099835
0.167704
0.194254
0.176751
0.131642
0.186402
0.178265
0.049841
0.184349
0.080614
0.097741
0.089435
0.084526
0.121255
0.127454
0.094322
0.097728
0.042965
0.100934
0.093446
0.086815
0.055591
0.152294
0.091157
0.107839
0.088807
0.079216
0.072774
0.062196
0.046939
0.028634
0.021044
0.127554
0.239655
0.532014
0.895189
1.230144
1.450627
1.475542
1.320870
1.106563
0.732068
0.263696
0.050418
-0.081728
-0.205423
-0.233267
-0.187899
-0.108336
0.088093
0.053774
0.084990
0.045158
0.078831
0.045351
0.126518
0.018825
0.127981
0.076500
0.102231
0.033678
0.102763
0.126748
0.125021
0.022721
0.037222
0.181597
0.145147
0.069035
0.131944
0.136517
0.088289
0.140781
0.118151
0.265360
0.247060
0.223484
0.260738
0.208534
0.284725
0.270350
0.334727
0.279174
0.345944
0.313712
0.395596
0.404237
0.385919
0.425626
0.533084
0.504706
0.494915
0.432407
0.454905
0.571032
0.558009
0.579674
0.519279
0.537719
0.498962
0.513371
0.483764
0.502396
0.503932
0.490228
0.472780
0.456435
0.404048
0.374688
0.443539
0.434333
0.324483
0.392403
0.327346
0.284172
0.250083
0.219885
0.274161
0.223565
0.176477
0.185432
0.232372
0.160509
0.204332
0.125859
0.146201
0.114518
0.076797
0.019199
0.048144
0.025886
0.081736
0.097076
0.033915
0.011543
0.019624
0.031224
0.044410
-0.037686
-0.013158
0.017106
0.060418
0.010344
0.081049
0.019424
0.036020
0.042745
0.008894
-0.038545
0.042794
-0.073368
-0.011048
0.015786
0.011113
-0.102422
-0.080215
0.040812
0.049953
-0.034191
-0.016407
-0.085347
-0.047681
-0.008223
-0.033137
-0.039406
-0.007919
0.092025
0.042138
-0.020930
-0.048228
-0.016379
-0.046557
-0.052580
-0.046303
0.055789
0.017492
-0.019552
-0.017524
0.053332
-0.028999
-0.047156
0.030600
0.010975
-0.037120
-0.060487
-0.004496
-0.045786
-0.043305
-0.013724
-0.091055
-0.049611
-0.100734
-0.100558
-0.020070
0.004999
-0.101842
-0.072023
-0.054600
-0.050518
0.001112
-0.023706
-0.096277
-0.036551
-0.007676
-0.020173
0.046209
-0.016625
-0.003553
-0.105167
-0.007087
-0.000033
-0.003059
-0.053184
-0.107299
-0.001463
0.030412
0.037327
0.095118
0.149489
0.083687
0.090830
0.067209
0.073532
0.095239
0.141585
0.148771
0.150107
0.228525
0.128736
0.110848
0.163316
0.149086
0.111643
0.237432
0.136959
0.099789
0.055553
-0.021577
0.052121
-0.009793
0.054564
0.064776
-0.002072
-0.060382
-0.022794
-0.053381
-0.027409
0.000557
-0.116065
-0.077978
0.024736
0.044736
-0.006814
-0.084565
-0.063579
-0.043719
-0.015491
-0.089380
-0.045670
-0.092048
0.000000
0.000000
0.000000
0.000000
0.000000
0.000000
0.000000
0.000000
0.000000
0.000000
0.000000
0.000000
0.000000
0.000000
0.000000
0.000000
0.000000
0.000000
0.000000
0.000000
0.000000
0.000000
0.000000
0.000000
0.000000
0.000000
0.000000
0.000000
0.000000
0.000000
0.000000
0.000000
0.000000
0.000000
0.000000
0.000000
0.000000
0.000000
-0.035761
-0.042855
-0.052010
-0.025899
-0.070808
-0.052348
0.086911
-0.009559
-0.045857
0.009793
0.032709
-0.045361
0.046716
0.120481
0.067446
0.095966
0.150800
0.079782
0.138585
0.106934
0.175427
0.191518
0.308238
0.206014
0.290379
0.297582
0.316327
0.309697
0.345464
0.384351
0.391506
0.386819
0.383245
0.462368
0.350512
0.518839
0.441481
0.485619
0.338854
0.430681
0.442077
0.419229
0.426833
0.325131
0.354231
0.328475
0.327165
0.258587
0.293856
0.345500
0.304559
0.245416
0.215828
0.161902
0.175695
0.138796
0.132290
0.004932
0.131221
0.089186
0.029330
0.082989
0.048977
0.001451
0.108800
0.011384
0.001063
0.082211
-0.094146
0.005837
0.013910
-0.089630
-0.017676
-0.067786
-0.037315
-0.072903
-0.030571
0.012691
-0.108948
-0.121498
-0.006893
-0.104982
-0.088864
0.026728
-0.128702
-0.037676
-0.039555
-0.194268
-0.097163
-0.044081
-0.091635
-0.057713
-0.078474
-0.124096
-0.015425
-0.110084
-0.084833
-0.172252
-0.102142
-0.071026
-0.126755
-0.051269
-0.036877
-0.054572
-0.043097
-0.120570
0.002472
-0.078211
0.021262
-0.067751
-0.030379
-0.062214
-0.109426
-0.000168
-0.059794
-0.064259
-0.140348
-0.129281
-0.066512
-0.056743
-0.044680
-0.085565
-0.035547
-0.078741
-0.122991
-0.057401
-0.089746
-0.088627
-0.033406
-0.067807
-0.100764
-0.045217
-0.034243
-0.091984
-0.111206
-0.094992
-0.068209
-0.026262
-0.036958
-0.081909
-0.026390
-0.075915
-0.093149
-0.056109
-0.042467
0.019558
0.003452
-0.063257
-0.011408
-0.010748
-0.035551
0.024683
-0.002833
0.030804
0.040806
-0.043302
0.048401
0.116858
0.025468
0.056495
0.119935
0.057757
0.165780
0.185455
0.133506
0.092542
0.137922
0.134666
0.125303
0.178566
0.180581
0.130811
0.076223
0.144205
0.020713
0.060952
0.058974
0.060374
0.058914
0.004461
0.118818
0.008178
0.052252
0.122698
0.035439
0.007297
-0.003246
-0.031116
0.032074
0.078405
-0.012451
0.007973
-0.084854
-0.016116
-0.009105
0.002464
-0.034384
0.042074
-0.058997
-0.024325
0.047101
-0.039335
-0.039009
0.024992
-0.027920
-0.017435
-0.058370
-0.058708
-0.060790
-0.040845
-0.066145
0.139326
0.414910
0.785123
1.078030
1.323841
1.434703
1.283323
1.040844
0.733686
0.423404
0.037841
-0.164368
-0.292175
-0.264219
-0.231162
-0.192220
-0.099441
-0.058091
-0.002550
-0.045487
-0.018281
-0.056624
0.000000
0.000000
0.000000
0.000000
0.000000
0.000000
0.000000
0.000000
0.000000
0.000000
0.000000
0.000000
0.000000
0.000000
0.000000
0.000000
0.000000
0.000000
0.000000
0.000000
0.000000
0.000000
0.000000
0.000000
0.000000
0.000000
0.000000
0.000000
0.000000
0.000000
0.000000
0.000000
0.000000
0.000000
0.000000
0.000000
0.000000
0.000000
0.000000
0.000000
0.000000
0.000000
0.000000
0.000000
0.000000
0.000000
0.000000
0.000000
0.000000
0.000000
0.000000
0.000000
0.000000
0.000000
0.000000
0.000000
0.000000
0.000000
0.000000
0.000000
0.000000
0.253491
0.250155
0.231352
0.219335
0.192681
0.236867
0.148753
0.182555
0.087480
0.098982
0.110345
0.137438
0.080500
0.141942
0.060674
0.127097
0.024153
0.103242
-0.002850
0.061409
0.030845
0.083571
-0.003306
-0.017585
0.045746
0.055376
0.103575
0.023662
0.015825
0.030848
0.013634
0.098765
-0.013049
0.088088
0.001278
0.016815
0.029490
0.025239
0.060305
0.028221
0.027126
0.009352
0.062489
-0.018271
0.063298
0.054963
0.070813
0.083180
0.023438
0.044129
0.029215
0.042960
0.071525
-0.004044
0.129009
0.106110
0.023891
0.058984
0.014992
-0.017934
0.033974
-0.024281
0.035478
0.016741
0.124445
0.089359
0.046861
0.010713
0.060229
0.010640
0.065196
0.083280
-0.011078
0.012352
0.024914
0.086535
0.130567
0.029792
0.100098
0.081981
0.052026
0.034718
0.168169
-0.004322
0.078132
0.014562
-0.054992
0.051217
-0.015113
0.048506
-0.015145
0.045280
0.043843
0.069572
0.038140
0.032785
0.043651
0.048045
0.148076
0.128279
0.112402
0.160090
0.131820
0.152161
0.171283
0.141809
0.158245
0.237454
0.220761
0.193213
0.238081
0.285558
0.228792
0.143973
0.228938
0.157778
0.190280
0.244449
0.197402
0.186322
0.242292
0.127762
0.162013
0.145397
0.200583
0.067359
0.078373
0.106902
0.094775
0.012719
0.127374
-0.000920
0.039689
0.024971
0.080527
-0.003612
0.104129
0.031013
0.062765
0.066389
0.040469
0.067457
0.034286
0.068710
-0.037686
0.005873
0.038666
0.037595
0.037444
-0.004967
0.031176
-0.012101
0.011352
0.026031
0.058186
0.128062
0.447874
0.795493
1.096914
1.356242
1.443112
1.351320
1.112930
0.791646
0.430135
0.104698
-0.076940
-0.291162
-0.226293
-0.198497
-0.103432
-0.135366
-0.006208
0.059595
0.091487
-0.019741
-0.038338
0.040510
0.064421
0.070695
0.045173
0.073446
0.002022
0.005613
0.074078
-0.000959
0.077041
0.159360
0.062119
0.141627
0.116136
0.072836
0.113918
0.083160
0.119737
0.217848
0.226599
0.172614
0.138463
0.208138
0.150398
0.266573
0.266507
0.273097
0.330812
0.291422
0.339575
0.426193
0.315131
0.427702
0.449941
0.519432
0.418394
0.473419
0.433191
0.560945
0.439010
0.537979
0.595046
0.503973
0.571955
0.572212
0.512284
0.449473
0.520614
0.450712
0.514189
0.415374
0.460078
0.427131
0.445609
0.297480
0.422435
0.362817
0.312286
0.305860
0.271173
0.265350
0.196989
0.191850
0.123787
0.226032
0.194592
0.184131
0.141615
0.097575
0.131445
-0.007059
0.106669
0.045703
0.012390
0.039619
0.094037
0.061247
0.047519
-0.040483
-0.029014
-0.014102
-0.021554
-0.008977
-0.028889
-0.041940
-0.023846
-0.077849
0.046923
0.062303
0.005563
-0.096707
-0.071812
0.051439
-0.030509
-0.036761
0.002950
0.051840
-0.071448
0.024250
-0.042986
-0.069991
0.080956
-0.037572
-0.055223
0.009834
0.045211
-0.035905
-0.094207
-0.052568
0.052460
-0.012014
-0.005714
-0.023742
0.017359
-0.026783
-0.014529
-0.016526
-0.032673
0.058019
-0.037344
-0.047279
-0.073875
-0.018378
-0.053166
-0.078495
0.009877
-0.023623
-0.052550
-0.076215
-0.037025
-0.005959
-0.023746
-0.026880
0.007582
-0.057400
-0.032980
-0.049392
0.061532
-0.043078
-0.093727
-0.037049
-0.050926
-0.080577
-0.075152
-0.043072
0.002801
-0.055430
-0.037588
-0.041797
-0.058596
-0.084753
-0.029699
0.004735
-0.023967
0.009655
-0.036540
0.003963
-0.055302
0.000916
-0.005347
-0.078846
0.002120
-0.008809
0.083863
-0.030199
0.051518
0.116929
0.091095
0.109005
0.139343
0.140272
0.120970
0.133379
0.098792
0.172745
0.123864
0.125952
0.090081
0.117388
0.108176
0.068627
0.046343
0.077859
0.040935
0.056314
-0.043863
-0.037362
0.061519
-0.027815
0.022238
0.073546
-0.046807
-0.102644
-0.018934
-0.074831
-0.068798
-0.040877
-0.089828
-0.017062
-0.075484
0.006822
-0.118660
-0.169349
-0.047224
-0.046424
-0.120721
-0.112375
-0.058080
-0.184323
-0.022971
-0.161306
-0.062205
-0.053872
-0.104818
-0.116640
-0.069554
0.110449
0.263507
0.612904
0.999636
1.167196
1.363832
1.226207
1.053020
0.703002
0.379041
-0.009138
-0.150461
-0.402840
-0.444406
-0.366898
-0.265851
-0.208889
-0.134789
-0.074592
-0.183413
-0.111436
-0.143349
0.003257
-0.141174
-0.071108
-0.114502
-0.095818
-0.037587
-0.070407
-0.071133
-0.055826
-0.037318
0.047368
0.048308
-0.035954
-0.018836
-0.004050
-0.012603
-0.008807
-0.049906
0.095267
0.103765
0.119940
0.104346
0.075132
0.095397
0.126837
0.114507
0.192179
0.225297
0.235176
0.257281
0.301166
0.283214
0.302880
0.402268
0.344656
0.371791
0.303066
0.371112
0.420355
0.398412
0.390817
0.354394
0.429000
0.378614
0.362153
0.418300
0.415908
0.260266
0.381738
0.405667
0.308574
0.243006
0.308179
0.309538
0.373751
0.289680
0.237434
0.227496
0.316889
0.182700
0.152437
0.143277
0.136412
0.075416
0.142331
0.094741
0.058615
0.087021
-0.046275
0.033139
0.013426
-0.074559
0.032108
0.086363
0.024791
-0.133686
-0.027388
-0.065329
-0.172393
-0.083285
-0.024817
-0.123848
0.019177
-0.083206
-0.002926
-0.096765
-0.144092
-0.115824
-0.024245
-0.126675
-0.179099
-0.114822
-0.148362
-0.128693
-0.063900
-0.040842
-0.183375
-0.184127
-0.143411
-0.122396
-0.087097
-0.136798
-0.081994
-0.132112
-0.108310
-0.021788
-0.069871
-0.092417
-0.070469
-0.150893
-0.095146
-0.127556
-0.169121
-0.058470
-0.003556
-0.052504
-0.078098
-0.067598
-0.115304
-0.122474
-0.089287
-0.022525
-0.092432
-0.068591
-0.110052
-0.045221
-0.044938
-0.061178
-0.073405
-0.082201
-0.066344
-0.067235
-0.071726
-0.107279
-0.095420
-0.086806
-0.085410
-0.114941
-0.101636
0.020033
-0.088990
-0.101043
-0.065925
-0.049736
-0.142813
-0.039143
-0.070290
-0.061733
-0.150275
-0.091535
-0.071049
-0.080284
-0.029327
-0.050222
-0.033971
-0.077135
-0.026230
-0.080400
-0.005989
-0.056996
0.049369
0.006483
-0.030708
-0.010622
-0.035974
-0.036955
0.085088
0.058554
0.039238
0.035956
-0.018821
0.149702
0.112358
0.149397
0.144411
0.059677
0.083281
0.130558
0.138964
0.112244
0.069233
0.093997
0.035539
0.098682
0.075953
-0.031610
0.014588
0.030374
-0.018267
0.116317
0.012255
0.001390
-0.065250
0.032981
-0.046380
-0.029373
0.027620
-0.005516
-0.141871
-0.150342
-0.070588
-0.057580
-0.092509
-0.014681
-0.152790
-0.077388
-0.043472
-0.086032
-0.097261
-0.121161
-0.053889
-0.032740
-0.056107
-0.108929
-0.078749
-0.011584
0.049792
0.345462
0.647414
1.017444
1.281948
1.394347
1.224006
1.159218
0.791824
0.430755
0.137296
-0.174088
-0.271079
-0.345065
-0.322422
-0.224776
-0.127627
-0.065973
-0.030781
-0.062360
-0.099692
0.054131
0.081739
0.035923
-0.011330
0.018985
-0.026512
-0.047061
-0.047891
0.045573
0.087583
-0.008076
-0.009876
0.004423
0.014614
0.071997
0.081646
0.101020
0.049646
0.142190
0.090767
0.103693
0.082834
0.166651
0.152513
0.228865
0.198270
0.226067
0.215097
0.218059
0.292343
0.242527
0.339095
0.391608
0.377355
0.366719
0.415378
0.406215
0.521074
0.455970
0.499229
0.407127
0.460718
0.552464
0.567915
0.437933
0.534634
0.485807
0.467262
0.421455
0.539033
0.487220
0.459962
0.512243
0.446866
0.419457
0.461601
0.359674
0.314043
0.385991
0.312327
0.281492
0.287161
0.249862
0.236192
0.182015
0.171491
0.208229
0.178976
0.148775
0.135511
0.164490
0.043711
0.176571
0.041548
0.052191
0.048482
0.082770
0.071688
0.040658
0.023139
-0.010481
0.027299
0.048347
0.042608
0.106228
0.102265
0.014990
0.075462
0.024570
0.084819
0.005855
0.061820
0.049046
0.051482
0.030879
0.042388
0.004447
0.065198
0.035016
0.083923
0.038328
0.058603
0.143206
0.060403
0.092285
0.140048
0.034496
0.013530
0.121634
0.096067
0.065156
0.011926
-0.006982
0.008225
0.005492
0.035755
0.048439
0.047882
0.143111
0.014912
0.013026
0.112884
0.105724
-0.059618
0.036392
0.115843
0.048588
0.138962
0.029670
-0.032642
0.048751
0.018632
0.087900
0.104106
0.052381
0.083608
0.089335
0.088657
0.075153
0.035345
0.064934
0.047748
0.183033
0.075007
0.098581
0.076457
0.098698
0.033559
0.132959
0.103781
0.038490
0.071094
0.026067
0.152690
0.086109
0.030108
0.074863
0.091136
0.109131
0.096182
0.081912
0.164867
0.160610
0.157241
0.179078
0.179176
0.098510
0.104847
0.140883
0.193109
0.269687
0.226586
0.209371
0.193853
0.194436
0.247963
0.291605
0.217669
0.161478
0.226723
0.145247
0.140108
0.273199
0.222299
0.161089
0.077424
0.165334
0.107039
0.144682
0.131287
0.069502
0.117794
0.150216
0.143681
0.061622
0.063535
0.075483
0.087195
0.042146
0.022829
-0.025618
0.001869
0.051336
0.079167
0.085551
0.049905
0.113965
0.041778
0.046889
0.099169
0.022845
0.040892
-0.037831
-0.047039
0.021641
0.023417
0.081670
0.181820
0.369693
0.734210
0.997878
1.303983
1.373288
1.432680
1.158323
0.962130
0.495042
0.270490
-0.051163
-0.185640
-0.258524
-0.223191
-0.112981
-0.033770
-0.027146
0.063395
0.034144
0.048612
0.054450
0.131143
0.091704
0.082256
0.008907
0.087397
0.108615
0.087760
