-0.008162
-0.050754
0.038156
-0.025023
-0.051409
-0.023044
0.040380
-0.022772
0.020294
0.063286
0.011279
-0.048433
0.048753
0.060429
0.035215
0.013803
-0.028872
0.015393
0.008229
0.069188
0.060407
0.006412
0.084702
0.000862
0.033174
0.019393
-0.022363
-0.013970
0.061366
-0.045793
0.000705
0.028795
0.111712
0.065736
0.089293
0.057176
0.142992
-0.030609
0.115944
0.127312
0.122772
0.138412
0.091450
0.221582
0.148616
0.244012
0.202920
0.222132
0.183528
0.229215
0.253643
0.203937
0.200758
0.199215
0.215611
0.245971
0.160907
0.116443
0.250369
0.057686
0.098943
0.141164
0.195812
0.085196
0.083322
0.126060
0.099032
0.027457
0.009278
0.005194
0.067707
0.078998
0.065728
0.086981
0.047442
0.071264
0.006178
0.049613
0.072255
0.001475
0.083228
0.068758
-0.005838
0.080769
0.025016
0.052170
0.025836
0.061521
-0.012257
0.101062
-0.005007
0.051118
0.040894
-0.132070
0.049053
0.013931
0.072246
0.237684
0.565982
0.820801
1.132161
1.363859
1.428459
1.297261
1.059144
0.718409
0.489804
0.171336
-0.088213
-0.170579
-0.228307
-0.151114
-0.125963
-0.092561
-0.012785
-0.003007
0.050751
0.101327
0.071607
0.067482
0.082658
0.049955
0.030596
0.034823
0.075932
0.070229
0.124223
0.048068
0.064245
0.159581
0.122128
0.070405
0.142982
0.102644
0.142809
0.094618
0.205169
0.237126
0.191030
0.176439
0.179799
0.256125
0.231082
0.224297
0.162239
0.255191
0.362125
0.244183
0.296996
0.307634
0.376474
0.418520
0.390287
0.374969
0.458516
0.507259
0.452249
0.547802
0.566496
0.577799
0.561309
0.593642
0.587173
0.515517
0.615887
0.565772
0.493826
0.626856
0.567711
0.590406
0.540243
0.565412
0.500617
0.484365
0.467813
0.502452
0.422569
0.483370
0.408928
0.434089
0.438509
0.326188
0.362423
0.314579
0.322984
0.227125
0.269644
0.246796
0.273186
0.219103
0.204701
0.142573
0.161969
0.198366
0.136075
0.202703
0.208181
0.088805
0.113872
0.108674
0.144837
0.048278
0.138656
0.115443
0.168555
0.024617
0.027221
0.120331
0.145096
0.107452
0.050561
0.089836
0.098671
0.023678
0.103685
0.181015
0.160038
0.080397
0.074438
0.092263
0.071578
0.067431
0.106476
0.072365
0.072042
0.038376
-0.020699
0.077567
0.132537
0.114289
0.066441
0.069045
0.018181
0.091351
0.098454
0.070061
0.116480
0.022453
0.044071
0.082611
0.073424
0.121368
0.045110
0.062130
0.089916
0.036543
0.043783
0.034574
0.114443
0.043934
0.114418
0.054075
0.057615
0.094426
0.069647
0.071401
0.025905
0.006012
0.069487
0.063725
0.126247
0.097321
0.109436
0.060641
0.031951
0.020329
0.077421
0.120668
0.020361
-0.015572
0.071506
0.125091
0.082114
0.082532
0.052036
0.045909
0.088113
-0.003470
0.088967
0.114318
0.076566
0.196503
0.081191
0.155780
0.101712
0.100060
0.128699
0.059312
0.088480
0.117918
0.170742
0.109111
0.136440
0.104291
0.081460
0.175519
0.182430
0.188378
0.230203
0.165132
0.162394
0.225761
0.260164
0.215421
0.275078
0.328247
0.255925
0.174781
0.232257
0.227217
0.162606
0.130860
0.230491
0.194143
0.127947
0.124405
0.129551
0.122640
0.106422
0.106664
0.138485
0.130990
0.075621
0.053584
0.016897
0.094425
0.093397
0.051777
0.046136
-0.003030
0.106196
0.012261
0.004477
0.051550
0.036782
-0.081756
0.068642
0.023649
0.008558
0.082244
0.001234
0.020540
0.051978
0.042841
0.079141
-0.053138
-0.043390
0.003720
-0.083896
0.032971
0.036063
0.215319
0.490013
0.774345
1.054089
1.218560
1.378330
1.355040
1.127447
0.751918
0.475384
0.177786
-0.091576
-0.171499
-0.288026
-0.241197
-0.171884
-0.029457
0.016721
0.032931
0.095804
0.027376
0.041852
0.045329
0.035853
0.022906
0.048269
0.046678
0.030292
0.020698
0.025004
-0.023556
0.024732
0.010316
0.022247
0.088379
0.077648
0.027882
0.081623
0.051811
0.096044
0.077336
0.102794
0.195839
0.151103
0.177588
0.167203
0.211249
0.153900
0.218030
0.262627
0.339646
0.164379
0.339856
0.311593
0.326765
0.443535
0.363421
0.384665
0.385280
0.334858
0.339374
0.416487
0.477909
0.379410
0.469296
0.426231
0.478190
0.557766
0.490587
0.523149
0.526719
0.480142
0.438218
0.493774
0.395992
0.304069
0.457130
0.414642
0.380658
0.384252
0.374084
0.373273
0.391124
0.270722
0.256076
0.264441
0.246284
0.227524
0.219143
0.123666
0.146624
0.177635
0.146967
0.091928
0.117871
0.142707
0.023773
-0.013251
0.154585
0.099645
0.056464
-0.007060
0.053769
0.016436
-0.019140
0.036858
0.025273
0.036518
0.001311
0.026440
-0.066742
0.015966
0.004543
-0.007268
-0.036642
-0.051792
-0.012683
-0.037680
-0.056701
-0.058498
-0.077750
0.010396
-0.001739
-0.100144
-0.030298
0.009124
-0.054632
-0.076080
-0.076307
-0.004858
0.015993
-0.018105
-0.067737
-0.054745
-0.056521
-0.013258
-0.017625
-0.023642
-0.081655
0.085014
-0.008876
-0.040201
0.030573
-0.012271
-0.042497
-0.028714
-0.003528
-0.095296
-0.042540
0.017069
-0.041724
0.044550
-0.017105
-0.039489
-0.040615
-0.036039
-0.034380
0.023651
-0.006941
0.031558
-0.034654
-0.082841
-0.065130
-0.030879
-0.000607
0.021231
-0.052918
-0.011310
-0.062357
-0.032505
0.027353
-0.004071
0.020741
-0.045093
0.011002
0.047813
-0.060892
0.047988
-0.024021
-0.058764
0.019336
-0.031520
-0.036001
-0.090760
-0.015006
-0.049518
-0.069476
-0.002368
-0.080606
-0.031416
-0.000964
0.009813
-0.038363
-0.023169
0.022813
0.011592
0.014155
0.053224
0.141266
0.125391
0.141519
0.103581
0.061641
0.091507
0.134350
0.090868
0.103521
0.106852
0.124723
0.252490
0.147822
0.183225
0.128703
0.097678
0.085285
0.060658
0.075289
0.048892
0.106661
0.081487
-0.005615
-0.008295
-0.007498
0.044129
0.050469
0.022859
0.025923
-0.000064
-0.024243
0.013474
0.019332
0.043887
-0.063562
-0.168827
-0.093239
-0.094671
-0.067933
-0.125561
-0.035836
0.003100
-0.061991
-0.020019
-0.009495
-0.055962
-0.090850
-0.086166
-0.098928
-0.091462
-0.010246
-0.084826
-0.104612
-0.103312
-0.026516
-0.079046
0.020018
0.296145
0.642542
0.892399
1.239620
1.343690
1.266364
1.021166
0.800789
0.506722
0.165375
-0.074296
-0.285123
-0.261328
-0.331401
-0.256184
-0.201384
-0.107432
-0.171943
0.016117
-0.038005
-0.067481
0.022077
-0.026764
-0.052248
-0.040171
-0.020215
-0.058631
-0.121535
-0.001394
-0.109388
-0.001329
-0.062370
0.032756
0.012332
0.004263
0.009854
0.011121
0.100118
0.081029
0.097260
0.008051
0.030367
0.062845
0.070757
0.123969
0.115392
0.124841
0.188642
0.233101
0.195342
0.188642
0.246952
0.325143
0.268446
0.300784
0.278652
0.268408
0.378800
0.364343
0.420022
0.412327
0.410134
0.455316
0.476154
0.455636
0.451480
0.515278
0.479104
0.444003
0.488685
0.485246
0.491608
0.489274
0.442442
0.375924
0.000000
0.000000
0.000000
0.000000
0.000000
0.000000
0.000000
0.000000
0.000000
0.000000
0.000000
0.000000
0.000000
0.000000
0.000000
0.000000
0.000000
0.000000
0.000000
0.000000
0.000000
0.000000
0.000000
0.000000
0.000000
0.000000
0.000000
0.000000
0.000000
0.000000
0.000000
0.000000
0.000000
0.000000
0.000000
0.000000
0.000000
0.000000
0.000000
0.000000
0.000000
0.000000
0.000000
0.000000
0.000000
0.000000
0.000000
0.000000
0.000000
0.000000
0.000000
0.000000
0.000000
0.000000
0.000000
0.000000
0.014925
0.079812
0.049930
0.026210
0.054205
-0.027591
-0.043117
0.034147
0.002705
-0.053677
0.032012
-0.024179
0.008166
0.127335
0.000512
0.077493
0.079483
0.057293
0.033796
0.006280
-0.005857
0.047323
-0.017868
-0.009756
0.027010
0.052228
0.076359
0.062424
0.024168
0.098796
0.032030
0.016374
0.092662
0.095237
0.098712
0.050071
-0.005729
-0.032017
0.048524
0.068576
0.112671
0.114092
-0.003347
0.089135
0.041212
0.087196
-0.008149
0.073588
0.006469
0.120650
-0.000133
0.126697
0.009955
0.059716
0.041257
0.019091
0.019943
0.001287
0.098811
0.067018
0.027259
0.093925
0.075631
0.158351
0.172612
0.202942
0.159494
0.138526
0.207957
0.182206
0.152444
0.239349
0.180096
0.234097
0.148305
0.211563
0.188584
0.248374
0.204707
0.295722
0.165721
0.203603
0.226415
0.220294
0.276829
0.263959
0.173644
0.152821
0.125108
0.200045
0.170328
0.123496
0.064576
0.101129
0.158544
0.203719
0.069220
0.056091
0.133977
0.026383
0.005727
0.115915
0.096872
0.000708
0.046630
0.101028
-0.016538
0.114283
0.014603
0.085803
0.115870
0.026605
0.103903
0.117477
0.069245
0.045049
0.124060
0.036565
0.092991
-0.009346
-0.012866
-0.000281
0.202343
0.303391
0.697351
1.006734
1.285099
1.422220
1.435115
1.256235
0.984166
0.682004
0.407865
0.147361
-0.100525
-0.232520
-0.187044
-0.152532
-0.119680
0.046027
0.042345
0.028634
-0.013681
0.062314
0.083192
0.073152
0.089297
0.086235
0.082132
0.070729
0.182680
0.175885
0.087242
0.054152
0.104323
0.067110
0.136031
0.106570
0.083910
0.133779
0.171659
0.136778
0.123964
0.182238
0.186069
0.228315
0.132812
0.144870
0.216390
0.224871
0.252521
0.313555
0.275903
0.282572
0.419535
0.410363
0.410746
0.391390
0.359814
0.466327
0.476942
0.444660
0.463761
0.500167
0.484497
0.576046
0.521504
0.645436
0.592983
0.602538
0.541642
0.607639
0.554650
0.595119
0.561579
0.612631
0.571561
0.539278
0.580646
0.468473
0.441043
0.542590
0.465829
0.504082
0.480303
0.418297
0.359954
0.361729
0.299889
0.361237
0.274093
0.286495
0.189688
0.265999
0.229031
0.257767
0.174334
0.179162
0.212069
0.201026
0.110706
0.205183
0.128686
0.183799
0.181008
0.132759
0.046727
0.036072
0.137352
0.126514
0.011920
0.023128
0.213425
0.082823
0.134959
0.125741
0.081175
0.077435
0.077869
0.093365
0.150432
0.072351
0.122576
0.029480
0.115120
0.080281
0.000000
0.000000
0.000000
0.000000
0.000000
0.000000
0.000000
0.000000
0.000000
0.000000
0.000000
0.000000
0.000000
0.000000
0.000000
0.000000
0.000000
0.000000
0.000000
0.000000
0.000000
0.000000
0.000000
0.000000
0.000000
0.000000
0.000000
0.000000
0.000000
0.000000
0.000000
0.000000
0.000000
0.000000
0.000000
0.000000
0.000000
0.000000
0.000000
0.000000
0.000000
0.000000
0.000000
0.000000
0.000000
0.000000
0.000000
0.000000
0.000000
0.000000
0.000000
0.000000
0.000000
0.000000
0.000000
0.000000
0.000000
0.000000
0.000000
0.000000
0.000000
0.000000
0.000000
0.000000
0.000000
0.000000
0.129640
0.010053
0.074803
0.157718
0.086666
0.134925
0.150367
0.196368
0.163043
0.180810
0.214647
0.134789
0.205971
0.127453
0.218242
0.222729
0.222141
0.231437
0.199567
0.190345
0.226634
0.256119
0.200497
0.201255
0.187265
0.235130
0.188905
0.156173
0.134516
0.158599
0.142488
0.095576
0.139628
0.102069
0.127470
0.102033
0.106458
-0.053448
0.146855
0.021664
0.031244
0.052059
0.072997
0.009215
0.084325
0.103743
0.058169
0.093772
0.054700
-0.112935
0.017204
-0.023494
-0.017274
-0.019869
-0.025659
0.044777
-0.018591
0.053469
-0.008034
-0.038862
-0.017076
0.016086
-0.021800
-0.067904
0.095500
0.201121
0.480568
0.798339
1.212464
1.474807
1.341762
1.285959
1.004473
0.751461
0.332940
0.051609
-0.114319
-0.210288
-0.258042
-0.250465
-0.221794
-0.129738
0.037088
-0.047831
0.030110
-0.053119
0.006444
0.001399
0.010023
0.050594
0.009479
0.032425
0.035189
0.026351
-0.020783
0.009946
0.043013
-0.029018
0.010594
0.039582
0.063998
-0.050369
-0.010651
0.008272
0.006323
0.044841
0.137941
0.077554
0.099724
0.107148
0.154952
0.219133
0.194261
0.153330
0.201337
0.225026
0.345241
0.239865
0.274765
0.325644
0.275258
0.355803
0.377599
0.350071
0.413861
0.390485
0.368597
0.426296
0.420042
0.454217
0.449638
0.513715
0.435573
0.456779
0.450852
0.520200
0.521840
0.377616
0.360393
0.460028
0.402272
0.461146
0.341850
0.325265
0.335913
0.301969
0.328500
0.352017
0.278364
0.225938
0.255736
0.094390
0.189441
0.170261
0.194225
0.220970
0.121309
0.067026
0.086979
0.025033
0.013667
0.018886
0.071506
0.003097
0.010915
0.046451
0.023215
0.039222
0.007498
-0.039666
-0.057376
-0.026757
-0.024165
-0.036878
-0.026019
-0.000493
-0.042761
-0.052247
-0.110831
-0.012077
-0.021488
0.015894
-0.036392
-0.087445
-0.019416
-0.033136
-0.006439
-0.048118
-0.101960
-0.031736
-0.022744
0.014978
-0.046031
-0.060272
-0.136325
-0.022658
-0.055956
-0.132545
-0.069609
0.040979
-0.002645
-0.005477
-0.111723
0.006024
-0.042811
-0.039842
-0.034299
-0.078786
-0.081392
-0.042294
-0.072725
-0.071459
-0.009876
-0.004494
-0.114161
-0.077025
-0.075781
-0.050067
-0.078902
-0.066026
-0.046931
-0.001237
-0.090416
-0.066511
-0.075750
-0.091980
-0.085457
-0.035954
-0.098154
-0.091222
-0.025658
-0.098116
-0.135394
0.009316
-0.013469
-0.054978
-0.035725
-0.063289
-0.093567
-0.118582
-0.038216
-0.036568
-0.076517
-0.055509
-0.094850
-0.124543
-0.080076
0.004550
-0.103797
-0.004520
-0.054200
-0.085208
-0.054171
-0.055678
-0.070803
-0.103818
-0.103249
-0.081642
-0.069142
0.097887
-0.047271
-0.000181
0.001144
0.057827
0.054186
-0.036053
0.053708
0.014836
0.119393
0.141087
0.121168
0.070644
0.051341
0.159029
0.116054
0.108704
0.013769
0.085306
0.095696
-0.005819
0.030252
0.107876
0.065995
-0.067662
0.020072
0.019170
0.125968
-0.041764
-0.076295
0.028870
-0.076436
-0.011807
-0.061668
-0.131487
0.049802
-0.057553
-0.027488
-0.060483
-0.008169
0.000000
0.000000
0.000000
0.000000
0.000000
0.000000
0.000000
0.000000
0.000000
0.000000
0.000000
0.000000
0.000000
0.000000
0.000000
0.000000
0.000000
0.000000
0.000000
0.000000
0.000000
0.000000
0.000000
0.000000
0.000000
0.000000
0.000000
0.000000
0.716125
0.336131
-0.003132
-0.207395
-0.366454
-0.315764
-0.399694
-0.215776
-0.182086
-0.179043
-0.147245
0.017229
-0.059689
-0.091243
-0.148979
-0.036453
-0.086211
-0.074915
0.016213
-0.061373
-0.016814
-0.036860
-0.035648
0.044615
-0.005271
-0.100752
-0.099937
-0.037562
-0.001403
0.032446
0.073391
0.011082
0.005842
0.055122
0.001983
0.037449
0.065092
0.053159
0.102155
0.078324
0.090391
0.170398
0.174577
0.167425
0.184547
0.252813
0.173424
0.255510
0.286829
0.265238
0.301010
0.293072
0.339641
0.344418
0.370429
0.411727
0.439036
0.428763
0.356014
0.391201
0.430426
0.408153
0.389828
0.441339
0.437383
0.393185
0.397879
0.425126
0.390176
0.352323
0.340409
0.281123
0.254987
0.249756
0.233114
0.226199
0.245389
0.273692
0.188103
0.155414
0.075143
0.139149
0.210091
0.067933
0.125664
0.086163
0.095467
0.123495
0.128406
0.030968
0.029855
0.048856
0.066265
-0.007159
0.047361
-0.017697
0.050718
0.004808
-0.101511
0.004290
0.017736
0.014867
-0.010808
0.000620
-0.022936
-0.010000
-0.023134
-0.054204
0.013435
0.006177
-0.065243
-0.068802
-0.065458
0.006481
-0.074073
0.006266
-0.047465
-0.052176
-0.075035
-0.006460
-0.069365
0.006124
-0.073654
-0.093600
-0.062227
0.009804
-0.049997
-0.055875
0.011175
-0.027408
-0.111292
-0.060589
-0.073306
0.028886
-0.078979
-0.048635
-0.002099
0.025364
-0.011130
-0.041096
-0.009461
0.017594
-0.022965
0.039953
-0.047141
-0.035208
-0.004200
-0.066880
-0.065560
-0.043025
-0.018115
0.025032
-0.029365
0.019965
-0.025444
-0.039169
-0.031762
0.014386
-0.047692
0.042113
-0.022369
-0.079966
-0.015704
-0.022991
-0.013698
-0.005717
-0.089732
0.007417
0.050395
-0.011403
0.004419
-0.026991
0.014185
0.058536
-0.078224
0.042807
0.037244
-0.037763
0.052733
0.000881
0.007848
0.082582
0.040903
0.080182
0.026615
0.035928
0.119230
0.052279
0.066933
0.106750
0.154855
0.143196
0.176841
0.103717
0.106392
0.206183
0.169233
0.242091
0.208934
0.215229
0.206934
0.160443
0.279436
0.251459
0.242524
0.180181
0.078223
0.164637
0.174427
0.167546
0.061176
0.157350
0.170340
0.148382
0.047566
0.012900
0.044847
0.011537
0.084768
0.065970
-0.025934
-0.002166
0.027160
0.052840
0.038588
0.115670
0.017793
0.114462
0.015935
0.085006
0.035091
0.025344
0.064670
-0.023106
0.085200
0.036518
-0.014735
-0.016576
0.045742
0.077940
-0.001481
0.035341
-0.025275
-0.022677
-0.054698
-0.036131
0.161893
0.372833
0.651932
0.966971
1.245058
1.500000
1.383830
1.166116
0.814707
0.630863
0.191767
0.023419
-0.187766
-0.281385
-0.209304
-0.176907
-0.137043
-0.096222
-0.022957
0.018508
0.020072
0.003343
0.027565
0.014806
0.078814
-0.013282
0.023248
0.120012
0.033035
0.067457
0.066731
0.096550
0.013561
0.077641
0.084774
0.057037
0.123719
0.058331
0.082113
0.112878
0.108914
0.195079
0.111824
0.093527
0.169805
0.195244
0.102147
0.214125
0.216922
0.223528
0.244007
0.348510
0.349635
0.350338
0.305830
0.438911
0.386499
0.391301
0.373218
0.406982
0.458697
0.562150
0.485036
0.466960
0.501616
0.527764
0.508620
0.509312
0.541190
0.435263
0.625783
0.481841
0.544115
0.546132
0.410577
0.459964
0.455188
0.463006
0.418616
0.411056
0.422725
0.349776
0.422674
0.346394
0.408075
0.302807
0.221753
0.244759
0.171429
0.274931
0.189078
0.168527
0.156441
0.094875
0.166002
0.150466
0.058477
0.202822
0.165203
0.100218
0.001874
0.018558
0.062713
0.059125
0.126541
0.042659
0.008422
0.038712
0.055219
0.006784
0.045074
0.050888
0.033510
0.007757
0.075244
0.069314
0.064926
0.010331
0.052082
0.047280
0.025670
0.054915
0.045691
-0.022898
0.079346
0.038786
0.105392
0.079404
0.094847
0.082572
0.050858
-0.031789
0.020846
0.015594
0.040863
0.003062
0.054597
-0.000077
0.028566
0.059271
-0.000669
0.077935
-0.058033
0.065945
0.061731
0.003578
0.061873
0.010418
0.026232
0.005895
0.061407
0.054000
-0.010754
0.012166
0.082076
-0.012271
0.050616
0.074983
0.030695
0.035904
0.078923
0.057408
0.029512
-0.001239
0.003270
-0.011463
0.068371
0.063800
-0.004243
0.088563
0.025761
0.000134
0.086457
0.025039
-0.001923
0.021579
-0.007415
0.072918
0.056247
0.077383
0.010899
0.032715
0.011316
0.001932
-0.029415
0.020793
0.078191
0.031717
0.032980
-0.003441
0.040390
0.023758
0.070090
-0.006763
0.051789
0.016652
0.092234
0.154053
0.131392
0.097313
0.159791
0.140597
0.087621
0.161719
0.164980
0.154584
0.122285
0.207064
0.187195
0.159136
0.132226
0.168447
0.168352
0.141619
0.168301
0.106501
0.098649
0.101610
0.159092
0.070624
0.112184
0.040316
0.095717
0.075820
-0.024406
0.019393
0.119726
-0.042051
0.027095
-0.007129
0.042944
0.004486
-0.032949
-0.047679
0.039939
-0.048710
-0.024837
-0.024821
0.050553
-0.032836
0.057007
-0.024246
-0.009178
-0.010209
-0.040255
-0.084541
0.005192
-0.014344
-0.039938
0.031859
-0.007597
-0.061739
-0.122002
-0.091737
0.091434
0.236297
0.576960
0.971790
1.282356
1.347766
1.366582
1.210575
0.908566
0.547285
0.275681
-0.009884
-0.211265
-0.363628
-0.302411
-0.244965
-0.241220
-0.068102
-0.089689
-0.013874
-0.028105
0.016256
-0.039346
0.000596
-0.021856
0.022737
-0.028266
-0.033599
-0.015049
0.067451
0.024648
0.010165
0.013989
0.032411
0.061400
-0.028357
-0.010967
0.073364
0.017078
0.033864
0.110267
0.032389
0.050299
0.080582
0.117383
0.038994
0.065083
0.099371
0.207705
0.165912
0.178889
0.218824
0.198272
0.212778
0.265282
0.240575
0.247538
0.290488
0.381747
0.299007
0.385138
0.413142
0.448087
0.378306
0.442654
0.383739
0.494998
0.449268
0.434060
0.388303
0.428569
0.388400
0.379361
0.442063
0.369090
0.394585
0.345525
0.309166
0.351188
0.229391
0.308801
0.303559
0.310584
0.270683
0.286660
0.205598
0.220924
0.163252
0.140707
0.159189
0.047462
0.101686
0.134608
0.179055
0.059009
0.002179
0.005507
-0.010049
0.038339
-0.044973
0.006891
-0.038085
-0.026652
-0.041209
-0.006161
-0.021774
-0.086460
-0.066467
-0.065971
-0.028362
0.006759
-0.077779
-0.003363
-0.029055
-0.066448
-0.103241
-0.056685
-0.107953
-0.117532
-0.034527
-0.028721
-0.096679
-0.098296
-0.060993
-0.124662
-0.142472
-0.136841
-0.085440
-0.168515
-0.041968
-0.055783
-0.039687
-0.106593
-0.107274
-0.064685
-0.040496
-0.057743
-0.107769
-0.096761
-0.139344
-0.067003
-0.098466
-0.068140
-0.046265
-0.150667
-0.076343
-0.076976
-0.118654
-0.100109
-0.113913
-0.082669
-0.055586
-0.110590
-0.070564
-0.076223
-0.092946
-0.083801
-0.166635
-0.105883
-0.079960
-0.123646
-0.089289
-0.085694
-0.075297
-0.047651
-0.017083
-0.009607
-0.099034
-0.161313
-0.144133
-0.065484
-0.195891
-0.128042
-0.111618
-0.136561
-0.108859
-0.041201
-0.106881
-0.142461
-0.131835
-0.182434
-0.115454
-0.039063
-0.094495
-0.118647
-0.045780
-0.071758
-0.144067
-0.091809
-0.073647
-0.002856
-0.111596
-0.042929
-0.038976
-0.109012
-0.050416
0.048096
-0.023433
0.037954
0.060395
0.015169
0.007881
0.008823
0.009232
0.000229
0.057918
0.090390
0.080225
0.069302
0.108422
0.082441
0.116804
0.021163
0.032109
0.063714
0.037059
0.071089
0.077771
-0.008241
-0.013617
-0.002221
0.017506
-0.045619
-0.062018
-0.059584
-0.021111
-0.072171
-0.051362
-0.073109
-0.110549
-0.060832
-0.126834
-0.033822
-0.023723
-0.046603
-0.059221
-0.143240
-0.155096
-0.070314
-0.115997
-0.133807
-0.086175
-0.072200
-0.100495
-0.081508
-0.065833
-0.134129
-0.097210
-0.051994
-0.071626
-0.085058
-0.144351
-0.164716
-0.127449
-0.067502
0.109531
0.414034
0.685263
0.919400
1.177798
1.284939
1.063358
0.872332
0.641127
0.224105
-0.086527
-0.203906
-0.395172
-0.438803
-0.327413
-0.232874
-0.216919
-0.117359
-0.075456
-0.047636
-0.058785
-0.036380
-0.016579
-0.064076
-0.172984
-0.063349
-0.050617
-0.032359
-0.082537
-0.102894
-0.015233
-0.078466
-0.072974
-0.057871
-0.055313
-0.096270
-0.013300
-0.080133
0.042002
-0.047425
0.041137
0.056283
0.019363
0.073109
0.050640
0.167637
0.048046
0.074313
0.144313
0.165063
0.182250
0.137930
0.198071
0.155674
0.253564
0.254491
0.287505
0.305532
0.422080
0.387844
0.403340
0.354593
0.388650
0.411334
0.410112
0.385924
0.444523
0.421727
0.406737
0.374809
0.426614
0.444049
0.439636
0.383692
0.453443
0.386077
0.321176
0.315062
0.392977
0.341570
0.334186
0.309887
0.304648
0.315823
0.193294
0.251946
0.216649
0.162912
0.122737
0.122395
0.146417
0.121562
0.088897
0.124938
0.065611
0.021987
0.021197
0.080535
-0.051953
0.082792
0.087578
-0.052198
0.034894
0.001538
0.013940
0.005720
0.062373
0.012459
-0.105081
-0.061540
0.046470
-0.080072
-0.028917
-0.068596
-0.009074
-0.007265
-0.094460
-0.071323
-0.018622
-0.044664
-0.084401
-0.022269
0.018801
-0.012072
-0.003210
-0.030521
-0.067654
0.034080
-0.048976
0.014439
0.013476
-0.006906
-0.030574
-0.033309
0.004458
-0.017670
0.021188
0.019142
-0.014632
-0.057840
-0.032500
-0.078114
0.002018
0.005484
0.021665
-0.086716
-0.021584
0.014756
0.008428
-0.027541
0.031090
-0.056399
-0.008282
-0.054081
-0.017931
0.042622
-0.010786
0.017411
0.033587
-0.019614
0.034997
-0.032042
-0.013154
-0.080665
-0.021969
-0.067700
-0.071065
-0.035882
-0.043632
-0.033268
-0.001572
-0.071788
-0.021780
0.013713
0.053862
-0.001762
-0.041959
0.019815
0.003206
-0.021736
0.172408
0.002942
-0.023912
-0.030881
-0.025689
-0.034124
0.054967
0.171864
0.093888
0.078486
0.027043
-0.025285
0.136703
0.106924
0.182267
0.076413
0.127439
0.112894
0.116383
0.101887
0.076525
0.164100
0.171226
0.138442
0.248480
0.240568
0.203885
0.180178
0.183967
0.201241
0.209443
0.195173
0.198516
0.190559
0.213004
0.115317
0.162643
0.188271
0.150499
0.178499
0.141268
0.135732
-0.006901
0.110095
0.042331
0.104769
0.042293
0.049635
0.050505
0.032419
-0.001704
-0.067823
-0.011524
0.069940
-0.006532
0.101626
0.092446
0.026202
0.084987
0.066468
-0.044724
0.072897
0.081937
0.074987
0.056062
0.055175
0.043164
0.074564
0.002163
0.057864
0.018550
-0.068916
-0.050699
0.113586
0.269716
0.403716
0.883182
1.092041
1.373877
1.456853
1.358016
1.075290
0.804264
0.477512
0.155878
-0.141765
-0.200767
-0.291564
-0.198801
-0.143605
-0.079819
0.014942
0.010366
-0.002217
0.045652
-0.030240
-0.029338
0.025837
0.029753
0.000000
0.171128
0.041688
0.129146
0.120188
0.049346
0.109669
0.046352
0.058907
0.154096
0.125325
0.033413
0.159090
0.124303
0.171132
0.205423
0.130355
0.272254
0.184654
0.189449
0.212616
0.294438
0.323441
0.239835
0.305814
0.220733
0.265346
0.349927
0.353394
0.345237
0.366641
0.391674
0.494277
0.488378
0.372372
0.444472
0.467004
0.536919
0.530559
0.573582
0.563964
0.539448
0.540867
0.575608
0.485702
0.484368
0.625060
0.575332
0.493263
0.495000
0.529832
0.472043
0.478282
0.430613
0.369066
0.362348
0.431294
0.359116
0.391727
0.416303
0.362692
0.277329
0.306677
0.391317
0.229276
0.231134
0.190570
0.221266
0.202821
0.133849
0.205041
0.233891
0.186992
0.094899
0.150109
0.108486
0.221949
0.059165
0.129159
0.084643
0.099441
0.027145
0.019171
0.108397
0.048983
0.073776
0.033548
0.033172
0.087988
0.088192
