0.035112
-0.073402
-0.021113
-0.082831
-0.034216
-0.019043
0.069485
0.021900
-0.026800
0.000740
0.022257
0.049213
-0.007792
-0.026275
0.104945
-0.057249
0.115787
0.035436
-0.003201
0.077899
0.116851
0.090618
0.107062
0.162200
0.026082
0.147323
0.088651
0.218714
0.172399
0.054151
0.242356
0.128721
0.176012
0.181574
0.199500
0.186721
0.162942
0.211649
0.186834
0.186183
0.205596
0.267271
0.268654
0.181649
0.180846
0.249364
0.216435
0.235135
0.168359
0.161908
0.111755
0.123285
0.092758
0.055533
0.008839
0.068243
0.088532
0.040924
-0.041549
0.053724
0.013525
0.035419
0.024648
0.125255
0.024739
0.054042
0.089506
0.115304
0.031545
0.096789
0.079605
0.248079
0.450600
0.799584
1.124446
1.453980
1.494615
1.382091
1.059967
0.721255
0.327670
0.102051
-0.171742
-0.189688
-0.127619
-0.081030
0.061304
0.011149
0.067802
0.094486
0.058346
0.129306
0.197200
0.135393
0.162191
0.172968
0.152274
0.126061
0.157122
0.212474
0.205404
0.111318
0.370974
0.340643
0.310737
0.300096
0.257150
0.355747
0.386557
0.442395
0.496992
0.401564
0.417610
0.457804
0.595381
0.432693
0.496616
0.559416
0.611000
0.679160
0.558384
0.609091
0.558626
0.659066
0.632994
0.555465
0.556963
0.676900
0.605501
0.576484
0.600538
0.512007
0.531362
0.399727
0.460486
0.484112
0.456875
0.485685
0.315085
0.381693
0.391352
0.320051
0.313227
0.262907
0.252286
0.324649
0.247247
0.234945
0.181297
0.263238
0.149974
0.275210
0.102739
0.194237
0.142428
0.077466
0.147037
0.114263
0.156209
0.127903
0.110056
0.115224
0.105944
0.063832
0.045099
-0.008494
0.085409
0.016167
0.084179
0.068958
0.110732
0.043173
0.081357
0.072407
0.025963
0.042105
0.128393
-0.022793
0.081627
0.062033
0.103258
-0.007765
0.051805
0.096733
0.066213
0.060553
0.139460
0.124206
0.080211
0.071912
0.111330
0.069047
0.148737
0.091772
0.038679
0.092574
0.095412
0.111080
0.029964
0.090701
0.151348
0.177772
0.075658
0.080631
0.066865
0.104482
0.261843
0.112843
0.040345
0.163099
0.152524
0.140211
0.104978
0.169899
0.205728
0.213291
0.193230
0.176524
0.193604
0.222367
0.224739
0.283852
0.248098
0.301361
0.235488
0.222871
0.224184
0.201371
0.296322
0.214557
0.221042
0.292175
0.216211
0.226020
0.213990
0.230240
0.300046
0.193474
0.147740
0.187315
0.163832
0.160762
0.219560
0.179396
0.144558
0.170408
0.024131
0.113254
0.156232
0.078060
0.053873
0.110011
0.061959
0.056411
0.031015
0.059421
0.076410
0.093746
0.048929
0.116045
0.073776
0.325759
0.509450
0.804594
1.138956
1.343688
1.464339
1.466886
1.034870
0.707076
0.367112
0.063292
-0.070841
-0.147739
-0.169244
0.009878
0.043414
0.077347
0.132875
0.135814
0.118790
0.101920
0.220987
0.170920
0.182630
0.122250
0.166524
0.234515
0.180615
0.155981
0.275915
0.293462
0.246861
0.331206
0.284839
0.299201
0.360455
0.365266
0.344231
0.417134
0.364192
0.420276
0.431129
0.474633
0.426499
0.580308
0.584500
0.505303
0.672917
0.591736
0.585051
0.601851
0.534041
0.565947
0.655073
0.594876
0.649764
0.518228
0.570621
0.515353
0.597168
0.528776
0.500712
0.433006
0.407832
0.501419
0.302305
0.507643
0.490932
0.413703
0.349062
0.371338
0.355435
0.255180
0.284804
0.204925
0.258625
0.232380
0.222931
0.156565
0.157130
0.151679
0.138591
0.099335
0.177644
0.120091
0.154368
0.019652
0.125298
0.084046
0.077363
0.053410
0.048218
0.134174
0.010850
0.017205
0.085804
0.056219
0.053799
0.031105
0.073628
0.039112
0.099262
0.079694
-0.058919
-0.063049
0.053145
0.052323
0.014975
0.109615
0.093619
0.067357
0.146234
0.048837
0.034398
-0.083950
0.079099
0.044131
0.039871
0.042362
0.044598
-0.016386
0.086726
0.065441
0.074508
0.050649
0.040573
0.074576
0.081092
0.036324
0.055986
0.026051
0.035302
0.000063
0.121793
-0.003129
0.071538
0.112668
0.075455
0.033999
0.053603
0.004500
0.042982
0.086259
0.057828
0.108526
0.083859
0.076128
0.127713
0.042731
0.090881
0.161362
0.159728
0.180915
0.172937
0.220305
0.198194
0.167960
0.221894
0.202953
0.123748
0.179371
0.219519
0.139592
0.110859
0.182601
0.121863
0.139223
0.133384
0.132618
0.112700
0.114421
0.104866
-0.006406
0.074517
-0.007313
0.142941
0.032921
0.023825
-0.033863
-0.052100
0.040425
0.031089
-0.048898
-0.040336
-0.049188
0.056681
-0.038070
-0.082763
-0.035723
-0.029189
0.202732
0.547850
0.803131
1.196356
1.307812
1.392758
1.209115
0.940484
0.596936
0.158548
-0.010899
-0.227532
-0.263899
-0.213809
-0.120575
-0.017524
-0.059038
-0.004048
-0.038725
0.017040
0.023108
0.017854
0.043856
0.095578
0.036074
0.057180
0.105247
0.165088
0.155484
0.146052
0.093731
0.178622
0.153168
0.176985
0.215063
0.187508
0.290278
0.205622
0.283137
0.331292
0.289838
0.359426
0.417615
0.406198
0.366917
0.407866
0.401265
0.538889
0.438110
0.529547
0.465474
0.481888
0.495555
0.509507
0.504454
0.509792
0.457066
0.474106
0.450191
0.379998
0.350950
0.459110
0.364905
0.314959
0.304973
0.354316
0.363363
0.281904
0.294643
0.294532
0.218609
0.179516
0.206092
0.219290
0.179586
0.119109
0.066082
0.096841
0.105470
0.092095
0.028039
0.068089
0.119683
0.087347
0.065569
0.002078
-0.083015
-0.023559
-0.071788
-0.007092
-0.001424
-0.036696
0.024231
-0.050173
-0.042813
-0.039593
-0.081143
-0.075333
-0.056640
-0.101314
-0.096106
-0.070553
-0.063383
-0.078555
-0.048274
-0.008014
0.036042
-0.075532
-0.065961
-0.086079
-0.008741
-0.097929
-0.076467
-0.076257
-0.062205
-0.067148
0.034271
-0.003987
-0.063893
-0.017028
-0.012949
0.023138
-0.083505
-0.022607
-0.012982
-0.123478
-0.023714
-0.002919
-0.114537
-0.087656
0.001921
0.013919
-0.052253
0.004059
-0.056464
-0.074735
-0.069282
-0.090112
-0.014525
-0.075008
-0.056736
-0.037518
0.053108
-0.004348
0.037813
0.004028
0.095558
0.004742
0.188710
0.052999
0.117380
0.093381
0.067402
0.083899
0.172925
0.113632
0.174900
0.173081
0.138108
0.131272
0.062780
0.097610
0.061270
0.146376
0.112321
0.132369
0.000210
0.115142
-0.069304
0.030974
0.077309
0.118952
0.022276
0.028463
-0.100157
-0.012465
0.012967
-0.148983
0.016204
-0.026201
0.044023
-0.003560
-0.036237
-0.035182
-0.038909
-0.056433
-0.042834
-0.015762
0.046217
0.034929
0.208358
0.451212
0.828372
1.125100
1.290609
1.370291
1.227283
0.939361
0.445919
0.107915
-0.193635
-0.233793
-0.242706
-0.117276
-0.078471
-0.059233
-0.097754
0.044350
0.056457
0.030404
0.001748
0.027402
0.035901
0.069238
0.060794
0.034623
0.106313
0.060477
0.063347
0.173606
0.121474
0.134188
0.193229
0.271213
0.284601
0.280580
0.257914
0.205168
0.271109
0.376190
0.381744
0.457360
0.381659
0.461142
0.504234
0.446578
0.475406
0.496676
0.429059
0.577325
0.601241
0.532194
0.546725
0.535990
0.525186
0.581207
0.432518
0.443442
0.502474
0.384047
0.450533
0.401002
0.473243
0.398626
0.443391
0.319647
0.312305
0.419615
0.255207
0.226894
0.228276
0.260706
0.266124
0.257126
0.166406
0.176002
0.215437
0.157723
0.136126
0.145069
0.182108
0.065268
0.098750
0.147325
0.042013
0.084614
0.053069
0.062344
0.097599
0.116002
-0.024443
0.017142
0.116042
-0.001340
0.095225
0.048435
0.044096
-0.045220
0.001538
0.069287
0.024750
0.061818
-0.050390
0.010533
-0.028986
0.031606
0.030011
-0.029106
-0.077846
-0.004199
-0.002437
0.087716
0.089911
0.016033
0.025967
0.045962
-0.029165
0.001557
0.025645
0.025249
0.075167
-0.013773
-0.019066
0.132135
0.040287
0.008516
0.015377
0.064652
0.069641
0.107887
-0.003215
0.074207
0.073331
0.063347
0.036990
0.010419
0.050077
0.097089
0.014986
0.129855
0.064316
0.064871
0.035631
0.053519
0.180699
0.130245
0.086899
0.178824
0.248186
0.274309
0.236327
0.247880
0.279528
0.183105
0.181002
0.201754
0.174448
0.193126
0.240775
0.207067
0.244453
0.211481
0.131766
0.225054
0.232110
0.275001
0.236651
0.194879
0.150419
0.165122
0.048176
0.153867
0.099287
0.021385
0.146852
0.087181
0.080388
0.030219
0.093939
0.007159
0.023126
0.064733
0.039185
0.055259
0.010686
0.061243
0.028724
0.081929
0.084893
0.255369
0.373973
0.613483
0.955416
1.166798
1.500000
1.426226
1.199541
0.992386
0.514106
0.214466
-0.038810
-0.144005
-0.149810
-0.039197
-0.055031
0.118635
0.000666
0.026873
0.095477
0.094469
0.178805
0.083103
0.174367
0.178444
0.133224
0.210299
0.179266
0.220570
0.229054
0.219440
0.237303
0.210104
0.318657
0.303381
0.267851
0.322898
0.399770
0.366611
0.423486
0.429149
0.439911
0.472202
0.475039
0.491129
0.577278
0.590200
0.581372
0.628559
0.572437
0.653144
0.610098
0.585037
0.627260
0.603247
0.583333
0.633291
0.657987
0.609041
0.591171
0.577880
0.565559
0.494897
0.525796
0.499137
0.528905
0.477366
0.449264
0.358676
0.279516
0.382166
0.378116
0.378143
0.235867
0.307666
0.281306
0.354559
0.237459
0.245496
0.185862
0.255974
0.229623
0.201446
0.240547
0.124980
0.196319
0.205241
0.145546
0.128384
0.188286
0.131836
0.165145
0.253579
0.119937
0.076191
0.122389
0.161084
0.140314
0.009077
0.065156
0.057346
0.090396
0.078758
0.086534
0.107707
0.049019
0.108221
0.087950
0.082626
0.082234
0.069801
0.067450
0.072168
0.120171
-0.014378
-0.020551
0.068298
0.061151
0.069171
0.108739
0.077645
0.134632
0.029858
0.163464
0.026879
0.063547
0.127358
0.120588
0.055179
0.062973
0.061103
0.041437
0.039553
0.060796
0.150565
0.129980
0.092642
0.172438
0.159203
0.195344
0.106700
0.214948
0.104573
0.128636
0.188265
0.185504
0.223849
0.162860
0.207152
0.264624
0.215480
0.236504
0.246999
0.273208
0.196066
0.207339
0.332733
0.305099
0.283594
0.271619
0.186167
0.292975
0.248853
0.227638
0.275508
0.150232
0.122111
0.251481
0.266491
0.205327
0.178559
0.149037
0.177571
0.117880
0.133852
0.122045
0.156193
-0.018756
0.069664
0.116748
0.124411
0.048308
0.048346
0.141932
0.102498
0.093861
0.085669
0.106071
0.023395
0.116222
0.157168
0.377628
0.631416
0.984092
1.254384
1.461726
1.407149
1.169126
0.901390
0.519646
0.103366
-0.055822
-0.164443
-0.080068
-0.050951
0.018960
0.069048
0.060500
0.101069
0.020186
0.073270
0.053137
0.098297
0.157041
0.170482
0.176722
0.246077
0.199612
0.196238
0.162271
0.135480
0.275433
0.236664
0.251122
0.325417
0.308897
0.412720
0.326228
0.438506
0.471168
0.410470
0.459488
0.448537
0.443264
0.490768
0.522280
0.575552
0.619845
0.469356
0.622846
0.602532
0.587935
0.634665
0.589416
0.582808
0.599142
0.505824
0.495418
0.472994
0.543272
0.540078
0.447125
0.459386
0.371103
0.447197
0.436639
0.443651
0.330144
0.354726
0.308458
0.281493
0.326819
0.322475
0.221805
0.254808
0.232850
0.257063
0.163593
0.133557
0.125405
0.194641
0.072485
0.108624
0.073242
0.104874
0.119071
0.062895
0.068187
0.025017
0.000651
0.016111
0.131584
0.012153
0.037271
0.029212
-0.004655
0.048814
-0.016118
0.054971
0.001064
0.087828
0.051034
0.019211
-0.003481
-0.003122
0.041024
0.117378
-0.075252
-0.033281
-0.059267
0.027893
0.122079
0.060733
-0.076781
-0.036659
0.039871
0.008431
0.031027
-0.023395
0.035683
-0.000772
-0.006903
-0.025647
-0.047031
-0.022239
0.072285
0.043828
0.019757
-0.049238
-0.101022
-0.002840
-0.036567
0.014328
0.064855
0.041339
0.004419
-0.009078
0.027173
0.028819
0.091705
0.049613
0.007013
0.060104
0.001433
0.070511
-0.008925
0.071649
0.119586
0.074626
0.063887
0.111118
0.099002
0.153356
0.089484
0.154476
0.207975
0.125897
0.136858
0.129439
0.181080
0.192273
0.223040
0.179978
0.114516
0.100671
0.114872
0.095926
0.125717
0.064295
0.040839
0.114938
-0.010087
0.069085
0.046386
0.033499
0.016889
-0.010384
-0.094442
-0.071660
-0.040142
-0.018091
-0.026065
0.042016
-0.037221
-0.005467
0.048759
-0.071655
-0.124656
-0.107884
-0.095374
0.140733
0.321431
0.616523
0.904101
1.273745
1.261038
1.334763
1.061341
0.736317
0.363223
-0.075140
-0.224553
-0.238815
-0.284783
-0.213894
-0.101949
-0.081556
0.006067
0.015485
0.008847
0.050692
-0.034514
-0.031966
0.068782
0.036772
0.053559
0.111676
0.090805
0.010846
0.101521
0.076212
0.085038
0.162491
0.155029
0.162791
0.208030
0.220851
0.198939
0.257293
0.261975
0.298459
0.297487
0.370461
0.416476
0.351501
0.445294
0.386007
0.397473
0.337382
0.468117
0.429003
0.342670
0.444841
0.513330
0.458733
0.503940
0.499082
0.272529
0.535972
0.467919
0.380788
0.359903
0.364570
0.312647
0.315681
0.302926
0.281594
0.220236
0.263863
0.209669
0.177474
0.100263
0.182422
0.143546
0.029155
0.024911
0.036092
0.087511
0.079104
0.084396
-0.003275
-0.066245
-0.003862
-0.023695
-0.056824
-0.083134
0.019525
-0.118769
-0.021495
-0.143433
-0.057115
-0.019776
-0.046993
-0.032045
-0.084352
0.013078
-0.060579
0.025759
-0.079583
-0.053288
-0.137942
-0.155197
-0.135023
-0.057076
-0.079867
-0.107799
-0.128931
-0.079562
-0.077045
-0.109000
-0.097664
-0.074901
-0.026008
0.000481
-0.074929
-0.141307
-0.045853
-0.144641
-0.001738
-0.058740
-0.087703
-0.041283
-0.088216
-0.084903
-0.096356
-0.121435
-0.113104
-0.056922
-0.120066
-0.108601
-0.134651
-0.033086
-0.072312
-0.105650
-0.028854
-0.006167
-0.071267
-0.108585
0.002005
0.014519
-0.089170
0.016996
-0.019805
-0.039358
0.069157
-0.013089
-0.015389
0.004493
0.083806
-0.027902
0.063603
0.092911
0.126167
0.102575
0.123091
0.130244
0.148055
0.131160
0.134233
0.101367
0.078476
0.109417
0.037892
0.178271
0.068498
0.047205
0.064589
0.046441
0.034974
0.122881
0.075885
0.011904
0.007880
-0.068116
-0.079582
-0.029255
-0.024447
-0.075032
-0.047803
-0.099004
-0.064234
-0.056041
-0.052247
-0.074027
0.008020
-0.133950
-0.074010
-0.037661
-0.034655
0.013352
0.100569
0.298500
0.626223
0.958385
1.116810
1.346465
1.213063
1.007725
0.598967
0.311551
-0.076670
-0.186046
-0.214684
-0.288444
-0.253854
-0.147034
-0.074667
-0.068929
0.026856
-0.060514
-0.003497
-0.037232
0.013034
0.035937
-0.023723
0.030700
0.020364
0.007473
-0.004605
0.020586
0.085563
0.118330
0.137631
0.109671
0.191438
0.151165
0.152906
0.194932
0.256281
0.360614
0.290941
0.360457
0.310295
0.391093
0.361455
0.396639
0.395961
0.385858
0.388830
0.492076
0.429919
0.498259
0.482216
0.489809
0.418364
0.407185
0.419820
0.469724
0.436816
0.483784
0.440840
0.417208
0.324964
0.320037
0.324720
0.308056
0.268283
0.279388
0.316845
0.249063
0.257093
0.210249
0.252132
0.151025
0.153429
0.111332
0.149512
0.191158
0.052246
0.113162
0.143340
0.054713
-0.008634
-0.038322
-0.012255
0.002309
-0.013116
-0.033659
-0.006650
-0.051625
-0.049214
0.025214
-0.093292
-0.004914
-0.021317
0.021244
0.013293
-0.035064
0.019236
-0.035286
-0.068435
0.004418
-0.098874
-0.014094
0.020492
-0.057951
-0.012176
-0.091382
0.028807
0.040388
-0.007918
-0.067050
-0.037445
0.016688
-0.025504
-0.052761
-0.015474
0.004274
0.023676
0.012450
-0.045062
0.031085
-0.024980
0.008990
-0.086000
0.000919
0.047654
-0.027197
-0.014527
-0.067617
-0.034924
-0.045685
0.011092
0.038281
-0.034729
-0.028704
0.019068
0.010164
0.014742
0.107678
0.041343
0.012209
0.042077
0.033897
0.108829
0.096621
0.165611
0.073546
0.183029
0.190119
0.103407
0.215053
0.160376
0.149373
0.202050
0.159682
0.220029
0.260839
0.136453
0.123913
0.203949
0.287780
0.160471
0.170004
0.145655
0.142826
0.179432
0.144301
0.123255
0.043833
0.172065
0.068542
0.013956
0.005933
0.049449
0.089931
0.058213
0.094130
0.079776
0.065146
0.044017
0.031015
0.028233
0.117684
0.078680
0.012129
-0.000861
0.025020
0.012202
0.029474
0.191627
0.441172
0.679826
0.972578
1.367959
1.362250
1.274279
1.053022
0.734734
0.345340
0.132976
-0.093669
-0.154243
-0.216530
0.018772
0.009135
0.031150
0.014085
0.105059
0.052280
0.020523
0.115308
0.210450
0.087402
0.049086
0.116807
0.167110
0.182237
0.261662
0.192296
0.136009
0.214115
0.212454
0.197808
0.212404
0.212089
0.371984
0.398175
0.408091
0.349503
0.440875
0.417642
0.499267
0.519773
0.592549
0.547602
0.578725
0.497060
0.570131
0.477147
0.488920
0.566156
0.600637
0.560757
0.485535
0.448993
0.543530
0.521983
0.480420
0.550976
0.517214
0.566573
0.403957
0.462899
0.454977
0.294969
0.379877
0.386767
0.374151
0.276056
0.276722
0.392348
0.242205
0.273925
0.259255
0.148642
0.204845
0.161185
0.172277
0.157442
0.181855
0.141179
0.090006
0.138487
0.133646
0.078210
0.146862
0.019464
0.051994
0.007008
0.044084
0.073318
0.131853
0.077652
0.071449
-0.010861
0.095348
0.022151
0.108280
0.096004
0.042356
0.002894
0.095246
0.104937
0.028533
0.043319
0.096135
0.098503
0.062797
0.041466
0.006837
0.052520
-0.026138
0.007837
0.012370
0.104067
0.039873
0.128281
-0.057219
0.103054
0.061308
0.001851
0.061236
0.064059
-0.002441
0.041602
0.119418
0.036279
0.100583
-0.001657
0.122855
0.062999
0.124601
0.070821
0.135628
0.040643
0.080808
0.045235
0.062590
0.051246
0.133076
0.160893
0.084012
0.115870
0.157352
0.088229
0.071932
0.129184
0.181895
0.230388
0.129928
0.157496
0.194834
0.234651
0.210643
0.197653
0.213629
0.199240
0.241364
0.208450
0.220994
0.174681
0.228335
0.183481
0.205982
0.168446
0.150016
0.215227
0.190374
0.127169
0.079683
0.020422
0.047377
0.126581
0.041407
0.032189
0.037903
0.093615
0.083205
-0.049505
0.046615
-0.058741
0.059074
0.009532
0.050329
0.001703
0.072320
0.007007
0.085092
0.052021
0.182366
0.482889
0.790371
0.994088
1.371046
1.440618
1.248236
1.010955
0.721899
0.281220
0.003463
-0.070824
-0.235278
-0.234227
-0.067980
-0.067682
-0.079883
0.044621
0.070477
0.204345
0.087294
0.057737
0.101948
0.117299
0.072975
0.146179
0.146461
0.058097
0.149814
0.193482
0.168853
0.257211
0.219418
0.270113
0.355708
0.272324
0.320290
0.342831
0.400326
0.427838
0.430463
0.420168
0.439573
0.454430
0.511936
0.466946
0.579523
0.503927
0.517038
0.624773
0.489687
0.502455
0.499641
0.483144
0.539426
0.480484
0.467451
0.429212
0.421584
0.500198
0.416357
0.425204
0.356111
0.400744
0.409199
0.297091
0.359611
0.298091
0.303854
0.338408
0.262898
0.236406
0.223952
0.229004
0.178047
0.166634
0.113424
0.099963
0.077103
0.118944
-0.025279
0.002098
0.020000
-0.019443
0.003394
0.001978
0.039182
0.072053
0.005167
0.010527
-0.010875
-0.081503
0.044250
-0.011428
0.081213
0.053263
-0.042779
0.004202
-0.053185
-0.021809
-0.039139
-0.080491
0.020390
-0.104790
-0.021175
0.034488
-0.035466
-0.021448
0.018092
-0.052729
-0.074269
-0.134967
-0.008418
-0.029067
0.018316
-0.032415
0.097684
-0.042125
-0.006452
-0.056497
-0.085286
0.043980
-0.068668
0.021987
-0.043619
-0.032778
-0.084619
-0.040074
-0.077959
0.011424
-0.147834
-0.073916
-0.057183
0.037439
-0.062120
0.036921
0.024447
-0.053840
-0.029044
0.010094
-0.063871
0.002497
0.082408
0.053487
-0.047294
0.094996
-0.010148
0.097636
0.040768
0.056832
0.101647
0.118429
0.092167
0.110882
0.109979
0.110054
0.090351
0.165831
0.114297
0.149364
0.215072
0.173373
0.063737
0.025444
0.088943
0.088215
-0.015529
-0.003001
-0.004214
-0.036743
0.004810
0.029556
-0.134824
0.035395
0.010386
-0.024262
-0.014993
-0.089840
0.011247
-0.053748
-0.012193
-0.088191
-0.037181
-0.130750
-0.077210
-0.049755
-0.034195
-0.131872
-0.103211
0.012871
0.143201
0.406899
0.726045
1.062343
1.268905
1.332574
1.174702
0.898707
0.502696
0.092019
-0.152235
-0.203301
-0.270263
-0.314140
-0.264194
-0.115859
-0.004841
0.019384
0.013446
-0.013566
0.063880
-0.021996
-0.061857
-0.078030
0.032288
0.005692
0.070895
0.053292
-0.003447
0.064673
0.074151
0.125645
0.146259
0.094237
0.186675
0.182913
0.196471
0.143266
0.228627
0.261917
0.218479
0.321720
0.376633
0.388211
0.358570
0.378972
0.446860
0.450100
0.443816
0.404498
0.391916
0.399933
0.429535
0.478288
0.456369
0.425974
0.389030
0.429111
0.450037
0.366041
0.279229
0.392129
0.296297
0.301794
0.319040
0.266029
0.168858
0.246659
0.248537
0.140569
0.161626
0.165682
0.102459
0.062783
0.093412
-0.014703
0.069939
0.072694
0.031376
-0.039671
0.066604
0.007298
-0.009225
-0.001471
-0.058267
0.008958
-0.098745
-0.061781
-0.067379
-0.069754
-0.062810
-0.044094
-0.045109
-0.090033
-0.091898
-0.163238
-0.093566
-0.048272
-0.146384
-0.127362
0.010915
-0.143916
0.048389
-0.160383
-0.060330
-0.117551
-0.051528
-0.101060
-0.089948
-0.110736
-0.156330
-0.120650
-0.029011
-0.077467
-0.012794
-0.076179
-0.120838
-0.123382
-0.117408
-0.126690
-0.159057
-0.048275
-0.065045
-0.106906
-0.026850
-0.145668
-0.032702
-0.097093
-0.084553
-0.118504
-0.111367
-0.128755
-0.073037
-0.108169
-0.104989
-0.056703
-0.003490
-0.123869
-0.110676
-0.037344
-0.064026
-0.028904
-0.056568
0.018273
0.052077
0.037108
0.053923
0.042350
-0.005559
0.053739
0.068858
0.069347
0.101459
0.041206
0.042958
0.088108
0.082851
0.065094
0.053499
0.029996
0.102892
0.105913
0.068989
0.019228
0.035407
0.053913
0.033138
-0.005366
0.021951
0.017426
-0.031993
-0.073563
0.032493
-0.078060
-0.066044
0.005288
-0.005786
-0.006260
-0.087488
-0.110455
-0.071295
-0.074416
-0.046925
-0.022610
-0.168655
-0.121713
-0.100706
-0.081649
-0.102487
0.058355
0.183539
0.462911
0.805363
1.078736
1.273779
1.372515
1.145347
0.824642
0.493038
0.129689
-0.190110
-0.309699
-0.197740
-0.157359
-0.096166
-0.092304
-0.095010
-0.070702
-0.018754
0.039936
-0.018837
0.008450
0.019574
0.054204
-0.022131
0.016242
0.096697
0.125740
0.100609
0.050841
0.103714
0.089009
0.170894
0.204719
0.159556
0.254485
0.217510
0.324315
0.279754
0.309484
0.331001
0.327500
0.428770
0.348263
0.416789
0.409234
0.458510
0.427349
0.400175
0.473390
0.396128
0.479651
0.453836
0.495697
0.512234
0.490988
0.498660
0.487578
0.411445
0.469622
0.407175
0.249991
0.369690
0.371535
0.390520
0.292686
0.292756
0.149545
0.224240
0.222324
0.115825
0.214765
0.216153
0.126050
0.165144
0.173663
0.161782
0.122684
0.079636
0.076418
0.102984
0.062784
0.044888
0.037639
0.046114
-0.071243
0.039025
-0.006539
0.034201
0.009550
-0.016144
-0.001713
-0.019118
0.075474
-0.025207
0.032037
-0.048711
-0.020866
-0.012832
-0.038039
-0.028842
0.012574
-0.113965
-0.104633
0.034476
-0.029975
-0.025222
0.015503
-0.016679
-0.019511
-0.096735
-0.010505
-0.060331
-0.025482
-0.032924
-0.039440
-0.055319
-0.120011
-0.052221
-0.066251
0.038378
-0.015807
-0.012946
-0.047577
0.017185
-0.026068
-0.024559
-0.016294
0.031860
0.033649
0.031098
-0.028095
-0.049966
0.067530
0.030517
0.016648
0.031928
0.037104
0.016645
0.007184
0.079299
0.029878
0.090920
0.068112
0.044442
0.091187
0.090089
0.085365
0.120275
0.222904
0.232226
0.211943
0.266850
0.023038
0.214166
0.212260
0.190986
0.185010
0.222587
0.206132
0.157040
0.224454
0.185128
0.131857
0.201982
0.266510
0.135204
0.079675
0.136156
0.083864
0.069763
0.067114
0.099687
0.061239
0.046237
0.150405
0.061587
0.075834
0.076843
0.034050
0.010593
0.092105
0.119686
0.013435
0.016174
0.042018
0.015614
-0.018939
0.071600
0.119113
0.278107
0.605022
0.930099
1.258602
1.457303
1.443100
1.225396
0.824822
0.493994
0.166258
-0.045180
-0.232830
-0.219724
-0.122883
-0.037196
0.050383
0.084926
0.089236
0.136777
0.054619
0.026256
0.137162
0.135733
0.102469
0.140195
0.206078
0.189628
0.140526
0.153254
0.205170
0.324909
0.168175
0.218661
0.251146
0.252473
0.206362
0.357557
0.334856
0.390098
0.382927
0.316667
0.454205
0.460850
0.483647
0.641600
0.516590
0.606948
0.645922
0.535699
0.572363
0.553572
0.552720
0.618246
0.587832
0.586819
0.562676
0.568716
0.585243
0.639430
0.498210
0.513239
0.534322
0.479009
0.412931
0.500640
0.456742
0.496651
0.293351
0.319112
0.318147
0.229486
0.384982
0.314726
0.221057
0.221276
0.170635
0.232947
0.188141
0.129984
0.209312
0.124030
0.134166
0.080751
0.177125
0.118094
0.132390
0.118660
0.054056
0.091205
0.127894
0.087634
0.089594
0.119460
0.036517
0.105301
0.028345
0.023855
0.066704
0.051675
0.116345
0.052521
0.167306
0.112170
0.019745
0.009268
0.052699
0.112066
0.129127
0.047505
0.115401
0.124885
0.068830
0.126727
0.075034
0.076497
0.074759
0.088881
0.066324
0.133956
0.085247
0.061166
0.014099
0.032849
0.178666
0.108596
0.038775
0.087198
0.020129
0.157907
0.038866
0.064652
0.169473
0.091205
0.091516
0.115229
0.114828
0.122060
0.134414
0.125510
0.109899
0.085897
0.112850
0.173517
0.061669
0.231858
0.184482
0.155012
0.084578
0.169209
0.302160
