0.008923
0.017521
0.001307
-0.023292
-0.025231
0.060685
0.069293
0.026591
-0.015533
-0.056799
-0.013460
-0.006241
0.034851
-0.030178
0.057909
0.008371
0.087721
-0.024953
0.021164
-0.025675
0.060995
0.009501
0.048111
0.032236
-0.004451
0.082070
0.043090
0.050774
0.040067
0.088610
0.024080
0.056327
0.142470
0.083434
0.083162
0.085963
0.135046
0.125221
0.159606
0.209800
0.194644
0.239521
0.123501
0.130975
0.208501
0.213768
0.203707
0.229161
0.240123
0.242184
0.296079
0.151915
0.184819
0.090949
0.200149
0.212344
0.169519
0.054838
0.162525
0.076458
0.067544
0.133289
0.051003
0.155440
0.067142
0.066738
0.049800
0.010356
0.007821
0.041640
0.011738
0.009869
0.119968
0.099807
0.081735
0.051102
0.074232
0.054270
0.144439
0.013310
-0.000530
0.050001
0.067970
0.021270
0.020631
0.012298
-0.021293
0.058853
0.122039
0.203752
0.493112
0.782854
1.114379
1.321538
1.477303
1.328496
1.029098
0.733306
0.404002
0.047406
-0.043850
-0.226907
-0.236367
-0.179634
-0.072967
0.055823
-0.043584
0.084232
0.011585
0.069129
0.052396
0.089872
0.179628
0.100560
0.100144
0.075078
0.089326
0.070589
0.143108
0.105510
0.064842
0.138131
0.217338
0.150453
0.189993
0.158578
0.189772
0.114043
0.172292
0.197648
0.189563
0.297358
0.231128
0.362951
0.284450
0.308823
0.359710
0.355892
0.461121
0.375634
0.416547
0.422642
0.476452
0.505263
0.570682
0.520648
0.499846
0.577273
0.602728
0.597991
0.514169
0.564431
0.560979
0.520408
0.553538
0.588192
0.469665
0.592202
0.492829
0.450196
0.478243
0.537086
0.432937
0.499265
0.452067
0.439411
0.344054
0.444358
0.309845
0.390967
0.320535
0.281644
0.318634
0.228812
0.241319
0.246595
0.159760
0.253343
0.161375
0.193445
0.222296
0.171046
0.203222
0.102017
0.128401
0.139034
0.150907
0.112409
0.143156
0.058301
0.126080
0.090260
0.005152
0.042351
-0.028859
0.010931
0.015228
0.095065
0.043689
0.093942
0.055165
0.111698
0.088916
0.045926
0.111758
0.049228
0.074142
0.038837
0.078845
0.077381
0.103286
0.180687
0.028877
0.088602
0.058214
0.110024
0.057597
0.075023
0.062094
0.098826
0.060605
0.078170
0.104600
0.074690
0.036657
0.091421
0.032183
-0.009961
0.085764
0.063697
0.116462
0.040504
0.146144
0.132094
0.153298
0.086321
0.074353
0.119051
0.125802
0.113704
0.039989
0.067640
0.087493
0.089293
0.038289
-0.019037
0.123393
0.089673
0.106193
0.193064
0.047876
0.033424
0.004303
0.037011
0.093105
0.037481
0.171503
0.097298
0.092768
0.090054
0.076530
0.161288
0.104014
0.107900
0.134092
0.181943
0.132687
0.179375
0.086777
0.188129
0.180561
0.174070
0.159699
0.182797
0.200975
0.181565
0.285870
0.227476
0.277697
0.270692
0.284486
0.255389
0.222374
0.191206
0.208035
0.213656
0.226053
0.191066
0.222482
0.190379
0.213064
0.224201
0.125580
0.146419
0.100606
0.135707
0.085327
0.156599
0.083989
0.064258
0.172738
0.147150
0.053822
0.103635
0.137135
0.095237
0.003673
0.001625
0.106085
0.096316
0.040652
0.132134
0.062445
0.066620
0.046535
0.061588
0.078008
0.075063
0.044511
0.014648
-0.061143
0.036211
0.094868
0.188937
0.377928
0.763725
1.078896
1.274258
1.499960
1.324040
1.086412
0.847789
0.542946
0.157888
-0.123396
-0.229705
-0.280405
-0.230536
-0.191042
-0.064138
-0.005556
0.063454
-0.021464
0.128533
0.084212
0.065664
0.074097
0.025496
-0.005343
0.056732
0.080892
0.036744
0.096327
0.098605
0.138247
0.077593
0.120692
0.060524
0.100101
0.153683
0.155015
0.112476
0.212569
0.182625
0.145079
0.169030
0.268415
0.308346
0.257294
0.245307
0.280483
0.299633
0.392149
0.310144
0.420264
0.365600
0.420249
0.455990
0.378261
0.473855
0.457852
0.541915
0.454647
0.521555
0.493134
0.481603
0.473094
0.527543
0.515621
0.455695
0.451485
0.552793
0.383183
0.342297
0.459306
0.437319
0.395870
0.424271
0.345262
0.433900
0.318155
0.314535
0.253278
0.282970
0.314117
0.313933
0.207547
0.189024
0.151221
0.215691
0.128734
0.095316
0.077346
0.192324
0.075348
0.024212
0.097294
0.080436
0.057845
0.035864
0.048615
0.082122
0.021292
0.100425
0.003019
0.022457
0.005213
-0.044143
-0.004546
-0.022875
-0.025178
-0.060195
-0.013330
-0.086593
-0.024888
0.032507
0.027998
-0.074351
0.012414
-0.031376
0.010850
-0.044187
-0.043279
-0.023515
0.013664
-0.062335
-0.080609
-0.026130
-0.018323
-0.006588
0.028614
-0.066856
0.041949
-0.039191
-0.006404
0.020555
0.011371
-0.027868
-0.029827
-0.026081
-0.006308
0.050654
0.077798
0.055657
-0.073494
-0.026335
-0.023494
-0.043619
0.020258
-0.077841
-0.028151
0.015234
-0.000164
-0.063704
-0.015658
-0.013145
-0.072172
0.011309
-0.023373
-0.020226
-0.009488
-0.104429
-0.094446
-0.031556
-0.069560
-0.103300
-0.050422
-0.023362
0.058746
-0.059208
-0.003718
-0.063190
-0.021133
0.012682
-0.022496
-0.002439
-0.035273
-0.013820
0.065418
0.003226
-0.024371
0.084007
-0.018324
0.017808
0.079262
0.068476
0.078947
0.084707
0.111584
0.095824
0.103517
0.157838
0.092494
0.179246
0.137519
0.159490
0.094785
0.151041
0.094505
0.053491
0.116448
0.101852
0.104771
0.038404
0.041137
0.058685
-0.044866
0.040426
0.096719
0.040278
0.014320
0.004782
-0.033712
0.006429
0.005716
0.071433
0.038200
-0.070095
0.029846
-0.029582
-0.029391
-0.013518
-0.013694
-0.049694
-0.027831
-0.074999
-0.037120
-0.137484
-0.046392
-0.039303
-0.025819
-0.092420
-0.018878
-0.124190
-0.096873
-0.049819
-0.079362
-0.004927
0.155459
0.525398
0.811915
1.120478
1.313371
1.382469
1.128583
0.953408
0.551795
0.163333
-0.051760
-0.230666
-0.272110
-0.351847
-0.285344
-0.196822
-0.059288
-0.074669
-0.027955
0.000809
-0.018076
-0.047048
0.014649
-0.067761
-0.011621
0.001459
-0.056097
-0.047713
-0.039682
0.044299
0.004619
0.024808
0.033033
0.062910
0.065262
0.072161
0.030596
-0.021645
0.051104
0.119999
0.095589
0.169246
0.101471
0.226890
0.182806
0.190296
0.204045
0.233507
0.172281
0.345767
0.323731
0.315922
0.303047
0.325709
0.283754
0.380948
0.438506
0.425491
0.479058
0.468335
0.514586
0.442590
0.491932
0.531547
0.377282
0.512343
0.450708
0.460874
0.452970
0.378802
0.379685
0.487116
0.318877
0.390492
0.357911
0.361973
0.272690
0.256990
0.330241
0.302856
0.321370
0.113303
0.194815
0.183128
0.139182
0.077432
0.104078
0.173429
0.096512
0.175112
0.111363
0.119445
0.007326
0.070008
0.024821
0.110810
0.012781
0.001241
0.067266
0.056418
-0.042458
-0.013221
0.066218
-0.021069
-0.005669
-0.010424
0.004842
0.013261
0.006081
-0.074567
-0.004060
-0.019378
0.017502
-0.119388
-0.101757
-0.000877
-0.019495
-0.048905
-0.006388
-0.021007
-0.006641
0.007922
-0.033025
-0.054443
-0.055904
0.023013
0.010623
-0.080787
0.046041
-0.028389
0.020521
-0.016200
0.050852
-0.030534
-0.032601
-0.029619
-0.008086
-0.046605
-0.086257
-0.154402
0.051728
0.009317
-0.021014
-0.033450
0.066810
0.071037
0.005422
-0.036467
0.024913
0.007269
-0.029678
0.041887
0.000603
0.056697
-0.054999
-0.076835
-0.019349
-0.035865
-0.015644
0.028924
0.060190
0.020525
-0.016165
-0.043078
-0.005987
0.026516
0.113904
-0.040104
0.003750
0.086148
0.034195
0.029811
0.039299
0.013310
0.092623
-0.006457
0.059879
0.029676
0.111989
0.133607
0.104182
0.153959
0.061179
0.119747
0.065265
0.046055
0.134488
0.264444
0.144610
0.130895
0.220558
0.194090
0.143354
0.191374
0.182718
0.154417
0.171407
0.217119
0.213606
0.145170
0.189218
0.166516
0.151095
0.130614
0.138919
0.067945
0.118945
0.093948
0.096564
0.037163
0.064677
0.001533
0.069224
0.044961
0.086175
-0.039503
0.107271
0.038065
0.110746
0.118077
0.006092
0.056763
0.093751
0.120374
0.027405
-0.036698
0.019005
-0.012723
0.102293
-0.025397
0.040271
0.054172
-0.001090
0.118396
0.204018
0.485607
0.818772
1.047998
1.342078
1.392043
1.290423
1.092686
0.705967
0.430675
0.153925
-0.066345
-0.180300
-0.213985
-0.224973
-0.108042
0.028963
-0.022457
0.063385
0.074637
0.136426
0.091729
0.028464
0.085252
0.077169
0.127215
0.093017
0.066146
0.086688
0.053064
0.197812
0.160730
0.114459
0.057333
0.103350
0.096775
0.089158
0.214942
0.211852
0.149387
0.288597
0.230349
0.306522
0.239651
0.255440
0.344326
0.333577
0.358545
0.326730
0.406347
0.444029
0.384014
0.471169
0.513819
0.485871
0.436960
0.517757
0.522494
0.563029
0.583750
0.564904
0.541610
0.571690
0.608801
0.601672
0.616440
0.529510
0.576383
0.493222
0.577105
0.518769
0.484673
0.480665
0.447130
0.480378
0.523352
0.411130
0.381864
0.389665
0.419982
0.391451
0.313247
0.277341
0.275835
0.275117
0.305216
0.246039
0.242364
0.299754
0.215130
0.132120
0.204229
0.238293
0.142304
0.158629
0.104688
0.084617
0.186412
0.103005
0.129303
0.156647
0.094185
0.147619
0.130171
0.092808
-0.020069
0.193345
0.155776
0.142675
0.029785
0.192886
0.094878
0.060964
0.121930
0.116205
0.131041
0.056630
0.027298
0.037556
0.082358
0.118086
0.107827
0.097914
0.075322
0.065199
0.104689
0.136370
0.102505
0.104626
0.072587
0.143341
0.064465
0.089432
0.022667
0.074086
0.092130
0.049624
0.094461
0.166275
0.076422
0.097188
0.030849
0.114364
0.050607
0.104699
0.174622
0.020378
0.086784
0.089665
0.072533
0.127852
0.013371
0.127572
0.074211
0.075856
0.118576
0.115172
0.100304
0.108062
0.039790
0.025173
0.150453
0.109841
0.073589
0.102926
0.079432
0.123841
0.071264
0.156441
0.083175
0.129226
0.111753
0.084175
0.139885
0.100833
0.148195
0.169766
0.111340
0.123250
0.145817
0.118895
0.191324
0.165313
0.232804
0.246269
0.263775
0.287501
0.245663
0.304249
0.187973
0.210767
0.245199
0.284129
0.277704
0.241322
0.187884
0.265313
0.220783
0.167165
0.189337
0.188848
0.234838
0.187034
0.159712
0.161830
0.184116
0.089060
0.172591
0.170999
0.105102
0.120619
0.097090
0.052389
0.027110
0.140617
0.093765
0.071636
0.130851
0.137296
0.069494
0.110588
0.043047
0.049390
0.089811
0.067163
0.109757
0.034325
0.136936
-0.031256
-0.024962
0.050178
0.018177
0.033979
0.076886
0.202770
0.446569
0.707854
0.966699
1.311962
1.412579
1.500000
1.291683
0.915087
0.587324
0.265190
0.015701
-0.286743
-0.236575
-0.168986
-0.103911
0.012226
0.033075
0.056162
0.047117
0.061162
0.135260
0.074022
0.089862
0.038636
0.096413
0.105555
0.062150
0.005699
0.052379
0.095878
0.141840
0.095148
0.127675
0.128814
0.152126
0.116903
0.149339
0.166878
0.180085
0.212663
0.277179
0.315643
0.294619
0.263724
0.306954
0.270511
0.272909
0.387545
0.304457
0.323646
0.378841
0.346144
0.404551
0.428448
0.437585
0.470389
0.513728
0.457924
0.530790
0.597845
0.489269
0.570916
0.582421
0.554833
0.555526
0.577631
0.469951
0.466837
0.465281
0.503947
0.485895
0.515236
0.448667
0.448253
0.405593
0.369919
0.334879
0.345672
0.325948
0.357904
0.232827
0.235994
0.298768
0.187676
0.130428
0.167835
0.123179
0.186569
0.173465
0.090970
0.220862
0.112794
0.078128
0.058856
0.166196
0.030141
0.023190
-0.002460
0.035949
0.048046
0.084260
0.045891
0.050893
-0.037324
0.020013
-0.032423
0.036301
0.065624
0.005197
0.038613
0.005001
0.033495
-0.067164
0.037396
0.000655
0.061300
-0.014553
0.032958
0.037821
-0.025483
0.023925
-0.059794
-0.005124
0.016979
0.015361
-0.024762
-0.045763
0.064025
-0.025364
0.079992
-0.014136
0.017772
-0.056463
0.056912
-0.053458
-0.037030
-0.005693
0.054898
-0.014723
-0.068902
0.003217
-0.027979
0.034394
-0.121862
-0.043145
0.017642
-0.009126
-0.080291
-0.037611
-0.007620
-0.034814
-0.089962
-0.027696
-0.023923
-0.043836
-0.027935
-0.050253
-0.025438
-0.050126
-0.034844
-0.011893
-0.019102
-0.013325
-0.062245
0.075464
0.041445
0.036430
0.021990
-0.050487
-0.035594
-0.034540
0.029419
-0.137529
-0.061031
0.027099
0.041389
0.037052
0.017332
0.033730
0.018772
0.039473
0.008886
0.109609
0.069780
0.145804
0.008118
0.123310
0.070390
0.025120
0.108587
0.028033
0.141160
0.174916
0.192975
0.135117
0.065240
0.098812
0.141447
0.168313
0.020578
0.079035
0.057076
0.088044
-0.012967
0.057715
0.072126
0.112455
0.055303
-0.003249
0.107531
-0.009207
-0.022131
-0.053596
-0.045585
-0.051857
-0.020997
-0.129543
-0.040886
-0.022591
0.027884
-0.038207
-0.038900
-0.013261
-0.090527
-0.038709
-0.134722
-0.107552
-0.049373
-0.136030
-0.160138
-0.070670
-0.071600
-0.053415
0.006759
0.157593
0.394238
0.715048
1.069658
1.294755
1.255771
1.180502
0.983332
0.605079
0.121801
-0.009492
-0.296108
-0.382897
-0.455466
-0.254737
-0.225619
-0.154162
-0.018040
-0.047406
-0.031245
-0.074786
-0.090437
-0.019475
-0.009602
-0.049001
-0.119193
-0.063195
-0.065266
-0.053255
-0.021038
-0.056220
-0.033945
-0.039159
-0.006506
-0.016053
0.007087
0.050779
-0.011042
0.072939
0.026808
0.101320
0.149477
0.152607
0.137025
0.163007
0.181731
0.147018
0.124992
0.281595
0.332724
0.281991
0.294505
0.225203
0.379680
0.314590
0.322842
0.359254
0.367437
0.388092
0.449304
0.448791
0.390546
0.406562
0.411743
0.443939
0.475996
0.374382
0.345293
0.493031
0.435621
0.328504
0.419417
0.405821
0.319287
0.277143
0.230673
0.285320
0.272206
0.221038
0.231864
0.175460
0.133876
0.259579
0.165053
0.154346
0.105542
0.121806
0.115910
0.012121
-0.024898
0.014005
-0.009603
-0.029362
0.025458
-0.052267
-0.089220
-0.054082
-0.056705
-0.091098
-0.029299
-0.034757
-0.093827
-0.026257
-0.091680
-0.018230
-0.131652
-0.017814
-0.046941
-0.063693
-0.083564
-0.023374
-0.203187
-0.068301
-0.149497
-0.159553
-0.174067
-0.048632
-0.140719
-0.052321
0.001911
-0.110178
-0.012646
-0.093674
-0.035538
-0.091964
-0.079662
-0.135870
-0.118637
-0.037289
-0.052227
-0.020451
-0.065468
-0.149923
0.017265
-0.003783
-0.081960
-0.057828
-0.047304
0.016096
-0.060244
-0.073325
-0.138933
-0.071593
-0.044747
-0.072222
-0.053128
-0.062429
-0.070859
-0.136802
-0.035393
-0.056811
-0.025731
-0.028556
-0.005566
-0.119660
-0.070775
-0.105415
-0.129940
-0.027224
-0.041333
-0.157697
-0.056078
-0.057522
0.000684
-0.022939
-0.121917
-0.008236
-0.049867
-0.028115
-0.010783
-0.041071
-0.014526
-0.027680
-0.064807
0.002701
-0.046676
0.015956
-0.035889
-0.023428
0.030674
0.059479
0.072639
0.031802
0.027099
0.111221
0.133557
0.006290
0.074357
0.113884
0.148876
0.130988
0.078179
0.033502
0.157688
0.119197
0.109961
0.123533
0.130646
0.014456
0.014671
0.132811
0.034413
0.091047
0.006637
0.009470
0.078322
0.025203
-0.028193
0.029636
-0.079856
-0.010272
-0.016923
0.031556
0.046190
-0.055198
0.036989
-0.016000
-0.047785
-0.004725
0.028947
0.071552
-0.065727
-0.078581
-0.083414
-0.051891
-0.016670
-0.053118
-0.118118
-0.015166
-0.008538
-0.100511
-0.071108
-0.083325
0.020239
0.143687
0.336602
0.657556
0.958180
1.268941
1.360211
1.281672
1.023847
0.825470
0.358818
0.141355
-0.136823
-0.239487
-0.314429
-0.183526
-0.146928
-0.075487
0.025119
-0.012939
0.039985
-0.039995
0.027175
-0.038755
-0.036814
-0.013268
-0.000364
-0.036519
0.031604
0.073600
0.013813
0.020278
0.074672
0.072690
-0.060085
0.064904
0.049460
0.088311
-0.029880
0.078121
0.097560
0.165482
0.193427
0.106773
0.255821
0.228892
0.165840
0.302024
0.227841
0.279293
0.230930
0.173337
0.335333
0.412098
0.436263
0.419525
0.469357
0.414148
0.426806
0.524459
0.434901
0.445433
0.508320
0.437194
0.532344
0.535671
0.550206
0.492826
0.556528
0.501137
0.533299
0.450453
0.540129
0.430083
0.502374
0.450712
0.356060
0.403597
0.353781
0.282057
0.356512
0.325202
0.254635
0.287191
0.246983
0.255795
0.172198
0.233000
0.231834
0.166491
0.173280
0.171728
0.132743
0.112520
0.103820
0.076115
0.119261
0.107128
0.089221
0.088228
-0.001806
-0.048812
0.073490
0.087600
0.067216
0.098400
0.033452
0.044603
0.088641
0.053773
0.011080
0.099176
-0.017535
-0.026229
0.062613
0.057713
0.009982
-0.039340
0.026573
0.022562
0.112474
0.065792
0.042863
0.055312
0.026597
-0.013538
0.046823
0.088083
0.003744
0.067237
0.034124
0.028076
0.039248
0.018782
0.015431
0.054620
0.099421
0.054748
-0.013267
0.060984
0.014193
0.046239
0.020596
0.016755
0.051440
0.020544
0.012147
0.040904
0.104373
0.028191
0.100048
-0.010090
0.095664
0.039562
0.067333
0.050528
0.045169
0.036712
0.038140
-0.018225
-0.020426
0.080693
0.030152
0.009473
0.108169
0.045639
0.013479
0.067904
0.060598
0.134882
0.054327
0.061584
0.028155
0.008505
0.082004
0.113725
0.064240
0.125357
0.115886
0.131689
0.122544
0.161011
0.106341
0.162736
0.174402
0.199566
0.255336
0.192218
0.222489
0.069861
0.150236
0.279660
0.184007
0.282984
0.131238
0.199841
0.217396
0.172999
0.185604
0.200185
0.142437
0.126737
0.159738
0.097771
0.089948
0.104449
0.136614
0.106966
0.126956
0.088829
0.090099
0.045489
0.121974
0.020393
0.094976
0.082337
0.048945
0.066220
0.062939
0.103203
0.021759
0.104815
0.085795
0.051623
-0.005277
0.077718
0.004350
0.008440
-0.040215
0.036307
0.087792
0.026362
0.085026
0.007786
0.042189
0.132820
0.292454
0.647198
1.005649
1.198076
1.408773
1.422472
1.187337
0.912451
0.576119
0.270953
0.000875
-0.192664
-0.199504
-0.211656
-0.119509
-0.093032
0.004203
0.034131
0.025976
0.084170
0.079967
0.089326
0.095271
0.077269
0.126402
0.035983
0.027904
0.131280
0.016875
0.059963
0.110625
0.104641
0.100829
0.045472
0.064761
0.148555
0.123135
0.157041
0.140764
0.090228
0.239695
0.234626
0.301526
0.215350
0.326269
0.307313
0.305002
0.210272
0.294764
0.391022
0.366588
0.326582
0.473170
0.430779
0.395004
0.469052
0.495721
0.522514
0.533644
0.602522
0.530365
0.532252
0.499146
0.600060
0.548534
0.478199
0.531605
0.454689
0.446909
0.492970
0.458730
0.480080
0.414275
0.395022
0.395958
0.399924
0.433952
0.372589
0.421388
0.357845
0.220307
0.256588
0.259808
0.161733
0.173361
0.237766
0.098535
0.203335
0.062789
0.232077
0.099163
0.061523
0.112295
0.086168
0.068425
0.037370
0.053168
0.005313
0.059325
0.060726
0.007148
0.022289
0.049216
-0.011917
0.118854
-0.054088
-0.000406
-0.096355
-0.013080
0.037422
-0.010876
0.011079
0.032836
-0.024759
-0.005273
0.005876
-0.031358
-0.004664
-0.006591
-0.003145
-0.005235
-0.039470
0.041961
0.037821
-0.013653
-0.010742
-0.024329
-0.034064
-0.071097
0.018646
-0.064010
-0.023009
0.048084
0.043480
-0.058489
-0.071007
0.021557
-0.005386
0.009765
-0.055377
-0.003245
-0.000857
-0.022178
-0.058685
-0.074846
0.078582
-0.026174
0.010179
0.009621
0.025131
-0.022152
-0.050527
0.008798
-0.132416
-0.052056
0.054950
0.022487
0.027003
-0.035188
0.013175
-0.045990
0.008996
0.062990
0.000804
-0.033283
-0.071411
-0.072908
-0.026896
-0.045639
-0.095513
0.032328
0.064153
0.005764
-0.017752
-0.051690
0.018611
-0.008857
0.010795
0.003303
0.023416
0.052075
0.000377
-0.017318
0.043432
0.071767
0.068904
0.082070
0.073856
0.057599
0.091362
0.077689
0.070898
0.096521
0.129141
0.067199
0.121119
0.105079
0.076688
0.090672
0.123118
0.097477
0.074368
0.059224
-0.083160
0.027885
0.020934
-0.000084
-0.049717
-0.033761
0.018738
0.022937
-0.023841
0.034605
-0.043806
-0.108228
0.001396
-0.076343
-0.082249
-0.140944
-0.028397
-0.076554
0.036682
-0.034174
-0.051861
-0.064564
-0.131043
-0.076058
0.043353
-0.137294
-0.142591
-0.098801
-0.160187
-0.089168
-0.021175
0.119297
0.412121
0.670726
1.015003
1.227215
1.280690
1.192774
0.960828
0.601374
0.345846
-0.021748
-0.164714
-0.257661
-0.388319
-0.326653
-0.222597
-0.099125
-0.154153
-0.118134
-0.104896
-0.053756
-0.034590
-0.112465
-0.108326
-0.029933
-0.116440
-0.004454
0.030250
-0.084951
-0.006523
-0.003031
-0.046496
-0.109259
0.017162
-0.000481
0.058144
0.011527
0.016919
0.055971
-0.009918
0.113216
0.081338
0.081255
0.065438
0.134301
0.101268
0.139892
0.227324
0.211657
0.199653
0.214494
0.287200
0.276814
0.330361
0.332329
0.334627
0.302454
0.378884
0.369738
0.342331
0.404966
0.428416
0.439399
0.429575
0.324002
0.387628
0.424755
0.494614
0.376013
0.404185
0.344334
0.360854
0.276060
0.293658
0.263673
0.264548
0.255464
0.222188
0.214889
0.229764
0.191882
0.193882
0.133040
0.122195
0.097978
0.080612
0.092214
0.050156
0.046247
0.050451
-0.001459
0.017353
-0.042796
0.049183
0.014908
-0.007092
0.042323
-0.103310
-0.028673
-0.109477
-0.131051
-0.037124
-0.057454
-0.046608
-0.140402
-0.025998
-0.019212
-0.059071
-0.074511
-0.131120
-0.093639
-0.162996
-0.100933
-0.068395
-0.150268
-0.050011
-0.136724
-0.025613
-0.053747
-0.111012
-0.047148
-0.104033
-0.100265
-0.100751
-0.173884
-0.034139
-0.059058
-0.121254
-0.131571
-0.038713
-0.044475
-0.141544
-0.053006
-0.134152
-0.090333
-0.105170
-0.099841
-0.175095
-0.043350
-0.083884
-0.060098
-0.102593
-0.067547
-0.130777
-0.106523
-0.112206
-0.095474
-0.104625
-0.068026
-0.115521
-0.147617
-0.176773
-0.065798
0.017878
-0.185227
-0.111558
-0.026859
-0.053319
-0.030879
-0.072840
-0.078949
-0.053288
-0.035042
-0.132123
-0.139655
-0.135201
-0.052963
-0.082335
-0.052913
-0.070954
-0.038677
-0.021366
-0.001870
-0.064220
-0.065608
-0.077077
-0.032272
-0.030404
-0.101243
0.002859
0.004778
-0.004161
0.021479
0.035465
0.047655
0.080358
0.026823
0.026606
0.100389
0.096523
0.063948
0.095306
0.060326
0.106716
0.023746
0.098261
0.090823
0.106701
-0.009425
-0.015986
0.129153
-0.020773
-0.005922
0.076561
-0.037587
-0.025456
0.025757
0.006229
0.057651
-0.046424
-0.009506
0.017560
-0.015926
-0.089223
-0.066355
-0.103721
-0.096395
-0.109350
-0.093241
-0.048633
-0.041825
-0.156685
-0.050830
-0.043433
-0.094846
0.001177
-0.064890
-0.046275
-0.138795
-0.033005
-0.053881
-0.175421
-0.079868
-0.027030
0.076059
0.236113
0.564736
0.960946
1.217760
1.298570
1.295036
1.101571
0.722653
0.357049
0.102935
-0.182595
-0.313073
-0.317981
-0.174570
-0.279788
-0.159076
-0.201763
-0.120506
-0.077267
-0.030306
0.015910
0.005027
-0.029161
-0.013504
-0.028276
-0.022272
0.018405
0.033422
0.007123
-0.012980
-0.007317
-0.012233
0.050931
-0.038039
0.040472
0.047212
0.034524
0.169956
0.020306
0.150232
0.118006
0.128205
0.174034
0.193677
0.267319
0.220699
0.160150
0.261463
0.240148
0.316877
0.253358
0.249362
0.349626
0.392353
0.440163
0.459088
0.373141
0.409286
0.508857
0.463513
0.481197
0.520730
0.493913
0.484959
0.465365
0.428663
0.509055
0.399899
0.432294
0.388257
0.365831
0.388465
0.409232
0.295728
0.302392
0.319722
0.328586
0.298748
0.306954
0.272399
0.240482
0.235634
0.181131
0.212551
0.139458
0.185358
0.144130
0.136783
0.077872
0.109695
0.069928
0.088677
0.064598
0.119971
0.065456
0.045874
0.101469
0.040812
0.072465
0.003118
0.118399
0.016553
0.019297
0.056028
-0.035330
-0.000249
0.027886
-0.019821
0.015092
0.032682
-0.007503
0.030786
0.036637
0.085105
0.069146
-0.043647
0.007074
-0.046467
0.037306
0.090763
-0.031503
0.000127
0.007566
0.062919
-0.093678
-0.000096
0.031865
0.019897
0.015913
0.001646
0.021942
0.020175
-0.052001
0.084414
0.069559
-0.033253
-0.002293
0.048744
0.099397
0.046286
-0.004286
-0.023951
0.010779
-0.011110
0.023166
0.072669
0.031494
-0.014517
0.012357
0.059016
0.084135
-0.013127
0.049983
0.040342
0.037324
0.066256
-0.030934
0.027931
0.023212
0.058212
0.052534
0.129887
0.073233
0.006007
0.015716
0.000328
0.089198
-0.032142
0.049036
0.054610
0.015987
0.056342
0.045495
0.045149
0.123473
0.060075
-0.017456
0.054740
0.085646
0.084477
0.149893
0.138287
0.157449
0.106741
0.192646
0.229471
0.176836
0.145058
0.187854
0.222747
0.179561
0.318441
0.207751
0.236800
0.244712
0.214972
0.244211
0.239418
0.201223
0.163639
0.277220
0.165278
0.066332
0.215430
0.192236
0.108194
0.155446
0.127573
0.081002
0.091474
-0.007185
0.066144
0.060946
0.071973
0.161265
0.079001
0.125653
0.100304
0.062644
0.105533
0.003524
0.071203
0.044982
0.059067
0.098655
0.013806
0.062404
0.047003
0.081938
0.080369
-0.003876
0.014846
0.009008
0.163057
0.272810
0.558132
0.973085
1.200331
1.406962
1.422632
1.270994
0.959380
0.632727
0.291936
0.019353
-0.140100
-0.228222
-0.209287
-0.174167
-0.096512
0.004916
0.010270
0.073620
0.115487
0.076935
0.058183
0.039197
0.083011
0.052114
0.097628
0.103622
0.093966
0.151212
0.141990
0.060979
0.101459
0.114923
0.180015
0.213854
0.121707
0.112052
0.199690
0.169378
0.162385
0.206279
0.199124
0.250013
0.233619
0.216221
0.371011
0.347730
0.375380
0.356949
0.361186
0.448736
0.491944
0.430654
0.468964
0.455415
0.402960
0.586214
0.504254
0.550051
0.560534
0.485924
0.555430
0.616700
0.577261
0.529578
0.599180
0.596770
