0.021681
0.072407
0.025392
0.026432
-0.077293
0.029542
0.027884
-0.020838
0.009689
0.025737
-0.037083
-0.017125
-0.021239
-0.018944
-0.096014
0.008813
0.050307
-0.007579
-0.007792
0.057524
-0.086981
0.015117
-0.018393
0.101061
0.096100
0.072291
0.092802
-0.040166
0.014333
-0.050046
0.082598
-0.003837
0.094008
0.057327
0.034600
0.079655
0.082441
0.054621
0.095669
0.134386
0.126458
0.103603
0.170915
0.082116
0.096540
0.153378
0.189615
0.068404
0.200495
0.135190
0.201729
0.177778
0.259234
0.195533
0.204335
0.204149
0.285345
0.174578
0.197294
0.141206
0.085657
0.218525
0.174049
0.200663
0.141169
0.034257
0.056866
0.081258
0.104918
0.119848
0.157687
0.038100
0.040808
0.060019
0.027328
0.029958
0.080211
0.068792
0.074862
0.118486
-0.060143
0.006006
0.025037
0.106892
0.081599
0.003563
0.044556
0.104383
0.019968
0.107081
0.139871
0.100129
0.018198
0.113839
0.061287
0.022541
-0.064086
0.004265
-0.042497
0.049663
0.180362
0.347494
0.662307
1.054197
1.374710
1.497789
1.418866
1.355646
0.982997
0.670312
0.326598
0.084710
-0.178560
-0.210995
-0.310814
-0.210726
-0.066593
0.018271
-0.020086
0.055336
0.044362
0.103269
0.039481
0.079785
0.030503
0.095230
0.097506
0.055325
0.063392
0.064396
-0.019505
0.116866
-0.016943
0.064444
0.101715
0.112602
0.087624
0.128741
0.202598
0.148563
0.173228
0.163190
0.064431
0.246162
0.215148
0.227429
0.236014
0.216993
0.299042
0.350825
0.342055
0.273065
0.341932
0.365843
0.381515
0.436836
0.416034
0.462769
0.460565
0.468574
0.446197
0.438507
0.466000
0.480539
0.603929
0.558964
0.586687
0.518401
0.536181
0.648738
0.554487
0.567683
0.567762
0.629327
0.544845
0.500616
0.502994
0.575519
0.594563
0.523704
0.574675
0.489726
0.395223
0.438785
0.443378
0.373233
0.384720
0.391715
0.353383
0.385272
0.358942
0.292136
0.250875
0.215230
0.305247
0.206750
0.240970
0.204536
0.149286
0.259235
0.146362
0.104944
0.163342
0.073717
0.115539
0.182201
0.125851
0.076617
0.098606
0.109781
0.069223
0.123304
0.184901
0.070064
0.059554
0.153792
0.167875
0.119839
0.169177
0.110947
0.176782
0.080154
0.139340
-0.011306
0.092753
0.011318
0.100518
0.132945
0.069053
0.080326
0.113825
0.015360
0.027209
0.069191
0.037435
0.100771
0.152277
0.110277
0.064207
-0.035164
0.097205
0.077231
0.083765
0.093500
0.079437
0.162104
0.089506
0.102178
0.171077
0.092651
0.108285
0.052914
0.100635
0.037179
0.063764
0.059877
0.036051
0.119611
0.055481
0.097876
-0.007663
0.040902
0.145647
0.017984
0.040168
0.028799
0.119257
0.139272
0.046280
0.088986
0.087969
0.077860
0.061190
-0.042784
0.013042
0.013072
0.117514
0.036351
0.138495
0.062345
0.098558
0.093122
0.038845
0.007829
0.028312
0.048302
0.064296
0.009941
0.177377
0.105036
0.068635
0.046410
0.129826
0.177423
0.043303
0.040408
0.050365
0.071464
0.126353
0.183929
0.132423
0.063033
0.122258
0.192240
0.149355
0.178364
0.115364
0.155815
0.195346
0.149382
0.279528
0.208908
0.203582
0.269714
0.208464
0.216308
0.275246
0.228773
0.168434
0.260459
0.264417
0.159079
0.182438
0.214203
0.194108
0.168686
0.209147
0.164432
0.194229
0.147120
0.113930
-0.020532
0.096812
0.048836
0.121813
0.065873
-0.001834
0.026838
0.039203
0.032582
0.079755
0.020680
0.049151
0.082460
0.071310
-0.057412
0.036872
0.017110
0.054492
0.080992
-0.003983
0.052943
-0.041458
0.128165
0.066945
0.051995
-0.005549
0.000323
-0.077309
0.017907
-0.022657
-0.024059
-0.056230
0.132582
0.337511
0.628465
0.948543
1.293704
1.477939
1.391659
1.252625
1.014281
0.617177
0.337695
-0.011950
-0.180074
-0.233291
-0.370842
-0.214568
-0.189227
-0.122511
-0.025888
-0.028324
0.027105
0.067650
-0.007879
0.025591
0.038719
0.045354
-0.026135
0.076090
0.128226
0.056426
0.039694
0.057231
-0.029199
0.088420
0.072440
0.016789
0.014204
0.056328
0.080666
0.069130
0.042315
0.079928
0.153423
0.093804
0.121124
0.108719
0.192134
0.102319
0.198736
0.132130
0.191777
0.217645
0.270778
0.219841
0.182170
0.292127
0.305288
0.354065
0.337092
0.433673
0.342923
0.407057
0.357669
0.452135
0.505460
0.476431
0.394565
0.501124
0.447339
0.516074
0.475775
0.450097
0.543297
0.487184
0.531506
0.437154
0.535436
0.468608
0.452244
0.497775
0.377730
0.394105
0.392048
0.317216
0.275449
0.353689
0.301367
0.325200
0.175261
0.293840
0.228595
0.168211
0.142856
0.193082
0.102109
0.013270
0.165285
0.193282
0.126796
0.045072
0.142090
0.011236
0.120049
-0.070361
-0.065522
0.092150
0.091443
0.078288
0.038319
-0.019564
0.038608
0.024715
0.013554
-0.055040
-0.049615
-0.044745
0.045838
0.004934
0.033241
-0.023728
-0.052965
-0.001565
-0.052858
-0.026922
-0.048489
-0.027095
0.048224
0.031011
0.025554
-0.014633
-0.006369
-0.052495
-0.006962
-0.037146
0.036862
0.043479
-0.033378
-0.019340
0.038770
-0.121067
-0.089677
0.012165
-0.024934
-0.003707
-0.053921
-0.060932
-0.039785
-0.082238
-0.011998
-0.029227
-0.102086
-0.118168
-0.108508
-0.063019
-0.087238
-0.014940
0.034562
-0.071389
-0.070480
-0.034465
-0.153447
0.011282
-0.009339
-0.104029
-0.048073
0.010085
-0.001670
-0.044763
-0.024666
-0.049215
-0.074105
-0.066634
-0.096696
-0.102027
0.066137
-0.081500
0.001117
-0.088512
0.003690
-0.093477
0.010668
-0.161782
-0.073601
-0.093770
-0.084970
0.009280
-0.029258
-0.101067
-0.014951
-0.024118
-0.021437
-0.097790
-0.063399
-0.028334
-0.004799
0.028302
-0.066761
0.069938
-0.043872
-0.005786
-0.016086
0.037567
0.047760
0.066141
0.094539
0.027831
0.052590
0.078030
0.047905
0.148374
0.039171
0.093387
0.198862
0.192271
0.115427
0.097870
0.111152
0.214973
0.103317
0.108123
0.129540
0.148455
0.122444
0.051083
0.058899
0.121998
0.055944
0.042117
0.037390
0.111518
-0.022576
0.042095
-0.023590
-0.013543
0.021368
-0.048877
-0.116458
0.024010
-0.095798
-0.034379
-0.023985
0.022246
-0.014632
-0.073701
-0.001523
-0.014771
-0.065157
-0.087279
-0.029092
-0.012260
-0.102374
-0.092854
-0.020467
-0.014971
0.013194
-0.037494
-0.067985
0.035336
0.002998
-0.105339
-0.176408
-0.163936
-0.053703
-0.007106
0.277531
0.479629
0.827948
1.215967
1.353453
1.332553
1.200240
1.006588
0.670133
0.273604
0.079895
-0.243334
-0.333081
-0.397316
-0.366404
-0.308781
-0.138103
-0.099203
0.054510
0.054509
-0.095176
0.038258
0.057416
0.029411
-0.081465
0.013059
0.063791
-0.055897
-0.055630
-0.031265
-0.078140
0.015978
0.034917
0.057797
-0.076544
-0.034819
0.034387
0.004563
0.051984
0.052876
0.098010
-0.011614
0.165295
-0.002985
0.200983
0.091497
0.103210
0.131348
0.192746
0.165350
0.131656
0.153178
0.251463
0.273739
0.307068
0.377582
0.265317
0.431022
0.379893
0.374057
0.385902
0.371106
0.466983
0.415286
0.430243
0.478895
0.442242
0.475851
0.495088
0.528769
0.460137
0.546944
0.496647
0.542349
0.436463
0.533465
0.485604
0.405346
0.370858
0.379775
0.330329
0.375259
0.409422
0.413509
0.374393
0.326184
0.260222
0.320201
0.239777
0.277401
0.267855
0.247250
0.202050
0.172210
0.186025
0.182539
0.174339
0.065590
0.154769
0.070156
0.112798
0.038456
0.063251
0.040970
0.075846
0.005002
0.066779
0.039495
0.016511
0.093374
0.070943
0.000291
0.011862
-0.011794
0.005387
0.029624
0.069577
0.037079
0.031915
0.071464
0.022854
-0.012667
0.042784
0.010960
-0.028872
0.049677
0.053212
-0.032248
0.008880
0.055105
-0.027991
0.021698
0.071597
-0.060066
-0.002945
0.029053
0.064121
-0.046661
0.016206
0.021718
0.065601
0.082353
0.070036
0.015972
0.057349
0.121968
-0.042591
0.032089
0.037095
0.121447
0.037468
0.060490
0.072543
-0.027090
-0.051473
0.047991
0.098496
0.039617
0.063135
-0.047038
0.068774
0.028386
0.049237
0.056098
0.087169
0.004731
0.065202
0.106988
-0.037833
0.056018
0.036777
0.048934
0.114221
0.083938
0.119431
0.116053
0.032727
0.061482
0.055692
0.077100
-0.034463
0.155369
0.022221
0.073543
0.154134
0.117377
0.063093
0.061955
0.049768
0.020627
0.032291
0.189793
0.043878
0.143096
0.011687
0.076750
0.080024
0.077566
0.089942
0.137091
0.068166
0.133990
0.102688
0.083741
0.138602
0.126967
0.235636
0.222698
0.209386
0.268534
0.329527
0.234059
0.246442
0.269824
0.218306
0.322294
0.221126
0.290876
0.265070
0.270727
0.308987
0.244096
0.182850
0.166301
0.172491
0.251747
0.252898
0.188229
0.170567
0.119406
0.167157
0.119354
0.081190
0.142939
0.130169
0.066832
0.121456
0.050648
0.077660
0.044099
0.046590
0.010215
0.120645
0.064981
0.095767
0.078862
0.044486
0.122042
0.149393
0.073626
0.100059
0.110033
0.138869
0.119094
0.067366
0.079902
0.090111
0.150218
0.059918
0.033687
-0.024343
0.061807
0.018981
0.382166
0.525799
0.817086
1.199088
1.393047
1.481351
1.368987
1.113300
0.829813
0.488658
0.220375
-0.073961
-0.220351
-0.251204
-0.215098
-0.117606
-0.092801
0.014322
0.007431
0.088478
0.094013
0.072112
0.057971
0.122205
0.092306
0.143941
0.085014
0.100056
0.172115
0.130549
0.119291
0.074756
0.077830
0.064315
0.136711
0.150792
0.098395
0.074600
0.136277
0.266226
0.185053
0.168983
0.154482
0.193206
0.135239
0.139597
0.184886
0.248412
0.258975
0.254240
0.343688
0.320943
0.387688
0.341216
0.418978
0.367441
0.338725
0.467741
0.466157
0.462191
0.506209
0.489228
0.480229
0.606002
0.632368
0.513303
0.559881
0.567719
0.581799
0.538555
0.596580
0.559165
0.563420
0.650138
0.609038
0.465495
0.518948
0.538334
0.564022
0.473026
0.403933
0.498977
0.454849
0.400103
0.434463
0.400459
0.431283
0.300158
0.396944
0.336020
0.374466
0.295082
0.371221
0.140818
0.302322
0.223377
0.252232
0.113948
0.178630
0.196897
0.192228
0.217503
0.169477
0.123953
0.136329
0.067848
0.164511
0.159987
0.099013
0.096143
0.058702
0.083717
0.096001
0.123968
0.066525
0.074762
0.108865
0.095670
0.114953
0.085286
0.034647
0.032595
0.053952
0.049375
0.098237
0.042353
0.068071
0.050633
0.028408
0.075059
0.107594
0.009874
0.102907
0.057801
0.134508
0.020580
0.074951
0.082774
0.107400
0.070094
0.067355
0.062793
0.010942
0.066634
0.048930
0.095508
0.115109
0.078286
0.073760
0.042902
0.066139
0.163757
0.149939
0.032147
0.128812
0.120458
0.080864
0.057153
0.071853
0.068517
0.044598
0.022687
0.082053
0.063540
0.010200
0.066912
0.031634
0.032853
0.049234
0.089067
0.039595
0.125597
0.145679
0.047069
0.016652
0.031969
0.057253
0.149976
0.073705
-0.014336
0.105723
0.030875
0.054261
0.108300
0.065914
0.086411
0.013442
0.135594
0.071671
0.068934
0.075039
0.130945
-0.005244
0.116732
0.008650
0.105933
0.041022
-0.040746
0.180671
0.083332
0.056059
0.078125
0.038900
0.140779
0.104755
0.096787
0.165370
0.134230
0.115761
0.119206
0.149634
0.297073
0.116712
0.235413
0.131552
0.267721
0.175041
0.064273
0.254372
0.210052
0.202045
0.182116
0.205490
0.214126
0.178215
0.074837
0.101465
0.105295
0.126810
0.016096
0.126653
0.072972
0.065662
0.066824
0.021853
0.040181
0.044820
-0.029541
-0.038108
0.066969
0.063427
0.010271
0.134869
-0.024657
0.005010
0.034193
0.057403
0.008049
-0.023065
0.074902
0.036129
0.003490
0.028898
0.030318
-0.056019
-0.042107
0.048813
0.018882
-0.029627
-0.077315
-0.111064
-0.098041
0.008007
0.138571
0.448864
0.757667
1.066395
1.269504
1.368897
1.427708
1.135839
0.770450
0.486769
0.116719
-0.121482
-0.182106
-0.339941
-0.383201
-0.255922
-0.186092
-0.074733
-0.046450
-0.022609
0.057744
-0.003479
0.039914
0.064940
-0.041673
0.011668
-0.068066
0.000942
-0.003426
-0.006985
0.063584
-0.000788
0.025898
-0.041031
0.001108
0.080839
-0.020413
-0.040503
0.088891
-0.016053
-0.011288
0.027153
0.045442
0.054491
-0.027728
0.056606
0.056045
0.088113
0.139384
0.152923
0.160342
0.276964
0.168800
0.295222
0.274328
0.304673
0.384940
0.297427
0.317790
0.319505
0.379535
0.360661
0.387132
0.437301
0.428728
0.383532
0.402000
0.432446
0.455361
0.516876
0.503878
0.336008
0.519509
0.388275
0.423721
0.424604
0.494932
0.408155
0.411278
0.402921
0.350833
0.371802
0.396580
0.340512
0.202024
0.152727
0.306345
0.327116
0.177875
0.161005
0.140501
0.121521
0.164593
0.102036
0.100092
0.028873
0.016077
0.069283
0.007086
0.044398
-0.038369
0.029371
-0.036190
0.048090
-0.024662
-0.088687
-0.062077
-0.082086
-0.069706
-0.101925
-0.074468
-0.069314
-0.178671
-0.042781
-0.073227
-0.036687
-0.064351
-0.042260
-0.119884
-0.092159
-0.088474
0.050724
-0.077997
-0.019524
-0.026729
-0.107383
-0.111522
0.012278
-0.134902
-0.050406
-0.132266
-0.126365
-0.045479
-0.089336
-0.137201
-0.104722
-0.045067
-0.141820
-0.021213
-0.082873
-0.073437
-0.021000
0.011283
-0.112283
-0.043031
-0.102861
-0.058625
-0.022971
0.000044
-0.037286
-0.003023
-0.077503
-0.125945
-0.037602
-0.081536
-0.061246
-0.033943
-0.101936
-0.101945
-0.046793
-0.119848
-0.072955
-0.110735
-0.040119
-0.091541
-0.096875
-0.070541
-0.091485
-0.065549
-0.079332
-0.007028
-0.114233
-0.083471
-0.034696
-0.087518
-0.043002
-0.014963
-0.124358
0.008989
-0.089098
-0.117714
-0.093438
-0.205513
-0.075309
-0.140430
-0.059719
-0.065511
-0.016798
-0.060275
-0.132102
-0.114046
-0.111254
-0.056912
-0.040566
-0.048066
-0.022865
-0.066257
-0.015300
-0.028130
-0.016862
-0.087907
-0.019442
-0.037403
-0.035499
-0.028092
0.038954
-0.007040
0.058533
0.039958
0.131888
-0.008718
0.042842
0.107915
0.106687
0.107074
0.114389
0.095029
0.144875
0.110304
0.013950
0.062645
0.074095
0.068013
0.014488
0.014110
-0.062065
0.072275
0.013314
-0.003910
-0.078843
0.046350
-0.008140
0.008315
-0.110587
-0.060350
-0.130911
-0.104054
-0.096960
0.016040
-0.094213
-0.057527
-0.089706
-0.096442
-0.044224
-0.043886
-0.138825
-0.070165
-0.041275
-0.079111
-0.052552
-0.061470
-0.078544
-0.037632
-0.087425
-0.109550
-0.104081
-0.000565
-0.121343
-0.105329
-0.090212
-0.149008
-0.097776
-0.077543
0.085730
0.270891
0.688520
1.058749
1.224979
1.381676
1.274402
1.018674
0.798859
0.448646
0.148816
-0.052894
-0.341533
-0.391378
-0.409436
-0.223785
-0.290161
-0.220530
-0.090323
-0.084162
-0.077555
-0.129200
-0.016086
-0.149316
-0.021289
-0.023233
-0.053218
-0.015855
-0.053483
-0.070877
-0.077611
-0.056702
-0.054713
-0.085428
-0.088294
0.019217
0.007137
-0.006506
-0.057421
-0.083107
0.096608
0.031158
0.009386
0.005787
0.083162
0.073205
0.109969
0.093411
0.113012
0.173984
0.146140
0.156029
0.177987
0.303045
0.226434
0.226982
0.269907
0.230306
0.284455
0.279914
0.464543
0.389766
0.413249
0.337849
0.455251
0.469568
0.413333
0.460096
0.488231
0.502181
0.548191
0.484736
0.468111
0.425333
0.340774
0.491332
0.481474
0.465309
0.429616
0.412927
0.334119
0.374240
0.348787
0.292111
0.289205
0.345360
0.350821
0.278354
0.284598
0.207879
0.148326
0.180879
0.123701
0.182575
0.147989
0.110798
0.073651
0.174382
-0.009875
0.027893
0.072246
0.072515
0.014117
0.027691
-0.067244
-0.017993
-0.112259
-0.009891
0.031971
-0.028387
0.131170
0.136990
0.033045
-0.047036
-0.022699
-0.035560
0.033370
-0.067171
-0.044384
-0.059757
0.009706
-0.079175
0.052757
-0.086297
-0.132162
0.002774
-0.033407
-0.020315
0.012201
0.031947
-0.027517
0.060320
-0.129359
-0.078605
0.059035
0.054772
-0.035129
0.099702
-0.063398
0.077909
0.005007
0.033862
-0.047495
-0.016377
0.036915
-0.048995
-0.070982
0.001432
0.012576
-0.023751
-0.000941
0.033386
-0.081637
0.092529
0.031541
0.052765
0.005065
-0.030144
-0.097843
-0.015672
0.031535
-0.015101
0.004916
0.020472
-0.037900
0.018940
-0.012686
-0.040019
0.116307
0.010876
-0.016080
0.075411
0.100488
-0.027074
0.089653
-0.029034
0.052694
-0.028029
0.138228
-0.005661
0.085531
-0.058997
0.054715
0.003326
0.011807
0.023056
0.065860
-0.016759
0.032586
0.099577
-0.039117
0.111900
0.070557
0.117282
-0.012933
0.057891
0.072475
0.055004
0.067972
0.060771
0.028356
0.090027
0.055155
0.169571
0.175456
0.146383
0.090631
0.173774
0.149782
0.213652
0.180340
0.149736
0.163588
0.214878
0.143139
0.259451
0.268231
0.268128
0.210920
0.194744
0.207891
0.119685
0.189664
0.158483
0.102125
0.170739
0.146671
0.181162
0.137640
0.143613
0.111993
0.119435
0.098525
0.030628
0.046257
0.131227
0.136731
0.030004
0.067278
0.046816
0.016101
-0.035287
0.044929
-0.026234
0.086346
0.082993
0.085471
0.117320
0.077849
0.048725
0.021915
0.069713
0.060369
0.016493
-0.038194
0.052198
0.108341
0.056929
-0.026548
-0.041671
-0.066725
-0.040768
0.000366
0.120993
0.381581
0.654433
0.998104
1.290618
1.500000
1.399133
1.304667
0.870060
0.581916
0.319779
0.017987
-0.134126
-0.201433
-0.222284
-0.228560
-0.163399
-0.026749
-0.099904
0.079062
0.103420
0.035021
0.095926
0.016316
-0.004284
-0.012000
0.047384
0.061250
0.010941
0.095199
0.112506
0.083121
-0.018509
0.015200
0.086565
0.051177
0.068995
0.036828
0.082310
0.125185
0.147189
0.096379
0.135594
0.235051
0.102644
0.196177
0.208850
0.164459
0.220102
0.238244
0.236927
0.272809
0.323746
0.251274
0.303220
0.309619
0.340508
0.370256
0.444655
0.455658
0.435945
0.449480
0.469462
0.519429
0.491631
0.539877
0.493918
0.580254
0.537574
0.596461
0.526396
0.617836
0.634512
0.530975
0.569583
0.585162
0.520093
0.562432
0.507329
0.537445
0.473588
0.505884
0.449496
0.462505
0.367195
0.382545
0.377381
0.229684
0.351623
0.374101
0.250228
0.236379
0.194079
0.207730
0.252701
0.148498
0.170292
0.264868
0.151124
0.076881
0.171037
0.090370
0.148718
0.050026
0.070701
0.041077
0.041902
0.082537
0.115651
-0.082229
0.049034
0.063895
-0.015883
0.008947
0.006433
0.044215
0.018906
0.011679
0.026747
0.032412
-0.037384
0.014111
-0.038668
0.028769
-0.013004
0.033947
-0.074768
0.011724
0.056949
0.005417
-0.006174
0.021297
-0.045978
0.057025
-0.020861
-0.033384
0.017203
-0.010835
-0.009705
0.039992
-0.060087
0.059164
0.054518
-0.052747
0.005824
-0.008705
0.008743
0.063189
0.012071
-0.055940
0.131533
-0.014524
-0.012789
-0.061424
0.060345
-0.015491
-0.069489
0.064047
0.037231
0.008424
0.012763
0.007248
0.071857
0.016674
-0.048924
-0.032321
0.045623
-0.012026
-0.014490
0.070814
0.032690
0.002990
-0.046601
0.018196
-0.043592
-0.058444
0.012830
-0.052804
-0.025877
0.035549
-0.014300
0.012640
0.042234
-0.066939
0.068477
0.072226
-0.042485
0.040666
0.069537
0.045786
-0.076323
0.046218
0.058355
-0.054256
-0.037088
0.001825
-0.043204
0.025650
-0.103050
0.020886
0.126196
0.067514
0.059498
-0.009600
0.058378
0.046532
0.081045
0.133778
0.222301
0.125540
0.174751
0.155904
0.123261
0.094989
0.164628
0.215560
0.202887
0.206423
0.099177
0.196881
0.150428
0.059764
0.061194
0.193540
0.073070
0.076003
0.053852
0.051491
0.014182
0.055558
0.003782
0.017738
0.009200
0.048459
-0.036146
-0.045232
0.032074
-0.040990
-0.106709
-0.032958
-0.116586
-0.048654
-0.074299
-0.038572
-0.016381
-0.071073
0.001638
-0.008980
-0.031190
-0.074846
-0.054448
0.007952
-0.083484
-0.037336
-0.112662
0.000220
-0.063089
-0.010035
-0.165624
-0.075690
-0.170563
-0.113057
-0.050825
-0.030173
0.258704
0.571536
0.870300
1.074877
1.418956
1.324822
1.201790
0.882948
0.539269
0.187983
-0.104319
-0.273106
-0.353764
-0.421509
-0.429001
-0.247412
-0.217283
-0.112281
-0.111679
-0.087773
-0.025446
-0.045263
-0.044929
-0.076386
-0.079948
-0.013058
-0.065802
-0.020612
-0.073885
-0.107601
-0.055748
-0.002660
-0.060703
0.047517
0.004437
0.069828
0.041205
-0.105732
-0.035435
-0.053763
0.045748
0.018324
0.049258
-0.038330
0.036504
-0.008761
0.023163
0.006299
0.143716
0.075376
0.128135
0.189636
0.174502
0.115758
0.168842
0.283643
0.233604
0.188821
0.370825
0.284543
0.384988
0.384544
0.357925
0.328496
0.372642
0.353121
0.345718
0.360071
0.388105
0.371885
0.455607
0.385694
0.342967
0.426006
0.466441
0.378801
0.407566
0.371592
0.394591
0.390108
0.319671
0.291293
0.286762
0.265506
0.278228
0.229643
0.172822
0.146187
0.195733
0.195755
0.135597
0.145068
0.093014
0.007637
0.036021
0.026465
0.072791
-0.021041
-0.081186
-0.080736
0.002971
-0.006348
-0.063750
-0.035687
-0.060412
-0.039863
0.008555
-0.076298
-0.064555
-0.074059
-0.097315
-0.005276
-0.015490
-0.023721
-0.050898
-0.108351
-0.065143
-0.137953
-0.095044
-0.141245
-0.058663
-0.092837
-0.075210
-0.157472
-0.133595
-0.075501
-0.126440
-0.075991
-0.058156
-0.134900
-0.109674
-0.065266
-0.057906
-0.077027
-0.141717
-0.024371
-0.053162
-0.144068
-0.150880
-0.120896
-0.115892
-0.118442
-0.115879
-0.125276
-0.111814
-0.101852
-0.126030
-0.109985
-0.142654
-0.165736
-0.088739
-0.075797
-0.128907
-0.057464
-0.070190
-0.024712
-0.093943
-0.149854
-0.029451
-0.097468
-0.027220
-0.086607
-0.103668
-0.092642
-0.112108
-0.141852
-0.142321
-0.086527
-0.119772
-0.120806
-0.102777
-0.116705
-0.052296
-0.077856
-0.078917
-0.104805
-0.045423
-0.085865
-0.098085
-0.046180
-0.092003
-0.036569
-0.044215
-0.121940
-0.142382
-0.113517
-0.031908
-0.100745
-0.140700
-0.059389
-0.150483
-0.110636
-0.177772
-0.039656
-0.028255
0.007386
-0.036217
-0.068060
0.054723
-0.048515
-0.086020
0.016048
0.037614
-0.010175
-0.072900
-0.037216
0.007943
0.024389
0.148751
0.061188
0.103181
0.124268
0.099459
0.050045
0.047954
0.119098
0.154308
0.092042
0.117364
0.134629
0.156385
0.092868
0.033145
0.126677
0.028625
0.015244
0.011180
-0.107200
-0.029357
-0.028131
0.057819
-0.010115
-0.082162
0.005483
-0.016231
-0.044709
-0.076340
0.057107
-0.044152
-0.043665
-0.063731
-0.109252
-0.056636
-0.099926
-0.098372
-0.149779
-0.095963
-0.030273
-0.053414
-0.064199
-0.056111
-0.110291
-0.120835
-0.120935
-0.017149
0.011504
-0.123478
-0.039867
-0.089407
-0.172117
-0.111232
-0.081157
0.016082
0.131324
0.524435
0.839766
1.120996
1.338922
1.443066
1.253215
0.984921
0.628773
0.335204
0.029716
-0.288485
-0.346661
-0.390619
-0.308688
-0.222509
-0.164595
-0.131500
-0.091823
-0.053046
-0.063478
-0.042252
-0.031073
-0.050951
-0.044042
-0.008144
-0.043272
-0.021117
-0.017731
-0.099116
-0.037389
0.019766
-0.001449
0.013897
-0.000718
-0.007995
0.039994
0.006119
-0.049942
0.050897
0.056649
-0.008416
0.068996
0.066288
0.094862
0.083811
0.085276
0.153230
0.159391
0.150148
0.233424
0.159333
0.144247
0.201790
0.235498
0.288783
0.301745
0.232170
0.383340
0.352571
0.403045
0.346591
0.459215
0.517965
0.450224
0.497945
0.491846
0.518482
0.425554
0.521185
0.517268
0.550676
0.503983
0.500787
0.476716
0.485834
0.490261
0.506031
0.456838
0.400433
0.439510
0.384954
0.398358
0.377005
0.308002
0.251855
0.309103
0.258521
0.319011
0.234423
0.220373
0.211823
0.227417
0.136968
0.148351
0.181575
0.073660
0.160116
0.108154
0.145332
0.030709
0.093077
0.151087
0.141812
0.022308
0.050664
0.076125
0.085820
0.073205
0.014342
0.083100
0.061860
0.020918
0.002895
-0.006689
-0.066872
0.039691
0.125567
0.057719
0.045243
-0.029465
0.055401
0.093825
-0.006146
-0.063886
0.105933
0.073473
0.049111
0.062897
0.084945
0.071400
0.166006
0.025944
-0.078003
0.018822
-0.002430
-0.016562
0.072959
-0.005121
0.055775
0.119059
0.046835
0.038082
0.062915
0.021274
0.001299
-0.013173
0.026839
0.026509
-0.014296
-0.059250
-0.036731
-0.037575
0.035426
0.072284
-0.010054
0.071654
0.016707
0.057057
0.010467
0.022036
0.071444
-0.021803
0.092564
0.005213
0.050108
0.039172
0.048804
0.122136
0.108444
0.073295
0.099526
0.020023
-0.054535
0.049275
0.048645
0.030532
-0.006861
0.074640
0.069814
0.084399
0.088640
0.044022
0.124558
0.061581
0.036187
0.151928
0.120721
-0.042987
0.076632
0.066856
0.111115
0.104843
0.060770
0.064485
0.114706
0.023356
0.058458
0.111153
0.114102
0.174803
0.059353
0.062552
0.161292
0.165604
0.171162
0.196410
0.161634
0.191757
0.231196
0.258590
0.244979
0.267669
0.258979
0.187259
0.250989
0.230817
0.195769
0.260654
0.232080
0.194173
0.225532
0.141494
0.226775
0.171990
0.125572
0.207938
0.136693
0.159992
0.161052
0.136162
0.076113
0.051275
0.076013
0.107296
0.072920
0.078195
0.038598
0.098042
0.116060
0.067430
0.071940
0.121981
0.115632
0.026976
0.090289
0.025190
0.081211
-0.007125
0.135148
0.074177
0.083509
0.043622
-0.032321
0.080531
0.016615
0.061720
0.066887
0.071642
-0.036265
0.007836
-0.012707
0.039617
0.373550
0.617736
0.866821
1.093678
1.430664
1.443807
1.364538
1.183907
0.815051
0.475030
0.095896
-0.043251
-0.193863
-0.252215
-0.194684
-0.119219
-0.040202
-0.057418
0.009447
-0.004050
0.038830
0.070410
0.043476
-0.004446
0.039604
0.098137
0.005802
0.045519
0.055924
0.063376
0.127539
