-0.035547
0.016451
-0.034505
0.048525
-0.041647
0.015531
0.068201
-0.043832
0.029835
-0.022466
-0.011724
0.013164
-0.048215
0.009681
0.022864
0.008162
0.054234
0.079214
0.032597
0.026445
0.068552
0.059470
0.001173
0.018239
-0.016760
0.127143
0.061912
0.066725
0.103201
0.067381
0.122222
0.083761
-0.011305
0.084821
0.121765
0.133178
0.065684
0.126543
0.091247
0.146265
0.154011
0.159516
0.191395
0.145111
0.138579
0.249128
0.243752
0.137018
0.228627
0.222420
0.114994
0.199927
0.146516
0.118249
0.094828
0.108918
0.077529
0.128828
0.128920
0.051432
0.057144
0.124522
0.150990
0.029055
0.128785
0.074761
0.074381
0.056363
0.006502
0.045630
0.073490
0.021654
0.035697
0.025261
0.026149
0.032793
0.063280
0.008686
0.084385
0.044595
0.026522
-0.019874
-0.028535
0.017028
0.182507
0.231904
0.500570
0.765150
1.067771
1.197730
1.230606
1.105373
0.831045
0.522310
0.303653
0.055632
-0.070065
-0.160357
-0.165761
-0.069321
-0.022470
0.039987
0.105208
0.134501
0.108284
0.096566
0.070997
0.069871
0.128217
0.132990
0.157890
0.113103
0.071553
0.133956
0.139142
0.191495
0.098497
0.093805
0.196595
0.188821
0.175882
0.232511
0.173041
0.203144
0.222771
0.210102
0.241765
0.259116
0.312543
0.278625
0.291189
0.373155
0.354691
0.415764
0.374842
0.485818
0.464456
0.425775
0.514867
0.539573
0.463815
0.516015
0.475872
0.502837
0.586234
0.551878
0.521167
0.534114
0.467182
0.524136
0.533192
0.444672
0.481503
0.438825
0.440104
0.446988
0.441275
0.430950
0.350313
0.430694
0.389188
0.366922
0.321513
0.381367
0.357819
0.286357
0.280777
0.244973
0.217894
0.181352
0.258866
0.224348
0.233895
0.163537
0.192558
0.191379
0.185739
0.191503
0.155670
0.151791
0.229225
0.084901
0.222514
0.177519
0.084668
0.075876
0.166417
0.100870
0.117616
0.156809
0.136248
0.198701
0.077054
0.140937
0.120279
0.088787
0.119597
0.157846
0.190298
0.080364
0.111235
0.127988
0.116145
0.129526
0.047041
0.036277
0.102297
0.146250
0.153513
0.133377
0.065073
0.142333
0.088465
0.109824
0.117506
0.074551
0.072363
0.103530
0.175871
0.045339
0.044784
0.120251
0.172309
0.122319
0.121240
0.059003
0.103896
0.147899
0.174732
0.054510
0.172997
0.132461
0.071555
0.056198
0.074334
0.117962
0.119537
0.144769
0.103212
0.070707
0.091294
0.141000
0.124168
0.070229
0.094175
0.157574
0.121661
0.159085
0.186922
0.128604
0.141291
0.169611
0.199890
0.184917
0.235792
0.195141
0.207842
0.206308
0.186630
0.161843
0.201718
0.265440
0.155979
0.229363
0.367515
0.284623
0.292201
0.248549
0.298629
0.257768
0.294994
0.177543
0.237316
0.194280
0.241734
0.168878
0.238829
0.208361
0.310105
0.183836
0.225622
0.214099
0.178463
0.167208
0.165427
0.136002
0.148149
0.130603
0.109936
0.168114
0.121993
0.101161
0.153534
0.151461
0.110610
0.088429
0.165338
0.149691
0.047159
0.011300
0.110317
0.098634
0.168803
0.069577
0.046216
0.086637
0.087254
0.141797
0.105666
0.382067
0.576613
0.854876
1.061944
1.215628
1.187322
1.104975
0.953024
0.506527
0.261542
-0.010901
-0.129173
-0.115489
-0.019482
-0.065557
0.036561
0.149722
0.114201
0.026830
0.157123
0.186713
0.090968
0.082143
0.080283
0.129575
0.149185
0.131621
0.124182
0.123708
0.122711
0.159645
0.174784
0.197539
0.163783
0.209198
0.200734
0.132535
0.219868
0.246274
0.283101
0.273154
0.326475
0.290677
0.336357
0.392775
0.385606
0.428351
0.365070
0.445994
0.399708
0.415282
0.445403
0.448276
0.446507
0.506782
0.461001
0.515902
0.413242
0.562290
0.545533
0.570901
0.491154
0.586992
0.516702
0.494300
0.478776
0.439173
0.552457
0.397410
0.471310
0.417323
0.446002
0.477623
0.401430
0.412685
0.369577
0.289057
0.289748
0.319157
0.267281
0.315310
0.267658
0.193317
0.186618
0.171808
0.191312
0.190699
0.183615
0.138164
0.240046
0.169053
0.089819
0.104821
0.140785
0.065210
0.087072
0.086482
0.158030
0.166692
0.071914
0.109095
0.075745
0.118559
0.042074
0.079328
0.123956
0.055392
0.039288
0.149728
0.043820
0.118317
0.075345
0.101733
0.022946
0.047054
0.061893
0.066463
0.072429
0.076069
0.093985
0.060579
0.017196
0.075383
0.063750
0.063164
0.111571
0.056816
0.068233
0.038962
0.066191
0.077820
0.108591
0.085269
0.087242
0.002840
0.076844
0.069167
-0.009370
0.106100
0.005725
0.043256
0.049923
0.048852
0.031656
0.069841
0.055577
0.034311
0.039248
0.054871
0.076598
0.059041
0.086025
0.120436
0.054052
0.058127
0.034647
0.047981
0.087133
0.030329
0.092677
0.018172
0.088867
0.080948
0.049680
0.070017
0.080398
0.081369
0.124630
0.108297
0.077789
0.080706
0.123859
0.146531
0.158511
0.131779
0.202999
0.230413
0.102961
0.229026
0.231749
0.288773
0.180308
0.266103
0.223401
0.186393
0.220186
0.162813
0.254391
0.113764
0.226278
0.161385
0.160824
0.199715
0.168461
0.182111
0.117688
0.145947
0.096842
0.106349
0.101287
0.054059
0.127713
0.051849
0.105675
0.055476
0.044225
0.060221
0.114852
0.091183
0.087669
0.021780
0.042786
0.157892
0.078547
0.105578
0.029890
0.092189
0.042585
0.096158
0.016037
0.005200
0.081081
0.043363
0.118525
0.332627
0.570535
0.860170
1.124434
1.274778
1.219236
1.086520
0.804814
0.461036
0.176590
-0.030841
-0.150137
-0.111935
-0.090093
-0.059372
-0.029805
0.017710
0.036855
0.058904
0.077660
0.057726
0.052490
0.092601
0.079645
0.076555
0.055008
0.100526
0.076629
0.056560
0.141643
0.136276
0.162424
0.147367
0.112903
0.154468
0.135641
0.190726
0.241663
0.253671
0.249955
0.233563
0.290300
0.278161
0.286722
0.310683
0.326163
0.435587
0.365286
0.333287
0.420115
0.363918
0.401359
0.471887
0.409175
0.440972
0.472017
0.500427
0.498037
0.505279
0.520266
0.504967
0.531722
0.476051
0.532519
0.436935
0.482117
0.430019
0.474341
0.469330
0.403613
0.412556
0.386091
0.375975
0.402578
0.361491
0.321059
0.270728
0.349100
0.315287
0.185791
0.281348
0.184247
0.205065
0.235112
0.172636
0.175594
0.234920
0.250986
0.145215
0.115719
0.142467
0.156764
0.113553
0.169157
0.146918
0.148541
0.092980
0.122536
0.035257
0.128957
0.039263
0.055748
0.050665
0.115754
0.134263
0.065974
0.091167
0.032175
0.118298
0.036302
0.085368
0.110146
0.094096
0.152912
0.133767
0.080987
0.102633
0.115373
0.115443
0.040639
0.074076
0.100261
0.046765
0.092077
0.096491
0.112236
0.048350
0.073000
-0.018357
0.087253
0.123947
0.118016
0.112512
0.092219
0.090836
0.054560
0.141404
0.137141
0.041257
0.106658
0.150215
0.154819
0.114369
0.067529
0.139729
0.083904
0.104988
0.144232
0.058905
0.092906
0.130013
0.064496
0.159037
0.064564
0.130539
0.146178
0.111439
0.139960
0.165702
0.119133
0.087943
0.105077
0.145583
0.156994
0.123369
0.116607
0.191434
0.208634
0.138993
0.189941
0.138384
0.191415
0.230910
0.167631
0.235777
0.181745
0.293671
0.244753
0.287843
0.256227
0.233336
0.212275
0.212958
0.315412
0.269813
0.282763
0.288464
0.277276
0.223734
0.320992
0.172374
0.247615
0.203484
0.233395
0.216170
0.241039
0.143953
0.163699
0.202122
0.195216
0.167607
0.190502
0.196556
0.165669
0.118503
0.149204
0.125146
0.154559
0.205003
0.090239
0.144479
0.184390
0.186723
0.096650
0.136353
0.112502
0.181343
0.169909
0.141373
0.052153
0.116459
0.161256
0.178188
0.205135
0.512472
0.685453
0.994981
1.185474
1.338962
1.310929
1.054426
0.769037
0.496772
0.330712
0.052971
-0.044953
-0.109729
0.018848
0.009799
0.100075
0.149429
0.193577
0.222390
0.161014
0.201005
0.130083
0.189259
0.174498
0.134729
0.199380
0.228033
0.222681
0.202374
0.210002
0.294885
0.189227
0.193148
0.286243
0.308148
0.284399
0.323473
0.313900
0.287696
0.349633
0.343415
0.433053
0.406394
0.401158
0.398875
0.405404
0.487846
0.509919
0.530513
0.508034
0.537419
0.516144
0.489992
0.503511
0.562385
0.646700
0.633790
0.582460
0.695898
0.658316
0.718101
0.619127
0.574501
0.635870
0.625358
0.614479
0.566024
0.587327
0.578995
0.593121
0.583098
0.513430
0.565091
0.500236
0.543041
0.496908
0.443911
0.469618
0.482152
0.381664
0.336208
0.402180
0.348591
0.329874
0.281850
0.346952
0.296218
0.281184
0.305631
0.309321
0.272826
0.294327
0.270159
0.178473
0.226192
0.236304
0.248617
0.210773
0.196620
0.252165
0.241301
0.126756
0.223041
0.164658
0.246205
0.303330
0.230841
0.196886
0.251436
0.231442
0.215524
0.252313
0.186859
0.229782
0.262107
0.216938
0.185769
0.273021
0.202070
0.142675
0.221157
0.246805
0.263828
0.182503
0.257596
0.219872
0.287186
0.238571
0.162357
0.242940
0.214326
0.205251
0.224049
0.219483
0.229641
0.165282
0.216120
0.220660
0.299677
0.262422
0.248171
0.197067
0.214500
0.261629
0.282876
0.240932
0.263330
0.284476
0.290979
0.187393
0.200973
0.249054
0.221257
0.325315
0.225477
0.244865
0.236424
0.171658
0.242718
0.200297
0.346569
0.259181
0.232352
0.299138
0.259706
0.191487
0.290894
0.297448
0.222948
0.288321
0.328155
0.317071
0.339380
0.352702
0.292090
0.344758
0.370224
0.356838
0.318897
0.424010
0.391421
0.380267
0.458660
0.385750
0.341565
0.410744
0.365842
0.391985
0.307492
0.343275
0.310038
0.359897
0.291858
0.280759
0.292634
0.388429
0.254579
0.291021
0.285756
0.291279
0.245518
0.182682
0.249511
0.218786
0.289515
0.237201
0.231737
0.234710
0.293295
0.259974
0.217346
0.266474
0.217808
0.242254
0.262882
0.249742
0.197816
0.193375
0.220095
0.204814
0.125222
0.167004
0.288820
0.326618
0.503158
0.799651
1.001425
1.319902
1.438600
1.378677
1.190267
0.943496
0.576539
0.309263
0.124961
-0.017555
-0.006949
0.019781
0.180550
0.218200
0.137268
0.220539
0.271528
0.204267
0.241043
0.245628
0.241532
0.286646
0.291711
0.284964
0.305661
0.261783
0.319651
0.220124
0.312013
0.302335
0.262861
0.348911
0.327447
0.366162
0.362725
0.374745
0.400083
0.423751
0.489688
0.453637
0.419840
0.447560
0.522163
0.495752
0.506802
0.496792
0.577156
0.569873
0.557320
0.595879
0.637003
0.591842
0.685500
0.582245
0.622983
0.636802
0.770699
0.628074
0.665165
0.646096
0.719527
0.676667
0.660679
0.634289
0.590791
0.625546
0.556802
0.564865
0.560663
0.569908
0.581167
0.471878
0.549347
0.449134
0.532093
0.531728
0.453075
0.381707
0.401630
0.384656
0.398857
0.346664
0.367998
0.345140
0.372209
0.281592
0.283482
0.278823
0.288904
0.272383
0.262363
0.210642
0.198317
0.254006
0.273632
0.270155
0.241844
0.230568
0.213484
0.292815
0.207326
0.225358
0.282514
0.211393
0.140809
0.213598
0.195915
0.164598
0.210538
0.189433
0.207925
0.200373
0.222363
0.245529
0.201618
0.188413
0.261683
0.176452
0.248940
0.149110
0.190328
0.264494
0.209482
0.231264
0.192274
0.251508
0.255954
0.267698
0.184358
0.214772
0.249554
0.192803
0.221748
0.252123
0.197132
0.157314
0.211550
0.156266
0.173484
0.141422
0.173068
0.126960
0.184614
0.221207
0.219968
0.196823
0.183196
0.243302
0.172165
0.144634
0.186644
0.213227
0.209876
0.169984
0.209583
0.163765
0.163495
0.212026
0.216130
0.236156
0.193144
0.203793
0.198241
0.140648
0.204109
0.210326
0.256192
0.214392
0.279529
0.239434
0.182851
0.340541
0.255558
0.352219
0.310051
0.286632
0.339020
0.300306
0.342617
0.325012
0.310465
0.371432
0.270055
0.348780
0.344040
0.288333
0.279384
0.347865
0.309096
0.286957
0.300629
0.254920
0.263395
0.251264
0.255181
0.217924
0.242367
0.215117
0.213144
0.214141
0.216396
0.219475
0.129255
0.144626
0.213002
0.130178
0.193837
0.109464
0.158103
0.128765
0.179947
0.222526
0.096077
0.167519
0.158941
0.168924
0.116855
0.128408
0.092889
0.146400
0.133699
0.328381
0.430150
0.742726
1.010895
1.251163
1.379410
1.331289
1.086704
0.831725
0.512619
0.203020
-0.000157
-0.023508
-0.085497
-0.057879
0.069311
0.089967
0.186628
0.128360
0.109303
0.141135
0.217921
0.172018
0.246700
0.061635
0.111029
0.232967
0.155355
0.165158
0.158487
0.144099
0.204687
0.244959
0.245914
0.207457
0.216442
0.290154
0.273230
0.256998
0.259613
0.391740
0.407276
0.270044
0.397570
0.406636
0.456884
0.408095
0.447854
0.411097
0.398401
0.495896
0.492980
0.544061
0.508930
0.469251
0.633071
0.514982
0.610343
0.557462
0.617871
0.552821
0.606037
0.606898
0.584016
0.550593
0.530611
0.465080
0.537890
0.582340
0.510129
0.505642
0.451546
0.490782
0.425070
0.456227
0.435200
0.304426
0.334019
0.322647
0.284918
0.325771
0.384635
0.239351
0.338731
0.312333
0.247717
0.292732
0.273102
0.171729
0.227491
0.183390
0.203769
0.166570
0.155433
0.209034
0.188456
0.160278
0.159596
0.127920
0.185225
0.122554
0.145526
0.073594
0.167475
0.166765
0.155770
0.193862
0.137420
0.165967
0.099709
0.127926
0.137392
0.163291
0.122095
0.156695
0.128318
0.149922
0.175111
0.113439
0.127330
0.070241
0.107072
0.174514
0.125968
0.125659
0.117957
0.198707
0.162964
0.133448
0.067828
0.173874
0.139208
0.109548
0.151775
0.135302
0.145422
0.139944
0.137512
0.158597
0.130985
0.157868
0.153800
0.147715
0.127044
0.142831
0.161457
0.140789
0.156713
0.177421
0.176018
0.076002
0.100175
0.145783
0.193666
0.150891
0.143728
0.175659
0.131448
0.181103
0.106536
0.228240
0.168231
0.167622
0.104588
0.137375
0.148442
0.219864
0.132171
0.163798
0.195398
0.168793
0.183172
0.236706
0.313583
0.273964
0.278007
0.188416
0.297567
0.321236
0.266213
0.303476
0.247795
0.299165
0.333875
0.332460
0.238488
0.350732
0.313179
0.347672
0.330502
0.288749
0.293784
0.250246
0.282622
0.225698
0.237512
0.280216
0.244458
0.222790
0.237970
0.109556
0.236966
0.199678
0.170671
0.162655
0.127067
0.225356
0.124407
0.176425
0.191073
0.140300
0.168051
0.201591
0.134671
0.168852
0.162297
0.201396
0.131072
0.154651
0.121770
0.138827
0.132986
0.148683
0.182544
0.301025
0.540198
0.780189
1.050463
1.298626
1.385258
1.296803
1.092094
0.684338
0.456207
0.214540
0.031987
-0.023160
-0.060882
-0.026844
0.033674
0.111065
0.109455
0.191972
0.158269
0.134361
0.266739
0.180288
0.154806
0.175165
0.167421
0.216089
0.238103
0.210785
0.267994
0.252535
0.270775
0.214892
0.289322
0.240623
0.383253
0.236026
0.304811
0.295278
0.302094
0.363959
0.342422
0.397575
0.380779
0.471960
0.455079
0.482405
0.536065
0.473469
0.545766
0.528881
0.486111
0.551100
0.537079
0.575454
0.607479
0.627563
0.588800
0.570852
0.613255
0.655831
0.588621
0.578866
0.652569
0.597453
0.572496
0.664599
0.606180
0.583282
0.582324
0.589531
0.474252
0.502692
0.593867
0.473706
0.455809
0.470161
0.371412
0.443637
0.393425
0.448536
0.260621
0.363818
0.431351
0.320694
0.298726
0.372365
0.209492
0.360053
0.289074
0.347742
0.223920
0.244327
0.229534
0.261220
0.250162
0.195666
0.277210
0.245895
0.241028
0.206446
0.237362
0.195095
0.246776
0.257655
0.252393
0.215939
0.273230
0.205478
0.271622
0.225912
0.189267
0.151801
0.250692
0.204622
0.163254
0.211982
0.188186
0.178210
0.226535
0.217136
0.248019
0.245730
0.231240
0.226574
0.210806
0.179816
0.245375
0.244491
0.238540
0.274353
0.226145
0.219646
0.215199
0.190988
0.195135
0.265957
0.248089
0.238623
0.251464
0.261238
0.195332
0.259835
0.206319
0.192262
0.220390
0.192278
0.227112
0.252396
0.194022
0.182281
0.191107
0.223686
0.293296
0.190949
0.287091
0.225279
0.247407
0.238043
0.273240
0.250947
0.242861
0.251629
0.230815
0.331456
0.287118
0.347189
0.249202
0.306570
0.335147
0.366531
0.293949
0.319613
0.297732
0.326117
0.392807
0.295849
0.417902
0.393394
0.401506
0.429980
0.322239
0.385082
0.432644
0.466554
0.409685
0.356138
0.387843
0.419498
0.376923
0.383782
0.377732
0.339044
0.354597
0.422455
0.345521
0.358352
0.304012
0.339744
0.268265
0.354595
0.320746
0.274988
0.261118
0.290653
0.263478
0.328547
0.232979
0.224611
0.199988
0.285096
0.294560
0.249975
0.293625
0.223412
0.311900
0.236439
0.243768
0.250906
0.274463
0.241483
0.262631
0.230330
0.284408
0.429143
0.665529
0.946296
1.200964
1.343922
1.500000
1.367812
1.044258
0.754873
0.540713
0.266110
0.057981
0.022601
0.047381
0.197502
0.110491
0.189696
0.274013
0.216342
0.333126
0.284668
0.272909
0.255158
0.347756
0.236754
0.310335
0.331376
0.336481
0.295159
0.338355
0.336967
0.348886
0.317376
0.376486
0.368848
0.375057
0.358056
0.378432
0.445873
0.492135
0.428496
0.435056
0.520348
0.537335
0.473358
0.573286
0.485914
0.566135
0.604875
0.571408
0.625619
0.632783
0.602885
0.682705
0.742877
0.638301
0.712861
0.746841
0.654400
0.752949
0.690341
0.657468
0.748120
0.724134
0.714150
0.744178
0.651176
0.654771
0.652626
0.619502
0.671693
0.632756
0.595649
0.570705
0.618770
0.561693
0.582275
0.469995
0.478688
0.446295
0.452946
0.389520
0.363334
0.431230
0.419712
0.384740
0.355215
0.423623
0.333179
0.325910
0.330932
0.345891
0.343898
0.361603
0.283511
0.258933
0.416356
0.344966
0.278721
0.349912
0.338826
0.333454
0.281391
0.215575
0.295212
0.270276
0.268544
0.279757
0.321479
0.200944
0.232688
0.306080
0.260627
0.266485
0.235848
0.286515
0.293551
0.286543
0.238569
0.366551
0.278463
0.278987
0.218421
0.211308
0.349751
0.250444
0.248937
0.227062
0.259604
0.238399
0.246436
0.273207
0.207618
0.256751
0.272557
0.300667
0.283327
0.248909
0.235355
0.333707
0.290173
0.244362
0.280830
0.220189
0.190729
0.168723
0.275157
0.247340
0.192006
0.259497
0.242279
0.254711
0.234331
0.224304
0.227324
0.252454
0.272638
0.227397
0.244000
0.207650
0.244088
0.240021
0.276660
0.240844
0.204084
0.290873
0.250773
0.230898
0.277668
0.324847
0.333397
0.357476
0.353356
0.384213
0.406811
0.318632
0.405140
0.368666
0.406318
0.348302
0.312910
0.399981
0.360304
0.353129
0.389741
0.406501
0.399036
0.434848
0.425270
0.353386
0.391787
0.339372
0.358084
0.328716
0.287180
0.292706
0.314887
0.283003
0.267440
0.324741
0.251046
0.296713
0.267369
0.280141
0.247750
0.199692
0.307679
0.244286
0.231486
0.250063
0.236675
0.271066
0.243413
0.295666
0.255616
0.210925
0.238815
0.219875
0.188790
0.271957
0.220436
0.210537
0.269296
0.317301
0.484780
0.630781
0.941778
1.174848
1.352723
1.415201
1.344941
1.064172
0.808082
0.425691
0.209065
0.032389
0.040463
0.044174
0.043865
0.183354
0.137455
0.162452
0.284675
0.134827
0.214417
0.155767
0.246136
0.310000
0.274220
0.262715
0.211635
0.278903
0.218096
0.237979
0.264788
0.301233
0.235550
0.333387
0.314256
0.325964
0.323104
0.355090
0.333726
0.422625
0.423895
0.433208
0.423004
0.482900
0.346443
0.513067
0.496617
0.471619
0.623811
0.543616
0.560278
0.536311
0.558757
0.520306
0.583297
0.624157
0.556977
0.567922
0.512815
0.600232
0.700899
0.695790
0.579152
0.647784
0.682208
0.653635
0.555399
0.603453
0.518848
0.557869
0.535106
0.530251
0.555388
0.459440
0.492264
0.370452
0.435651
0.489956
0.387853
0.388025
0.391231
0.344403
0.397133
0.311942
0.352192
0.328461
0.265885
0.287374
0.303130
0.264794
0.239110
0.250190
0.215559
0.211216
0.235504
0.212686
0.145831
0.166329
0.222594
0.263780
0.178066
0.142827
0.215730
0.220972
0.127580
0.172942
0.199915
0.168499
0.175239
0.129055
0.128045
0.187937
0.236767
0.186390
0.144691
0.197802
0.175864
0.178263
0.219885
0.201258
0.221875
0.160262
0.173952
0.183035
0.220722
0.191151
0.192691
0.125817
0.105460
0.222376
0.122810
0.175441
0.227283
0.206939
0.180692
0.153178
0.138822
0.227858
0.203901
0.172958
0.179612
0.130001
0.189550
0.267220
0.148972
0.174599
0.180481
0.166781
0.098575
0.193159
0.224899
0.186540
0.163184
0.153211
0.113272
0.187146
0.152964
0.115205
0.147299
0.248822
0.230141
0.174998
0.247011
0.188459
0.172068
0.197296
0.198909
0.211535
0.216383
0.243551
0.227640
0.199134
0.223222
0.304087
0.302360
0.317809
0.336685
0.253228
0.275423
0.329394
0.323393
0.358694
0.272939
0.256918
0.305992
0.317384
0.313430
0.285480
0.279724
0.298931
0.303928
0.236761
0.262170
0.281361
0.296894
0.313571
0.279019
0.237129
0.230946
0.251725
0.205756
0.147677
0.218783
0.206197
0.121024
0.165218
0.186502
0.158281
0.106541
0.206627
0.131297
0.210588
0.125979
0.186189
0.201467
0.183618
0.110066
0.234033
0.106359
0.132339
0.129314
0.079027
0.113396
0.225703
0.420537
0.540259
0.890552
1.205193
1.298067
1.313644
1.197508
0.929544
0.626387
0.366775
0.142420
-0.028316
-0.104442
-0.139805
0.014842
0.079256
0.166599
0.165927
0.187414
0.287016
0.178139
0.192299
0.181666
0.205969
0.212434
0.137198
0.232434
0.243878
0.192780
0.224509
0.222630
0.218602
0.238799
0.170653
0.266224
0.350650
0.296463
0.289289
0.320533
0.268352
0.409638
0.359389
0.344005
0.438116
0.461043
0.457461
0.481152
0.401496
0.528307
0.475326
0.537827
0.519170
0.565961
0.538804
0.547935
0.557963
0.646210
0.589761
0.564421
0.612549
0.575769
0.528768
0.542831
0.603197
0.643324
0.573116
0.562911
0.569127
0.571945
0.485283
0.522662
0.490456
0.471405
0.422787
0.478617
0.516174
0.431718
0.432241
0.414315
0.416885
0.389530
0.297686
0.374967
0.334714
0.309350
0.314390
0.286161
0.296068
0.278435
0.237268
0.230837
0.305473
0.233941
0.223631
0.126450
0.227051
0.276327
0.255180
0.252061
0.261952
0.199760
0.272084
0.241578
0.235151
0.190672
0.191494
0.191284
0.197071
0.187152
0.116322
0.211604
0.182683
0.163388
0.223385
0.208564
0.184004
0.214063
0.157162
0.182573
0.114951
0.219565
0.253261
0.220460
0.121445
0.195687
0.152563
0.207581
0.242757
0.178863
0.225385
0.259643
0.153143
0.208790
0.221561
0.294942
0.207015
0.226264
0.249760
0.191153
0.227712
0.191208
0.227079
0.170948
0.245686
0.204860
0.241196
0.208856
0.212800
0.219649
0.217105
0.184495
0.230108
0.200031
0.164843
0.208567
0.221214
0.312336
0.205013
0.282256
0.275842
0.212384
0.223019
0.230242
0.273049
0.199878
0.226116
0.204283
0.216601
0.225381
0.253271
0.310916
0.330626
0.287359
0.356266
0.285334
0.365602
0.381712
0.353185
0.350825
0.375182
0.402423
0.403753
0.400232
0.347673
0.432954
0.420662
0.358938
0.401009
0.336416
0.405574
0.321141
0.349693
0.304610
0.324771
0.291411
0.339054
0.308270
0.337225
0.298036
0.301831
0.283540
0.235887
0.235711
0.318211
0.301865
0.237117
0.272773
0.258129
0.296939
0.270658
0.254655
0.236331
0.255494
0.209493
0.257069
0.203835
0.297522
0.248934
0.227436
0.241734
0.237718
0.180513
0.298862
0.332473
0.520168
0.747136
1.044204
1.320090
1.442166
1.379038
1.288266
1.008460
0.743689
0.421837
0.148552
0.085237
-0.077643
0.055566
0.081558
0.177706
0.182417
0.245504
0.297756
0.205043
0.258007
0.253211
0.269075
0.282306
0.296147
0.312764
0.261181
0.319140
0.302899
0.297967
0.343363
0.343266
0.377202
0.316671
0.313612
0.328148
0.409482
0.400659
0.522491
0.477836
0.460889
0.448512
0.508233
0.448746
0.546200
0.542074
0.530576
0.576173
0.542585
0.616632
0.588304
0.628496
0.649149
0.677581
0.661293
0.684374
0.664964
0.662697
0.701316
0.759027
0.691296
0.743476
0.750467
0.775149
0.675770
0.677166
0.710699
0.692508
0.697274
0.622673
0.658813
0.576978
0.592014
0.569539
0.531996
0.552430
0.534035
0.477777
0.498915
0.455380
0.452120
0.434628
0.463202
0.400730
0.378251
0.407478
0.364372
0.348241
0.309332
0.399991
0.337623
0.361611
0.305069
0.277076
0.302883
0.379762
0.215008
0.327626
0.365767
0.251451
0.347497
0.337408
0.348165
0.329779
0.307375
0.345567
0.268268
0.353681
0.273930
0.344472
0.286292
0.333959
0.277400
0.243683
0.357630
0.361549
0.332335
0.283275
0.349573
0.288566
0.309613
0.288315
0.237984
0.317540
0.255896
0.268525
0.233788
0.292183
0.229040
0.356957
0.292256
0.348573
0.299765
0.312213
0.377855
0.315953
0.339327
0.290712
0.290548
0.304808
0.312539
0.282614
0.378666
0.294116
0.334950
0.294821
0.303514
0.236260
0.297027
0.242604
0.272850
0.290632
0.294342
0.277702
0.262984
0.277498
0.274811
0.270318
0.297521
0.290600
0.281126
0.279748
0.278315
0.325652
0.388479
0.302514
0.327064
0.362526
0.342060
0.326565
0.387615
0.323080
0.372537
0.372006
0.468926
0.366715
