-0.028183
0.037019
-0.004897
0.037123
-0.049304
-0.011709
0.047974
-0.030614
-0.032060
0.050767
-0.016142
0.029719
0.041720
-0.000472
0.008775
-0.037573
-0.023147
0.003049
-0.039657
0.013491
-0.111504
0.018835
0.082303
-0.005421
0.003326
-0.017484
-0.009374
0.082937
-0.000494
0.039059
0.076382
0.009438
-0.038843
0.006249
0.076245
0.048875
0.066338
-0.016010
0.128344
0.067443
0.170116
0.198973
0.039759
0.128375
0.201766
0.078976
0.124156
0.227703
0.159745
0.210562
0.204609
0.182520
0.241383
0.192104
0.144440
0.192627
0.179147
0.188478
0.285974
0.263408
0.232948
0.197762
0.119513
0.115394
0.183846
0.068163
0.076987
0.068827
0.112943
0.107842
0.051898
0.111174
0.168880
0.105530
0.148725
0.072459
0.082184
-0.012310
0.071851
0.047755
0.014729
-0.010805
0.118083
0.141294
0.011374
0.021417
0.031374
0.077302
0.015686
0.019241
0.050205
0.070083
-0.012012
0.068570
0.040735
0.085014
-0.007429
0.085636
-0.073851
-0.040502
-0.020314
0.087304
0.171968
0.426036
0.694053
1.077810
1.324026
1.500000
1.481234
1.296279
0.857262
0.700278
0.250927
-0.022366
-0.202215
-0.252054
-0.295863
-0.231266
-0.103313
0.000427
0.098510
0.066139
0.012061
0.103119
0.144559
0.073987
0.137888
0.113927
0.115516
0.061042
0.081443
0.153201
0.088844
0.078851
0.123700
0.136860
0.080489
0.156611
0.078251
0.133289
0.133611
0.075623
0.190571
0.166776
0.163062
0.091483
0.177885
0.203225
0.253099
0.228958
0.194230
0.259239
0.304348
0.222442
0.360327
0.255980
0.324085
0.378956
0.248341
0.397588
0.470987
0.475259
0.305340
0.456395
0.499946
0.510926
0.522811
0.545198
0.514861
0.521470
0.609418
0.628295
0.536249
0.659736
0.573378
0.640454
0.610422
0.622187
0.553373
0.551068
0.545132
0.550020
0.586991
0.442530
0.443220
0.520304
0.404200
0.400928
0.445364
0.382333
0.437315
0.395668
0.346396
0.310465
0.289252
0.304709
0.201081
0.274610
0.260706
0.265924
0.240150
0.196859
0.164185
0.184100
0.202068
0.222058
0.055425
0.135333
0.091585
0.158245
0.184287
0.108241
0.058827
0.111034
0.125827
0.183916
0.126507
0.064989
0.116317
0.085358
0.121877
0.050632
0.110036
0.050039
0.129440
0.019505
0.113259
0.054931
0.088975
0.094030
0.100148
0.135711
0.073488
0.023065
0.057090
0.022372
0.098166
0.016378
0.146863
0.093444
0.109990
0.124272
0.116356
0.069189
0.081284
0.092870
0.025494
0.046943
0.082128
0.083842
0.111225
0.080308
0.071990
0.090458
0.068654
0.042551
0.119815
0.123755
0.035008
0.061544
0.150183
0.060578
0.029071
0.118784
0.102531
0.043924
0.110769
0.163429
0.074197
0.071428
0.041019
0.127774
0.058462
0.093019
0.069442
0.105655
0.050340
0.087164
0.071685
0.050058
0.109738
0.042737
0.170810
-0.003670
0.048687
0.084195
0.054863
0.056404
0.141005
0.072943
0.083079
0.071165
0.064804
0.077325
0.066359
0.079895
0.114431
0.071122
0.082252
0.102916
0.078165
0.107665
0.120773
0.061036
0.088182
0.090091
0.068954
0.138389
0.119042
0.221613
0.138247
0.233604
0.144109
0.216861
0.276539
0.246806
0.189405
0.220950
0.194231
0.270583
0.238829
0.224432
0.276130
0.216198
0.192022
0.213374
0.214375
0.111018
0.184644
0.171472
0.122782
0.211646
0.180621
0.035775
0.119717
0.052811
0.087101
0.100511
0.077299
0.034167
0.131602
0.068003
0.109367
0.050592
0.018263
0.073832
0.006147
0.083462
-0.002584
0.042452
0.034198
-0.016609
-0.000673
-0.010944
0.044125
-0.033709
0.055433
0.042453
0.041538
0.081302
0.015988
0.071766
0.044548
0.078630
0.006861
-0.012543
0.032098
-0.091564
-0.071463
-0.013526
0.141333
0.474868
0.701851
1.048903
1.320396
1.489629
1.399806
1.170051
0.779903
0.541086
0.169527
-0.057545
-0.240114
-0.307660
-0.336719
-0.221265
-0.101407
-0.075471
-0.066914
0.048536
-0.069376
0.023937
-0.029528
-0.003528
0.021158
0.032019
0.016572
-0.050940
0.065302
0.019006
0.014277
-0.034696
-0.000973
0.025694
0.069651
0.037124
0.078428
0.055180
0.056403
0.031021
0.053082
0.112223
0.125223
0.111135
0.117037
0.066791
0.139973
0.126648
0.195641
0.135481
0.219821
0.227149
0.217566
0.250556
0.264795
0.197649
0.250934
0.284352
0.376632
0.380610
0.332496
0.431081
0.399568
0.446596
0.426674
0.443662
0.423482
0.501896
0.441875
0.443970
0.484164
0.494628
0.520933
0.486844
0.499932
0.547540
0.462431
0.429613
0.414306
0.441093
0.368615
0.408502
0.398484
0.440048
0.316605
0.360336
0.347389
0.216182
0.325792
0.277705
0.217108
0.246934
0.198589
0.170797
0.123881
0.071144
0.106178
0.113634
0.065483
0.052427
0.033438
-0.020583
0.102959
-0.016164
-0.012287
0.020327
0.029622
0.022230
-0.079225
-0.029250
0.027561
0.030224
0.012680
0.013508
-0.020225
-0.015685
-0.069593
-0.036967
-0.029995
-0.062868
0.009320
-0.093185
-0.001947
-0.038691
0.058895
0.004907
0.009412
-0.092018
-0.030049
-0.013889
0.032690
-0.108528
-0.020042
-0.056806
-0.054801
-0.002595
0.031149
0.012678
-0.057649
-0.035160
-0.005364
-0.006903
-0.087048
-0.106409
-0.014540
0.004877
-0.035140
-0.027690
0.003331
0.088188
-0.012445
-0.006608
-0.065223
-0.038201
-0.009255
-0.027911
-0.060897
-0.123381
-0.085188
-0.018433
-0.127143
-0.045305
-0.016890
-0.072231
-0.143154
0.008174
-0.026070
-0.046231
-0.080546
-0.024316
0.010966
0.032187
-0.102924
-0.127468
-0.074594
-0.023477
-0.068468
-0.064722
-0.037006
-0.017703
-0.025145
-0.048859
-0.065527
-0.000244
-0.049692
0.006761
-0.090935
-0.018543
-0.019476
0.009585
-0.072136
-0.009809
-0.032326
-0.041935
0.004981
0.018466
-0.048463
-0.012031
-0.001722
-0.044819
-0.040516
-0.027369
0.047363
0.021815
0.014282
-0.004471
-0.018893
0.028139
0.020527
0.049784
0.039368
-0.017752
0.129051
0.075748
0.114724
0.098868
0.128240
0.118775
0.150803
0.092239
0.158704
0.110162
0.146822
0.094442
0.111956
0.026912
0.113179
0.135896
0.052946
0.089917
0.003241
0.021112
-0.030664
0.069926
0.015428
0.017742
0.024919
-0.049115
-0.045298
-0.036064
-0.004761
-0.116378
-0.022124
-0.094483
-0.043501
-0.074406
0.057837
-0.009886
0.004752
-0.047883
-0.073220
-0.092101
0.010035
-0.014727
-0.018216
-0.049915
0.005868
-0.024740
0.045717
0.055017
-0.032853
-0.002239
-0.056203
-0.131221
-0.125975
-0.127280
-0.101213
-0.007188
0.192352
0.457241
0.778224
1.077992
1.322007
1.349812
1.314113
1.120967
0.763333
0.380498
0.128427
-0.138786
-0.300115
-0.284213
-0.383802
-0.249214
-0.208904
-0.125656
-0.065235
-0.046157
0.008100
-0.035345
-0.024548
-0.053219
-0.033866
-0.022333
-0.006113
-0.067994
0.011640
0.033249
-0.009819
-0.092173
0.001756
-0.000566
-0.014203
-0.057648
0.003136
-0.021331
0.041441
0.048914
0.066082
0.089394
0.071054
0.058354
0.102419
0.088377
0.092563
0.165897
0.231013
0.158428
0.162735
0.250073
0.125310
0.248603
0.258918
0.250015
0.344981
0.275056
0.349187
0.354465
0.373372
0.408345
0.424342
0.470237
0.427824
0.508997
0.437026
0.504782
0.444056
0.568574
0.514245
0.500373
0.467681
0.486487
0.475644
0.510311
0.445982
0.405769
0.372999
0.465201
0.458997
0.422649
0.405506
0.409231
0.367083
0.309943
0.380581
0.333472
0.226909
0.310049
0.215659
0.209374
0.196741
0.138071
0.142082
0.155988
0.182035
0.127444
0.080396
0.070416
0.120500
0.109076
0.118534
0.106121
0.060567
0.009886
0.084637
0.018243
0.110498
0.031631
0.124600
0.100285
0.090622
0.132665
0.087516
0.038903
-0.034534
0.076018
0.093140
0.012440
0.059336
0.038566
0.036428
0.000322
0.042474
0.078158
0.045398
-0.029890
0.024810
0.071793
0.091490
-0.008030
0.006975
0.067181
0.013896
-0.009575
0.010082
0.093110
0.064452
0.059652
0.067626
0.005672
0.120920
0.031352
0.069640
0.075207
0.032898
0.076968
0.064914
0.056524
0.140308
0.049947
0.042748
0.048204
-0.002795
0.101980
0.061128
-0.017547
0.039964
0.085842
0.099054
0.003149
0.106275
-0.027423
0.061472
0.069489
0.035584
0.014474
0.003428
0.039083
0.082413
0.041509
0.051354
0.032444
0.075301
0.094465
0.089142
0.108843
0.099878
0.047933
0.051429
0.095038
0.034032
0.078205
0.032925
0.059615
0.022131
-0.011185
0.098412
0.081587
0.084191
0.037294
0.063382
0.059240
0.014790
0.125286
0.059877
0.061987
0.062586
0.122919
0.027754
0.126703
0.066691
0.083672
0.097397
0.127863
0.182584
0.167672
0.153980
0.202771
0.164712
0.216158
0.191703
0.168436
0.234662
0.247892
0.249702
0.177993
0.187869
0.219410
0.212295
0.218059
0.252795
0.236556
0.181221
0.277113
0.218498
0.188880
0.214982
0.210493
0.202557
0.099442
0.112366
0.134783
0.224928
0.098162
0.154348
0.107198
0.092809
0.136848
0.189354
0.110053
0.038304
0.091255
0.021522
0.050450
0.056760
0.110114
0.031547
0.055408
0.093470
0.027833
0.072592
0.181579
0.079434
0.032081
0.063680
0.042751
0.154934
0.091201
-0.031823
0.071333
0.070670
0.002579
-0.039311
0.035226
0.055644
0.073920
0.335577
0.531119
0.910732
1.218823
1.460431
1.411750
1.482365
1.110938
0.805564
0.496290
0.217061
0.006521
-0.094866
-0.218360
-0.194151
-0.162096
-0.083535
-0.006984
0.047323
0.062231
0.136438
0.078591
0.112316
0.112535
0.117212
0.080269
0.153578
0.045258
0.101688
0.095283
0.108128
0.125312
0.067710
0.039218
0.196918
0.175442
0.092354
0.109432
0.107091
0.211326
0.132569
0.121432
0.273866
0.135539
0.289353
0.176353
0.197924
0.164881
0.126293
0.230164
0.212491
0.322243
0.286765
0.306942
0.414974
0.251755
0.312108
0.364609
0.487573
0.423331
0.444988
0.461446
0.566552
0.520960
0.563185
0.530329
0.497617
0.614594
0.624669
0.663368
0.629479
0.540912
0.680772
0.570486
0.557857
0.604191
0.691124
0.596047
0.565138
0.500733
0.538452
0.528843
0.503928
0.386695
0.477688
0.384726
0.339506
0.398367
0.335435
0.329452
0.297518
0.316089
0.216281
0.290011
0.286497
0.324314
0.247839
0.181360
0.169636
0.142614
0.080703
0.160374
0.117818
0.156514
0.148913
0.105144
0.101002
0.075327
0.089607
0.077968
0.090404
0.067131
0.132126
0.010340
0.005951
0.078214
0.083057
0.104654
0.026759
0.026369
0.027345
0.115256
0.166304
0.040308
0.132506
0.118592
0.053615
0.112755
0.082011
0.061335
0.035166
0.071337
0.036671
0.028023
0.118773
0.021120
0.038059
0.055598
0.104385
0.059364
0.047537
0.067426
0.129972
0.043896
0.074445
-0.023489
0.083065
0.059156
0.007416
0.048045
0.071858
0.088460
0.123538
0.062375
0.104162
0.017248
0.130563
0.013365
0.060671
0.006836
0.009848
0.046351
0.051829
0.049908
0.115628
0.054325
0.068039
0.080164
0.027621
0.063081
0.123093
0.117710
0.092692
0.020084
0.032180
0.054300
0.128408
0.002669
0.043052
-0.011498
-0.016742
0.091285
0.017829
0.061036
0.035778
0.034367
0.059661
0.040799
0.061481
-0.090752
0.061615
0.003396
0.001793
0.105155
0.035708
0.072679
0.001550
0.023431
0.000373
0.056037
0.052771
0.055706
0.062448
0.055563
0.058026
0.074775
0.060967
0.130941
0.106411
0.158545
0.035411
0.198796
0.097445
0.188447
0.160000
0.200570
0.206427
0.132621
0.237511
0.209797
0.205207
0.251979
0.218363
0.158903
0.173733
0.218458
0.145660
0.085936
0.180041
0.124172
0.040087
0.127264
0.045668
0.111462
0.038597
-0.008407
-0.027095
-0.001402
0.015456
0.038785
-0.049763
0.057830
0.067273
-0.039090
-0.032681
-0.005808
-0.061390
0.058244
0.045734
-0.004432
0.022898
-0.046367
0.002962
-0.046761
-0.007229
-0.022714
-0.019267
0.047420
0.049218
-0.052373
0.020552
-0.031259
-0.097695
0.009078
-0.008527
-0.176270
-0.045057
0.071243
0.236473
0.573983
0.900912
1.134839
1.370350
1.338156
1.246445
1.016435
0.666966
0.309120
0.061674
-0.113612
-0.355827
-0.353900
-0.357680
-0.280569
-0.216094
-0.179137
-0.049375
0.021053
0.009764
-0.036398
-0.000320
-0.073931
0.009302
0.061707
-0.058294
-0.014668
-0.054861
-0.058187
-0.016239
0.020704
0.058569
-0.085618
-0.024530
-0.031348
-0.025426
-0.023297
-0.021146
-0.035786
0.046554
-0.003292
-0.008601
0.042444
0.060689
0.028724
-0.006100
0.183983
0.133670
0.183266
0.209080
0.191822
0.188430
0.176130
0.194671
0.213869
0.196975
0.277160
0.310006
0.367403
0.418090
0.405594
0.350574
0.333460
0.402571
0.463193
0.408148
0.413183
0.384100
0.428951
0.484510
0.475233
0.447858
0.438295
0.422259
0.415174
0.433666
0.370842
0.439444
0.408842
0.385745
0.357195
0.349609
0.349321
0.265393
0.296698
0.259345
0.262746
0.224607
0.167913
0.177743
0.151919
0.142399
0.095932
0.155304
0.126518
0.001282
0.044486
0.066848
0.088013
-0.033917
0.015362
0.041502
0.030836
0.047776
-0.039302
-0.065382
0.012698
-0.017296
-0.000700
-0.041081
-0.023177
-0.088663
-0.115582
-0.076085
-0.035265
-0.125778
-0.080978
-0.075192
-0.004206
-0.046671
-0.012584
-0.039640
-0.100575
-0.133945
-0.080163
-0.089291
-0.074683
-0.151241
-0.135091
-0.061127
-0.031656
-0.115131
-0.023021
0.021558
0.003176
-0.067486
-0.084574
-0.056440
-0.041323
-0.080021
-0.109240
-0.123640
-0.107373
0.012906
-0.079868
-0.074007
-0.014535
-0.128705
-0.113887
-0.053700
0.009326
-0.147339
-0.100079
-0.061494
-0.062127
-0.140961
-0.070905
-0.026302
-0.103444
-0.079723
-0.106598
-0.096675
-0.049057
-0.058069
-0.090808
-0.045454
-0.092307
-0.112976
-0.204386
-0.144341
-0.053933
-0.051263
-0.131083
-0.073927
-0.039499
-0.093354
-0.055965
-0.040287
-0.072458
-0.128280
-0.105208
-0.016128
-0.086343
-0.089765
-0.033113
-0.025761
-0.087652
-0.056670
-0.057906
-0.095478
-0.092313
-0.013797
-0.075310
-0.023330
-0.049270
-0.122486
-0.027623
0.006867
-0.106098
-0.145024
-0.059594
-0.038032
-0.072927
-0.046172
0.032870
0.024283
0.013505
-0.028689
0.012081
0.036431
0.055332
0.053341
0.053255
0.152989
0.025502
0.050955
0.099517
0.041220
0.093205
0.133164
0.050218
0.156115
0.157017
0.108470
0.135266
0.065417
0.086766
0.035979
-0.038475
0.095779
0.048861
0.012369
0.047815
-0.019573
0.015719
-0.057828
-0.002990
-0.077563
0.008981
-0.064717
-0.066157
-0.069967
0.018412
-0.043014
-0.151559
-0.088327
-0.092220
-0.067141
-0.074714
-0.055576
-0.065338
-0.068842
-0.052938
-0.072596
-0.044834
-0.054081
-0.134236
-0.004292
-0.070336
-0.156566
0.027401
-0.091895
-0.059318
-0.089385
-0.183529
-0.071747
-0.110525
0.293442
0.562837
0.932583
1.222249
1.308437
1.346948
1.231800
0.936390
0.549693
0.230495
0.035030
-0.220922
-0.269060
-0.336742
-0.299418
-0.256693
-0.210792
-0.118815
-0.114123
-0.082108
-0.082912
-0.064884
-0.057857
-0.006041
-0.066167
-0.006170
0.023331
0.039085
-0.054721
-0.022937
-0.066240
-0.016503
-0.016859
-0.083998
-0.024647
-0.022738
0.051217
0.059192
0.026366
-0.062042
0.093605
0.082493
0.088910
0.068996
0.051353
0.099561
0.117573
0.101333
0.073334
0.190848
0.129183
0.149869
0.225370
0.284538
0.305176
0.138320
0.279515
0.268876
0.272803
0.363628
0.331905
0.457885
0.424058
0.433091
0.432989
0.430433
0.329907
0.437611
0.473918
0.518335
0.467929
0.469623
0.482122
0.496812
0.441460
0.504636
0.545837
0.457886
0.431663
0.464755
0.379823
0.412082
0.385423
0.291575
0.362323
0.398862
0.241762
0.294349
0.210281
0.160589
0.234144
0.201469
0.112828
0.146985
0.176624
0.155219
0.055966
0.066800
0.005546
0.049633
0.092657
0.103493
0.019760
-0.033215
0.025461
0.060280
0.022928
0.039631
0.001800
0.073902
0.019781
-0.005073
0.101656
0.065930
-0.026335
-0.008455
0.073087
0.013472
-0.031143
0.125160
0.001704
0.076022
-0.020479
-0.080737
0.058086
-0.021771
0.076100
-0.043752
-0.032403
0.054671
0.063960
0.011422
0.042104
0.033768
0.036560
-0.016789
0.033673
0.071985
0.038645
0.090696
0.001718
0.069416
-0.047374
-0.044561
0.042043
-0.001091
-0.022576
0.076529
-0.025669
0.009900
0.011098
0.005141
0.037886
0.074315
0.053104
-0.011171
-0.037481
0.003333
0.011563
0.036709
-0.003372
0.018748
0.055811
0.103579
-0.067235
0.071322
-0.055195
0.037789
-0.067346
0.063798
0.045988
0.013397
0.042210
0.011562
0.023393
-0.000644
0.055159
0.039782
0.074973
-0.028587
0.042958
-0.000601
-0.003881
0.041024
0.035631
0.022717
0.006362
0.108433
0.035868
-0.071499
0.024136
-0.030673
0.092094
-0.023202
0.004424
0.048315
0.001336
0.159448
0.124956
0.045307
0.091345
0.009465
0.130797
0.052508
0.136450
0.090419
0.163501
0.204602
0.183231
0.096147
0.155634
0.186172
0.178190
0.176662
0.318276
0.238922
0.277379
0.257265
0.192219
0.246206
0.126013
0.203723
0.241006
0.196190
0.212035
0.162370
0.200550
0.078268
0.146497
0.092107
0.172515
0.173004
0.067949
0.061804
0.133007
0.112989
0.043483
0.063538
0.091214
0.083629
0.027471
0.086265
0.006345
0.029784
0.086245
0.144246
0.015173
-0.012750
-0.031201
0.010820
0.050450
0.070400
-0.018811
0.059051
0.047877
0.027545
-0.022068
0.022660
-0.007854
0.066437
0.039385
0.092726
-0.051585
0.035587
-0.090617
-0.056614
-0.008317
0.230231
0.374474
0.706999
1.083571
1.306169
1.447133
1.441484
1.271252
0.994913
0.630163
0.313027
0.030188
-0.127484
-0.356307
-0.246632
-0.165551
-0.080308
-0.010903
0.023227
0.044174
-0.025676
0.069965
0.081366
0.005392
0.058225
-0.008684
0.056369
0.007800
0.080334
0.069986
0.098624
0.077406
0.033184
0.086641
0.105621
0.002065
0.063416
0.079552
0.129772
0.118527
0.041861
0.060452
0.140498
0.127628
0.169457
0.067910
0.125961
0.206922
0.114011
0.181995
0.266960
0.132999
0.278450
0.279601
0.248147
0.279980
0.335770
0.339628
0.308602
0.389538
0.415199
0.404079
0.480813
0.460981
0.413704
0.537375
0.491449
0.541931
0.522558
0.500239
0.557944
0.569409
0.528636
0.467865
0.529873
0.544115
0.545267
0.536611
0.479890
0.532015
0.429213
0.410649
0.426828
0.394374
0.416677
0.439222
0.345664
0.282562
0.294703
0.316442
0.247552
0.341890
0.214237
0.208986
0.114265
0.167684
0.253350
0.195496
0.079829
0.124290
0.065527
0.078178
0.070760
0.061590
-0.031400
0.011919
0.024999
0.033666
0.035618
-0.004870
0.033621
0.023370
0.071079
-0.042819
-0.013623
0.013054
0.010714
0.000121
-0.027034
-0.010980
0.062520
-0.000226
-0.025267
-0.003387
-0.016234
0.126631
0.121050
-0.018500
-0.023556
0.020587
-0.021042
0.041211
-0.026995
0.008514
-0.027986
0.007119
0.061594
0.010716
-0.025491
-0.032110
0.047543
-0.037238
-0.011219
0.020599
0.023051
-0.002364
-0.083071
-0.015403
-0.008717
0.014676
0.087656
0.011795
-0.041791
0.016738
-0.043578
0.000328
0.004362
0.003764
0.022634
0.009217
-0.058715
0.037718
0.018540
-0.017326
-0.043841
-0.102242
-0.029892
-0.032526
-0.088439
-0.048841
-0.007987
0.005920
-0.076412
0.034359
-0.007029
-0.012793
-0.018488
0.088139
0.035855
-0.035545
-0.048756
-0.037535
0.073778
-0.053747
-0.069529
-0.023985
-0.094805
-0.071541
0.013558
-0.097912
0.010861
0.027601
-0.078958
0.028936
-0.073033
-0.070038
0.047038
-0.011386
-0.066529
-0.074846
-0.029137
0.011815
0.019497
0.016674
0.068258
0.038452
0.049313
0.024155
0.098376
0.096658
0.090366
0.096221
0.137955
0.135397
0.061300
0.086296
0.093503
0.138818
0.152005
0.115403
0.176763
0.189952
0.139129
0.123372
0.052560
0.134694
0.091596
0.052352
0.009483
0.093596
0.068886
-0.013580
0.017368
-0.037086
-0.032852
-0.001914
0.005940
0.080015
-0.049073
-0.090809
-0.121881
0.026939
-0.066930
-0.058810
-0.061419
-0.106230
-0.049369
-0.008581
-0.107490
-0.141148
-0.060250
-0.091970
-0.132649
-0.108115
0.053366
-0.080062
-0.107292
-0.088720
-0.058985
-0.096258
-0.133975
0.013886
-0.124984
-0.171422
-0.112936
-0.113261
-0.231557
-0.121926
0.066323
0.343289
0.608739
0.935224
1.140320
1.365963
1.371553
1.134601
0.814550
0.417715
0.165317
-0.071084
-0.349061
-0.325671
-0.381492
-0.360751
-0.258733
-0.302233
-0.141755
-0.052534
-0.075265
-0.066826
-0.120468
-0.149917
-0.079571
-0.032254
-0.072457
-0.143848
-0.111411
-0.089699
-0.107716
-0.031014
-0.054921
-0.090533
-0.095929
-0.010365
-0.049036
-0.012005
-0.115363
-0.024645
0.022229
-0.156272
-0.026741
0.034051
-0.030888
-0.049505
0.069184
0.044334
0.067282
0.121949
0.124962
0.115320
0.151377
0.143031
0.164300
0.164552
0.218330
0.286349
0.265812
0.202536
0.245750
0.242695
0.255456
0.287843
0.389066
0.322579
0.374846
0.421253
0.402312
0.375433
0.404765
0.295968
0.436984
0.444823
0.359195
0.472560
0.462196
0.346404
0.402491
0.440769
0.343128
0.327164
0.338902
0.245269
0.270424
0.243443
0.237740
0.168544
0.199008
0.239422
0.159390
0.105824
0.120121
0.102601
0.046999
0.008315
0.019079
0.141544
0.008769
0.017280
-0.009358
-0.058844
-0.038049
-0.053503
0.000583
0.014875
0.032890
-0.048785
-0.073562
-0.048106
-0.076385
-0.007863
-0.149691
-0.163170
-0.086609
-0.050178
-0.096784
-0.123607
-0.131240
-0.108826
-0.048997
-0.038420
-0.039954
-0.133837
-0.063887
-0.170414
-0.092692
-0.134217
-0.013891
-0.175233
-0.144945
-0.075407
-0.046312
-0.117924
-0.020690
-0.159321
-0.068932
-0.092857
-0.071191
-0.107058
-0.155515
-0.166487
-0.092809
-0.071581
-0.076133
-0.109964
-0.040354
-0.119068
-0.063665
-0.092813
-0.062585
-0.081659
-0.073699
-0.112405
-0.097747
-0.129979
-0.123932
-0.066487
-0.148889
-0.071433
-0.039963
-0.098205
-0.075580
-0.039205
-0.010189
-0.094599
-0.094269
-0.066108
-0.046575
-0.023187
-0.138105
0.048007
-0.087219
-0.216286
-0.070235
-0.062815
0.009886
-0.082306
-0.075449
-0.108516
-0.021540
-0.055793
-0.165748
-0.087470
-0.086283
-0.106869
-0.053747
0.015663
-0.014278
-0.028536
-0.164473
-0.090518
-0.061847
-0.111574
-0.057620
-0.103351
-0.089706
-0.045968
-0.021232
-0.061076
-0.037426
-0.035171
-0.023415
0.029986
-0.033579
-0.072340
0.001499
-0.033985
0.043407
0.057105
0.047928
0.003270
0.044582
0.084027
0.165912
0.111374
0.035622
0.066655
0.132562
0.143941
0.169629
0.078309
0.184720
0.113477
0.130799
0.115437
0.069859
0.110635
0.074965
0.094038
0.059752
0.034554
0.042161
0.048164
-0.022137
-0.017622
0.046431
-0.024726
-0.054395
0.066223
-0.050448
0.016853
0.026151
-0.009466
-0.056925
-0.007935
-0.119329
0.046321
-0.039767
0.007594
-0.026405
-0.097838
0.004386
-0.039599
-0.026362
-0.100622
0.004495
-0.085908
-0.105000
-0.049301
0.023476
-0.031867
-0.104803
-0.098707
-0.143292
-0.040826
-0.111541
-0.065031
0.153124
0.335192
0.670067
1.052226
1.228674
1.377940
1.259556
1.127133
0.842388
0.406745
0.169480
-0.126076
-0.281374
-0.361403
-0.317466
-0.306372
-0.161639
-0.089609
-0.065871
-0.003611
-0.053724
-0.011716
-0.037275
-0.031180
-0.021739
-0.100277
0.080066
0.006975
-0.034867
-0.029731
-0.010969
-0.020937
-0.011630
0.035799
0.000201
0.095778
0.004047
-0.002619
-0.033295
-0.034416
0.004814
0.112907
0.034926
0.094882
0.139123
0.091082
0.088679
0.123700
0.094451
0.213989
0.138270
0.186737
0.208093
0.273905
0.308565
0.200087
0.298055
0.296080
0.332877
0.335527
0.325085
0.326338
0.385152
0.424627
0.431715
0.482236
0.491408
0.436554
0.437363
0.503599
0.491238
0.568713
0.465974
0.440803
0.566372
0.475891
0.486183
0.525910
0.557294
0.468636
0.426304
0.417769
0.441692
0.426461
0.408213
0.320254
0.324978
0.398328
0.279231
0.323160
0.287761
0.280133
0.257805
0.182097
0.243809
0.220982
0.173212
0.166601
0.134995
0.068810
0.134537
0.136345
0.153070
0.133858
0.074130
0.046104
0.029349
0.094399
0.063806
0.060999
0.056505
0.009681
0.072985
0.072065
0.048483
0.048343
0.050028
0.080475
0.072298
0.026507
0.065536
0.017852
0.015329
0.019918
-0.034492
0.088294
-0.000598
0.000976
0.005330
0.102770
0.010341
-0.006500
0.077495
0.020610
-0.010150
0.019289
0.138900
0.111402
0.026975
0.088613
0.140413
0.090142
0.009644
-0.002224
0.098651
0.037490
0.031522
0.012310
-0.046620
0.099127
0.047076
0.077025
0.071998
0.051632
0.084668
0.035868
0.045366
0.022860
0.097381
0.056678
0.030934
0.030827
0.037274
0.046459
0.046630
0.124321
0.071025
0.089893
0.031259
0.078359
0.044795
0.117676
0.157341
0.015977
0.068986
0.061090
0.037661
0.031571
0.054062
0.098627
0.027807
0.167261
0.062812
0.011417
0.058128
0.013014
0.066209
0.082772
0.161187
0.072566
0.175490
0.078510
0.022239
0.035085
-0.022051
0.092771
0.023707
0.119584
0.074766
0.049924
0.058368
0.125763
0.085190
0.130862
0.042335
0.162910
0.105592
0.113630
0.178310
0.142205
0.224666
0.216505
0.250589
0.167671
0.184112
0.269801
0.242630
0.260130
0.326103
0.260616
0.245256
0.266492
0.173385
0.215944
0.222826
0.167973
0.198912
0.104056
0.188866
0.260049
0.145285
0.183491
0.171606
0.134482
0.084360
0.184429
0.127818
0.118784
0.058968
0.095458
0.095770
0.111693
0.073166
-0.013617
0.180446
0.038832
0.054712
0.064633
0.050562
0.079134
0.063879
0.078653
0.056617
0.086112
0.099170
