0.056208
0.073529
0.017141
0.039218
-0.022832
0.068837
0.009930
0.022709
-0.017248
0.051895
0.006801
0.056618
0.021945
0.054465
0.007745
0.012421
0.025505
0.043774
-0.040490
-0.051125
0.037952
0.086707
0.043828
0.034222
0.035460
0.036468
0.056876
-0.007142
0.003351
0.015061
0.042433
-0.017848
0.138796
0.041423
0.032517
0.029283
-0.039390
0.047287
0.096108
0.074611
0.116240
0.073262
0.092253
0.036272
0.143902
0.154050
0.024898
0.189740
0.150756
0.139735
0.244286
0.161853
0.300199
0.181895
0.198542
0.223714
0.229865
0.215688
0.200720
0.212119
0.263005
0.185453
0.247961
0.143528
0.188229
0.165304
0.098910
0.135466
0.112630
0.066233
0.176031
0.157567
0.125856
0.084931
0.095251
0.114546
0.103319
0.048115
0.076988
0.016454
0.107276
0.084237
0.017508
0.119391
0.086684
0.064712
0.041030
0.101197
0.028833
0.022838
0.046516
0.077573
0.095485
0.063515
0.101839
0.026763
0.053640
0.021857
0.013927
0.096448
0.096870
0.076026
0.006183
0.027907
0.001746
-0.042726
-0.051329
-0.033882
0.193471
0.333836
0.686324
1.035798
1.254658
1.413343
1.361592
1.194695
0.950208
0.649180
0.406200
0.127159
-0.079737
-0.204835
-0.230088
-0.255712
-0.163066
-0.002219
-0.005011
0.081839
0.034193
0.006325
0.074442
0.013052
0.125009
0.093677
0.113555
0.056517
0.037531
0.120196
0.116253
0.046394
0.073811
-0.025440
0.103499
0.059457
0.053938
0.108994
0.150538
0.081001
0.042977
0.070365
0.185199
0.109237
0.207824
0.081620
0.123260
0.210996
0.174930
0.234637
0.151354
0.222272
0.120070
0.255934
0.230084
0.276320
0.259153
0.321991
0.298173
0.331254
0.349091
0.349133
0.386822
0.413089
0.422606
0.498048
0.483381
0.482752
0.438872
0.507653
0.550149
0.528923
0.520049
0.640438
0.524982
0.651429
0.552712
0.561482
0.539869
0.580825
0.591816
0.507245
0.488012
0.546993
0.511886
0.573187
0.443830
0.492273
0.497771
0.386417
0.423729
0.400034
0.371206
0.314246
0.310042
0.274273
0.313990
0.289091
0.209852
0.211349
0.186905
0.231830
0.201631
0.127295
0.124389
0.247957
0.132141
0.111613
0.207910
0.163287
0.152233
0.127549
0.179769
0.094023
0.128930
0.086082
0.132304
0.208395
0.128895
0.118137
0.053660
0.174305
0.075786
0.100008
0.184384
0.102518
0.064126
0.101941
0.091635
0.094763
0.041238
0.076947
0.102714
0.113011
0.035342
0.118270
0.090201
0.020026
0.163195
0.139085
0.074389
0.039948
0.039358
0.123267
0.120118
0.197401
0.105366
-0.007650
0.047317
0.040019
0.047239
-0.002947
0.018273
0.079763
0.052472
0.097859
0.057562
0.173435
0.025639
0.105240
0.120016
0.054140
0.017815
0.051949
0.082608
0.145810
0.107650
0.101876
0.002084
0.077213
0.061988
0.096093
0.036929
0.055632
0.107396
0.013001
0.047532
0.075233
0.056098
0.125371
0.067926
0.088024
0.034875
0.004294
0.129919
0.070418
0.081061
0.059870
0.079788
0.047157
0.062522
0.131511
0.052104
0.018330
0.050955
0.077646
0.086311
0.069182
0.053276
0.085805
0.057281
0.023703
0.112300
0.078466
0.009463
0.152503
0.022945
0.035968
0.053040
0.094177
0.031477
0.073455
0.072383
0.058915
0.149090
0.160382
0.136636
0.091619
0.124041
0.221052
0.150534
-0.006644
0.150832
0.090471
0.186366
0.213146
0.201700
0.227726
0.243341
0.152489
0.205308
0.165994
0.143401
0.187408
0.222595
0.169424
0.204278
0.254971
0.149747
0.216037
0.145842
0.133025
0.170383
0.144505
0.103863
0.149136
0.051324
0.038068
0.073761
0.001546
0.146916
0.093774
0.032527
0.135636
0.086257
-0.016240
0.023252
0.015646
0.067633
0.068509
0.009073
0.072209
-0.019203
-0.036915
-0.006067
-0.043344
0.024841
0.023071
0.052310
0.057428
-0.004020
0.095653
0.046582
-0.021718
-0.033920
-0.024265
-0.002633
0.001110
-0.045623
-0.129855
-0.035996
-0.090044
-0.006803
0.101526
0.357410
0.635242
0.956839
1.298940
1.383530
1.361597
1.185285
0.828191
0.611748
0.199542
-0.000791
-0.163484
-0.267392
-0.366869
-0.304649
-0.216832
-0.187028
-0.081350
0.006008
-0.017956
0.015982
-0.047985
0.029289
0.063034
0.044272
-0.030918
0.016984
0.010946
0.008522
-0.032940
-0.025252
0.058716
-0.012832
-0.026072
-0.019465
0.032497
0.024137
0.039541
-0.051053
0.091359
0.035006
-0.007817
0.078087
0.022321
0.033970
0.012705
-0.027323
0.028580
0.102852
0.110909
0.103786
0.139969
0.164853
0.106035
0.176291
0.196859
0.204004
0.236040
0.193806
0.291459
0.248942
0.301864
0.292141
0.385835
0.363086
0.319413
0.400490
0.360422
0.367419
0.351021
0.388726
0.459947
0.483763
0.479433
0.439873
0.477079
0.486181
0.512738
0.417043
0.436523
0.379625
0.485264
0.474405
0.381466
0.402607
0.386301
0.278795
0.350909
0.331398
0.237952
0.222714
0.318188
0.197263
0.234485
0.118923
0.208990
0.088705
0.134233
0.165919
0.108319
0.034647
0.010461
0.075364
0.078030
0.048748
-0.031631
-0.003078
0.037480
0.004090
-0.114567
0.074502
-0.075706
-0.061934
0.020220
0.011143
-0.040554
-0.009010
0.006758
-0.098049
0.002506
-0.047220
-0.073885
-0.012577
-0.062561
-0.069458
0.023759
-0.032087
-0.067108
0.001593
-0.083096
-0.088029
-0.031350
0.008494
-0.025540
-0.007862
0.011492
0.029779
-0.005315
-0.128737
-0.076210
-0.060038
0.016798
-0.039706
-0.071178
-0.065084
-0.019404
-0.012462
0.005977
0.027369
-0.036017
0.029968
-0.059900
-0.019993
-0.002466
-0.040734
-0.048081
-0.093188
-0.032138
-0.020456
-0.035681
-0.083082
-0.022602
-0.020506
-0.003328
-0.031744
-0.067569
0.001218
-0.071526
-0.024630
-0.006592
-0.005943
-0.078887
-0.049332
-0.020467
0.098228
-0.061075
-0.002031
-0.026235
-0.033791
-0.049098
-0.067068
-0.068095
-0.028232
-0.113059
-0.059513
-0.081891
-0.087656
-0.023112
-0.008766
-0.013848
-0.102266
0.030340
-0.085183
-0.125454
0.000061
-0.050624
-0.108287
-0.053028
-0.064665
-0.095777
-0.115957
-0.065362
-0.055254
-0.100752
0.010581
-0.084331
0.011117
-0.069576
0.050571
0.013453
-0.129769
-0.029432
0.061870
0.011464
0.009672
-0.009001
-0.037073
0.039448
0.019818
0.091066
0.093875
0.016996
0.175378
0.145004
0.121823
0.112891
0.060704
0.136367
0.207606
0.108452
0.121483
0.110620
0.153780
0.113572
0.166138
0.138762
0.133258
0.090546
0.024697
0.114740
0.095090
0.046417
0.059227
0.049143
0.049368
0.029538
0.094659
0.013706
-0.042391
-0.048832
0.024677
-0.024828
-0.006500
0.003272
0.026337
-0.044927
-0.026211
0.015712
-0.014092
-0.048439
-0.030986
0.041389
-0.032880
-0.091872
-0.009778
-0.040049
0.016794
0.005048
-0.032891
0.024814
-0.043600
-0.002156
0.000640
-0.018420
-0.019294
-0.016724
0.006635
0.043721
-0.013654
-0.069632
-0.109027
-0.086126
0.071445
0.336692
0.641600
1.009025
1.253832
1.299934
1.322928
1.157661
0.878088
0.602859
0.263401
-0.070797
-0.198524
-0.292373
-0.304414
-0.324336
-0.303095
-0.169962
-0.162046
-0.122069
-0.005502
-0.078782
-0.029212
-0.000827
-0.014560
0.051843
-0.001354
-0.052427
-0.015741
-0.000856
-0.017937
0.095205
-0.013564
-0.095962
-0.072483
-0.015390
-0.016393
0.003493
-0.006237
0.064461
0.059783
0.035859
0.041827
0.131681
0.081101
0.040901
0.048044
0.153550
0.060856
0.102293
0.129124
0.133523
0.115286
0.110928
0.119579
0.209554
0.203194
0.233748
0.257698
0.265310
0.357589
0.310814
0.312332
0.354741
0.414202
0.382435
0.420946
0.409569
0.403871
0.456945
0.450538
0.433779
0.468575
0.515293
0.524264
0.435078
0.524892
0.545574
0.458317
0.539032
0.462895
0.504882
0.469057
0.511490
0.476469
0.414386
0.408225
0.499514
0.352101
0.382683
0.371473
0.282223
0.214553
0.267212
0.287868
0.242424
0.234998
0.203121
0.228899
0.142648
0.139737
0.263476
0.172182
0.076481
0.155102
0.054168
0.110086
0.117806
0.109448
-0.015554
0.104180
0.019068
0.107737
0.081456
0.047776
0.075222
0.091423
0.027189
0.051295
0.035995
-0.015650
0.099302
0.041219
0.043931
0.033514
0.021776
0.083012
0.026925
0.094034
0.096137
0.005857
0.068830
0.084913
0.058674
0.048954
-0.016313
0.087941
0.085536
0.054415
-0.031753
-0.017619
0.115957
0.070425
0.015448
0.029888
0.027497
0.034033
0.148422
0.044102
0.093580
0.008404
0.022567
0.106142
0.099115
0.055189
0.030578
0.048548
0.103087
0.068661
-0.021992
0.066727
0.136270
0.078434
-0.025237
0.056261
0.053322
0.105976
0.127062
0.101671
0.039766
0.053351
0.169769
0.118376
0.071565
0.075156
0.141157
0.035123
0.049704
0.075918
0.073651
0.033620
0.078668
0.040840
0.068519
0.034724
0.045840
0.125670
0.140814
0.036858
0.097502
0.095152
0.110040
0.071267
-0.008036
0.047333
0.138606
0.048092
0.058190
0.087950
0.121936
0.097186
0.076443
0.042739
0.076185
0.113741
0.068822
0.084186
0.077918
0.093581
0.220465
0.129066
0.130604
0.096138
0.048094
0.091149
0.005317
0.137060
0.065323
0.207602
0.150923
0.183800
0.131599
0.152544
0.209602
0.260821
0.310586
0.254253
0.238801
0.231341
0.269811
0.366787
0.304541
0.240678
0.266801
0.291119
0.223608
0.229500
0.167109
0.265002
0.189338
0.203607
0.228513
0.095570
0.104131
0.248837
0.130009
0.213005
0.201172
0.201785
0.106608
0.183845
0.076624
0.078331
0.082525
0.126206
0.155878
0.084429
0.094908
0.118235
0.081366
0.108206
0.056442
0.079754
0.141895
0.093412
0.117655
0.075001
0.050707
0.087037
0.122737
0.039279
0.083828
0.142727
0.071297
0.116802
0.038203
0.079099
0.098708
0.079322
0.023426
-0.013314
-0.003875
0.060204
0.210987
0.447454
0.662832
1.131468
1.410915
1.500000
1.441035
1.261547
0.899211
0.686973
0.428015
0.089921
-0.086993
-0.250759
-0.334424
-0.243808
-0.148901
-0.081925
-0.016105
0.092226
0.097537
0.055893
0.075037
0.133651
0.085276
0.074760
0.113763
0.105429
0.115002
0.062279
0.071466
0.165058
0.131465
0.034031
-0.000567
0.115552
0.050432
0.084040
0.064512
0.089493
0.166861
0.134750
0.132950
0.160691
0.155805
0.194651
0.175727
0.125360
0.193046
0.103430
0.229774
0.240764
0.222283
0.158504
0.234073
0.276604
0.301402
0.341044
0.292276
0.348850
0.302293
0.335012
0.436448
0.341860
0.441485
0.386113
0.497318
0.481903
0.536667
0.460420
0.519069
0.487127
0.518168
0.492405
0.547097
0.505496
0.500676
0.541438
0.574938
0.597974
0.542640
0.468097
0.524451
0.598812
0.447630
0.385695
0.404652
0.493737
0.421338
0.429223
0.384824
0.362389
0.314078
0.235519
0.316672
0.325258
0.259312
0.238579
0.216343
0.127323
0.117979
0.188797
0.199367
0.166622
0.129145
0.105030
0.126439
-0.001302
0.147503
0.157312
-0.002241
0.066562
0.039253
0.078505
0.091411
0.043523
0.037007
0.095251
0.067368
0.054814
0.112632
0.123435
0.061734
0.071670
0.073627
0.027643
0.059681
0.011768
0.029061
0.078274
0.065084
0.035050
0.070065
0.075075
0.070669
0.056659
-0.050340
0.068476
0.118054
0.016188
-0.001237
0.055027
0.003329
0.084618
-0.026443
0.023573
-0.017887
-0.014644
0.026420
0.007396
0.080844
-0.004051
0.032442
0.012227
-0.010883
-0.062780
0.155135
-0.043181
-0.046387
0.022435
0.064867
0.016149
0.016034
-0.017207
-0.030694
-0.045993
-0.025960
0.006108
0.006491
0.084712
0.042008
-0.013882
0.060821
0.008159
-0.028789
-0.055984
-0.002366
0.072868
-0.049726
0.055707
0.074279
-0.032780
-0.036945
-0.041295
-0.004110
-0.018047
-0.042718
-0.006516
0.033333
-0.011423
0.051125
-0.042687
0.029126
-0.051391
0.006198
-0.056411
0.019848
0.017340
0.100090
-0.055395
0.024601
-0.043941
-0.020546
-0.034630
0.019157
-0.020217
-0.055260
0.009439
0.077457
-0.011814
0.003606
-0.018989
0.029526
0.008425
0.059154
-0.006455
-0.038011
0.072636
0.118289
0.085336
0.103797
0.099087
0.048206
-0.005719
0.117981
0.070706
0.201253
0.077611
0.255324
0.097012
0.134916
0.202501
0.189479
0.150271
0.120249
0.101009
0.175960
0.157683
0.145713
0.073023
0.139982
0.041494
0.079378
0.110460
0.057594
0.008797
-0.011497
-0.048645
-0.047592
0.024901
-0.033131
0.021359
0.049089
-0.029956
0.051891
-0.061111
-0.013088
0.003371
-0.014295
-0.086447
0.007814
-0.041647
-0.025877
-0.007660
0.051365
-0.099712
-0.035643
-0.017038
0.010833
-0.113095
-0.032360
-0.145714
-0.043803
-0.010911
-0.004636
-0.085694
-0.071720
-0.063492
-0.121029
-0.101195
-0.122104
-0.107778
-0.126719
-0.007851
0.283060
0.571077
0.900142
1.152513
1.373168
1.317541
1.160334
0.823671
0.482341
0.252693
0.020859
-0.177107
-0.298458
-0.373718
-0.334601
-0.287234
-0.218577
-0.157640
-0.107744
-0.130819
-0.112725
-0.139897
0.030507
-0.031049
-0.046472
-0.038600
-0.019373
-0.078432
-0.055975
-0.053320
-0.039969
-0.004828
0.036040
-0.054665
-0.046604
-0.098115
-0.110149
-0.091151
-0.042605
-0.060597
-0.049419
-0.077989
-0.018143
-0.011605
-0.014947
0.085836
0.000405
0.049193
-0.029741
0.050860
-0.012752
0.063388
0.045418
0.137541
0.099025
0.253930
0.155113
0.143816
0.096380
0.266002
0.219288
0.280983
0.277856
0.225330
0.248254
0.277770
0.417042
0.368975
0.361201
0.428783
0.324188
0.455374
0.341052
0.385798
0.339504
0.387980
0.389932
0.363022
0.483995
0.401796
0.374440
0.369411
0.433285
0.336807
0.291690
0.307810
0.345520
0.281806
0.338503
0.301824
0.270934
0.178623
0.219324
0.203923
0.138290
0.098627
0.015288
0.143511
0.062529
0.152025
0.011967
0.042612
0.028093
0.008607
-0.018409
-0.018238
-0.056361
-0.101482
-0.051620
-0.055354
-0.086211
-0.118798
0.000959
-0.014629
-0.080928
-0.056400
-0.033656
-0.114448
-0.056198
0.060547
-0.090842
-0.027616
-0.058595
-0.064077
-0.108823
-0.045357
-0.099673
-0.153249
-0.042779
-0.045127
-0.032051
-0.072537
-0.024660
-0.032631
-0.072309
-0.055598
-0.060177
-0.033118
-0.037244
-0.040618
0.039366
-0.122347
-0.012658
-0.067443
-0.114277
-0.077005
-0.063410
-0.063900
-0.083073
-0.075158
-0.053664
-0.062502
-0.128323
-0.054496
-0.093353
-0.085988
-0.066170
-0.005474
0.052344
-0.093258
-0.093334
-0.049495
-0.089801
-0.012496
-0.069904
-0.025508
-0.003033
-0.104406
-0.096447
-0.044641
-0.103556
-0.002629
0.038378
-0.080318
-0.152849
-0.077121
-0.048881
-0.128117
-0.017639
-0.055787
-0.037726
-0.069047
0.013231
-0.026710
-0.007150
-0.121714
-0.030032
-0.120260
-0.023859
-0.102212
-0.036763
-0.113755
-0.121173
-0.016359
-0.078678
0.060670
-0.095872
-0.076256
-0.026093
-0.025970
-0.059844
-0.049374
-0.074338
-0.015014
-0.009864
-0.018108
-0.012461
-0.006534
-0.006253
-0.000331
-0.055894
0.015985
-0.039386
0.000777
-0.041715
-0.025211
0.031501
0.038079
0.008930
0.026176
0.043008
0.051424
0.050847
0.167170
0.070017
0.119713
0.133405
0.091646
0.183080
0.080455
0.071516
0.170225
0.155362
0.171058
0.075966
0.129353
0.008863
0.125427
0.172814
0.101026
0.046564
0.027050
0.047990
0.079371
0.042989
-0.051876
-0.035333
0.045700
0.001100
-0.081175
-0.017583
-0.040711
0.012056
-0.010688
-0.020637
-0.013849
-0.044930
-0.022000
-0.007459
-0.058562
-0.079550
-0.042480
-0.021347
-0.128875
0.008995
-0.043522
-0.100405
-0.001576
-0.015300
0.015245
0.033545
-0.072330
-0.023936
0.019299
-0.101779
-0.032772
-0.104701
-0.096023
-0.093071
-0.153001
-0.042117
0.040657
-0.018526
0.292123
0.593397
0.960098
1.230697
1.370499
1.367164
1.180929
0.854875
0.558741
0.296814
0.090198
-0.141428
-0.229135
-0.339598
-0.322678
-0.193129
-0.228609
-0.120162
-0.062119
-0.108433
-0.092373
-0.003765
0.001622
0.031492
-0.050183
-0.034529
0.022160
0.007393
0.019142
-0.033811
-0.035485
0.084925
0.002306
-0.000093
0.013403
0.083459
0.084513
0.045839
0.045084
0.062747
0.020355
0.024535
0.090055
0.112732
0.061396
0.184415
0.078612
0.076869
0.062103
0.172027
0.086783
0.148928
0.139207
0.141731
0.231154
0.265609
0.269953
0.290675
0.256748
0.263101
0.249092
0.266568
0.328953
0.394608
0.380641
0.435226
0.421853
0.484385
0.459578
0.447608
0.476750
0.521646
0.479271
0.478722
0.456817
0.512901
0.520741
0.512840
0.513262
0.444463
0.459018
0.459597
0.522255
0.446731
0.413717
0.355883
0.355599
0.324512
0.347943
0.332367
0.327841
0.306326
0.309292
0.240181
0.241265
0.203688
0.238463
0.207013
0.155921
0.126529
0.222421
0.065173
0.164809
0.087166
0.054581
0.055433
0.163507
0.086473
0.107484
0.078348
0.060591
-0.019574
0.083615
0.082399
0.032561
0.032753
0.053439
0.010540
0.048870
0.058316
0.064483
0.038138
-0.004884
-0.010827
0.053635
0.067287
0.064409
-0.000665
0.060336
-0.000606
-0.027468
0.043891
0.052045
-0.012715
0.077202
0.006244
0.001717
-0.025474
0.045786
-0.010413
0.076753
0.032574
0.065669
0.044189
0.021671
-0.011244
-0.010306
0.059366
0.030744
0.101547
-0.003124
-0.054674
-0.017592
0.035970
0.106641
0.070417
0.027739
0.072506
0.015643
0.016122
0.057492
0.026701
0.067738
-0.039892
-0.024027
0.001868
0.064999
0.077150
0.091076
0.075805
0.085151
0.084022
-0.004767
-0.072261
0.115344
0.112378
0.055246
0.014145
0.083998
-0.021359
0.065063
0.029366
0.011091
-0.017171
0.045562
-0.009505
0.039042
0.019567
0.046135
0.064216
0.056733
0.037015
0.100891
0.096354
0.165789
0.031296
0.048132
-0.001867
0.060693
0.050163
0.037169
-0.007893
0.032625
0.052282
0.014307
-0.005246
0.088608
0.050838
0.034379
0.148982
0.083534
0.044439
-0.003252
0.099361
0.106366
0.077024
0.187598
0.122266
0.144754
0.091426
0.125653
0.104237
0.080899
0.194181
0.131048
0.072959
0.181319
0.238280
0.194834
0.118408
0.240722
0.312452
0.231026
0.175758
0.202381
0.193574
0.134228
0.144185
0.202714
0.185368
0.189557
0.167294
0.109855
0.098806
0.113456
0.077657
0.196152
0.058870
0.084005
0.065852
0.104575
0.069967
0.013250
-0.027233
0.055654
0.039806
0.112789
0.053091
0.069865
0.074432
-0.009596
0.033862
0.005882
-0.050927
0.009398
-0.009851
0.004399
0.049963
0.076500
0.064255
0.089622
0.013827
0.087504
-0.000150
0.045912
-0.063108
-0.033583
-0.012888
-0.102277
-0.027801
-0.072604
-0.024297
0.100107
0.360839
0.631105
0.970936
1.189235
1.419649
1.398679
1.188764
0.977417
0.589254
0.360441
0.022777
-0.231456
-0.236279
-0.379372
-0.264742
-0.249174
-0.204541
-0.049580
-0.073661
-0.021807
0.031062
-0.008304
-0.011605
0.062348
0.025887
0.073277
0.018996
0.020336
0.006005
-0.002195
-0.036971
0.065760
0.020830
-0.030523
0.056758
0.008409
-0.021373
0.085945
0.045949
-0.010395
0.053910
0.007072
0.038129
-0.015943
0.008371
0.020947
0.005186
0.156384
0.106305
0.084260
0.105804
0.142860
0.173689
0.266268
0.216387
0.217474
0.203070
0.162588
0.182275
0.296488
0.237866
0.307694
0.312661
0.361764
0.368924
0.486290
0.461752
0.439064
0.365968
0.484034
0.449222
0.564650
0.426218
0.466363
0.542499
0.468033
0.490821
0.408768
0.475363
0.522320
0.409121
0.441917
0.459533
0.284997
0.376768
0.343982
0.357671
0.363220
0.314091
0.211237
0.312128
0.316517
0.167362
0.222332
0.231810
0.188157
0.182847
0.170682
0.133168
0.167369
0.138756
0.068886
0.098504
0.014552
0.030925
0.071284
0.069105
0.040694
0.025242
0.004130
0.024966
0.061653
0.024116
-0.006298
0.031291
-0.022866
-0.024884
-0.096638
0.026344
-0.024868
-0.090947
0.040242
-0.030961
-0.051883
-0.000480
-0.041440
-0.018558
-0.075799
-0.028646
-0.020306
-0.031028
-0.061168
-0.009456
-0.023900
-0.041325
0.009626
-0.080494
-0.062100
-0.028221
-0.113953
-0.048999
-0.041412
-0.050084
-0.056263
-0.136173
-0.147484
-0.121300
-0.048323
-0.007700
0.000230
-0.093438
-0.127933
-0.081844
-0.044561
-0.030510
-0.031325
-0.046727
-0.117196
-0.134728
-0.097437
-0.052566
-0.094714
-0.053059
-0.085747
-0.061045
-0.126902
-0.096413
-0.092956
-0.101680
-0.024138
-0.128091
-0.126549
-0.110517
-0.061306
-0.099305
-0.081028
-0.092784
-0.006845
-0.142146
-0.148231
-0.027954
-0.046784
-0.078297
-0.089630
-0.138687
-0.046260
-0.040509
-0.080053
-0.056404
-0.106775
-0.136465
-0.000485
-0.083578
-0.080498
-0.056391
-0.168823
-0.122386
-0.101818
-0.080471
-0.105683
-0.127761
-0.037182
-0.077101
-0.155297
0.014089
-0.079206
-0.087256
-0.103452
-0.051010
-0.054825
-0.015130
-0.038085
-0.108543
-0.101422
-0.005181
-0.042678
0.021817
0.025507
0.119238
0.005610
-0.003981
-0.027465
0.013802
-0.017355
-0.005662
0.080345
0.134865
0.071650
0.064741
0.063694
0.037863
0.048104
0.081776
0.130339
0.009459
0.094681
0.104271
0.034216
0.037074
0.057353
-0.025525
0.020204
0.001155
-0.013980
-0.011417
0.017909
-0.075687
-0.022457
-0.027198
0.018306
-0.016397
-0.089333
-0.044839
-0.197223
-0.105784
-0.172710
-0.114361
-0.103629
-0.157622
-0.126076
-0.108460
-0.097351
-0.118574
-0.091409
-0.045741
-0.090461
-0.082407
-0.108334
-0.023694
-0.102371
-0.072775
-0.142605
-0.074851
-0.104839
-0.057921
-0.078198
-0.083043
-0.153827
-0.184411
-0.144075
-0.163554
-0.084385
-0.018492
0.189562
0.527684
0.809458
1.144431
1.210711
1.271218
1.122812
0.883962
0.412972
0.241160
0.027356
-0.225543
-0.312063
-0.519680
-0.448405
-0.325320
-0.267262
-0.125298
-0.192965
-0.160269
-0.129529
-0.083200
-0.166481
-0.110116
-0.110304
-0.139908
-0.027587
-0.094549
-0.019285
-0.050451
-0.060066
-0.089499
-0.084605
-0.049575
-0.127914
-0.092752
-0.003984
-0.024512
-0.045675
-0.139136
-0.052098
-0.013513
0.002043
-0.041878
0.094717
-0.009830
0.044425
0.043788
-0.001811
0.019622
0.007257
0.062992
0.040444
0.086707
0.055557
0.091326
0.127518
0.129433
0.205644
0.202605
0.180774
0.224008
0.251501
0.324474
0.329192
0.317076
0.268855
0.394500
0.386444
0.341744
0.361215
0.333898
0.328210
0.396354
0.402527
0.496223
0.444372
0.368065
0.428420
0.378480
0.417413
0.378622
0.374967
0.317731
0.317079
0.292493
0.211598
0.262941
0.329929
0.220913
0.231560
0.208439
0.254275
0.236430
0.170126
0.089092
0.133125
0.093788
0.142600
0.045092
0.042927
0.063669
0.013527
0.013291
0.082742
0.009429
0.022899
-0.024339
0.026782
-0.029743
-0.093774
0.042555
-0.076234
-0.082829
-0.049873
-0.041993
-0.069787
-0.116951
-0.004581
-0.061860
0.010183
-0.073897
0.037632
-0.020168
-0.101350
0.001299
-0.051327
-0.116508
-0.030767
-0.043242
0.027002
-0.099383
-0.060254
-0.061642
-0.120425
-0.081150
0.001050
-0.039789
-0.072287
-0.141775
-0.067549
-0.009186
-0.071738
-0.059496
-0.033873
0.037588
-0.011045
-0.070934
-0.047686
-0.032984
-0.043124
0.029500
-0.100049
-0.116953
0.003635
-0.094747
-0.062303
-0.002129
-0.079733
-0.045208
-0.037189
-0.068053
-0.070184
-0.039241
0.037363
-0.008229
-0.004114
-0.018995
-0.030994
-0.112086
-0.063363
-0.024055
-0.070949
-0.075731
0.002332
-0.035513
0.022339
0.000596
0.064470
0.006263
-0.032981
0.045580
0.049966
0.039096
-0.010652
-0.034780
-0.025102
-0.109054
-0.005449
-0.034363
-0.084236
-0.033660
-0.037205
0.024588
0.009063
0.003393
-0.019488
-0.065603
0.023768
0.040868
-0.008955
0.019555
0.001277
-0.066181
-0.013678
-0.030495
0.056488
0.055345
0.063091
0.023171
0.029646
0.030274
-0.026026
-0.011176
0.065707
0.024229
-0.002460
0.068624
0.123970
0.107077
0.128275
0.155866
0.122906
0.093956
0.169032
0.149310
0.275998
0.203325
0.188492
0.196108
0.111366
0.213165
0.172670
0.251365
0.241665
0.124172
0.190880
0.175448
0.098085
0.153012
0.129669
0.219248
0.192868
0.088982
0.143328
0.074364
0.056154
0.081524
0.045127
0.016187
0.059205
0.052075
0.056011
0.006617
-0.028804
0.021162
-0.061693
0.031676
0.069175
0.012666
0.085209
0.003478
0.029901
0.023170
0.077000
-0.008887
-0.035979
0.079238
0.027101
0.025305
0.079212
0.009834
0.054271
0.067176
0.015722
0.100221
0.055303
-0.041180
-0.041983
-0.131190
-0.072770
-0.001534
0.159007
0.321514
0.660853
0.971772
1.268893
1.436839
1.441691
1.156735
0.981590
0.681419
0.330572
0.139923
-0.078974
-0.229708
-0.225389
-0.276508
-0.213893
-0.035045
-0.127514
0.002000
0.034980
0.026784
0.093503
0.025472
0.058472
0.074872
0.094670
0.001863
0.067270
0.028339
0.075135
0.057667
0.105541
0.064278
0.059038
0.111211
0.034409
0.099141
0.087223
0.040132
0.053909
0.027484
0.131228
0.151588
0.091810
0.181163
0.151989
0.175424
0.210940
0.109228
0.167220
0.218521
0.180888
0.166210
0.190269
0.198352
0.282266
0.336428
0.375067
0.328223
0.314966
0.343624
0.351916
0.372403
0.402974
0.411528
0.498376
0.518607
0.463423
0.460750
0.442640
0.492663
0.576394
0.591859
0.594521
0.588258
0.583939
0.486179
0.599957
0.598050
0.553203
0.556140
0.507997
0.562946
0.571858
0.533853
0.453968
0.485140
0.372693
0.458838
0.432077
0.379355
0.331660
0.266322
0.283425
0.280042
0.274021
0.322218
0.320591
0.227476
0.225044
0.275848
0.255745
0.131582
0.193701
0.174105
0.095777
0.110861
0.095359
0.165269
0.095913
0.092355
0.131156
0.104511
0.066926
0.034627
0.084282
0.094158
0.101301
0.108087
0.081233
-0.015257
0.034973
0.079161
0.017544
0.027378
0.082745
0.015135
