-0.059367
0.004210
0.020836
-0.030054
0.032463
-0.015531
-0.101118
0.048244
-0.024825
0.006799
0.038619
0.008797
0.072950
-0.018741
0.007747
0.058885
-0.042268
-0.012401
-0.015270
-0.000238
0.057438
0.016614
0.025472
0.043694
0.043735
0.015918
0.064385
0.142758
0.108302
0.046689
0.110437
0.036192
0.074669
0.060637
0.105623
0.154784
0.192425
0.230982
0.201510
0.230461
0.096329
0.252242
0.221324
0.299527
0.146513
0.252684
0.214018
0.217806
0.097691
0.224219
0.218877
0.124744
0.100280
0.109379
0.064375
0.071147
0.010759
0.083182
0.095844
0.138313
0.112588
0.080523
0.063048
0.124500
0.026341
0.127698
-0.028757
0.042966
-0.041435
0.005315
-0.003139
-0.016916
-0.052944
0.015176
0.060890
0.010876
-0.060928
0.022847
0.071265
0.134204
0.309794
0.555251
0.881288
1.235827
1.389562
1.385032
1.246844
0.894570
0.502768
0.177800
-0.101320
-0.178355
-0.157918
-0.130553
-0.096560
0.040916
0.034732
-0.028826
0.089708
0.078317
0.049723
0.017415
0.002770
0.132392
0.138530
0.149461
0.104281
0.191186
0.171127
0.026754
0.169453
0.183390
0.156744
0.241880
0.184299
0.208368
0.178742
0.252392
0.266194
0.281693
0.331508
0.324053
0.345711
0.366354
0.358548
0.410269
0.426880
0.609564
0.470938
0.502938
0.461637
0.436138
0.524405
0.537392
0.518825
0.551431
0.577085
0.551616
0.539773
0.552424
0.632113
0.569898
0.598244
0.504620
0.539325
0.503104
0.526787
0.486904
0.375271
0.403245
0.381723
0.313933
0.393990
0.387508
0.297089
0.319366
0.291896
0.275883
0.238704
0.250102
0.195003
0.213979
0.287917
0.160471
0.212083
0.181133
0.245928
0.213518
0.086167
0.158205
0.135633
0.081887
0.206373
0.171496
0.032218
0.152259
0.110764
0.079994
0.133170
0.056531
0.207371
0.072759
0.149028
-0.005735
0.131932
0.029379
0.119349
0.096486
0.080217
0.079250
0.078877
0.114862
0.091820
0.089025
0.076805
0.097556
0.061399
0.135286
0.052971
0.077409
0.057460
0.058749
0.104647
0.141253
0.100309
0.127429
0.092145
0.173457
0.039922
0.086328
0.140826
0.167063
0.167308
0.085869
0.161572
0.064155
0.039106
0.098858
-0.002992
0.156182
0.053036
0.117644
0.117682
0.113361
0.006573
0.047090
0.077473
0.103089
0.156228
0.052690
0.116696
0.051109
0.144428
0.046753
0.077735
0.102124
0.105717
0.141910
0.132737
0.145617
0.230315
0.094529
0.181577
0.156180
0.233854
0.151064
0.175191
0.172064
0.170039
0.239585
0.173451
0.239085
0.245807
0.238731
0.270208
0.162499
0.230716
0.228600
0.254030
0.266472
0.265295
0.243040
0.243118
0.191412
0.123557
0.192731
0.113753
0.138063
0.076558
0.101497
0.053641
0.108118
0.100091
0.039999
0.070808
-0.046204
0.014090
0.071469
0.154210
0.105946
0.122561
0.010023
0.047409
0.095421
0.100203
-0.013039
0.056165
0.074083
-0.009694
0.047897
0.134166
0.280378
0.478785
0.867974
1.121824
1.376954
1.463629
1.336165
1.087839
0.721661
0.317613
0.030758
-0.077484
-0.165525
-0.108274
-0.038860
-0.029137
0.042514
-0.003940
0.145232
0.054092
0.064328
0.048249
0.076791
0.085781
0.097609
0.139380
0.157513
0.087360
0.141533
0.221049
0.132345
0.207631
0.172340
0.195808
0.215887
0.254852
0.226184
0.282830
0.318289
0.287888
0.320105
0.379248
0.326557
0.354249
0.357282
0.403327
0.462801
0.474076
0.388969
0.458028
0.492230
0.511718
0.584647
0.526131
0.519584
0.562941
0.508651
0.420069
0.563472
0.552798
0.519730
0.511355
0.539676
0.509174
0.481905
0.464463
0.467221
0.480137
0.447392
0.458466
0.300712
0.294137
0.347236
0.321938
0.315721
0.208231
0.332727
0.169060
0.255486
0.133442
0.209651
0.136538
0.164673
0.124830
0.108931
0.128957
0.113118
0.054783
0.053860
0.121943
0.102470
0.038194
-0.016161
0.015993
0.083212
0.068405
0.071948
0.051668
0.026879
0.040058
0.065046
0.033527
-0.030681
0.031923
-0.031865
0.041456
0.063405
-0.030522
-0.016775
0.017968
0.047749
0.013561
-0.014455
0.024581
0.061515
-0.008389
0.057507
-0.009295
0.074851
-0.010711
-0.022631
0.002134
0.039921
0.126543
-0.080126
0.010480
0.015154
-0.001171
-0.004649
-0.022970
0.079428
0.033840
0.062529
-0.073266
0.002297
0.027671
0.060150
-0.063186
0.044571
0.036720
-0.078910
0.070588
0.038235
-0.036097
0.018161
0.031266
0.019918
0.070048
0.019311
-0.013432
-0.012796
0.008236
0.012398
-0.011202
0.035837
0.013979
0.021264
-0.000087
0.065201
0.068358
0.040698
0.050700
0.084202
0.035453
0.070533
0.060555
0.078028
0.052938
0.186623
0.204346
0.226722
0.158816
0.158224
0.159933
0.105515
0.165294
0.170176
0.154230
0.218879
0.127779
0.028940
0.103726
0.173139
0.118802
0.090163
-0.009904
0.070191
0.051997
0.049925
0.060227
0.040605
0.034761
-0.008284
-0.019024
0.024561
-0.068641
0.030943
-0.056331
-0.072939
-0.078101
-0.064684
-0.058681
-0.000703
-0.077801
-0.064199
-0.009061
0.028117
-0.058873
-0.071017
-0.074259
-0.031753
0.153247
0.366191
0.627183
0.921971
1.136483
1.384903
1.259634
1.081312
0.544978
0.407859
0.039422
-0.192434
-0.316611
-0.293584
-0.158789
-0.194379
-0.043258
-0.016707
0.039759
-0.050528
0.004914
0.054866
0.023171
-0.071188
0.048771
-0.055704
0.042712
0.042391
0.001333
0.057138
0.031277
0.112069
0.110353
0.120055
0.110594
0.120758
0.104348
0.134519
0.170964
0.187970
0.139270
0.189776
0.234377
0.242379
0.293187
0.275185
0.350169
0.337534
0.388096
0.373308
0.386622
0.397837
0.487293
0.454383
0.423885
0.432846
0.453991
0.432777
0.435620
0.428287
0.453750
0.470540
0.458212
0.411827
0.423463
0.373882
0.348626
0.329809
0.371851
0.366956
0.285849
0.318570
0.293964
0.248316
0.289108
0.209594
0.196123
0.261322
0.112660
0.086285
0.100538
0.099157
0.039235
0.020108
0.066978
0.070426
0.024031
0.075272
0.078788
0.039573
0.073862
-0.062613
-0.059818
-0.038550
-0.120590
-0.046084
0.066517
0.017325
-0.056213
-0.028228
-0.037836
-0.057337
-0.007820
-0.019692
0.026354
-0.075174
0.012750
0.024103
-0.037693
-0.076912
-0.042372
-0.072953
-0.002018
-0.063461
-0.048951
-0.030711
-0.037691
-0.071200
0.023496
-0.033283
-0.043317
-0.017566
-0.032536
-0.091495
0.044948
-0.029270
-0.068946
-0.058659
-0.122330
-0.107481
-0.025748
-0.113913
-0.038460
-0.043873
0.013142
-0.023758
-0.026300
0.013515
0.011073
-0.007865
-0.065631
-0.066545
-0.018561
-0.103191
-0.007287
-0.065675
-0.122377
-0.087468
-0.055848
-0.080114
-0.012870
-0.000425
0.028678
-0.027309
0.015004
-0.006403
0.059951
-0.053271
0.086875
-0.015693
0.085464
0.096416
0.166452
0.128600
0.097022
0.151486
0.110686
0.121853
0.130777
0.077120
0.128417
0.157786
0.260068
0.098177
0.127444
0.188318
0.115456
0.154165
0.097377
0.138789
0.099361
0.130703
0.099652
0.180107
0.089371
0.138581
0.105042
0.090819
0.029040
0.017850
0.066537
0.055131
0.108940
0.038915
-0.028642
0.024854
-0.044005
0.032734
0.060284
-0.082710
-0.056575
0.051634
-0.064048
-0.018150
0.048939
-0.029287
-0.027790
-0.038699
-0.072822
-0.029951
0.038154
0.142647
0.392120
0.681007
0.884701
1.245138
1.327080
1.265594
1.056846
0.829624
0.458776
0.194954
-0.140984
-0.207252
-0.188695
-0.153539
-0.140541
-0.012448
0.040367
0.012213
0.085303
0.070668
0.090115
-0.004923
0.021855
0.159763
0.044487
0.109564
0.106795
0.097215
0.107929
0.029015
0.090668
0.191100
0.188730
0.127568
0.265189
0.184289
0.248066
0.173920
0.233215
0.377648
0.311437
0.282579
0.285111
0.336920
0.419975
0.463026
0.400229
0.440995
0.437985
0.435253
0.502986
0.507395
0.563003
0.496590
0.562514
0.519872
0.545956
0.560916
0.550721
0.524312
0.565807
0.576643
0.476828
0.485132
0.457478
0.436943
0.460086
0.444890
0.385118
0.363548
0.365150
0.392877
0.327882
0.327454
0.324242
0.297885
0.291342
0.257759
0.275116
0.250544
0.217598
0.234197
0.150456
0.236572
0.093788
0.074758
0.174718
0.113780
0.088881
0.088600
0.033871
0.044568
0.064999
0.080062
0.084008
0.058377
0.109880
0.040668
0.098000
0.078213
-0.039698
0.108606
0.018700
0.083959
0.042253
0.078737
0.031810
0.125364
0.083569
0.090999
0.056507
0.091978
0.062206
0.040022
0.002193
0.021776
0.088511
0.102748
0.082975
0.087803
0.117733
0.117183
0.094386
0.074386
0.087874
0.079533
0.123628
0.117372
0.058178
0.095318
0.008338
0.077339
0.034628
0.117575
0.123896
0.134826
0.088833
0.117968
0.050687
0.140332
-0.072178
0.123093
0.057547
0.047968
0.092842
0.098846
0.032401
0.038163
0.066592
0.140376
0.020111
0.108774
0.066545
0.082405
0.091833
0.089770
0.075293
0.206823
0.131997
0.176580
0.140745
0.119345
0.218398
0.179439
0.172613
0.226863
0.234221
0.174609
0.282782
0.300374
0.262962
0.333467
0.276464
0.235636
0.271593
0.252763
0.234146
0.266436
0.249188
0.176404
0.168079
0.254173
0.225948
0.251059
0.187042
0.208072
0.184604
0.080259
0.170015
0.172854
0.116033
0.099097
0.077587
0.107568
0.156616
0.113745
0.171320
0.100293
0.005317
0.027072
0.138719
0.115491
0.120134
0.183486
0.143910
0.098932
0.061836
-0.033480
-0.011654
0.022857
0.209910
0.286226
0.652354
0.930137
1.180252
1.417029
1.348170
1.290716
0.998316
0.619419
0.428088
0.026899
-0.114613
-0.100110
-0.144378
-0.076890
-0.019576
0.052511
0.099699
0.033670
0.157401
0.105492
0.118756
0.178817
0.200098
0.182384
0.110192
0.152271
0.189653
0.181676
0.128710
0.179066
0.225836
0.177173
0.194157
0.272628
0.142067
0.335321
0.283246
0.247520
0.248841
0.394365
0.413501
0.441077
0.306705
0.494696
0.450780
0.542668
0.467486
0.562113
0.591124
0.466956
0.539774
0.562848
0.555155
0.522919
0.547408
0.648141
0.579982
0.511084
0.525081
0.627608
0.663593
0.500520
0.583071
0.484932
0.603857
0.559947
0.556614
0.496761
0.482894
0.420863
0.487771
0.458637
0.406897
0.357807
0.394107
0.294135
0.320301
0.322837
0.246955
0.256619
0.212401
0.240329
0.217594
0.143566
0.139413
0.146892
0.166177
0.167505
0.183921
0.094582
0.083813
0.160611
0.091695
0.106988
0.042389
0.053855
0.088238
0.126513
0.066966
0.203937
0.073514
0.089989
0.069146
0.090962
-0.015823
0.047956
0.070019
0.109962
0.063615
0.061952
0.073147
0.052649
0.108709
0.074218
0.064326
0.007734
0.091779
0.080686
0.039564
0.048782
0.092432
0.077740
0.087018
0.082094
0.070426
0.048767
0.068947
0.107838
0.061545
0.085071
0.073902
0.053520
0.036556
0.028387
0.079604
0.052527
0.062733
0.034325
0.074902
0.042436
0.068931
0.075331
0.031751
0.103169
0.083013
0.070357
0.039641
0.015246
0.004268
0.098724
0.045098
0.084888
0.048411
0.057114
0.000337
0.180335
0.133249
0.090006
0.062005
0.073940
0.139808
0.177341
0.063695
0.132632
0.215202
0.189354
0.092912
0.219272
0.223323
0.248491
0.215412
0.184664
0.237511
0.163348
0.202821
0.315845
0.271996
0.213127
0.115870
0.126887
0.227535
0.155591
0.135761
0.188663
0.103966
0.074978
0.073583
0.052123
0.113821
0.013243
-0.015015
0.034477
0.096364
0.035944
0.042512
-0.039844
0.085353
0.037724
0.124118
0.057555
0.010751
0.002632
0.011596
-0.042027
-0.013539
0.009063
0.006763
0.043389
-0.013005
0.076297
0.163221
0.460228
0.799821
1.091341
1.268950
1.304483
1.215349
0.988467
0.621005
0.392192
0.006790
-0.178533
-0.263617
-0.210827
-0.156786
-0.098669
0.004545
0.023385
0.039908
-0.005108
0.088029
-0.006945
0.061899
-0.020793
0.081232
0.071290
0.007560
0.076312
0.133742
0.061738
0.018047
0.113070
0.119753
0.134292
0.212073
0.129389
0.197019
0.157083
0.178590
0.195960
0.250117
0.230454
0.208345
0.253158
0.298446
0.339148
0.340587
0.293318
0.384480
0.404266
0.441153
0.462656
0.391861
0.390353
0.505951
0.412748
0.546599
0.456438
0.427174
0.487301
0.506640
0.471713
0.431647
0.471483
0.417828
0.357894
0.373271
0.364018
0.286810
0.398053
0.331526
0.304695
0.348127
0.269505
0.298392
0.234854
0.206751
0.249108
0.211747
0.064429
0.164860
0.145109
0.066721
0.117589
-0.012494
0.017131
0.040462
-0.049634
0.058619
0.033966
-0.029470
-0.107291
0.031648
-0.041100
-0.116885
-0.049511
0.013422
-0.099074
-0.000784
-0.002686
-0.079041
-0.028710
-0.059093
-0.064488
-0.017039
-0.059130
-0.126718
0.020847
-0.012689
-0.094455
0.007832
0.009691
-0.073896
-0.012860
-0.066785
-0.039804
-0.113961
-0.115180
0.015566
-0.225340
-0.030567
-0.075499
-0.049765
-0.074817
-0.028596
-0.047515
-0.070533
-0.028169
-0.009458
-0.029106
-0.099704
-0.055005
0.007434
-0.009612
-0.000916
0.006392
-0.052829
-0.114216
-0.052550
-0.029541
-0.126201
-0.081054
-0.111244
-0.065799
-0.085135
-0.030226
-0.004483
-0.055663
0.014033
-0.079002
-0.082381
-0.060355
-0.079324
-0.012036
0.005930
-0.023111
-0.044487
-0.063386
0.023159
-0.046977
0.133444
0.056406
-0.016706
0.061817
0.074064
0.045969
0.154065
0.065143
0.115816
0.009992
0.128595
0.096497
0.107952
0.132392
0.132212
0.092831
0.035506
0.147389
0.106521
0.061454
0.049353
0.035552
0.035598
0.045361
0.006902
0.009890
0.035330
0.013485
0.066554
0.037627
0.021778
-0.117189
-0.043374
-0.069034
-0.008169
-0.045988
-0.088239
-0.076667
-0.052737
-0.092948
0.001799
-0.094647
-0.063080
-0.106463
-0.093047
-0.019507
-0.066206
-0.101872
-0.129941
-0.117251
-0.014449
0.062568
0.317505
0.589742
0.959603
1.103198
1.263908
1.252406
0.936341
0.666736
0.297098
-0.022998
-0.214728
-0.364835
-0.296697
-0.245361
-0.224243
-0.130840
-0.086894
-0.053250
-0.075418
-0.047296
-0.118419
-0.035583
-0.022056
-0.027598
0.032226
-0.054878
-0.036349
0.031825
0.014875
0.070309
0.010012
0.147360
0.024206
0.090511
0.107330
0.154208
0.167261
0.105383
0.169228
0.205442
0.220146
0.197438
0.285774
0.239613
0.248272
0.299518
0.275447
0.343906
0.335946
0.392305
0.421770
0.405218
0.411598
0.429878
0.469791
0.367423
0.391393
0.519592
0.414452
0.460937
0.455252
0.386266
0.479155
0.364138
0.319101
0.394077
0.357168
0.280124
0.315772
0.341501
0.289400
0.319018
0.178479
0.210504
0.204484
0.162740
0.143036
0.154961
-0.013202
0.060342
0.103384
0.054298
0.011199
0.041424
0.067236
0.095441
0.000730
0.005968
0.025720
0.013108
0.052834
-0.004490
-0.037762
-0.048627
-0.005438
-0.073841
-0.031757
-0.098214
-0.061068
-0.046006
-0.052620
-0.091342
-0.069642
0.012828
-0.112631
-0.054674
-0.040903
-0.055850
-0.039602
-0.036852
-0.075498
0.015409
-0.027701
-0.033463
-0.048858
-0.070874
-0.063670
0.045701
0.010834
-0.099987
-0.069622
-0.038732
-0.055687
-0.067183
-0.042208
-0.125903
0.004560
-0.068067
0.014678
-0.070774
0.013093
-0.095998
-0.067354
-0.018564
-0.031251
-0.000270
-0.029893
-0.042602
-0.063416
0.009159
-0.012203
-0.122690
-0.055628
-0.019543
-0.016478
-0.032216
0.060320
-0.044966
0.031650
0.019766
0.013012
0.100037
-0.067633
-0.032686
0.057844
-0.039607
0.010954
-0.063468
0.084788
0.056243
0.062046
0.040509
0.081676
0.116795
0.127950
0.070550
0.083485
0.097128
0.151184
0.122895
0.101925
0.101094
0.111247
0.220192
0.135072
0.150235
0.129754
0.147830
0.122451
0.059009
0.087942
0.157779
0.144549
0.097136
0.088571
0.046962
0.127365
0.073540
0.010658
0.027935
0.072744
0.102059
0.024010
0.019153
-0.015631
0.049825
0.057755
-0.015625
-0.009933
-0.014767
-0.041614
-0.030211
-0.013605
-0.046921
0.100547
-0.077785
0.036453
-0.126380
0.012053
0.005897
0.061209
0.338909
0.633368
0.842978
1.163860
1.378843
1.321584
1.217271
0.892540
0.492788
0.088815
-0.097419
-0.208847
-0.262940
-0.209033
-0.158087
-0.036452
-0.052866
0.013231
-0.011009
0.032586
0.053681
0.056376
0.048120
0.009363
0.138698
0.064825
0.162623
0.087242
0.169641
0.063244
0.058511
0.147889
0.132917
0.183788
0.215395
0.138064
0.127981
0.242688
0.230191
0.224025
0.296126
0.287187
0.329795
0.263018
0.386962
0.407945
0.392981
0.514335
0.399670
0.485243
0.456413
0.552937
0.535906
0.541445
0.571609
0.571877
0.560770
0.587854
0.476107
0.534655
0.546123
0.558998
0.498436
0.470790
0.502283
0.454859
0.536234
0.417836
0.435926
0.393212
0.324159
0.327011
0.376798
0.267047
0.437625
0.366219
0.271905
0.275563
0.217888
0.212652
0.269121
0.084085
0.172843
0.171945
0.058799
0.165328
0.148685
0.049393
0.069134
0.030775
0.107620
0.019892
0.056287
-0.016223
0.080030
0.106268
0.071810
0.081546
0.040194
0.094946
0.014364
0.029184
0.053391
0.041886
0.080470
0.025688
0.073976
0.001771
0.070025
0.023699
0.067461
0.002941
0.071986
0.036465
0.040008
0.059363
-0.009903
0.076304
0.022311
0.022248
0.038332
0.063633
0.088112
0.098526
0.055653
-0.008849
0.087365
0.029824
0.104959
0.085314
0.119971
0.067996
0.038062
0.018004
0.053267
0.083768
0.055432
0.045557
-0.029584
0.006264
-0.000211
0.014243
0.042411
0.026024
0.065701
0.134575
0.016625
-0.040339
0.069242
0.010172
0.058878
-0.033196
0.084564
0.092172
0.141164
0.155356
0.120501
0.102836
0.140007
0.111966
0.145801
0.103401
0.184290
0.120865
0.200900
0.066583
0.199038
0.129876
0.249627
0.236219
0.215714
0.121362
0.126965
0.193434
0.239982
0.209667
0.185639
0.224304
0.180641
0.240598
0.116605
0.155170
0.138927
0.187266
0.111090
0.117163
0.105622
0.102068
0.087367
0.044312
0.131462
0.081341
0.032963
-0.014445
0.054172
0.075305
0.030577
0.053544
0.062018
0.037986
0.027499
0.007628
0.066698
0.119670
0.006735
-0.016382
0.037942
0.077149
0.011482
0.011941
0.077227
0.230251
0.503290
0.826526
1.092015
1.414665
1.418467
1.232875
0.978960
0.584522
0.246301
-0.010998
-0.165245
-0.261152
-0.162748
-0.081275
-0.057214
0.023903
0.037692
0.048179
0.037086
0.078327
0.060837
0.032351
0.105459
0.002503
0.030160
0.004994
0.051888
0.150901
0.148021
0.167682
0.138666
0.083557
0.195612
0.157084
0.212093
0.277296
0.151808
0.180022
0.290275
0.283270
0.354832
0.304001
0.300666
0.359264
0.344304
0.424925
0.388974
0.465162
0.433420
0.456216
0.430212
0.525889
0.487490
0.585773
0.525797
0.522700
0.521702
0.529590
0.452009
0.507687
0.455665
0.463369
0.422834
0.522284
0.410449
0.409223
0.415081
0.394695
0.388964
0.364938
0.315222
0.410344
0.287207
0.298667
0.247867
0.178405
0.185111
0.198765
0.178842
0.168024
0.177189
0.064365
0.108960
0.080974
0.098121
0.134572
0.049356
0.108828
0.131721
0.002997
0.050286
0.007656
0.092670
-0.031762
-0.089764
0.017198
0.032011
0.010077
-0.003970
0.030211
-0.078288
-0.010453
-0.012051
-0.050331
-0.057215
-0.041477
0.026219
-0.084009
-0.033949
-0.123474
-0.013446
-0.080416
-0.021848
-0.045581
-0.032029
-0.000535
0.048982
-0.044667
-0.072621
-0.028823
-0.048929
-0.046845
-0.101951
-0.053166
0.010981
-0.069941
0.070542
-0.022042
-0.062728
-0.072313
-0.004808
-0.050093
-0.017342
-0.065582
-0.054156
-0.055911
-0.046994
-0.047172
-0.036466
-0.014280
-0.074542
-0.077821
-0.007754
-0.022115
-0.049804
-0.001224
0.027620
-0.036548
-0.013698
-0.090541
-0.104549
0.018819
-0.010335
-0.014428
-0.017016
-0.035855
0.074551
0.046255
-0.017469
0.028409
0.061763
0.095410
-0.007733
0.002564
0.072449
0.048740
0.094856
0.003799
0.129133
0.171839
0.172817
0.114481
0.061216
0.113440
0.139996
0.140338
0.161748
0.107094
0.012410
0.098812
0.125678
0.096121
0.044604
0.052938
0.037713
0.067908
0.013019
-0.026063
-0.060308
-0.060153
0.011544
-0.030049
0.047523
0.015349
-0.037272
-0.009180
-0.099141
-0.110995
-0.066591
-0.106795
-0.073084
-0.112281
-0.013169
-0.088575
-0.194862
-0.086017
-0.149766
-0.152748
-0.201024
0.003073
0.130674
0.369861
0.583404
0.971246
1.235724
1.261903
1.263509
0.920610
0.590039
0.236062
-0.041084
-0.241218
-0.294598
-0.301124
-0.271046
-0.149259
-0.119732
-0.099830
-0.078552
-0.035655
-0.084029
0.008847
-0.030038
-0.017833
-0.054168
-0.040859
-0.056381
-0.035633
0.019531
0.020243
-0.014773
-0.033194
0.039131
-0.000554
0.090965
0.141585
0.126000
0.124936
0.123687
0.172644
0.249843
0.137427
0.173042
0.241056
0.183247
0.236888
0.210415
0.337228
0.349236
0.288214
0.446921
0.337626
0.369520
0.392707
0.395734
0.321984
0.427130
0.479011
0.474004
0.328843
0.433360
0.451796
0.375914
0.363496
0.345967
0.334619
0.302518
0.323430
0.253109
0.317625
0.323239
0.160746
0.310526
0.179621
0.095529
0.204497
0.199334
0.019423
0.169053
0.128317
0.090440
0.089604
-0.022730
0.037702
0.051528
-0.034022
-0.104654
0.016968
-0.017684
-0.043275
-0.016403
-0.076908
-0.039050
-0.144297
-0.133826
-0.054386
-0.138582
-0.080011
-0.060124
-0.079385
-0.132380
-0.138500
-0.085501
-0.124298
-0.131104
-0.088384
-0.111994
0.025598
-0.026889
-0.118409
-0.082136
-0.135500
-0.057307
-0.061174
-0.097731
-0.071251
-0.103586
-0.076829
-0.072309
-0.173900
-0.063007
-0.117652
-0.163993
0.031878
-0.047880
-0.135116
-0.079448
-0.152422
-0.122822
-0.130078
-0.101355
-0.063211
-0.074836
-0.065350
-0.045094
-0.090046
-0.134512
-0.072868
-0.082875
-0.078165
-0.069127
-0.054384
-0.076812
-0.022223
-0.106214
-0.073433
-0.130068
-0.058317
-0.151648
-0.040490
-0.069669
-0.028848
0.004817
-0.029367
-0.060967
-0.080236
-0.097789
-0.028072
-0.021562
-0.082830
0.019303
-0.016971
0.015888
0.014000
0.094854
0.078707
0.049017
0.069055
0.030685
0.058127
0.107305
0.103008
0.117370
0.203424
0.132245
0.087430
0.138582
0.017904
0.146664
0.036805
0.052970
0.021983
0.075694
0.044318
-0.017971
0.012853
-0.024057
0.003926
0.003981
0.009972
0.079500
-0.007542
-0.056582
-0.080516
0.017225
-0.166363
0.032824
-0.129651
-0.069231
-0.047811
-0.038402
-0.041250
-0.132382
-0.027389
-0.132693
-0.098859
-0.097787
-0.046467
-0.071661
-0.056693
-0.046067
0.085704
0.270594
0.523195
0.934892
1.181028
1.283905
1.302465
1.023930
0.709796
0.361917
-0.060836
-0.136651
-0.321133
-0.258050
-0.229054
-0.168005
-0.082297
-0.128274
-0.101273
0.008986
-0.044255
-0.050023
-0.093852
-0.089201
-0.039533
-0.036461
0.016525
0.043326
-0.010305
0.054001
0.094043
0.098516
0.073827
0.098301
0.083639
0.077293
0.111934
0.168398
0.139643
0.159242
0.260559
0.236099
0.214307
0.245019
0.346281
0.339521
0.331405
0.440573
0.306174
0.392337
0.409605
0.447800
0.379422
0.487251
0.454163
0.443237
0.466506
0.459367
0.481410
0.441789
0.409095
0.441489
0.497805
0.442213
0.364500
0.388388
0.420411
0.456746
0.344633
0.400086
0.299598
0.286340
0.332667
0.353858
0.307242
0.259612
0.231091
0.294800
0.150292
0.170183
0.141859
0.124323
0.144068
0.113019
0.158165
0.103664
0.096947
0.046055
0.117721
0.028872
0.043668
0.039221
0.098852
0.075285
0.020478
0.020080
0.063566
-0.044092
0.009003
-0.061715
-0.017634
-0.028898
-0.015849
0.085051
-0.002465
-0.072418
-0.002465
-0.005484
-0.018925
-0.013210
0.115726
-0.049583
0.039213
-0.046411
0.073318
0.042386
-0.017803
0.039008
0.031334
0.060531
-0.008348
0.005404
0.069395
0.104249
-0.036639
0.040611
0.030358
0.032383
-0.024520
-0.033111
-0.037089
0.010803
0.071732
0.074097
0.062274
0.006422
-0.017181
0.054720
0.033389
-0.003376
0.019892
0.001042
-0.020401
0.039310
0.038495
-0.007201
0.070996
0.054972
0.043813
-0.021318
0.023429
0.046279
0.008007
0.113114
0.094929
0.062966
0.040506
0.017647
0.098989
0.030093
0.108336
0.161416
0.158851
0.066777
0.217233
0.104816
0.245826
0.122758
0.261241
0.242665
0.237346
0.148623
0.226166
0.239480
0.138687
0.206831
0.210435
0.190151
0.240612
0.222241
0.218572
0.128938
0.095034
0.152307
0.134974
0.180488
0.139857
0.088024
0.060539
0.095247
0.028805
0.050502
0.159546
0.116224
-0.032101
0.047453
0.085530
0.085163
0.035727
0.041793
-0.016183
0.041334
0.080836
0.118720
0.015971
0.090730
0.027573
0.049178
-0.018453
0.068237
0.066202
0.135794
0.286325
0.482542
1.008561
1.250522
1.388462
1.500000
1.205079
0.977361
0.614357
0.221652
-0.044355
-0.069441
-0.126154
-0.123044
-0.102256
0.015470
0.007311
0.044251
0.039372
0.072811
0.128131
0.095773
0.005934
0.064522
0.072321
0.126740
0.070246
0.043516
0.104842
0.153622
0.142052
0.193971
0.196654
0.162505
0.248361
0.212556
0.278569
0.295846
0.320319
0.286176
0.267864
0.307136
0.306982
0.452738
0.379778
0.434984
0.403551
0.510976
0.373106
0.460044
0.412940
0.503760
0.487706
0.536174
0.583308
0.598516
0.622401
0.560490
0.518763
0.520682
0.577853
0.551853
0.549311
0.614014
0.581535
0.590443
0.466312
0.509716
0.434695
0.422442
0.361441
0.387562
0.360550
0.383420
0.338915
0.237964
0.243052
0.286782
0.275093
0.294998
0.226708
0.191725
0.227430
0.175968
0.176611
0.225886
0.113242
0.168144
0.209018
0.103465
0.138188
0.138198
0.095325
0.144623
0.137377
0.082814
