-0.021758
-0.048872
-0.013794
-0.006549
-0.013921
-0.040995
-0.000962
0.021375
-0.001048
0.063518
0.011486
0.060225
-0.051141
0.079593
0.066599
-0.023267
0.028940
0.057271
0.091625
0.060094
0.049685
0.081671
0.126422
0.105126
0.138717
0.200109
0.158861
0.165263
0.199724
0.148197
0.163162
0.149446
0.245013
0.219347
0.254740
0.232211
0.177454
0.169395
0.175558
0.158601
0.236356
0.196275
0.130149
0.150162
0.188818
0.188551
0.177902
0.160632
0.031681
0.044319
0.062808
0.130815
0.011582
-0.006149
0.078099
0.087712
0.059544
0.092270
0.023787
0.065041
0.046468
0.087830
0.184048
0.202508
0.323705
0.687608
0.953189
1.272374
1.410515
1.257760
1.071569
0.743124
0.379195
0.152173
-0.037432
-0.092221
-0.064507
0.061923
0.050230
-0.010846
0.152958
0.209378
0.074069
0.208738
0.193020
0.177252
0.193874
0.192828
0.177111
0.235081
0.230107
0.313030
0.291523
0.355733
0.398609
0.329362
0.463739
0.335917
0.398800
0.457221
0.506439
0.399822
0.586976
0.545081
0.498225
0.571348
0.501115
0.594190
0.537065
0.564527
0.549147
0.578528
0.548546
0.629201
0.565591
0.505765
0.567823
0.559334
0.548466
0.565035
0.568989
0.569513
0.394089
0.434651
0.436418
0.364357
0.347646
0.362662
0.359356
0.294586
0.301007
0.376100
0.215785
0.241798
0.228120
0.221176
0.264330
0.220850
0.171391
0.182691
0.149606
0.102417
0.101900
0.144931
0.119373
0.082562
0.163276
0.136013
0.088876
0.073925
0.106919
0.058512
0.120453
0.044291
0.106285
0.120696
0.065188
0.077462
0.132062
0.187366
0.037415
0.068553
0.111652
0.094805
0.022379
0.179921
0.017720
0.145826
0.095144
0.035011
0.055416
0.034077
0.054612
0.114849
0.084133
0.065033
0.118827
0.091454
0.102771
0.143968
0.124044
0.056283
0.127625
0.125459
0.082338
0.121823
0.087854
0.123612
0.083590
0.148257
0.164064
0.132472
0.077339
0.153610
0.211016
0.263100
0.289318
0.228098
0.269529
0.256667
0.223160
0.307481
0.266268
0.226890
0.335623
0.317285
0.314333
0.292306
0.290012
0.255799
0.274637
0.198098
0.277338
0.164729
0.187812
0.273975
0.158657
0.070575
0.151887
0.187326
0.054965
0.158204
0.136326
0.046979
0.091460
0.058240
0.101480
-0.004186
0.039920
0.123116
0.043764
0.166744
0.132164
0.216417
0.325589
0.557968
0.889056
1.188922
1.377068
1.488301
1.249113
0.986765
0.662506
0.335059
0.088703
-0.118374
-0.042886
-0.059493
0.019963
0.118054
0.193498
0.088564
0.135575
0.199761
0.121082
0.209133
0.240291
0.165369
0.263322
0.191842
0.255623
0.321048
0.269407
0.289711
0.347078
0.319798
0.453698
0.344483
0.429918
0.469441
0.401036
0.578612
0.494526
0.506056
0.480073
0.601960
0.632203
0.580285
0.573336
0.559121
0.583385
0.597362
0.621600
0.589500
0.637644
0.627683
0.591058
0.474773
0.545904
0.529289
0.501228
0.538787
0.364209
0.464945
0.491432
0.441673
0.440768
0.333237
0.336276
0.272941
0.322976
0.264113
0.270136
0.219630
0.203518
0.146211
0.211847
0.145112
0.230479
0.106129
0.154517
0.078251
0.163802
0.168680
0.155864
0.099979
0.168584
0.096384
0.078147
0.053238
0.075461
0.111419
0.094327
0.117216
0.036081
0.079749
0.049034
0.076917
0.104091
0.032310
-0.002971
0.134286
0.070792
0.065381
0.095858
-0.031641
0.054365
0.013665
0.065875
-0.090330
0.004416
0.061139
0.046384
0.094063
0.043982
0.027142
0.018984
0.013981
0.055548
-0.030344
0.060695
0.072400
0.137281
0.033875
0.036702
0.046209
0.116712
0.056408
0.131489
0.140167
0.088483
0.091213
0.165694
0.114780
0.150127
0.089774
0.193412
0.212233
0.173954
0.175943
0.174707
0.165820
0.177297
0.242802
0.262339
0.241202
0.166357
0.213943
0.168720
0.227763
0.119892
0.096811
0.132015
0.215017
0.228026
0.017297
0.179376
0.219543
0.069375
0.133523
0.098066
0.120687
0.037774
0.056186
0.087788
0.016170
0.026158
0.113793
-0.048116
-0.001390
-0.025143
-0.025445
0.021398
0.123613
0.182829
0.421308
0.600377
0.943698
1.274967
1.378730
1.307093
0.929129
0.683670
0.288123
0.113230
-0.126963
-0.206768
-0.111351
-0.049615
0.025509
0.028210
0.087691
0.049382
0.047673
0.133787
0.097339
0.052708
0.087583
0.082046
0.204345
0.060450
0.189623
0.172774
0.160453
0.324639
0.274779
0.297204
0.320883
0.347326
0.276693
0.336231
0.397967
0.337022
0.496452
0.466905
0.482215
0.435010
0.490363
0.567551
0.553641
0.467754
0.454552
0.477846
0.471049
0.461482
0.532114
0.561212
0.500289
0.399334
0.510253
0.471044
0.407401
0.382491
0.341168
0.312096
0.333032
0.334831
0.235746
0.194453
0.269975
0.223469
0.149726
0.200565
0.181462
0.133966
0.126929
0.112421
0.099808
0.206294
0.075515
0.097214
0.026602
0.049560
0.083503
0.162214
0.006173
0.028678
-0.016912
0.076300
-0.028297
-0.007732
-0.041686
-0.066838
0.017135
-0.017668
-0.111170
0.022122
-0.011557
-0.029171
0.030107
-0.038506
-0.059329
-0.065804
-0.040677
-0.091080
0.067558
-0.066373
-0.018704
-0.041043
-0.034016
-0.001083
-0.034939
-0.021084
-0.005517
-0.081558
0.013273
-0.002186
-0.067476
-0.028447
-0.040542
-0.052222
-0.024599
-0.102253
-0.094345
-0.038010
-0.116082
0.005878
-0.066449
-0.053395
-0.078191
0.007444
-0.019365
0.037076
0.103524
0.011877
0.026745
0.123265
0.065713
0.137144
0.117127
0.023935
0.052411
0.046217
0.155635
0.120800
0.129992
0.129664
0.197077
0.135372
0.090158
0.056092
0.097722
0.080934
0.054785
0.095316
0.096070
0.085132
0.025117
-0.010910
0.034889
0.018464
-0.037715
-0.094018
0.006555
-0.066643
0.014793
-0.051984
-0.038645
0.002104
-0.049586
-0.010270
-0.038770
0.039160
-0.016486
0.076597
0.205368
0.437566
0.767003
1.132627
1.194597
1.301330
1.070259
0.812412
0.402513
0.106693
-0.116460
-0.229764
-0.235833
-0.166227
-0.074717
0.005562
-0.062594
0.072518
0.034941
0.082228
0.055975
0.057808
0.085130
0.059395
0.030416
0.125868
0.210424
0.211313
0.111240
0.214896
0.151989
0.286916
0.212073
0.313055
0.374561
0.330620
0.403949
0.345674
0.310555
0.396270
0.490587
0.498615
0.439089
0.448372
0.474462
0.480502
0.416594
0.403243
0.549252
0.456647
0.466383
0.465586
0.508365
0.380579
0.450737
0.348511
0.432660
0.479482
0.335644
0.387583
0.298776
0.248514
0.219255
0.303114
0.185164
0.157034
0.271669
0.204333
0.192628
0.119031
0.151025
0.163413
0.094420
0.045538
0.035181
0.091962
0.117410
0.097646
0.048111
0.112454
0.022439
0.055215
0.009342
-0.030759
0.009604
0.002593
-0.020424
0.132845
0.010604
-0.069879
-0.013086
-0.036439
-0.061636
-0.094350
0.002497
0.013425
-0.005698
0.009624
-0.016362
-0.011985
-0.097171
-0.042995
-0.029589
-0.000862
0.000830
0.065101
-0.028142
-0.037671
-0.007042
-0.041309
-0.013557
-0.011370
0.035314
-0.076346
-0.064047
-0.021103
0.037350
-0.008595
0.081968
-0.091518
-0.010336
0.001470
0.043080
0.003314
0.068651
-0.024007
0.062353
0.090233
0.030580
-0.007791
0.113977
0.141385
0.108721
0.091026
0.218810
0.113140
0.126538
0.055705
0.210713
0.161800
0.192267
0.235169
0.183760
0.194708
0.208872
0.212239
0.100015
0.229249
0.114307
0.120301
0.127973
0.145039
0.087925
0.135251
0.162104
0.062046
0.100173
0.014750
-0.038029
-0.003794
0.065270
0.047049
0.081650
-0.067035
0.008465
0.060285
-0.055712
0.043191
0.189471
0.103667
0.208947
0.429832
0.702030
1.029524
1.245434
1.370594
1.253605
1.064593
0.682189
0.284083
-0.007858
-0.002164
-0.161992
-0.083475
0.004322
-0.014307
0.032059
0.092717
0.134603
0.127814
0.209513
0.164841
0.195312
0.161125
0.197018
0.183456
0.085586
0.238024
0.193493
0.309325
0.384799
0.289907
0.327559
0.420368
0.348458
0.402507
0.462026
0.499228
0.457733
0.554315
0.550395
0.501041
0.543266
0.574751
0.484523
0.588396
0.564117
0.604970
0.550321
0.473232
0.565095
0.526449
0.502634
0.489662
0.541112
0.415305
0.552656
0.551735
0.468695
0.418308
0.450253
0.384365
0.341029
0.343061
0.305180
0.403044
0.406071
0.252065
0.231359
0.220478
0.253901
0.188097
0.182441
0.244543
0.094464
0.106639
0.182094
0.043743
0.099947
0.103353
0.095919
0.144468
0.137354
0.092695
0.077903
-0.030249
0.054527
0.061758
0.053892
0.124245
0.021020
0.080084
0.041376
0.045874
0.105119
0.044864
0.011569
0.032791
0.124825
0.062452
0.047537
0.158449
0.108892
0.181936
0.148177
0.076966
0.050511
0.114404
0.064011
0.035422
0.052089
0.056804
0.092324
0.149845
0.118553
0.114988
0.075721
0.131179
0.106032
0.137008
0.071476
0.034834
0.140125
0.161779
0.112601
0.172959
0.216361
0.195969
0.133086
0.169206
0.114657
0.146373
0.207414
0.244288
0.244989
0.301566
0.202717
0.229100
0.285042
0.297255
0.312029
0.245920
0.300200
0.297725
0.300845
0.240237
0.206962
0.282775
0.127967
0.189354
0.220108
0.086918
0.240276
0.163989
0.179977
0.173706
0.155570
0.068840
0.175305
0.029715
0.123051
0.143991
0.175955
0.035765
0.101897
0.057296
0.087066
0.138462
0.163250
0.123439
0.216683
0.319865
0.660821
0.893563
1.151284
1.390855
1.413700
1.171738
0.976001
0.564416
0.236130
0.087151
-0.006676
0.010819
0.016878
0.047639
0.102128
0.166486
0.177941
0.079360
0.191036
0.201212
0.201540
0.224171
0.251384
0.195075
0.196125
0.268215
0.333082
0.398187
0.311803
0.400416
0.349775
0.379825
0.433236
0.532487
0.453540
0.474216
0.508390
0.546987
0.502440
0.519052
0.486521
0.664228
0.619931
0.627257
0.558213
0.589544
0.661568
0.586784
0.689384
0.598796
0.570037
0.642838
0.501882
0.560391
0.509510
0.443531
0.526801
0.442364
0.420442
0.425849
0.419841
0.457624
0.377498
0.322940
0.422746
0.352808
0.332537
0.318312
0.233102
0.192346
0.265105
0.217143
0.198474
0.178159
0.142824
0.188312
0.240322
0.090475
0.223114
0.109462
0.125331
0.124032
0.172264
0.095329
0.131168
0.128458
0.007195
0.106693
0.051438
0.036064
0.107034
0.041628
0.098651
0.070092
0.125068
0.100185
0.032645
0.101963
0.116663
0.107689
0.064144
0.147623
0.102699
0.014629
0.189158
0.071307
0.051825
0.064472
0.009989
0.078167
0.082563
0.033013
0.126841
0.127918
0.060734
0.037992
0.060463
0.109105
0.084522
0.031423
-0.008339
0.075911
0.099432
0.151037
0.128095
0.105040
0.079984
0.086291
0.114847
0.219906
0.077544
0.166325
0.232873
0.258427
0.144179
0.185122
0.202811
0.293138
0.219791
0.303344
0.148020
0.224755
0.143788
0.199002
0.256497
0.168603
0.233022
0.193763
0.153848
0.223343
0.174353
0.150332
0.179121
0.153345
0.052310
0.059829
0.191009
0.097073
0.075072
0.032583
0.179350
0.067670
0.020607
0.057852
-0.004732
0.093604
0.047640
0.099755
0.107205
0.234252
0.398155
0.772763
1.081383
1.312960
1.406239
1.322497
0.935120
0.741120
0.344611
0.043592
-0.065588
-0.055742
-0.106998
-0.090156
0.047914
0.063416
0.179924
0.084044
0.104587
0.138255
0.151257
0.161465
0.238553
0.255902
0.176616
0.283698
0.228048
0.161417
0.228904
0.310742
0.249542
0.307636
0.340423
0.335793
0.349186
0.438889
0.447920
0.519711
0.420543
0.453352
0.555609
0.463114
0.534992
0.588383
0.485453
0.531216
0.538946
0.446651
0.551775
0.466344
0.522139
0.523693
0.493035
0.535419
0.424946
0.527395
0.427613
0.371739
0.386146
0.341348
0.400517
0.361679
0.331656
0.283786
0.268175
0.122258
0.254361
0.194358
0.132929
0.181313
0.165080
0.169601
0.096881
0.112260
0.009795
0.080700
0.122479
0.011323
0.065408
0.040593
0.048322
0.022875
0.055055
-0.040209
0.001385
-0.020640
-0.052407
0.006245
0.022604
-0.035132
-0.138371
-0.043578
0.071277
-0.040868
-0.031157
-0.087336
-0.004401
-0.022998
-0.001664
-0.037122
0.001783
-0.083097
0.025202
0.024396
-0.028552
0.027050
0.024680
-0.064289
-0.110652
-0.041038
-0.061521
-0.093083
-0.004642
-0.023259
-0.048043
-0.065069
-0.097959
-0.031219
-0.008516
-0.006009
0.046199
0.037111
-0.009912
0.083299
0.053403
0.033000
0.074136
0.059604
-0.002139
0.032151
0.087702
0.057150
0.174999
0.118433
0.124121
0.141659
0.172191
0.216054
0.099609
0.086027
0.039544
0.183568
0.199165
0.072555
0.135122
0.047289
0.079282
0.139352
0.106942
0.164669
0.034429
0.045967
0.021933
0.006547
0.084528
0.016998
-0.109964
0.012192
-0.007478
-0.009746
0.043605
-0.080489
-0.074300
0.025976
-0.110691
-0.027370
-0.020615
-0.124484
0.039664
0.082206
0.263927
0.520949
0.844133
1.081904
1.279960
1.313901
0.947690
0.681722
0.373463
0.083748
-0.109640
-0.312520
-0.233079
-0.075177
-0.081218
-0.011033
-0.016402
0.036865
0.007515
0.021500
0.034588
0.036709
0.065921
0.023954
0.077658
0.079765
0.154497
0.135848
0.092517
0.130392
0.226243
0.228337
0.292480
0.257304
0.237762
0.345177
0.336510
0.318875
0.365811
0.404702
0.416631
0.376576
0.343593
0.471112
0.468458
0.380790
0.430046
0.440891
0.463181
0.500907
0.391200
0.428065
0.424781
0.392253
0.428769
0.326623
0.342360
0.385335
0.311987
0.316202
0.287281
0.253668
0.203607
0.243839
0.098323
0.114403
0.157781
0.102454
0.095688
0.106964
0.078072
0.039350
-0.012992
0.010615
0.044330
0.050054
0.088404
0.033316
0.030646
-0.109900
-0.037918
-0.105198
0.044532
-0.047465
-0.055748
-0.044967
-0.027196
-0.005529
-0.086183
-0.002895
-0.087580
-0.113220
-0.078156
-0.017814
0.010264
-0.102303
-0.130582
-0.104378
-0.104160
-0.095799
-0.049817
-0.035248
-0.028867
-0.068833
-0.109257
-0.045797
-0.070950
-0.073304
0.000832
-0.078119
-0.084881
-0.056220
0.010711
-0.016526
-0.138308
-0.079797
-0.071511
-0.104929
-0.129822
-0.067870
0.027198
-0.015048
0.027442
-0.102566
-0.054145
-0.011893
-0.044487
0.057160
-0.028150
-0.012841
0.009476
-0.018343
0.036846
0.160753
0.075882
0.025315
0.055348
0.098293
0.106650
0.039747
0.175335
0.075741
0.058140
0.040365
0.093505
0.048488
-0.001787
0.113681
0.025175
0.045243
0.025845
-0.057419
0.049062
-0.030974
-0.008531
0.043249
0.026296
-0.021399
0.032799
0.014928
-0.074007
-0.084105
-0.096474
-0.088733
-0.080464
-0.071257
-0.082054
-0.109481
-0.002547
0.110520
0.152840
0.324241
0.744053
1.025657
1.177414
1.326067
1.165466
0.884448
0.462590
0.149936
-0.079555
-0.155181
-0.214254
-0.100416
-0.048555
0.020936
0.005148
0.016281
-0.009516
0.006358
0.059984
0.103955
0.100591
0.093610
0.118505
0.094563
0.178449
0.171980
0.090751
0.205176
0.156506
0.209149
0.258195
0.276448
0.342869
0.358711
0.377133
0.270361
0.401607
0.360849
0.375595
0.439590
0.474731
0.473449
0.403556
0.458444
0.617501
0.517376
0.452032
0.367731
0.518365
0.459815
0.513542
0.495704
0.467590
0.403701
0.309585
0.409759
0.257342
0.279096
0.343155
0.394644
0.368069
0.180367
0.176781
0.308242
0.214714
0.268023
0.109743
0.215005
0.156177
0.127374
0.045648
0.140085
0.045346
0.078304
-0.021992
0.140642
0.118101
0.012463
0.074503
0.055617
-0.050341
0.072704
0.024960
0.004998
0.032021
0.021383
-0.006610
-0.036276
0.000510
-0.021690
0.012929
0.024086
-0.019503
0.007010
-0.040095
0.025660
0.005761
-0.040828
-0.021107
0.011621
0.031372
-0.018432
-0.015034
-0.018156
-0.027606
-0.049608
-0.016490
0.059788
0.090738
0.003384
0.013745
0.090889
-0.059214
0.062388
0.007108
0.017760
-0.078325
0.014035
0.022049
-0.049244
-0.000710
0.029521
0.031138
0.057185
0.044506
-0.000925
0.106041
0.057211
0.116772
0.137403
0.170086
0.203513
0.131550
0.257509
0.197652
0.206320
0.252477
0.197512
0.190743
0.107285
0.251771
0.171559
0.167502
0.130485
0.276359
0.189680
0.136292
0.171408
0.123762
0.131953
0.121942
0.118659
0.097055
0.042253
0.103295
0.092424
0.040755
-0.033477
0.118456
0.021696
0.069508
0.013191
0.064577
0.076476
0.078363
0.064303
-0.035540
0.089843
0.239634
0.375653
0.560778
0.915392
1.202208
1.500000
1.308817
1.079644
0.834648
0.374890
0.113363
-0.015871
-0.152563
-0.095399
-0.101397
0.092383
0.017983
0.014728
0.106306
0.192051
0.165266
0.132669
0.129706
0.163965
0.123021
0.189841
0.239327
0.173174
0.291090
0.288844
0.260777
0.318937
0.313222
0.397401
0.394560
0.437097
0.476612
0.451149
0.455805
0.350533
0.551619
0.523702
0.562107
0.458869
0.560317
0.474187
0.503652
0.565162
0.526435
0.602027
0.529699
0.577241
0.544731
0.499433
0.535743
0.489137
0.401292
0.450644
0.525566
0.443037
0.420078
0.482101
0.365048
0.416524
0.247099
0.309685
0.290765
0.350821
0.260734
0.239018
0.216514
0.299081
0.162355
0.145795
0.160467
0.187687
0.220213
0.150509
0.148195
0.098860
0.104435
0.072015
0.070580
0.053540
0.053757
0.068790
0.029940
0.108855
-0.013238
0.048177
0.083103
0.092074
0.026646
0.057725
0.000674
0.055113
0.047078
0.039102
-0.005479
-0.032516
0.065290
0.062425
0.042665
0.026665
0.109965
0.052545
0.003862
0.044445
0.055603
-0.018709
0.052172
-0.028245
0.065375
0.105568
0.099150
0.025646
0.105302
0.085071
0.056501
0.057919
0.095836
0.043492
0.150215
0.072450
0.108095
0.080999
0.093774
0.051981
0.088362
0.200110
0.083302
0.185967
0.214161
0.213257
0.102290
0.217030
0.171335
0.155922
0.233880
0.185562
0.204611
0.213028
0.214118
0.150222
0.203073
0.181622
0.220847
0.184624
0.144009
0.165356
0.151292
0.124449
0.137011
0.203527
0.084412
0.149182
0.128395
0.167168
0.086341
0.117821
0.045572
0.036023
0.041650
0.018212
0.082736
0.078843
0.055035
0.099610
0.055076
0.057130
0.111789
0.340869
0.513043
0.800512
1.093981
1.379809
1.381289
1.184874
0.916760
0.562070
0.133732
0.072021
-0.038710
-0.146434
-0.072659
-0.029753
0.053179
-0.055148
0.138831
0.156585
0.137140
0.170910
0.111637
0.146445
0.216796
0.210748
0.217137
0.245587
0.177990
0.268543
0.266630
0.334830
0.353937
0.311134
0.286829
0.375058
0.374968
0.452260
0.463957
0.438882
0.393399
0.419142
0.474597
0.439372
0.559654
0.518140
0.545300
0.559672
0.455289
0.549015
0.545608
0.588782
0.505127
0.483835
0.472976
0.511462
0.416382
0.426967
0.433240
0.422710
0.384194
0.417521
0.319451
0.330451
0.333720
0.290867
0.338503
0.210639
0.229355
0.231060
0.138315
0.143655
0.199469
0.129926
0.097168
0.141937
0.058176
0.111817
0.118234
0.080323
0.016493
0.173774
0.051376
0.036361
0.005723
-0.043063
-0.030233
0.103696
0.022566
0.008214
0.053402
0.032777
-0.028992
-0.019000
-0.071993
0.035913
-0.013870
0.003588
-0.058979
0.044047
0.061154
0.012319
0.042464
-0.000768
-0.000051
-0.106072
0.065787
-0.043092
-0.011720
0.007540
0.009300
-0.077262
-0.025191
-0.045543
0.015633
0.007843
-0.015385
0.000354
-0.022017
-0.015043
0.096681
0.002442
0.046357
-0.055559
-0.067113
0.005282
0.014581
-0.036305
0.059595
0.076533
0.156744
0.074307
0.050718
0.025901
0.169003
0.104295
0.078485
0.170551
0.132553
0.136675
0.157898
0.087182
0.124590
0.157287
0.113377
0.112991
0.202626
-0.006013
0.177456
0.087710
0.072629
0.117920
0.133334
-0.000430
-0.045711
0.039923
-0.006357
0.010715
0.045967
-0.034635
-0.072104
-0.000737
0.026871
-0.029270
-0.059455
0.002636
-0.161119
-0.006299
0.010891
-0.065003
0.010682
0.062119
0.301962
0.585442
0.901165
1.080960
1.316636
1.286477
1.019638
0.709057
0.222636
-0.000544
-0.210978
-0.216478
-0.211588
-0.081347
-0.071076
-0.036901
-0.058275
-0.017976
0.048073
0.054063
0.020831
0.117539
0.085238
0.196098
-0.012634
0.215091
0.195282
0.118156
0.116785
0.229128
0.214125
0.252206
0.211170
0.257476
0.221509
0.403141
0.296243
0.324067
0.302504
0.380128
0.356748
0.312291
0.456450
0.408819
0.481043
0.358944
0.417300
0.446721
0.415085
0.496775
0.413829
0.353313
0.357850
0.415344
0.371336
0.397441
0.366579
0.346521
0.321697
0.195707
0.238920
0.258413
0.213605
0.253887
0.158950
0.131030
0.073859
0.151824
0.106040
0.073064
0.015618
0.083752
0.035479
0.008791
-0.033470
-0.046849
0.011467
-0.049971
-0.083386
-0.100729
-0.078473
-0.032484
-0.016892
-0.002105
-0.048519
-0.102835
-0.093149
-0.084155
-0.015538
-0.039606
-0.035734
-0.169193
-0.065340
-0.107634
-0.079423
-0.114699
-0.045243
-0.021592
-0.126170
-0.074994
-0.133261
-0.058775
-0.057014
-0.056824
-0.079852
-0.109007
-0.032607
-0.141731
-0.083146
-0.130666
-0.126209
-0.124129
-0.094271
-0.040338
-0.001375
-0.077861
-0.084747
-0.115187
-0.117728
-0.078319
-0.083606
-0.082589
-0.129091
-0.064923
-0.028470
-0.055035
-0.078219
-0.043077
-0.081271
-0.003264
-0.008919
0.009861
0.007074
0.101368
0.143016
0.062469
-0.002205
0.083269
0.049480
0.039652
0.075974
0.006280
0.064785
0.078074
0.073835
0.059872
0.109913
0.084391
0.014798
0.010359
-0.061198
0.062374
-0.008330
0.027971
-0.009619
0.004842
-0.081623
-0.054968
-0.096118
0.002740
-0.095522
-0.053084
-0.067655
-0.082978
-0.095885
-0.060921
-0.120540
-0.075040
-0.056922
0.022184
0.087611
0.416358
0.670156
0.993588
1.170590
1.186471
1.083074
0.827713
0.406759
0.093464
-0.200136
-0.251684
-0.223057
-0.267907
-0.030996
-0.175927
-0.097093
-0.005462
-0.053171
-0.043763
-0.039403
0.070443
0.055657
0.058388
0.080924
0.021177
0.071482
0.145920
0.188942
0.172407
0.131766
0.183486
0.149486
0.203228
0.302931
0.332867
0.294699
0.314717
0.319969
0.438910
0.371430
0.391691
0.456500
0.477820
0.428987
0.443898
0.501118
0.351077
0.458370
0.399059
0.382737
0.418807
0.410585
0.521708
0.338450
0.309481
0.259961
0.382241
0.336715
0.318321
0.297640
0.276125
0.179699
0.258257
0.198101
0.178786
0.239719
0.206048
0.050321
-0.005420
0.108749
0.004566
0.065551
0.068601
0.022739
-0.007064
-0.040265
0.026759
-0.008522
-0.053707
-0.012623
-0.098979
-0.106590
0.053945
-0.051569
-0.056696
0.019247
-0.060851
-0.074607
-0.011517
-0.031986
0.024841
-0.012186
-0.096982
-0.071759
-0.040620
-0.074461
-0.027011
-0.070844
-0.058761
-0.064973
-0.079094
-0.003457
-0.087753
-0.080506
-0.028714
-0.155081
-0.097264
-0.058953
-0.020234
-0.123970
0.011318
-0.045569
-0.075531
0.009791
0.013547
-0.057049
-0.046038
-0.006073
-0.026337
0.047437
-0.107389
-0.080667
0.035706
0.031812
0.007790
0.040028
0.033907
-0.018769
0.058494
0.073641
0.057361
0.049291
0.080728
0.134875
0.140178
0.110956
0.124489
0.130073
0.139541
0.148520
0.205387
0.137699
0.172491
0.070044
0.177263
0.103215
0.181275
0.133462
0.065292
0.107745
0.031703
0.097749
0.097797
0.061664
0.073663
0.044237
0.024492
0.008983
0.025295
-0.040233
0.053996
0.041545
0.004289
0.063483
-0.017194
0.036637
0.071794
0.020622
0.118433
0.072158
0.260619
0.601905
0.891475
1.221512
1.346800
1.274360
1.016792
0.696488
0.296030
0.076103
-0.047495
-0.155570
-0.073987
-0.105007
0.014445
-0.065472
0.103831
0.068916
0.060668
0.167200
0.206096
0.135651
0.106935
0.202486
0.131187
0.229039
0.137582
0.266679
0.250338
0.208797
0.260938
0.384130
0.294748
0.366054
0.365346
0.338721
0.441930
0.422054
0.573986
0.448393
0.419712
0.543560
0.564856
0.550730
0.488008
0.538169
0.506707
0.551515
0.559202
0.507557
0.491018
0.526576
0.512193
0.499935
0.459497
0.449767
0.419171
0.431491
0.437301
0.435743
0.359089
0.354490
0.379921
0.331523
0.312234
0.288551
0.203099
0.270503
0.239955
0.198440
0.263771
0.224050
0.185413
0.235630
0.129044
0.103640
0.121721
0.048222
0.130824
0.076604
0.080497
0.099244
0.091692
0.038170
0.089745
0.010539
-0.027772
0.055982
0.043149
0.014178
0.047769
0.067443
0.053037
0.110348
0.049500
0.029285
0.036143
0.051875
0.030876
0.009541
0.012477
0.107372
0.064558
0.083666
0.050267
0.096384
0.124641
0.105874
-0.023178
0.062693
0.086456
0.043814
-0.016664
0.026808
0.081062
0.127174
0.006164
0.016586
0.055299
0.035686
-0.003347
0.099623
0.114619
0.163305
0.082334
0.104423
0.146773
0.147120
0.135561
0.121558
0.133276
0.206150
0.191319
0.141783
0.126341
0.246801
0.217658
0.221266
0.230012
0.161735
0.252426
0.243609
0.268357
0.220412
0.280693
0.227376
0.256688
0.234191
0.167259
0.125245
0.133491
0.211121
0.155953
0.134019
0.175254
0.142469
0.180466
0.128017
0.125942
0.049461
0.147629
0.072220
0.045688
0.100511
0.104246
0.077327
0.138333
0.075503
0.175668
0.191064
0.428990
0.583758
0.954012
1.254819
1.395161
1.369077
1.243256
0.964627
0.455732
0.266120
-0.007303
-0.015507
-0.124154
-0.070091
0.032507
0.200925
0.138471
0.138720
0.124790
0.153735
0.098605
0.197413
0.192987
0.231759
0.280201
0.259943
0.300902
0.220368
0.277205
0.384239
0.333402
0.315890
0.408179
0.414470
0.428222
0.467097
0.414054
0.467765
0.575733
0.629013
0.526521
0.498191
0.557126
0.645204
0.594738
0.558480
0.608760
0.556507
0.618546
0.518517
