-0.003202
-0.020814
0.018802
0.051663
0.026004
0.008750
0.012150
-0.004123
0.036839
-0.006510
-0.005200
0.025375
0.024542
0.060282
0.053243
0.026694
0.033296
0.008610
0.059217
0.058689
0.052667
0.050817
-0.037256
0.011198
0.081250
-0.035971
-0.004885
0.022063
-0.022148
0.100584
0.067125
0.000450
0.094286
0.035564
0.044405
0.051907
0.074498
0.035070
0.103539
0.141261
0.124538
0.076674
0.142567
0.180525
0.151754
0.183082
0.208477
0.140780
0.264397
0.271658
0.270958
0.228215
0.162956
0.255251
0.196312
0.132665
0.195151
0.202858
0.097310
0.154328
0.134082
0.113383
0.062756
0.082264
0.043762
0.198998
0.037207
0.124995
0.041577
0.117682
0.091550
0.090863
0.135251
0.107341
0.125897
0.043642
0.036076
0.115459
0.018227
0.095174
0.036349
0.055008
0.131284
0.074271
0.102614
0.066000
0.089643
-0.001239
0.092322
0.084387
0.049106
0.029529
-0.065404
-0.019367
0.024674
0.331070
0.470260
0.820367
1.116332
1.378100
1.488055
1.426802
1.136530
0.912230
0.570504
0.168221
-0.046133
-0.172344
-0.209709
-0.280965
-0.174009
-0.016179
0.012114
-0.022815
0.102929
0.103363
0.034712
0.118388
0.107532
0.030596
0.055306
0.119232
0.038713
0.091910
0.119818
0.033548
0.073554
0.112167
0.065422
0.113957
0.182939
0.090248
0.157969
0.091811
0.170780
0.117852
0.161637
0.281082
0.290578
0.255408
0.262700
0.231651
0.253688
0.256882
0.288928
0.298437
0.336472
0.264911
0.454372
0.384586
0.461328
0.455436
0.499399
0.489346
0.524537
0.516842
0.598544
0.543036
0.606957
0.544632
0.577352
0.631033
0.568527
0.607066
0.568444
0.667426
0.655197
0.523467
0.529461
0.588024
0.493033
0.594717
0.572504
0.473314
0.433756
0.385842
0.520874
0.478463
0.431976
0.426115
0.351346
0.365137
0.293934
0.315977
0.215142
0.315401
0.244102
0.264469
0.186062
0.192003
0.224774
0.161883
0.183518
0.037318
0.150272
0.140962
0.125932
0.155964
0.123898
0.101336
0.135962
0.075765
0.114009
0.143870
0.069094
0.063372
0.071752
0.145415
0.019242
0.017034
0.075201
0.107936
0.009564
0.019042
0.040126
0.144360
0.058784
0.020862
0.158634
0.049620
0.062566
0.077842
0.060049
0.156433
0.043795
0.096318
0.055294
0.100983
0.119156
0.064902
-0.003459
0.090455
0.100904
0.129513
0.119557
0.105793
-0.013876
0.013168
0.047048
0.060998
0.072450
0.083754
0.056496
0.099864
-0.094777
0.097801
0.139526
0.120636
0.000128
0.077999
0.050884
0.072280
0.127377
0.120574
0.148989
0.055056
0.070853
0.010505
0.034173
0.081224
0.114911
0.052324
0.068283
0.055882
0.046650
0.128577
0.032564
0.056131
0.061109
0.142139
0.092716
0.096215
0.107388
0.074356
0.110419
0.110139
0.126522
0.094621
0.118158
0.080765
0.066235
0.107815
0.111023
0.159175
0.249500
0.112479
0.187177
0.126080
0.137363
0.192462
0.157732
0.132587
0.185788
0.188766
0.239099
0.295014
0.245677
0.234549
0.284762
0.199667
0.198414
0.220436
0.214353
0.334132
0.180332
0.192371
0.271515
0.198902
0.174929
0.172822
0.159348
0.084216
0.154856
0.166066
0.111707
0.136363
0.105851
0.103848
0.091405
0.082415
0.149603
0.068071
0.056765
0.148385
0.065134
0.012418
0.066226
0.107828
0.097818
0.022848
0.077805
0.119638
0.065236
0.060152
0.074530
0.029963
0.018600
0.075097
0.023178
-0.029878
-0.038535
0.018391
0.037153
0.013748
0.029473
0.173750
0.432189
0.748453
1.096188
1.321061
1.462102
1.315799
1.109994
0.838294
0.497804
0.133965
-0.051926
-0.240285
-0.302628
-0.251764
-0.160322
-0.104641
-0.023666
-0.014891
0.037092
-0.058709
0.002487
0.005949
0.008159
0.004300
0.000448
0.015927
-0.002144
0.090968
0.090046
0.022675
0.098373
0.013712
0.061300
0.072338
0.059465
0.054333
0.047691
0.084299
0.091055
0.117256
0.112095
0.164995
0.216140
0.042900
0.193712
0.267475
0.217797
0.125791
0.244692
0.313845
0.259802
0.300280
0.332146
0.429975
0.336200
0.348113
0.389404
0.457301
0.479577
0.472038
0.427758
0.434265
0.552620
0.469604
0.575007
0.474248
0.591208
0.600183
0.511903
0.501081
0.454787
0.508410
0.487839
0.493214
0.484035
0.421066
0.436822
0.400272
0.376279
0.382886
0.373060
0.321090
0.234572
0.243332
0.367173
0.328620
0.117774
0.199268
0.141469
0.175918
0.152249
0.143064
0.165793
0.103480
-0.000422
0.106149
0.051855
0.054372
-0.047610
0.029113
0.110363
0.050241
-0.087138
0.020849
0.102192
-0.028859
-0.035444
-0.069517
0.018469
-0.079072
-0.017326
-0.061935
-0.059083
0.034114
-0.023619
-0.079919
-0.115915
0.003530
0.016402
0.004992
0.019453
-0.014550
-0.103623
-0.043203
-0.070574
-0.031162
-0.007831
-0.023617
-0.044829
-0.052808
-0.073909
0.037248
-0.036005
-0.048248
-0.017573
-0.024756
-0.049096
-0.130068
0.008632
-0.054725
-0.011586
-0.129495
-0.060340
-0.061983
0.009743
-0.101504
-0.093354
-0.050322
-0.022660
-0.075100
-0.001545
0.033474
0.000386
-0.030456
0.050327
-0.034767
-0.010145
-0.036561
0.011408
-0.057179
-0.048271
-0.097825
-0.004275
-0.081219
-0.112947
-0.038971
-0.028165
-0.117626
0.004981
-0.059864
-0.042012
-0.016723
-0.088827
0.001898
-0.095478
-0.080864
-0.038179
-0.000886
-0.012822
-0.006920
-0.062341
-0.035453
-0.041429
-0.047288
-0.026659
-0.052591
0.018710
-0.050039
-0.006096
0.063102
-0.024012
0.039136
0.061748
0.054953
0.039444
0.063608
0.064039
0.060839
0.085246
0.057211
0.145128
0.096018
0.098390
0.146066
0.172851
0.144908
0.112720
0.092716
0.122217
0.139009
0.135284
0.015345
0.088057
0.084055
0.018536
0.058973
-0.019145
0.025303
0.032159
0.028250
-0.028586
0.008155
-0.003045
-0.085075
-0.011031
-0.008821
-0.015536
0.054901
0.013776
-0.035648
0.026974
0.003188
0.003401
-0.079043
-0.046569
-0.011647
-0.047583
-0.070009
-0.090767
-0.046824
-0.021212
-0.042559
-0.057894
0.030984
-0.081803
-0.098895
-0.138081
-0.178187
-0.033559
0.068619
0.359935
0.684277
1.033680
1.312353
1.410761
1.245771
1.101073
0.745500
0.420363
0.087269
-0.081603
-0.336257
-0.394991
-0.223457
-0.239485
-0.269345
-0.059189
-0.097384
-0.026401
0.040400
-0.073312
-0.090153
-0.021190
0.002808
-0.020660
-0.002383
-0.008536
-0.088836
-0.042983
-0.043614
-0.101955
0.017132
-0.055400
-0.050262
0.084312
0.003338
-0.035820
0.024497
0.060174
0.080746
0.047044
0.040694
0.074564
0.101182
0.062830
0.197282
0.149058
0.159260
0.234492
0.239884
0.226022
0.293787
0.275994
0.315360
0.260224
0.410037
0.420530
0.453680
0.384338
0.411314
0.382969
0.456883
0.475599
0.432676
0.475741
0.382665
0.481747
0.485112
0.451136
0.518969
0.485463
0.470663
0.455936
0.421197
0.424774
0.405278
0.381348
0.381922
0.327055
0.340671
0.370857
0.241754
0.276956
0.223333
0.216780
0.237642
0.169872
0.128628
0.180742
0.147325
0.126516
0.131464
0.089616
0.109337
0.054749
0.096771
0.068854
0.041989
-0.052027
0.030413
0.058444
0.057013
0.103852
0.083437
0.025386
0.079526
-0.046827
0.029129
-0.014784
-0.052032
0.029598
-0.002923
0.068682
-0.021496
0.023330
-0.016617
0.096653
-0.000872
0.032694
0.009567
-0.127186
0.091601
-0.048102
0.035824
-0.062243
0.099770
0.001888
0.057722
-0.112330
-0.029006
-0.015369
0.027037
0.043251
0.029341
-0.022155
0.005114
0.067134
0.019674
0.042000
-0.046181
-0.026353
0.034265
0.029920
0.020351
0.030981
0.088702
-0.005204
0.043753
0.072579
0.062859
0.100736
-0.027636
-0.002293
-0.009371
-0.061258
0.045850
-0.002519
0.000590
0.017535
0.027476
0.090794
0.052392
0.052072
0.047585
0.032156
0.136505
0.034067
-0.020719
0.032123
-0.011280
0.029905
-0.001391
0.026315
0.105339
0.026949
0.018449
-0.024825
0.059286
0.097715
0.073141
-0.052892
-0.000031
-0.030719
0.006435
0.044702
0.084804
0.056988
0.138268
0.088951
0.118198
0.008420
0.099844
0.090260
0.117278
0.155047
0.235421
0.188360
0.289159
0.173778
0.226332
0.233563
0.238939
0.217237
0.209767
0.199970
0.277748
0.291841
0.232961
0.309283
0.196468
0.234566
0.157036
0.146878
0.172463
0.251007
0.098082
0.127912
0.137872
0.171502
0.041777
0.116420
0.055215
-0.004244
0.130259
0.119112
0.052432
0.072671
0.071813
0.019744
0.116255
0.050869
0.048270
0.145753
0.019011
0.068861
0.044321
0.101279
0.065487
0.116445
0.114697
0.157804
0.100123
0.078039
0.094464
0.075276
-0.003871
0.019861
0.021259
0.075822
0.283656
0.484637
0.850708
1.198483
1.398431
1.499815
1.435706
1.183829
0.776809
0.598027
0.230180
-0.053116
-0.188062
-0.197341
-0.213957
-0.154787
-0.003139
-0.011197
0.058752
0.032871
0.041037
0.122374
0.033855
0.081019
0.100698
0.119335
0.003884
0.077001
0.158863
0.035767
0.133087
0.096000
0.115541
0.057221
0.161367
0.141176
0.107299
0.226426
0.179661
0.119438
0.173426
0.210310
0.189631
0.160918
0.303455
0.213007
0.267239
0.284598
0.339923
0.324793
0.308636
0.447932
0.420130
0.372193
0.483084
0.424779
0.480629
0.442693
0.511892
0.504713
0.585036
0.454582
0.538530
0.602044
0.585112
0.632551
0.651970
0.646307
0.548931
0.549863
0.557214
0.741416
0.596527
0.563469
0.562978
0.515553
0.574826
0.527170
0.557089
0.528702
0.397701
0.487907
0.390095
0.359143
0.368953
0.332206
0.384125
0.305418
0.324435
0.259127
0.318949
0.235552
0.171560
0.247521
0.205365
0.152715
0.147017
0.180434
0.168915
0.165406
0.177508
0.156448
0.075448
0.092482
0.180657
0.087703
0.104412
0.073206
0.063663
0.156731
0.103230
0.072577
0.135737
0.107896
0.076943
0.111516
0.069486
0.087053
0.077664
0.072331
0.088933
0.151725
0.156314
0.161008
0.100732
0.093705
0.118543
0.095360
0.106568
0.105760
0.043370
0.092397
0.104740
0.110284
0.122204
0.047095
0.025382
0.095049
0.046120
0.108139
0.185353
0.111011
0.101602
0.091766
0.040567
0.130510
0.076794
0.094297
0.127943
0.034510
0.123617
0.124417
0.043364
0.101806
0.118667
0.065561
0.079582
0.141145
0.024252
0.070668
0.040199
0.103121
0.024325
0.070402
-0.085770
0.051239
0.026765
-0.066678
0.093675
0.073663
0.092316
0.010970
0.041712
0.131043
0.122305
0.057478
0.118875
0.108104
0.056550
0.095146
0.076783
0.046920
0.089495
0.081153
0.116076
0.127139
0.085026
0.120987
0.056146
0.176815
0.117228
0.153682
0.199234
0.172306
0.162843
0.125891
0.133692
0.213131
0.264167
0.216259
0.225430
0.128271
0.249881
0.169852
0.158810
0.245921
0.213719
0.204556
0.200408
0.169055
0.217430
0.146632
0.225989
0.127360
0.137936
0.154892
0.083204
0.178611
0.090609
0.128617
0.108019
0.106460
0.038028
0.037931
0.011556
0.069011
0.147100
0.091504
0.054226
0.043678
0.115772
0.074587
0.031098
0.027345
0.064326
0.018978
-0.004983
0.033870
0.002223
0.065978
-0.029765
0.052781
0.015749
-0.009057
0.027064
-0.012880
-0.038535
-0.068296
-0.011344
-0.007384
0.156142
0.447484
0.705969
1.012846
1.327159
1.457361
1.385429
1.162596
0.845853
0.522111
0.158604
-0.040053
-0.221034
-0.284665
-0.324447
-0.161777
-0.111249
-0.104117
-0.032110
-0.004065
0.012679
-0.024230
0.081490
0.096563
0.002172
0.024747
0.016840
0.071436
0.022120
0.071182
0.054637
0.075284
0.026869
0.036632
0.080346
0.053638
0.026716
0.038340
0.118521
0.030364
0.182087
0.107363
0.093112
0.130078
0.167868
0.171420
0.205261
0.255038
0.215552
0.201780
0.249109
0.224743
0.340360
0.252075
0.381257
0.403122
0.443852
0.404294
0.417021
0.408546
0.439691
0.614707
0.402218
0.412746
0.494116
0.500713
0.486133
0.559394
0.454985
0.437234
0.454277
0.538083
0.544325
0.439340
0.511698
0.460904
0.486633
0.383353
0.479561
0.325184
0.316251
0.321220
0.244226
0.350108
0.273608
0.236991
0.196217
0.179799
0.129195
0.158906
0.143054
0.132884
0.078847
0.121566
0.085612
0.111235
0.097021
0.074515
0.042033
-0.028328
-0.001437
0.065192
0.004988
-0.006695
-0.127353
-0.047063
-0.017658
0.007063
-0.007488
-0.076044
-0.021535
0.064489
-0.049307
0.020391
-0.009449
-0.065973
-0.066074
0.004982
0.051498
-0.053352
-0.063139
-0.041958
-0.079636
-0.012828
0.008227
-0.091654
-0.086065
0.001721
-0.008635
-0.002895
0.010047
-0.098899
-0.069204
-0.041742
-0.066269
0.039823
-0.037691
0.000104
-0.065406
-0.017203
0.007341
-0.068916
-0.122066
-0.054136
-0.034517
-0.083336
-0.084038
-0.055947
-0.069402
-0.060298
-0.050373
-0.045910
-0.094525
-0.090644
-0.038759
-0.040635
-0.037000
-0.129826
-0.075986
-0.098974
-0.110002
0.043290
-0.121729
-0.081753
-0.008605
-0.067923
-0.136193
-0.133678
-0.054286
-0.015555
-0.008879
-0.041542
-0.045883
-0.125301
-0.167692
-0.041684
-0.027674
-0.079649
-0.097550
-0.059485
-0.046456
-0.107649
-0.060158
-0.011460
-0.012597
-0.065385
0.031911
-0.103311
-0.066427
-0.067958
0.074200
-0.066144
-0.021648
-0.042692
0.089444
0.084266
0.071521
0.062449
0.107331
0.104240
0.066707
0.075459
0.065034
0.048606
0.224463
0.105301
0.126695
0.082538
0.120513
0.175901
0.060040
0.054968
0.028784
0.081046
0.102537
0.053892
-0.010748
-0.052468
-0.091368
0.012447
-0.039702
-0.022545
0.009517
-0.034924
-0.144663
-0.025985
-0.075039
-0.059631
-0.113689
-0.061913
0.033936
-0.061018
-0.100568
-0.068140
-0.032878
-0.139444
-0.080060
-0.151645
-0.120764
-0.115256
-0.048358
-0.037786
-0.132114
-0.052172
-0.133057
-0.161161
-0.034764
-0.169587
-0.170722
-0.072771
0.068791
0.313620
0.704121
0.987109
1.256782
1.311663
1.335863
1.113111
0.738896
0.379520
0.033431
-0.163005
-0.318643
-0.472536
-0.436124
-0.265572
-0.158304
-0.146601
-0.120643
-0.073352
-0.060448
0.016884
-0.054671
-0.094206
-0.028416
-0.040373
-0.032665
-0.025657
0.097148
-0.058490
-0.036765
-0.126480
-0.064633
-0.039421
-0.101068
-0.134309
0.041906
-0.022987
-0.024122
0.023366
0.046653
0.070501
0.049137
0.115264
0.048309
0.028456
0.049270
0.104714
0.145598
0.181170
0.139045
0.216952
0.227695
0.267933
0.303184
0.260965
0.342102
0.320129
0.371062
0.407814
0.370320
0.330925
0.433382
0.350713
0.455178
0.419704
0.489848
0.441535
0.399435
0.470016
0.517574
0.443904
0.494087
0.419345
0.378278
0.395913
0.399854
0.281669
0.368145
0.297240
0.245375
0.312790
0.212173
0.204133
0.131230
0.120163
0.189241
0.193308
0.139633
0.177436
0.097083
0.137211
0.061943
0.050535
0.063448
0.045281
0.038566
0.034025
-0.016481
0.011140
0.003053
0.000679
-0.054033
-0.002707
0.058783
-0.033036
-0.001481
0.008613
-0.023610
-0.090016
-0.009692
-0.048185
-0.081899
-0.042730
-0.083449
0.017706
-0.016068
-0.043781
-0.030869
0.005043
-0.075343
-0.044572
0.051953
-0.059863
-0.062643
-0.097096
-0.058214
-0.016540
-0.045444
0.033417
-0.036690
-0.039588
-0.089978
-0.035442
-0.044147
-0.048681
-0.022475
-0.009812
0.019273
-0.026121
-0.039654
-0.049626
-0.059382
-0.044989
-0.052467
-0.008259
-0.039645
-0.031151
-0.096138
-0.039636
0.003688
-0.097383
-0.002061
-0.071535
-0.094031
0.016828
0.018989
-0.025007
-0.019799
-0.102967
-0.034709
-0.070730
0.008841
-0.075063
-0.045142
-0.025601
-0.069451
-0.019463
-0.033646
-0.042992
-0.093623
-0.025849
-0.031670
-0.005812
0.034771
0.032293
-0.048696
0.027447
0.043294
-0.021811
-0.007854
0.013442
-0.091023
-0.012748
-0.058987
0.000719
-0.049660
-0.022245
0.009076
0.015642
0.047497
0.035004
0.088680
0.082322
0.085512
0.060215
0.117743
0.096210
0.082375
0.197683
0.153394
0.206952
0.179769
0.236564
0.162283
0.136153
0.179650
0.190500
0.137759
0.133803
0.090583
0.180021
0.139311
0.190510
0.153060
0.063638
0.106815
0.102581
0.135707
-0.011022
0.039744
0.090674
0.088314
0.080574
0.076316
0.057669
-0.051330
0.026813
0.049021
0.011720
0.001249
-0.039566
0.024617
0.055086
-0.010128
-0.025418
0.035258
0.018501
-0.021487
0.068882
-0.016738
0.067739
0.067332
-0.085102
0.004684
0.026686
-0.007920
-0.083140
-0.052626
0.021468
0.165030
0.435925
0.770592
1.013689
1.355248
1.500000
1.396552
1.136695
0.801518
0.440059
0.221258
-0.080979
-0.227637
-0.281267
-0.274931
-0.191623
-0.088552
-0.056870
-0.004718
-0.046125
0.001638
0.059060
0.053253
0.065587
0.078772
0.009756
0.011798
0.067562
0.033402
0.121660
0.031449
0.055732
0.048008
0.083311
0.020723
0.111146
0.078208
0.210374
0.161725
0.204886
0.138070
0.220383
0.250350
0.198804
0.161536
0.222792
0.190135
0.250202
0.266643
0.334256
0.276431
0.207780
0.288215
0.354388
0.406979
0.361633
0.389839
0.431859
0.439925
0.487074
0.503256
0.439856
0.554231
0.467933
0.611228
0.567418
0.562166
0.610267
0.542826
0.564259
0.475185
0.673266
0.542785
0.507983
0.485788
0.411208
0.486236
0.467385
0.369507
0.421763
0.400775
0.368911
0.354432
0.371459
0.390223
0.252889
0.279856
0.244552
0.206845
0.198518
0.272767
0.193348
0.174641
0.134759
0.086659
0.106123
0.036308
0.123648
0.068703
0.108748
0.063369
0.162657
0.040806
0.032653
0.090386
0.079432
0.114492
0.039077
0.046451
0.009028
0.027174
0.008681
0.131389
0.023384
0.105632
0.074078
0.015610
-0.028694
-0.006186
0.020427
-0.022919
0.101572
-0.049479
0.044445
0.032913
0.089334
0.026788
0.109075
0.093999
0.028965
-0.005055
0.049347
0.087133
0.012021
0.030742
0.058977
0.062254
0.012518
0.089247
0.092473
0.039959
0.085198
0.045203
-0.037026
-0.001015
0.086295
0.013107
0.026396
0.083003
0.049002
0.087747
0.008193
0.037448
0.014572
0.069866
-0.006453
0.076280
-0.027672
0.036209
0.059723
0.012799
0.084527
-0.048870
-0.024825
0.045987
0.000327
0.075408
-0.012677
-0.011411
0.099482
0.039758
0.095714
0.075272
0.126417
0.060999
0.091661
0.013800
0.066926
-0.012833
0.006766
0.123960
0.069509
0.041564
-0.084132
0.020108
0.046457
0.050977
0.088481
0.044645
0.021413
0.126954
0.042619
0.129791
0.037002
0.038757
0.131120
0.183415
0.117134
0.167166
0.159064
0.191440
0.217895
0.153125
0.175619
0.281829
0.192918
0.174130
0.179674
0.098227
0.181414
0.218876
0.191467
0.114193
0.116887
0.108867
0.122922
0.094404
0.057512
0.059092
0.059049
0.067599
0.034109
0.126860
0.104573
0.003820
0.035071
0.029836
0.087475
-0.014215
0.069822
-0.002584
0.008214
0.029556
0.016075
0.017097
0.009517
0.076721
-0.001086
-0.002714
0.011819
0.005675
-0.054135
0.038602
-0.023323
0.110296
-0.017093
-0.112091
-0.113658
-0.010201
0.031000
0.184507
0.367040
0.788004
1.031090
1.302824
1.380856
1.342713
1.156779
0.738482
0.424441
0.124245
-0.063608
-0.293687
-0.316030
-0.266990
-0.205456
-0.179178
-0.085353
-0.010453
-0.091858
-0.058824
0.032348
-0.051386
-0.034861
-0.031394
0.038851
-0.013199
0.043521
0.004623
-0.080241
0.013910
0.054400
0.025353
0.044560
0.093991
-0.005150
0.015310
-0.075765
0.091641
0.143459
0.056411
0.084700
0.118140
0.125046
0.144458
0.172488
0.108052
0.203859
0.240364
0.210379
0.207923
0.292120
0.161009
0.280462
0.332414
0.352713
0.335614
0.387256
0.454691
0.415418
0.381493
0.367106
0.413964
0.434411
0.463303
0.489029
0.528492
0.469410
0.482412
0.445485
0.466489
0.427042
0.447486
0.370847
0.433962
0.397816
0.370992
0.378641
0.315369
0.349144
0.343265
0.339147
0.310751
0.194026
0.240359
0.286534
0.226430
0.216805
0.151516
0.169770
0.133635
0.137553
0.089131
0.192291
0.049167
0.127438
0.043259
-0.069129
-0.025660
0.012195
0.019868
-0.054790
-0.066182
-0.024701
-0.105895
-0.043797
-0.046157
-0.085143
-0.005970
-0.064451
-0.050843
-0.058207
-0.075656
-0.023639
-0.011015
-0.076032
-0.112967
-0.051485
-0.170179
-0.071246
-0.055712
-0.081923
-0.045344
-0.073403
-0.108369
-0.027786
-0.113354
-0.136529
-0.035022
-0.058285
-0.069257
-0.107612
-0.113418
-0.065426
-0.089772
-0.032894
-0.050219
-0.118285
-0.141459
-0.154308
-0.073353
-0.052171
-0.103821
-0.126126
-0.062599
-0.083966
-0.030784
-0.054115
-0.006376
-0.107717
-0.074799
-0.147038
-0.087851
-0.127579
-0.113723
-0.129088
-0.084580
-0.070319
-0.153251
-0.097388
-0.074890
-0.095265
-0.066086
-0.095670
-0.031208
-0.044555
-0.099557
-0.037338
-0.101394
-0.085132
-0.175964
-0.140064
-0.069245
-0.105465
-0.103598
-0.070861
-0.081552
-0.060699
-0.073783
-0.039597
-0.177327
-0.106710
-0.126908
-0.080422
-0.045783
-0.059638
0.002989
-0.040532
0.007229
-0.042666
-0.019581
-0.043079
-0.032434
-0.056073
0.066929
-0.025657
0.006908
0.051672
0.055542
0.073386
0.025368
0.065480
0.074650
0.115597
0.028580
0.112771
0.069574
0.121538
0.108335
0.063270
0.072646
0.055878
0.014196
0.080405
0.062326
-0.081552
0.018267
-0.026815
-0.060834
0.010316
-0.048877
-0.011395
-0.053257
-0.039980
-0.112266
-0.049715
-0.065322
-0.046228
-0.170518
-0.133655
-0.170089
-0.024679
-0.112048
-0.077219
-0.082206
-0.105637
-0.081973
-0.116298
-0.136010
-0.105690
-0.052146
-0.162677
-0.083710
-0.041342
-0.202076
-0.169431
-0.192190
-0.132976
-0.191191
-0.052437
0.050541
0.232510
0.606158
0.984857
1.141917
1.263710
1.316023
1.047192
0.623062
0.370033
0.054977
-0.243648
-0.325050
-0.427129
-0.412849
-0.410615
-0.143993
-0.267738
-0.112869
-0.077355
-0.155756
-0.048012
-0.017233
-0.077388
-0.114743
-0.074062
-0.045857
-0.076278
-0.038045
-0.047104
-0.064301
0.046285
-0.070518
0.004936
-0.082730
-0.054874
-0.118690
0.048478
-0.050810
0.033415
0.038781
-0.007616
0.007784
0.065458
0.119146
0.034145
0.054374
0.088417
0.196421
0.135747
0.228464
0.239096
0.230253
0.212463
0.292276
0.266913
0.304097
0.294777
0.339634
0.364898
0.356894
0.421129
0.358762
0.454233
0.395389
0.400908
0.464484
0.334043
0.474076
0.365149
0.379234
0.398607
0.418833
0.431575
0.425533
0.418345
0.336689
0.332740
0.258030
0.253597
0.339823
0.334436
0.334468
0.242757
0.222889
0.157466
0.121666
0.152845
0.189965
0.209229
0.085629
0.135955
0.094464
0.025472
0.062642
0.080291
0.026354
-0.011421
-0.046039
-0.022990
0.054031
0.056230
0.026158
-0.069595
-0.098495
-0.088351
-0.013931
-0.091235
-0.022798
0.020077
0.002827
-0.034067
-0.088954
-0.028080
-0.033493
-0.012363
-0.053679
-0.056752
0.010011
-0.048728
-0.024700
-0.038420
-0.052606
-0.047539
-0.073852
-0.110018
-0.044622
-0.027264
-0.021120
-0.036639
-0.047619
0.058222
-0.035552
-0.051874
-0.129484
-0.049973
-0.031264
-0.058328
0.006894
-0.105479
-0.061803
-0.073717
0.028757
-0.000551
-0.044766
-0.004761
-0.105774
-0.016090
-0.017095
-0.072512
0.000679
-0.075630
-0.068331
-0.048697
0.002779
-0.092799
-0.037575
-0.054721
-0.013397
-0.035888
-0.091941
-0.017476
0.040840
-0.088554
0.039642
-0.007913
-0.006342
-0.018853
-0.049818
-0.011325
-0.039018
-0.006817
-0.069918
-0.079983
-0.001525
-0.018906
0.017644
-0.024674
-0.037949
0.079471
0.009749
-0.135436
-0.028502
0.051423
0.027375
-0.004198
0.042974
0.029699
-0.047387
0.075085
0.052393
0.121311
0.051811
0.081679
0.104608
0.105490
0.217420
0.073377
0.166782
0.171597
0.229591
0.158606
0.132553
0.190043
0.132305
0.229127
0.213438
0.198737
0.152218
0.222102
0.170042
0.177321
0.086630
0.075149
0.128362
0.116965
0.066394
0.104833
0.166076
0.091095
0.013255
0.040935
0.015187
0.045611
0.018053
0.020273
0.103539
0.059430
0.017714
0.038229
-0.017263
0.018303
0.007690
0.060230
0.044537
0.031409
0.039999
0.084408
0.083314
0.038258
0.072159
0.003078
0.100308
0.019664
0.011073
0.013182
-0.108578
-0.126324
-0.082861
-0.030198
0.207335
0.419044
0.788815
1.165656
1.293201
1.402866
1.327482
1.202799
0.816013
0.489829
0.172154
-0.093658
-0.207021
-0.280190
-0.337291
-0.128863
-0.019913
-0.055263
0.009710
0.003860
0.061165
0.010231
0.078147
0.029810
0.042503
0.081059
-0.043716
0.053270
0.062405
0.065291
0.081611
0.129992
0.187570
0.094039
0.067922
0.142749
0.125336
0.074189
0.163221
0.101846
0.188371
0.211782
0.187440
0.181470
0.243096
0.249581
0.256937
0.280151
0.233092
0.266391
0.303028
0.240460
0.272820
0.391141
0.438885
0.380544
0.432896
0.490411
0.460015
0.482908
0.494478
0.464590
0.525135
0.489893
0.645167
0.451601
0.618840
0.579564
0.530510
0.544831
0.578783
0.553631
0.564890
0.571724
0.474221
0.494494
0.452324
0.523643
0.505277
0.475292
0.488633
0.356513
0.384416
0.320591
0.288792
0.323508
0.304092
0.319654
0.245556
0.247808
0.254852
0.150642
0.160380
0.169288
0.198964
0.145114
0.147328
0.136147
0.087978
0.154137
0.091264
0.207144
0.116919
0.093803
0.002920
0.114933
0.032982
0.094299
0.040820
0.138232
0.035646
0.153430
0.086323
0.044154
0.006452
0.071721
0.113794
0.107514
0.150267
0.103732
0.022221
0.111221
0.137137
0.061189
0.104848
0.151095
0.082126
0.076903
0.039892
-0.041405
0.013137
0.125733
0.157782
0.161962
0.085615
-0.014193
0.023578
-0.017658
0.092026
-0.015532
0.088432
0.140688
0.060711
0.048491
0.070324
0.080824
0.063965
0.037348
0.135824
0.075236
0.009817
0.102307
-0.018849
0.048673
0.071035
