-0.002977
-0.059281
0.091173
-0.010009
-0.029798
0.047901
-0.015834
0.017852
-0.045384
-0.011779
-0.083675
-0.017274
0.010167
0.030671
0.023522
0.028142
-0.006267
0.107229
0.036607
0.080554
0.048889
0.072205
0.109598
0.007179
0.111269
0.089804
0.147513
0.177230
0.107120
0.106063
0.091814
0.192297
0.188395
0.117729
0.284637
0.213100
0.154270
0.173648
0.172505
0.190700
0.186792
0.199681
0.173558
0.166783
0.096855
0.144295
0.182928
0.061592
0.158492
0.093757
0.144727
0.109931
0.132286
0.155516
0.050282
0.043339
0.066820
0.068065
0.089427
0.067118
0.097927
0.073393
0.028469
0.040105
-0.036976
0.049165
0.116911
0.045299
0.155512
0.265854
0.416877
0.714840
1.076924
1.304284
1.500000
1.403933
1.133894
0.738798
0.377704
0.079687
-0.130787
-0.154096
-0.095919
-0.091221
-0.034373
0.022222
0.094261
0.147402
0.043987
0.160163
0.131546
0.095209
0.070957
0.096366
0.159854
0.235945
0.251025
0.153798
0.254635
0.245459
0.287338
0.312794
0.296832
0.353605
0.408579
0.426693
0.356433
0.454790
0.542480
0.397943
0.487046
0.499393
0.459006
0.510383
0.549234
0.553347
0.513156
0.543459
0.587307
0.591056
0.552595
0.568058
0.559844
0.566790
0.582748
0.586457
0.574356
0.540949
0.511023
0.532365
0.548000
0.520208
0.495289
0.390544
0.397165
0.380663
0.434680
0.265944
0.350794
0.299084
0.289616
0.263872
0.364197
0.254154
0.266513
0.211689
0.165328
0.147349
0.242464
0.161607
0.125459
0.170479
0.159238
0.184057
0.085046
0.133673
0.012637
0.110129
0.080443
0.058012
0.070511
0.105352
0.087181
0.140523
0.061246
0.108897
0.089686
0.108327
0.037470
0.160174
0.068950
-0.023067
0.160217
-0.000385
0.061131
0.109134
0.124485
0.023374
-0.006553
0.064921
0.115986
0.085760
0.076849
0.059425
0.074030
0.111074
0.042290
0.047845
0.158988
0.095205
0.011632
0.094758
0.057895
0.159990
0.109094
0.033954
0.086135
0.121589
0.145366
0.168637
0.041497
0.182135
0.149734
0.157757
0.092216
0.144704
0.105682
0.097430
0.151057
0.204052
0.125498
0.221266
0.227758
0.220977
0.234070
0.277397
0.162177
0.253333
0.192881
0.330989
0.267656
0.241484
0.202926
0.244255
0.234903
0.233963
0.216550
0.243653
0.304433
0.241199
0.248166
0.118496
0.231645
0.093486
0.191123
0.168830
0.136968
0.087756
0.167878
0.146518
0.050804
0.153660
0.107906
0.079276
0.116187
0.126820
0.044577
0.065222
0.101146
0.061109
0.072060
0.130659
0.095893
0.212756
0.131240
0.458759
0.687548
0.954470
1.234405
1.462439
1.421990
1.244136
0.758612
0.422755
0.187736
-0.098806
-0.225764
-0.035321
0.034214
-0.030986
0.105594
0.093721
0.102240
0.094881
0.138415
0.166438
0.177485
0.113661
0.200047
0.146372
0.246237
0.197760
0.245038
0.209346
0.313678
0.316930
0.257102
0.334385
0.309602
0.338116
0.323308
0.367313
0.377731
0.430294
0.487743
0.506447
0.503732
0.447850
0.493422
0.505193
0.549774
0.497688
0.574026
0.632142
0.663636
0.604944
0.561169
0.555543
0.535443
0.579985
0.499889
0.603836
0.571161
0.564973
0.490387
0.457519
0.460846
0.478887
0.378262
0.356994
0.361275
0.351833
0.419895
0.244905
0.319560
0.246713
0.220694
0.229240
0.206295
0.221743
0.184716
0.144002
0.215498
0.189675
0.083180
0.106726
0.124072
0.044410
0.142447
-0.010525
0.103885
0.071303
0.124688
0.058226
0.040335
0.076358
0.072415
0.060790
0.125784
0.022280
0.046668
-0.003676
0.098837
0.087091
0.031594
-0.014260
0.171466
0.038530
-0.040188
0.078096
0.006971
0.052333
0.011009
0.060436
0.111322
0.100896
0.003249
0.018279
0.079872
-0.024672
-0.007886
0.068650
0.018841
-0.003014
0.030622
0.074346
0.047269
-0.014571
0.046576
0.011427
-0.011302
0.046338
0.055225
0.071245
0.063067
0.028933
0.081286
0.062963
0.057361
0.088992
0.092777
0.065874
0.141554
0.022513
0.131154
0.060447
0.088293
0.086571
0.094084
0.097528
0.126075
0.095339
0.145422
0.232577
0.205917
0.195353
0.088827
0.154118
0.153778
0.171836
0.284298
0.113581
0.168916
0.072278
0.167645
0.137753
0.143725
0.093301
0.087432
0.108667
0.069874
0.114792
0.043567
0.161179
0.073168
0.054291
0.015454
0.015822
-0.015816
-0.034518
0.002972
0.064644
-0.053346
-0.005881
0.029935
0.065906
-0.049590
-0.084046
0.061886
0.138175
0.255748
0.515594
0.847328
1.130981
1.340577
1.279113
1.252185
0.803759
0.364488
0.119728
-0.093366
-0.215407
-0.208621
-0.038222
-0.126053
-0.006934
-0.034158
-0.033282
0.022640
0.024975
0.065152
0.082763
0.000480
-0.011214
0.093715
0.063817
0.141273
0.131206
0.170778
0.187384
0.135769
0.265625
0.240180
0.250807
0.241044
0.231849
0.212072
0.262109
0.252964
0.361405
0.379475
0.350979
0.403902
0.381437
0.494296
0.451195
0.458475
0.447498
0.453817
0.538833
0.471993
0.508053
0.520592
0.472725
0.397877
0.437361
0.531781
0.577786
0.426843
0.434869
0.368403
0.370816
0.266238
0.329087
0.338216
0.321889
0.277915
0.227654
0.187748
0.180965
0.177743
0.133508
0.202798
0.153475
0.126456
0.038728
0.106293
0.046356
0.108568
0.078421
0.077713
0.084666
0.054377
0.004088
0.000936
0.063604
-0.033778
-0.042677
-0.058427
-0.019751
0.000562
-0.045841
0.033692
-0.013091
-0.096092
-0.070331
0.011262
-0.014930
0.052481
-0.027596
-0.008192
-0.067632
-0.044033
-0.031816
-0.008375
-0.048070
-0.047217
-0.059237
-0.036416
-0.083251
-0.005257
-0.019354
0.035388
0.025428
-0.056812
-0.030228
-0.066048
-0.001411
-0.062731
-0.082038
-0.150586
-0.053998
-0.023354
-0.054169
-0.065975
-0.098560
-0.015790
0.038793
-0.013212
-0.076389
-0.108534
0.036675
-0.051079
0.001916
-0.030413
-0.068684
-0.013118
-0.050530
0.024037
0.058625
0.015445
0.056405
0.102890
0.070040
0.075353
0.117116
0.096437
0.048126
0.163544
0.142058
0.127684
0.118349
0.121013
0.132135
0.171977
0.067588
0.224545
0.086835
0.124062
0.181914
0.038416
0.084851
0.104362
0.053894
0.067557
-0.004366
0.004738
-0.050777
0.069596
0.027906
-0.065376
-0.034075
0.032904
0.014169
-0.004079
0.026099
-0.058189
-0.105092
0.012062
-0.083007
-0.017222
-0.063443
-0.087324
0.022900
0.067173
0.137676
0.490494
0.774426
1.029616
1.301508
1.362665
1.116752
0.902705
0.557448
0.129134
-0.105116
-0.185153
-0.227943
-0.178179
-0.074151
-0.002912
0.064064
-0.055773
0.043192
0.153378
0.000035
0.028599
0.037521
0.045419
0.081712
0.040014
0.184704
0.101009
0.204751
0.113918
0.168644
0.159704
0.229347
0.143093
0.187592
0.194360
0.306365
0.241134
0.400265
0.307937
0.401806
0.368447
0.375655
0.425281
0.361029
0.514220
0.474825
0.522900
0.446678
0.572812
0.433143
0.481385
0.449457
0.446828
0.469316
0.511985
0.424124
0.458815
0.444215
0.515891
0.372551
0.377252
0.379490
0.400289
0.307334
0.328853
0.342784
0.274576
0.268570
0.310567
0.156310
0.250892
0.245208
0.180690
0.158249
0.079154
0.101564
0.117450
0.081996
0.090367
0.092548
0.078764
0.048406
0.100631
0.033538
0.001507
0.009190
0.060111
0.046324
0.014932
0.004451
0.028790
0.021068
-0.052130
-0.016864
-0.015845
0.008857
-0.102967
0.101416
-0.066496
0.027426
0.045067
-0.018149
0.026548
0.019312
-0.052669
-0.011036
-0.004335
-0.019310
0.008776
0.013028
0.011470
-0.012763
0.031444
-0.091604
0.102229
0.022212
-0.027321
-0.003693
0.075880
-0.028957
-0.044826
-0.103590
0.010122
0.026286
-0.004443
0.025070
-0.077600
0.026449
0.012161
0.032465
-0.015948
-0.019395
0.060435
0.054391
0.126801
0.105786
0.112332
0.071216
0.012608
0.135098
0.077109
0.150506
0.157936
0.167182
0.141869
0.163047
0.146934
0.191596
0.114567
0.238357
0.248170
0.179160
0.192066
0.184775
0.212823
0.226697
0.222573
0.232701
0.208859
0.173403
0.241071
0.203116
0.082896
0.149344
0.099950
0.076205
0.050939
0.094414
0.039755
0.004843
0.062850
0.056599
0.115638
0.147019
0.121733
0.033279
0.091749
0.035844
0.092689
0.097821
0.028965
0.098961
0.115772
0.138346
0.245717
0.540113
0.767869
1.089974
1.349786
1.385255
1.334361
1.045266
0.727470
0.300867
0.024294
-0.098073
-0.108672
-0.038608
-0.012907
-0.005274
0.066391
0.114539
0.100211
0.005434
0.134800
0.119968
0.111800
0.271618
0.218439
0.215093
0.203089
0.188274
0.168267
0.343587
0.232385
0.341526
0.314505
0.232209
0.408652
0.401976
0.348130
0.256573
0.469951
0.424002
0.529037
0.471227
0.507905
0.533122
0.578070
0.553948
0.502141
0.626304
0.528067
0.612981
0.546579
0.570318
0.663524
0.556363
0.588255
0.518967
0.598436
0.574727
0.485948
0.534585
0.482487
0.464882
0.550690
0.441451
0.471263
0.431877
0.425005
0.349440
0.323484
0.262718
0.354870
0.317426
0.282731
0.230967
0.212910
0.199394
0.171541
0.219806
0.222439
0.199731
0.112846
0.200500
0.123927
0.144669
0.158212
0.099788
0.148285
0.075853
0.138930
0.124530
0.135058
0.117302
0.094561
0.112990
0.063848
0.066932
0.181149
0.127302
0.079826
0.175554
0.065940
0.120385
0.125428
0.097741
0.130386
0.120608
0.014953
0.054962
0.080593
0.095007
0.106644
0.045384
0.068256
0.085693
0.047944
0.023915
0.067241
0.065584
0.099035
0.085152
0.110096
-0.011253
0.108171
0.067551
0.045838
0.127593
0.166978
0.178945
0.146117
0.104497
0.119827
0.115863
0.160805
0.147419
0.186948
0.085166
0.115334
0.165370
0.044691
0.182834
0.134988
0.124935
0.217025
0.254135
0.231063
0.185708
0.259925
0.235839
0.272873
0.287721
0.200643
0.231263
0.285509
0.349723
0.282951
0.337379
0.259016
0.209843
0.123973
0.258912
0.264991
0.231954
0.224255
0.235229
0.127182
0.175413
0.144756
0.126656
0.224649
0.176932
0.128522
0.138547
0.073149
0.150708
0.115584
0.040824
0.107594
0.076261
0.080051
0.083186
0.115302
0.018075
0.047510
0.103402
0.095404
0.321160
0.483739
0.702219
1.090758
1.360969
1.443669
1.334724
1.085270
0.747435
0.494819
0.142908
-0.077491
-0.098292
-0.043539
0.004064
-0.014299
-0.035097
0.087888
0.062409
0.107299
0.197312
0.142611
0.081721
0.187753
0.203776
0.261704
0.134438
0.220712
0.219205
0.293191
0.326255
0.221622
0.314381
0.284499
0.326267
0.361769
0.338650
0.366419
0.493492
0.403771
0.429146
0.481986
0.424554
0.522191
0.425008
0.671159
0.541593
0.517685
0.554153
0.559836
0.572194
0.517368
0.527583
0.603961
0.597725
0.557689
0.572491
0.604914
0.594562
0.468584
0.481638
0.472939
0.383708
0.484864
0.475750
0.389829
0.410945
0.302912
0.345739
0.291946
0.311131
0.291318
0.297259
0.339725
0.269111
0.241211
0.209386
0.214857
0.142800
0.114539
0.148677
0.140717
0.072223
0.174106
0.009648
0.130234
0.114534
0.017363
0.078772
0.066944
0.052263
0.112741
0.107891
-0.000203
-0.002897
-0.000872
0.049373
0.085329
0.088560
0.078405
0.072609
0.087180
0.050137
0.044585
0.012581
0.037960
-0.031071
-0.003831
0.012415
-0.002439
0.009949
0.035199
0.007648
-0.004702
0.034385
0.021831
0.031295
-0.009020
0.066201
0.031554
0.023436
0.021676
-0.037440
-0.041667
-0.001474
0.050764
0.038333
0.117569
0.010318
0.074861
0.076708
0.042126
0.037122
-0.009121
0.064016
0.002335
0.125681
0.069251
0.080681
0.058363
0.091216
0.113983
0.075256
0.063019
0.047523
0.079951
0.054370
0.096174
0.056484
0.178352
0.094076
0.151931
0.170277
0.179022
0.229033
0.125589
0.177278
0.127201
0.111136
0.202220
0.095519
0.044921
0.040493
0.092086
0.084282
0.034809
0.082507
0.033633
0.047889
0.067920
0.008520
0.045034
-0.013804
0.009103
0.048809
-0.008279
0.051497
0.044684
-0.023750
-0.021115
0.021876
-0.035101
-0.023782
0.029717
-0.025960
0.111405
0.345611
0.612328
0.887531
1.241831
1.318132
1.326879
1.038249
0.666655
0.401945
0.043646
-0.193065
-0.197141
-0.216305
-0.185544
-0.113917
-0.020676
-0.005168
0.015434
0.040635
0.022314
0.016104
0.052145
0.073115
0.060258
0.052105
0.073590
0.050993
0.103419
0.127622
0.156860
0.175507
0.106841
0.099937
0.250016
0.191714
0.297759
0.239405
0.298374
0.348016
0.348433
0.432506
0.386856
0.386747
0.336194
0.391489
0.442772
0.441628
0.395646
0.486909
0.452020
0.469684
0.435621
0.409700
0.407642
0.450171
0.499419
0.453137
0.381195
0.336959
0.396817
0.457227
0.266249
0.318743
0.266243
0.310468
0.263254
0.180609
0.142735
0.228955
0.238181
0.087558
0.200010
0.165346
0.126989
0.144875
0.129567
0.051209
0.031994
0.069795
0.031217
0.070140
0.032181
0.068169
-0.035229
0.029618
-0.020208
-0.027977
-0.083246
0.001193
-0.033869
-0.044621
-0.067677
-0.019711
-0.041432
-0.041302
-0.059433
-0.028119
-0.069314
-0.109653
-0.033861
-0.149354
-0.076463
-0.102599
-0.023405
-0.215433
-0.077854
-0.130687
-0.017310
-0.091675
0.023756
0.016397
-0.079475
-0.025925
-0.093414
-0.097443
-0.065509
-0.083919
-0.059331
-0.047359
-0.069088
-0.107122
0.003919
-0.058588
-0.078229
-0.102336
-0.095445
-0.019214
-0.092058
-0.057926
-0.062103
-0.117175
-0.022211
-0.107823
0.033908
-0.010089
-0.102977
0.067145
-0.047884
-0.012920
-0.001943
0.003312
-0.013535
0.034359
0.102072
0.056731
0.069452
0.069803
0.082002
-0.021807
0.158990
0.110697
0.049315
0.099366
0.069988
0.009739
0.112862
0.063702
0.138485
0.084352
0.039688
-0.064838
-0.031164
0.032323
0.135522
0.078394
-0.062811
0.012408
-0.027147
-0.031666
-0.073411
-0.063508
0.015213
-0.036555
0.050987
-0.025413
-0.089304
-0.146412
-0.147678
-0.069838
-0.145913
-0.036265
-0.117167
-0.035693
-0.087867
0.057413
0.264074
0.522324
0.756993
0.946218
1.250341
1.259508
1.094085
0.707581
0.337865
0.069709
-0.238410
-0.296292
-0.234843
-0.233023
-0.141456
-0.115041
-0.061057
-0.012696
-0.007540
-0.007047
0.027420
0.011226
0.007590
0.020038
0.065125
0.043312
0.039973
0.052894
0.075870
0.054918
0.190702
0.194880
0.183602
0.151282
0.275878
0.244293
0.212097
0.223760
0.305276
0.250397
0.364812
0.289799
0.310507
0.343669
0.371149
0.345551
0.354169
0.457400
0.398263
0.455604
0.581859
0.446743
0.500262
0.460701
0.379397
0.491155
0.519385
0.541592
0.384348
0.363428
0.325491
0.269782
0.364374
0.348385
0.272185
0.252275
0.234733
0.201112
0.199849
0.174140
0.222079
0.180980
0.069049
0.199880
0.054874
0.143640
0.054930
0.147031
0.087619
0.092849
0.034644
-0.002774
-0.097299
-0.012892
0.069492
0.000500
0.018863
-0.068474
-0.069251
-0.036835
0.017162
-0.010666
-0.051496
-0.122000
-0.059021
-0.024362
0.014552
-0.094094
-0.100252
-0.017128
-0.044728
-0.070196
-0.085009
-0.021572
-0.013468
0.001311
-0.014815
-0.041516
-0.031908
-0.113669
-0.038960
-0.106622
-0.079811
0.052788
-0.051138
-0.042734
-0.042296
-0.027443
-0.010475
-0.126681
-0.013635
-0.068332
-0.046138
-0.035345
-0.072856
-0.020524
0.005443
-0.060908
-0.030267
-0.033138
0.014763
-0.015599
0.043261
-0.023752
0.048222
0.001974
0.010971
0.067686
0.066589
0.070351
0.041150
0.157276
0.056535
0.093613
0.106770
0.118119
0.069375
0.196637
0.100192
0.246385
0.213618
0.202186
0.132533
0.156789
0.245187
0.170376
0.192073
0.131701
0.150138
0.130894
0.051045
0.117968
0.201905
0.146058
0.052417
0.046719
0.113679
-0.017246
0.009712
0.083372
0.058043
-0.007754
-0.043102
0.087977
0.037119
0.004162
0.021960
0.041854
0.053486
0.031144
0.003001
-0.045208
0.016168
-0.026932
0.083531
0.301430
0.495547
0.758151
1.135963
1.341208
1.319224
1.218420
0.885002
0.489428
0.102889
-0.013906
-0.226600
-0.204385
-0.200071
-0.144743
0.057136
-0.081095
0.029076
0.082927
0.075331
0.158312
0.057134
0.019365
0.083440
0.160232
0.113618
0.178022
0.163411
0.186671
0.202444
0.280408
0.193537
0.185997
0.273930
0.252747
0.338383
0.296612
0.375023
0.471624
0.433764
0.466851
0.461166
0.421349
0.466980
0.486401
0.588560
0.575732
0.462762
0.601757
0.476207
0.480995
0.493446
0.532807
0.570527
0.525291
0.547318
0.456451
0.553578
0.475677
0.417058
0.475342
0.451770
0.437181
0.412266
0.364599
0.330927
0.341654
0.432329
0.328746
0.303606
0.283282
0.268931
0.248996
0.219318
0.217677
0.153807
0.173151
0.177962
0.180491
0.104300
0.172004
0.146341
0.106020
0.071529
0.039284
0.058245
0.047510
0.080354
0.031172
0.070488
0.030460
0.083321
0.019945
0.078463
-0.036141
-0.013862
0.046051
0.010483
-0.019919
-0.060149
0.063846
0.043664
-0.013350
0.018888
0.062044
0.024986
0.031380
0.016285
0.073771
0.044349
0.052029
0.035544
0.082823
0.097059
0.091337
0.061113
0.056648
0.078625
0.015010
0.044897
0.037063
0.052931
0.019672
0.096018
0.032443
0.068401
0.139961
0.011241
0.091324
0.066263
-0.007179
0.080971
0.082100
0.075029
0.161765
0.086998
0.106593
-0.008569
0.139399
0.075497
0.152146
0.058262
0.142850
0.164614
0.174062
0.170709
0.154833
0.241063
0.206729
0.190856
0.274102
0.200937
0.137382
0.193948
0.110260
0.238832
0.172144
0.186058
0.160257
0.258042
0.193391
0.226355
0.117391
0.089128
0.091872
0.023939
0.056598
0.102472
0.131560
0.070814
0.104643
0.074096
0.100881
0.068791
0.028049
0.021667
0.072413
0.080020
0.071213
0.013456
0.099227
0.044277
0.086628
0.069055
0.133672
0.385977
0.542126
0.769123
1.069837
1.309811
1.460518
1.341923
0.981501
0.602579
0.244689
-0.011310
-0.050582
-0.178626
-0.106086
-0.010025
-0.023136
0.009549
0.035600
0.114532
0.102982
-0.002465
0.124054
0.035716
0.114302
0.159241
0.239660
0.143297
0.228221
0.176567
0.209871
0.152056
0.244060
0.275037
0.217701
0.241524
0.391652
0.328321
0.344576
0.425083
0.361389
0.463351
0.467810
0.513879
0.497131
0.514016
0.518133
0.561847
0.534649
0.547901
0.565143
0.625969
0.572736
0.509430
0.472538
0.470505
0.513758
0.529425
0.497514
0.502547
0.447945
0.412525
0.420065
0.485952
0.453995
0.387253
0.310259
0.383745
0.299457
0.302438
0.204002
0.249416
0.211066
0.122057
0.225115
0.143967
0.173332
0.077876
0.106907
0.063226
0.051878
0.052363
0.128623
0.033908
0.001409
0.040000
0.028017
0.096596
0.063845
0.066517
0.067748
0.039996
0.034944
0.062105
0.027373
0.125611
0.084032
-0.023403
0.001123
0.048903
-0.036768
0.001029
-0.032489
-0.009667
0.005322
-0.020599
0.015065
-0.056972
0.056653
0.044597
0.006282
0.015561
-0.015345
-0.088903
0.033692
-0.017657
0.090203
-0.028634
0.007214
-0.014259
-0.007910
-0.081203
0.033218
-0.012541
-0.016108
0.032677
0.023023
0.017491
0.062745
0.022263
-0.070596
-0.018962
0.044506
0.005904
0.023034
0.129664
-0.018280
0.072872
0.016188
0.053566
0.049142
0.083984
0.096484
0.121310
0.086862
0.079838
0.110245
0.195260
0.033143
0.145495
0.113995
0.134048
0.211517
0.163812
0.128170
0.158485
0.205308
0.153844
0.189509
0.087745
0.139948
0.097738
0.180057
0.085863
0.074711
0.042594
-0.020637
0.060719
0.044675
0.028924
0.007885
0.046548
-0.023309
-0.090941
-0.009349
-0.070747
-0.082259
-0.005219
-0.102635
-0.116984
0.000574
-0.049789
-0.024558
-0.074064
0.035245
0.147587
0.159686
0.299507
0.636672
0.959185
1.167578
1.242025
1.208392
0.924033
0.653007
0.178169
-0.099401
-0.221175
-0.246878
-0.233660
-0.092577
-0.110736
0.031824
-0.105071
-0.025654
0.039066
-0.017949
-0.019026
0.039916
-0.005098
0.011003
0.122004
0.034677
0.032021
0.117792
0.013109
0.144769
0.061542
0.191048
0.209966
0.193084
0.148516
0.190857
0.204718
0.279261
0.286377
0.347023
0.375323
0.378055
0.449462
0.375907
0.365707
0.344415
0.425155
0.450338
0.475394
0.466720
0.437913
0.323849
0.459882
0.420422
0.399180
0.474519
0.314848
0.354021
0.409128
0.376445
0.304195
0.242884
0.267826
0.268206
0.206783
0.210416
0.143470
0.208111
0.252706
0.180875
0.143014
0.034966
0.094115
0.085033
0.078397
0.034969
-0.012925
-0.005061
0.077773
-0.011324
-0.005216
0.012077
-0.037981
-0.054636
-0.033484
-0.104604
-0.117969
-0.023892
-0.121469
-0.024233
-0.094519
-0.031062
-0.094480
-0.138773
-0.095454
-0.098258
-0.088379
-0.145499
-0.087477
-0.004315
-0.091929
-0.047834
-0.083738
-0.088355
-0.110705
-0.054837
-0.152628
-0.115095
-0.038291
-0.103395
-0.103583
-0.106040
-0.001245
-0.105221
-0.087294
-0.129733
-0.162935
-0.110157
-0.064965
-0.033389
-0.113250
-0.128968
-0.139030
-0.118694
-0.064808
-0.109305
-0.163482
-0.129197
-0.134606
-0.067322
-0.102658
-0.104351
-0.008153
-0.022791
-0.078809
-0.091510
-0.078894
-0.088590
-0.005715
-0.061783
-0.030412
-0.034489
0.084884
-0.063403
0.032345
0.043418
0.070522
0.030413
0.064834
0.061503
0.025354
0.085600
0.041846
0.058805
0.132129
0.018329
0.060940
0.086949
0.057207
0.021244
0.100360
-0.039670
0.018198
0.054699
0.055135
-0.038116
-0.031603
-0.008230
-0.059119
-0.064153
-0.101277
-0.052633
-0.137044
-0.084056
-0.121550
-0.053481
-0.052633
-0.115417
-0.013075
-0.050709
-0.180151
-0.119188
-0.046528
-0.014814
0.093498
0.331127
0.598564
0.819207
1.045911
1.242822
1.159429
0.933253
0.625253
0.236502
-0.015965
-0.205067
-0.304289
-0.218349
-0.199992
-0.185159
-0.137529
-0.053980
-0.063537
-0.057213
-0.006699
0.012551
-0.069255
0.018133
-0.048631
0.020056
-0.031710
0.035255
0.141768
0.064741
0.154571
0.149844
0.130001
0.148769
0.168742
0.147146
0.240301
0.259785
0.243356
0.274912
0.288847
0.250431
0.284439
0.273056
0.406197
0.409472
0.371354
0.390104
0.323540
0.297164
0.422199
0.482281
0.443512
0.479888
0.448756
0.542815
0.437292
0.401077
0.382067
0.410060
0.378803
0.352765
0.310650
0.272160
0.300101
0.174407
0.255470
0.237322
0.232079
0.142097
0.163830
0.131939
0.132504
0.057979
0.085728
0.130452
0.136001
-0.010689
0.040736
0.036387
-0.022592
-0.004765
-0.045141
-0.042840
-0.020372
0.015861
-0.034556
0.023472
-0.094964
-0.086257
-0.032885
-0.066536
-0.105172
-0.077098
0.016468
-0.050111
0.072571
-0.097978
-0.044968
-0.023963
-0.110065
-0.101810
-0.147241
-0.039508
-0.055863
-0.022995
-0.056703
-0.101518
-0.052715
-0.069660
-0.063830
-0.030014
-0.056261
-0.078005
-0.021425
-0.072099
-0.013276
-0.070673
-0.075029
-0.025637
-0.055882
-0.010698
-0.022669
-0.092033
-0.020540
0.050388
-0.090527
-0.015315
0.007812
0.054497
0.002227
-0.032697
-0.001688
0.043995
-0.037009
0.018460
0.007324
-0.093855
0.054971
0.133643
0.122368
0.083819
0.110884
0.123940
0.108439
0.175680
0.041799
0.038635
0.077412
0.197052
0.207562
0.166356
0.137834
0.149350
0.157290
0.128659
0.086457
0.201691
0.095647
0.187473
0.201095
0.049677
0.069222
0.070544
0.137953
0.060587
0.131036
0.061127
0.011437
0.026023
0.045291
0.036873
-0.066103
0.021150
0.010498
0.007785
0.048949
0.010569
-0.036368
-0.017064
0.058319
-0.080437
0.044570
0.020926
0.011678
0.182075
0.237463
0.629445
0.881768
1.208628
1.322748
1.342479
1.131799
0.808319
0.412958
0.108732
-0.086773
-0.161775
-0.164601
-0.005600
-0.067031
0.057602
0.059932
0.117609
0.037193
0.072553
0.115281
0.041233
0.024485
0.130987
0.154987
0.114394
0.289057
0.120553
0.184556
0.167127
0.265877
0.142062
0.246051
0.268577
0.270007
0.333669
0.309061
0.322728
0.392684
0.346323
0.436380
0.377683
0.445188
0.477359
0.463316
0.447595
0.513386
0.598345
0.514338
0.487124
0.526402
0.573845
0.533240
0.578577
0.568483
0.585372
0.526171
0.514145
0.426021
0.420117
0.442344
0.531843
0.383454
0.371277
0.396509
0.339269
0.314499
0.323298
0.348446
0.250718
0.223066
0.254252
0.196704
0.147171
0.249737
0.091890
0.147353
0.180111
0.079855
0.127873
0.082512
0.128568
0.126094
0.110656
0.117476
0.040410
0.083738
0.170055
0.088187
0.068717
0.109528
0.015550
-0.033791
0.118876
0.024429
0.122691
0.042219
0.162502
0.111953
0.165435
0.014786
0.111952
0.060634
0.101863
0.052955
0.062007
0.122544
0.057661
0.057734
0.014814
0.096144
0.102759
0.052849
0.026544
0.089895
0.041171
0.173850
-0.021442
0.075905
0.089191
0.071190
0.003421
0.098930
0.023185
0.105184
0.045654
0.084426
0.086910
0.034700
0.136598
0.068024
0.071017
0.090351
0.079597
0.111491
0.161556
0.135481
0.188706
0.146097
0.071409
0.192703
0.181210
0.217166
0.168418
0.281087
0.211986
0.182330
0.235444
0.155142
0.241909
0.165577
0.250503
0.254973
0.258084
0.218456
0.254258
0.257086
0.200769
0.198831
0.214503
0.095726
0.182199
0.129403
0.154744
0.114649
0.205089
0.164350
0.141461
0.081597
0.080635
0.078595
0.183498
0.089983
0.134802
0.084088
0.125302
0.043675
0.089514
0.077196
0.039123
0.123204
0.111682
0.133757
0.117362
0.176871
0.380240
0.582296
0.910193
1.152786
1.344398
1.405541
1.292442
0.882725
0.512005
0.242029
-0.045734
-0.095170
-0.096340
-0.115993
-0.038991
0.087990
0.063566
0.087342
0.136666
0.119230
0.020088
0.147942
0.159295
