0.023788
-0.013049
0.042337
-0.008877
0.033615
0.055838
0.028730
0.070716
-0.033537
0.019105
0.003897
-0.079661
0.013636
-0.048522
-0.007109
0.015292
0.075320
0.030982
-0.056285
-0.068343
0.086361
0.035917
0.063092
0.069285
0.046992
0.026456
0.037218
0.074557
0.030418
0.061114
0.052792
0.089624
0.143268
0.184833
0.065815
0.105580
0.100237
0.226454
0.148115
0.189785
0.200539
0.164301
0.133454
0.204741
0.193489
0.240497
0.235712
0.195168
0.280928
0.205052
0.166763
0.201767
0.141345
0.242464
0.129723
0.243387
0.228907
0.232497
0.157070
0.194555
0.173902
0.175113
0.037922
0.091221
0.017268
0.114771
0.068416
0.059525
0.116793
-0.028713
0.016422
0.001501
0.030574
0.049391
0.091977
0.044449
0.044717
0.102080
0.102262
0.026204
0.039795
0.018454
0.083505
-0.001946
-0.013887
-0.011285
0.017536
0.216596
0.370214
0.633840
1.001240
1.290788
1.500000
1.410889
1.254970
1.030695
0.614625
0.285639
0.025802
-0.205370
-0.200536
-0.216481
-0.124037
-0.103380
0.011577
0.085612
0.039773
0.017534
0.059534
0.044714
0.107582
0.059563
0.092303
0.118360
0.123521
0.020256
0.081055
0.097394
0.205163
0.147909
0.109397
0.161988
0.171890
0.101312
0.196454
0.162243
0.187823
0.268677
0.241063
0.279424
0.286430
0.417140
0.277107
0.275757
0.392618
0.396378
0.420852
0.418261
0.423288
0.427206
0.479426
0.578611
0.537023
0.524423
0.453532
0.603373
0.624760
0.587037
0.579890
0.652500
0.559177
0.610851
0.616472
0.525836
0.561858
0.605999
0.534283
0.565388
0.494955
0.565854
0.590568
0.531474
0.433699
0.342329
0.423978
0.403392
0.411550
0.363653
0.365753
0.338771
0.359551
0.293456
0.296088
0.268211
0.179113
0.190072
0.134320
0.198741
0.170298
0.218009
0.091551
0.142963
0.161160
0.120809
0.138432
0.172061
0.081761
0.112707
0.118862
0.161797
0.084681
0.149691
0.167710
0.122231
0.127791
0.043417
0.087370
0.119485
0.103578
0.127973
0.099176
0.116305
0.106674
0.061126
0.034728
0.107810
0.027982
0.156205
0.087266
0.147406
0.093925
0.096801
0.075703
0.104111
0.104690
0.068693
0.086093
0.191508
0.018148
0.091665
0.061860
0.054004
0.086581
0.032627
0.076727
0.053471
0.127917
0.102350
0.061821
0.173914
0.110740
0.056029
0.135220
0.039350
0.123872
0.190205
0.155730
0.069644
0.099950
0.086401
0.079729
0.074362
0.057209
0.046208
0.045459
0.067599
0.067404
-0.000379
0.100492
0.114535
0.093323
0.030409
0.120734
0.120849
0.042650
0.100970
0.064537
0.033886
0.041745
0.085618
0.163852
0.080879
0.104647
0.148444
0.124505
0.148220
0.213556
0.258773
0.261103
0.241077
0.217099
0.226542
0.184977
0.218888
0.236548
0.229834
0.266598
0.299291
0.215699
0.260417
0.309459
0.301341
0.172396
0.200085
0.233708
0.171615
0.156371
0.188601
0.175296
0.172230
0.131297
0.081152
0.125397
0.172098
0.061683
0.081922
0.153007
0.169257
0.128125
0.074435
-0.012268
0.078911
0.128992
0.027998
0.086584
0.017034
0.036838
0.067059
0.026064
0.063299
0.113218
0.016534
0.182619
0.017929
0.025357
0.051245
-0.004893
0.023396
0.144315
0.420123
0.689916
1.003028
1.291314
1.384657
1.459152
1.208730
0.859749
0.458651
0.161125
-0.005499
-0.193018
-0.358502
-0.170265
-0.096362
-0.029697
0.006990
-0.014303
0.126680
0.002070
0.146714
0.035627
0.057369
0.037350
0.136017
0.050974
0.062440
0.090250
0.090368
0.135318
0.176501
0.170603
0.114659
0.088593
0.141697
0.159120
0.298426
0.186202
0.191862
0.212442
0.161027
0.273240
0.257085
0.343850
0.269978
0.340511
0.286377
0.302808
0.372298
0.363459
0.476203
0.462908
0.393651
0.441876
0.403217
0.481127
0.540324
0.588990
0.451510
0.577708
0.456799
0.538495
0.556828
0.443600
0.487878
0.537750
0.458601
0.406560
0.530167
0.413052
0.469425
0.454056
0.458348
0.403941
0.370527
0.312722
0.413774
0.311512
0.334284
0.231855
0.299252
0.306125
0.249262
0.220639
0.149834
0.166897
0.218830
0.078443
0.056272
0.066169
0.025996
0.152396
0.058612
0.050303
0.137695
0.126691
0.025086
0.124683
0.018588
0.031132
-0.005952
-0.001037
0.012896
0.015321
0.022102
-0.029977
-0.006254
0.027089
0.021584
-0.057922
0.001025
0.071045
-0.022032
0.011990
0.004015
0.006168
0.015442
0.037669
0.027618
-0.014136
-0.070928
-0.015777
0.003427
-0.036203
-0.013354
0.061816
-0.095554
-0.038691
-0.041548
0.018120
-0.003235
-0.005812
-0.066239
-0.028915
-0.055918
-0.099777
-0.011456
-0.036207
0.005377
-0.093880
-0.058737
-0.001964
-0.045840
-0.115409
0.003977
0.043324
-0.071194
0.053283
-0.050389
-0.090591
-0.025487
-0.057322
-0.052646
-0.080486
-0.010810
0.014898
-0.047567
0.059348
-0.028530
-0.055777
-0.054310
-0.011950
-0.017423
-0.121517
-0.011686
-0.098588
-0.030996
-0.001528
-0.036836
-0.172276
0.015292
-0.120497
0.003115
0.070418
-0.058714
0.001837
0.085045
0.021288
0.045414
0.121975
0.096755
0.160850
0.084920
0.092008
0.022670
0.128917
0.205125
0.088884
0.151667
0.113754
0.055948
0.144975
0.162137
0.088809
0.147629
0.068626
0.139650
0.094616
0.138035
0.039514
-0.000593
0.053097
0.025750
0.058801
-0.036329
0.012725
-0.058813
-0.059694
0.010684
-0.050092
-0.028605
-0.079433
0.052614
-0.029724
-0.040037
0.049362
0.013114
-0.071926
-0.134011
-0.041263
-0.028061
-0.040987
-0.038574
-0.037228
-0.027404
-0.086900
-0.103083
-0.201131
-0.111257
-0.140805
0.175124
0.356355
0.761603
0.989691
1.248490
1.353335
1.345339
1.061176
0.674865
0.378971
-0.021871
-0.199851
-0.430108
-0.276889
-0.209409
-0.217000
-0.058556
-0.026213
-0.052238
-0.031860
-0.060175
0.017686
-0.064214
-0.030276
0.019987
-0.060981
-0.027067
-0.007145
-0.039317
-0.025672
0.018121
0.023709
0.036508
0.082213
-0.008219
0.032889
0.075605
0.030507
0.086885
0.158561
0.099781
0.132403
0.166592
0.332312
0.178679
0.218844
0.247218
0.277122
0.269678
0.321299
0.276360
0.329427
0.404894
0.388819
0.339344
0.345035
0.409628
0.392772
0.443034
0.459959
0.413536
0.481864
0.497331
0.469986
0.475156
0.436631
0.411868
0.408627
0.446804
0.457888
0.448578
0.428123
0.376013
0.354136
0.273252
0.334858
0.303752
0.285180
0.285990
0.285345
0.208435
0.230778
0.208260
0.175771
0.173576
0.092267
0.039171
0.164624
-0.030207
0.041993
0.040065
0.045274
0.008836
0.001244
0.034820
0.050928
0.062428
0.010216
-0.060918
-0.000717
0.042792
-0.037721
-0.000573
-0.014303
-0.015552
0.031689
-0.052310
-0.038811
0.025395
-0.146126
-0.058510
-0.032046
0.017250
-0.002861
0.021004
-0.030417
-0.059434
-0.014065
-0.046750
-0.106895
-0.068696
0.037818
0.078660
-0.052291
0.000814
0.008837
-0.018597
0.037594
-0.039703
-0.073067
-0.052740
0.031904
0.030078
0.008358
0.020551
-0.011986
0.036605
-0.080569
0.057874
-0.078147
0.078636
0.035701
0.016320
-0.015289
-0.005023
-0.027047
0.039503
0.054715
-0.059046
-0.021574
-0.067355
-0.034174
-0.006023
-0.039748
-0.068802
0.042260
0.014752
0.073193
-0.019142
-0.058683
-0.036724
0.025356
0.079257
-0.050217
0.048834
0.094584
-0.004819
-0.003205
-0.040365
0.021669
0.027296
0.031658
0.067780
-0.024393
0.100241
0.105208
0.193736
0.025881
0.072112
0.113184
0.133381
0.151306
0.108429
0.179798
0.177774
0.139066
0.224543
0.255839
0.105128
0.211026
0.215506
0.204944
0.214587
0.201615
0.155736
0.144735
0.176870
0.152910
0.224310
0.132299
0.135586
0.105456
0.115569
0.061793
0.025659
0.078449
0.065650
0.023221
0.081676
0.072499
0.067090
0.095495
0.008382
0.059425
0.036197
-0.004839
0.059618
0.108701
0.094293
0.042447
0.065335
0.046344
0.099162
-0.010315
0.002355
0.042579
0.007404
0.008781
-0.116875
-0.007480
0.108016
0.217391
0.626767
0.830800
1.195778
1.488253
1.409592
1.320860
1.016213
0.680979
0.348290
0.075020
-0.201949
-0.262902
-0.188369
-0.139415
-0.046139
-0.033322
0.037689
0.098011
0.068073
0.150114
0.018249
0.037606
0.021353
0.107604
0.106379
0.086827
0.123227
0.084727
0.043408
0.110539
0.085061
0.046509
0.128112
0.111815
0.225467
0.141606
0.191089
0.178929
0.163873
0.228446
0.220727
0.203904
0.273893
0.287743
0.322500
0.371828
0.393201
0.476885
0.353551
0.483363
0.442661
0.376643
0.525897
0.527800
0.517371
0.562046
0.534449
0.561579
0.548295
0.559851
0.589085
0.571201
0.585682
0.605265
0.550411
0.534211
0.588290
0.602647
0.556444
0.581099
0.501535
0.543088
0.555327
0.332637
0.412881
0.350272
0.401161
0.342374
0.287948
0.308665
0.358033
0.291652
0.282419
0.273316
0.352043
0.142828
0.245950
0.140545
0.190147
0.212688
0.102583
0.208375
0.158805
0.125138
0.141884
0.150966
0.057012
0.124799
0.137968
0.088106
0.083434
0.073585
0.115335
0.102778
0.045637
0.043940
0.001753
0.123771
0.182197
0.100189
0.189146
0.030962
0.100887
0.017958
0.022559
0.137789
0.116409
0.076195
0.114165
0.034513
0.078324
0.106084
0.064847
0.027041
0.062699
0.120769
0.098920
0.145939
-0.025664
0.067771
0.161347
0.049514
0.101377
0.165712
0.092013
0.065769
0.141936
0.063685
0.137144
0.098899
0.071448
0.070982
0.057343
0.097213
0.112291
0.058530
0.120106
-0.034142
0.017371
0.039497
0.086337
0.075895
0.070211
0.095703
0.070778
0.071154
0.062068
0.104162
0.068051
0.033298
0.088800
0.011834
0.159893
0.170638
0.037059
0.130779
0.118614
0.004982
0.103557
0.160622
0.128952
0.206145
0.142734
0.206221
0.134821
0.241465
0.152428
0.223099
0.129444
0.204263
0.165816
0.268437
0.265489
0.124494
0.277325
0.262555
0.241257
0.310978
0.293267
0.218573
0.293127
0.259424
0.324996
0.210884
0.284794
0.240996
0.222443
0.102499
0.189320
0.226261
0.177010
0.046685
0.186542
0.197010
0.200241
0.142373
0.105999
0.149124
0.092949
0.130506
0.115460
0.177382
0.193854
0.068796
0.108996
0.047587
0.097030
0.100541
0.108119
0.031597
0.033307
0.072762
0.023302
0.059277
0.180514
0.053291
-0.013468
0.080180
0.020016
0.127309
0.420646
0.626474
0.897746
1.327440
1.479106
1.440853
1.289472
0.986346
0.644924
0.225658
-0.016998
-0.098931
-0.280675
-0.228401
-0.115343
-0.016252
0.026632
0.079447
0.098339
0.038840
0.108605
0.063647
0.072453
0.143392
0.085238
0.076357
0.098740
0.132293
0.067063
0.058002
0.113515
0.124839
0.088129
0.111629
0.166122
0.064274
0.174216
0.221100
0.163382
0.198993
0.303322
0.240049
0.221953
0.249574
0.268761
0.241129
0.383776
0.360002
0.424723
0.400163
0.436459
0.415538
0.377793
0.484099
0.558105
0.570780
0.544606
0.543178
0.493946
0.553255
0.572922
0.591727
0.595540
0.508798
0.546626
0.620927
0.575393
0.498865
0.490537
0.475565
0.512341
0.496628
0.393833
0.455465
0.348134
0.401325
0.336701
0.418902
0.356160
0.287709
0.238299
0.208476
0.241600
0.246246
0.256126
0.241234
0.162430
0.124949
0.124671
0.124360
0.112256
0.086462
0.062984
0.112890
0.054380
0.088168
0.012850
0.085668
-0.024145
0.146686
0.097489
0.034676
0.029623
0.096899
0.039034
0.068349
0.040229
0.077365
0.087688
0.080237
-0.026433
0.010180
0.059789
0.013092
0.032519
0.018933
0.009277
0.062330
0.019338
0.056635
0.036029
-0.011357
0.050419
-0.027207
0.024469
0.034627
-0.009285
-0.000599
-0.080508
-0.023026
-0.003142
-0.008829
0.005493
-0.012813
0.061914
-0.025495
0.052494
0.011512
0.050737
0.040040
0.075395
-0.046204
-0.048772
0.008263
0.032295
0.017105
-0.035451
0.030371
0.037894
-0.103690
0.047973
0.000352
0.067194
-0.021065
0.003792
0.000122
0.063366
-0.017884
0.042614
0.028584
0.010893
0.026376
0.060144
0.001582
-0.011544
-0.050247
-0.032206
-0.021319
0.001026
-0.000441
0.025193
0.025250
-0.012940
-0.021276
0.070253
-0.024754
0.110719
0.002659
0.073923
0.067175
0.131180
0.034050
0.118687
0.153762
0.158051
0.116761
0.169971
0.171368
0.193966
0.129374
0.122362
0.095998
0.101868
0.110649
0.055261
0.092896
0.095950
0.085982
0.126610
0.080648
0.028190
0.057836
0.072735
0.048340
-0.057460
0.043510
-0.033342
-0.005986
-0.000475
-0.072493
-0.014883
-0.070313
0.018139
-0.070976
0.042897
0.058496
-0.087024
-0.010831
0.004830
-0.072966
-0.001907
-0.011577
-0.054067
-0.035435
0.017225
-0.064036
-0.142809
-0.049994
-0.080826
-0.011919
0.103865
0.241911
0.627047
0.937265
1.115372
1.317771
1.314388
1.108130
0.798538
0.405947
0.057785
-0.184614
-0.346351
-0.410666
-0.309652
-0.212306
-0.228718
-0.100929
-0.101884
-0.080603
-0.131844
-0.083623
-0.032130
-0.072481
-0.055211
-0.105307
-0.036188
-0.062086
-0.085888
0.026723
-0.019667
0.052346
-0.092736
0.021316
-0.038093
0.041883
0.055406
0.057961
0.116467
0.062040
0.065861
0.129086
0.144502
0.184527
0.198881
0.166548
0.149787
0.207278
0.229156
0.313415
0.278025
0.331221
0.363444
0.340572
0.268175
0.333783
0.452598
0.393551
0.409181
0.446084
0.426871
0.390620
0.376185
0.447135
0.378309
0.430004
0.458516
0.359659
0.370273
0.391942
0.420717
0.405783
0.394237
0.385818
0.295308
0.318130
0.225832
0.182534
0.242290
0.163710
0.264749
0.233005
0.101450
0.049530
0.080011
0.100580
0.057956
0.081641
-0.003115
0.034371
-0.021029
0.096774
-0.013916
0.006630
-0.009507
-0.032398
-0.005946
0.020261
0.037048
-0.004578
-0.087760
-0.030910
-0.041832
-0.030074
0.026965
-0.104537
0.009447
-0.121963
-0.082706
-0.026718
-0.058027
-0.067649
-0.082350
-0.057397
-0.049115
-0.146834
-0.108218
-0.129093
-0.050139
-0.057416
-0.074695
-0.047672
-0.035941
-0.056506
-0.095181
-0.090749
-0.068846
-0.104934
0.010199
-0.098881
-0.123005
-0.000164
-0.057754
-0.020189
-0.103162
-0.093251
-0.015686
-0.058201
-0.093998
-0.100913
-0.028548
-0.036799
-0.053616
-0.109122
-0.082556
-0.076368
-0.061374
-0.104010
0.027156
-0.088016
-0.032655
-0.009647
-0.151800
-0.050189
-0.117916
-0.108582
-0.100946
-0.105695
0.003856
-0.050202
-0.135016
-0.005485
-0.042532
-0.108839
-0.043709
-0.047104
-0.047746
-0.079367
-0.055617
-0.100453
-0.004323
0.009346
0.073645
-0.008103
-0.007475
-0.013944
-0.083365
-0.064561
0.040085
0.003568
0.033795
0.062757
0.095193
0.091738
0.078965
0.116731
0.060177
0.124940
0.136751
0.040345
0.120652
0.148828
0.058651
0.084866
0.168815
0.127517
0.102973
0.031718
0.055397
0.139420
0.006761
0.122400
-0.020787
0.042923
0.010313
0.030355
0.021198
-0.036766
-0.080935
0.021827
-0.116539
-0.032324
-0.020061
-0.056635
-0.102250
0.046588
-0.016217
-0.034637
-0.017200
-0.050030
-0.062252
-0.074317
-0.091749
-0.071352
0.035151
-0.061414
-0.062880
-0.074946
-0.102027
-0.111129
0.004249
0.205290
0.370309
0.748265
1.012382
1.297105
1.439701
1.281279
1.039997
0.777202
0.318533
0.084869
-0.203497
-0.349080
-0.244833
-0.209650
-0.170482
-0.066174
0.017906
-0.039652
0.011341
-0.013471
0.028787
0.022121
-0.061100
-0.055707
-0.023026
-0.020251
-0.041182
0.017483
0.019648
-0.038540
0.027650
0.105398
0.101312
0.108817
0.078494
0.078775
0.101665
0.157423
0.116809
0.101336
0.174587
0.121160
0.164987
0.168158
0.190166
0.198235
0.227366
0.340500
0.336100
0.378666
0.395614
0.330195
0.420996
0.354381
0.456071
0.403545
0.509016
0.448014
0.464628
0.411689
0.544369
0.479969
0.402724
0.475081
0.529202
0.493046
0.466199
0.486539
0.443942
0.406193
0.480549
0.416632
0.358125
0.362844
0.361850
0.315317
0.314037
0.368146
0.257259
0.306522
0.226863
0.300461
0.217340
0.154768
0.199366
0.179421
0.118083
0.205072
0.126638
0.115835
0.105905
0.115637
0.018237
0.147990
0.097546
-0.049587
0.065831
-0.006395
0.018289
0.023888
-0.025515
0.010351
0.042431
0.009605
0.041703
-0.005007
0.050236
0.006416
-0.038664
0.045723
0.064030
0.055614
-0.021839
0.039932
-0.021719
-0.034379
0.065121
-0.002182
0.007891
0.127572
-0.053150
-0.036148
0.053639
0.006854
-0.001550
0.063888
-0.000620
0.018415
-0.038736
-0.004668
-0.000768
0.027148
-0.005978
0.002691
0.052716
0.142619
0.035657
-0.003477
0.036551
0.070445
0.095924
0.055046
0.054732
0.047882
-0.020723
-0.047666
-0.042140
0.064608
-0.084149
0.092921
0.000310
0.077607
0.047774
0.034344
-0.070038
-0.033046
-0.007527
0.058755
0.030807
0.050430
0.034639
0.022611
0.100184
0.039950
-0.000018
0.059082
0.023165
-0.028590
0.072810
0.050962
0.077378
0.097097
0.111715
0.070205
0.056092
0.031143
0.192000
0.054447
0.145907
0.228004
0.157260
0.150577
0.206302
0.222391
0.207311
0.236556
0.225579
0.268767
0.144161
0.166542
0.209735
0.301476
0.271799
0.226192
0.273873
0.222223
0.223712
0.059310
0.175242
0.177901
0.211272
0.082480
0.143059
0.065520
0.088409
0.147568
0.041065
0.032375
0.092389
0.133181
0.059113
0.029894
0.075127
0.135735
0.028582
0.061313
0.086226
0.042696
0.020095
-0.041792
0.076763
0.070813
0.097464
-0.022755
-0.013697
0.039288
0.003899
-0.075505
0.005677
0.091067
0.255774
0.513505
0.819082
1.177058
1.419995
1.444618
1.325514
1.088738
0.809296
0.389624
0.125270
-0.098039
-0.212242
-0.268223
-0.203603
-0.106428
-0.022298
-0.029285
0.022947
0.065322
0.036109
0.017842
0.044391
0.112063
0.112082
0.139892
0.028927
0.080340
0.077851
0.097999
0.136183
0.136577
0.067874
0.245245
0.131052
0.162071
0.130532
0.219187
0.188964
0.210210
0.252848
0.122007
0.273396
0.308284
0.273804
0.270733
0.313311
0.357242
0.371251
0.396741
0.502257
0.463429
0.342395
0.431249
0.539349
0.501259
0.471480
0.512092
0.533907
0.426107
0.471002
0.589839
0.539430
0.519565
0.529388
0.483776
0.467069
0.411048
0.405052
0.442565
0.514260
0.457673
0.451813
0.391185
0.437521
0.311641
0.284359
0.341147
0.354934
0.324628
0.270350
0.178238
0.185836
0.278292
0.203618
0.212634
0.235312
0.110891
0.103795
0.129023
0.146679
0.073174
0.029007
0.065474
0.116315
0.077460
0.003665
0.154317
0.098509
-0.011394
0.022299
0.050932
0.031120
0.054297
0.019725
0.028126
0.038917
0.022009
-0.000525
0.015563
0.022882
0.025264
0.009576
0.000949
-0.015070
-0.024160
-0.062299
-0.063810
-0.052864
0.019330
0.009111
-0.033750
0.044944
0.101298
0.012525
0.010937
0.018607
-0.020191
0.071792
0.055442
-0.009025
-0.009554
0.020099
-0.075149
0.031732
-0.112160
0.000735
-0.005866
-0.024601
-0.036414
0.050515
-0.013085
-0.040697
-0.002987
0.034442
0.019426
-0.113377
0.018485
-0.001560
-0.010519
0.089099
-0.006239
-0.021733
0.055787
0.014941
0.001961
-0.050634
-0.036375
-0.000189
0.045633
0.025306
0.006554
0.021524
-0.045097
-0.001190
0.003382
0.043739
-0.121309
0.028667
-0.068105
0.030397
-0.048774
-0.030673
0.147576
-0.079628
0.018646
0.060047
0.029333
0.046987
0.033430
0.032087
0.106531
0.064555
0.119315
0.195280
0.143936
0.163718
0.197284
0.102581
0.115945
0.206195
0.195209
0.218438
0.135544
0.106355
0.057382
0.102768
0.110149
0.042815
0.077247
0.111354
0.045601
0.081983
-0.006503
0.035205
0.042298
-0.017926
-0.032762
0.019146
0.016919
0.002649
0.047691
-0.051764
-0.088099
-0.030727
0.026196
-0.076867
-0.092663
-0.011491
-0.116692
-0.072196
-0.057212
-0.133144
-0.008561
-0.100504
-0.051191
-0.099822
0.041471
-0.146491
-0.078260
0.063210
0.278458
0.553158
0.833590
1.088470
1.405388
1.323446
1.195321
0.865270
0.479137
0.184269
-0.070643
-0.316753
-0.341552
-0.350709
-0.183474
-0.152982
-0.155177
-0.078098
-0.111214
0.006040
-0.006766
-0.037513
-0.017456
-0.040564
-0.081937
0.018509
-0.014335
-0.098214
-0.088218
-0.008584
-0.009855
-0.020427
-0.002092
-0.019036
0.066976
0.054997
0.050749
0.014141
0.102949
0.051407
0.052985
0.114835
0.120642
0.181614
0.234166
0.150785
0.222678
0.254027
0.243988
0.303818
0.265024
0.330043
0.320455
0.326206
0.308534
0.329922
0.423286
0.431928
0.451034
0.458389
0.417434
0.403501
0.399387
0.396596
0.436225
0.477736
0.433619
0.395490
0.407733
0.380070
0.316503
0.388808
0.374488
0.251132
0.291811
0.287569
0.315207
0.190113
0.200402
0.216105
0.200433
0.217453
0.138657
0.085028
0.107363
0.058002
0.036461
0.032217
-0.004232
0.083615
0.031465
-0.002205
-0.077204
-0.029108
-0.048214
-0.074794
-0.021524
-0.052457
0.019325
-0.002704
-0.133668
-0.103035
-0.058006
-0.046418
-0.087396
-0.054132
-0.179668
-0.046892
-0.054111
-0.110842
-0.078423
-0.108497
-0.079961
-0.098278
-0.065751
-0.074445
-0.061239
-0.122956
-0.039146
-0.040554
-0.162145
-0.037091
-0.132349
-0.184365
-0.047613
-0.182678
-0.061760
-0.137949
-0.164419
-0.032556
-0.070160
-0.046813
-0.110945
-0.134725
-0.117136
-0.130940
-0.101291
-0.045780
-0.064026
-0.061087
-0.085552
-0.113253
-0.051007
-0.127907
0.006481
-0.068648
-0.151993
-0.212773
-0.086525
-0.099578
-0.070965
-0.177153
-0.078770
-0.062908
-0.099861
-0.066546
-0.101526
-0.093224
-0.104810
-0.085697
-0.023899
-0.139663
-0.099359
-0.064604
-0.089721
-0.063637
-0.008089
-0.068174
-0.077890
-0.057346
-0.058819
0.015418
-0.023408
-0.026235
-0.081523
-0.072496
-0.074859
-0.058841
0.001914
0.023170
0.105554
0.062191
0.066780
0.074921
0.040502
0.094036
0.084390
0.075043
0.163895
0.105618
0.043869
0.123490
-0.018845
0.110590
0.024463
0.037215
0.029016
0.034967
-0.008110
0.015507
0.044593
0.027834
-0.035443
-0.099472
-0.035735
-0.086622
0.030711
0.009999
-0.037146
-0.114836
-0.038703
-0.101543
-0.142162
-0.072563
-0.030594
-0.039954
-0.010395
-0.058090
-0.061180
-0.112042
-0.062040
-0.069069
-0.073185
-0.040024
-0.010148
-0.109727
-0.045995
-0.213168
-0.180592
-0.097436
0.046591
0.232141
0.592965
0.893976
1.168290
1.249466
1.338479
1.029000
0.831194
0.396863
0.016593
-0.163826
-0.386449
-0.423206
-0.360236
-0.295584
-0.185672
-0.103898
-0.165636
0.019583
-0.068867
-0.095359
-0.099943
-0.040343
-0.041371
-0.054452
-0.035706
-0.102911
-0.031570
-0.089262
0.056680
-0.024994
0.041483
-0.004535
0.000373
0.105156
0.050332
0.039588
0.090367
0.044474
0.060658
0.163272
0.131195
0.259917
0.181609
0.234645
0.324521
0.266118
0.200450
0.265143
0.365897
0.317049
0.312863
0.334499
0.397702
0.374894
0.378195
0.401159
0.372264
0.437983
0.422379
0.434632
0.473443
0.528185
0.435488
0.475970
0.457904
0.379793
0.449939
0.443993
0.413709
0.411717
0.344058
0.387185
0.392122
0.336107
0.306985
0.305819
0.296887
0.301169
0.281592
0.126923
0.169244
0.164469
0.206070
0.123492
0.090065
0.040015
0.125754
0.062805
0.042655
0.017805
0.055397
0.087576
0.038474
0.002064
0.013962
0.032837
0.020340
0.052935
-0.007943
-0.062362
-0.022794
-0.048233
-0.014453
-0.049841
0.056555
-0.010708
0.001136
-0.089743
0.010396
-0.035750
0.003916
0.022752
-0.029574
0.058288
0.005303
0.057844
-0.002260
-0.039099
-0.047259
0.009418
-0.010181
0.065017
0.039082
0.016925
-0.089659
-0.021460
-0.008854
-0.045728
0.029360
0.025204
-0.003610
0.029236
0.002631
0.013732
-0.015607
-0.014162
0.034789
-0.033188
-0.029804
-0.064659
-0.026107
0.014829
0.049156
0.029895
0.062727
0.059836
0.024217
-0.053919
-0.055891
0.068598
-0.062091
0.023542
0.001155
0.047341
-0.042621
0.000472
-0.091394
0.064231
0.046948
0.107021
0.038619
-0.018373
0.085230
0.049277
0.165481
-0.011870
0.066546
0.026312
0.055833
0.053143
0.071651
0.046011
0.069644
0.112298
0.077723
0.108706
0.169304
0.098961
0.140673
0.107867
0.173554
0.126137
0.239753
0.189137
0.167585
0.256696
0.128478
0.234115
0.193113
0.209651
0.198599
0.273069
0.222493
0.199440
0.107150
0.216519
0.117088
0.162049
0.192781
0.137008
0.207312
0.171880
0.071980
0.101843
0.170623
0.046904
0.043663
0.077323
0.035759
0.115189
0.115145
-0.009709
0.063566
0.106532
0.132971
0.048770
0.110119
0.064486
0.065245
0.040417
0.025256
0.070950
0.088451
0.102572
0.143764
-0.006717
-0.000004
-0.022214
0.031234
0.160303
0.413943
0.739122
1.017808
1.329455
1.469004
1.349631
1.146708
0.812556
0.523876
0.096059
-0.025452
-0.194879
-0.198514
-0.066666
-0.014556
-0.039927
0.051132
0.019331
0.145006
0.102633
0.162022
0.119881
0.087275
0.152403
0.074274
0.098231
0.099957
0.110662
0.102353
0.109753
0.201743
0.168798
0.083929
0.129879
0.212229
0.194981
0.137960
0.128299
0.185446
0.259684
0.206904
0.249235
0.193743
0.289813
0.411577
0.308664
0.267748
0.255488
0.435854
0.420079
0.444834
0.453665
0.512552
0.501766
0.481366
0.611591
0.568843
0.617476
0.575753
0.589855
0.568969
0.539404
0.495992
0.550741
0.557514
0.615712
0.618493
0.477129
0.426599
0.552837
0.506544
0.496941
0.526936
0.419268
0.414351
0.349792
0.359243
0.429132
0.319589
0.326433
0.301313
0.293810
0.292442
0.217493
0.165688
0.246530
0.223862
0.190885
0.189074
0.162356
0.204258
0.061416
0.137434
0.146542
0.062883
0.117761
0.145134
0.082924
0.079768
0.103582
0.176719
0.087783
0.043608
0.062592
