0.024906
0.004799
0.034836
-0.006121
0.060301
0.030986
0.040557
0.018121
0.054549
-0.029664
0.032780
0.072214
0.079654
0.063039
0.054107
0.058286
0.025391
0.028573
0.050282
0.082882
0.057974
0.071108
0.071013
0.091443
0.116252
0.202178
0.107801
0.069438
0.193611
0.152624
0.172162
0.203013
0.191117
0.230979
0.143742
0.177082
0.161412
0.207065
0.228234
0.195701
0.225954
0.160588
0.196908
0.196293
0.225795
0.149009
0.140397
0.120213
0.137997
0.193529
0.184759
0.072033
0.107579
0.102369
0.178543
0.026839
0.088319
0.060136
0.084902
0.109160
0.001907
0.065765
0.064354
-0.016647
0.006700
0.003405
0.058513
-0.055595
0.014076
0.034891
0.028191
-0.023650
0.069867
0.287324
0.483751
0.790311
1.137156
1.349611
1.500000
1.348052
1.067024
0.637668
0.415684
0.058124
-0.068507
-0.180116
-0.146685
-0.172163
-0.032004
0.024672
0.094175
0.016876
0.117798
0.057300
0.166428
0.061913
0.113723
0.128803
0.066310
0.135166
0.148048
0.133938
0.226382
0.187889
0.223694
0.273387
0.145783
0.309742
0.274171
0.306714
0.350587
0.430786
0.452671
0.388824
0.470291
0.480797
0.440289
0.504927
0.431765
0.467810
0.537744
0.504314
0.534595
0.535891
0.538692
0.619489
0.580599
0.647992
0.558321
0.598935
0.543419
0.616636
0.640053
0.540833
0.522705
0.525628
0.470837
0.468553
0.478246
0.418637
0.374880
0.439836
0.288514
0.427151
0.274495
0.374699
0.323671
0.283507
0.262905
0.241324
0.263229
0.229318
0.175335
0.194210
0.139488
0.199482
0.119996
0.208026
0.136934
0.165188
0.158308
0.111930
0.089949
0.086450
0.161585
0.116525
0.152416
0.089672
0.092371
0.042133
0.130712
0.076257
0.013355
0.133859
0.077395
0.092517
-0.005406
0.080166
0.023486
0.161959
0.078658
0.081507
0.061449
0.077008
0.057216
0.035530
0.059113
0.118711
0.053790
0.063815
0.122186
0.124280
0.096441
0.091816
0.039413
0.087761
0.147042
0.100786
0.105629
0.082132
0.146053
0.054815
0.176955
0.211142
0.173679
0.103471
0.006676
0.106691
0.031875
0.085658
0.078949
0.153790
0.043791
0.025186
0.171027
0.159363
0.161421
0.085542
0.153957
0.141772
0.183533
0.163226
0.202238
0.232444
0.209915
0.204832
0.161018
0.256608
0.208524
0.230990
0.253290
0.304393
0.287623
0.221944
0.306691
0.248691
0.250160
0.288774
0.289298
0.242863
0.213896
0.287287
0.183408
0.292713
0.159283
0.148379
0.161143
0.171997
0.141648
0.158436
0.155756
0.168067
0.070330
0.147973
0.161758
0.057647
0.113702
0.061241
0.097695
0.064474
0.034689
0.128162
0.060216
0.088822
0.150268
0.062203
0.092077
0.196835
0.326815
0.496334
0.874404
1.160507
1.362703
1.425251
1.277752
0.978074
0.623616
0.277640
-0.016776
-0.054196
-0.211404
-0.089837
-0.007444
0.051423
0.049129
0.123843
0.068513
0.085524
0.123064
0.159557
0.083027
0.097221
0.130565
0.109052
0.161103
0.190835
0.192977
0.262359
0.150433
0.215976
0.242114
0.238106
0.332195
0.317460
0.321185
0.382532
0.394865
0.316971
0.475715
0.447952
0.478854
0.532643
0.439758
0.470393
0.472263
0.489225
0.564598
0.565557
0.526694
0.604545
0.529475
0.592271
0.612585
0.574112
0.618937
0.579380
0.561625
0.466002
0.536476
0.511406
0.489789
0.563352
0.445976
0.447487
0.389253
0.399215
0.338957
0.368945
0.277588
0.274062
0.318750
0.268314
0.325218
0.288152
0.181528
0.257637
0.140874
0.152384
0.123829
0.134485
0.154553
0.088565
0.054881
0.154435
0.141105
0.036915
0.043825
0.056219
0.062955
0.007822
0.130125
0.116163
0.046469
0.010258
0.085536
0.041499
0.089797
0.000957
0.035371
-0.017679
-0.027065
0.010416
0.047202
-0.025580
-0.051694
0.053814
-0.018072
0.064862
0.003580
0.021192
0.009300
-0.015153
0.119738
0.076093
-0.048924
0.031631
-0.019501
0.098587
-0.032645
-0.001361
0.044151
0.072323
-0.073727
-0.047903
0.018902
0.040608
0.010778
0.023567
-0.011324
0.046955
-0.011957
-0.045385
0.007020
0.048021
-0.008475
0.051753
0.020262
-0.001435
-0.035858
-0.041839
0.049015
0.005806
0.148752
0.069999
0.053635
0.124100
0.104024
0.043783
0.111404
0.123335
0.144676
0.239202
0.184149
0.199591
0.154974
0.119696
0.130770
0.180282
0.128071
0.149572
0.170820
0.097553
0.148933
0.167754
0.133514
0.172598
0.130873
0.114521
0.074158
0.119292
0.117991
0.082897
0.035310
0.039074
0.091502
-0.027426
0.032443
-0.017202
-0.064888
-0.031401
-0.011143
-0.004724
0.003461
0.007004
0.044621
-0.097506
-0.036241
-0.027218
-0.107747
-0.143877
-0.027819
0.032923
0.090496
0.239658
0.431633
0.830771
1.121228
1.370861
1.291812
1.112609
0.882280
0.506545
0.148719
-0.088020
-0.225033
-0.233154
-0.222907
-0.134328
-0.110947
0.059905
0.012258
-0.024129
-0.005113
-0.033932
0.012401
-0.021146
0.085523
0.018349
0.077635
0.109472
0.016451
0.125381
0.099569
0.047340
0.095585
0.161517
0.181049
0.222399
0.120154
0.317597
0.274793
0.196553
0.285103
0.312627
0.237514
0.375881
0.293372
0.422244
0.340576
0.436077
0.427131
0.444313
0.485706
0.351600
0.539042
0.435009
0.487476
0.513744
0.457569
0.473028
0.492623
0.386363
0.439972
0.465681
0.423377
0.431017
0.378623
0.312137
0.343121
0.265262
0.296365
0.296707
0.279100
0.266432
0.230196
0.230432
0.195857
0.188551
0.140646
0.128717
0.117108
0.042882
0.088657
0.001791
0.058428
0.125499
-0.041522
-0.035704
-0.010100
0.014217
0.053863
-0.016965
0.020232
0.016252
-0.035404
-0.027423
-0.003614
-0.041470
-0.041940
-0.115586
0.072515
-0.098132
-0.074650
-0.128398
-0.047210
-0.031426
-0.027333
0.000127
-0.012081
-0.007723
-0.071900
-0.086172
-0.030510
-0.039101
-0.004509
-0.048968
-0.093518
0.012053
-0.067721
0.012891
0.041578
-0.065861
0.025694
-0.048613
0.003048
0.017124
-0.099674
0.037892
-0.087084
-0.029890
0.064175
-0.173425
-0.038996
-0.056821
0.003774
0.004152
-0.027791
-0.119366
-0.053582
-0.046298
-0.038599
-0.017159
0.007340
-0.058558
0.044744
0.000880
-0.057769
0.101830
-0.033897
0.051224
-0.009191
-0.041875
0.106022
0.073901
0.043661
0.049356
0.177598
0.108552
0.106196
0.148381
0.130593
0.143752
0.226680
0.153257
0.108913
0.103823
0.130769
0.117280
0.141253
0.071211
0.135813
0.045380
0.095045
0.107011
0.037226
0.150051
0.043906
0.061363
0.033664
0.022849
-0.022659
-0.023227
-0.011751
-0.039187
0.036635
-0.013982
-0.043919
0.102436
-0.034547
-0.019087
-0.048077
-0.058257
-0.030412
-0.036331
-0.005336
-0.026110
-0.004013
0.057895
0.337028
0.606675
0.807101
1.225907
1.329213
1.369188
1.157469
0.796648
0.424002
0.122127
-0.187905
-0.336750
-0.259111
-0.116932
-0.089717
0.030714
-0.074164
0.028590
0.069725
0.025643
0.065969
0.026513
0.079096
0.083169
0.043611
0.071164
0.118406
0.095266
0.144228
0.168065
0.251951
0.186284
0.174363
0.169087
0.238233
0.256638
0.171867
0.346931
0.415731
0.320748
0.320222
0.402799
0.409488
0.386278
0.366453
0.515159
0.386899
0.481924
0.472213
0.519802
0.532572
0.624635
0.500388
0.504739
0.589172
0.530016
0.506600
0.450769
0.493553
0.446705
0.501138
0.453973
0.455096
0.429210
0.328057
0.385224
0.401406
0.457741
0.357666
0.255316
0.343220
0.265463
0.234125
0.152585
0.245133
0.147588
0.194616
0.152599
0.127370
0.061681
0.133502
0.066682
0.069147
0.155777
0.115141
0.002245
0.031859
0.114467
0.090048
0.021172
0.084298
-0.004526
0.013750
-0.014994
0.066951
-0.000375
0.001148
0.081381
0.010588
-0.010960
0.119405
0.030165
0.060565
0.044983
-0.048881
0.014060
-0.022243
0.022403
-0.029716
0.063014
0.059819
0.052715
0.030316
0.030238
-0.026475
-0.002350
0.059256
0.031820
0.039015
0.061700
0.071050
0.055007
0.092171
-0.034192
0.113590
0.113453
0.074299
0.056593
0.040791
0.107595
0.051376
0.023722
0.014349
0.142413
0.024031
0.078973
0.024855
0.073346
0.037149
-0.003162
0.113620
0.090434
0.078640
0.119106
0.074937
0.119420
0.154183
0.220309
0.178375
0.122808
0.208624
0.164305
0.197596
0.188659
0.218045
0.200940
0.247835
0.207714
0.206215
0.252091
0.217154
0.203065
0.212226
0.240677
0.256359
0.225710
0.219631
0.149920
0.175769
0.114465
0.240676
0.210223
0.208949
0.226430
0.159728
0.062646
0.096568
0.048322
0.076208
0.094285
0.159912
0.177938
0.091564
-0.011787
0.071152
0.098812
0.055047
0.013799
0.143899
-0.041593
0.085056
0.031617
0.047922
0.025452
0.194721
0.360091
0.777873
1.011875
1.301472
1.464782
1.455305
1.251381
0.779325
0.424931
0.133745
-0.114815
-0.157488
-0.122064
-0.096107
-0.093674
0.067475
0.051043
0.058972
0.096968
0.173361
0.159466
0.153484
0.154783
0.139263
0.188189
0.093105
0.144911
0.175713
0.205783
0.194617
0.241459
0.269934
0.309841
0.228492
0.325522
0.298302
0.309300
0.347990
0.454911
0.447949
0.539179
0.575332
0.514727
0.510874
0.544486
0.597194
0.543719
0.591047
0.634871
0.590909
0.572981
0.641100
0.600263
0.626220
0.568470
0.645499
0.650780
0.527287
0.585517
0.559654
0.614689
0.593223
0.483453
0.524392
0.490077
0.441391
0.473969
0.409879
0.379703
0.396882
0.330812
0.304940
0.327706
0.358542
0.295315
0.207039
0.202739
0.282953
0.136662
0.198319
0.263550
0.194768
0.175960
0.135578
0.174760
0.144678
0.175302
0.165042
0.124125
0.115422
0.126698
0.089828
0.126310
0.161048
0.060994
0.096112
0.103245
0.172171
0.143028
0.133989
0.185533
0.193417
0.105582
0.193353
0.130052
0.019243
0.068553
0.099956
-0.003715
0.128071
0.114571
0.084376
0.088737
0.059533
0.154527
0.149719
0.117377
0.037475
0.130367
0.044471
0.096321
0.076052
0.095780
0.067223
0.108992
0.145751
0.130151
0.128199
0.120100
0.077050
0.123230
0.161110
0.062368
0.112109
0.133370
0.067731
0.086570
0.081853
0.070546
0.083578
0.068473
0.101046
0.054203
0.175121
0.120773
0.121180
0.156114
0.115481
0.104318
0.157717
0.175833
0.135794
0.262222
0.184248
0.262921
0.188651
0.196320
0.233602
0.312921
0.316769
0.263116
0.181515
0.277492
0.292249
0.257975
0.262311
0.191211
0.167908
0.195264
0.186753
0.182376
0.159304
0.150134
0.175818
0.052096
0.175340
0.118171
0.182535
0.060458
0.153619
0.055492
0.123484
0.104597
0.070618
0.056953
0.079636
0.098702
0.084478
0.110317
0.083413
0.017548
0.061173
-0.013038
0.071240
0.209527
0.418881
0.797862
1.076458
1.421421
1.467537
1.399525
1.142342
0.781743
0.374924
0.081717
-0.063628
-0.190622
-0.068597
-0.049204
0.041463
0.045487
0.172275
0.089302
0.019130
0.107635
0.101271
0.130166
0.140210
0.171524
0.150544
0.212776
0.100159
0.234089
0.161482
0.227361
0.207888
0.252972
0.269920
0.333470
0.288791
0.306458
0.341820
0.318323
0.403464
0.370410
0.370645
0.423752
0.430998
0.508553
0.472333
0.482344
0.582352
0.425408
0.530693
0.569166
0.536744
0.546726
0.552835
0.618113
0.517426
0.577780
0.651650
0.573166
0.492661
0.463435
0.471256
0.440233
0.394485
0.425650
0.455765
0.367372
0.431812
0.322881
0.309798
0.287872
0.291211
0.311835
0.221102
0.217711
0.168077
0.278138
0.255197
0.199881
0.130549
0.111913
0.104167
0.101647
0.024505
0.074307
0.108421
0.055418
0.084995
0.015529
-0.006405
0.076657
0.063434
0.007821
0.011977
0.097975
0.002888
0.083942
0.011016
0.020051
0.012531
-0.079501
0.062825
0.010717
0.035973
0.032260
0.014738
-0.072241
0.051234
-0.000463
-0.015021
0.020862
-0.017541
0.035977
-0.025817
0.019032
-0.001203
0.045849
-0.008771
0.030765
0.009863
-0.054946
-0.027703
-0.036534
-0.060225
-0.052024
0.025797
-0.033634
0.015493
-0.084733
-0.097475
-0.028427
-0.091770
-0.019929
0.055874
-0.010379
0.020393
-0.024344
-0.003742
0.013127
0.048399
-0.041893
0.001761
0.010252
0.008711
-0.021663
0.014773
0.021869
-0.043174
0.039070
0.057960
0.081012
0.060621
0.052033
0.050250
0.219505
0.083271
0.116869
0.241880
0.142223
0.067083
0.078006
0.105217
0.119020
0.175581
0.086139
0.116703
0.195198
0.104809
0.076427
0.050841
0.043331
-0.022974
0.116711
-0.005225
-0.031755
0.042541
-0.103233
-0.103107
0.035709
-0.062092
-0.114907
-0.059789
-0.001895
-0.002333
-0.022518
-0.045617
0.060980
-0.036450
-0.044367
-0.084100
-0.078466
-0.095715
-0.168764
-0.025858
0.078313
0.198497
0.342117
0.751643
1.026455
1.309136
1.313434
1.258769
1.023556
0.606805
0.187764
-0.071846
-0.251332
-0.312208
-0.219882
-0.252622
-0.134984
-0.162226
-0.070414
-0.040493
0.029677
0.013662
-0.013155
-0.061438
0.014007
-0.110926
0.024037
0.070525
-0.013852
0.044967
0.074580
0.065958
0.135916
0.114360
0.131722
0.150380
0.150370
0.113027
0.112322
0.186154
0.303622
0.278178
0.317961
0.341104
0.310466
0.329864
0.342340
0.391281
0.429256
0.341847
0.446343
0.424155
0.400250
0.466307
0.440895
0.454288
0.387310
0.462755
0.326165
0.396884
0.452715
0.389740
0.273162
0.335299
0.394807
0.361468
0.193842
0.337261
0.292413
0.243492
0.259556
0.163754
0.158110
0.154646
0.039262
0.092506
0.086880
0.121456
0.069590
0.055825
0.014370
0.034164
-0.070335
-0.026362
0.021171
-0.118977
-0.069647
-0.030419
-0.080743
-0.099865
-0.009482
-0.138234
-0.018979
-0.108030
-0.093822
0.030473
-0.044067
-0.026437
-0.042468
-0.043192
-0.073787
-0.063847
-0.093684
-0.063610
-0.028169
-0.080868
-0.100121
-0.011213
-0.054323
-0.081900
-0.057337
-0.145229
-0.137724
-0.041766
0.000079
-0.049355
-0.184973
-0.090559
-0.112421
-0.089908
0.032296
-0.139470
-0.073177
-0.067404
-0.134727
-0.006389
-0.027697
-0.078874
-0.091123
0.027859
-0.019530
-0.053763
-0.028380
-0.040168
-0.076647
-0.047729
-0.089582
-0.117350
-0.156949
-0.087163
-0.063035
-0.058345
0.014000
-0.048773
-0.007120
0.049727
-0.077460
-0.016998
-0.032987
-0.020830
-0.013977
0.021422
0.079929
0.079527
0.093946
0.097460
0.146134
0.134797
0.122245
0.046567
0.037492
0.011526
0.069259
0.120427
0.048082
0.137601
0.113375
0.104793
0.162209
0.050611
0.141563
0.057210
-0.057258
-0.007121
-0.033092
-0.032271
-0.020204
-0.027579
0.026268
0.007522
-0.012502
-0.084425
-0.101226
-0.019969
-0.080955
-0.001772
0.038934
-0.033067
0.017313
-0.081253
-0.096494
-0.127051
-0.121662
-0.110180
-0.081069
0.068805
0.245770
0.470639
0.855273
1.040830
1.279821
1.263885
1.196135
0.810219
0.424916
0.111401
-0.019203
-0.191089
-0.217495
-0.317289
-0.178506
-0.080603
-0.101624
-0.006064
-0.032275
-0.024701
0.032347
0.044218
0.006175
-0.000887
-0.011745
0.103353
0.004442
0.111621
0.144329
0.035137
0.172512
0.141311
0.095902
0.216619
0.203431
0.236371
0.266306
0.288491
0.381363
0.220436
0.295127
0.297898
0.339985
0.411189
0.446705
0.403412
0.431685
0.432737
0.416200
0.407104
0.541070
0.415260
0.376410
0.530332
0.451176
0.430316
0.521348
0.460924
0.569575
0.491600
0.372638
0.416239
0.463119
0.433500
0.385335
0.368345
0.390959
0.260201
0.314885
0.263736
0.267890
0.237891
0.196932
0.193068
0.163238
0.197183
0.106789
0.082787
0.057729
0.134041
0.036481
0.051051
-0.012852
0.052199
0.038492
0.055199
0.002792
0.028554
0.060778
0.011297
0.033717
0.033267
-0.000815
0.011235
-0.001454
-0.111471
-0.015897
0.010269
-0.042268
-0.030675
-0.009101
0.039083
0.039560
-0.032073
-0.041529
0.000683
-0.003506
0.017352
0.018205
0.035211
0.000705
-0.000733
0.021430
0.089073
0.017393
0.037067
-0.041658
0.051009
0.037516
0.004815
-0.012591
0.025972
0.063054
0.031850
-0.003650
0.057345
0.016473
0.094339
0.043082
0.005306
0.026870
0.075618
0.038089
0.017917
-0.075520
0.117295
0.058274
0.082518
-0.006345
0.051018
0.069683
-0.025534
0.089088
0.100918
0.037798
0.138677
0.098816
0.089431
0.129706
0.065726
0.178327
0.152951
0.077950
0.158431
0.165796
0.220142
0.215147
0.190655
0.218450
0.094641
0.196997
0.181198
0.121623
0.147754
0.185902
0.182468
0.123333
0.213037
0.111794
0.162633
0.096152
0.108481
0.063075
0.076344
0.093982
0.075028
0.063018
0.027056
0.094374
0.104488
0.060265
0.118735
0.118007
0.100728
0.053992
0.006652
0.070180
0.013869
-0.015543
0.056021
0.086228
-0.002648
0.011599
0.043414
0.139513
0.358329
0.617074
0.946504
1.271862
1.409634
1.396393
1.245512
0.913760
0.506367
0.109066
-0.038244
-0.231613
-0.205050
-0.141292
0.054529
0.003843
-0.004461
0.093152
-0.026413
0.105902
0.057886
0.112388
0.158390
0.077101
0.145299
0.043709
0.197300
0.184648
0.226917
0.199983
0.209250
0.213321
0.203926
0.229675
0.279775
0.381009
0.307051
0.362718
0.370160
0.399531
0.410741
0.364409
0.439182
0.480310
0.554170
0.564149
0.492616
0.570502
0.527404
0.669289
0.585078
0.557603
0.569723
0.584516
0.486148
0.674187
0.591692
0.561786
0.530984
0.552321
0.528200
0.462341
0.503805
0.455539
0.435877
0.419058
0.408015
0.393280
0.320809
0.325563
0.333004
0.359237
0.303907
0.287012
0.249960
0.211659
0.153596
0.117249
0.214179
0.120076
0.121625
0.064017
0.127942
0.079646
0.143747
0.104735
0.154429
0.039154
0.081473
0.013928
-0.006331
0.048329
0.082441
0.008092
0.011702
0.053467
-0.027548
0.119686
0.063210
0.080884
0.054647
0.030660
-0.077644
0.073143
0.045627
0.040574
-0.003617
0.072540
-0.038899
0.083221
0.057097
0.079100
0.120371
0.098319
0.011446
-0.018179
0.017113
0.092240
0.063553
-0.020232
0.068143
-0.029061
-0.049637
0.051454
0.065917
0.078721
-0.001756
-0.038130
0.009602
0.029836
0.058582
0.093465
0.028692
0.096321
0.121551
0.089800
-0.002618
-0.049647
0.027128
0.061843
0.057327
0.079371
0.079813
0.149525
0.042416
0.027303
0.066168
0.111400
0.161393
0.137635
0.157554
0.109941
0.188600
0.149426
0.166066
0.169293
0.179114
0.216446
0.206210
0.193576
0.227354
0.270840
0.128877
0.220058
0.189037
0.167591
0.189143
0.159173
0.138663
0.150229
0.095014
0.102726
0.087904
0.112132
0.083795
0.115453
0.015271
0.071625
0.077597
-0.041013
0.132322
0.040920
0.001578
0.005739
0.047846
0.058853
0.064392
-0.008230
0.013868
0.037448
0.062326
0.006872
-0.004903
0.108998
0.063369
0.347382
0.625499
1.059683
1.347542
1.414099
1.295547
1.149773
0.846265
0.362645
0.170449
-0.225269
-0.196042
-0.197017
-0.137489
-0.087731
-0.062543
0.025879
0.014804
0.017486
0.066354
0.012889
0.076872
0.040467
0.061853
0.152622
0.081465
0.116427
0.031979
0.165432
0.077798
0.175379
0.111110
0.195793
0.260657
0.159208
0.290845
0.301621
0.366424
0.298024
0.354783
0.296672
0.448252
0.376528
0.367279
0.413676
0.560238
0.457440
0.486683
0.435782
0.481605
0.430635
0.480989
0.446014
0.502556
0.500150
0.473301
0.452117
0.401535
0.403373
0.497148
0.309180
0.381588
0.420096
0.415418
0.308017
0.359637
0.403555
0.286846
0.326419
0.230726
0.219033
0.249560
0.201836
0.127637
0.140618
0.179859
0.141598
0.095594
0.056678
0.067930
0.075999
0.022294
0.091157
0.029000
-0.068840
0.025973
0.011483
-0.001459
-0.023764
0.006274
-0.020059
0.009852
0.011739
-0.040066
-0.054282
-0.076791
-0.028176
-0.006816
-0.035295
-0.144581
-0.009709
-0.071422
-0.179478
-0.121142
-0.076827
-0.075729
-0.083097
-0.117804
-0.129080
-0.027140
-0.126963
-0.135552
-0.081594
-0.071710
0.013928
-0.052265
0.019080
-0.088902
-0.050749
-0.129300
-0.064787
-0.052621
-0.058072
-0.077089
-0.111885
0.029810
-0.138005
-0.101844
0.005528
-0.125974
-0.050426
0.029166
-0.088089
-0.030507
-0.074818
-0.043579
-0.045563
-0.043901
-0.091652
-0.020448
0.021733
-0.091946
-0.008043
0.007591
0.040297
0.064657
-0.002224
0.025931
-0.026600
0.046049
-0.015723
0.044043
0.050334
0.086929
0.069444
0.220113
0.018205
0.111452
0.124926
0.130667
0.111023
0.100483
0.131631
0.063858
0.063140
0.060749
0.090510
0.043809
0.029137
0.011190
-0.005805
0.040640
-0.000491
-0.010243
-0.047919
-0.066630
-0.023691
-0.017747
-0.076854
-0.061737
-0.077108
-0.137219
-0.104797
-0.208783
-0.071746
-0.014813
-0.142477
-0.070302
-0.079048
-0.072142
-0.179685
-0.096785
-0.112626
-0.088031
0.089473
0.334173
0.586460
0.897389
1.243138
1.365332
1.160323
0.929747
0.637988
0.282048
-0.003122
-0.375309
-0.281548
-0.287904
-0.176795
-0.149654
-0.105466
-0.131524
-0.108427
-0.035784
-0.172355
-0.057591
-0.049197
-0.009256
-0.100250
0.021966
0.057716
0.061231
0.069683
0.043522
0.009877
0.080218
-0.002582
0.098590
-0.040018
0.106871
0.225169
0.191093
0.197967
0.229782
0.195299
0.292469
0.307323
0.288104
0.373566
0.381783
0.282443
0.343277
0.421934
0.394217
0.381374
0.406578
0.474075
0.542006
0.413519
0.456850
0.434015
0.422744
0.417589
0.429484
0.413223
0.358511
0.328994
0.399024
0.310927
0.340519
0.277128
0.272381
0.277098
0.208072
0.216332
0.215199
0.181078
0.133771
0.184968
0.084714
0.078428
0.044998
0.091254
0.044738
0.011594
0.002084
-0.038279
-0.086438
-0.050547
-0.067314
-0.107296
-0.073842
-0.081863
-0.073596
-0.063568
-0.013521
-0.064008
0.008551
-0.097270
-0.071036
-0.188858
-0.177645
-0.166218
-0.137455
-0.034422
-0.028019
-0.082692
-0.098912
-0.194636
-0.164564
-0.072828
-0.095703
-0.060388
-0.133983
-0.138627
-0.091972
-0.161584
-0.142819
-0.118488
-0.048301
-0.140357
-0.128507
-0.067611
-0.062299
-0.241736
-0.064661
-0.150778
-0.110978
-0.075668
-0.098279
-0.061388
-0.032299
-0.122646
-0.073753
-0.062252
-0.053468
-0.071221
-0.102901
-0.034601
-0.128649
-0.122055
-0.037729
-0.060596
-0.056570
-0.080766
-0.003820
-0.046406
-0.033687
-0.048981
-0.076218
-0.117274
-0.016245
0.071354
0.062554
0.028522
0.086625
0.090804
0.053441
0.054287
0.089498
0.133981
0.076856
0.121963
0.121010
0.114855
0.087774
0.131655
0.132640
0.032471
0.075121
0.116236
0.045448
-0.022725
0.066490
-0.023978
0.002613
0.054355
-0.013318
0.067121
0.017018
-0.055637
0.013048
-0.085602
-0.006795
-0.049499
0.031622
-0.012870
-0.066008
0.007737
-0.047857
-0.040501
-0.066814
-0.067664
-0.032346
-0.086379
0.023272
-0.107773
0.000762
-0.019535
0.114536
0.397634
0.642428
1.007406
1.247650
1.333504
1.266675
0.920986
0.589388
0.158358
-0.065488
-0.200526
-0.274401
-0.185640
-0.275846
-0.088368
-0.052453
-0.044286
-0.010894
-0.073806
0.006367
0.003863
-0.016563
0.039548
0.027777
0.105122
0.074863
-0.009091
0.114639
0.141864
0.075568
0.120874
0.147480
0.148241
0.200203
0.252976
0.228800
0.265495
0.187428
0.320678
0.343785
0.425284
0.380819
0.376198
0.429518
0.390747
0.405669
0.510264
0.461176
0.399065
0.550931
0.447610
0.445423
0.540933
0.447909
0.553262
0.455616
0.562037
0.542343
0.518217
0.458898
0.367381
0.466186
0.436939
0.418962
0.449511
0.338440
0.394883
0.329480
0.234763
0.281632
0.319568
0.334220
0.215471
0.149511
0.207819
0.112544
0.151387
0.124688
0.179033
0.147888
0.167024
0.120386
0.104184
0.130040
0.105310
0.110995
-0.034516
0.026981
0.077029
-0.029727
-0.060933
0.010252
-0.028752
0.056600
-0.059625
-0.001011
-0.019649
0.006993
0.042215
0.037375
0.057648
-0.025438
-0.024693
0.045557
0.056589
-0.054111
0.126260
0.011763
0.026089
-0.050856
0.035999
0.034294
0.003382
0.093676
-0.009720
0.084363
0.055592
0.047180
-0.026713
-0.000311
0.042681
-0.061258
0.002230
-0.003699
0.034414
-0.006747
0.084234
-0.015521
0.023511
0.070380
0.016268
0.014312
0.130538
-0.053449
0.092179
0.120333
0.000224
0.040988
0.089932
0.029467
0.086598
0.085917
0.028473
0.017815
0.082635
0.143918
0.115374
0.101597
0.108472
0.193980
0.138467
0.171476
0.164544
0.111772
0.198858
0.180887
0.251102
0.224590
0.252996
0.204225
0.302275
0.145073
0.210757
0.143448
0.267181
0.220985
0.167198
0.199482
0.212807
0.126308
0.138109
0.161537
0.159619
0.181671
0.138874
0.069191
0.140213
0.109483
0.093781
0.098803
0.087695
0.025717
0.046937
0.034032
0.096869
0.034687
-0.046289
0.033686
0.042992
0.066960
0.045708
-0.004711
0.128844
0.165869
0.309236
0.547525
0.952666
1.260275
1.407847
1.465630
1.221373
0.987030
0.635097
0.328887
-0.029034
-0.128092
-0.187606
-0.052800
-0.090264
0.034067
0.110977
0.056586
0.076443
0.070028
0.137090
0.071899
0.079656
0.059999
0.202029
0.083456
0.231085
0.203693
0.143857
0.251587
0.104882
0.339724
0.180721
0.307382
0.344574
0.298997
0.364932
0.385144
0.405773
0.422885
0.457629
0.420697
0.501556
0.551466
0.462735
0.498074
0.562374
0.491516
0.599544
0.575104
0.603084
0.509506
0.583061
0.605717
0.656347
0.664298
0.598767
0.549962
0.633611
0.461853
0.623487
0.563912
0.557323
0.530848
0.411654
0.530846
0.470062
0.431661
0.396522
0.397858
0.268528
0.259292
0.339233
0.279413
0.279861
0.297476
0.214869
0.196654
0.299704
0.247595
0.224520
0.213883
0.224084
0.063107
0.103358
0.184986
0.113062
0.129750
0.117296
