-0.023995
-0.055857
0.028616
-0.027614
0.050236
0.011476
0.017350
0.026462
-0.035664
0.053661
0.028194
-0.006544
-0.054429
0.030964
0.087707
0.027474
0.002650
0.080414
-0.024590
-0.056246
0.041938
0.020623
0.018216
-0.024293
-0.008181
0.044269
0.073248
0.049860
-0.085883
-0.041893
-0.010887
0.028624
0.024298
0.023064
-0.039395
0.038850
0.017631
0.005406
-0.048920
0.064319
-0.044591
0.053854
0.014850
0.124639
0.058890
0.084310
0.030704
0.069048
0.056237
0.092954
0.109158
0.045853
0.107709
0.186555
0.027267
0.084913
0.152673
0.125627
0.126492
0.213424
0.190655
0.216058
0.155607
0.132983
0.124804
0.147411
0.157962
0.233652
0.183842
0.192381
0.241077
0.151649
0.149809
0.197455
0.233205
0.133049
0.187326
0.131343
0.057007
0.195509
0.116336
0.069450
0.110904
0.103253
0.130136
0.079199
0.074348
0.073772
0.096376
0.105504
0.094220
0.057811
0.033075
0.023779
0.057460
-0.008531
0.056386
0.116133
0.088999
0.046223
0.034993
0.022125
-0.005428
0.101294
0.020015
0.034275
-0.004960
0.012245
0.035604
0.134328
0.044334
0.019139
0.006657
0.026418
0.085686
0.079989
0.152641
0.077574
-0.056230
0.165632
-0.005498
-0.056655
-0.027355
-0.146933
-0.063399
0.089459
0.437048
0.707680
1.054870
1.293050
1.500000
1.457236
1.214732
1.036089
0.782038
0.431247
0.165390
0.068971
-0.117913
-0.227314
-0.245716
-0.289605
-0.191391
-0.068634
-0.124419
-0.003479
0.053116
0.094993
0.038265
0.100334
0.127193
0.072357
0.083097
0.123452
0.112647
0.023533
0.043273
0.016485
0.103542
0.097337
0.069535
0.014451
0.134928
0.055173
0.084048
0.065537
0.045722
0.091241
0.050838
0.119734
0.080106
0.050257
0.108247
0.064226
0.160454
0.077862
0.130024
0.147429
0.113555
0.062557
0.160246
0.138986
0.123261
0.144855
0.085008
0.158268
0.165196
0.224574
0.233433
0.244058
0.361425
0.199149
0.272337
0.259153
0.309684
0.311466
0.355807
0.402958
0.387151
0.492220
0.454596
0.527636
0.509730
0.479622
0.533546
0.515694
0.547215
0.456520
0.580876
0.593153
0.606094
0.559866
0.578385
0.574798
0.591815
0.603105
0.541293
0.516792
0.528591
0.501055
0.539859
0.488996
0.487713
0.412817
0.429422
0.440206
0.456558
0.380002
0.406143
0.304790
0.288814
0.221542
0.248005
0.293966
0.185874
0.225061
0.170258
0.178996
0.219101
0.229574
0.218278
0.195021
0.160828
0.140151
0.136916
0.074290
0.220050
0.103819
0.038356
0.058744
0.081623
0.063585
0.127772
0.117151
0.082556
0.034363
0.031604
0.119606
0.119038
0.096855
0.103631
0.084483
0.063826
0.127195
0.005356
0.054869
0.063539
0.093381
0.107647
0.055088
0.068849
0.071971
0.058444
0.111846
0.091562
0.034610
0.070015
0.098476
0.084618
0.046701
0.053794
0.016745
0.098728
0.113389
0.099726
0.082481
0.118980
0.046047
0.070361
0.047425
0.042068
0.075233
0.128357
0.079631
0.011511
0.131030
0.122632
0.135942
0.047677
0.095375
0.033198
0.049760
0.057786
0.112642
0.034645
0.169156
0.075946
0.100950
0.089114
0.082314
0.034185
0.049975
0.012449
0.042308
0.058940
0.029394
-0.066504
0.055416
0.036534
-0.026246
0.058662
0.079176
0.031610
0.048535
0.045788
-0.006417
0.076228
0.034598
0.033107
0.093890
0.091110
0.041171
0.107579
0.037069
0.026078
0.038668
0.055965
0.114138
0.008676
0.126383
-0.008062
0.061003
0.022446
0.087432
0.031640
0.092315
-0.002661
0.049661
0.017007
0.117196
0.008028
-0.033874
0.027424
0.016175
0.050185
0.055890
0.114789
0.020919
0.009458
0.029293
0.041307
-0.047346
0.019443
-0.006600
0.055447
0.076172
0.019183
0.000684
-0.010293
0.007903
0.014505
0.058698
0.046649
0.097065
0.123202
0.067354
0.068894
0.073524
0.136396
0.048625
0.112268
0.150085
0.140475
0.121847
0.186652
0.174110
0.094605
0.198914
0.043371
0.197144
0.137968
0.104319
0.142543
0.185281
0.235883
0.107681
0.149124
0.118041
0.213071
0.131139
0.110016
0.118959
0.019639
0.172975
0.093623
0.098768
0.053922
0.060381
-0.026875
0.074190
-0.080316
0.053305
0.011886
0.029935
0.047264
0.008052
-0.001643
-0.004328
0.066904
0.027251
-0.024883
-0.017276
-0.002305
0.006953
0.028036
0.030155
-0.050162
0.001208
0.021544
-0.025887
0.006857
0.021219
-0.050203
0.012846
0.034380
0.004634
0.033581
-0.028861
0.082538
0.009364
0.035654
-0.036234
0.019497
-0.062378
-0.036767
-0.069496
-0.112815
-0.049204
-0.184760
-0.063861
-0.055399
0.068806
0.267677
0.588350
0.911320
1.199521
1.392995
1.375982
1.254884
0.954815
0.735683
0.402240
0.151088
0.052778
-0.200485
-0.301634
-0.394607
-0.343904
-0.287494
-0.220193
-0.109393
-0.126405
-0.069626
0.008383
0.025424
-0.089979
0.033794
0.018083
-0.008380
-0.093259
0.017058
-0.041607
-0.106738
-0.057861
-0.042037
-0.037368
-0.091108
-0.002530
-0.036955
-0.035700
0.057963
-0.027646
-0.100618
0.020654
0.029381
-0.025648
-0.028592
-0.002650
-0.003963
-0.017909
-0.113780
-0.141187
0.023955
0.052339
0.003336
0.018633
0.029505
0.026823
0.047497
0.054992
0.103140
0.050998
0.118850
0.094450
0.104090
0.106159
0.072864
0.136962
0.179108
0.132833
0.105326
0.316988
0.164578
0.282577
0.289349
0.255383
0.266830
0.336600
0.385955
0.361999
0.402296
0.346832
0.341977
0.417555
0.408895
0.517490
0.451652
0.473506
0.431952
0.460263
0.445519
0.395028
0.529286
0.470620
0.428951
0.358103
0.367598
0.361897
0.288282
0.331248
0.338116
0.262247
0.323749
0.302918
0.226635
0.281912
0.219173
0.138229
0.155722
0.121584
0.128698
0.091885
0.159055
0.069707
0.038234
0.044733
0.028758
-0.011968
0.035537
-0.033114
0.038647
0.018419
-0.004585
0.017110
-0.015219
0.007738
0.062625
-0.016921
0.026567
-0.007277
-0.059357
-0.060497
0.008015
-0.012123
0.004910
-0.031571
-0.091584
-0.052487
0.003655
-0.024970
-0.092618
0.006112
-0.028288
-0.010712
-0.115820
0.006980
-0.026612
-0.017645
-0.018858
-0.074625
-0.075250
-0.016601
-0.037083
-0.030622
0.014109
-0.105466
-0.166767
-0.054108
-0.011950
-0.033884
-0.099365
-0.016017
-0.078745
-0.051954
-0.159073
-0.033869
-0.036629
-0.037934
-0.081935
-0.028158
-0.028744
-0.149340
-0.067131
-0.026458
0.004100
-0.029945
0.024278
-0.063878
0.026767
-0.067589
-0.022990
-0.084983
-0.084727
-0.058737
-0.069322
-0.069467
-0.045105
-0.085546
-0.071425
-0.076451
-0.055151
-0.012227
-0.009741
-0.021139
0.056485
-0.027739
0.014582
-0.050731
-0.007597
-0.010500
0.030633
-0.024099
-0.037642
0.035836
-0.045432
-0.097336
-0.060420
0.045025
-0.044402
-0.050557
0.032005
-0.016122
-0.070199
0.002055
0.051658
-0.041752
0.012531
0.004635
0.023544
0.031787
-0.043460
0.005568
-0.052731
0.014848
0.037171
-0.040658
0.045898
0.012649
-0.013502
0.029657
-0.089424
0.025581
-0.016079
0.047189
-0.016530
-0.089101
0.021818
-0.009841
0.026712
-0.019892
0.032639
-0.039623
0.005433
0.028204
-0.006062
-0.010806
0.133915
0.157345
0.098926
0.019115
0.025568
0.080933
0.066236
0.012810
0.043437
0.064357
0.173069
0.091121
0.104198
0.066251
0.092600
0.175605
0.139456
0.078301
0.132705
0.175763
0.150827
0.229772
0.101648
0.233489
0.196196
0.132041
0.123790
0.175147
0.076276
0.108649
0.180363
0.066790
0.111046
0.064436
0.122569
0.072736
-0.011049
0.063110
0.067036
0.032857
-0.010826
0.054839
-0.039340
0.004348
-0.009686
-0.017472
0.047303
0.002201
-0.083079
0.025424
-0.004959
-0.050239
0.070314
-0.032440
0.015286
-0.043958
0.062994
0.002179
0.014302
0.003950
0.021735
0.026881
-0.039861
0.098575
0.025683
0.034778
0.029015
0.006699
0.036059
0.058097
0.097394
0.028306
0.112385
0.009925
0.020180
0.026926
-0.060894
-0.035133
-0.097650
-0.056925
-0.065761
0.077503
0.293901
0.672969
0.889354
1.257056
1.382976
1.492195
1.324919
1.063712
0.750043
0.426798
0.228590
-0.041912
-0.022620
-0.194808
-0.340755
-0.244355
-0.196621
-0.211462
-0.128987
-0.000433
-0.047589
0.047165
0.014339
0.055258
0.076350
0.043558
0.057646
0.037691
0.038391
0.121276
0.013160
0.044315
0.054033
0.112931
0.124303
0.060345
0.121633
0.083672
0.102390
0.079885
0.002100
0.081127
0.047121
-0.029513
0.112199
0.092092
0.047006
0.094913
0.011250
0.149333
0.093520
-0.012991
0.061718
0.101909
0.103761
0.096924
0.138180
0.191911
0.105156
0.183829
0.232136
0.145844
0.167200
0.117260
0.190534
0.247558
0.260487
0.306971
0.293217
0.376368
0.391657
0.434243
0.407036
0.376968
0.425324
0.380696
0.523560
0.481593
0.588261
0.501283
0.569478
0.547624
0.497107
0.619122
0.528572
0.576303
0.560184
0.525807
0.559848
0.537421
0.543644
0.521208
0.590175
0.515555
0.599278
0.484950
0.414002
0.472352
0.451353
0.397605
0.384651
0.359491
0.367289
0.346563
0.262406
0.318281
0.308877
0.234192
0.277118
0.191456
0.162275
0.149732
0.278619
0.202139
0.183800
0.201403
0.140097
0.093973
0.074331
0.099663
0.129006
0.072965
0.089412
0.099348
0.102903
0.111709
0.038554
0.140616
0.081199
0.133096
0.028038
0.150741
0.130835
0.012845
0.079460
0.124358
0.065050
0.142878
0.019732
0.069555
0.009608
0.055516
0.058746
0.179794
0.048187
0.082526
0.121480
0.071781
0.097238
0.151627
0.041282
0.086609
0.090684
0.066518
0.163341
0.072450
0.041033
0.099638
0.074129
0.027166
0.104546
0.088004
0.064951
0.089798
0.088230
0.056831
0.086397
0.058214
0.094382
0.059050
0.134197
0.073693
0.068217
0.056143
0.121376
0.079252
0.183727
0.152782
0.057682
0.099447
0.092954
0.096867
0.087341
0.141186
0.189980
0.117007
0.053216
0.157326
0.133213
0.030426
0.184059
0.114552
0.124746
0.124079
0.097030
0.117697
0.068773
0.142842
0.046072
0.045963
0.154741
0.100796
0.101360
0.122755
0.032080
-0.013999
0.069298
0.034640
0.095637
0.048307
0.071512
0.146626
0.136842
0.148067
0.094556
0.127880
0.104504
0.120463
0.020329
0.010684
0.117063
0.112640
0.055627
0.031539
0.036345
0.044473
0.082254
0.076651
0.154393
0.115396
0.051951
0.126784
0.059516
0.098886
0.014220
0.104094
0.143499
0.087227
0.115507
0.113003
0.093400
0.000580
0.148665
0.091377
0.021768
0.057194
0.097255
0.187489
0.115477
0.055607
0.106031
0.104162
0.147931
0.166469
0.168962
0.142981
0.266245
0.213054
0.107881
0.168953
0.204530
0.182855
0.224249
0.224762
0.239432
0.239515
0.206625
0.206785
0.119521
0.188154
0.294553
0.198125
0.112064
0.183478
0.183822
0.149137
0.174816
0.144448
0.098761
0.092109
0.120223
0.124203
0.079213
0.060515
0.102031
0.076232
0.068218
0.068023
0.071993
0.030543
0.054149
0.010762
0.000183
0.078392
0.038584
0.054221
0.061137
0.075097
-0.082065
-0.009248
0.088588
-0.022468
0.070806
0.040290
-0.008533
0.038594
0.064602
0.058059
0.009503
-0.038406
0.053775
-0.029331
0.046147
0.046535
0.065870
0.069971
0.012916
-0.016804
-0.027998
-0.017336
-0.016042
-0.119940
-0.130618
-0.138426
0.009006
0.136231
0.245519
0.589334
0.987057
1.190669
1.407494
1.462846
1.297323
1.107974
0.804006
0.572542
0.260159
-0.020716
-0.125239
-0.269500
-0.286489
-0.261580
-0.273160
-0.225173
-0.091442
-0.004685
0.019455
0.067100
0.064944
0.048118
-0.055964
-0.054028
-0.078390
0.075792
-0.003386
0.065968
-0.002178
0.007436
0.024426
-0.033933
-0.007324
0.006461
0.045770
-0.009694
-0.011202
-0.019840
0.002875
0.046648
0.005921
-0.008083
-0.039776
0.018908
-0.010389
0.033843
0.055457
0.060349
-0.026124
0.030384
0.000683
0.040879
0.054872
-0.008015
0.148221
0.057247
0.055306
0.099286
0.161832
0.086770
0.094250
0.128657
0.167137
0.213007
0.256609
0.256330
0.182192
0.268466
0.322379
0.215509
0.409335
0.290666
0.293595
0.424349
0.264815
0.399250
0.410202
0.420224
0.464851
0.467346
0.413177
0.499796
0.495274
0.476700
0.453938
0.539059
0.463638
0.477420
0.408144
0.445089
0.318456
0.468560
0.379104
0.256953
0.456148
0.334946
0.306905
0.363545
0.245513
0.293327
0.319261
0.188591
0.204716
0.215354
0.162232
0.151608
0.119424
0.079968
0.086334
0.067334
0.079066
0.044821
-0.018684
0.066582
0.047145
-0.024776
0.053021
0.018566
0.058609
-0.054364
-0.065739
-0.048263
-0.128043
-0.070032
-0.034964
0.005209
-0.102510
-0.015499
-0.091634
-0.049826
-0.020489
-0.096227
-0.027987
-0.056318
-0.125706
-0.060118
-0.016462
-0.034860
-0.075809
-0.045281
-0.036340
-0.066720
-0.067482
-0.068254
-0.120540
-0.011323
0.063103
0.033201
-0.070700
-0.090777
-0.009989
-0.098152
-0.046943
-0.111312
-0.079668
-0.074065
0.036396
0.024316
-0.019738
-0.034166
-0.104585
-0.017570
-0.066513
-0.054089
-0.084252
-0.034761
-0.109828
-0.102153
-0.094825
-0.074017
-0.025438
0.001554
-0.056303
-0.053518
-0.059763
-0.061437
-0.046655
-0.115335
-0.102022
-0.102344
-0.042904
-0.053102
-0.092198
-0.035227
-0.008992
-0.122789
-0.117059
-0.099047
-0.144693
-0.038334
-0.064530
-0.033078
-0.040206
-0.026875
-0.034322
-0.069275
-0.156358
-0.083829
-0.069058
-0.067007
-0.071052
-0.059787
-0.099271
-0.040858
-0.139614
-0.041525
-0.043069
-0.019879
-0.093418
-0.117892
-0.136919
-0.053296
-0.078143
-0.057292
-0.066649
-0.108707
-0.162935
-0.056355
-0.037463
-0.097374
-0.080849
-0.042853
-0.028593
-0.041116
-0.093991
-0.086286
-0.029603
-0.098862
-0.090272
-0.004484
-0.089318
-0.079364
-0.061836
-0.055962
-0.052763
-0.072230
-0.084554
-0.154000
-0.051667
-0.098199
-0.108627
-0.053638
-0.080069
0.012726
-0.021219
-0.036506
0.036342
-0.049644
-0.032066
-0.056097
-0.053516
0.015443
0.027198
0.073919
0.023033
0.064829
0.038234
0.060445
0.103470
0.100933
0.114209
0.096182
0.068084
0.062466
0.051759
0.130410
0.047710
0.100970
0.013733
0.041910
0.125579
0.096464
0.052005
0.084190
0.002731
0.091254
-0.033638
-0.078999
0.026552
-0.020674
0.024312
-0.066939
-0.016324
-0.081363
-0.014515
-0.022117
-0.056954
-0.069263
-0.064287
-0.047628
-0.062183
-0.048212
0.023505
-0.046165
-0.126749
-0.034426
-0.094833
-0.106441
-0.160493
-0.084751
-0.114423
-0.059983
-0.054108
-0.103867
-0.091348
-0.018838
-0.060723
-0.070967
0.025871
-0.055370
-0.111546
-0.049006
0.005781
-0.005234
-0.049594
-0.080023
-0.148654
-0.144344
-0.098026
-0.138527
-0.159428
-0.227259
-0.116005
0.054706
0.037468
0.419630
0.793147
1.051631
1.251686
1.241107
1.306855
1.015107
0.767535
0.473037
0.216015
-0.013025
-0.186820
-0.380842
-0.341158
-0.457213
-0.395911
-0.349086
-0.186265
-0.113567
-0.138022
-0.088778
-0.051287
-0.006566
-0.080620
-0.042923
-0.012848
-0.011834
-0.085424
-0.017015
-0.020106
-0.034033
-0.101427
-0.078584
-0.098151
-0.003306
-0.050009
0.039477
-0.029268
-0.080196
0.038040
0.065502
0.001216
0.040645
0.030808
-0.089541
-0.035246
0.061749
-0.036453
-0.054698
-0.052376
-0.010868
-0.005320
0.003365
-0.039560
0.093180
0.046611
0.024910
0.056464
0.083008
0.055222
0.110144
0.075369
0.170697
0.042212
0.223430
0.204810
0.226448
0.252033
0.212807
0.313854
0.241134
0.267450
0.312062
0.313357
0.366430
0.343726
0.381200
0.335210
0.480823
0.461065
0.454181
0.462585
0.481046
0.505960
0.473699
0.442959
0.430079
0.505865
0.552316
0.480735
0.465449
0.495414
0.480185
0.377986
0.359303
0.382211
0.472923
0.289957
0.379033
0.312651
0.230907
0.284098
0.318327
0.232199
0.184569
0.206867
0.132950
0.217120
0.147098
0.200396
0.085043
0.104838
0.113927
0.155013
0.073086
0.111620
0.123726
0.003862
0.062723
-0.059195
0.018416
0.027796
0.000884
0.043768
0.093223
-0.079564
-0.021587
-0.024915
0.021382
-0.031959
0.002610
-0.027259
-0.023393
0.083189
0.008080
0.007988
0.025478
0.008691
-0.059051
-0.007743
0.056981
-0.020485
0.011954
0.013428
0.072560
0.064882
0.097239
0.009180
-0.023856
-0.044840
0.073372
0.051558
0.064481
0.029480
0.082727
0.092845
-0.027962
0.115501
0.008024
0.001794
-0.004629
-0.002621
0.015740
0.053292
-0.060253
0.068291
0.074371
0.051182
-0.012409
0.039400
0.019909
0.116085
0.090144
0.024601
0.045285
0.058175
0.024946
0.019271
0.130172
0.002380
0.034244
0.017024
0.022219
0.020350
-0.039211
-0.039232
0.046287
0.012186
0.069528
0.039429
-0.084730
0.029329
0.079073
-0.002165
-0.001458
0.113428
0.032761
0.021954
-0.043747
-0.019262
0.035701
0.078382
-0.030993
0.029412
0.004620
0.043299
0.069399
0.001166
0.100293
0.093136
0.011529
0.039631
0.014644
0.082598
0.001169
0.093880
0.099156
-0.023496
0.092897
0.032244
0.116360
-0.033436
0.023331
0.102190
-0.049119
-0.001802
0.099819
0.093662
0.065098
0.066434
0.118678
0.020388
0.000435
0.074123
0.011252
-0.110030
0.060265
0.016433
0.019497
0.000079
0.004388
0.093898
0.112288
0.074703
0.032022
0.094503
0.077352
0.136651
0.146277
0.160293
0.130881
0.134980
0.123582
0.127366
0.183138
0.227395
0.141995
0.185630
0.135539
0.155410
0.225250
0.200441
0.193129
0.165713
0.243920
0.182402
0.254779
0.194266
0.233404
0.162854
0.211585
0.210856
0.175139
0.112625
0.109145
0.205476
0.081705
0.169629
0.031441
0.120062
0.136051
0.121709
-0.024887
0.099555
0.002343
0.006047
0.068998
0.060655
0.044040
0.029595
0.056753
-0.009548
0.087425
0.032824
0.084281
0.098840
0.012984
0.010817
-0.005342
0.038357
0.015991
0.050442
0.020043
0.037702
0.040249
0.060439
0.071588
-0.000279
0.037272
0.049706
0.184521
-0.028594
0.008230
-0.010151
0.061920
0.005914
0.057047
0.011544
0.025642
0.042744
-0.094382
-0.120248
-0.131099
-0.054702
0.014408
0.229666
0.572087
0.865691
1.176781
1.398938
1.412784
1.328974
1.109461
0.813262
0.532662
0.341555
0.083797
-0.132331
-0.258484
-0.261023
-0.226363
-0.227314
-0.181693
-0.151797
-0.054860
0.067001
-0.030891
-0.078069
0.096744
-0.000763
0.005991
0.033202
0.061701
0.046694
0.129435
0.015508
0.102387
0.006152
-0.005801
0.085552
0.009595
0.085822
-0.000801
0.052074
0.079476
0.087500
0.064220
-0.004776
-0.005093
0.041527
0.038278
0.029059
0.034432
0.027591
0.051600
0.076451
0.043430
0.046782
0.078496
0.081991
0.057630
0.116119
0.136345
0.141182
0.000414
0.130247
0.140186
0.177337
0.219368
0.162411
0.181606
0.165991
0.209155
0.208597
0.247089
0.263052
0.281668
0.384265
0.436136
0.391434
0.377028
0.384005
0.428080
0.400611
0.406576
0.355756
0.503484
0.420597
0.406550
0.545700
0.449409
0.461331
0.515727
0.502679
0.444447
0.515036
0.515493
0.469365
0.468792
0.412800
0.479357
0.358497
0.429319
0.423310
0.357179
0.255056
0.275647
0.237494
0.198281
0.124023
0.157439
0.255146
0.098625
0.203282
0.082056
0.141347
0.133071
0.082965
0.100331
0.071708
0.004327
0.077679
0.043319
0.044618
0.013994
0.004935
0.042391
0.015389
0.003799
0.071762
-0.046118
0.019524
-0.105199
-0.067437
-0.042642
-0.042584
-0.008530
0.062893
-0.059989
-0.083116
0.008973
-0.067513
0.041674
-0.084032
0.001609
-0.039375
-0.085119
-0.037089
-0.129479
-0.144960
-0.083670
-0.043914
0.011667
0.033246
-0.049702
-0.015541
-0.051881
-0.035188
-0.044183
-0.021471
-0.098011
-0.060196
-0.023999
-0.048309
-0.057512
-0.034410
-0.054562
0.031495
-0.061973
-0.104545
-0.022538
-0.106042
0.002041
-0.067146
0.000717
0.018569
-0.011163
-0.073653
-0.022096
-0.059055
-0.034580
-0.117451
-0.081262
-0.053560
-0.047628
-0.058113
-0.027006
-0.132907
-0.050991
-0.087729
-0.077332
-0.019586
-0.043471
-0.053476
-0.134476
-0.052117
-0.043606
-0.013153
-0.081349
-0.173875
-0.151043
0.024552
-0.095775
-0.062168
-0.086738
-0.114334
-0.071019
-0.053667
-0.050431
-0.109467
-0.007764
-0.098872
-0.054671
-0.080426
-0.041429
-0.101852
-0.066047
-0.073445
-0.065116
-0.083767
-0.130249
-0.175485
-0.067193
-0.115303
-0.111268
-0.113186
-0.143028
-0.021878
-0.106778
-0.069040
-0.119203
-0.085456
-0.072778
-0.043788
-0.065351
-0.044404
-0.030531
-0.041017
-0.084586
-0.111799
-0.020850
-0.091251
-0.083004
-0.053494
-0.062413
-0.036965
-0.020764
-0.083147
-0.136291
0.005901
-0.071320
-0.110624
0.023259
-0.021003
-0.045834
-0.079408
0.009025
0.011938
-0.039985
0.027566
0.058195
0.020033
0.049899
-0.005786
0.110225
0.114482
0.043935
0.099292
0.051371
0.077500
0.040667
0.083715
0.071589
0.097556
0.040545
0.093943
0.112324
0.019459
0.016013
0.056220
0.109556
-0.024686
-0.023388
0.007153
-0.010284
-0.011355
0.034472
0.037483
-0.056815
-0.085945
-0.113837
-0.046438
-0.109048
-0.111738
-0.058493
-0.091047
-0.081286
0.013698
-0.121259
-0.089701
0.007804
-0.145587
-0.101253
-0.138371
-0.075053
-0.119748
-0.067657
-0.105745
-0.102689
-0.035570
-0.139164
-0.094173
-0.064630
-0.101722
-0.126137
-0.130118
-0.142017
-0.141649
-0.077855
-0.104678
-0.057742
-0.033378
-0.129487
-0.128859
-0.083358
-0.147457
-0.194229
-0.229124
-0.227608
-0.163809
-0.121203
0.054287
0.343782
0.769268
0.949254
1.231679
1.295754
1.128366
1.024835
0.760474
0.349138
0.213111
-0.008204
-0.165112
-0.319531
-0.400702
-0.495880
-0.357622
-0.287120
-0.215335
-0.168091
-0.117980
-0.100213
-0.086952
-0.096911
-0.068038
-0.149170
-0.042987
-0.107080
-0.149016
-0.082173
-0.089872
-0.043952
-0.079261
-0.090868
-0.046445
-0.102792
-0.111494
-0.151157
-0.105816
-0.052816
-0.053479
-0.070503
-0.058077
-0.049495
-0.116109
-0.146327
0.032744
-0.088657
-0.112754
-0.097693
-0.123074
-0.073265
0.004427
-0.101454
-0.004087
-0.080802
-0.062829
-0.054398
0.005065
0.018892
-0.031591
0.030613
0.083170
0.092017
0.018899
0.119606
0.086221
0.176038
0.084418
0.163808
0.219030
0.185078
0.159900
0.192427
0.266355
0.262085
0.339954
0.426215
0.416342
0.329122
0.322196
0.478418
0.321301
0.401962
0.388636
0.428100
0.486489
0.460242
0.448799
0.416717
0.462638
0.401678
0.352451
0.434028
0.436037
0.385255
0.376727
0.289142
0.269098
0.268411
0.190919
0.268088
0.199784
0.207803
0.201590
0.197330
0.090030
0.094120
0.135262
0.050858
0.063215
0.138472
0.039617
0.001129
-0.052649
-0.024229
0.032913
0.046418
-0.029977
-0.042927
-0.008442
0.002572
-0.047526
-0.085740
-0.019105
-0.058431
-0.002151
-0.037751
-0.065424
-0.066522
-0.028853
-0.052515
-0.065399
-0.093149
-0.068045
-0.040450
-0.059893
-0.042541
0.019738
-0.011828
-0.036983
-0.083215
-0.053489
-0.000273
-0.020294
-0.004379
0.007964
-0.025218
-0.079197
-0.059665
0.071821
-0.002929
-0.040759
-0.087650
-0.013298
0.013000
-0.116970
-0.068949
-0.110833
-0.024407
-0.067157
-0.054667
-0.043152
0.047229
-0.043837
-0.008765
-0.008573
-0.046303
-0.099032
-0.003802
0.028499
-0.025059
-0.030550
-0.108589
-0.125632
-0.020225
-0.091834
-0.012266
-0.048533
-0.066681
-0.054976
-0.043465
-0.133776
-0.062530
-0.002719
0.007514
0.026403
-0.030979
0.070804
-0.022631
-0.098328
-0.000727
-0.019133
-0.042798
-0.079293
-0.029936
0.009029
-0.010838
-0.063681
0.004854
0.004977
0.000935
0.060529
-0.026387
-0.032796
-0.004272
0.002905
-0.054976
-0.058248
0.031114
-0.012922
-0.044168
-0.006863
0.055036
0.046738
0.077317
-0.017831
-0.023834
-0.097446
0.031573
0.031497
-0.002648
0.027775
-0.000449
0.037892
-0.002604
0.005609
0.090010
0.003386
0.013189
0.074647
0.027133
0.030268
0.022870
0.031942
0.053745
-0.047461
-0.004078
-0.010299
-0.006095
0.064737
0.064347
-0.018286
-0.020454
0.041150
0.008753
0.011801
0.044660
0.106826
-0.011318
0.082301
0.117866
0.100435
0.090682
0.012247
0.088710
0.166901
0.073355
0.136373
0.133847
0.145069
0.164292
0.188400
0.266269
0.110305
0.161853
0.144583
0.247561
0.179913
0.128407
0.211697
0.215779
0.233817
0.203137
0.146060
0.134414
0.130913
0.063029
0.102737
0.112440
0.088719
0.108668
0.094294
0.079692
0.042506
0.108603
0.030185
0.009801
0.148039
0.062894
0.054447
0.078318
0.011530
0.067832
0.052963
0.032279
0.061880
-0.011157
0.040106
0.060728
0.066163
0.097705
0.096644
0.086341
0.066314
0.077644
0.083548
-0.009375
0.092433
0.088345
-0.000738
-0.018571
0.077645
-0.004101
0.073367
0.036513
0.100256
0.059622
0.018574
-0.008807
0.036883
-0.038021
-0.006293
-0.089179
-0.107347
0.045004
0.229035
0.531708
0.761009
1.092298
1.424428
1.446534
1.397972
1.276442
0.944957
0.600574
0.357768
0.054414
-0.071413
-0.205452
-0.219897
-0.285045
-0.238502
-0.135157
-0.066082
-0.055097
0.022582
0.025179
0.138941
0.099680
0.165070
0.026591
-0.025885
0.109216
0.094913
0.079974
0.023470
0.094504
0.084628
0.142112
0.067338
0.035321
0.092271
0.129697
0.134430
0.128136
0.059697
0.099537
0.071532
0.092161
0.047939
0.178713
0.095471
0.117063
0.056109
0.079104
0.072363
0.087960
0.048369
0.105865
0.141716
0.087025
0.090935
0.125502
0.134782
0.120869
0.224848
0.133363
0.135455
0.259439
0.174751
0.302742
0.316954
0.268047
0.245828
0.282125
0.427300
0.322417
0.344629
0.352122
0.406829
0.434948
0.426322
0.447822
0.510890
0.441932
0.542084
0.489287
0.566656
0.560380
0.492692
0.530525
0.526755
0.530934
0.594883
0.532979
0.582941
0.552949
