-0.017620
-0.062293
0.011140
-0.025940
-0.045797
-0.029143
-0.070918
-0.099229
-0.043108
0.037833
0.043607
-0.048498
0.096197
-0.040901
0.084798
0.023702
0.077836
0.073927
0.007538
0.066262
0.017831
0.025751
0.021532
0.140826
0.017654
0.055785
0.023352
-0.001512
0.093999
-0.015175
0.102179
0.053454
0.079118
-0.005807
0.075778
0.130433
0.089519
0.174023
0.139762
0.167764
0.171231
0.187231
0.152102
0.239756
0.198235
0.183924
0.223889
0.243939
0.279860
0.177740
0.238621
0.245343
0.202398
0.186682
0.130914
0.124230
0.135894
0.076144
0.123658
0.059487
0.175461
0.079955
0.146133
0.088556
0.004828
0.063086
0.103510
0.127048
0.070054
0.111654
0.053567
0.059342
0.016188
0.145254
0.086770
0.009262
0.152004
0.063216
0.093597
0.036211
-0.011397
0.003781
-0.025296
0.045349
-0.050774
0.025462
0.091929
0.050509
0.314960
0.614156
0.988997
1.310661
1.428611
1.469530
1.317319
0.914596
0.676179
0.303042
-0.071245
-0.218453
-0.239021
-0.180545
-0.078384
-0.076690
0.042488
0.008481
0.110356
0.157386
0.021148
0.102828
0.043231
0.005059
0.065266
0.117716
0.039562
0.142624
0.137494
0.090086
0.130144
0.159430
0.073732
0.170988
0.123621
0.138306
0.181059
0.193758
0.179718
0.235260
0.260551
0.252851
0.226692
0.353993
0.352647
0.324335
0.382564
0.366588
0.418414
0.458191
0.524172
0.483312
0.589648
0.472214
0.550117
0.562718
0.589381
0.592907
0.527515
0.624525
0.619673
0.657516
0.532929
0.641406
0.619571
0.554079
0.608868
0.580044
0.543059
0.519824
0.434722
0.554653
0.564686
0.467200
0.516929
0.475757
0.404815
0.428421
0.390146
0.444551
0.265086
0.343037
0.238651
0.331057
0.327436
0.227280
0.252453
0.220400
0.186395
0.240658
0.190596
0.190494
0.206155
0.196666
0.178281
0.032948
0.115274
0.107559
0.167653
0.127390
0.088612
0.174911
0.170312
0.110767
0.078411
0.024177
0.149015
0.053096
0.131943
0.176253
0.070752
0.117033
0.080267
0.032678
0.146563
0.113122
0.034479
0.108755
0.149168
0.148386
0.098724
0.103433
0.075431
0.094353
0.026521
0.096222
0.197672
0.105806
0.087370
0.065878
0.098174
0.149593
0.091203
0.189277
0.117367
0.094368
0.153250
0.077281
0.114742
0.083590
0.089578
-0.003087
0.050763
0.094643
0.112377
0.099010
0.058722
0.091380
0.069262
0.017133
0.094703
0.105435
0.140000
0.112987
0.148648
0.062960
0.050379
0.073167
0.045093
0.116038
0.068399
0.081477
0.110317
0.062549
0.046729
0.111304
0.108603
0.080232
0.120700
0.049700
0.082853
0.135032
0.099738
0.148228
0.208110
0.110068
0.166839
0.202759
0.179130
0.131797
0.173058
0.214285
0.168482
0.144620
0.174006
0.286877
0.217387
0.234043
0.323465
0.318869
0.210208
0.215598
0.252324
0.213543
0.235845
0.216646
0.262837
0.232517
0.173206
0.212721
0.169157
0.207933
0.150232
0.139082
0.210510
0.132910
0.094953
0.020945
0.123279
0.068905
0.036567
0.107273
0.127009
0.038637
0.117874
0.161313
0.091835
0.073362
0.034382
0.152872
0.020350
0.106356
0.103772
0.051522
0.019646
0.021455
-0.018410
-0.015579
0.042425
0.015461
0.121833
0.469381
0.779086
1.016961
1.318562
1.473993
1.458230
1.154789
0.917921
0.521129
0.125756
-0.138513
-0.212542
-0.268054
-0.198011
-0.157242
0.007690
-0.018963
0.027800
-0.005933
0.010788
0.121892
0.035749
0.052233
0.056900
0.038481
0.134861
0.145502
0.097573
0.128433
0.078857
0.088127
0.118403
0.175737
0.101876
0.188999
0.143157
0.183721
0.240046
0.221454
0.226396
0.177265
0.309590
0.199483
0.272091
0.239064
0.275689
0.268067
0.399752
0.402883
0.357081
0.393386
0.494151
0.493807
0.443916
0.507621
0.420841
0.478489
0.476354
0.574953
0.572013
0.514803
0.472001
0.595770
0.491924
0.575044
0.557967
0.512854
0.488555
0.462237
0.441566
0.490963
0.507424
0.423302
0.485636
0.387043
0.407025
0.424149
0.353789
0.249829
0.244815
0.340494
0.176863
0.234564
0.251480
0.249828
0.237599
0.093940
0.180376
0.106028
0.121230
0.091707
0.052773
0.046571
0.078186
0.019644
0.003241
0.061888
-0.042800
0.028794
0.042453
0.052057
-0.046735
-0.063452
0.030653
0.033222
0.001531
0.011000
-0.003364
-0.001267
-0.010698
0.036537
0.064729
-0.052636
0.010951
-0.002488
-0.049656
-0.016294
-0.032748
0.007638
-0.104878
-0.045784
-0.038184
0.000140
0.038755
0.003303
0.073566
-0.038987
0.016442
-0.008615
-0.001562
-0.027084
-0.020678
-0.070760
-0.031623
-0.083854
0.005977
0.010134
-0.151390
-0.065413
-0.056272
0.009734
0.021498
-0.050374
0.000373
0.035419
0.070200
-0.012986
0.017795
0.056530
0.006815
-0.031607
-0.057924
0.010854
0.022840
-0.051439
-0.046674
0.015446
0.021901
-0.021699
-0.049836
0.016504
0.013241
0.004250
-0.029609
0.030405
-0.064698
-0.022609
-0.056445
0.012540
-0.002309
-0.008355
0.013394
-0.021443
0.015055
0.016918
0.079126
0.050097
0.123395
0.111215
0.068529
0.109134
0.053270
0.055851
0.126860
0.077347
0.090259
0.077718
0.142667
0.192194
0.228859
0.121824
0.094801
0.149859
0.124379
0.112312
0.155023
0.105925
0.077243
0.061253
0.212155
-0.021707
0.149086
-0.055135
0.047856
0.017517
-0.027840
0.063605
0.002340
-0.081653
0.048182
-0.020368
-0.008981
-0.018143
0.014568
-0.031393
-0.003074
-0.014439
-0.011339
0.007974
-0.011129
-0.019642
-0.024449
-0.052892
-0.072604
-0.070633
-0.107551
-0.083931
-0.127689
-0.079391
-0.053448
0.141953
0.401138
0.836016
1.117278
1.246275
1.253453
1.241929
0.955916
0.733434
0.312272
0.055771
-0.199977
-0.287089
-0.351785
-0.245567
-0.196171
-0.157882
-0.121546
-0.054115
-0.010577
-0.004857
0.060065
-0.088108
0.036627
-0.002786
-0.052556
-0.018175
0.020660
-0.028431
-0.035467
-0.057380
0.037416
0.047428
0.081575
-0.046376
0.119568
0.036933
0.013635
0.088192
0.135792
0.126092
0.162860
0.179096
0.193081
0.216755
0.222431
0.258948
0.318705
0.303895
0.298731
0.331257
0.259710
0.345028
0.326298
0.332395
0.538169
0.359156
0.452205
0.393856
0.465634
0.493954
0.534441
0.447710
0.458824
0.479891
0.492195
0.430474
0.387692
0.474347
0.443799
0.350045
0.350856
0.348141
0.342156
0.321466
0.263042
0.309237
0.326745
0.226972
0.298051
0.183567
0.217141
0.224101
0.113342
0.136878
0.117499
0.137627
-0.022723
0.111242
0.047625
0.084662
-0.014203
0.092408
0.026884
-0.016768
0.055451
0.026019
-0.049540
-0.025827
-0.001826
-0.026424
-0.060556
-0.036277
-0.043970
0.000044
0.044329
-0.029483
0.001865
-0.025020
-0.106749
0.039098
0.002255
0.011014
-0.095872
-0.022605
-0.078974
0.050739
0.034448
-0.024022
0.037125
-0.034042
0.019504
-0.014597
0.020031
-0.031735
0.042372
0.033158
-0.043969
0.045722
0.016786
-0.019523
0.057289
0.023148
0.008719
-0.012645
-0.052176
-0.084256
0.024532
-0.083492
-0.003392
-0.083171
0.057158
0.008684
0.001684
-0.054045
0.035382
0.041836
-0.061773
-0.053721
0.002484
-0.041136
0.032418
0.062484
0.052622
0.040852
0.017438
0.065360
-0.041402
-0.016208
0.118618
-0.008916
0.055343
0.005881
-0.007451
0.042049
0.095377
0.009231
0.049394
0.053536
0.021281
0.003925
-0.103994
0.023734
0.053823
0.053415
-0.012715
0.095911
0.103750
0.049735
0.094246
0.119839
0.101078
0.199911
0.206216
0.173186
0.131548
0.135678
0.254779
0.168920
0.250971
0.244340
0.135677
0.199766
0.251759
0.150296
0.136103
0.147689
0.131585
0.145903
0.167522
0.150071
0.044476
0.117031
0.150773
0.155950
0.074072
0.066299
0.087256
0.052904
-0.011011
0.071210
-0.010027
0.034186
0.112311
0.030677
0.077580
0.085657
0.025633
0.050748
-0.018022
0.021968
0.141930
0.082909
-0.034441
-0.073668
-0.010104
0.016194
-0.098604
-0.016992
-0.002154
0.062300
0.162276
0.580600
0.808716
1.131652
1.500000
1.449417
1.349042
1.044193
0.712795
0.369409
0.014502
-0.199142
-0.245138
-0.229704
-0.168615
-0.067672
-0.030329
0.057074
-0.075329
0.086762
0.039538
0.132158
0.134406
0.057106
0.108379
0.100993
0.072158
0.084727
0.112467
0.086224
0.193635
0.201534
0.101072
0.123868
0.122476
0.113640
0.163095
0.191121
0.125389
0.220103
0.201740
0.188645
0.315424
0.322942
0.355570
0.280973
0.332774
0.410539
0.386257
0.380542
0.454975
0.408473
0.520069
0.555502
0.493956
0.493512
0.520673
0.542585
0.585852
0.496311
0.543128
0.526718
0.644918
0.611707
0.614147
0.515909
0.593984
0.641030
0.563643
0.551554
0.542359
0.512449
0.486910
0.551468
0.429894
0.545250
0.460602
0.438444
0.320656
0.435060
0.317922
0.327085
0.350647
0.289267
0.322054
0.294004
0.166742
0.229362
0.204659
0.217740
0.128302
0.165811
0.152322
0.059542
0.195596
0.152287
0.121779
0.072387
0.055963
0.130928
0.059495
0.118529
0.057512
0.079695
0.084267
0.144205
0.065425
0.114655
0.129405
0.175295
0.148774
0.053537
0.073003
0.128136
0.146301
0.088756
0.031414
0.012169
0.196018
0.075092
0.132718
0.076460
0.138252
0.039671
0.116618
0.083166
0.096060
0.044684
0.127264
0.134575
0.089045
0.160557
0.035932
0.059541
0.122090
0.157937
0.125258
0.099674
0.152835
0.086435
0.110086
0.031189
0.074211
0.154989
0.130285
0.097575
0.009126
0.137963
0.054854
0.037491
-0.030972
0.079004
0.098381
0.135459
0.140249
0.133309
0.177153
0.125418
0.090602
0.084770
0.125790
0.099110
0.117590
0.065622
0.120233
0.142256
0.169504
0.107794
0.070628
0.043376
0.138994
0.140015
0.151353
0.103151
0.146429
0.207931
0.166515
0.153465
0.245141
0.221547
0.158508
0.216959
0.230967
0.268449
0.174805
0.268782
0.154423
0.203360
0.285259
0.258356
0.294616
0.250685
0.268908
0.294308
0.277171
0.187104
0.236031
0.197106
0.207102
0.226758
0.170407
0.217605
0.122541
0.175819
0.217535
0.131568
0.136623
0.214703
0.142015
0.096099
0.095000
0.117440
0.062518
0.066078
0.126869
0.052907
0.112185
0.043176
0.089243
0.166514
0.071120
0.165761
0.083462
0.033577
0.107254
0.088126
0.182810
0.028346
-0.000393
0.012171
0.176469
0.413170
0.641884
0.993868
1.272741
1.379974
1.475245
1.335441
0.901479
0.648118
0.262083
0.013366
-0.081059
-0.197434
-0.255826
-0.130723
-0.065201
0.072147
0.041300
0.057392
0.083708
0.028753
0.036926
0.044559
0.042701
0.002541
0.147743
0.130396
0.100020
0.135846
0.105152
0.073596
0.169238
0.086139
0.162187
0.138253
0.221549
0.226544
0.179189
0.137421
0.232818
0.203409
0.202406
0.338470
0.274994
0.310658
0.301620
0.300347
0.323315
0.425835
0.457322
0.344315
0.489845
0.502739
0.533251
0.527512
0.472750
0.458735
0.534903
0.584421
0.580721
0.584756
0.567925
0.537467
0.548109
0.578984
0.599693
0.569678
0.525972
0.539595
0.587265
0.442179
0.482309
0.473126
0.438054
0.366249
0.419563
0.385848
0.393791
0.338812
0.330982
0.290627
0.252143
0.218628
0.230668
0.222342
0.193893
0.176583
0.187993
0.179984
0.140485
0.162460
0.023005
0.096027
0.075048
0.036985
0.039063
0.132417
0.109706
0.054942
0.158641
-0.048168
0.060117
0.008280
0.035917
0.029142
0.119246
0.072255
-0.017437
0.062689
-0.009545
0.033471
-0.016234
-0.026414
0.022938
0.099018
-0.021103
-0.064621
0.068758
0.012695
-0.016403
0.062393
0.083353
-0.089799
0.102407
0.027499
0.020968
0.008521
0.022492
-0.004993
-0.033849
0.071635
-0.021700
-0.021915
0.038618
-0.020795
-0.003398
-0.024922
-0.042937
-0.085631
0.060937
0.018189
0.089728
0.030372
0.014517
-0.066137
-0.047136
0.079895
-0.001309
-0.018841
-0.032644
-0.005325
0.004356
0.033055
-0.054915
-0.080254
-0.036006
-0.052475
-0.000959
-0.056526
-0.008350
-0.111544
-0.023392
0.041054
-0.009879
-0.012818
0.008132
-0.023052
-0.070955
-0.095750
-0.001742
0.032880
-0.020168
-0.003245
0.023834
0.050885
0.108545
0.006492
0.027373
-0.015396
0.116253
0.142790
0.064119
0.078187
0.089771
0.105320
0.194538
0.183593
0.134270
0.088812
0.164977
0.118643
0.035191
0.163343
0.094705
0.073428
0.120382
0.054791
0.109180
0.057204
0.075561
0.113588
0.059515
-0.034470
0.082394
0.041065
0.010651
-0.022946
-0.031969
-0.043396
-0.025793
-0.007094
-0.066184
-0.123726
-0.020923
-0.062942
-0.027899
-0.093729
-0.011259
-0.165562
-0.011083
-0.054148
-0.069781
-0.023028
-0.016298
-0.007192
-0.095912
-0.037023
-0.047896
-0.120348
-0.060974
0.099946
0.364766
0.663442
1.031626
1.224822
1.386013
1.285973
1.080472
0.774083
0.409686
-0.000350
-0.220109
-0.359110
-0.401291
-0.318251
-0.290654
-0.178218
-0.123250
-0.022567
-0.096543
-0.098006
0.028966
-0.025892
-0.032505
-0.063700
-0.066739
-0.010794
-0.034768
0.033827
-0.004720
-0.025647
-0.006996
-0.064927
0.081035
-0.007917
0.107233
0.099773
0.063950
0.067457
-0.010279
0.103035
0.158284
0.108769
0.204859
0.234545
0.156776
0.183875
0.241857
0.201596
0.374321
0.268683
0.268557
0.303728
0.357142
0.387594
0.393093
0.378775
0.358529
0.485354
0.448539
0.455257
0.325269
0.472168
0.443483
0.399420
0.494154
0.479991
0.513472
0.403617
0.351812
0.386407
0.403255
0.386837
0.312248
0.355684
0.312853
0.280633
0.207343
0.217040
0.158150
0.194060
0.085644
0.084644
0.166464
0.058388
0.072665
0.100999
0.066206
0.021302
0.047671
-0.006700
-0.003821
0.026653
-0.024385
-0.014331
-0.010670
-0.011993
0.002563
-0.008364
-0.056206
0.039045
-0.008271
-0.040934
-0.042861
-0.120036
-0.082606
-0.087544
-0.055824
-0.104611
-0.058174
-0.133070
-0.107780
-0.087281
-0.079533
-0.154933
-0.110254
-0.072024
0.027439
-0.169500
-0.062033
-0.096729
-0.052674
-0.122934
-0.084922
-0.038978
-0.150986
-0.031988
-0.119446
-0.059328
-0.032349
-0.030270
-0.079046
-0.123139
-0.110377
-0.091369
-0.060515
-0.034990
0.007319
-0.058991
-0.063802
-0.174126
-0.055051
0.005087
0.019471
-0.095342
-0.071324
-0.112763
-0.096471
-0.063873
-0.103967
-0.062391
-0.149221
-0.160853
-0.036134
-0.043665
-0.110419
-0.103927
-0.040429
-0.084855
-0.050717
-0.025606
-0.131726
-0.092229
-0.144825
-0.022394
-0.011322
0.014252
-0.005381
-0.038959
-0.067998
-0.131233
-0.062919
-0.044351
-0.081350
-0.092784
-0.051613
0.050470
0.016770
-0.014671
0.081073
0.075490
0.150692
0.106024
0.028772
0.084082
0.109147
0.141595
0.074690
0.105355
0.098475
0.086669
0.114425
0.176840
0.075935
0.109356
0.123608
0.135437
0.032390
0.101416
0.034240
0.047436
0.007169
0.003236
0.018502
-0.004843
0.078378
-0.004401
-0.072332
-0.048710
-0.041504
0.009881
-0.126997
-0.045598
-0.094818
-0.001295
-0.116012
-0.063331
-0.058518
-0.065602
-0.098095
-0.159490
-0.061437
-0.077202
-0.080315
-0.073813
-0.101786
-0.133951
-0.072107
-0.112705
-0.060756
-0.009508
0.199832
0.391649
0.663489
1.026163
1.321945
1.424503
1.323441
1.059594
0.740785
0.383680
0.008243
-0.233573
-0.357862
-0.314781
-0.299174
-0.178271
-0.061704
-0.117590
-0.071197
0.019371
0.051410
0.006159
-0.026791
0.014532
0.008489
0.042358
-0.011672
-0.022004
-0.037655
-0.043289
-0.042232
0.061380
-0.005125
0.057290
0.111192
0.120582
0.138356
0.116334
0.091159
0.162745
0.138380
0.242130
0.244095
0.193210
0.137156
0.216572
0.284647
0.168547
0.355323
0.306784
0.342920
0.351266
0.338974
0.386453
0.480332
0.470635
0.472367
0.468545
0.549673
0.506739
0.519471
0.489572
0.423726
0.499516
0.550900
0.438016
0.590201
0.514480
0.489269
0.477788
0.430089
0.501153
0.393927
0.383707
0.428725
0.366165
0.407910
0.255887
0.352565
0.265515
0.334470
0.261374
0.238909
0.180705
0.203064
0.224321
0.240062
0.216686
0.184851
0.048005
0.112761
0.055800
0.118556
0.024804
0.097722
0.003799
0.075650
-0.018056
0.081117
0.057848
-0.014833
-0.039358
0.038646
0.011845
0.021953
-0.019756
-0.017100
0.020793
0.013372
-0.007829
-0.015514
0.121109
0.019638
0.017100
-0.096798
0.047716
0.080695
0.009979
0.057824
-0.008593
0.026988
-0.052003
0.087976
-0.022933
0.021471
0.074231
0.032966
-0.051672
0.000888
0.014696
-0.035235
0.042529
-0.002238
0.027839
0.014949
0.102763
0.006217
-0.037590
0.026575
-0.036100
0.055472
0.012628
0.014909
0.028700
-0.005106
0.053424
0.077237
-0.003799
0.028829
0.008073
0.055371
0.027222
0.043517
0.066284
0.056907
0.029173
0.008454
0.024309
0.107666
0.018094
0.069382
0.020928
0.014187
-0.020162
0.121719
0.022967
0.018998
0.079440
0.058226
0.041311
0.128159
0.025603
0.080324
0.113751
0.082302
0.038529
0.185860
0.129724
0.173327
0.156897
0.119226
0.144520
0.206529
0.184715
0.163362
0.255933
0.302545
0.246939
0.226297
0.189483
0.223926
0.186134
0.179989
0.309492
0.128923
0.165940
0.187164
0.231603
0.125701
0.206842
0.111913
0.127288
0.194074
0.115341
0.038550
0.124656
0.075508
0.122319
0.059766
0.066140
0.050800
0.080077
0.051930
-0.018468
0.050980
0.071542
0.135657
0.072140
0.022257
0.072768
0.104751
0.071720
0.073788
-0.020020
0.095453
0.111037
0.002476
0.045973
-0.047540
0.036017
0.104586
0.297984
0.448684
0.914437
1.132535
1.444021
1.426313
1.328528
1.099708
0.750853
0.341779
0.118855
-0.177093
-0.232405
-0.216159
-0.194745
-0.107234
-0.070466
0.029924
0.047949
0.115018
0.020071
0.009886
0.017548
0.073104
0.089891
0.076533
0.080958
0.019690
0.087505
0.093310
0.076602
0.068136
0.120302
0.071602
0.173012
0.060566
0.230993
0.117605
0.289278
0.196937
0.166014
0.149463
0.210314
0.293665
0.335841
0.355700
0.336667
0.436869
0.325083
0.347097
0.385551
0.448263
0.327050
0.417015
0.539538
0.476493
0.448674
0.458220
0.601298
0.537427
0.557057
0.509346
0.534663
0.566349
0.578490
0.597238
0.453876
0.587947
0.479461
0.582422
0.519410
0.480235
0.457959
0.414937
0.322911
0.417479
0.424633
0.375885
0.436879
0.243429
0.257761
0.313679
0.212177
0.183648
0.257679
0.252903
0.167565
0.126706
0.159377
0.142818
0.161271
0.054510
0.116554
0.136339
0.117106
0.121689
0.038250
0.058775
0.087271
0.039256
0.007440
0.094574
0.049156
-0.017314
0.000041
0.076391
0.140629
0.026581
0.060708
0.015948
-0.006741
0.008296
-0.056979
0.026281
-0.054429
-0.024018
0.056014
0.013983
0.065419
-0.057386
0.029742
0.033599
0.007437
-0.085553
-0.002199
-0.028500
-0.045037
0.032004
0.002254
0.092414
-0.037483
0.008147
-0.054095
-0.012211
0.082034
0.026947
-0.104359
-0.022561
0.034973
-0.063408
0.021172
-0.007453
-0.021902
-0.022158
-0.035575
-0.046268
-0.005119
-0.003250
-0.020277
0.060563
-0.065302
0.076404
0.016909
0.014385
-0.030293
0.026071
0.005934
-0.086057
0.019586
0.013513
-0.032257
-0.010363
0.006990
-0.000908
-0.071214
-0.034500
0.044941
-0.022242
0.003468
-0.013753
-0.015747
0.039075
0.123168
-0.062830
-0.007308
0.025457
0.056907
0.079874
0.037948
0.013817
0.088248
0.148779
0.137538
0.157842
0.109294
0.079563
0.142455
0.107205
0.188292
0.169499
0.197359
0.140336
0.099578
0.070944
0.206112
0.098428
0.081356
0.153972
0.093620
0.059551
0.058495
0.004326
0.022349
-0.020551
0.070168
0.041574
-0.003312
0.029426
-0.018351
0.021507
0.002263
-0.001289
0.014395
-0.062979
-0.038614
-0.030705
-0.012998
-0.029045
-0.086316
-0.096944
-0.076460
-0.086409
-0.057802
-0.057317
-0.001999
-0.066677
-0.095772
-0.123808
-0.033892
-0.055109
0.007189
0.206914
0.471634
0.762776
1.132366
1.369232
1.322598
1.229507
0.882659
0.593750
0.189136
-0.093388
-0.352503
-0.344812
-0.346548
-0.264112
-0.140374
-0.103392
-0.012497
-0.010527
-0.068257
-0.005576
-0.071285
-0.136816
-0.113970
-0.095206
-0.004825
-0.009033
-0.077459
-0.016492
-0.049013
0.016328
-0.010718
-0.012791
-0.021848
0.024378
0.027758
0.070787
0.044510
0.065274
0.096899
0.079095
0.119566
0.145775
0.140042
0.200811
0.152460
0.216621
0.251084
0.283115
0.190543
0.249707
0.310896
0.395749
0.405161
0.353768
0.391780
0.456551
0.370328
0.475790
0.349418
0.456464
0.427216
0.384366
0.506930
0.493999
0.461083
0.461396
0.354501
0.386521
0.321244
0.422751
0.348908
0.286240
0.324753
0.223484
0.242243
0.277820
0.241581
0.289132
0.136313
0.203995
0.184540
0.090569
0.101229
0.166217
0.051374
0.089332
0.128749
-0.015754
-0.052194
-0.046739
-0.079091
0.000150
-0.100014
-0.129484
-0.121033
-0.054053
0.001203
-0.127893
-0.026318
-0.072489
-0.030159
-0.126124
-0.049363
-0.074716
-0.125332
-0.054280
-0.110273
-0.104560
-0.145736
-0.047075
-0.069212
-0.082537
-0.064666
-0.075750
0.009441
-0.069487
-0.072811
-0.157791
-0.073977
-0.084105
-0.044735
-0.131110
-0.063123
-0.083190
-0.084334
-0.110149
-0.041181
-0.068194
-0.128456
-0.084956
-0.100020
-0.107481
-0.086589
-0.205102
-0.093286
-0.131219
-0.063651
-0.152807
-0.045279
-0.123841
-0.163097
-0.148477
-0.129227
-0.127594
-0.072926
-0.050046
-0.094364
-0.083850
-0.028924
-0.132718
-0.103895
-0.103066
-0.111431
-0.155778
-0.077982
-0.099177
-0.065719
-0.109660
-0.188620
-0.076224
-0.042049
-0.109717
-0.042270
-0.125151
-0.168986
-0.103699
-0.104617
-0.098181
-0.095633
-0.068968
-0.033558
-0.096124
-0.012197
-0.029440
-0.010376
-0.046027
0.052190
0.026286
0.025313
0.063351
0.017773
0.039230
0.078999
0.039852
0.032198
0.066014
0.010490
0.109854
0.064760
0.053735
-0.022671
0.076803
0.112585
0.059487
0.127117
0.007490
-0.007556
0.063976
-0.041161
-0.024779
-0.018459
-0.015949
-0.045650
-0.000447
-0.000049
0.016404
-0.005475
-0.010255
-0.034081
-0.083695
-0.105781
-0.110918
-0.069394
-0.039152
-0.146806
-0.066361
-0.158828
0.013945
-0.107876
-0.118479
-0.092255
-0.159915
-0.089402
-0.049625
-0.116315
-0.094949
-0.044297
-0.107550
-0.109221
-0.028202
0.230482
0.582049
0.898353
1.251341
1.335873
1.396129
1.080016
0.767543
0.473727
0.048118
-0.169181
-0.260599
-0.359353
-0.253834
-0.230756
-0.183013
-0.129615
-0.129832
-0.074859
-0.061313
-0.065103
-0.004038
-0.068809
-0.004302
0.006701
0.002722
-0.021248
0.014726
0.028524
-0.002420
-0.059344
0.042568
-0.011454
0.006742
0.072914
0.114140
0.080690
-0.006505
0.111852
0.105581
0.138027
0.067684
0.116204
0.107744
0.228808
0.238055
0.298781
0.195282
0.325472
0.291968
0.280829
0.229776
0.400591
0.309750
0.407341
0.443297
0.364709
0.433539
0.428830
0.443287
0.478553
0.427157
0.468564
0.469602
0.456303
0.406094
0.580275
0.391358
0.416471
0.461125
0.367472
0.432509
0.384030
0.300436
0.205782
0.348438
0.339993
0.223259
0.373371
0.242317
0.251614
0.175820
0.151915
0.112135
0.170794
0.168469
0.065615
0.126203
0.101867
0.170883
0.121715
0.072558
0.036990
0.115884
0.027079
0.029965
0.014774
-0.000298
-0.014851
0.052482
0.022457
-0.070948
0.016645
-0.002394
-0.010118
-0.002533
-0.049895
0.056527
0.046729
0.013786
0.061417
0.027459
-0.018670
-0.019132
0.005317
0.006497
-0.000280
-0.016687
0.007294
0.002463
0.005963
-0.062709
-0.035024
-0.010338
-0.068641
-0.015559
-0.016175
0.084343
-0.025885
-0.046456
-0.003718
0.019521
0.030902
0.022640
0.029353
0.045995
-0.023549
0.023842
-0.007992
-0.029297
-0.003028
0.027201
0.008545
-0.029255
0.067381
-0.021397
-0.018210
0.025532
0.011349
0.021371
0.029423
-0.025007
0.032745
0.056639
0.054722
0.009233
-0.004340
0.027403
0.049898
-0.005166
0.014494
0.118171
-0.004199
0.009482
-0.050082
0.004014
0.031593
0.083312
0.094088
0.037640
0.058918
0.047950
0.044139
0.111087
0.114357
0.045014
0.119919
0.164984
0.123987
0.130258
0.208983
0.175199
0.158528
0.240154
0.199787
0.195234
0.234657
0.168627
0.206687
0.253751
0.215154
0.177556
0.175847
0.168297
0.184225
0.147061
0.177660
0.277624
0.112329
0.134752
0.182219
0.079623
0.072336
0.047771
0.130637
0.039277
0.029242
0.117015
0.062335
0.012848
0.069215
0.106372
0.032085
0.133927
0.041063
0.028936
0.040299
0.080951
0.073284
0.037099
-0.017084
0.100415
0.067604
0.045350
-0.003970
0.046600
0.061494
-0.039351
0.030872
0.021287
0.333012
0.499166
0.764942
1.138240
1.366889
1.422659
1.466645
1.162480
0.804127
0.435717
0.218161
-0.156384
-0.176181
-0.303636
-0.138205
-0.087602
-0.016888
-0.076004
0.062566
0.070729
-0.013534
0.106077
0.078202
0.056075
0.093812
0.058996
0.034319
0.146857
0.110698
0.110546
0.148325
0.118914
0.047124
0.118612
0.110082
0.156052
0.139772
0.113109
0.155287
0.225657
0.248410
0.312640
0.285604
0.285506
0.296990
0.324081
0.299211
0.335236
0.334741
0.380317
0.458366
0.493164
0.474775
0.562088
0.447148
0.591036
0.522443
0.526480
0.577151
0.597057
0.513085
0.617157
0.616193
0.642073
0.604595
0.634573
0.602248
0.568390
0.555834
0.583077
0.576151
0.489648
0.538908
0.475998
0.507552
0.458499
0.456302
0.366153
0.394896
0.321165
0.336933
0.258344
0.257973
0.255888
0.252222
0.290798
0.175004
0.185145
0.180397
0.142658
0.126766
0.159920
0.110804
0.227772
0.079365
0.084284
0.174745
0.119825
0.166222
0.119343
0.058729
0.072712
0.046436
0.076028
0.051021
