-0.026163
0.071109
-0.004497
0.061897
0.016041
0.034420
-0.045385
-0.003937
0.030298
-0.000391
-0.038216
0.061914
0.018066
0.028416
0.047208
0.046698
0.039335
-0.001696
0.016715
0.016268
0.006286
0.006055
0.041810
-0.024531
0.045134
0.033169
-0.044944
0.025942
-0.026890
0.023804
0.071652
0.061469
0.007134
0.026942
0.102235
0.060246
0.006291
0.075191
0.074742
0.108305
0.062465
0.060638
0.050512
0.169502
0.118472
0.142230
0.104044
0.120156
0.157904
0.210213
0.165771
0.238783
0.173050
0.191569
0.206706
0.169086
0.094942
0.195524
0.215749
0.175214
0.173937
0.127957
0.138796
0.215846
0.090039
0.127034
0.074550
0.196083
0.038176
0.146103
0.114618
0.134049
0.023712
-0.003982
0.056314
0.001022
0.075443
0.028626
0.076461
0.034671
0.155507
0.040274
0.052701
0.090142
0.101688
0.018413
0.104177
0.090646
-0.009382
0.097614
0.019327
0.071667
0.068528
0.081858
0.053243
0.044561
0.074871
0.068299
0.032113
0.008396
0.132554
0.056789
-0.004164
-0.022155
-0.041940
0.021165
0.160645
0.448470
0.698753
1.041919
1.284401
1.368031
1.371722
1.201192
0.816466
0.625191
0.328106
0.070924
-0.124351
-0.223749
-0.271652
-0.197942
-0.153083
-0.027430
-0.009802
-0.019164
0.033236
0.064089
0.075271
0.113569
0.060547
0.045495
0.094233
0.069228
0.125980
0.110301
0.041977
0.039825
0.118417
0.114350
0.175559
0.165872
0.046239
0.071669
0.083910
0.034521
0.082898
0.079698
0.089044
0.138104
0.202956
0.173460
0.164668
0.196714
0.226079
0.147906
0.247008
0.189384
0.183520
0.215080
0.260172
0.304696
0.324585
0.326775
0.376112
0.380078
0.381302
0.444866
0.471721
0.373678
0.523755
0.497526
0.484763
0.478891
0.534762
0.558400
0.569392
0.586362
0.505274
0.543601
0.543297
0.568157
0.626584
0.585445
0.580800
0.503485
0.526522
0.441670
0.500983
0.392451
0.499049
0.398920
0.473921
0.372567
0.442518
0.367032
0.329535
0.289405
0.279824
0.301010
0.253717
0.247141
0.307677
0.234586
0.224367
0.213541
0.277278
0.172606
0.120941
0.164020
0.147006
0.172892
0.033528
0.113422
0.135907
0.104179
0.154491
0.108011
0.023400
0.117419
0.096373
0.101595
0.100712
0.098615
0.167684
0.063913
0.094137
0.104720
0.169479
0.123937
0.012107
-0.024087
0.069718
0.150594
0.086219
0.082519
0.092447
0.094189
0.125026
0.076029
0.087899
0.001240
0.095466
0.060285
0.139242
0.021144
0.128418
0.012523
0.051238
0.084873
0.056324
0.114246
0.061095
0.015255
0.082406
0.009307
0.041819
0.030402
0.074404
0.051649
0.110048
0.120524
0.080947
0.112095
0.136276
-0.008230
0.046626
0.045122
0.047828
0.077292
0.117460
0.028164
0.110230
0.140163
0.043521
0.068298
0.012339
0.073522
0.099449
0.174136
0.043236
0.096363
0.093974
0.056961
0.075769
-0.003410
-0.010125
0.075649
0.029785
0.103163
0.047964
0.110430
0.054169
0.121340
0.027660
-0.019730
0.095321
0.054712
0.153008
0.092308
-0.014110
0.024439
0.089540
0.079802
0.099080
0.028549
0.016031
0.079585
0.033576
0.020542
0.073606
0.022784
0.162768
0.113710
0.061640
0.042909
0.022642
0.092881
0.141922
0.116516
0.137696
0.153995
0.172768
0.108895
0.092828
0.180659
0.176426
0.190129
0.150760
0.219402
0.210909
0.205273
0.165499
0.141654
0.240136
0.289507
0.150194
0.125176
0.214052
0.187243
0.102021
0.197806
0.116913
0.192071
0.099862
0.170735
0.095543
0.105468
0.026675
-0.009450
0.105261
0.056950
0.057559
0.003793
0.101102
0.017295
0.088610
0.068899
-0.036988
0.018203
0.082964
-0.043202
0.035865
0.001880
0.084766
-0.078398
0.032674
0.011595
0.068780
0.085135
0.079327
0.090180
0.054634
0.041483
-0.027607
0.150862
0.003863
0.041465
0.005242
-0.000710
-0.065085
-0.018327
-0.089973
0.048439
0.144296
0.434485
0.788391
1.149628
1.328428
1.394970
1.285472
1.094644
0.809781
0.470789
0.211654
-0.076371
-0.188959
-0.310515
-0.285445
-0.273218
-0.163453
-0.085490
-0.077798
-0.052778
0.022694
0.041389
-0.014057
0.028797
-0.007555
0.026811
-0.025562
0.073955
0.003580
0.038781
0.046084
-0.028023
0.089029
0.009773
-0.010914
0.059865
0.039907
0.004313
0.065986
-0.020515
0.036536
0.070260
-0.016589
0.035442
0.132941
0.066211
0.113471
0.074123
0.153591
0.049495
0.137789
0.104185
0.178750
0.172614
0.261335
0.245000
0.214934
0.222626
0.179122
0.264723
0.310351
0.258232
0.263255
0.387905
0.311516
0.397862
0.390428
0.447897
0.434772
0.455782
0.438593
0.481284
0.399898
0.491505
0.454775
0.402955
0.486550
0.504240
0.420526
0.429383
0.465126
0.478654
0.393391
0.352747
0.340856
0.353361
0.306007
0.348645
0.303077
0.254239
0.296576
0.160439
0.170167
0.139519
0.194121
0.159829
0.049244
0.057367
0.096053
0.046851
0.151979
0.113222
0.057637
0.027548
0.007613
-0.038213
0.026984
0.003160
0.006392
0.059713
0.078424
-0.037426
-0.048903
0.002109
-0.059970
-0.005737
-0.027912
-0.045362
-0.143618
0.129432
-0.014676
-0.096375
0.001408
0.012769
-0.013494
0.014139
0.021042
-0.039830
0.006706
-0.057168
0.016491
-0.010761
-0.060535
-0.020951
0.060424
-0.114498
-0.034672
-0.034997
-0.061118
-0.006399
-0.067164
-0.111601
-0.062354
-0.085123
-0.065344
-0.000527
-0.045190
-0.051790
-0.033679
-0.053481
-0.022960
-0.097642
-0.074720
-0.034098
-0.043968
-0.062945
-0.115114
-0.059124
-0.102187
-0.058624
-0.038368
-0.002050
-0.105829
-0.030784
-0.065874
-0.038860
-0.115674
-0.065583
0.003961
0.000241
0.003901
0.029901
0.004762
-0.074528
-0.024156
-0.016194
-0.107922
0.013835
-0.086374
-0.010744
-0.013326
-0.119824
-0.026589
-0.027536
-0.093043
-0.076027
0.045327
-0.069373
0.017964
-0.061020
-0.016530
-0.079121
0.009226
-0.033614
-0.007498
-0.035763
-0.050967
0.068662
-0.042418
-0.076116
-0.001093
-0.040071
-0.074539
-0.017737
0.016378
-0.070526
0.014674
0.025787
0.030558
-0.051228
-0.023820
0.015787
0.031121
0.036198
0.033508
0.034854
0.092282
0.043278
0.088516
0.102131
0.065314
0.066170
0.125647
0.054300
0.135601
0.182629
0.161746
0.088324
0.084572
0.122479
0.097395
0.153701
0.088326
0.141381
0.049800
0.096766
0.134369
0.059974
0.150741
0.055150
0.073040
0.014592
0.007897
0.037014
0.017682
-0.078061
0.003941
-0.064462
-0.078032
0.049317
-0.006424
-0.045814
0.016750
-0.025280
-0.001451
-0.028408
-0.051419
-0.060653
-0.063692
-0.011898
-0.002455
-0.040179
-0.030307
-0.148888
-0.009418
0.001806
0.000086
0.032023
0.015374
-0.117116
-0.129085
-0.021086
0.021945
-0.109635
-0.061332
-0.083312
-0.099328
-0.021115
0.255508
0.508963
0.789249
1.131285
1.351026
1.331984
1.241115
1.006255
0.686173
0.380615
0.156191
-0.153494
-0.231942
-0.341180
-0.264526
-0.253425
-0.231457
-0.176303
-0.114633
0.032149
-0.057332
-0.099172
-0.027921
0.034309
-0.035745
0.049286
-0.027982
0.016983
0.076589
0.031907
-0.064505
-0.000643
-0.008398
0.012618
-0.004827
-0.039208
0.047226
-0.009021
0.037613
0.059355
-0.078494
0.047713
0.030356
0.001290
0.132625
0.059003
0.061283
0.062192
0.060381
0.156235
0.135166
0.134723
0.247656
0.112642
0.229239
0.176392
0.256295
0.283292
0.310414
0.351653
0.335226
0.373097
0.349698
0.337442
0.386756
0.418245
0.359310
0.453675
0.470976
0.416496
0.465545
0.449724
0.483240
0.506776
0.549165
0.479997
0.480293
0.547136
0.384529
0.482043
0.515548
0.477117
0.417280
0.456100
0.411601
0.433300
0.343476
0.441374
0.410734
0.291992
0.240116
0.273581
0.257079
0.212871
0.272676
0.156711
0.250735
0.145488
0.133005
0.161953
0.100242
0.096565
0.127363
0.084001
0.126694
0.152571
0.081890
0.074286
0.143216
0.040921
0.097094
0.006918
0.019775
0.023318
0.048325
0.039752
0.014556
0.100761
0.049776
-0.032213
0.015957
0.045477
0.031115
0.096665
0.043667
-0.023112
0.037714
0.058907
0.076492
0.071777
0.056187
0.010310
0.114895
0.046340
-0.006884
0.015464
0.021576
0.005588
0.073746
0.023585
0.068238
0.088584
0.043405
0.037205
0.054014
-0.014275
-0.001182
-0.034414
0.046246
0.024306
0.059522
-0.016763
0.033848
0.072412
0.075252
-0.019814
0.046485
0.006702
0.066463
0.114777
-0.014914
0.059841
0.055430
0.025292
0.079923
-0.046728
0.074065
0.112087
0.046645
0.092618
0.099637
0.053619
0.080667
0.049960
0.109665
0.080943
0.030163
0.033437
0.055459
0.039261
0.042759
0.011850
0.063560
0.033330
0.013420
0.145460
0.056132
0.075049
0.019373
0.004920
0.099016
0.110828
0.051709
0.068195
0.008929
0.160006
0.118827
0.109137
0.085090
0.172845
0.111642
0.089568
0.022652
0.109512
0.123062
0.076791
0.155404
0.077791
0.118425
0.058535
0.090429
0.114877
0.082848
0.118947
0.170243
0.163732
0.197448
0.222082
0.156140
0.142794
0.289918
0.186478
0.268557
0.186994
0.271243
0.228052
0.272144
0.289448
0.203208
0.333833
0.208050
0.248828
0.194396
0.297670
0.207714
0.239444
0.211787
0.183516
0.183018
0.151947
0.202906
0.116833
0.215528
0.158220
0.125187
0.079578
0.042339
0.142441
0.024622
0.134050
0.054312
0.074121
0.144751
0.166092
0.081932
0.107995
0.080587
0.104329
0.081076
0.099439
-0.001573
0.141068
0.186199
0.123101
0.087131
0.134548
0.065453
0.138247
0.127919
0.100171
0.083650
0.040435
0.050035
0.037320
0.034885
0.068743
0.023406
0.227234
0.357727
0.620881
1.002882
1.234132
1.500000
1.383482
1.311557
1.001103
0.701256
0.398068
0.088507
-0.028730
-0.143854
-0.244362
-0.225911
-0.100839
-0.076014
-0.059519
0.087325
0.095226
0.023535
0.114816
0.084812
0.044165
0.175429
0.073334
0.090207
0.169335
0.127607
0.040276
0.085146
0.066550
0.092806
0.121288
0.076567
0.039328
0.141953
0.121514
0.080067
0.191003
0.132547
0.143137
0.200534
0.114233
0.111870
0.060133
0.186658
0.217994
0.136994
0.254514
0.244437
0.199674
0.189892
0.303839
0.366008
0.328055
0.309280
0.364025
0.340177
0.347484
0.354860
0.480553
0.380825
0.507373
0.490738
0.448086
0.487304
0.453271
0.505406
0.539939
0.540198
0.606948
0.519012
0.550859
0.488634
0.513629
0.581567
0.488919
0.599488
0.520728
0.455059
0.552120
0.444024
0.400449
0.429189
0.491198
0.377252
0.406676
0.415118
0.414628
0.319621
0.349885
0.320524
0.250115
0.187137
0.233468
0.278997
0.182156
0.237681
0.112578
0.196261
0.118209
0.161737
0.173840
0.186989
0.147936
0.014313
0.107094
0.087637
0.059981
0.038538
0.048910
0.066988
0.089093
0.105860
0.053642
0.041221
0.039077
0.063370
0.076453
0.034265
0.073922
0.110730
0.051128
0.042257
0.036504
0.078149
0.125685
0.018686
0.012809
0.030261
0.057693
-0.011066
0.135330
-0.008498
0.081714
0.039303
0.031978
-0.023558
0.070108
0.049959
0.038494
0.163494
0.067657
0.104829
0.021130
0.021433
0.064905
0.054282
0.071994
0.037089
-0.008068
-0.013590
0.034649
0.036685
-0.003077
-0.017525
0.057736
0.052278
0.050304
0.125024
0.077014
0.002907
0.015547
0.067056
-0.039400
0.023858
0.003531
0.024278
-0.018465
0.041293
0.042777
0.010799
-0.086492
0.006006
0.027313
0.041076
-0.048843
0.116914
0.004522
0.032389
-0.015564
-0.028063
-0.037289
0.019287
-0.027351
0.048160
-0.011891
-0.017077
0.018235
-0.008670
0.084660
0.032450
0.022165
-0.009590
0.019560
-0.009168
0.048663
-0.015628
-0.017661
-0.002193
0.029428
-0.025120
0.019419
0.022274
-0.027006
0.006174
0.055106
0.053171
0.104276
0.029461
0.106149
0.037124
0.095910
0.049708
0.057177
0.081237
0.108290
0.047386
0.134089
0.189465
0.065137
0.041732
0.143198
0.164310
0.135091
0.133082
0.136316
0.083146
0.133614
0.059426
0.084724
0.139448
0.126637
0.132110
0.135626
0.109835
0.011802
0.059905
0.086105
0.032736
0.038020
-0.027947
-0.000466
0.007123
0.031503
0.094049
-0.000770
-0.056990
-0.006872
-0.042506
-0.050202
-0.021490
-0.025018
-0.009392
-0.037688
-0.024725
-0.096728
-0.068695
-0.068670
-0.125059
-0.015250
-0.031243
-0.054854
-0.062525
-0.064161
-0.082205
-0.043538
-0.068723
0.012660
-0.017369
-0.047918
-0.015128
-0.099380
-0.102883
-0.188149
-0.074146
-0.008187
0.319751
0.584472
0.917178
1.165507
1.326952
1.324551
1.065007
0.867363
0.515525
0.151469
-0.059924
-0.233375
-0.321156
-0.393441
-0.370555
-0.272274
-0.222808
-0.161974
-0.100516
-0.043585
-0.097750
-0.046158
-0.003893
-0.079823
-0.021811
-0.026790
-0.046340
-0.035587
-0.070047
0.009835
-0.003157
-0.031747
-0.078914
-0.156755
-0.059651
-0.029952
0.046382
-0.071057
0.043874
-0.064155
0.030969
-0.005517
0.031037
-0.053695
-0.000970
-0.015883
0.051993
-0.009269
0.053432
0.050939
0.129526
0.077782
0.057516
0.125404
0.225683
0.216946
0.154719
0.249524
0.212388
0.241855
0.272025
0.291326
0.206772
0.333336
0.345504
0.313902
0.308297
0.368522
0.339370
0.351171
0.417789
0.450297
0.434080
0.378369
0.414988
0.369933
0.411268
0.424374
0.373899
0.317380
0.332665
0.292149
0.345463
0.329927
0.271141
0.330806
0.401338
0.211791
0.176649
0.199700
0.207696
0.125402
0.168762
0.178064
0.079713
0.142637
0.066855
0.112794
0.014084
0.088946
0.037830
0.008731
0.058076
0.027235
-0.069728
0.022049
-0.121260
0.015348
-0.066294
-0.060954
0.064799
-0.060005
-0.071363
-0.062405
-0.084229
-0.057517
-0.060878
-0.098771
-0.034610
-0.047608
-0.099478
-0.048035
-0.116552
-0.127033
-0.051255
-0.019800
-0.033534
-0.146173
-0.065159
-0.151675
-0.076823
-0.066207
-0.057903
-0.078946
-0.080372
-0.063638
-0.016252
-0.126190
-0.123474
-0.090478
-0.004847
-0.090435
-0.108254
-0.082205
-0.095588
-0.061726
-0.107734
-0.143961
-0.090682
-0.019779
-0.026260
-0.124577
-0.100088
-0.043509
-0.072726
-0.044964
-0.089890
-0.117503
-0.056503
-0.099212
-0.038261
-0.065787
-0.038455
-0.100824
0.001083
-0.067079
0.012437
-0.041057
-0.038225
-0.031063
-0.225292
-0.030472
-0.032125
-0.134878
-0.075412
-0.025717
0.018714
-0.025436
-0.042729
-0.058154
-0.053294
-0.143822
-0.126610
-0.073122
-0.081722
-0.085711
-0.099642
-0.010644
-0.095208
-0.010557
-0.019750
-0.041681
-0.105803
-0.064045
-0.076225
-0.077296
-0.044974
-0.098988
-0.085071
-0.013984
-0.028053
-0.058341
-0.050084
-0.026913
-0.167772
0.033216
-0.075635
0.012211
0.002200
0.020991
0.024587
-0.054614
-0.022972
0.006179
0.031988
-0.049311
0.031560
0.051161
0.036369
0.080743
0.072664
0.101626
0.030811
0.133379
0.072748
0.113754
0.159689
0.157120
0.150769
0.163383
0.103556
0.114039
0.102009
0.036989
0.115997
0.105475
0.014808
0.018650
0.127409
-0.015192
-0.054935
-0.049247
0.032115
0.008480
0.035302
-0.020823
-0.075120
-0.003116
-0.056282
-0.025788
-0.001194
-0.095880
0.024411
-0.050664
-0.061276
-0.042299
-0.038848
0.009892
-0.047668
-0.128932
-0.062090
-0.006822
-0.006153
0.015147
-0.052451
-0.033108
0.005911
-0.091551
-0.055158
-0.026621
-0.070143
-0.040001
-0.168479
-0.032812
-0.202515
-0.117602
0.018751
0.120712
0.428171
0.679563
1.072711
1.191279
1.323526
1.239812
1.074974
0.792145
0.509706
0.193826
-0.013976
-0.194009
-0.406785
-0.323360
-0.333716
-0.160550
-0.157215
-0.050410
-0.053861
-0.067892
-0.024771
-0.017043
-0.056691
-0.015298
0.009099
-0.058798
0.017238
0.002206
0.031591
0.011062
0.008655
-0.024652
0.007622
-0.003523
-0.052460
0.013031
-0.073154
0.029407
-0.018855
0.021793
0.027794
0.080743
-0.025581
0.039809
-0.048928
0.114651
0.058527
0.121797
0.132686
0.140030
0.185014
0.150613
0.165169
0.126641
0.207231
0.241199
0.228857
0.262316
0.326653
0.309325
0.287549
0.361714
0.391248
0.343439
0.427514
0.444315
0.390892
0.409116
0.494919
0.409751
0.482513
0.426741
0.501455
0.491781
0.462580
0.466806
0.566708
0.493745
0.478396
0.486391
0.435975
0.489284
0.451357
0.363589
0.381241
0.286899
0.372483
0.347640
0.240806
0.255109
0.268890
0.283953
0.261409
0.259428
0.267188
0.128995
0.196303
0.106007
0.188325
0.142041
0.038863
0.119053
0.107521
0.094862
0.150322
-0.016120
0.082915
0.019713
0.111326
0.072880
0.027937
0.011529
0.013039
0.062987
0.021608
0.065298
0.076693
0.020797
-0.033852
0.060790
-0.013446
0.016398
0.118491
0.020089
0.083987
0.048646
-0.017576
-0.003237
0.032889
0.048106
-0.011952
0.050021
0.043448
0.050917
0.034737
-0.000506
0.023983
0.089089
0.026664
0.016218
0.030227
0.007200
0.021677
0.014445
0.129897
0.033073
0.081879
-0.058651
0.028707
0.065313
0.003875
0.063698
0.037121
-0.014232
0.027089
0.074763
0.060477
0.081422
-0.026574
0.081990
-0.006874
0.035884
0.030985
0.091802
0.030894
0.074976
0.028420
-0.002916
0.020532
0.048156
0.026020
0.018547
-0.041516
0.073724
0.058183
-0.013740
0.010012
0.047004
0.099942
0.100357
0.063335
0.015931
0.061286
0.073971
0.057904
0.030124
0.008913
-0.004835
0.007302
0.051048
-0.027259
-0.000077
0.110144
0.055136
0.100178
0.039649
0.036406
0.019946
0.055734
0.033513
0.031710
0.097247
0.039566
0.087455
0.051842
0.014204
0.030735
0.047769
0.092610
0.057788
0.039851
0.097735
0.091204
0.102970
0.098035
0.111108
0.070031
0.120271
0.098770
0.124144
0.216919
0.200664
0.176548
0.240113
0.213815
0.223729
0.260158
0.203014
0.269795
0.238561
0.236665
0.229197
0.182487
0.236313
0.176554
0.115174
0.189153
0.118411
0.133804
0.114436
0.118206
0.159676
0.129116
0.080066
0.115953
0.051668
0.015493
0.013826
0.063887
-0.020385
0.100634
0.059943
0.038082
0.103695
-0.000754
-0.018688
0.100927
0.045329
0.054827
-0.038184
-0.015778
-0.018673
0.041021
0.027605
-0.020521
0.013622
0.078632
0.045307
0.111396
0.067363
0.017071
0.049276
0.010514
-0.037678
-0.024001
0.045004
0.012926
0.249322
0.503604
0.824943
1.058190
1.321394
1.411871
1.320547
1.131258
0.767021
0.459390
0.151219
-0.071064
-0.210061
-0.309167
-0.325637
-0.186448
-0.220330
-0.047164
-0.028941
-0.013823
-0.025493
0.017341
0.013028
0.040817
0.105209
-0.006240
-0.019270
0.025809
0.029178
0.069912
-0.062837
0.042258
0.059111
0.046216
-0.024482
0.031977
0.119118
0.069542
0.026713
0.021203
0.099053
0.070438
0.041854
0.085538
0.089869
0.122822
0.113916
0.061027
0.201751
0.077775
0.137648
0.174741
0.133153
0.105893
0.199473
0.201234
0.223796
0.338126
0.211919
0.356550
0.333000
0.316916
0.323406
0.426167
0.461308
0.435663
0.484319
0.410317
0.428895
0.459111
0.439672
0.479768
0.474690
0.463369
0.466600
0.526296
0.528604
0.493463
0.514706
0.467156
0.465963
0.419306
0.395982
0.432291
0.357270
0.321217
0.344169
0.304298
0.276741
0.290182
0.227837
0.196132
0.236053
0.161876
0.223429
0.196173
0.156753
0.166734
0.043231
0.159463
0.079674
0.118034
0.008555
0.146829
0.060930
0.065639
0.041799
-0.016422
-0.019004
0.068536
0.086143
0.055833
0.013723
0.012703
0.013293
0.027375
0.030074
-0.052726
-0.025351
-0.035100
-0.011016
-0.014393
-0.073302
-0.024722
-0.022612
0.011751
0.027839
-0.099376
-0.065677
-0.082110
-0.046196
-0.077063
-0.016042
-0.007910
-0.024491
-0.062877
-0.051889
0.003387
-0.020342
-0.037418
-0.008614
-0.054436
-0.020717
-0.077602
-0.052282
0.011791
-0.019027
-0.047249
-0.037059
-0.011234
-0.017336
-0.040827
0.013332
-0.032699
-0.092289
-0.054536
-0.022079
-0.072697
0.026186
-0.099983
-0.049688
-0.069302
-0.120251
-0.063220
-0.054194
-0.095092
-0.035035
-0.073462
-0.069895
-0.092905
-0.055488
-0.057750
-0.107863
-0.089089
-0.087057
-0.033046
-0.055582
-0.040331
-0.032837
-0.092898
0.003229
-0.091063
-0.066051
-0.113714
-0.049808
-0.119737
0.025288
-0.075241
0.026870
-0.001770
-0.114125
-0.132078
-0.083743
-0.060894
-0.027404
-0.079564
-0.047491
-0.134409
-0.083489
-0.078302
-0.062289
-0.011597
-0.083673
-0.049553
-0.055469
-0.150969
-0.036003
-0.066227
-0.019311
-0.013136
-0.011188
-0.071770
0.047808
0.032344
-0.018850
0.043572
-0.046763
0.092123
0.031158
0.114192
0.093162
0.088857
0.014858
0.023563
0.179976
0.064311
0.055602
0.071564
0.034064
0.083060
0.010470
0.046161
0.175294
0.038538
0.065420
0.017248
0.056198
0.046921
0.028764
-0.015090
-0.010337
-0.052136
-0.081265
0.011784
-0.012822
-0.100582
-0.076726
-0.128903
-0.051067
-0.059136
-0.120308
-0.094405
-0.084032
-0.088251
-0.093641
-0.102617
-0.112573
-0.071309
-0.054063
-0.008339
-0.083536
-0.042010
-0.125187
-0.091475
-0.093913
-0.119123
-0.169399
-0.089791
-0.101649
-0.028979
-0.041180
-0.101872
-0.202047
-0.093840
-0.123491
-0.175429
-0.136676
-0.021562
0.178218
0.456367
0.777912
1.029664
1.237548
1.231541
1.077230
0.902490
0.547015
0.168243
-0.055880
-0.195730
-0.401761
-0.401011
-0.436539
-0.311056
-0.264856
-0.139365
-0.158392
-0.099548
-0.083136
-0.097789
-0.137306
-0.096676
-0.079397
-0.090352
-0.093604
-0.091977
-0.120021
-0.035715
-0.111816
-0.051516
-0.078588
-0.069938
-0.148179
-0.062238
-0.121604
-0.017271
-0.086238
-0.085757
-0.006614
-0.076955
0.017977
-0.022678
-0.110151
-0.026125
0.009209
-0.043763
-0.061429
0.043876
0.029810
0.072766
0.037260
0.081161
0.133838
0.125065
0.222201
0.166979
0.172313
0.223044
0.240300
0.241873
0.325432
0.302335
0.330138
0.364038
0.341260
0.332295
0.364594
0.318858
0.359641
0.299262
0.408844
0.411993
0.460677
0.403528
0.320499
0.384958
0.413877
0.321591
0.469653
0.398468
0.392973
0.293273
0.220360
0.291580
0.243738
0.246693
0.189617
0.185909
0.186935
0.131605
0.088279
0.167812
0.129828
0.102456
0.124699
0.060899
0.017777
0.125446
0.002077
0.034935
0.057328
-0.070089
-0.044826
0.021219
-0.015772
-0.074911
-0.033483
0.003195
-0.038931
-0.055037
-0.077426
-0.038638
-0.079178
-0.005627
-0.035890
-0.068368
-0.018820
-0.059135
-0.045427
-0.030704
-0.106808
-0.053763
-0.046847
0.003746
-0.121634
-0.039667
-0.057266
-0.084996
-0.038965
-0.046566
-0.014843
-0.012481
-0.058640
-0.102123
-0.045636
-0.103281
-0.031556
-0.075535
-0.100780
-0.014194
-0.032948
-0.039611
-0.096078
-0.066522
-0.101350
-0.024670
-0.047546
-0.031067
-0.056433
0.009939
0.027302
-0.087067
-0.040352
-0.098911
-0.010036
-0.123386
-0.015283
-0.057981
-0.061474
0.003916
-0.062607
-0.019905
-0.104124
-0.042329
0.001031
0.014884
-0.046492
0.053795
0.027886
-0.060480
-0.037623
-0.104157
-0.043442
-0.005832
-0.048299
0.000882
-0.050758
-0.010209
0.021462
-0.028740
-0.063079
-0.063707
-0.013967
0.022362
-0.052613
0.011840
-0.023433
-0.027636
0.013300
0.016273
-0.100460
-0.046176
-0.049275
0.035584
-0.019415
-0.015190
0.009779
-0.042402
0.018975
0.048833
0.024007
-0.084855
0.044361
0.066081
-0.025676
0.030227
0.061326
-0.053004
0.044131
0.060670
0.036756
-0.036860
0.055302
0.029049
0.081693
0.120993
0.081413
0.177004
0.092241
0.119153
0.227893
0.138308
0.091434
0.111134
0.172750
0.217039
0.170157
0.193638
0.082659
0.207718
0.072443
0.111483
0.050710
0.122073
0.092066
0.098036
0.092530
0.083547
0.021218
0.074742
0.092970
0.064053
0.025042
0.035686
0.020281
-0.043724
-0.030115
0.026402
-0.008175
-0.003172
0.034262
-0.039346
0.005599
0.022654
0.043514
-0.019476
0.002475
0.056323
0.013811
0.063372
-0.083177
-0.058665
0.016023
0.021097
-0.025058
0.032375
0.012479
0.019345
0.031758
-0.022184
-0.030195
0.015734
0.012718
-0.103606
-0.120404
0.041056
0.259905
0.588410
0.981781
1.294672
1.313595
1.356841
1.194831
0.935127
0.609306
0.300223
0.116755
-0.186758
-0.285815
-0.339710
-0.265806
-0.264897
-0.098622
-0.054294
0.015679
0.034428
0.017179
0.058504
0.024100
0.049729
0.094682
0.012691
0.088401
-0.061823
0.007412
-0.016412
0.045406
0.078801
0.075662
0.058790
0.060074
0.047667
0.048797
0.129201
0.091659
0.093171
0.169600
0.072143
0.050331
0.109985
0.146785
0.094913
0.180152
0.164331
0.210577
0.134728
0.179865
0.220428
0.202074
0.304323
0.194295
0.215272
0.352537
0.265738
0.329527
0.367156
0.364449
0.360166
0.382866
0.442981
0.403951
0.468747
0.524065
0.490546
0.489857
0.468382
0.535876
0.602170
0.519957
0.552134
0.488142
0.506345
0.554019
0.550827
0.585539
0.463554
0.477834
0.390326
0.474708
0.373745
0.401872
0.409249
0.419486
0.380671
0.362487
0.325969
0.339337
0.314587
0.248149
0.307035
0.194968
0.307303
0.231344
0.250718
0.222817
0.138698
0.140738
0.154682
0.139191
0.174146
0.089816
0.167504
0.125447
0.110350
0.108483
0.093747
0.105518
0.069081
0.042307
0.061540
0.196692
0.065105
0.064355
-0.019704
0.172792
0.070899
0.072023
0.071842
0.072734
0.124641
0.070332
0.091232
0.047888
0.048103
0.058956
0.030009
0.022818
-0.000820
0.032861
0.122256
0.056219
0.101482
0.109055
0.080689
0.055147
0.164783
0.071816
0.117798
0.017730
-0.002075
0.016155
0.019162
0.039288
0.083269
0.083998
0.097028
0.080834
0.043868
0.053576
0.093010
0.031944
0.050434
0.081261
0.042217
0.032827
0.037875
-0.031168
0.059517
0.058883
0.031446
-0.019930
0.064716
0.006038
-0.005024
0.054288
0.097404
0.102446
