0.001872
-0.017753
-0.006829
-0.029618
0.034509
-0.032880
-0.017672
-0.048534
-0.034925
0.022675
-0.046507
0.010368
-0.026899
0.044357
-0.065488
0.025776
0.019052
0.019220
0.035526
0.029668
0.000281
0.003894
0.010281
-0.037871
-0.006633
0.109549
0.114077
0.030388
0.091263
0.103666
0.068588
0.108357
-0.025007
0.093122
0.115798
0.160642
0.168234
0.085758
0.187601
0.067009
0.214386
0.182595
0.149614
0.179423
0.196749
0.201279
0.236807
0.224878
0.219202
0.258450
0.181393
0.202800
0.175537
0.147256
0.187502
0.140834
0.112974
0.161535
0.147971
0.222023
0.134948
0.114182
0.122666
0.102432
0.049599
0.038856
0.177342
0.057260
0.099161
0.070261
0.080244
0.085149
-0.044278
0.041279
0.068456
0.056515
0.057659
0.054201
0.019246
-0.041119
0.095633
0.116409
0.034232
0.098480
-0.004440
0.057824
0.026258
-0.103168
0.015179
-0.061995
0.167342
0.345279
0.662298
0.979363
1.302440
1.500000
1.389190
1.263436
0.947941
0.556104
0.287963
-0.022052
-0.206222
-0.301771
-0.226858
-0.193474
-0.054119
-0.000938
0.019141
0.044196
0.018263
0.124657
0.112553
0.067290
0.067400
0.112180
-0.050299
0.120643
0.048450
0.051042
0.115727
0.149344
0.081307
0.085004
0.122886
0.110268
0.105448
0.064591
0.193890
0.199028
0.150604
0.287973
0.256072
0.248564
0.314843
0.246022
0.321753
0.246015
0.279610
0.351551
0.420561
0.424582
0.360587
0.446741
0.463622
0.505506
0.493368
0.432399
0.577751
0.498023
0.526205
0.540274
0.587372
0.601732
0.675651
0.552471
0.541630
0.662119
0.582558
0.508244
0.536490
0.486196
0.491493
0.537934
0.492874
0.452362
0.448850
0.353434
0.442007
0.491310
0.454651
0.307267
0.327017
0.325846
0.249125
0.268662
0.247741
0.227367
0.189065
0.206152
0.240865
0.186906
0.143076
0.138217
0.159292
0.168201
0.197979
0.147185
0.115421
0.071914
0.102124
0.129835
0.100847
0.087935
0.170925
0.127805
0.086839
-0.035120
0.153248
0.002155
0.151502
0.184970
0.090572
0.167859
0.053395
0.121285
0.050319
0.116509
0.042566
0.069472
0.082308
0.157779
0.088275
0.029067
0.024098
0.083055
0.061828
0.124906
0.119839
0.087422
0.129914
0.073626
0.036842
0.065036
0.164682
0.072311
0.092702
0.059189
0.026627
0.039455
0.146734
0.094509
0.080353
0.141740
0.088075
0.151318
0.063239
0.126363
0.047169
0.120184
0.078322
0.101365
0.096566
0.029232
0.125601
0.109217
0.099478
0.026308
0.099484
0.066382
0.087613
0.168483
0.053318
0.027385
-0.002909
0.098027
0.018102
0.101830
0.148648
0.080055
0.098297
0.097986
0.040900
0.017717
0.092529
0.105799
0.076506
0.124556
0.119584
0.163471
0.183793
0.170590
0.151601
0.113131
0.121744
0.172296
0.149620
0.198891
0.267076
0.119152
0.182508
0.170647
0.238654
0.245899
0.340047
0.197514
0.136156
0.305074
0.231455
0.266980
0.212744
0.226323
0.205633
0.127329
0.202659
0.177824
0.183829
0.182991
0.145995
0.137455
0.136913
0.072283
0.135183
0.018799
0.078668
0.098628
0.168737
0.146085
-0.048345
0.038482
0.022822
0.039334
0.059681
0.096820
-0.015919
0.052964
0.033783
0.089955
0.025093
0.006154
0.062194
0.034174
-0.035566
0.028186
-0.083891
-0.063945
0.009784
0.127361
0.130412
0.314985
0.514779
0.924434
1.286614
1.382500
1.418331
1.310075
0.935116
0.592066
0.265241
0.025461
-0.251342
-0.264236
-0.263516
-0.149992
-0.056570
0.030268
0.084954
0.047650
0.070888
0.014556
0.057899
0.071571
0.023414
0.080440
0.061152
0.079285
0.007968
0.032257
0.078516
-0.031194
0.110709
0.088520
0.047818
0.062089
0.057243
0.076172
0.197657
0.147760
0.160366
0.187503
0.190405
0.287253
0.247213
0.260867
0.217546
0.266743
0.348882
0.320119
0.327289
0.413478
0.346582
0.395106
0.417101
0.456244
0.483300
0.507545
0.509777
0.500917
0.574926
0.552654
0.496227
0.502579
0.532000
0.575163
0.494495
0.493415
0.528111
0.587210
0.527009
0.526143
0.528682
0.421893
0.454247
0.420840
0.391882
0.479168
0.278884
0.339049
0.300932
0.325094
0.261883
0.280874
0.171237
0.168156
0.169575
0.207226
0.162009
0.193212
0.040938
0.124458
0.064027
0.018104
0.108624
0.099576
-0.014120
0.067296
0.003019
0.034782
0.109952
0.025783
0.019237
-0.007758
0.035052
-0.057919
0.034944
0.006683
-0.019916
-0.069717
0.042852
-0.058730
0.026478
0.005970
-0.013283
-0.006639
0.001364
0.014068
-0.063503
-0.019578
-0.015016
-0.012469
-0.071204
0.008746
-0.024907
0.017056
-0.020406
-0.006716
0.038276
-0.081695
-0.116476
-0.070874
-0.055772
-0.024852
-0.006643
-0.008644
-0.026595
-0.023868
0.007716
-0.031797
0.044554
0.035873
-0.069323
-0.018798
0.005958
0.005477
-0.051093
-0.050852
-0.073806
-0.029340
0.012948
-0.027653
-0.063490
-0.009378
-0.041525
-0.021759
-0.048490
-0.103819
-0.000795
-0.025480
-0.039342
0.000172
-0.067099
-0.031200
0.018534
-0.014273
-0.046779
-0.010071
-0.046552
-0.172308
-0.152282
-0.022316
-0.049528
-0.058614
-0.070113
-0.005199
0.067055
0.063372
0.017902
-0.013251
0.028231
0.047499
0.057067
0.058637
0.008787
0.115785
0.097969
0.111824
0.063962
0.079237
0.177423
0.130691
0.160425
0.120104
0.256510
0.093111
0.056071
0.139195
0.131534
0.112130
0.069426
0.178066
0.086547
0.143961
-0.014032
0.058235
0.120920
0.137126
0.048853
0.054398
-0.016897
0.002170
-0.002929
-0.075659
-0.009170
-0.002718
-0.030926
-0.037389
-0.061259
0.007294
-0.117095
-0.040286
-0.124847
-0.076000
0.005007
-0.068026
0.000106
0.010291
-0.023860
0.074619
-0.086682
-0.073749
-0.041760
-0.047576
-0.090462
-0.111869
-0.017029
-0.111308
-0.007271
0.314917
0.523449
0.852910
1.170205
1.398174
1.339267
1.092137
0.895756
0.483297
0.191244
-0.081760
-0.234854
-0.321194
-0.377104
-0.296833
-0.107259
-0.077126
-0.082328
-0.073652
-0.048513
-0.098042
0.041147
-0.066182
0.013653
-0.037011
0.006843
0.017713
-0.063029
-0.070628
-0.069250
-0.011513
-0.057384
0.064193
0.050048
0.009978
0.054993
-0.005045
0.034282
0.074063
0.038969
0.156765
0.101361
0.122299
0.183467
0.102313
0.223751
0.179493
0.283124
0.248570
0.357918
0.264163
0.355094
0.316798
0.389888
0.388353
0.356454
0.331495
0.383160
0.393691
0.459988
0.536776
0.418847
0.445271
0.418203
0.469460
0.449635
0.511462
0.484055
0.505679
0.417680
0.443712
0.446725
0.300145
0.460538
0.391957
0.326120
0.342989
0.257474
0.296431
0.316919
0.316552
0.211642
0.176120
0.204922
0.163396
0.143796
0.202761
0.083553
0.108624
0.104269
0.102386
0.119148
0.118842
0.046935
0.100271
0.000407
0.083729
0.045002
0.047827
0.001755
0.074975
0.005795
-0.006247
-0.016128
-0.030366
-0.010187
-0.004341
-0.034301
-0.014291
-0.025050
-0.052093
-0.071743
-0.033992
0.019287
-0.076587
-0.074490
-0.059167
0.016514
-0.029795
-0.018358
0.001024
-0.043758
-0.110402
-0.037661
0.041954
-0.023745
0.013349
-0.022498
-0.006312
0.011553
-0.055595
-0.034084
0.021299
0.029355
-0.038024
0.029291
0.090393
-0.038568
-0.026712
-0.008616
-0.010226
-0.011268
0.009861
0.048951
-0.041777
0.048354
-0.033563
-0.031719
-0.045977
-0.052712
-0.048240
-0.070093
0.058367
0.024763
-0.048416
0.041591
0.030696
-0.010280
-0.079249
0.046005
-0.043920
0.012870
-0.036321
0.064612
-0.013719
-0.064919
0.037166
0.058844
-0.044301
0.065819
0.066557
0.010209
0.051184
-0.030077
0.029526
0.045140
0.001795
0.093184
0.047779
0.150001
0.066446
0.126189
0.178015
0.139440
0.094078
0.149006
0.180810
0.205293
0.187277
0.146561
0.108636
0.164972
0.139029
0.166697
0.208763
0.238346
0.212371
0.187999
0.243920
0.149878
0.188406
0.238853
0.257860
0.191846
0.190523
0.144028
0.193455
0.147181
0.072175
0.008738
0.065572
0.016384
0.111325
0.044592
0.070019
0.071669
0.055991
0.088488
-0.017579
0.083628
0.007611
0.052518
0.086878
0.048613
0.058456
0.036552
0.060827
0.050589
0.061478
0.090406
0.069022
0.019097
0.029926
0.079754
-0.021633
-0.035065
-0.045525
0.001873
0.331019
0.570107
0.949933
1.274266
1.430485
1.489002
1.267350
1.018550
0.621963
0.345744
0.020740
-0.093226
-0.227530
-0.179677
-0.123756
-0.153617
0.056366
-0.032333
0.065057
0.011606
0.100998
0.051845
0.079322
0.173170
0.133721
0.110297
0.024157
0.067761
0.081745
0.085066
0.174184
0.033165
0.136587
0.135916
0.119421
0.145723
0.153101
0.159947
0.137871
0.129712
0.141176
0.254015
0.205991
0.223530
0.348483
0.267165
0.296446
0.358339
0.362462
0.344447
0.427641
0.491088
0.435530
0.443687
0.512392
0.525931
0.496134
0.526210
0.549058
0.498923
0.532964
0.570951
0.581900
0.551187
0.650936
0.650971
0.585006
0.525436
0.528871
0.575552
0.480379
0.586303
0.538793
0.540540
0.473976
0.541273
0.425178
0.445068
0.457910
0.360425
0.355263
0.397890
0.367435
0.262135
0.238736
0.317111
0.228122
0.310532
0.210108
0.179041
0.194095
0.165804
0.249131
0.167622
0.090777
0.089240
0.187849
0.182949
0.181160
0.170998
0.109716
0.047106
0.079861
0.138564
0.127482
0.164453
0.119679
0.120009
0.154904
0.131471
0.102840
0.074815
0.157175
0.095206
0.064603
0.065046
0.141810
0.075830
0.149476
0.182352
0.095658
0.059708
0.096526
0.061142
0.038881
0.163888
0.129617
0.035477
0.030662
0.062479
0.114210
0.166874
0.119145
0.057553
0.052354
0.092798
0.143130
-0.002444
0.021592
0.081194
0.048918
0.129701
0.119923
0.133524
0.022505
0.137998
0.126351
0.098501
0.127472
0.089951
0.080299
0.054752
0.109165
0.092984
0.099277
0.075486
0.065215
0.073067
0.082703
0.059665
-0.011475
0.081003
-0.022116
0.157456
0.112072
0.079913
0.030138
0.037678
0.158216
0.097290
0.115423
0.040913
0.105061
0.099519
0.049978
0.161879
0.162717
0.118859
0.122782
0.202988
0.221772
0.161286
0.156424
0.254496
0.163247
0.122470
0.246497
0.202080
0.200744
0.229219
0.216780
0.282403
0.286331
0.268792
0.249744
0.229404
0.239526
0.223016
0.268529
0.157105
0.228830
0.232652
0.197444
0.136782
0.180650
0.157481
0.199239
0.126609
0.208438
0.125335
0.139506
0.121892
0.081640
0.113719
0.104367
0.153725
0.078131
0.152792
0.033022
0.059206
0.102781
0.137611
0.102049
-0.006926
0.118154
0.114486
0.068046
0.056611
0.099369
0.037610
0.071575
0.095121
0.034813
0.081028
-0.019222
0.009064
0.044031
0.114567
0.322078
0.614137
0.922232
1.271648
1.409660
1.460588
1.339882
1.083675
0.698248
0.376508
0.055995
-0.143535
-0.175713
-0.170768
-0.165145
-0.117918
-0.035377
0.067797
0.008684
0.033496
0.044072
0.085377
0.052874
0.072850
0.071602
0.032573
0.112665
0.125926
0.113681
0.066367
0.073101
0.093328
0.042395
0.091587
0.156504
0.108626
0.193505
0.198732
0.129322
0.160592
0.172780
0.135489
0.139476
0.277320
0.267348
0.314715
0.354373
0.330527
0.348857
0.297026
0.406661
0.332789
0.429468
0.419582
0.386874
0.402104
0.421489
0.450041
0.508543
0.499445
0.453463
0.477502
0.554808
0.500647
0.564957
0.498107
0.625803
0.528057
0.528555
0.512357
0.479613
0.498442
0.525279
0.430770
0.457133
0.388885
0.440672
0.413050
0.290037
0.328573
0.399921
0.297612
0.338614
0.272235
0.166299
0.145126
0.141041
0.196531
0.140661
0.129300
0.151928
0.146794
0.065590
0.033802
0.030409
0.026025
0.014639
0.068914
0.061352
0.079721
0.078679
0.047277
-0.005413
0.076598
0.025587
-0.002728
-0.001393
0.016891
0.000046
-0.010983
0.031430
-0.039322
-0.016448
0.000552
-0.051191
-0.057065
-0.072010
0.014499
0.002118
-0.048308
0.057209
-0.020225
0.042926
-0.067058
-0.023006
-0.047953
-0.023316
-0.003667
-0.052234
-0.017169
-0.046912
0.013279
0.038320
-0.002134
-0.027217
-0.039490
-0.046053
-0.022914
-0.040613
-0.128503
-0.049003
-0.102220
-0.020673
-0.023203
0.000585
-0.000789
-0.002021
0.055442
0.024632
-0.012992
-0.052068
-0.023829
-0.114186
0.009643
-0.014395
-0.029700
-0.019889
-0.088478
-0.141269
0.048087
-0.129388
-0.030588
-0.002466
-0.072526
-0.012495
0.024973
-0.064206
-0.040417
-0.038715
-0.123578
-0.091841
-0.087504
-0.049960
-0.077587
-0.010124
0.022975
-0.008050
-0.042854
-0.062353
-0.003283
-0.042798
0.084479
0.090889
-0.056336
0.119019
0.060413
0.029235
0.068972
-0.004132
0.054904
0.109031
0.140116
0.164833
0.072662
0.248471
0.281012
0.120860
0.194244
0.200690
0.143331
0.033387
0.102618
0.126471
0.061363
0.047143
0.064522
0.022202
0.042861
0.059103
0.036879
-0.016842
-0.012136
0.014968
-0.002571
0.040886
-0.056584
-0.002380
-0.040058
0.031332
-0.039189
0.001364
-0.073468
-0.009963
-0.087421
-0.069619
-0.100011
-0.112629
-0.100825
-0.006839
-0.103203
-0.069163
-0.045110
-0.017900
-0.098144
-0.090465
-0.087549
-0.190834
-0.033330
0.183202
0.373156
0.763831
1.035122
1.271344
1.373107
1.122209
0.975908
0.591717
0.219944
-0.055124
-0.198522
-0.313010
-0.427756
-0.291582
-0.237273
-0.154481
-0.145098
-0.004114
-0.048536
-0.038380
-0.046739
-0.093263
-0.088774
-0.020265
-0.107456
-0.005418
0.002454
-0.061700
-0.098064
0.036163
-0.035865
-0.052075
0.008687
-0.014823
0.004649
-0.013787
-0.020310
0.013727
0.034248
0.125495
0.091871
0.120393
0.086264
0.104908
0.176394
0.184348
0.199104
0.124593
0.201858
0.244474
0.264493
0.177972
0.336868
0.293272
0.421843
0.354980
0.437362
0.359562
0.406792
0.406830
0.443842
0.391759
0.443869
0.394775
0.449182
0.427946
0.392537
0.390783
0.513530
0.345696
0.364080
0.415152
0.349486
0.347732
0.318213
0.268308
0.261523
0.258486
0.241234
0.243567
0.189590
0.144069
0.222432
0.120732
0.108742
0.128114
0.084160
0.045333
0.040717
-0.037869
-0.018204
0.042346
-0.053898
-0.008086
-0.023492
-0.003973
-0.004215
-0.022670
-0.073039
-0.112613
-0.019802
0.003699
-0.015203
-0.046971
-0.039508
-0.084270
-0.045882
-0.064508
-0.035543
-0.046560
-0.090866
-0.080392
0.001713
-0.125301
-0.072270
-0.113061
-0.060999
0.003574
-0.130039
0.025206
-0.142991
-0.114161
-0.095593
0.012873
-0.088880
-0.071925
-0.017100
-0.075451
-0.000615
-0.020988
-0.103600
0.025237
-0.057552
-0.055526
-0.073036
-0.093484
-0.052126
-0.062455
-0.076949
-0.050077
-0.135314
-0.091652
-0.068065
-0.133369
-0.050363
-0.099758
-0.031958
-0.020406
-0.111981
-0.034608
-0.027197
-0.045209
-0.043646
-0.104754
-0.042468
-0.035832
-0.095798
0.026530
-0.071753
-0.077471
-0.067797
-0.015879
-0.021552
-0.085128
0.001953
-0.076809
-0.007929
-0.039507
-0.135279
0.053428
-0.101636
-0.116945
0.005171
-0.076070
-0.036747
0.052233
-0.089052
-0.068820
0.034619
0.080049
-0.050298
0.084797
0.031197
0.080521
0.009289
0.036311
0.074209
-0.022751
0.111523
0.132882
0.120682
0.154092
0.114907
0.136308
0.202264
0.124311
0.094973
0.250032
0.120729
0.025662
0.103037
0.169800
0.116426
0.070641
0.070105
0.127686
0.025337
0.038727
-0.030700
-0.005903
-0.007993
-0.001378
0.084948
0.029467
-0.053452
-0.018532
0.008635
-0.010179
0.000186
-0.020647
-0.040209
0.036698
0.010875
-0.003691
-0.070715
-0.050510
-0.027183
-0.093387
-0.004538
-0.015039
-0.009011
-0.077628
0.074789
-0.050686
-0.098600
-0.069243
-0.030303
0.202749
0.357102
0.765369
1.016975
1.334891
1.386510
1.384390
1.014007
0.753989
0.373607
0.042604
-0.239674
-0.272384
-0.294270
-0.316806
-0.186285
-0.062227
-0.138174
0.030497
0.053391
-0.041422
0.084023
0.004578
0.003268
0.064523
-0.014645
0.021205
0.063192
0.040099
0.023318
-0.006017
0.042524
0.093653
0.054878
0.098664
0.120952
0.037798
0.084916
0.157947
0.179054
0.112388
0.227606
0.158432
0.211697
0.206590
0.161155
0.211388
0.346104
0.315003
0.258745
0.313008
0.335714
0.390104
0.416933
0.396072
0.395049
0.504550
0.463980
0.443987
0.496083
0.466165
0.436831
0.436568
0.554676
0.454669
0.458203
0.541503
0.501585
0.528489
0.513928
0.488507
0.458940
0.508173
0.489179
0.427971
0.348714
0.417020
0.368365
0.266165
0.392413
0.357136
0.339645
0.237166
0.291671
0.246189
0.197700
0.122011
0.201662
0.169783
0.103400
0.153210
0.163196
0.004726
0.151324
0.166135
0.029455
0.067319
0.152958
0.056628
0.054644
0.130139
0.073522
0.051599
0.077252
0.031513
0.085815
0.036355
0.048665
0.103922
-0.027986
0.106513
0.010194
0.095626
-0.026052
0.048456
0.046753
-0.013612
0.020224
0.087945
0.053916
0.000525
0.059949
0.040154
0.066239
0.021009
0.075810
-0.028437
0.065009
0.039560
0.098181
0.012332
0.072526
0.026069
0.062231
0.125208
0.037511
-0.022087
0.043978
0.114360
0.056433
0.070086
0.056317
0.084168
0.077846
0.139295
-0.001887
0.042549
0.123701
0.123266
0.034934
0.082568
-0.007131
0.003558
0.013448
0.008279
0.069017
0.125442
0.044821
0.065392
0.044230
0.072902
-0.021612
0.013602
0.029373
0.129550
0.046130
0.093396
0.035921
-0.038272
-0.058923
0.079198
-0.008648
0.097223
0.045866
0.130954
0.042107
-0.012858
0.021530
-0.000456
0.114235
0.047176
0.003134
0.077384
0.106354
0.090042
0.141658
0.196074
0.168847
0.106671
0.241172
0.267587
0.201016
0.216554
0.185590
0.152290
0.191555
0.180912
0.170164
0.197917
0.181212
0.184072
0.145290
0.208778
0.189917
0.159016
0.226431
0.134758
0.129840
0.121217
0.185089
0.030627
0.034981
0.092330
0.053448
0.073769
0.038028
0.067896
0.079399
0.059410
0.027154
0.114696
0.056978
0.035933
-0.010777
0.049048
0.060873
0.122717
-0.023020
0.022506
0.131150
0.012645
0.084369
-0.031585
-0.018917
0.020412
-0.087345
0.075640
0.058060
0.287606
0.426904
0.751305
1.095435
1.338952
1.427192
1.367172
1.147025
0.776906
0.455573
0.082353
-0.089726
-0.232512
-0.197514
-0.235469
-0.166825
-0.064716
-0.013983
0.073304
0.034985
0.124901
0.110483
0.016734
0.023024
0.009540
0.057234
0.025340
0.021515
-0.020591
-0.022015
0.100637
0.137743
0.153077
0.125383
0.071641
0.119755
0.084426
0.078167
0.115329
0.172817
0.136950
0.155033
0.210080
0.160815
0.224098
0.252874
0.258274
0.327108
0.236429
0.344376
0.373234
0.359853
0.362376
0.427387
0.410956
0.460561
0.453575
0.443985
0.506859
0.532416
0.441553
0.496259
0.539532
0.485132
0.513453
0.488719
0.550122
0.528799
0.522733
0.438597
0.540820
0.433023
0.450445
0.418136
0.478618
0.423201
0.441658
0.288106
0.367218
0.299980
0.307502
0.317174
0.302858
0.184104
0.201139
0.131255
0.187659
0.140096
0.225252
0.175869
0.102448
0.060630
0.042089
0.118462
0.049072
0.031905
0.035553
0.008374
0.005664
0.058675
-0.009296
-0.066103
0.063991
-0.021190
0.033533
-0.028375
-0.147203
0.034273
-0.014233
0.011890
-0.080778
0.008543
-0.018699
-0.020240
-0.027150
-0.061498
-0.083317
-0.056773
0.020547
0.007190
-0.063129
-0.007740
-0.051945
-0.025072
0.077122
-0.019303
0.001859
-0.028632
-0.022825
-0.055458
-0.023198
0.054320
-0.072884
-0.052955
-0.063291
0.012983
0.013932
-0.050155
-0.153180
0.025179
-0.074681
0.001044
-0.097485
-0.110495
-0.089360
-0.042225
-0.045762
0.009607
0.028019
-0.088371
-0.085516
-0.050985
-0.042054
-0.071307
0.006368
-0.067316
-0.040571
-0.066038
-0.043285
-0.068747
-0.080546
-0.054964
-0.052068
0.062551
-0.061584
-0.058508
-0.035393
-0.031850
-0.021866
-0.082820
-0.031583
0.009129
-0.028214
-0.096755
-0.007217
-0.037326
-0.022658
-0.015532
-0.008262
0.002021
0.000935
0.023485
0.042583
-0.052311
0.018216
0.068442
0.076942
0.038419
0.096803
0.008534
0.165898
0.147162
0.150591
0.064012
0.152360
0.068925
0.120363
0.117414
0.051709
0.177819
0.106377
0.069218
0.099258
0.106386
0.089045
0.010579
0.061175
0.015109
0.095570
-0.025185
0.006893
0.012730
0.012166
-0.066636
-0.004198
-0.143570
-0.030765
-0.048467
-0.036765
-0.144865
-0.078254
-0.064849
-0.080170
-0.004573
-0.050694
-0.058574
-0.022568
-0.091053
-0.085971
0.005629
-0.002834
-0.079953
-0.111310
-0.124344
-0.185457
-0.157038
-0.085992
-0.097851
0.066893
0.358851
0.623850
0.907907
1.157196
1.232871
1.270037
0.963074
0.706056
0.323292
0.069957
-0.206122
-0.275395
-0.387210
-0.327047
-0.199418
-0.221663
-0.117388
-0.149047
-0.160378
-0.147001
-0.095752
-0.054888
-0.085366
-0.048794
-0.070942
-0.082237
-0.011171
-0.016658
-0.051447
-0.113110
0.045774
-0.040183
0.031876
-0.087563
-0.080096
-0.028257
-0.025290
-0.070266
0.057717
0.055695
0.148023
0.099941
0.012419
0.210149
0.189402
0.103289
0.152079
0.195368
0.237877
0.160845
0.215804
0.275698
0.332160
0.236664
0.303470
0.386362
0.248109
0.422927
0.314592
0.371210
0.362936
0.404002
0.483049
0.365096
0.419630
0.399677
0.414724
0.403623
0.380419
0.471265
0.349483
0.270373
0.272818
0.404496
0.287742
0.324011
0.274937
0.212386
0.226939
0.228378
0.187148
0.221222
0.132988
0.083209
0.098324
0.106279
0.090001
0.034575
0.063472
0.060743
0.027482
0.011568
-0.048050
-0.031642
-0.027800
-0.104515
-0.070016
-0.081054
-0.030960
-0.053906
-0.127585
-0.105868
-0.059997
-0.111572
-0.071792
-0.171619
-0.080323
-0.089494
-0.072181
-0.103508
-0.035961
-0.184483
-0.036250
-0.104287
-0.067242
-0.024386
-0.060026
-0.123739
-0.037524
-0.039788
-0.141880
-0.008501
-0.035625
-0.083070
-0.140679
-0.119774
-0.150408
-0.123362
-0.073044
-0.048113
-0.116646
-0.073555
-0.083164
-0.040644
-0.154648
-0.126270
-0.060911
-0.095056
-0.096631
-0.160695
-0.155680
-0.109885
-0.082310
-0.105751
-0.038355
-0.110574
-0.136623
-0.175837
-0.043983
-0.135107
-0.121023
-0.049710
-0.110354
-0.154821
-0.057984
-0.087441
-0.048940
-0.059462
-0.086552
-0.045265
-0.036172
-0.028856
-0.124599
-0.097297
-0.119720
-0.102266
-0.119412
-0.066477
-0.044592
-0.085517
-0.052903
-0.061897
-0.077693
-0.059218
-0.103715
-0.104746
-0.074707
-0.036808
0.018118
-0.068258
-0.023719
-0.008296
0.026248
0.045598
0.056883
0.039274
-0.021136
0.067200
0.059084
0.067388
0.054132
0.078885
0.143503
0.076732
0.065701
0.088896
0.160696
0.054548
0.063303
0.066982
0.080400
0.053167
-0.006472
0.110858
0.050818
-0.029845
0.034598
-0.014544
0.018897
0.121710
0.030284
-0.021667
-0.085362
-0.026598
-0.046633
-0.033019
0.005523
-0.103523
-0.173429
0.004303
-0.000809
-0.106655
0.006420
0.003951
-0.087800
-0.079285
-0.072298
-0.083398
0.023953
-0.055330
0.066344
0.015043
-0.105270
0.000299
-0.102874
-0.138634
0.026478
0.168263
0.342298
0.717658
1.016421
1.237987
1.304877
1.324987
1.077008
0.721332
0.544568
0.124434
-0.188929
-0.250094
-0.295443
-0.310763
-0.244059
-0.054904
-0.078684
-0.061888
-0.005380
0.005123
-0.020989
-0.005146
-0.043589
0.031588
0.054056
-0.001845
0.034266
0.045767
0.071730
0.003932
-0.007035
-0.011589
-0.005507
0.094653
0.045400
0.017841
0.032081
0.076028
0.104102
0.143790
0.035328
0.174227
0.186185
0.115328
0.152533
0.191057
0.253703
0.229601
0.346444
0.297836
0.384796
0.343509
0.359451
0.375752
0.393318
0.521143
0.391013
0.503135
0.413182
0.529081
0.413436
0.539025
0.454719
0.576418
0.550950
0.466115
0.493637
0.465563
0.535800
0.461207
0.416155
0.450875
0.428828
0.387015
0.427818
0.364255
0.435177
0.354569
0.350000
0.318976
0.298191
0.242784
0.227105
0.259131
0.234049
0.258387
0.241847
0.188355
0.172952
0.157790
0.105794
0.042711
0.153922
0.118683
0.099927
0.053036
0.076029
0.087985
0.086850
0.023648
0.027723
0.028916
0.100523
0.081923
-0.022676
0.056114
-0.051694
0.030969
0.011766
0.026477
-0.002127
0.085784
0.014509
-0.037039
0.011300
0.034579
0.072183
0.048328
0.153998
0.078211
0.102118
0.002097
-0.020100
-0.006656
0.080909
0.091212
-0.022071
0.071434
0.041769
0.017401
0.071572
0.018063
0.009463
0.050747
-0.012818
0.058398
0.087488
0.066033
-0.038406
0.030011
0.049358
0.000060
0.108702
-0.001463
0.079525
0.095937
0.085649
0.027428
0.098263
0.058483
0.084729
0.145142
0.128532
0.082522
0.145444
0.078209
0.030930
0.126654
0.036553
0.053903
0.092383
0.069025
0.045187
0.001730
0.102837
0.044001
0.023649
0.055215
0.023752
0.122354
0.055128
0.035396
0.100445
0.097203
0.140523
0.146059
0.020041
0.111400
0.112979
0.203135
0.145347
0.151163
0.148704
0.092924
0.134564
0.173982
0.202631
0.228980
0.215755
0.267414
0.230345
0.261744
0.248507
0.236300
0.265144
0.207137
0.242875
0.241211
0.258925
0.229853
0.163715
0.202679
0.251668
0.224232
0.168238
0.162106
0.174477
0.151721
0.103630
0.161098
0.191723
0.063166
0.111779
0.102194
0.109300
0.091511
0.119734
0.105005
0.115011
0.029396
0.113201
0.061753
0.080149
-0.002095
0.091758
0.072459
0.118064
0.107774
0.030880
0.001052
0.131523
0.133130
0.058404
0.068121
0.064761
0.031955
0.059992
0.247968
0.375124
0.697853
1.129193
1.311940
1.460796
1.441454
1.246158
0.909651
0.508595
0.178390
-0.067874
-0.206209
-0.227020
-0.172066
-0.037123
0.003023
0.029640
0.024101
0.084386
0.041971
0.092816
0.091449
0.034977
0.158003
0.063951
0.110139
0.080982
0.086431
