-0.034717
0.007677
-0.044012
-0.044068
-0.042058
-0.016349
0.060391
0.035371
-0.007240
0.039387
0.057874
-0.064873
0.024781
0.008281
0.025243
0.019869
-0.017746
0.010561
-0.006188
0.030494
-0.028971
0.094595
-0.022847
-0.007268
0.030059
0.104746
0.072693
0.086027
0.131404
0.127503
0.100122
0.117173
0.079936
0.107897
0.073696
0.184414
0.198774
0.150801
0.188448
0.171103
0.161673
0.162280
0.194512
0.188017
0.221636
0.198730
0.197513
0.139427
0.173088
0.176637
0.090016
0.175864
0.152438
0.083835
0.114169
0.124138
0.075184
0.136195
0.110759
0.010208
0.074152
0.102799
0.060087
0.023980
0.034725
0.008272
0.022780
0.019331
0.042722
0.080183
0.002316
-0.047387
0.122899
0.068226
0.041897
0.019056
0.049227
-0.038704
-0.030796
0.034338
0.055803
0.262830
0.503678
0.831454
1.197577
1.369072
1.380360
1.240464
0.997686
0.612083
0.299295
0.013483
-0.194979
-0.147047
-0.169812
-0.097475
-0.095051
0.043155
0.053778
-0.002977
0.051528
0.077116
0.061429
0.143811
0.175606
0.120653
0.155754
0.147584
0.080795
0.033261
0.091134
0.141158
0.162618
0.203964
0.229884
0.167727
0.170789
0.199841
0.259626
0.276193
0.294609
0.307554
0.293115
0.395690
0.340514
0.355373
0.377936
0.351958
0.420650
0.478317
0.499078
0.490508
0.579376
0.494659
0.495282
0.466746
0.498209
0.585951
0.572151
0.559721
0.591277
0.487068
0.565928
0.557216
0.561834
0.552497
0.556497
0.455267
0.436545
0.502646
0.421545
0.428804
0.472992
0.340951
0.344350
0.309802
0.362111
0.333191
0.296846
0.292060
0.130627
0.262994
0.180959
0.227621
0.200709
0.189346
0.174095
0.169674
0.174278
0.222755
0.124448
0.059149
0.184504
0.130182
0.153631
0.117251
0.071073
0.114414
0.083746
0.093514
0.022977
0.075373
0.112959
0.038023
0.141760
0.090734
0.072780
0.064343
0.040577
0.039555
0.119842
0.085919
0.143215
0.121465
0.052193
0.169271
0.080628
0.056229
0.134137
0.059943
0.088422
0.083443
0.076703
0.066833
0.094720
0.151793
0.093800
0.121947
0.029509
0.034238
0.155395
0.139614
0.022284
0.009210
0.101701
0.148844
0.090723
0.140256
0.076543
0.041744
0.052569
0.005763
0.111103
0.080400
0.074747
0.107027
0.045593
0.114258
0.112128
0.006836
0.116434
0.059004
0.078746
-0.014569
0.054373
0.160919
0.074421
0.071385
0.073586
0.198288
0.137516
0.058745
0.154095
0.199239
0.207211
0.157752
0.147530
0.132778
0.206958
0.246335
0.230161
0.193214
0.284438
0.209903
0.223166
0.240022
0.244232
0.293113
0.196321
0.213353
0.264532
0.221131
0.247269
0.276426
0.208812
0.200063
0.185959
0.220121
0.195442
0.028731
0.130933
0.193792
0.131338
0.091800
0.128567
0.191266
0.106402
0.120198
0.103579
0.165771
0.054356
0.082768
0.036705
0.125036
0.042185
0.100515
0.072968
0.070762
0.011451
0.085601
0.075041
0.079859
0.066355
0.030547
0.029311
0.205885
0.431354
0.719306
1.041501
1.220775
1.438864
1.330169
1.051546
0.778726
0.398724
0.159283
-0.060439
-0.229824
-0.192363
-0.107905
-0.078845
0.051734
0.049415
0.036283
0.060848
0.025021
0.045709
0.130291
0.117692
0.058136
0.060975
0.053297
0.051345
0.008135
0.122382
0.145928
0.155664
0.195725
0.044445
0.226386
0.167678
0.123783
0.222191
0.266423
0.294009
0.234889
0.318243
0.282815
0.385607
0.358586
0.343216
0.398927
0.430084
0.441213
0.494248
0.528851
0.586062
0.496108
0.485246
0.493226
0.537952
0.521315
0.524841
0.553772
0.446122
0.504414
0.489619
0.621085
0.482917
0.496957
0.467536
0.485520
0.530387
0.484466
0.377444
0.432726
0.313109
0.351215
0.351200
0.294631
0.330682
0.291215
0.205335
0.207226
0.203916
0.151774
0.171074
0.122754
0.178405
0.106238
0.150388
0.098725
0.037268
0.065690
0.051527
0.160886
0.123521
0.099334
0.028963
0.009256
0.016173
-0.044475
0.051983
0.069825
0.023667
0.036312
0.055278
0.019419
0.043318
-0.016188
-0.049627
0.020632
0.104115
-0.103571
0.100364
0.005217
0.029848
-0.006054
-0.009532
0.009025
0.025478
0.024783
-0.021475
-0.038820
-0.055015
-0.072846
0.031047
-0.080219
0.049596
0.026790
-0.028482
0.009226
0.011899
0.004862
-0.010518
-0.000876
-0.098098
0.009659
-0.027530
-0.035629
-0.056586
0.006551
-0.004418
-0.031618
-0.036524
0.013284
-0.001233
0.042446
-0.063027
0.067164
0.023242
0.000103
0.014624
0.069456
0.041952
-0.044791
-0.035914
0.005652
0.028898
-0.024329
0.019323
0.032209
0.011582
0.078006
-0.003853
0.066995
0.029920
-0.018972
0.053276
0.098382
0.049673
0.075000
0.098346
0.174593
0.094078
0.088777
0.137293
0.112122
0.126535
0.125966
0.151393
0.240182
0.084954
0.170060
0.155973
0.158332
0.149202
0.159286
0.169749
0.136083
0.065529
0.026338
0.008899
0.062434
0.098536
-0.043734
0.074851
0.048217
0.054839
0.027301
0.054148
-0.011711
0.001212
-0.108417
0.060912
-0.033087
-0.015974
-0.012583
-0.022229
-0.046645
-0.028607
-0.008593
0.011878
-0.057529
-0.029869
-0.013228
-0.003104
-0.171918
0.000286
0.179322
0.250075
0.556424
0.819065
1.167268
1.275189
1.280366
1.049260
0.776580
0.395486
0.041586
-0.181365
-0.299300
-0.317302
-0.226227
-0.193201
-0.043553
-0.032146
-0.038434
-0.055783
-0.015134
0.020822
-0.034156
0.005181
0.018199
-0.040430
0.046624
0.009862
0.099034
0.050836
0.075144
0.019989
0.004877
0.033532
0.040468
0.154019
0.151994
0.163013
0.131858
0.068709
0.215948
0.212370
0.231646
0.263249
0.228325
0.215966
0.313075
0.335468
0.316891
0.361831
0.382029
0.396044
0.413890
0.352041
0.440751
0.398915
0.506404
0.428136
0.436194
0.467895
0.481198
0.396933
0.476881
0.405372
0.438370
0.451661
0.476912
0.332597
0.300975
0.324392
0.335380
0.325324
0.253671
0.221219
0.273616
0.234147
0.172181
0.170863
0.201593
0.156626
0.168365
0.150055
0.090552
0.082760
0.074076
0.086767
0.065390
-0.046033
-0.000583
0.021046
0.123831
0.099190
0.017993
-0.032045
-0.003862
-0.054363
0.042410
-0.094589
-0.032060
-0.043521
-0.002647
0.019319
-0.030308
0.050344
-0.001999
-0.083439
-0.037948
-0.077027
-0.067514
-0.010591
-0.044697
-0.070534
-0.099332
-0.059237
0.016232
-0.043168
-0.040898
-0.030951
-0.077743
-0.014321
-0.031416
-0.022472
0.067505
0.044880
0.011057
-0.065249
-0.075130
-0.007049
-0.020208
-0.051230
-0.006175
0.010751
0.020331
-0.057619
-0.027763
-0.008277
-0.022370
0.017635
0.047298
-0.087138
-0.084599
-0.003175
-0.118121
-0.044255
0.010317
-0.047287
-0.035837
-0.094371
-0.012471
0.001166
-0.061510
0.085597
-0.054476
-0.054272
-0.009746
0.008861
-0.019835
0.008843
-0.028907
-0.055722
0.023327
-0.076261
-0.030188
-0.013914
0.047329
0.114992
0.097764
0.056074
0.074587
0.140089
0.104118
0.047394
0.204932
0.151013
0.128891
0.115018
0.114710
0.132878
0.238729
0.210550
0.152916
0.118492
0.166774
0.205283
0.155553
0.151978
0.098541
0.097367
0.115632
0.093629
0.051446
0.054980
0.104509
-0.001509
-0.067290
0.138589
0.044319
-0.036876
-0.066700
0.041386
-0.107378
-0.003813
0.014296
0.030242
-0.026742
-0.030212
0.031435
-0.015318
-0.055435
0.013306
-0.032408
-0.060849
0.018610
-0.005941
0.074697
0.206032
0.476266
0.748278
1.044194
1.308263
1.356793
1.173964
0.912437
0.598641
0.167007
-0.068910
-0.211041
-0.162409
-0.237274
-0.179621
-0.082655
-0.024551
-0.003330
0.023782
0.009641
0.066586
0.045212
-0.004380
0.066903
0.066030
0.090583
0.129776
-0.012096
0.060009
0.082719
0.077546
0.092828
0.157910
0.122060
0.191958
0.205310
0.198791
0.142639
0.207330
0.294413
0.257023
0.276470
0.305845
0.300304
0.343518
0.385664
0.453208
0.336158
0.459742
0.408901
0.476011
0.459992
0.441668
0.555172
0.536731
0.515702
0.552078
0.510697
0.486980
0.513400
0.495511
0.493323
0.566066
0.483763
0.461458
0.548356
0.459211
0.447895
0.468359
0.425434
0.380017
0.397300
0.409564
0.430803
0.282893
0.336578
0.297068
0.211472
0.278416
0.225294
0.220584
0.154181
0.240270
0.191787
0.152355
0.105099
0.126822
0.196576
0.091408
0.133794
0.078214
0.155657
0.092840
0.118598
0.085380
0.134493
0.051559
-0.007765
0.096225
0.075714
0.059127
0.071413
-0.001964
0.112107
0.078834
0.052580
0.022752
0.091533
0.020192
0.061157
0.105411
0.149956
-0.007942
0.080953
0.116392
0.058451
0.130198
0.000589
0.030029
0.021978
0.070319
0.033387
-0.035111
0.002300
0.092147
0.093507
-0.001995
0.047311
0.050440
0.115910
0.114543
0.043119
0.039583
0.054856
0.073598
0.066563
0.028842
0.126507
0.098088
0.077572
0.054418
0.043267
0.113330
0.108052
0.024665
0.094314
0.029483
0.053865
0.008560
0.143091
0.128199
0.100212
0.082488
0.110883
0.107604
0.140465
0.124988
0.101980
0.160895
0.098089
0.085270
0.120952
0.078000
0.203433
0.111225
0.140226
0.172467
0.155713
0.270267
0.196393
0.243950
0.185328
0.173611
0.225518
0.348936
0.220700
0.196377
0.233565
0.285698
0.221855
0.176834
0.302883
0.178981
0.129515
0.194064
0.261104
0.264129
0.147093
0.109129
0.151951
0.159686
0.119915
0.163420
0.160547
0.117652
0.119181
0.043174
0.120307
0.118432
0.136501
0.130968
0.158555
0.111643
0.127099
0.125300
-0.003328
0.097009
0.091754
0.067260
0.105144
0.099781
0.008922
0.058472
0.094614
0.262888
0.479426
0.822830
1.113714
1.369951
1.500000
1.388590
1.108120
0.799834
0.493129
0.098792
-0.074221
-0.235022
-0.119414
-0.086344
-0.023366
0.075371
0.063433
0.055373
0.114384
0.082465
0.127160
0.108017
0.047194
0.115729
0.120008
0.107253
0.133499
0.186233
0.148388
0.153904
0.206555
0.157354
0.176596
0.249586
0.276069
0.308543
0.296111
0.326609
0.301861
0.385312
0.373440
0.378194
0.371645
0.404125
0.318428
0.397985
0.381835
0.405662
0.405108
0.496957
0.490326
0.575162
0.500438
0.458046
0.530711
0.560926
0.507452
0.533836
0.602040
0.583388
0.551836
0.592589
0.582019
0.481023
0.500146
0.571950
0.474369
0.504718
0.497283
0.448439
0.384807
0.413964
0.348751
0.314031
0.323751
0.309259
0.278837
0.310979
0.216486
0.295342
0.242136
0.236164
0.244175
0.187772
0.151162
0.219573
0.099060
0.154199
0.178635
0.102522
0.146010
0.076415
0.076915
0.166367
0.160107
0.000940
0.140135
0.066538
0.065339
0.114952
0.036908
0.139907
0.120050
0.096634
0.036237
0.031236
0.034476
0.124905
0.139258
0.030375
0.066430
0.027999
0.058655
0.086919
0.030442
0.100285
0.088732
0.065681
0.085054
0.028049
0.051840
0.042312
0.089290
0.045984
0.076047
0.155881
0.102118
0.041109
0.065488
0.027281
0.073006
0.082208
0.029807
0.019010
0.086495
0.030069
0.031139
0.068562
0.085611
0.131923
0.004572
0.058917
-0.035298
0.057245
0.119232
0.088155
0.062356
0.061748
0.050243
0.045741
0.015331
0.085528
0.102602
0.020149
0.084942
0.044846
0.131701
0.032908
0.066909
0.034369
0.115119
0.038894
0.105330
0.092767
0.139170
0.195203
0.122347
0.104757
0.111994
0.154705
0.129110
0.132591
0.160672
0.191720
0.188159
0.235581
0.134361
0.236469
0.169938
0.162618
0.100452
0.198450
0.210952
0.107068
0.142224
0.126354
0.148604
0.074255
0.109415
0.029207
0.034991
0.086032
0.065020
0.065137
-0.022241
-0.004381
-0.006986
0.044069
-0.028356
0.082295
0.002520
0.042451
0.033161
0.013138
0.058603
0.030157
-0.071500
0.029218
0.092801
-0.024323
-0.007875
-0.034249
0.013965
0.141057
0.368642
0.655201
0.946968
1.161555
1.419935
1.269489
1.037040
0.678800
0.338692
0.054865
-0.132176
-0.231116
-0.331407
-0.253113
-0.061884
-0.109943
-0.030191
0.026720
-0.079095
0.010031
-0.035488
0.024098
0.051966
-0.001636
0.083848
0.024772
0.039729
0.092551
0.049835
0.003312
0.049457
0.111133
0.024120
0.173972
0.155653
0.131489
0.265407
0.148157
0.179576
0.127170
0.237949
0.212932
0.316446
0.227717
0.380912
0.357714
0.338248
0.327567
0.347989
0.406115
0.425024
0.459762
0.409701
0.417755
0.411361
0.392606
0.501730
0.446056
0.394862
0.530816
0.443376
0.433691
0.453099
0.392167
0.415212
0.318609
0.384441
0.368323
0.341329
0.316851
0.293351
0.330194
0.247704
0.233992
0.212558
0.132630
0.214785
0.052197
0.141192
0.111123
0.124237
0.055569
0.087353
0.076587
0.111612
-0.013859
0.047876
0.026392
0.017435
-0.051902
-0.046618
-0.054489
0.034918
0.036304
-0.059381
-0.006038
0.010443
-0.009014
-0.084407
-0.015948
-0.105968
-0.033361
-0.045381
-0.071049
-0.098857
-0.127991
-0.089788
-0.036347
-0.053484
-0.101582
-0.127973
-0.035655
-0.138697
-0.002826
-0.076352
-0.032706
-0.104508
-0.106094
-0.118534
-0.102269
-0.081066
-0.080727
-0.004228
-0.037966
-0.093067
-0.034006
-0.037772
-0.062856
-0.060955
-0.089630
-0.145271
-0.038383
-0.006212
-0.123845
-0.019633
-0.035380
-0.043976
-0.035821
-0.050340
-0.148990
-0.059665
-0.086559
-0.113084
-0.143948
-0.049743
-0.117581
-0.101281
-0.094203
-0.040386
-0.042734
-0.171393
-0.089919
-0.009763
-0.016378
-0.057559
0.037965
-0.056085
-0.053283
-0.066512
-0.033677
0.042213
-0.033619
0.022378
-0.016466
-0.058802
0.002135
-0.016043
0.082999
0.021223
0.085971
0.055623
-0.013372
0.025180
0.034238
0.087250
0.126095
0.037781
0.104178
0.110168
0.065263
0.172590
0.072955
0.106442
0.096468
-0.032674
0.082289
0.010354
0.029278
0.026693
-0.018904
0.032762
-0.011206
0.000561
-0.040316
0.011979
-0.055911
-0.015210
-0.132917
-0.022943
-0.076048
-0.039940
-0.094756
-0.066136
0.005005
-0.010889
-0.004105
-0.045067
-0.110204
-0.124842
-0.109377
-0.118372
-0.081136
-0.113013
0.040922
0.249400
0.503079
0.771400
1.116550
1.275286
1.190043
1.056618
0.772889
0.391948
0.107665
-0.137729
-0.323477
-0.323047
-0.280818
-0.208334
-0.108941
-0.034426
-0.081862
-0.058053
-0.032390
-0.130140
-0.018110
-0.014056
-0.026419
0.035324
-0.055088
0.017216
-0.076117
-0.064271
-0.014270
-0.059802
0.044846
0.073983
0.091576
0.115643
0.075428
0.069642
0.202725
0.137081
0.140659
0.160569
0.147708
0.242701
0.197394
0.286965
0.226754
0.295427
0.303611
0.317128
0.378138
0.325569
0.405861
0.315859
0.390163
0.423662
0.433292
0.333142
0.388827
0.418807
0.473146
0.436268
0.420383
0.362250
0.435259
0.433778
0.312979
0.394076
0.376431
0.359159
0.228066
0.321844
0.315968
0.290179
0.240524
0.187477
0.198679
0.225076
0.150844
0.173333
0.130772
0.112984
0.116637
0.066877
0.159899
0.053331
0.113737
0.016912
0.136612
0.008698
0.092949
-0.038742
0.002717
-0.012240
0.034247
0.003570
-0.032888
-0.092205
0.028625
0.075282
0.009249
-0.022511
-0.045808
0.003341
-0.055854
-0.053660
-0.049005
-0.109484
-0.104589
0.007976
-0.104923
-0.085377
0.011298
-0.062504
-0.015474
-0.129085
-0.034731
-0.035583
-0.086300
0.082875
-0.004551
-0.067683
-0.011671
0.037780
0.027902
0.021662
-0.021241
-0.077923
-0.060552
-0.019485
-0.013413
-0.010089
0.010118
0.023035
-0.029135
0.006310
0.008075
-0.052012
-0.045000
-0.028984
0.020722
-0.060533
-0.060377
-0.048730
-0.105623
-0.042259
-0.054596
-0.076893
0.014237
0.006555
-0.001604
0.012682
0.025369
-0.000041
0.017061
-0.057978
0.017946
0.049559
0.003579
-0.020329
0.025732
0.086119
0.079590
0.115010
-0.000477
0.070494
0.048521
0.151310
0.077336
0.152708
0.155204
0.117176
0.024875
0.103857
0.176026
0.131888
0.248437
0.162306
0.174361
0.143067
0.248050
0.086565
0.164025
0.127142
0.145665
0.097073
0.102155
0.139257
0.125680
0.049714
0.137845
0.096385
0.038821
0.068225
-0.002917
0.098628
0.023050
0.041399
-0.052267
-0.012437
0.071008
0.022477
-0.015676
0.092376
0.027917
-0.007044
0.091186
0.051020
-0.060168
0.050467
0.033469
-0.050599
-0.071205
0.002215
0.052604
0.221439
0.435345
0.723717
1.018687
1.327895
1.364676
1.239823
0.960585
0.611454
0.314286
0.023196
-0.161945
-0.275489
-0.150416
-0.143935
-0.021182
-0.062594
-0.011357
0.002154
0.039270
0.101831
0.020976
0.064841
0.097442
0.054292
0.095962
0.110100
0.020795
0.070801
0.152219
0.137439
0.133167
0.098663
0.218395
0.150385
0.139209
0.241654
0.156358
0.312790
0.161915
0.241656
0.271047
0.328241
0.308982
0.333730
0.369248
0.301428
0.358981
0.365006
0.456958
0.472905
0.394125
0.479178
0.567425
0.464038
0.551749
0.447440
0.529909
0.564990
0.593186
0.490352
0.554839
0.490415
0.532726
0.515507
0.423248
0.463627
0.481079
0.353171
0.469276
0.386032
0.405808
0.379284
0.387196
0.360741
0.336060
0.263303
0.196668
0.187272
0.217939
0.179397
0.228657
0.205723
0.173766
0.079602
0.170960
0.090258
0.065431
0.099782
0.140836
0.110179
0.056652
0.060318
0.177038
0.045614
0.059032
0.072447
0.090745
0.055972
0.040589
0.067433
0.066510
0.069141
0.083750
0.014196
0.000147
0.023917
-0.083914
0.080568
0.086246
0.011101
0.064108
0.055991
-0.022901
0.108269
0.047527
0.009649
-0.002389
0.005976
0.020813
0.016628
0.121060
0.008681
0.042925
0.084091
0.048943
0.023669
0.086138
0.075972
0.000309
0.024023
-0.018495
-0.000751
-0.016392
0.057967
0.084280
-0.015083
0.061691
0.050492
0.050462
0.128474
0.148835
-0.025618
0.101600
-0.018211
0.038272
-0.071939
0.060200
0.060520
0.127293
-0.033335
0.133022
0.015606
0.011419
0.117167
0.046259
0.056607
0.051239
0.108172
0.046083
-0.010387
0.058281
0.079489
0.072959
0.082755
0.122967
0.121064
0.148211
0.196604
0.192746
0.182893
0.141650
0.219690
0.212821
0.208639
0.143784
0.097003
0.179005
0.215600
0.172464
0.128018
0.228798
0.145330
0.196975
0.094554
0.083585
0.118889
0.126551
0.169326
0.085855
0.100838
0.061318
0.006133
0.121546
0.068328
-0.031015
0.074817
0.122851
0.032742
0.032264
0.034361
0.054744
0.059552
0.068621
0.045209
0.015622
0.039827
0.108860
0.026489
-0.015414
-0.002123
0.016776
0.030842
0.089312
0.165661
0.431307
0.663487
1.016214
1.225531
1.370745
1.297527
0.980772
0.724503
0.398220
0.022327
-0.156142
-0.309024
-0.167381
-0.128405
-0.091086
-0.077837
-0.024068
0.012911
0.081165
0.061997
0.062154
0.124364
0.044018
-0.031477
0.001468
0.027639
0.128291
0.064640
0.083611
0.141313
0.095911
0.082697
0.126246
0.033723
0.102533
0.213832
0.172002
0.229754
0.246127
0.233842
0.284041
0.328286
0.287215
0.278223
0.317673
0.291993
0.276940
0.304772
0.525750
0.400819
0.456954
0.398756
0.477644
0.464589
0.445135
0.465175
0.379570
0.547784
0.493321
0.489449
0.399791
0.456019
0.502219
0.404182
0.378239
0.372343
0.400080
0.428797
0.341433
0.256825
0.363140
0.184355
0.367280
0.282491
0.333821
0.203772
0.271327
0.132307
0.206800
0.069870
0.160806
0.097931
0.119821
0.119774
0.043670
0.062195
0.091958
0.092682
0.039750
0.051042
0.006189
-0.056703
-0.032218
0.017725
-0.028309
-0.010032
-0.022331
0.043182
-0.025598
-0.032517
-0.036425
-0.028473
-0.013034
-0.022424
-0.003334
-0.075149
-0.087916
-0.050155
0.073772
-0.098347
-0.149109
-0.004757
-0.085815
-0.076004
-0.073399
-0.021455
-0.104842
-0.050869
-0.054656
-0.038546
-0.003964
0.038681
-0.075093
-0.058751
0.028715
-0.007448
-0.024742
-0.032073
-0.027141
-0.002280
-0.087460
-0.045304
-0.071667
-0.048186
-0.134766
-0.108423
-0.022902
-0.120501
-0.042276
-0.074111
-0.112247
-0.053902
-0.007206
-0.035831
-0.081509
-0.066310
-0.077000
-0.019371
-0.006743
-0.121605
0.002921
-0.073686
-0.104113
-0.114754
0.018765
-0.011505
-0.026039
-0.031769
-0.009725
0.007439
0.036341
-0.004633
-0.052509
-0.002981
0.048023
0.023071
-0.001204
0.136652
0.037918
0.024791
0.005358
0.058759
0.039031
0.099280
0.117872
0.115657
0.059925
0.147940
0.126383
0.034641
0.096331
0.040354
0.112969
0.021483
0.039631
-0.072076
-0.035245
-0.020695
-0.000934
0.005711
-0.000982
0.048768
-0.050480
-0.108168
-0.018636
-0.066145
-0.077766
-0.130944
-0.093646
-0.098465
-0.053756
-0.040182
-0.065886
-0.080499
-0.039786
-0.145004
-0.083122
-0.116500
-0.130539
-0.150902
-0.140002
-0.135664
-0.117385
0.002313
0.209851
0.415228
0.823372
0.997600
1.258976
1.325938
1.040042
0.708401
0.412127
0.105481
-0.214837
-0.387544
-0.388471
-0.319821
-0.248449
-0.152119
-0.109840
-0.086194
-0.056751
-0.091064
-0.098010
-0.023301
-0.081554
-0.060680
-0.061669
-0.079263
-0.055000
-0.078946
0.001736
0.010388
-0.061406
-0.051831
-0.012249
0.040835
0.033389
0.113281
0.134948
0.098710
0.132320
0.084089
0.214165
0.134569
0.211554
0.202002
0.212195
0.300654
0.282429
0.314136
0.302628
0.355185
0.238746
0.369777
0.330398
0.421717
0.333435
0.443350
0.361216
0.372026
0.400030
0.392181
0.347314
0.349295
0.368733
0.349733
0.329687
0.327380
0.223310
0.311401
0.323057
0.287606
0.288797
0.183825
0.260986
0.256357
0.195612
0.246199
0.148484
0.107397
0.129158
0.095184
0.108250
0.086876
0.055352
0.029767
0.061159
0.074634
-0.049916
-0.109290
-0.079574
-0.030058
-0.082730
-0.028073
-0.041015
-0.063716
-0.108203
-0.102500
-0.039488
-0.054932
-0.059460
-0.137031
-0.053278
-0.055833
-0.042975
-0.027724
-0.118716
-0.070117
-0.044745
0.013102
-0.074998
-0.017526
-0.027463
-0.085050
-0.018480
-0.133947
-0.090925
-0.100723
-0.053766
-0.030713
-0.133171
-0.098572
-0.045767
-0.062555
-0.142250
-0.163283
-0.067360
-0.061561
-0.099000
-0.102514
-0.120090
0.004915
-0.139221
-0.078237
-0.085816
-0.103847
-0.073744
-0.063774
-0.096972
-0.097862
-0.067337
-0.087222
-0.073216
-0.006391
-0.116360
-0.093418
-0.131330
-0.048237
-0.064166
-0.096190
-0.103394
-0.073720
-0.044162
-0.071301
-0.057519
-0.122686
-0.066155
-0.076264
-0.075922
-0.049677
-0.034329
-0.060844
0.003830
-0.037157
-0.118335
0.016526
0.004399
0.009123
0.054224
0.069337
0.028608
0.043508
0.148816
0.139517
0.070807
0.085280
0.135070
0.077596
0.132464
0.202384
0.077336
0.086590
0.146101
0.097901
0.148752
0.139663
-0.026326
-0.000913
0.033701
0.056648
0.052876
0.052667
0.007610
0.017962
0.009172
-0.055380
-0.015487
0.003345
-0.085281
-0.016227
-0.085854
0.031103
-0.058401
-0.126469
-0.075557
-0.076239
0.014249
-0.043129
-0.086934
0.020559
-0.054106
-0.113998
-0.074782
-0.112576
-0.037533
0.050914
0.166968
0.467071
0.759996
1.118057
1.252164
1.279291
1.138098
0.908570
0.487045
0.220984
-0.102512
-0.229755
-0.353864
-0.222817
-0.147637
-0.106375
-0.072686
-0.055062
0.043198
-0.077968
-0.040805
0.013013
-0.004285
-0.066196
0.013816
0.019634
-0.007733
-0.002075
0.004504
0.033380
0.088791
0.105564
0.064905
0.102114
0.075654
0.134989
0.236909
0.101745
0.172323
0.215107
0.206635
0.200267
0.276608
0.192229
0.335656
0.332347
0.312680
0.382123
0.348730
0.441274
0.359589
0.510076
0.467237
0.475284
0.453129
0.472755
0.533956
0.459430
0.485895
0.403857
0.458928
0.430179
0.474801
0.425676
0.504559
0.385637
0.382278
0.420452
0.469008
0.341352
0.388005
0.368304
0.274331
0.349273
0.263192
0.307913
0.257918
0.255838
0.246659
0.131813
0.105337
0.108650
0.118188
0.226477
0.144153
0.145862
0.095543
0.023826
0.052033
0.104800
0.061176
0.036547
0.107176
0.035020
0.085931
0.115248
0.061467
0.054048
-0.028430
-0.010224
0.040603
-0.025683
0.106600
-0.053822
0.030287
0.053410
0.033939
0.018772
0.059690
-0.016094
0.045826
-0.036274
0.012467
0.003721
0.090355
0.019408
0.077281
0.010452
-0.008073
0.017478
-0.007162
0.009268
0.078968
0.104730
0.048498
-0.008649
-0.008679
0.025082
0.017722
0.093698
-0.022248
0.094843
0.048139
0.090050
0.004122
-0.035530
0.000158
0.065772
0.108088
0.062758
0.102711
0.059650
0.062117
0.094220
-0.026010
0.079320
0.061366
0.045722
0.054551
0.087348
0.054343
0.030471
0.036681
0.092943
0.017874
0.013600
0.026766
0.088347
0.045465
0.124774
0.147345
0.102258
0.082449
0.149908
0.103462
0.080450
0.243693
0.239441
0.179354
0.138681
0.121490
0.184581
0.197233
0.173710
0.181851
0.207678
0.261410
0.192754
0.177301
0.228563
0.154195
0.179155
0.111251
0.160145
0.140027
0.206027
0.154960
0.196984
0.159933
0.145753
0.133599
0.129840
0.033683
0.140809
0.139831
0.084341
0.074129
0.027699
0.079015
0.005354
0.070209
-0.076349
0.149062
0.094724
0.002192
0.037793
0.013444
0.077063
0.070635
0.003987
0.100159
0.009914
0.051816
0.166754
0.266579
0.455916
0.748057
1.107638
1.272219
1.313943
1.202375
1.019928
0.756236
0.389449
0.054070
-0.151186
-0.194899
-0.215707
-0.142593
-0.052790
-0.012398
0.040709
-0.019517
0.082551
0.055453
0.146754
0.077811
0.050081
0.097444
0.055437
0.126081
0.132238
0.090428
0.128057
0.092201
0.185913
0.167813
0.168649
0.192084
0.198447
0.243364
0.244946
0.236978
0.313291
0.288567
0.281093
0.313662
0.362369
0.285979
0.412351
0.393570
0.469893
0.317502
0.499101
0.446090
0.515456
0.499575
0.530959
0.451193
0.482655
0.514368
0.507128
0.544256
0.596734
0.504920
0.502694
