0.063089
0.073839
-0.001710
-0.048824
0.020978
0.009983
0.060580
-0.010296
0.037758
-0.074126
0.024501
-0.023283
0.028142
-0.002881
0.026705
-0.063352
0.000169
0.009797
0.122394
0.018647
0.006993
0.019256
-0.020898
0.058573
0.048324
0.131378
0.128987
0.194281
0.139276
0.146814
0.151388
0.086378
0.120134
0.160876
0.202692
0.269480
0.139640
0.222720
0.195495
0.226187
0.295943
0.234348
0.213832
0.211071
0.231918
0.192981
0.156050
0.163694
0.187869
0.171103
0.129522
0.110088
0.161602
0.022510
0.031119
0.108925
0.072652
0.076471
-0.077072
-0.000135
0.118029
0.099411
0.061420
0.059189
0.010036
0.065680
0.033173
0.037334
0.091698
0.048437
0.080959
0.067774
0.079522
0.224446
0.462217
0.796939
1.186250
1.433397
1.479417
1.340334
1.131833
0.754119
0.362012
0.071526
-0.140536
-0.209845
-0.151957
-0.125399
-0.041237
0.101564
0.086533
0.125401
0.083025
0.109123
0.160142
0.027571
0.182289
0.174073
0.191459
0.149070
0.229387
0.198851
0.207182
0.231293
0.308367
0.206533
0.270766
0.311080
0.284386
0.298876
0.286813
0.331348
0.400870
0.426264
0.415303
0.498059
0.425835
0.480655
0.499725
0.576387
0.497496
0.613509
0.521642
0.570777
0.602794
0.509147
0.646413
0.563599
0.628212
0.572460
0.511625
0.570744
0.579878
0.534147
0.578680
0.505483
0.499347
0.487076
0.468480
0.438299
0.509344
0.435107
0.399564
0.410449
0.376221
0.363278
0.313241
0.197413
0.251086
0.198127
0.234533
0.178063
0.219685
0.207479
0.236490
0.096601
0.195959
0.083740
0.168262
0.168812
0.123305
0.157873
0.125139
0.078180
0.138581
0.140551
0.041080
0.113164
0.099535
0.121078
0.127355
0.103003
0.125340
0.114288
0.098320
0.018480
0.051805
0.017739
0.122053
0.085327
0.061532
0.081002
0.059413
0.048590
0.109292
0.042317
0.183566
0.064965
0.052294
0.050679
0.051111
0.027943
0.145501
0.104993
0.007426
0.075492
0.087648
0.055914
0.078410
0.103676
0.075091
0.066221
0.133644
0.108580
0.066534
0.066097
0.116653
0.160551
0.145736
0.070603
0.148981
0.060144
0.123099
0.042606
0.142295
0.110277
0.102858
0.092215
0.180720
0.215342
0.151823
0.202496
0.154125
0.195504
0.124900
0.242442
0.183434
0.199977
0.292473
0.222642
0.269296
0.269824
0.213952
0.332824
0.235216
0.234819
0.214686
0.218264
0.286650
0.230966
0.180033
0.212354
0.262116
0.185428
0.229186
0.248855
0.144119
0.127623
0.144204
0.106950
0.196621
0.126199
0.123930
0.098864
0.158878
0.118166
0.146872
0.084730
0.178522
0.083158
0.025323
0.038117
0.144509
0.065705
0.074112
0.074911
0.064635
0.095649
0.247092
0.499362
0.862366
1.114547
1.444337
1.500000
1.401909
1.060882
0.764224
0.315024
0.068087
-0.060865
-0.056265
-0.077590
-0.070981
0.056431
0.058009
0.102094
0.039306
0.097954
0.115804
0.183269
0.106425
0.133607
0.133454
0.168804
0.181701
0.177290
0.182624
0.240954
0.224881
0.256592
0.284681
0.206789
0.277625
0.359710
0.399670
0.328006
0.422407
0.344268
0.399487
0.443277
0.520090
0.528051
0.534808
0.420226
0.512421
0.579563
0.625815
0.635830
0.547695
0.583974
0.575957
0.562102
0.581451
0.586938
0.490398
0.566613
0.514729
0.565731
0.550903
0.597082
0.476009
0.505222
0.378264
0.517212
0.416700
0.342399
0.350157
0.331159
0.359350
0.271923
0.267731
0.314309
0.237172
0.295785
0.206140
0.253552
0.146274
0.194468
0.158760
0.078889
0.149517
0.153690
0.117648
0.136099
0.096764
0.161764
0.124833
0.130049
0.075787
0.054118
0.018172
0.135144
-0.021032
0.066152
-0.000420
0.024064
0.021837
0.033094
0.037207
-0.004650
-0.005416
0.119409
0.017954
-0.000479
-0.061777
0.052228
0.020890
-0.047298
0.004725
0.056890
0.062643
-0.013008
0.046585
0.069708
0.046390
0.044830
0.032241
0.087574
0.002263
-0.030759
0.034791
0.075966
0.022868
0.030331
0.076294
-0.051395
0.015727
-0.030293
-0.060007
0.029598
-0.000321
0.084645
-0.015714
0.012810
0.011630
0.062654
-0.023173
-0.020934
-0.025580
0.087585
0.001220
-0.012690
0.051135
0.028274
0.135577
0.110111
0.103617
0.091223
0.066773
0.138933
0.158069
0.155797
0.169228
0.182854
0.144502
0.193350
0.197405
0.103447
0.203764
0.172529
0.148155
0.115477
0.179019
0.135310
0.185309
0.166549
0.107502
0.009861
0.076402
0.119216
0.066454
0.050811
0.014021
0.123265
0.096379
0.067541
-0.045932
0.040348
0.039029
0.080974
0.024007
0.061160
-0.027563
0.030462
-0.007837
-0.129530
-0.074426
-0.008313
-0.006086
0.017292
0.043868
0.067938
0.037353
0.267051
0.504541
0.863559
1.188886
1.300735
1.352621
1.195548
0.823677
0.480029
0.121320
0.026639
-0.290342
-0.325059
-0.264349
-0.136783
-0.091299
-0.021965
-0.004806
0.044117
0.005187
0.045368
0.039968
0.029971
-0.007725
0.004139
-0.033779
0.116013
0.045785
0.083565
0.127839
0.111241
0.203025
0.063815
0.163305
0.152535
0.263049
0.221305
0.290310
0.277050
0.197415
0.282668
0.306976
0.323653
0.341774
0.353641
0.585968
0.424878
0.429701
0.488532
0.482186
0.431738
0.520286
0.445597
0.468314
0.536639
0.500715
0.471406
0.468574
0.478491
0.528062
0.492229
0.421782
0.424265
0.431644
0.376838
0.310569
0.287444
0.338755
0.286963
0.303519
0.247246
0.303541
0.216964
0.195922
0.179374
0.157606
0.100020
0.088082
0.072529
0.013097
0.056994
0.056481
0.070671
-0.001869
-0.072825
-0.062554
-0.022994
-0.072965
0.075253
-0.027036
0.019507
-0.045848
-0.042750
-0.065772
0.000645
-0.029223
0.036834
-0.038813
-0.090967
-0.114731
-0.025688
-0.008921
-0.136254
-0.054198
-0.048202
0.010128
-0.023065
-0.060993
-0.087720
-0.056707
-0.049829
0.030005
-0.041939
0.004981
-0.050069
-0.069498
-0.010660
-0.043882
-0.088288
0.021062
-0.008083
-0.005142
-0.085878
-0.057779
-0.061811
-0.004242
0.043532
-0.050074
-0.084168
-0.028872
0.003787
-0.064825
-0.047110
-0.073909
-0.049412
-0.051720
-0.098918
-0.099581
-0.148553
-0.043928
-0.033763
-0.020948
0.053858
0.022678
-0.046443
0.070811
0.113317
0.013364
0.098849
0.083524
-0.020290
0.080675
0.072017
0.066264
0.073875
0.127945
0.188578
0.025046
0.125190
0.158978
0.054837
0.195672
0.065102
0.095078
0.156781
0.166694
0.111365
0.106732
0.071844
0.042260
0.088947
0.078568
0.019280
-0.001823
0.085514
0.044306
0.073985
0.138931
0.001372
0.069145
0.069365
0.057756
0.025894
-0.008832
-0.003482
-0.110115
-0.014130
0.023850
-0.102412
0.032156
0.023202
-0.016381
-0.129730
0.010720
0.092164
0.280458
0.530539
1.000584
1.157652
1.285168
1.351084
1.098006
0.764164
0.453279
0.008526
-0.153623
-0.225066
-0.185385
-0.171523
-0.209940
-0.082716
0.009219
-0.010754
-0.016590
0.007300
0.023649
-0.018216
-0.002149
0.148233
0.050883
0.059046
0.021113
0.064769
0.120819
0.221686
0.126561
0.176593
0.162067
0.197626
0.278520
0.215671
0.298680
0.291882
0.340000
0.369143
0.373016
0.375113
0.467124
0.451185
0.497398
0.395059
0.458190
0.495142
0.432039
0.643275
0.556529
0.479801
0.465147
0.540483
0.537232
0.517181
0.456125
0.557722
0.474625
0.459624
0.473451
0.482116
0.358184
0.443311
0.452778
0.370644
0.486016
0.334442
0.313074
0.273590
0.320358
0.238423
0.209305
0.201961
0.256789
0.312264
0.123672
0.146808
0.145385
0.148203
0.144576
0.123432
0.103556
0.063392
0.129360
0.031921
0.107701
0.074526
0.058128
0.101847
-0.006679
0.104918
0.057676
0.081280
0.008938
-0.003382
0.073700
-0.012868
0.040234
0.085493
-0.001042
0.020641
0.017873
-0.025837
-0.026536
-0.044829
0.049430
0.026367
0.098972
0.032227
0.109812
0.076280
0.037841
0.037590
0.108598
0.047821
0.019723
0.039758
0.004204
0.094039
-0.022187
0.119312
-0.017609
0.048624
0.030316
-0.007272
0.024823
0.066160
0.023576
0.068006
0.016291
0.073934
0.017855
0.057862
0.032315
-0.001067
0.059790
0.032359
0.106124
0.033865
0.051027
0.077961
0.030297
0.023675
0.139405
0.134100
0.075562
0.076383
0.122869
0.141969
0.132536
0.209053
0.184933
0.199248
0.237394
0.180313
0.178884
0.232210
0.281384
0.296107
0.246936
0.264257
0.267038
0.205824
0.277105
0.254656
0.117811
0.269956
0.227296
0.243881
0.106322
0.051842
0.102327
0.187186
0.211236
0.076465
0.067946
0.050410
0.206316
0.094375
0.112860
0.061737
0.057828
0.073017
0.123913
0.092201
0.075872
0.080028
0.036207
0.085104
0.058758
0.079527
0.022474
0.098847
0.249339
0.357724
0.650342
0.984374
1.322653
1.443830
1.462607
1.206403
0.942692
0.403273
0.086537
-0.045616
-0.166013
-0.192785
-0.123672
0.075376
0.066638
0.220076
0.101316
0.186477
0.098967
0.055678
0.104371
0.171404
0.052329
0.187331
0.165613
0.190910
0.184474
0.157276
0.280522
0.185159
0.254552
0.293054
0.370192
0.419017
0.402761
0.377997
0.351671
0.405935
0.429127
0.395192
0.473065
0.479671
0.509773
0.468919
0.537141
0.600743
0.585254
0.576981
0.506905
0.574381
0.614482
0.582529
0.607684
0.575779
0.622638
0.614790
0.608539
0.559811
0.605421
0.512948
0.537549
0.480948
0.509861
0.421403
0.489879
0.460619
0.390337
0.469475
0.376218
0.408183
0.379223
0.331771
0.283334
0.319638
0.284134
0.290689
0.198388
0.308272
0.154554
0.228442
0.181993
0.112693
0.220881
0.151771
0.162319
0.083627
0.128629
0.184506
0.155180
0.102841
0.113638
0.033662
0.085075
0.080736
0.127928
0.166426
0.102826
0.116134
0.095917
0.113259
0.135772
-0.012746
0.040124
0.084296
0.164754
0.122987
0.146614
0.043146
0.019872
0.096943
0.114727
0.095964
0.070478
0.079519
0.052844
0.083930
0.070772
0.091714
0.173710
0.115200
0.096893
0.150831
0.006616
0.069929
0.114539
0.043846
0.133151
0.096194
0.095150
0.085976
0.194361
0.126964
0.172515
0.009181
0.124144
0.050631
0.119866
0.119350
0.115192
0.115474
0.129142
0.172857
0.147368
0.204676
0.113589
0.088598
0.087169
0.201523
0.208814
0.167640
0.220247
0.244371
0.222448
0.337003
0.187660
0.235558
0.253243
0.299962
0.283110
0.205788
0.264752
0.215826
0.171159
0.289171
0.255237
0.259665
0.205401
0.191068
0.200509
0.170995
0.153234
0.204314
0.183588
0.123598
0.104809
0.155480
0.097599
0.158752
-0.050882
0.087701
0.122207
0.135878
0.084547
0.124563
0.017961
0.129902
0.109795
0.063586
0.089409
0.119142
0.002092
-0.005423
0.146995
0.170680
0.449338
0.776803
1.177589
1.380632
1.427135
1.342920
1.164824
0.706762
0.426103
0.074986
-0.200484
-0.190252
-0.250986
-0.117652
0.064331
0.003608
-0.034684
0.061256
0.110049
0.071717
0.134449
0.130584
0.091537
0.151318
0.137834
0.225641
0.221989
0.117788
0.132861
0.177702
0.265858
0.173283
0.212038
0.272993
0.273054
0.343809
0.297335
0.360153
0.397980
0.352584
0.447857
0.375693
0.462577
0.543103
0.496606
0.572136
0.548728
0.552246
0.512117
0.566607
0.598990
0.585039
0.533119
0.609129
0.549305
0.575894
0.593806
0.514537
0.531562
0.437893
0.457785
0.492129
0.479720
0.399338
0.381603
0.388204
0.389220
0.386060
0.369422
0.279555
0.295592
0.351346
0.302942
0.169158
0.155725
0.229762
0.115246
0.116565
0.167806
0.129146
0.106948
0.060393
0.105536
0.096242
0.050545
0.062589
-0.020375
0.048701
-0.031251
0.026783
-0.022320
0.073563
0.103714
0.100430
0.030210
0.002878
0.008472
0.080281
-0.035044
0.028061
-0.040836
0.035623
-0.003423
-0.032013
0.014381
0.032401
0.020428
-0.037717
0.007446
0.001315
-0.037898
0.025615
-0.000232
-0.008819
0.041739
-0.041569
-0.059114
-0.003614
0.062025
0.047387
-0.074457
0.027124
0.000466
-0.057952
-0.010608
-0.044705
-0.129525
-0.016551
-0.047242
-0.096758
0.031959
-0.089913
-0.005296
-0.066976
-0.040643
-0.025709
-0.039466
-0.013976
0.079763
0.024992
0.016267
-0.018952
0.044864
0.032915
0.096380
0.049540
0.010308
0.014000
0.100981
0.150416
0.065492
0.024805
0.143576
0.109302
0.187939
0.089498
0.127326
0.157967
0.152420
0.105554
0.166985
0.150485
0.185069
0.121019
0.129554
0.146225
0.082790
0.136988
0.044910
0.036761
0.134033
0.085513
0.008780
-0.028365
-0.042112
-0.039348
-0.065062
-0.015057
0.029838
-0.044888
-0.004283
-0.064737
-0.042982
-0.027187
-0.021215
-0.039958
-0.022829
-0.035512
-0.059345
-0.097282
0.016306
-0.122662
-0.101751
0.073334
0.141273
0.411790
0.593637
1.132570
1.238208
1.344532
1.247217
0.903730
0.486448
0.060360
0.005691
-0.236104
-0.327802
-0.190752
-0.265767
-0.066847
-0.104995
0.056766
0.061740
-0.003031
-0.027942
0.011202
0.054256
-0.020854
-0.086355
0.025174
-0.001636
0.008225
0.048036
0.131903
0.062587
0.050981
0.086027
0.019500
0.220904
0.109227
0.181945
0.187750
0.241765
0.230880
0.267190
0.226438
0.321132
0.322553
0.403276
0.350727
0.400758
0.417770
0.410239
0.490308
0.418164
0.507089
0.536276
0.433677
0.424684
0.432585
0.505823
0.447606
0.428598
0.419760
0.448680
0.383092
0.363110
0.300237
0.362799
0.340545
0.223301
0.338738
0.164046
0.260041
0.195819
0.164922
0.159893
0.167198
0.117334
0.084976
0.053560
-0.036467
0.092114
-0.048886
-0.038474
-0.066426
-0.028463
0.041920
-0.058629
0.022702
0.016253
-0.084579
-0.084449
-0.063691
-0.047572
-0.042361
0.022289
-0.006984
-0.153462
-0.105017
-0.027399
-0.075389
-0.033133
0.002851
-0.079560
-0.078007
0.018772
-0.137543
-0.076297
-0.036247
-0.105094
-0.044690
-0.006789
-0.115424
-0.154164
-0.067454
-0.018341
-0.078857
-0.127529
-0.132751
-0.163834
-0.012706
-0.072282
-0.085623
-0.012586
-0.054639
-0.073979
-0.098405
-0.137824
-0.119353
-0.131202
-0.096997
-0.160964
-0.062714
0.002503
-0.053374
-0.007992
-0.081873
-0.057474
-0.124238
-0.156272
-0.063225
-0.068689
0.014527
-0.113831
0.012156
-0.076708
0.044847
-0.112614
-0.049314
0.028072
0.019777
0.038343
-0.025858
-0.047240
0.043385
-0.021998
0.079612
0.064398
0.098913
0.106216
0.066056
0.151085
0.027634
0.113546
0.101270
0.119079
0.116201
0.147799
0.122090
0.041208
0.002507
0.070018
-0.026237
0.099277
-0.017880
0.003058
0.010166
0.054967
0.054747
-0.002218
0.016095
-0.032312
0.051356
-0.039656
-0.028601
-0.035884
-0.036144
-0.066120
-0.118273
-0.107914
-0.071540
-0.058006
-0.040839
-0.053066
-0.062830
-0.054118
-0.084480
0.102079
0.191723
0.456514
0.767108
1.189773
1.246259
1.334372
1.200014
0.988804
0.462930
0.239899
-0.192164
-0.246073
-0.251979
-0.228566
-0.190845
-0.134640
-0.079519
-0.018010
-0.026002
0.016835
-0.036222
-0.008896
-0.003749
0.055591
0.036308
0.017296
0.050013
0.053926
0.037658
0.064582
0.134568
0.120873
0.118664
0.193746
0.214652
0.199724
0.270825
0.227643
0.295565
0.220640
0.330218
0.351794
0.323951
0.387334
0.406896
0.453529
0.467594
0.423584
0.428055
0.445385
0.492310
0.479633
0.582246
0.521551
0.485176
0.500608
0.566976
0.503429
0.455137
0.443058
0.393237
0.418786
0.433554
0.406572
0.378510
0.320672
0.400388
0.338927
0.275821
0.318683
0.210998
0.219047
0.278812
0.118420
0.149466
0.122014
0.131298
0.125276
0.084380
0.108225
0.117925
0.147009
0.078099
0.047675
0.031174
-0.000923
0.081431
-0.003404
0.029153
0.021569
0.036820
-0.005182
0.068598
-0.023286
-0.013395
-0.037980
-0.012925
-0.045818
-0.000135
0.060255
-0.001893
0.034390
-0.048295
0.008872
-0.121232
-0.040300
-0.081333
0.065392
0.017739
0.060427
-0.014359
0.010627
0.023773
-0.024900
-0.039761
0.008675
-0.036047
-0.070621
-0.096738
-0.021719
-0.031896
-0.006119
-0.022625
0.000026
0.022158
0.016128
0.030360
0.015511
0.021605
0.035162
-0.023026
0.002697
0.056076
0.024935
-0.035023
-0.024957
0.095820
0.085744
0.132443
0.077511
0.052180
0.104405
0.054919
0.042087
0.047791
0.039703
0.106674
0.064143
0.166034
0.101229
0.088789
0.246199
0.189625
0.159348
0.181750
0.106336
0.200771
0.228130
0.175516
0.217596
0.169938
0.250605
0.214941
0.188774
0.285245
0.133567
0.143172
0.109857
0.093865
0.284671
0.202338
0.170192
0.049841
0.130357
0.141657
0.035396
0.056667
0.042538
0.111744
0.040189
0.097292
0.045853
0.109309
0.079193
0.076092
0.142105
0.007208
0.080606
0.090695
0.054254
0.026488
-0.035664
0.030896
0.045193
0.140714
0.300670
0.575164
0.931985
1.253944
1.437339
1.468519
1.100989
0.998811
0.528278
0.189725
-0.085518
-0.106956
-0.142661
-0.090457
-0.053447
-0.034539
0.072300
0.076272
0.025837
0.084643
0.078804
0.069005
0.026088
0.174316
0.114613
0.156305
0.194749
0.141300
0.189049
0.163055
0.217957
0.246136
0.234557
0.260740
0.332206
0.336733
0.318044
0.293031
0.289350
0.337750
0.455563
0.451778
0.459875
0.473171
0.528317
0.584259
0.553300
0.607898
0.498593
0.542862
0.504816
0.660578
0.509735
0.529416
0.616745
0.600074
0.577604
0.549409
0.486890
0.564318
0.516581
0.554551
0.558453
0.414288
0.423179
0.432700
0.408827
0.359876
0.380325
0.294461
0.288993
0.263583
0.278023
0.249043
0.299163
0.146157
0.185859
0.224857
0.246525
0.234141
0.270368
0.166250
0.116016
0.164441
0.052370
0.002520
0.092283
0.070061
0.098667
0.109415
0.085675
0.055437
0.099487
0.104884
0.101622
0.095499
0.029940
0.015791
0.015190
0.080965
0.075892
0.026335
0.040718
0.019412
0.016446
0.124080
0.101675
0.073996
0.032175
0.045011
0.057631
0.031590
0.034663
0.063639
0.061229
0.051058
0.082310
0.033978
0.019937
0.096116
0.070135
0.094910
0.084437
-0.014261
-0.022293
0.034497
0.075269
0.139778
0.069604
0.042133
0.106717
0.061427
0.029559
0.005866
0.090769
0.037089
0.012100
0.052698
0.070978
0.090093
-0.021971
0.063482
0.054843
0.059250
0.009391
0.092388
0.078914
0.102401
0.148205
0.143516
0.162241
0.140375
0.168465
0.134417
0.248258
0.170815
0.263281
0.231333
0.163511
0.150991
0.173334
0.237271
0.076152
0.199036
0.131884
0.209193
0.191453
0.137715
0.135216
0.117784
0.156700
0.171765
0.112591
0.147985
0.037859
0.048741
0.091997
-0.008942
0.089061
0.078360
0.042115
0.016241
-0.012073
0.021895
0.005357
0.069676
-0.012295
-0.048572
-0.000059
0.054535
-0.068883
-0.067147
-0.007425
0.080091
0.128086
0.393392
0.599548
0.947803
1.309585
1.408993
1.312728
1.121754
0.773349
0.365100
0.101632
-0.079657
-0.266326
-0.245306
-0.138468
-0.045440
-0.012372
0.032469
0.057959
0.007416
0.074036
0.091627
0.102177
0.034980
0.034089
0.158674
0.117091
0.093533
0.191176
0.102821
0.048598
0.167961
0.174644
0.223360
0.252289
0.190374
0.331200
0.192440
0.250114
0.308552
0.286710
0.328532
0.519592
0.448686
0.448985
0.382363
0.465447
0.530513
0.506854
0.461294
0.462874
0.422256
0.437618
0.524681
0.525827
0.538840
0.477053
0.413258
0.514784
0.449274
0.482708
0.447780
0.359681
0.445302
0.412717
0.328318
0.328015
0.298651
0.314983
0.272437
0.116059
0.283286
0.265614
0.177728
0.208727
0.219251
0.097049
0.111403
0.140551
0.099895
0.079867
0.102762
0.038091
0.044276
0.022307
0.062401
0.008278
-0.007545
-0.009407
0.053132
-0.040310
-0.023588
-0.081078
-0.056637
-0.054177
-0.058302
-0.056230
-0.090475
-0.065508
-0.088994
-0.099210
-0.039311
-0.028477
0.031977
-0.086194
-0.000407
-0.114229
-0.042242
-0.070545
-0.011249
0.022062
-0.138453
0.015546
-0.020385
-0.038647
-0.061962
-0.076290
-0.025807
-0.042254
0.007894
-0.046269
-0.145989
-0.016279
-0.093503
-0.080120
-0.126626
-0.046863
-0.071327
-0.157740
-0.035934
-0.083903
0.024509
-0.085374
-0.102668
-0.051729
-0.063135
-0.003229
-0.067083
-0.074919
-0.067718
-0.078925
-0.104943
-0.074126
-0.142732
-0.030471
0.038946
-0.060765
-0.049673
0.014651
0.015323
0.032074
-0.023421
0.134050
0.067425
0.118037
0.135573
0.072524
0.084483
0.056877
0.075019
0.097243
0.068302
0.062430
0.067113
0.098882
0.114930
0.229079
0.034066
0.094698
0.091507
0.053962
0.028578
-0.035598
0.031956
0.002358
-0.009372
-0.043324
0.073501
-0.038702
-0.017014
-0.106684
-0.072191
-0.112455
-0.040980
-0.010230
-0.120793
-0.060434
-0.117332
-0.125955
-0.151334
-0.067254
-0.039069
-0.068685
-0.047650
-0.080314
0.050856
0.202877
0.581873
0.916097
1.248808
1.340881
1.267307
1.047741
0.687260
0.231160
-0.047849
-0.174293
-0.328282
-0.267843
-0.233138
-0.152934
-0.127575
-0.048371
-0.023451
-0.065040
-0.049959
-0.068440
-0.022924
-0.038858
0.004659
-0.067710
0.015475
0.048718
0.016087
-0.006156
0.039000
0.135382
0.010076
0.089053
0.104132
0.205258
0.173805
0.154166
0.178222
0.214345
0.239663
0.314527
0.324675
0.361174
0.297773
0.333502
0.394337
0.392711
0.321283
0.368872
0.325230
0.509621
0.358974
0.424475
0.404640
0.432694
0.345404
0.377115
0.290860
0.395952
0.392274
0.366166
0.325377
0.323153
0.235320
0.313235
0.229855
0.248838
0.280975
0.241683
0.162657
0.329900
0.143551
0.083416
0.085992
0.084251
0.088241
0.039435
0.013204
0.035722
0.112004
-0.071835
0.048384
-0.004233
0.012546
-0.083633
-0.084958
-0.050186
-0.073245
-0.027142
-0.071515
-0.030606
-0.051923
-0.147089
-0.012609
-0.118966
-0.074670
-0.075930
-0.058262
-0.087132
-0.133071
-0.083922
-0.021252
-0.069453
-0.070195
-0.015996
-0.094214
-0.051323
-0.089167
-0.107092
-0.108215
-0.034514
-0.077532
-0.059925
-0.142776
-0.061369
-0.145166
-0.104160
-0.065928
-0.060078
-0.136341
-0.028978
-0.056985
-0.089911
-0.134632
-0.097789
-0.063946
-0.039161
-0.078425
-0.095664
-0.045976
-0.125588
-0.035965
-0.126555
-0.011729
-0.083757
-0.035305
-0.067127
-0.009677
-0.102084
-0.035090
-0.051739
-0.037590
-0.069623
-0.029135
0.000622
0.025454
-0.024416
-0.086324
-0.041880
0.080764
0.064608
0.070440
0.012796
0.134808
0.019112
0.057639
0.041399
0.061239
0.142411
0.097027
0.153661
0.144889
0.102416
0.090108
0.124398
0.138572
0.037167
0.095388
0.084679
0.063133
0.043263
0.070446
0.054482
0.068631
-0.075365
-0.038394
-0.007865
0.008254
-0.064665
-0.053716
-0.000086
-0.040619
0.005632
-0.053378
-0.063608
-0.062468
0.010404
-0.034311
-0.074049
-0.065415
-0.057618
-0.129568
-0.069214
-0.036476
0.171474
0.370076
0.727646
1.014380
1.302800
1.394947
1.152242
0.950214
0.569065
0.144024
-0.085766
-0.226614
-0.356400
-0.206656
-0.178191
-0.155866
-0.092901
0.024557
0.008457
0.038660
-0.071412
0.021860
0.019040
0.029436
0.054348
0.100246
0.011118
0.112873
0.032073
0.075078
0.111718
0.099633
0.177973
0.155687
0.171575
0.222662
0.282676
0.295550
0.241326
0.289980
0.301351
0.383637
0.402104
0.423253
0.337939
0.449899
0.470413
0.388548
0.512039
0.459977
0.526391
0.614460
0.525528
0.484432
0.491317
0.458898
0.455873
0.542014
0.452394
0.511916
0.496475
0.427170
0.477099
0.342693
0.473430
0.365913
0.385741
0.288502
0.395891
0.315325
0.332609
0.260861
0.338139
0.211569
0.191020
0.211227
0.151786
0.121906
0.138452
0.091517
0.106440
0.062077
0.051189
0.048291
0.005704
0.041870
0.056960
0.106870
0.074068
0.084790
0.062429
0.061443
-0.018988
0.025538
-0.031702
0.086811
-0.007800
0.026862
0.005473
0.000492
0.000478
0.018362
0.016112
0.072188
0.042503
0.097175
0.013900
0.006628
0.072892
-0.024229
0.061709
-0.003988
-0.005874
-0.032422
-0.030968
0.012486
0.013556
0.094468
0.053546
-0.018061
0.009900
-0.028588
-0.003355
-0.070057
-0.021361
0.038280
0.047103
-0.064428
0.078848
-0.060632
0.074189
0.049787
0.118555
0.034477
0.073620
0.009748
0.052439
0.071050
0.004319
0.036317
0.049374
0.104794
0.038678
0.036449
0.124566
-0.022708
0.104586
0.136092
0.103478
0.152181
0.089128
0.176094
0.207927
0.130716
0.294355
0.203328
0.196352
0.258508
0.183883
0.260897
0.264902
0.207484
0.262284
0.225553
0.229571
0.197101
0.189664
0.147310
0.128752
0.171204
0.162079
0.172450
0.131038
0.213656
0.086226
0.137026
0.083925
0.032762
0.129864
0.049964
0.073073
0.084478
0.082294
0.049383
0.098825
0.083241
0.027867
-0.010616
0.063633
0.146380
0.105460
0.071266
0.021920
0.126145
0.099041
0.363202
0.576300
1.009667
1.202493
1.471027
1.412912
1.359948
1.006928
0.635777
0.305470
-0.046328
-0.117713
-0.154644
-0.002102
-0.041173
-0.027100
0.149779
0.067267
0.075183
0.124449
0.032928
0.046755
0.151927
0.091263
0.238610
0.164201
0.291232
0.169993
0.148669
0.189405
0.182856
0.224177
0.203047
0.279268
0.272344
0.422793
0.349668
0.255423
0.411716
0.364726
0.376822
0.426055
0.411903
0.437492
0.400539
0.533235
0.556270
0.591839
0.572994
0.599291
0.626226
0.599747
0.566749
0.553713
0.637901
0.615685
0.564888
0.517608
0.606249
0.517140
0.535668
0.519944
0.541290
0.557395
0.436974
0.480721
0.392814
0.360678
0.399005
0.397723
0.281519
0.402274
0.244458
0.308791
0.250773
0.293366
0.168271
0.206593
0.199848
0.215535
0.116825
0.161262
0.226262
0.163089
0.185456
0.145178
0.037734
0.091889
0.111141
