0.034482
0.013097
-0.037116
-0.029509
-0.073393
-0.014783
-0.010918
0.038095
-0.020264
0.032141
0.010934
0.002109
-0.015823
-0.035790
-0.017758
-0.020940
0.071526
-0.019263
0.013759
0.048875
0.136904
0.020385
0.053384
0.095847
0.196055
0.083661
0.087906
0.063644
0.142579
0.088406
0.180721
0.149274
0.151934
0.207983
0.211113
0.222767
0.163137
0.121459
0.211563
0.127502
0.247368
0.182733
0.133376
0.212455
0.111241
0.196331
0.149510
0.113759
0.098124
0.042709
0.095891
0.136690
0.080072
0.068768
0.060829
0.092837
0.091034
0.101074
0.065908
0.030224
0.051379
0.030441
0.035619
0.084744
-0.013140
0.114107
-0.010214
-0.073649
0.064771
0.003506
0.015854
0.204837
0.467049
0.739822
1.040800
1.302799
1.445580
1.357017
1.100975
0.797720
0.383221
0.091774
-0.086608
-0.199749
-0.127769
-0.098632
0.147691
-0.018805
0.006081
0.092021
0.095010
0.137464
0.182670
0.100479
0.184449
0.233222
0.134238
0.119246
0.166120
0.150401
0.171181
0.241118
0.248263
0.301408
0.327767
0.291695
0.292825
0.284923
0.359451
0.387624
0.389960
0.412270
0.455132
0.505873
0.491166
0.551733
0.464274
0.578163
0.502729
0.638997
0.612718
0.547113
0.498420
0.653144
0.660958
0.554348
0.581380
0.600074
0.581037
0.523476
0.596016
0.572531
0.559891
0.482308
0.506764
0.507454
0.451025
0.488953
0.372622
0.467532
0.492041
0.346986
0.373131
0.274862
0.305810
0.233658
0.245860
0.208252
0.207063
0.235262
0.239451
0.131359
0.199173
0.063470
0.143304
0.106998
0.113513
0.199553
0.106257
0.180483
0.111922
0.084479
0.084406
0.128485
0.102272
0.002359
0.059013
0.051736
0.103551
0.091301
0.096061
0.066636
0.051753
0.103600
0.061165
0.077704
0.038555
0.166397
0.088491
0.030044
0.080223
0.089100
0.043898
0.120851
0.036410
0.162480
0.171016
0.050922
0.046545
-0.018787
0.090366
0.141650
0.076869
-0.002150
0.085562
0.079120
0.102535
0.003261
0.049565
0.035266
0.050450
0.062720
0.179440
0.094765
0.071993
0.145084
0.105797
0.112936
0.119404
0.213037
0.148939
0.094463
0.092563
0.140569
0.168528
0.209056
0.119711
0.174873
0.231520
0.185996
0.272300
0.190648
0.301917
0.263303
0.258562
0.279965
0.265340
0.228898
0.254867
0.290062
0.241842
0.206226
0.340187
0.096693
0.204222
0.195120
0.171792
0.187584
0.232448
0.182369
0.229830
0.178794
0.195709
0.122009
0.117863
0.149872
0.196015
0.124103
0.107005
0.048356
0.070646
0.120572
0.052314
0.092081
0.100386
0.082849
0.032645
0.029833
0.065851
0.102157
0.154769
0.298718
0.461280
0.826394
1.092230
1.401497
1.500000
1.324182
1.101175
0.663934
0.359075
0.079027
-0.127757
-0.111005
-0.129580
-0.012868
0.091430
0.098979
0.014412
-0.020377
0.151338
0.141890
0.109945
0.142152
0.112074
0.111401
0.219624
0.102762
0.197584
0.167322
0.235581
0.201191
0.193146
0.266847
0.228188
0.357566
0.303739
0.330574
0.422064
0.360153
0.387634
0.424090
0.449790
0.472317
0.446588
0.489770
0.597672
0.565910
0.552884
0.554520
0.589667
0.588786
0.601035
0.639207
0.612312
0.561915
0.511930
0.601915
0.590804
0.564800
0.497978
0.509486
0.396763
0.557291
0.416770
0.400690
0.451698
0.463175
0.340672
0.294819
0.357259
0.231450
0.351301
0.305101
0.221567
0.296937
0.215190
0.269908
0.126322
0.201259
0.200612
0.169950
0.101431
0.172891
0.136068
0.083590
0.042500
0.057496
0.083142
0.078829
0.009010
0.078600
0.145399
0.056813
0.082969
0.026791
0.035687
0.026175
0.062046
0.074328
0.040738
-0.013806
0.076375
0.050670
-0.000824
0.053754
0.030419
0.052094
0.038377
0.019049
0.054676
0.068950
0.000788
-0.020298
0.030947
0.060613
0.033721
0.063320
0.008882
0.034427
0.051128
0.025628
0.040135
0.063598
0.042399
-0.041387
-0.048275
-0.056263
0.021194
0.029470
-0.045151
-0.000497
-0.014177
-0.063817
0.049228
0.052996
0.086263
0.028692
-0.017179
0.055513
0.090282
0.094503
0.072816
0.081441
0.049177
0.109022
0.104556
0.168450
0.045454
0.024263
0.117354
0.149580
0.095461
0.183490
0.138147
0.112843
0.144217
0.248459
0.255536
0.150866
0.183313
0.153234
0.226452
0.225766
0.088701
0.111232
0.065221
0.162168
0.208249
0.086457
0.091718
-0.018575
0.132499
0.049008
-0.020324
0.005523
0.018011
0.035334
0.003772
0.045342
0.013868
-0.003538
-0.031655
-0.051569
-0.041382
-0.055983
-0.029558
-0.014994
-0.042862
-0.046204
0.115721
0.196120
0.473766
0.752252
1.031451
1.281134
1.356594
1.221074
0.913902
0.536647
0.169420
-0.013956
-0.236390
-0.317979
-0.232311
-0.141524
-0.084482
-0.002478
0.003805
0.015852
-0.065093
0.012403
0.034147
-0.002334
0.072913
0.131557
0.169047
0.077296
0.129745
0.145219
0.170576
0.113899
0.172374
0.204845
0.180985
0.263057
0.287683
0.280827
0.269038
0.232352
0.392074
0.379500
0.393433
0.373346
0.406060
0.446781
0.473650
0.453358
0.405552
0.450285
0.469574
0.440333
0.567177
0.579503
0.518853
0.480765
0.425438
0.539628
0.458060
0.478638
0.464667
0.453354
0.411307
0.395503
0.411166
0.325613
0.347440
0.293288
0.249075
0.279083
0.209978
0.176997
0.217613
0.181415
0.180541
0.102294
0.173008
0.147719
0.055625
0.063687
0.088923
-0.010341
0.105177
-0.019646
-0.001536
0.020615
0.010127
-0.032701
-0.023667
0.023917
-0.033616
0.098240
-0.040352
-0.013064
-0.062232
-0.070752
-0.080116
-0.028144
0.020399
-0.030372
-0.001186
-0.079252
-0.073291
-0.160020
0.023783
-0.048321
-0.092365
-0.034380
-0.025334
-0.029242
-0.058247
0.012413
0.014065
0.015526
-0.088048
-0.131116
-0.010192
-0.036772
-0.074008
-0.060735
0.009007
0.043157
0.001742
-0.064700
-0.034902
-0.018702
0.000675
-0.068519
-0.015150
-0.002825
-0.045815
-0.027780
-0.006629
-0.055367
-0.008150
-0.048110
0.012300
0.043169
0.030555
-0.080912
-0.116138
0.056686
0.021106
-0.004192
0.014041
0.056128
0.044339
0.001043
0.072402
0.095072
0.109901
0.089615
0.159542
0.161051
0.111919
0.121088
0.167835
0.132745
0.127505
0.154386
0.123664
0.106228
0.138162
0.084070
0.181391
0.134030
0.118633
0.091365
0.001018
0.131615
0.127682
0.068392
0.065111
-0.016056
0.060050
0.012832
-0.062140
-0.039615
-0.013176
-0.013447
-0.053628
0.013353
0.063032
-0.006961
-0.040230
0.002358
-0.003308
0.008997
-0.010412
-0.009260
0.083534
0.195368
0.437385
0.728344
1.050055
1.249784
1.392128
1.164634
0.875387
0.404269
0.118184
-0.086976
-0.187198
-0.210053
-0.041988
-0.193144
0.013743
-0.119578
-0.009963
0.064783
-0.010176
0.079873
0.148675
0.007695
0.072871
0.048871
0.100762
0.077524
0.115312
0.165479
0.069338
0.143829
0.181223
0.242169
0.188577
0.179022
0.291330
0.235360
0.264855
0.261135
0.382975
0.403588
0.382012
0.392315
0.401458
0.354107
0.402997
0.436023
0.482584
0.500799
0.471284
0.475674
0.465586
0.372463
0.574559
0.531236
0.484237
0.535320
0.539429
0.547551
0.499462
0.473071
0.445774
0.409674
0.359512
0.304552
0.322310
0.350054
0.303172
0.355466
0.274685
0.273010
0.187515
0.262910
0.193023
0.217587
0.085596
0.087630
0.089518
-0.016423
0.128206
0.062463
0.067536
0.001069
0.068442
0.099497
0.012711
0.062839
0.015947
0.059084
0.085245
0.099762
0.037258
0.048449
-0.005319
0.006431
0.007445
0.052834
0.125930
0.052408
0.032278
0.073278
-0.000600
0.005689
-0.049453
0.017352
-0.017109
0.006648
0.076979
-0.047900
0.030280
0.070421
0.006242
0.025567
-0.019446
0.098153
0.015872
0.006764
-0.022227
0.014212
-0.034160
0.005689
0.001757
0.041249
0.020825
0.002791
0.048765
-0.056495
0.050708
0.046238
0.031034
0.042572
-0.009390
0.036538
0.106472
0.086078
0.088259
0.048465
0.105123
0.038444
-0.025751
0.048646
0.101211
0.206265
0.164668
0.165771
0.065302
0.047116
0.131623
0.199635
0.241581
0.191648
0.172995
0.228497
0.227053
0.263022
0.221813
0.180326
0.271140
0.266409
0.187883
0.258723
0.216592
0.239600
0.114374
0.184644
0.178144
0.165077
0.159573
0.182601
0.154526
0.178899
0.121195
0.056045
0.160827
0.085911
0.068818
0.057999
0.106081
-0.000033
0.018173
0.079793
0.010763
0.015032
0.049626
0.035641
0.094414
0.096267
0.092092
0.082718
0.216700
0.357052
0.599985
0.925300
1.243840
1.454545
1.391605
1.238145
0.851844
0.610076
0.176320
-0.003202
-0.203297
-0.061976
-0.061771
0.043680
0.081625
0.068904
0.149665
0.148489
0.140834
0.160035
0.177128
0.125294
0.119441
0.174762
0.125494
0.191165
0.237426
0.150900
0.286680
0.228102
0.259527
0.363207
0.286821
0.353185
0.350347
0.352387
0.339888
0.493978
0.453039
0.471107
0.485653
0.498980
0.548134
0.593800
0.532913
0.536751
0.550410
0.629888
0.528215
0.677138
0.657406
0.644297
0.644531
0.601709
0.593966
0.533983
0.566974
0.605220
0.625770
0.578000
0.406718
0.601185
0.499592
0.465720
0.509160
0.383679
0.332237
0.405941
0.375442
0.286366
0.353183
0.274026
0.331497
0.324310
0.177054
0.265852
0.255180
0.126046
0.213757
0.222166
0.061598
0.105239
0.235293
0.252707
0.170380
0.046107
0.177144
0.080200
0.131086
0.145835
0.205815
0.110026
0.110420
0.041630
0.139343
0.102944
0.093162
0.132677
0.073039
0.105564
0.078056
0.109738
0.084697
0.102146
0.102473
0.123967
0.156474
0.002327
0.054520
0.052907
0.098310
0.083193
0.089705
0.073747
0.113321
0.126922
0.108834
0.025158
0.087708
0.019465
0.043182
0.120165
0.168029
0.100798
0.130962
0.117044
0.145152
-0.005946
0.120274
0.117781
0.075841
0.122805
0.069007
0.158392
0.098006
0.134525
0.064581
0.121005
0.072179
0.060736
0.156758
0.205174
0.121071
0.194023
0.185999
0.198985
0.224396
0.255266
0.180751
0.216956
0.302493
0.282138
0.292276
0.277966
0.295851
0.320275
0.302226
0.216716
0.228411
0.223392
0.268363
0.260408
0.243304
0.229536
0.215702
0.245866
0.231037
0.155811
0.281402
0.165041
0.200011
0.043070
0.127822
0.046821
0.130337
0.177374
0.079152
0.179171
0.132276
0.045881
0.134323
0.189539
0.068754
0.072852
0.030536
0.117977
0.071576
0.027543
0.219108
0.391348
0.671294
1.086089
1.243691
1.450049
1.477866
1.196791
0.870979
0.469945
0.175555
0.061702
-0.194496
-0.159931
-0.019236
0.064370
0.068775
0.180934
0.138214
0.047171
0.043300
0.075201
0.131404
0.131117
0.132557
0.174502
0.141060
0.213244
0.289847
0.205432
0.259833
0.199449
0.247365
0.219678
0.276927
0.263308
0.317941
0.400051
0.353160
0.408147
0.387465
0.383211
0.429594
0.490554
0.501071
0.506116
0.483671
0.582873
0.478261
0.587964
0.573207
0.547965
0.543520
0.581843
0.585578
0.571333
0.582307
0.596842
0.501798
0.413655
0.465522
0.429213
0.455076
0.403787
0.360716
0.440337
0.369831
0.367042
0.310373
0.309424
0.298172
0.247136
0.266419
0.260180
0.191187
0.116979
0.121804
0.202392
0.151672
0.077195
0.160447
0.133797
0.034973
0.092559
0.173609
0.040321
0.107688
0.057324
0.083933
0.046792
0.081753
0.077635
0.014225
0.126076
0.039109
0.004281
0.082857
0.062169
-0.011448
0.017389
0.048049
0.058995
0.023082
-0.021334
0.051813
-0.034528
0.046077
0.077726
-0.048119
0.053965
0.012773
-0.072227
0.017999
-0.021307
0.043631
-0.038195
0.044966
0.019720
0.025340
-0.000380
0.053681
-0.030569
-0.002905
0.033585
-0.028831
0.039474
-0.008465
0.017981
-0.052722
0.001172
-0.070759
0.063658
0.015520
0.009621
-0.013644
0.001809
0.025985
0.020980
-0.028255
0.023685
-0.026442
0.075455
0.064277
-0.012285
0.014266
0.043801
0.083411
0.033966
0.085433
0.089352
0.107849
0.128854
0.143763
0.181166
0.193943
0.168180
0.090896
0.211948
0.161159
0.152002
0.202135
0.235631
0.155703
0.228451
0.082760
0.137648
0.083894
0.089932
0.030256
0.117435
0.078909
0.027710
0.017060
-0.039372
0.041111
0.067413
-0.058502
-0.003139
-0.078247
0.029976
0.086690
-0.093043
-0.012645
-0.032550
0.058023
-0.044236
-0.078175
-0.132044
-0.056660
-0.040800
0.143522
0.274701
0.617445
0.868441
1.212309
1.382032
1.293762
1.050532
0.744067
0.341520
0.027478
-0.141816
-0.338885
-0.330388
-0.265056
-0.053965
-0.055668
-0.139404
-0.045978
-0.008837
0.059057
0.081532
0.070356
-0.002020
0.061128
0.065510
0.049216
0.001636
0.041315
0.049565
0.125641
0.113940
0.142074
0.177053
0.190366
0.160707
0.310858
0.229642
0.323543
0.299824
0.400116
0.306298
0.270071
0.337436
0.404316
0.435592
0.432676
0.439567
0.505708
0.427304
0.473616
0.554100
0.537709
0.485181
0.505263
0.408604
0.361344
0.462969
0.417102
0.388858
0.494703
0.261711
0.339142
0.329728
0.330231
0.236713
0.272416
0.331314
0.186539
0.215771
0.234672
0.138889
0.160853
0.064838
0.141796
0.108267
-0.047381
0.062769
0.069753
0.040322
-0.002294
0.045802
0.011994
-0.003677
-0.082296
-0.103806
-0.023330
0.016158
-0.043389
-0.094985
-0.023342
-0.059931
-0.040752
-0.057013
-0.109289
-0.033526
-0.065661
-0.038888
-0.121114
-0.078097
-0.052585
-0.058606
-0.182663
-0.086500
-0.084152
-0.086668
-0.105071
-0.114604
-0.046258
-0.137240
-0.112683
-0.111430
-0.134351
-0.097329
-0.078372
-0.120375
-0.036870
0.002579
-0.131309
-0.029106
-0.081467
-0.101737
-0.138773
-0.015037
-0.078517
-0.137847
-0.064323
-0.091420
-0.099380
-0.067821
-0.077317
-0.115473
-0.111676
-0.123773
-0.098624
-0.108704
-0.036017
-0.013208
0.022007
-0.077915
-0.054818
-0.046504
0.029364
-0.015505
0.068471
-0.080399
0.023361
0.079128
0.001687
0.018388
0.051480
0.053030
0.144491
0.084471
0.120953
0.088633
0.104694
0.124287
0.073714
0.167966
0.023680
0.114269
0.013370
0.106942
0.053774
0.064788
0.013051
0.041400
0.016507
0.015020
0.024228
0.038322
-0.000032
-0.020458
-0.091949
-0.083887
-0.028615
-0.021149
0.002180
-0.069098
-0.064106
-0.173933
-0.109947
0.028205
-0.022037
0.002544
-0.044395
-0.080698
-0.122709
0.105555
0.109165
0.318623
0.626839
0.878516
1.201009
1.322285
1.293919
0.974653
0.730275
0.255755
-0.070902
-0.228053
-0.268158
-0.244564
-0.157052
-0.132791
-0.018589
-0.117214
-0.018406
-0.026062
0.043884
-0.012580
-0.019802
-0.020836
0.088248
0.037941
0.104864
0.126906
0.008309
0.056668
0.137507
0.095888
0.145156
0.127347
0.212887
0.227410
0.360149
0.217438
0.231920
0.319793
0.365175
0.340733
0.405712
0.348098
0.447663
0.330271
0.415335
0.420079
0.432343
0.472370
0.451313
0.440832
0.431803
0.422530
0.476151
0.457991
0.435393
0.465253
0.455443
0.448654
0.367144
0.318280
0.358656
0.311658
0.375372
0.220074
0.361101
0.211483
0.241365
0.210895
0.255710
0.186130
0.200990
0.164685
0.109657
0.133436
0.052135
0.124927
0.117275
0.148507
0.082254
0.041489
0.159291
0.079929
0.038570
0.012794
0.081199
0.070322
-0.002655
-0.081204
-0.065167
-0.022404
-0.036116
0.041878
0.008036
0.057092
-0.041510
0.074098
-0.120366
-0.049155
-0.028193
0.063187
-0.086421
0.004977
-0.030877
-0.044373
0.102379
-0.038117
-0.000553
-0.034725
-0.032892
-0.084028
-0.025574
0.101780
0.065399
0.024623
-0.002668
0.075615
-0.013232
-0.040697
0.006050
-0.034774
-0.021023
0.012870
-0.060101
-0.015815
0.019899
-0.035242
0.058677
0.025850
0.007204
0.013348
-0.110723
0.078974
-0.079802
0.002837
0.007936
0.033925
0.020463
-0.010775
0.052201
0.008138
0.025223
0.077839
0.065891
0.071309
0.100976
0.091621
0.138902
0.095426
0.107849
0.160312
0.187347
0.092383
0.225340
0.222587
0.170801
0.145451
0.118783
0.141225
0.170759
0.176792
0.190383
0.158790
0.085882
0.127581
0.169190
0.132819
0.088623
0.090698
0.040941
0.014262
0.065278
0.062793
0.056919
0.078440
0.112750
0.054527
-0.027508
0.041506
0.057376
0.046761
0.028958
0.046937
0.013614
-0.018788
-0.044765
-0.056898
0.106758
0.116266
0.175988
0.406536
0.743247
1.031533
1.352519
1.407104
1.289570
1.049166
0.697308
0.220123
-0.046661
-0.132563
-0.190181
-0.205678
-0.077137
-0.092704
0.021268
0.049365
-0.041400
0.033035
0.107110
0.062533
0.160852
0.140797
0.123092
0.155267
0.102573
0.125350
0.169180
0.181211
0.220578
0.253125
0.287747
0.221722
0.302012
0.341467
0.293432
0.404160
0.451788
0.389433
0.440463
0.388106
0.374660
0.467213
0.471785
0.457753
0.498314
0.589789
0.584553
0.550267
0.563210
0.497256
0.544153
0.492260
0.502465
0.466336
0.578919
0.571791
0.529567
0.507811
0.488118
0.471787
0.534354
0.500117
0.456742
0.346756
0.401415
0.367870
0.274167
0.327682
0.292324
0.339579
0.294839
0.259572
0.229964
0.263150
0.195967
0.169636
0.124324
0.105665
0.202214
0.118444
0.084949
0.159867
0.034692
0.110943
0.073761
0.087383
0.082620
0.118318
0.066411
0.052784
0.075249
0.022214
0.138678
0.089307
0.120887
0.034833
-0.056799
0.026712
0.059003
0.030944
0.001322
0.056753
0.061360
0.078726
0.081230
0.008129
0.058385
0.038817
0.042423
0.023020
0.061103
0.045365
-0.001588
0.081926
0.067990
-0.009272
-0.010364
0.086674
0.090788
0.035312
0.011951
0.095744
-0.009813
0.108864
0.029052
-0.002135
0.073659
0.029181
0.015052
0.012153
0.083023
0.106087
0.106208
0.075225
0.132102
0.011454
0.123445
0.184943
0.109815
0.101268
0.146703
0.131494
0.194699
0.124985
0.028575
0.177568
0.166914
0.243282
0.100610
0.277190
0.162367
0.201347
0.239310
0.281899
0.232935
0.128256
0.257657
0.193222
0.152999
0.242736
0.287450
0.167837
0.250811
0.216178
0.094918
0.177912
0.141923
0.103745
0.149767
0.038105
0.033886
0.073884
0.014343
0.049897
0.017773
0.021643
0.072599
0.105741
0.036764
0.036833
0.039348
0.049486
0.082152
-0.050156
0.118027
0.010134
-0.008056
0.086534
0.284440
0.491653
0.815745
1.034975
1.362123
1.391864
1.288977
1.013598
0.600807
0.276609
-0.008319
-0.178423
-0.233809
-0.136641
-0.082865
0.018541
-0.035611
0.076097
0.100441
0.121601
0.061109
0.039508
0.064365
0.141962
0.072426
0.089791
0.176415
0.134009
0.152169
0.333893
0.154112
0.098124
0.162749
0.209735
0.302638
0.304590
0.351208
0.406180
0.369172
0.311026
0.366814
0.407892
0.413763
0.374578
0.450075
0.467273
0.504580
0.485813
0.531192
0.586256
0.510742
0.551686
0.584019
0.526008
0.536952
0.503003
0.470372
0.542939
0.462131
0.470387
0.555410
0.444877
0.394601
0.443050
0.426173
0.403479
0.339644
0.352598
0.232814
0.288239
0.271088
0.248427
0.190891
0.209335
0.111251
0.162726
0.110812
0.173330
0.105140
0.087191
0.085410
0.036986
-0.038767
0.050686
0.008669
-0.047264
0.076519
0.080122
0.003349
0.013554
0.027626
0.011822
-0.028048
-0.088020
-0.085110
-0.069934
0.006300
0.043897
0.037398
-0.000581
0.038611
-0.064478
-0.015910
-0.019628
-0.018763
-0.004373
-0.054721
-0.029326
-0.095336
-0.101865
-0.039067
0.004971
-0.068016
0.013755
-0.046567
-0.077509
-0.002363
0.005961
0.053308
-0.036466
0.011896
-0.036232
-0.010270
-0.006456
-0.009015
-0.060501
-0.018617
-0.054630
-0.036034
-0.007025
0.024191
-0.078809
0.000853
-0.066393
0.024918
-0.084088
0.022894
-0.002621
-0.004908
0.025738
0.056832
-0.002140
-0.021663
0.028368
-0.015778
0.063805
0.066828
0.097884
0.078110
0.118749
0.128204
0.104336
0.022348
0.172460
0.049362
0.164367
0.048176
0.163311
0.120135
0.096868
0.120251
0.107205
0.079338
0.108603
-0.006116
0.066644
0.039466
0.056514
0.011901
-0.095618
-0.031656
0.081556
-0.005587
-0.002621
-0.036430
0.013282
-0.113565
0.006674
-0.096418
-0.120111
-0.016503
-0.110236
-0.080754
-0.127007
-0.029261
-0.047166
-0.153151
-0.111189
0.066030
0.031558
0.185962
0.375763
0.720196
1.062355
1.167728
1.341588
1.187188
0.896673
0.524223
0.167131
-0.167442
-0.279157
-0.301044
-0.297277
-0.230076
-0.196820
-0.058547
-0.025870
-0.041273
-0.076320
-0.052713
-0.079231
0.016090
0.013027
0.013901
0.081981
0.016344
0.047032
0.021176
0.199424
0.063813
0.053439
0.059146
0.192649
0.231602
0.251757
0.200959
0.212291
0.160073
0.249189
0.260148
0.314526
0.387438
0.361061
0.322440
0.319598
0.417181
0.444188
0.381069
0.429384
0.433934
0.389915
0.415873
0.457696
0.340657
0.426406
0.409981
0.389055
0.400977
0.432628
0.349500
0.317068
0.334496
0.288225
0.306895
0.236156
0.300164
0.226334
0.186390
0.152106
0.155267
0.189026
0.079353
0.144761
0.152983
0.070481
0.014100
0.046041
0.013648
0.013910
-0.033103
0.056221
-0.000682
0.009466
-0.062456
-0.076264
-0.111140
-0.029093
-0.098336
-0.115275
-0.091700
-0.140324
-0.119978
-0.072744
-0.125724
-0.130695
-0.084542
-0.052870
-0.131348
-0.142044
-0.141303
-0.082176
-0.142980
-0.105260
-0.104659
-0.130656
-0.150114
-0.090382
-0.104037
-0.018100
-0.051604
-0.145393
-0.077586
-0.180531
-0.194031
-0.185022
-0.107453
-0.174806
-0.097885
-0.112230
-0.057420
-0.090439
-0.071601
-0.105003
-0.176795
-0.065112
-0.083655
-0.081218
-0.127936
-0.075769
-0.105663
-0.069821
-0.121298
-0.156623
-0.052678
-0.018029
-0.079279
-0.039523
-0.040384
-0.040723
-0.044373
0.016838
-0.006917
-0.016742
0.000138
-0.056737
-0.004660
-0.023996
0.044857
0.002982
0.034980
0.053352
0.008288
0.098478
0.122185
0.050078
0.022573
0.140020
0.095006
0.072994
0.044358
0.151573
-0.058523
0.032691
-0.019751
0.077147
-0.009239
0.044388
0.007649
0.010225
-0.085141
-0.099859
-0.057764
-0.046798
-0.000467
0.015176
-0.076697
0.019780
-0.053044
-0.060656
-0.048445
-0.068120
-0.050136
-0.114320
-0.064104
-0.007938
-0.096307
-0.065807
-0.096163
0.018097
0.177540
0.485150
0.760087
1.009665
1.230989
1.342345
1.152665
0.765815
0.476331
0.148645
-0.194745
-0.258800
-0.311865
-0.130010
-0.178751
-0.136788
-0.097106
-0.025063
-0.033357
0.061763
-0.043005
-0.031270
-0.011104
-0.036664
0.068505
0.041579
0.106234
0.005957
0.053279
0.082657
0.113637
0.125526
0.138599
0.150401
0.131855
0.270946
0.257624
0.234818
0.289587
0.331974
0.320385
0.354090
0.357506
0.342971
0.402795
0.426878
0.439100
0.434675
0.399549
0.506933
0.443035
0.500986
0.454068
0.379918
0.451442
0.342712
0.425415
0.485072
0.422272
0.410357
0.455461
0.398016
0.403938
0.276289
0.342398
0.285237
0.335183
0.266498
0.287318
0.213608
0.146765
0.179623
0.113616
0.097275
0.147305
0.106789
0.079610
0.089005
0.009445
0.027618
0.080001
0.114698
0.012744
0.074192
0.098300
0.060651
-0.029176
-0.034718
0.001182
-0.042874
0.089256
-0.041609
0.108111
-0.034302
-0.038377
-0.028316
-0.026631
0.003045
-0.000644
-0.028721
-0.063683
-0.064859
-0.075771
0.038069
0.009123
0.008449
0.040457
0.008016
-0.017976
-0.022434
-0.042232
-0.143093
0.000224
0.005713
-0.010342
-0.022370
-0.002241
-0.070935
0.052635
-0.030214
0.019322
0.030378
-0.022107
0.063422
0.040032
-0.049276
-0.085940
0.038793
0.043214
0.010736
-0.015884
0.024762
0.041799
-0.050717
-0.023687
0.054278
-0.016718
0.104959
0.027924
0.040952
0.012113
-0.053069
0.028931
0.001566
0.090028
0.153945
0.172729
0.094064
0.117411
0.212180
0.145329
0.223405
0.146239
0.163368
0.265513
0.213315
0.175333
0.198943
0.245557
0.246397
0.103268
0.206659
0.143603
0.114790
0.130544
0.079693
0.131765
0.156739
0.146486
-0.011143
0.115445
0.041377
0.089087
0.150903
0.082902
0.079398
0.155345
0.056156
0.077235
0.001697
0.016602
0.089122
0.023736
0.038689
-0.022982
-0.053208
0.028663
0.014695
0.081833
0.186208
0.258857
0.658312
0.896452
1.199030
1.403805
1.425525
1.294679
0.933245
0.476037
0.144992
-0.086277
-0.094140
-0.203889
-0.059295
-0.133600
0.005680
0.096336
0.011162
0.087223
0.031296
0.037259
0.048692
0.054196
0.066633
0.075973
0.174520
0.180244
0.179665
0.213388
0.283758
0.184110
0.238657
0.203423
0.296791
0.231880
0.358898
0.305965
0.349099
0.406398
0.508789
0.480787
0.393459
0.382052
0.549327
0.500939
0.606666
0.551578
0.555975
0.536515
0.562055
0.543714
0.598457
0.683659
0.524676
0.568147
0.597455
0.557681
0.434919
0.607269
0.484318
0.531652
0.494917
0.525578
0.535719
0.458806
0.395534
0.395445
0.455792
0.295562
0.431930
0.321709
0.263831
0.277438
0.326653
0.185730
0.262423
0.254954
0.181827
0.167517
0.258942
0.152653
0.154648
0.183592
0.086580
0.129755
0.036018
0.061312
0.093659
0.144880
0.032258
0.095615
0.133324
-0.027255
0.035467
0.033634
0.129447
0.039407
0.125265
0.099130
0.071598
0.045706
0.051097
0.053162
0.103213
0.082641
0.079064
0.072339
0.023346
0.082732
-0.011056
0.103136
0.067446
0.043729
0.159445
0.065019
0.056487
0.123796
0.033214
0.032203
0.029468
0.040888
0.055608
0.057801
0.116338
0.071143
0.055910
0.083669
0.133129
0.114919
0.090276
0.070191
0.067931
0.140221
0.075693
0.173345
0.036097
0.046732
0.108078
0.088610
0.130144
0.169734
0.081430
0.127301
0.143947
0.176469
0.190609
0.159121
0.190478
0.243970
0.070035
