0.012576
-0.037927
0.021156
-0.037188
-0.079571
-0.020705
-0.022354
0.018803
0.029977
-0.019228
-0.010745
-0.005453
0.032755
0.005994
0.089913
0.110024
0.093219
-0.026361
0.071163
0.002745
0.102788
0.071994
0.088229
-0.008322
0.070559
0.107408
0.139813
0.062814
0.074019
0.084359
0.144546
0.156175
0.212095
0.255056
0.208227
0.270469
0.200285
0.310168
0.244562
0.162505
0.197870
0.205337
0.205155
0.154269
0.201286
0.187329
0.143642
0.146452
0.173026
0.186271
0.202206
0.111428
0.140647
0.149508
-0.019031
0.045567
0.078101
0.034358
0.025063
0.052094
0.114220
-0.028770
0.084258
0.040677
0.142226
0.029068
0.084049
0.099994
-0.012902
0.071876
0.024441
0.062089
0.147476
0.253126
0.523582
0.729375
1.090721
1.346979
1.454288
1.402890
1.055245
0.726562
0.426683
0.153453
-0.189803
-0.211287
-0.130715
-0.096451
0.004906
0.055257
0.042133
0.099738
0.085235
0.096382
0.152269
0.131323
0.141153
0.087600
0.189531
0.166313
0.017873
0.155414
0.266752
0.251402
0.238926
0.169258
0.211349
0.180515
0.201587
0.401837
0.327978
0.419823
0.455704
0.411743
0.303078
0.380934
0.470456
0.484356
0.535189
0.529586
0.528568
0.632279
0.551438
0.566243
0.665132
0.641341
0.654299
0.556547
0.621330
0.470368
0.561725
0.637413
0.552515
0.607675
0.534025
0.531854
0.415531
0.449387
0.442993
0.506941
0.372038
0.388476
0.461776
0.271939
0.358010
0.303359
0.286915
0.226230
0.244479
0.253636
0.211333
0.239189
0.164902
0.220022
0.111749
0.157189
0.135536
0.179289
0.086758
0.170374
0.092785
0.088632
0.138888
0.147721
0.134785
0.031716
0.017637
-0.050362
0.071820
0.040841
0.132741
0.189805
0.055406
0.135173
0.046485
0.069509
0.105468
0.149012
0.096130
0.105335
0.097052
0.062869
0.142678
0.026449
0.069402
0.069091
0.017798
0.090747
0.043825
0.043467
0.159121
0.141073
0.029651
0.095330
0.049600
0.155191
0.072816
0.081329
0.149815
0.093699
0.091541
0.072818
0.126808
0.081957
0.174136
0.098533
0.082786
0.050836
0.219181
0.073699
0.087005
0.170306
0.191354
0.082816
0.104418
0.155137
0.103918
0.102860
0.119964
0.141536
0.173748
0.128846
0.177431
0.173222
0.247152
0.145947
0.238787
0.232243
0.313984
0.184823
0.228250
0.322136
0.239497
0.299540
0.195336
0.299598
0.299078
0.285988
0.256152
0.218043
0.139084
0.250015
0.237075
0.145630
0.236378
0.169417
0.166700
0.137735
0.151512
0.170278
0.099092
0.136912
0.067047
0.052565
0.166997
0.139943
0.096520
0.127582
0.150355
0.071585
0.184275
0.079415
0.102708
0.061446
0.091559
0.100877
0.005624
0.107977
0.261507
0.615022
0.892843
1.219188
1.409025
1.440726
1.338946
1.047318
0.747640
0.378512
0.029965
-0.087547
-0.169704
-0.059432
-0.105109
0.006170
0.072586
0.111397
0.142885
0.096567
0.132874
0.174074
0.084928
0.121889
0.185001
0.122889
0.091115
0.183889
0.227327
0.144857
0.188901
0.309091
0.240814
0.300335
0.222974
0.318125
0.348896
0.357081
0.379558
0.360654
0.415008
0.397899
0.403937
0.477323
0.613537
0.455913
0.467655
0.520421
0.514128
0.534877
0.534529
0.558580
0.557191
0.636185
0.565728
0.561000
0.658618
0.489182
0.531262
0.578506
0.486808
0.545744
0.502900
0.406851
0.427239
0.463458
0.367326
0.342629
0.413905
0.353512
0.367105
0.307264
0.201456
0.259653
0.263425
0.244543
0.226917
0.216015
0.065513
0.158974
0.175811
0.131250
0.074053
0.104807
0.069311
0.064044
0.096362
0.057113
0.087315
-0.023624
0.064943
0.046852
0.017987
0.121997
0.016060
0.013820
0.042513
0.069490
0.080064
0.052482
0.079041
0.069412
0.020873
0.044918
0.014042
0.032635
0.077945
0.058051
0.010678
-0.060084
0.011969
0.067066
0.023714
0.003668
-0.054633
0.034679
0.152975
-0.006126
0.029676
-0.040714
0.030492
-0.052141
-0.001242
0.046466
-0.003615
0.053201
-0.046032
0.070768
0.043738
0.005323
0.023942
0.002035
-0.031169
0.016237
0.123531
-0.087108
0.007333
-0.047905
0.061958
0.074597
-0.013846
0.078382
0.014894
0.068693
0.018439
0.021237
0.049771
0.091902
0.106012
0.034696
0.118474
0.150028
0.087449
0.116221
0.144698
0.109568
0.131648
0.186260
0.171382
0.118338
0.180171
0.179078
0.194082
0.175903
0.185266
0.125247
0.117832
0.112125
0.174737
0.091795
0.173577
0.081306
0.106572
0.124033
-0.045387
0.063952
0.009662
0.046999
0.040940
0.014558
-0.007212
-0.047237
0.078583
-0.033444
-0.100528
-0.080821
0.016925
0.017032
0.042124
-0.009359
0.002178
0.050688
-0.002090
0.021578
0.055294
0.126902
0.512222
0.768151
1.202291
1.321265
1.387715
1.165808
0.898151
0.527588
0.203420
-0.070699
-0.199237
-0.277878
-0.181269
-0.152852
-0.077106
-0.017424
-0.012857
-0.044216
-0.055385
-0.062434
0.040607
0.069167
0.081998
0.095244
0.142335
0.092381
0.058749
0.053510
0.104032
0.154470
0.139439
0.157903
0.159906
0.216763
0.259698
0.152817
0.221854
0.301663
0.305180
0.409372
0.317559
0.366894
0.364809
0.394890
0.340606
0.426192
0.463023
0.439256
0.369190
0.431488
0.367158
0.383252
0.419018
0.491846
0.520947
0.489403
0.430481
0.426649
0.441310
0.425725
0.366839
0.442541
0.382537
0.368630
0.334792
0.334929
0.299811
0.314030
0.167775
0.272548
0.189981
0.206146
0.170589
0.066015
0.113747
0.114666
0.031505
0.104207
0.055186
0.040344
0.001443
0.024217
0.027675
-0.034545
-0.045969
-0.060328
0.022685
-0.003336
0.009401
-0.045732
0.027986
0.052265
-0.043032
0.032474
0.055602
-0.000918
0.034213
-0.054022
-0.103018
-0.024301
-0.027390
-0.058003
-0.034051
-0.099266
-0.089326
0.018360
-0.072892
-0.087576
-0.113376
-0.025039
-0.048369
-0.004069
-0.013192
0.048898
-0.048463
0.003324
-0.054564
-0.037991
0.004761
0.033103
-0.029850
-0.030161
-0.071194
-0.091917
-0.069994
-0.032301
0.090960
-0.057905
-0.017929
0.012463
-0.159436
0.038391
-0.094560
-0.069467
0.014124
-0.030107
-0.057108
-0.052411
-0.044096
0.036417
-0.042469
0.045685
0.001032
-0.022527
0.076474
0.070463
0.052661
0.034762
0.005866
0.041071
0.029739
0.100711
0.126063
0.161691
0.113152
0.289494
0.170802
0.108966
0.213876
0.191382
0.127356
0.160886
0.080293
0.137353
0.162117
0.067846
0.114167
0.119514
0.095602
0.034067
0.126953
0.015004
0.044979
-0.002803
0.018001
-0.028737
-0.032761
0.002563
0.000585
-0.040847
0.061838
-0.030462
-0.042885
-0.103455
-0.012700
0.000916
-0.080382
-0.012096
0.033270
-0.059633
-0.052195
-0.049165
0.009322
0.077390
0.309800
0.579089
0.849993
1.216746
1.337042
1.300610
1.143115
0.745648
0.477236
0.098262
-0.182216
-0.190965
-0.251640
-0.161744
-0.067993
-0.061659
-0.030232
0.047026
0.099335
-0.050555
0.049726
0.074072
0.008829
0.041706
0.025677
0.068262
0.083825
0.125769
0.058088
0.119174
0.118404
0.121453
0.156629
0.219665
0.177105
0.291800
0.257568
0.201689
0.301656
0.423267
0.337003
0.350863
0.350594
0.404536
0.432557
0.469590
0.504022
0.467018
0.467223
0.451488
0.563128
0.547190
0.481457
0.495080
0.492329
0.533313
0.556473
0.440597
0.549544
0.520262
0.460273
0.467535
0.469829
0.450614
0.445429
0.307231
0.416459
0.391310
0.284248
0.326061
0.242632
0.319736
0.217953
0.252284
0.138284
0.190153
0.171185
0.145387
0.246098
0.140906
0.098044
0.147566
0.174377
0.108806
0.181102
0.080858
0.032304
0.057681
0.031979
-0.002097
-0.001510
0.040503
0.077552
0.091888
0.017310
0.010106
0.025802
0.018807
0.022459
0.042082
0.040674
0.033861
-0.031510
0.086208
0.010162
0.032188
-0.018680
0.042942
0.017137
0.057791
-0.001191
0.009539
-0.015613
0.074919
0.053407
0.076132
0.055591
0.044181
0.047983
0.054975
0.008203
0.034946
0.066578
0.011579
-0.001813
0.125868
-0.032134
-0.013473
-0.032875
0.039872
0.028771
0.159554
0.045052
0.068664
0.037671
0.030706
0.049552
0.121336
0.069829
0.038349
0.074691
0.063034
0.124944
0.090795
0.200851
0.095707
0.152725
0.082891
0.128179
0.189393
0.169543
0.209423
0.182854
0.186961
0.173314
0.178138
0.295946
0.229069
0.254103
0.205222
0.253750
0.220556
0.196977
0.204438
0.204704
0.305573
0.221783
0.205608
0.161962
0.207160
0.147887
0.124809
0.141767
0.177576
0.135234
0.049948
0.154158
0.098043
0.085638
0.096851
0.170432
0.050763
0.109880
0.033150
0.031794
0.071146
0.080149
0.138182
0.051208
0.026290
-0.003839
0.118482
0.097708
0.110119
0.235216
0.398362
0.721968
1.005612
1.297217
1.371053
1.439551
1.251514
0.860995
0.401312
0.191353
-0.085437
-0.136692
-0.152589
-0.032339
-0.039980
0.033072
0.099751
0.096502
0.138755
0.153192
0.097999
0.155154
0.078715
0.119580
0.172079
0.252643
0.201910
0.266394
0.221159
0.323333
0.224274
0.293553
0.370913
0.379685
0.342603
0.289681
0.384670
0.364485
0.503780
0.511135
0.456614
0.538262
0.460139
0.506265
0.503530
0.671888
0.558915
0.548890
0.595913
0.516969
0.614373
0.595592
0.541023
0.569057
0.587487
0.657082
0.638372
0.663859
0.574976
0.598122
0.515646
0.500250
0.468615
0.493400
0.502695
0.417176
0.412426
0.392839
0.433944
0.377219
0.425037
0.350907
0.235321
0.231692
0.275849
0.223656
0.219528
0.209080
0.207572
0.188614
0.184254
0.179864
0.149959
0.193103
0.129961
0.148942
0.095522
0.146821
0.173050
0.056034
0.108871
0.050358
0.138228
0.156245
0.116525
0.154056
0.099886
0.017783
0.161976
0.114819
0.081252
0.101206
0.059119
0.103638
0.105147
0.133319
0.061394
0.170690
0.098894
0.008770
0.086383
0.000461
0.135546
0.139595
0.071793
0.117939
0.092581
0.035968
0.097104
0.147063
0.081293
0.088957
0.044311
0.030261
0.098075
0.059562
0.083161
0.078138
0.111540
0.097454
0.114304
0.079173
0.087481
0.071503
0.107932
0.055837
0.096643
0.120803
0.126261
0.144772
0.091398
0.183625
0.017715
0.125190
0.119309
0.111470
0.141654
0.117725
0.146760
0.078115
0.200306
0.142501
0.168918
0.164721
0.290689
0.234338
0.181968
0.270544
0.238145
0.293528
0.297076
0.317817
0.211878
0.264922
0.270320
0.221071
0.218239
0.180497
0.263465
0.162397
0.206991
0.164535
0.154511
0.097835
0.100816
0.175295
0.061627
0.116791
0.150050
0.123513
0.075817
0.118214
0.126100
0.097748
0.070833
0.130980
0.070045
0.012475
0.054524
0.016054
-0.011630
-0.022813
0.002403
0.145373
0.168098
0.429663
0.783992
1.110864
1.208239
1.500000
1.326162
1.086898
0.783229
0.307774
0.091391
-0.083740
-0.056565
-0.109184
-0.027924
-0.003158
0.044884
0.014966
0.045790
0.130492
0.136165
0.054432
0.139541
0.061255
0.055153
0.134468
0.125920
0.150477
0.155097
0.112331
0.206988
0.167288
0.234592
0.340012
0.258833
0.309993
0.329094
0.240524
0.344106
0.354379
0.395502
0.345170
0.479175
0.412910
0.463707
0.563856
0.452112
0.443113
0.531318
0.412630
0.509805
0.446130
0.555507
0.518201
0.603430
0.543432
0.572624
0.551236
0.569520
0.627801
0.425271
0.418378
0.462749
0.420006
0.459521
0.437963
0.383228
0.374644
0.381701
0.328689
0.384236
0.260126
0.309848
0.226239
0.174876
0.161626
0.208662
0.155270
0.212613
0.085585
0.084528
0.119833
0.097836
0.022754
0.067396
-0.015834
0.008884
0.075963
0.022255
0.044696
-0.002017
-0.033949
0.028796
0.034794
0.035208
-0.052832
-0.031824
0.022745
0.022955
-0.040985
0.053462
0.033262
0.051646
0.043712
0.001231
0.013897
-0.079367
-0.062968
0.052344
-0.022321
0.005230
-0.039375
0.077673
-0.020198
0.009357
0.043268
-0.020551
-0.026341
0.022323
-0.051825
0.005203
0.011580
-0.059427
-0.056523
0.008972
-0.042850
-0.028324
-0.026406
-0.115541
-0.036623
-0.023889
-0.043294
-0.073073
0.006735
-0.003621
0.011623
-0.022001
0.023181
-0.070416
0.025596
0.022194
-0.055072
0.012274
-0.044628
0.064208
-0.087005
0.123714
0.029903
0.033849
-0.003609
0.002667
0.140367
0.148132
0.072260
0.045082
0.160997
0.117591
0.200091
0.103126
0.211253
0.150074
0.156191
0.193048
0.094491
0.096661
0.099473
0.166261
0.072119
0.089203
0.065727
-0.017125
0.050797
0.006113
0.073813
0.007578
0.014932
-0.081357
-0.000514
-0.036697
-0.009235
-0.084018
0.018482
-0.029203
-0.069450
0.012046
-0.021648
-0.090604
-0.055539
-0.156318
-0.059857
-0.079901
-0.022761
0.013875
-0.137283
0.002343
0.134640
0.399618
0.764839
0.909869
1.265434
1.308447
1.165035
0.953699
0.534180
0.114188
-0.024341
-0.225382
-0.275267
-0.215842
-0.299409
-0.093125
-0.049030
-0.091780
-0.038488
-0.050614
-0.026530
-0.023483
-0.058684
0.058889
-0.029664
0.073283
0.029919
-0.021082
0.111813
-0.046844
0.088949
0.133147
0.109085
0.156216
0.176711
0.110971
0.193534
0.290403
0.255205
0.256154
0.202106
0.284343
0.250663
0.296257
0.336557
0.420750
0.447764
0.395007
0.481923
0.383744
0.423338
0.336250
0.507690
0.421984
0.423433
0.465826
0.502800
0.385302
0.381332
0.377995
0.354503
0.447607
0.369966
0.295751
0.268168
0.267309
0.294355
0.258075
0.178829
0.229850
0.194866
0.191447
0.124712
0.141395
0.076654
0.081230
0.109820
0.140396
0.066866
0.045444
0.110475
0.023407
0.035229
-0.023157
-0.020634
-0.046371
-0.040996
-0.061496
0.048101
-0.064015
-0.045269
-0.112341
-0.010993
-0.070289
0.026939
-0.140161
-0.114614
-0.073411
-0.060852
-0.064186
-0.072538
-0.083952
-0.159370
-0.112516
-0.048806
-0.134954
-0.097361
-0.117496
-0.028257
-0.189683
-0.059277
-0.062168
-0.031903
-0.085914
-0.086628
-0.128302
-0.039124
-0.079438
-0.074895
-0.076690
-0.073068
-0.072258
-0.041363
-0.106094
0.019299
-0.097642
-0.086886
-0.057456
-0.126675
-0.074630
-0.124693
-0.012449
-0.098178
-0.139372
-0.056103
-0.049344
-0.113967
-0.109946
-0.039178
-0.009747
-0.046282
-0.006859
0.023189
-0.048080
0.049091
-0.085929
0.023802
0.026700
0.013116
-0.020449
0.038614
0.065252
0.056992
0.051527
0.106739
0.110593
0.079926
0.081086
-0.002861
0.077797
0.078455
0.155203
0.076753
0.140825
0.106426
0.122799
0.102859
0.075258
0.088233
0.056890
0.029927
-0.029903
0.046984
0.007492
0.082538
0.012551
0.014235
-0.018428
-0.041492
-0.070816
-0.010285
0.006099
-0.019755
-0.021154
0.006453
-0.111804
-0.117105
-0.014784
-0.035628
-0.074323
-0.082998
0.050571
-0.124778
-0.061657
0.032107
0.173234
0.388440
0.764203
1.132750
1.272080
1.243490
1.161759
0.815822
0.471793
0.105192
-0.115866
-0.220251
-0.294050
-0.298818
-0.122714
-0.105117
-0.064043
0.014755
-0.077820
-0.091453
-0.020275
0.017024
0.017611
0.024189
0.099585
0.057195
0.020956
0.020326
0.059385
0.007978
0.167587
0.236628
0.231363
0.153381
0.202375
0.152481
0.232341
0.244916
0.317197
0.330956
0.407571
0.341606
0.309462
0.419491
0.435171
0.473806
0.419317
0.385025
0.456788
0.422181
0.442337
0.410050
0.463360
0.529367
0.469263
0.412064
0.449122
0.493702
0.523146
0.442591
0.418517
0.401701
0.382258
0.324195
0.422189
0.346008
0.372053
0.297679
0.330842
0.265951
0.265110
0.198442
0.223511
0.189708
0.219899
0.187563
0.145754
0.139290
0.087624
0.066714
0.029873
0.099938
0.041121
0.091529
0.034818
0.022557
0.085474
-0.039289
0.043014
-0.007076
0.020539
-0.011868
-0.034502
-0.019146
0.010569
0.060801
0.063067
0.036484
0.007895
-0.029334
0.009498
-0.023201
0.007995
0.016568
0.051101
-0.054295
-0.020464
0.003477
0.070935
0.009313
-0.040238
0.004206
0.035957
0.057238
0.050904
-0.019832
0.002032
0.103940
0.040200
-0.021920
-0.015189
0.099551
-0.043205
-0.008768
0.095961
0.003686
0.000632
-0.001769
-0.015153
0.021112
0.002835
0.021113
0.033250
0.017392
0.046842
0.032208
0.003609
0.123614
-0.007172
-0.046557
0.024662
0.071032
0.025497
0.074162
0.142538
0.122203
0.115238
0.107063
0.092807
0.051797
0.133500
0.182311
0.109416
0.141020
0.259878
0.178551
0.294444
0.132653
0.148119
0.193942
0.215174
0.195195
0.233945
0.204616
0.240762
0.175100
0.173003
0.189218
0.123871
0.144326
0.146569
0.162299
0.151898
0.128730
0.202518
0.112478
0.116485
0.116353
0.030995
-0.028883
0.036659
0.061313
0.029966
0.005733
0.048480
0.037082
0.076501
0.013848
0.042768
-0.037523
0.035894
0.018518
0.009282
0.096421
0.151276
0.246085
0.651834
0.907637
1.163713
1.413520
1.423740
1.200385
0.885023
0.436500
0.225569
-0.101412
-0.138588
-0.164840
-0.099992
-0.018026
0.015506
0.033297
0.041473
0.100210
0.085683
0.018557
0.126490
0.102821
0.068673
0.131331
0.195729
0.136579
0.217689
0.173924
0.224437
0.160015
0.211199
0.188325
0.230811
0.259238
0.327954
0.332066
0.328467
0.356765
0.354756
0.411439
0.340092
0.496967
0.467409
0.406556
0.594113
0.479594
0.471090
0.496761
0.539005
0.477465
0.543360
0.498753
0.523930
0.630936
0.579330
0.540572
0.496196
0.566928
0.474815
0.454304
0.472880
0.495278
0.465932
0.483349
0.418583
0.467315
0.387448
0.422282
0.337326
0.323225
0.262200
0.300254
0.234957
0.236085
0.167781
0.251698
0.283282
0.136682
0.189549
0.167267
0.198334
0.119676
0.076503
0.034846
0.179984
0.040050
0.055617
0.004773
0.094151
-0.020778
0.009563
0.160745
0.092633
0.078527
0.070523
0.036694
0.009913
0.110846
0.038042
0.030162
0.065263
0.090799
0.077488
0.057569
0.027268
0.085104
0.074400
0.047835
0.073007
0.077352
0.002364
0.074703
0.003976
0.005999
0.030932
0.087808
0.061351
0.031338
-0.023594
0.048463
0.048469
-0.018425
0.044778
-0.007114
0.045491
-0.000637
0.015118
0.002655
0.087417
0.120186
0.135541
0.128098
-0.003357
0.071541
0.088386
0.065935
0.006348
0.055499
0.063870
-0.028602
0.132008
0.146497
0.079312
0.077339
0.084139
0.058326
0.142563
0.080898
0.142864
0.139044
0.153000
0.137377
0.220351
0.218980
0.154512
0.166771
0.207225
0.089706
0.237226
0.195529
0.177440
0.169032
0.240141
0.230039
0.170659
0.120500
0.219964
0.105598
0.102393
0.115828
0.082922
0.020383
0.067552
0.082949
0.050915
0.093453
0.035528
0.076026
0.061336
0.010161
0.037542
0.005415
-0.019839
-0.084555
0.048183
0.024458
0.029848
0.030080
0.014673
0.038838
-0.039344
-0.013656
0.091139
0.089232
0.310071
0.584387
0.939328
1.294080
1.408640
1.276069
1.080268
0.848952
0.358855
0.046084
-0.140270
-0.215729
-0.237340
-0.018578
-0.045586
-0.040476
0.041846
0.006132
-0.036876
0.110563
0.115241
-0.011255
0.029421
0.055913
0.078141
0.121626
0.047186
0.100158
0.166130
0.145170
0.145146
0.189681
0.195386
0.249058
0.185638
0.261743
0.245428
0.355615
0.292056
0.376059
0.293172
0.424756
0.367406
0.410018
0.369119
0.457976
0.479890
0.447472
0.397614
0.527763
0.413558
0.534247
0.514304
0.545619
0.428643
0.470975
0.449539
0.378002
0.486868
0.348596
0.462110
0.437682
0.397270
0.429664
0.290045
0.348153
0.353614
0.340136
0.288312
0.223744
0.306357
0.275381
0.166007
0.163448
0.183958
0.115716
0.083406
0.005598
0.132880
0.056745
0.035354
0.066543
-0.106286
0.040222
0.035727
0.022787
0.015527
-0.062561
-0.093446
0.007984
0.006547
-0.022056
-0.060628
0.010399
0.011995
-0.066593
-0.103903
0.035672
-0.118143
-0.053915
-0.055956
-0.177238
-0.085218
-0.010334
-0.024304
-0.068211
-0.013268
-0.062245
-0.026441
-0.110804
-0.081529
-0.065661
-0.020524
-0.074321
-0.075544
-0.011991
-0.046280
-0.071644
-0.061811
-0.077424
-0.034710
-0.079711
0.055547
-0.133860
-0.075782
-0.134972
0.000855
-0.071087
-0.137154
-0.063814
-0.054294
-0.054932
-0.179971
-0.062305
-0.095071
-0.041812
-0.062187
-0.034596
-0.081933
-0.037686
-0.045867
-0.031428
-0.016075
-0.001492
0.058087
0.018738
-0.041323
-0.007746
-0.020756
-0.021337
-0.020895
0.070256
0.053509
-0.025078
0.101907
0.096947
0.076787
-0.031587
0.135198
0.115604
0.067373
0.142197
0.121024
0.024135
0.062031
0.151055
0.069026
0.026059
0.083134
0.089668
0.044368
0.067777
0.023266
-0.034980
0.035658
-0.069249
0.002813
-0.080785
-0.038645
-0.057547
-0.060078
-0.028691
-0.113871
0.006274
-0.073587
-0.105163
-0.014608
-0.070876
-0.188761
-0.050978
-0.151568
-0.089095
-0.078797
-0.038627
0.100132
0.296804
0.563052
0.929353
1.228987
1.257500
1.191934
1.000151
0.607985
0.203045
-0.140907
-0.170482
-0.311354
-0.335120
-0.184877
-0.088497
-0.093299
-0.107169
0.061091
-0.092655
-0.069544
-0.000697
-0.005869
-0.001696
-0.021367
-0.061322
0.000073
-0.047107
-0.017101
0.016373
0.085172
0.159576
0.122780
0.029418
0.086648
0.086583
0.139787
0.212326
0.216170
0.196510
0.195999
0.275379
0.352651
0.298286
0.396027
0.378183
0.337440
0.240684
0.345859
0.390685
0.336697
0.411188
0.477268
0.432820
0.424238
0.422259
0.397147
0.412111
0.356100
0.375036
0.314244
0.328442
0.447588
0.316136
0.387126
0.206062
0.237089
0.235001
0.220555
0.233093
0.188130
0.120898
0.165244
0.137308
0.008099
0.135358
0.088400
0.083179
0.140771
-0.006871
-0.029621
-0.054483
-0.041983
-0.082710
-0.057197
-0.072803
-0.034505
-0.041864
0.042947
-0.163580
-0.106239
-0.070989
-0.158275
-0.121581
-0.110513
-0.006798
-0.010224
-0.105854
-0.088308
-0.148942
-0.083899
-0.134586
-0.083920
-0.080323
0.014850
-0.119134
-0.146824
-0.126036
-0.118104
-0.061838
-0.024502
-0.118968
-0.069065
-0.060815
-0.081318
-0.160338
-0.060381
-0.121604
-0.022788
-0.133267
-0.105186
-0.037162
-0.036586
-0.100394
-0.112626
-0.114088
-0.111015
-0.094744
-0.069271
-0.069937
-0.013806
-0.148188
-0.001371
-0.079662
-0.086492
-0.117256
-0.057174
-0.061393
-0.063920
-0.066694
-0.081335
-0.101750
-0.057001
-0.040134
-0.046859
-0.070432
0.043101
-0.002868
-0.023938
0.032164
-0.009364
-0.058453
0.115772
0.102163
0.032148
0.131255
0.043179
0.197270
0.107551
0.145299
0.061630
0.119821
0.084098
0.138622
0.103190
0.102280
0.023898
-0.021888
0.001158
0.012081
0.047518
0.128080
0.022486
0.012211
0.005688
0.006228
0.012797
0.038903
0.072574
-0.090138
-0.091058
-0.031154
0.021319
-0.085673
-0.091245
-0.055308
-0.064861
-0.060100
-0.048777
-0.002163
-0.071193
-0.101438
-0.058404
-0.051315
-0.035623
0.181084
0.340879
0.657615
0.981247
1.299963
1.337233
1.182693
0.932999
0.590399
0.172585
-0.129749
-0.134439
-0.278770
-0.237585
-0.082219
-0.078307
0.039578
-0.067106
0.031337
0.132491
0.031880
0.063919
-0.014616
0.039842
-0.026952
0.025939
0.014662
0.143416
0.054532
0.069509
0.021218
0.089448
0.126469
0.222375
0.247635
0.139366
0.197767
0.310263
0.256138
0.280985
0.370450
0.248346
0.377033
0.345273
0.353708
0.469659
0.472049
0.400864
0.414346
0.473129
0.439682
0.431688
0.501742
0.531594
0.584417
0.430816
0.418105
0.419480
0.419777
0.484428
0.563310
0.472700
0.411901
0.452416
0.382695
0.392698
0.313809
0.431833
0.242473
0.344505
0.226823
0.252907
0.168472
0.223098
0.108923
0.231064
0.111418
0.169032
0.149887
0.127298
0.140210
0.032031
0.065322
0.087286
0.056748
0.117418
0.108458
0.063563
0.067369
0.064864
0.038099
0.038411
0.031985
0.068082
0.039686
0.012202
0.015466
0.008734
-0.000289
-0.066776
0.043372
0.001125
-0.002729
0.063216
-0.002095
0.000747
0.043026
0.040053
0.012272
0.024608
0.007966
0.029669
-0.005955
-0.033764
0.027148
0.015234
0.029823
0.049236
-0.008521
0.026854
-0.011259
-0.056952
-0.006068
0.112057
-0.026795
0.110465
-0.040492
-0.011713
0.034221
0.058511
0.061103
0.058904
-0.034856
-0.033284
0.060475
0.027726
0.017818
0.063571
0.009528
0.071224
0.006301
0.055477
0.051180
0.102275
0.023059
0.113051
0.099391
0.127588
0.087198
0.115850
0.115823
0.114894
0.207479
0.159381
0.148791
0.198758
0.192565
0.282380
0.199094
0.195207
0.285853
0.234354
0.189177
0.206473
0.245110
0.237499
0.242193
0.105230
0.205957
0.229872
0.177438
0.157543
0.180716
0.100967
0.144595
0.090532
0.180437
0.106913
0.155362
0.031543
0.070079
0.050345
0.080113
0.018847
0.033469
0.063121
0.156096
0.056711
0.040310
0.135545
0.059155
0.077655
0.084501
0.089998
0.177202
0.272147
0.565810
0.841984
1.167071
1.365271
1.492820
1.305685
1.051958
0.745539
0.229487
-0.023245
-0.112980
-0.132603
-0.083805
-0.088879
0.060418
0.019915
0.077276
0.064630
0.048668
0.144854
0.079468
0.118791
0.114409
0.093904
0.117434
0.076627
0.181133
0.256447
0.240111
0.222705
0.224348
0.214299
0.292523
0.270725
0.353562
0.327303
0.377402
0.339308
0.395081
0.417771
0.468894
0.381168
0.522937
0.477682
0.385127
0.499746
0.585025
0.555835
0.543241
0.605305
0.556805
0.541836
0.575907
0.573014
0.536363
0.576913
0.633794
0.547217
0.511246
0.550435
0.477782
0.439645
0.462234
0.469045
0.453160
0.496709
0.405338
0.424546
0.371829
0.371171
0.314675
0.271660
0.276143
0.205925
0.237840
0.230756
0.166792
0.256821
0.218362
0.198653
0.277096
0.173169
0.171867
0.116601
0.181778
0.120809
0.048897
0.105379
