0.015993
0.018732
0.018163
-0.028016
-0.004273
0.014226
0.005758
-0.043100
0.039620
0.024053
-0.020494
0.010931
0.020536
-0.050019
-0.014501
0.102095
0.012160
0.066334
0.020494
-0.002716
-0.023491
0.057501
0.093021
0.078575
0.002468
0.010645
0.001841
0.025959
0.105737
0.042759
0.080357
0.151536
0.172465
0.139005
0.134519
0.066406
0.127802
0.145419
0.227848
0.173440
0.094731
0.220763
0.124765
0.262583
0.272474
0.203627
0.197126
0.179768
0.214962
0.145468
0.104497
0.215673
0.120005
0.117666
0.117804
0.135227
0.096662
0.063223
0.081010
0.032087
-0.019288
0.067158
0.053006
0.100398
0.036159
0.087163
0.011253
0.089377
0.044453
0.051546
0.050180
0.009265
0.020136
0.046077
0.020426
-0.082439
0.033720
-0.038253
0.065457
0.066883
0.053068
-0.003343
0.246299
0.419773
0.749763
1.007951
1.334835
1.472123
1.364982
1.070745
0.792577
0.385868
0.111288
-0.040869
-0.183794
-0.158084
-0.081781
-0.013709
-0.037158
0.057599
0.101938
0.062272
0.107205
0.099319
0.076957
0.028651
0.068564
0.135078
0.142106
0.058689
0.181484
0.118518
0.087050
0.215121
0.129293
0.126041
0.221552
0.236319
0.202299
0.217823
0.267653
0.196803
0.328985
0.354694
0.279835
0.315149
0.377131
0.297072
0.424821
0.450242
0.479713
0.412982
0.475292
0.543928
0.433445
0.542511
0.622842
0.570728
0.559932
0.548722
0.525431
0.559303
0.531867
0.559639
0.534733
0.567760
0.564253
0.553427
0.595721
0.502418
0.594497
0.528374
0.413798
0.468330
0.492305
0.429220
0.372372
0.359905
0.349386
0.401437
0.326072
0.333944
0.285309
0.270795
0.239260
0.257083
0.194693
0.144025
0.179332
0.196286
0.129936
0.215251
0.160878
0.130658
0.152848
0.102380
0.111923
0.122091
0.057082
0.135281
0.038754
0.061960
0.119643
0.060987
0.130868
0.104645
0.084939
0.049827
0.132088
-0.017731
0.105680
0.108787
0.058474
0.067150
0.094646
0.120641
0.069973
0.019156
0.072673
0.120405
0.112327
0.115033
0.016246
0.110302
0.102323
0.116467
0.072672
0.060642
0.152261
0.071292
0.061655
0.109753
0.117892
0.195234
0.131870
-0.008357
0.097361
0.103917
0.095730
0.131388
0.065404
0.108547
0.040102
0.111779
0.032852
0.048912
0.165698
0.096317
0.092292
0.100889
0.077186
0.068480
0.037622
0.098806
0.135498
0.052614
0.100447
0.064181
0.149835
0.058851
0.159549
0.100895
0.063482
0.134458
0.050191
0.164076
0.094120
0.136668
0.200197
0.117083
0.187919
0.226756
0.256942
0.237814
0.270950
0.212687
0.215168
0.231413
0.226497
0.223119
0.280326
0.228209
0.222712
0.231324
0.214275
0.201362
0.293036
0.251352
0.131171
0.146679
0.199317
0.179639
0.148793
0.106579
0.112822
0.125991
0.130405
0.153036
0.105732
0.138397
0.206675
0.105022
0.126753
0.035251
0.098579
0.036974
0.100227
0.070802
-0.041021
0.056417
0.015068
0.046532
0.079956
0.006514
0.042761
0.091688
0.002991
0.041481
0.062407
0.165665
0.277818
0.614627
0.907643
1.238835
1.454830
1.336348
1.205407
0.883954
0.531377
0.255703
-0.026360
-0.160112
-0.158646
-0.126882
-0.151129
-0.006512
0.026123
0.105438
0.058494
0.012647
0.005776
0.136566
0.042337
0.053695
0.085383
0.086147
0.069550
0.099821
0.117276
0.127598
0.104429
0.131156
0.164384
0.151267
0.150384
0.227752
0.187335
0.119205
0.288298
0.269558
0.317290
0.213489
0.326428
0.343484
0.344777
0.332508
0.351820
0.365502
0.387929
0.443943
0.454907
0.491251
0.434453
0.589748
0.512353
0.631074
0.457492
0.575274
0.510539
0.542272
0.470616
0.532565
0.600773
0.555840
0.528478
0.520376
0.447629
0.478873
0.404090
0.409450
0.403815
0.393962
0.370066
0.373884
0.322547
0.253972
0.272527
0.283318
0.255249
0.230786
0.226161
0.173803
0.097238
0.120432
0.182776
0.108184
0.187380
0.116582
0.106044
0.083444
0.157478
0.041785
0.066400
0.073052
0.078550
0.077130
0.120020
0.043657
-0.037220
0.068613
0.071064
0.096626
-0.010445
0.045650
0.017223
-0.014500
0.001866
0.029312
-0.027850
0.041381
0.023274
-0.019227
0.045270
0.035410
0.128206
0.009334
-0.015260
0.001391
-0.023467
-0.050302
-0.038483
0.022037
-0.010785
-0.064490
0.036210
-0.025262
-0.058663
-0.003236
0.008672
0.047357
-0.080209
0.016512
0.030843
0.014292
-0.044270
-0.000931
-0.037783
-0.008796
0.010015
0.056043
-0.011777
0.036946
0.065934
-0.037656
0.000347
-0.018682
0.018720
-0.016032
0.011756
-0.027884
-0.058577
0.015010
-0.051995
-0.024010
-0.028778
-0.014786
-0.007986
0.008936
0.029171
0.041628
-0.004195
0.100363
0.030438
0.125268
0.092298
0.094891
0.039483
0.100502
0.027646
0.146892
0.112223
0.154540
0.145816
0.124074
0.102119
0.158680
0.144555
0.134994
0.180427
0.109799
0.064588
0.149456
0.049238
0.158791
0.219044
0.182288
0.036263
0.100153
0.047859
0.077245
0.083566
0.034064
0.012460
0.068215
0.064308
-0.106210
0.039633
0.040487
-0.001174
0.006202
-0.017018
-0.056552
-0.063868
-0.084970
-0.001232
0.004326
-0.033434
-0.001753
0.004461
-0.112181
-0.115475
-0.103166
-0.039226
-0.106337
-0.022341
-0.094015
-0.038115
0.146839
0.500496
0.773462
1.021742
1.166529
1.367223
1.239859
0.911383
0.648049
0.238453
-0.048900
-0.145914
-0.212682
-0.317746
-0.241334
-0.093003
-0.103837
-0.066231
-0.056182
-0.087279
-0.039028
-0.022019
-0.042102
0.059181
-0.034365
-0.081139
0.012860
-0.051818
-0.056920
0.009586
0.060440
0.000909
0.100522
0.087572
0.045729
0.124003
0.150490
0.169508
0.155295
0.162570
0.141427
0.160348
0.255995
0.246435
0.223380
0.341401
0.258905
0.347223
0.334157
0.311205
0.316853
0.378480
0.360412
0.434727
0.451701
0.393954
0.451012
0.462336
0.476957
0.412446
0.512615
0.430218
0.446171
0.414955
0.404899
0.425133
0.477460
0.338917
0.339495
0.297793
0.438203
0.327124
0.280962
0.315427
0.262101
0.183393
0.248798
0.226463
0.131491
0.106081
0.040265
0.135350
0.193870
0.056529
0.016898
0.079733
-0.016621
0.045103
0.071770
0.013862
-0.002552
-0.010502
-0.040637
-0.054219
0.043451
-0.050502
-0.030083
-0.015446
-0.050927
-0.069059
-0.049528
0.027385
-0.052917
0.014269
0.073513
-0.016281
-0.085614
-0.033326
-0.036166
-0.016863
-0.028582
0.068741
-0.060620
-0.055289
-0.039117
-0.092151
-0.096617
-0.097285
-0.053003
-0.045116
-0.073719
0.069994
-0.080637
0.018839
0.018879
-0.054766
-0.084307
-0.097682
-0.009784
-0.013916
-0.101266
-0.008332
-0.028254
-0.034494
0.008770
-0.022260
-0.016804
-0.087461
-0.014012
-0.021595
-0.019051
0.041179
0.022009
0.000481
-0.048155
0.030864
-0.057088
-0.021607
-0.081538
-0.026726
0.009412
-0.072590
0.021393
-0.043810
-0.032045
0.061285
-0.029179
0.003360
0.010040
0.012552
-0.003803
-0.003732
-0.063166
-0.001993
0.051906
-0.007640
0.049755
0.049398
0.087304
0.023890
0.203343
0.109617
0.125360
0.136298
0.173920
0.107604
0.085046
0.142430
0.180527
0.195991
0.201764
0.147707
0.176889
0.156287
0.149395
0.134297
0.072061
0.180205
0.101089
0.002364
0.056678
0.141876
0.072040
0.041695
0.030278
0.014258
-0.001252
0.026403
0.024163
0.041441
-0.058395
0.067755
-0.047082
0.020671
-0.000982
-0.064940
0.016574
0.035972
-0.030591
-0.004014
0.145741
-0.027156
-0.050025
-0.002311
-0.039223
-0.006662
0.024067
0.039927
0.334736
0.629260
0.980343
1.299783
1.288387
1.361937
1.203482
0.781250
0.407642
0.100392
-0.110851
-0.231815
-0.231364
-0.194236
-0.203141
-0.067145
-0.055292
0.004723
-0.038846
-0.017505
0.062524
-0.025602
0.050012
0.087655
0.079156
0.012854
0.194960
0.101800
0.173351
0.145875
0.120149
0.183815
0.130448
0.183496
0.186935
0.133733
0.239576
0.090329
0.216955
0.305065
0.270724
0.279468
0.328804
0.343630
0.366449
0.381090
0.418985
0.447543
0.433767
0.473869
0.422859
0.448236
0.509753
0.536930
0.513812
0.518299
0.602472
0.565265
0.528941
0.546370
0.606150
0.535232
0.553780
0.474958
0.557440
0.537663
0.490866
0.503020
0.518922
0.390619
0.477312
0.470267
0.371207
0.361079
0.385735
0.329964
0.270763
0.313111
0.312730
0.304798
0.199843
0.268101
0.249003
0.202678
0.141252
0.165424
0.131089
0.127092
0.092223
0.200165
0.069687
0.170680
0.156070
0.091241
0.021808
0.049579
0.147182
0.106941
0.116172
0.028366
0.109564
0.081783
0.077113
0.104601
0.098805
0.027097
0.094531
0.035914
0.105893
0.062686
0.047965
0.006776
0.087650
0.098522
0.149333
0.065263
0.018568
0.044321
0.073940
0.101114
0.053595
0.080832
0.167024
0.101344
0.051726
0.086577
0.007836
0.045521
0.093414
0.082874
0.100510
0.047564
0.152188
0.105782
0.064736
0.024721
0.034034
0.098262
0.110726
0.111748
0.061262
0.056625
0.094463
0.101735
0.078067
0.089101
0.061297
0.029128
0.124828
0.065730
0.065114
0.025614
0.136682
0.112767
0.077593
0.013813
0.153390
0.178687
0.098975
0.171952
0.120225
0.121893
0.120848
0.085156
0.224179
0.217839
0.160887
0.187610
0.127045
0.157756
0.205495
0.193498
0.308855
0.214970
0.318031
0.254802
0.359573
0.273753
0.277537
0.300037
0.280465
0.220119
0.222531
0.231937
0.190263
0.232628
0.146173
0.206540
0.249800
0.192201
0.218877
0.153449
0.166390
0.155478
0.212861
0.113299
0.118179
0.075601
0.106045
0.174306
0.141499
0.095663
0.134571
0.142327
0.108264
0.093423
0.135089
0.105845
-0.035471
0.039073
0.106358
0.069663
0.101225
0.049780
0.060580
0.066767
0.135878
0.358098
0.602861
1.000924
1.272579
1.380153
1.363106
1.261431
1.006897
0.542418
0.372103
0.088710
-0.107620
-0.173517
-0.219661
-0.103896
-0.104494
0.002078
0.080741
0.028075
0.019700
0.048398
0.135097
0.055111
0.170891
0.110555
0.192716
0.106076
0.171482
0.193199
0.125017
0.142131
0.159556
0.166822
0.205284
0.201582
0.290466
0.182379
0.286976
0.322193
0.295893
0.252723
0.293506
0.296094
0.286217
0.435861
0.394144
0.495930
0.477703
0.514023
0.579867
0.476187
0.499359
0.533321
0.555595
0.532955
0.596440
0.605433
0.586359
0.577264
0.580153
0.583310
0.481675
0.605718
0.577776
0.564301
0.530524
0.499094
0.522417
0.443390
0.510521
0.477247
0.473906
0.454398
0.371321
0.391243
0.385648
0.319187
0.311664
0.356388
0.197294
0.242847
0.199344
0.244817
0.194393
0.192677
0.143869
0.166215
0.132576
0.164120
0.242690
0.108819
0.099111
0.078549
0.076018
0.118567
0.091768
0.075102
0.185152
0.096961
0.096517
0.042314
0.107794
0.063736
0.064887
0.046823
0.016249
-0.003236
-0.010678
0.043281
0.064964
0.047582
0.088027
0.043746
0.051280
0.073647
0.049488
0.127365
0.102774
0.024473
0.059641
0.025546
0.086513
0.100556
0.060928
0.012354
0.052117
-0.010722
0.099068
-0.003464
0.012639
0.113519
0.081286
0.040723
0.043530
0.087694
0.022585
0.044253
0.059164
0.005096
0.068996
-0.021857
-0.051173
0.033348
-0.013614
-0.037469
-0.020452
-0.029966
0.049548
0.041123
0.086735
0.071079
-0.008803
0.058266
0.030300
0.001383
0.099905
0.038326
0.064249
0.061459
0.063704
0.022739
0.009332
0.098927
0.040774
0.031336
0.056331
0.100730
0.143783
0.124629
0.157943
0.171952
0.146025
0.154104
0.142626
0.147390
0.159665
0.108614
0.192335
0.213513
0.174552
0.180756
0.213068
0.192020
0.165367
0.124452
0.126619
0.150278
0.158242
0.143315
-0.004727
0.154775
0.059819
0.102262
-0.013034
0.088819
-0.048935
0.021426
0.040225
0.015479
0.018380
0.006813
0.003473
-0.001354
-0.006692
0.032298
-0.061459
-0.053556
-0.032176
0.016854
0.021733
0.032091
-0.059581
-0.054582
-0.092187
-0.044734
-0.085360
-0.014021
0.138536
0.445999
0.617591
1.085321
1.235252
1.413762
1.289294
1.039932
0.712803
0.339092
0.020959
-0.211240
-0.205195
-0.329024
-0.199428
-0.136834
-0.052231
-0.044055
-0.100174
-0.008030
0.010248
-0.088622
-0.022614
-0.038481
-0.072908
0.031628
-0.001294
0.038191
-0.005711
0.049974
-0.020649
0.067616
0.068692
0.059702
0.081717
0.044698
0.099621
0.218092
0.175443
0.139133
0.116982
0.230785
0.175487
0.243668
0.235641
0.253403
0.253846
0.298736
0.368393
0.424079
0.319374
0.415955
0.387055
0.440145
0.512147
0.389897
0.482789
0.490236
0.486822
0.463351
0.485876
0.446659
0.448339
0.400975
0.347317
0.434541
0.400084
0.409711
0.413630
0.356777
0.411460
0.309452
0.326324
0.262238
0.296920
0.237641
0.145454
0.131565
0.127783
0.147245
0.094498
0.149965
0.154563
0.175467
0.079115
0.051815
-0.023505
0.020783
0.022989
0.006947
-0.044077
-0.045113
0.000398
0.005028
0.016068
-0.047705
0.074374
-0.009888
-0.063942
-0.046436
-0.044846
-0.135227
-0.062882
-0.008968
-0.078406
-0.061359
-0.112592
-0.080643
-0.015702
-0.133573
-0.072704
-0.033632
-0.027943
-0.068400
-0.051901
-0.049096
-0.100011
-0.027555
-0.081655
-0.022973
-0.038972
-0.052849
-0.045620
-0.090309
-0.078067
-0.068322
-0.088734
-0.015053
-0.058930
-0.114226
-0.062566
-0.099108
-0.127510
-0.073070
-0.056122
-0.077778
-0.099457
-0.105512
-0.108025
-0.056266
-0.136676
-0.096782
-0.111450
-0.089326
-0.043581
-0.078986
-0.076625
-0.049595
-0.041647
-0.087301
-0.013470
-0.032449
-0.112036
-0.030817
0.034592
-0.081024
-0.073287
-0.054895
0.002960
-0.074107
-0.008883
-0.133464
0.031044
-0.011098
-0.011311
0.031535
0.084702
-0.030421
0.038240
0.037455
0.013594
0.073800
0.086833
0.066071
0.072097
0.083454
-0.031570
-0.021629
0.151243
-0.025980
0.036937
0.115477
0.037359
0.084514
0.041337
0.035858
0.113393
0.086026
0.073035
0.042978
0.050510
-0.062743
0.037859
-0.046923
0.010240
-0.082686
-0.047734
-0.108170
-0.103210
-0.055698
-0.070380
-0.084254
-0.033667
-0.044856
-0.019427
-0.032002
-0.079498
-0.070894
-0.146837
-0.031992
-0.036560
-0.061057
-0.168970
-0.067957
-0.112131
-0.114532
-0.045270
0.097334
0.253144
0.455281
0.795366
1.128908
1.237008
1.260823
1.119351
0.769016
0.420040
0.083121
-0.169959
-0.247111
-0.318379
-0.303655
-0.280022
-0.074116
-0.147819
-0.030325
-0.036415
-0.111896
-0.019278
-0.104700
-0.004679
-0.040673
0.024369
-0.012049
-0.006511
-0.001246
0.043793
-0.014471
-0.000248
-0.009225
0.005882
0.040498
0.062776
0.101392
0.090984
0.235500
0.181144
0.145214
0.274169
0.307917
0.192795
0.206192
0.283383
0.299700
0.328795
0.298268
0.333075
0.329974
0.341243
0.393999
0.359860
0.366652
0.473049
0.369754
0.440712
0.480186
0.503529
0.444406
0.384144
0.392833
0.394927
0.447466
0.417280
0.429283
0.364469
0.409182
0.411902
0.378905
0.287978
0.300822
0.241592
0.239195
0.214831
0.265182
0.204638
0.140657
0.212327
0.149007
0.105020
0.117771
0.124086
0.077794
0.080318
0.122806
0.087331
0.093680
0.079682
-0.055236
-0.023045
-0.062765
-0.015274
-0.010416
-0.032332
0.036742
-0.023651
-0.048497
-0.074730
-0.023473
-0.030112
-0.016178
-0.114508
-0.031934
-0.016255
-0.033625
-0.030835
-0.047454
-0.064423
-0.012986
0.030759
-0.013209
-0.066505
0.029188
-0.009480
-0.047788
0.010643
0.014799
-0.075035
-0.015012
-0.000236
-0.016880
-0.047731
0.044594
-0.036734
-0.001188
0.043186
-0.010516
0.028186
-0.038373
-0.016093
-0.003483
0.046658
0.003286
-0.001051
-0.001370
-0.038937
-0.091123
0.011805
-0.018360
-0.026248
0.001608
-0.028071
0.032447
-0.026872
-0.072841
-0.005851
0.018006
-0.097668
-0.068563
0.030355
0.042574
0.047551
0.056304
0.001557
-0.018891
-0.062853
0.001124
0.012074
-0.013213
0.059568
0.023817
0.033913
0.110130
0.146619
0.087154
0.069396
0.116891
0.125533
0.072817
0.171702
0.186069
0.150265
0.177394
0.158211
0.131274
0.150386
0.194201
0.162662
0.191470
0.168679
0.223375
0.179930
0.241989
0.170042
0.118216
0.196738
0.115471
0.048100
0.094848
0.133574
0.154587
0.096890
0.086887
0.124201
0.112038
0.007882
0.142440
-0.016174
0.034848
0.000863
-0.005544
0.073419
-0.005207
-0.003959
0.094612
0.099774
-0.035848
0.061633
0.040543
0.025061
0.026451
-0.057633
0.021521
0.019225
-0.064496
0.109172
0.196795
0.484739
0.819127
1.128927
1.370585
1.403566
1.293928
1.013255
0.601537
0.253779
0.018409
-0.187368
-0.185150
-0.226034
-0.119649
-0.105090
0.035732
0.048160
0.025468
0.063590
0.065173
0.020947
-0.035130
0.025880
0.024441
0.073386
0.105208
0.030082
0.174499
0.103075
0.078983
0.130758
0.092088
0.147642
0.115570
0.210175
0.255954
0.256654
0.212435
0.213738
0.197161
0.277677
0.235130
0.325986
0.380429
0.324431
0.342931
0.399959
0.312482
0.486700
0.450422
0.474097
0.462043
0.504281
0.445502
0.492168
0.560233
0.565184
0.582055
0.560177
0.566824
0.532753
0.492264
0.479841
0.482624
0.477658
0.547265
0.478294
0.445255
0.416504
0.384065
0.426933
0.411326
0.355859
0.367748
0.286536
0.233695
0.229520
0.325470
0.177327
0.303524
0.248014
0.175084
0.254816
0.204828
0.144820
0.094367
0.054413
0.159406
0.100107
0.052191
0.099078
0.144044
0.097100
0.107215
0.111052
0.077630
0.060674
0.135622
0.001423
0.006930
-0.006407
0.047253
0.032821
0.041822
0.020008
0.076541
-0.016066
0.026341
0.067806
-0.021118
0.043882
0.039809
0.048079
-0.000147
0.035738
0.031816
0.046591
0.071799
0.075381
0.048707
0.022766
0.066453
0.081594
0.123070
0.059841
0.093406
0.087605
0.142431
0.051282
0.015417
0.012044
-0.024640
0.104074
0.009697
0.054120
0.033897
0.096546
0.026844
0.073235
0.001368
0.039178
-0.004789
0.040322
-0.018957
0.112100
-0.005870
0.092353
0.069571
-0.002644
-0.031459
0.042323
0.036458
0.007658
-0.000781
0.080563
0.056241
0.083381
-0.042967
0.086526
0.091685
0.133108
0.105872
0.112524
0.087439
0.134417
0.136642
0.153058
0.189815
0.159886
0.198257
0.130415
0.139003
0.188472
0.159446
0.229408
0.181294
0.287014
0.234081
0.093736
0.287394
0.192640
0.196052
0.250897
0.139842
0.227490
0.089948
0.147964
0.189452
0.080928
0.036955
0.174813
0.081984
-0.013909
0.068976
0.088836
0.073946
0.027888
0.056323
0.098020
0.032367
0.061918
0.001417
-0.001497
0.121858
0.055047
0.020912
-0.006947
-0.051017
0.061378
-0.034170
0.061958
0.060419
0.039411
0.002899
-0.063699
0.036339
0.216236
0.343509
0.713485
1.036510
1.210340
1.393774
1.243927
1.088030
0.694200
0.408620
0.084956
-0.133854
-0.194040
-0.359593
-0.178876
-0.111879
-0.123645
0.036694
0.041382
-0.022117
-0.028535
0.139359
0.091429
0.076822
0.018877
0.002154
-0.014555
0.048859
0.056659
0.107126
0.060958
0.158190
0.092378
0.079056
0.084034
0.161543
0.044027
0.141953
0.186201
0.216896
0.245880
0.236673
0.163724
0.156206
0.200633
0.240214
0.287353
0.297120
0.346204
0.373897
0.357875
0.506438
0.398859
0.424219
0.511223
0.458394
0.464058
0.469877
0.466639
0.420959
0.475047
0.558374
0.479707
0.448997
0.458393
0.412815
0.465822
0.404740
0.428236
0.407878
0.365673
0.276068
0.296193
0.326468
0.315365
0.254355
0.212057
0.255987
0.185264
0.155099
0.192274
0.216570
0.165281
0.111704
0.052325
0.034850
0.058392
0.024423
0.021746
0.063715
0.011364
0.030537
0.005082
-0.033865
-0.043876
-0.067855
-0.002505
0.009092
0.008541
0.004644
0.003382
-0.015868
-0.080156
-0.037878
-0.039293
0.091812
-0.090408
-0.099020
-0.040489
-0.111827
-0.045189
-0.006908
-0.062099
-0.003774
-0.006466
-0.134813
-0.026742
-0.042798
-0.165416
-0.127631
-0.078578
-0.086608
-0.157658
0.034764
0.045438
-0.099003
-0.060186
-0.029438
-0.090181
-0.047829
-0.069707
-0.067401
-0.059537
-0.152992
-0.051091
-0.118809
-0.089857
-0.046348
-0.016734
0.006447
-0.072921
-0.021592
-0.062371
-0.014889
-0.059369
-0.003855
-0.116609
0.011810
-0.092313
-0.013015
-0.023567
-0.017412
-0.090406
-0.128917
-0.134136
-0.075152
-0.074233
-0.050189
-0.025218
-0.004170
-0.050653
-0.048983
-0.022957
0.011332
-0.085985
0.022583
0.038737
-0.013384
-0.008674
0.057961
0.014114
0.044936
0.113981
0.038661
0.058385
0.074906
0.100614
0.118371
0.084670
0.070169
0.133043
0.159651
0.008820
0.115547
0.135183
0.075191
0.026440
0.085765
0.015322
0.066906
-0.024521
-0.022517
0.002072
0.041362
-0.031008
0.006461
-0.054897
-0.068621
0.002881
-0.093309
-0.049860
-0.160276
-0.047409
-0.118288
-0.108472
-0.124657
-0.066593
-0.120018
-0.166249
-0.020949
-0.076200
-0.151268
-0.051144
-0.117273
-0.186978
-0.149600
-0.147975
-0.090884
0.229556
0.524386
0.650346
0.993133
1.240260
1.260129
1.182065
0.897049
0.453948
0.078643
-0.182788
-0.264264
-0.367841
-0.314518
-0.297011
-0.190865
-0.127480
-0.074238
-0.048466
-0.101593
-0.146972
-0.161745
-0.161796
-0.055732
-0.089107
-0.031415
-0.027722
-0.035714
-0.004223
0.029033
0.011347
-0.022705
0.050360
0.052724
-0.024253
0.028004
0.054463
0.031265
0.055989
0.140474
0.099190
0.246971
0.153797
0.268019
0.175155
0.163324
0.344811
0.213109
0.353334
0.290439
0.361273
0.346670
0.342654
0.389409
0.394870
0.415925
0.370516
0.419622
0.461902
0.383970
0.339472
0.385466
0.393148
0.401739
0.376921
0.353963
0.475514
0.361489
0.278600
0.238818
0.299076
0.265224
0.281745
0.219922
0.199338
0.148642
0.198712
0.121247
0.149910
0.112006
0.084157
0.081951
0.115905
0.108782
0.004924
0.033031
-0.045003
0.023166
0.040214
0.012473
0.023676
-0.040258
-0.029830
-0.051114
-0.126008
-0.100020
-0.023302
-0.051795
-0.176567
-0.094798
-0.017598
-0.087044
-0.051010
-0.094150
-0.069819
-0.086983
-0.119490
-0.074061
-0.084309
-0.081959
-0.113331
-0.070850
0.000363
-0.063786
-0.078551
-0.079034
-0.058507
-0.087850
-0.100313
-0.117438
-0.038779
-0.111254
-0.103699
-0.038643
-0.115908
-0.140938
-0.140832
-0.138247
-0.128614
-0.077640
-0.009914
-0.144082
-0.149241
-0.023536
-0.127305
-0.024114
-0.087407
-0.007020
-0.057123
-0.040418
-0.133141
-0.004919
-0.043342
-0.046663
-0.055864
-0.125826
-0.019754
-0.010900
-0.039245
-0.020480
-0.132214
-0.053615
-0.007227
-0.041303
-0.037922
-0.060256
-0.045212
0.057272
-0.023279
-0.044845
-0.076654
0.014722
0.010749
-0.014273
-0.049768
-0.051334
-0.049593
0.046347
0.023680
0.071407
0.013736
0.051111
0.089107
0.038537
0.054697
0.119145
0.221721
0.080528
0.192224
0.192340
0.090318
0.088028
0.116280
0.031150
0.119533
0.059065
0.075184
-0.007560
0.068386
0.053342
0.120472
-0.007842
0.017034
0.081383
-0.014208
0.062437
-0.034098
0.065312
0.024446
0.004866
-0.022938
-0.013337
-0.051202
-0.072716
-0.000677
-0.073787
-0.122566
-0.007401
0.045111
-0.037034
-0.019897
-0.024852
-0.020772
-0.108164
-0.031806
-0.042519
-0.092791
0.208754
0.378691
0.718751
0.993014
1.260429
1.392475
1.209147
1.060114
0.674356
0.397015
-0.064201
-0.204083
-0.232776
-0.253246
-0.231483
-0.144201
-0.019988
-0.003865
-0.044658
0.010700
0.067687
0.019534
0.017177
0.041921
-0.021368
0.026004
0.051948
0.037750
-0.022968
0.047960
0.125886
-0.029368
0.062050
0.134150
0.133448
0.137890
0.172644
0.161689
0.149331
0.242082
0.240668
0.128371
0.277144
0.310067
0.320905
0.347825
0.303726
0.385318
0.418375
0.441970
0.443061
0.474552
0.478332
0.427081
0.496026
0.407878
0.509846
0.613055
0.524003
0.510958
0.489199
0.565400
0.483479
0.591853
0.511046
0.386198
0.409602
0.405679
0.479758
0.439637
0.336164
0.466028
0.390418
0.366384
0.350143
0.282283
0.290148
0.256090
0.258394
0.237205
0.266001
0.203036
0.279636
0.185748
0.175691
0.181697
0.169658
0.115845
0.101149
0.097544
0.036270
0.130826
0.071477
0.029850
0.070279
0.020916
0.017419
-0.014155
-0.002957
0.034143
0.050769
0.039913
0.085983
0.073027
-0.009360
0.012195
0.027449
0.083537
0.026255
-0.004701
0.131415
0.039956
0.053422
0.042583
0.074698
0.026046
0.025141
0.008565
0.090065
0.047213
0.056454
0.068251
0.098409
0.013856
0.112326
0.083652
0.028672
0.080176
0.111472
-0.009934
0.127422
0.026419
0.045106
0.031548
0.041846
0.072813
0.012956
0.100191
0.073066
0.106726
0.037170
0.027349
0.109034
0.007874
0.067724
0.003254
0.077922
0.039501
0.117949
0.088693
0.109889
0.076238
0.056344
0.093559
0.094731
0.131371
0.007087
0.067556
0.064177
0.036717
0.074868
0.127267
0.187181
0.125981
0.052853
0.083737
0.122632
0.177008
0.195983
0.209435
0.205728
0.182081
0.197519
0.223896
0.299289
0.251611
0.226080
0.243422
0.238440
0.197090
0.258274
0.169534
0.195777
0.275562
0.227673
0.205894
0.110894
0.155095
0.151385
0.170925
0.164098
0.192442
0.200418
0.141995
0.126389
0.091352
0.119925
0.004620
0.082454
0.074661
0.045343
0.125177
0.041376
0.097570
0.084305
0.060437
0.094839
0.069902
0.026887
0.042181
0.125615
0.147199
0.132739
0.077875
0.063321
0.052239
0.121087
0.228559
0.346765
0.701612
0.952277
1.301141
1.500000
1.394025
1.276525
0.886775
0.504947
0.195268
0.067683
-0.157511
-0.126527
-0.248785
-0.088661
0.006922
0.145341
0.070715
0.087412
0.062700
0.105932
0.104348
0.076600
0.118395
0.089053
0.125036
