-0.004518
0.024628
-0.062153
-0.023274
0.012427
-0.042131
-0.016256
-0.081837
0.020259
0.093159
-0.002381
0.031660
-0.001074
0.009766
0.013696
0.042185
-0.020792
0.101750
-0.022446
0.100863
0.101446
0.036560
0.081808
0.069387
0.030382
0.083308
0.058623
0.050459
0.066090
0.065719
0.098162
0.126521
0.178838
0.109855
0.104202
0.177554
0.166103
0.173907
0.190934
0.233049
0.164611
0.224713
0.100671
0.153676
0.180199
0.232458
0.162058
0.251253
0.183809
0.072130
0.129020
0.161290
0.192912
0.134452
0.122378
0.151013
0.034389
0.155698
0.055205
-0.003223
0.069485
0.055911
0.067214
0.051662
0.047074
0.085601
0.056397
-0.024413
0.030007
-0.009850
0.021015
0.011605
0.065604
0.025941
0.066982
0.049745
0.076841
0.091344
0.373452
0.681327
1.053677
1.294920
1.500000
1.308034
1.178199
0.787980
0.471990
0.197769
-0.058146
-0.235588
-0.183443
-0.105237
-0.077102
0.007115
0.041651
0.054024
0.124789
0.047944
0.055434
0.104282
0.126413
0.151898
0.117769
0.053578
0.108991
0.112370
0.194073
0.211662
0.169147
0.266710
0.288084
0.285829
0.314135
0.275942
0.267713
0.254487
0.280156
0.321773
0.375968
0.437986
0.320296
0.422306
0.407340
0.504052
0.474330
0.506416
0.537666
0.570155
0.458417
0.550126
0.551695
0.575226
0.613108
0.608808
0.645886
0.559315
0.650792
0.578203
0.558727
0.452579
0.484466
0.569301
0.538538
0.484924
0.433819
0.412914
0.437325
0.393047
0.386008
0.367935
0.354943
0.377986
0.308650
0.239670
0.286903
0.278351
0.221918
0.196093
0.181302
0.185787
0.163878
0.123320
0.162717
0.176651
0.112720
0.142059
0.113075
0.079557
0.120179
0.245978
0.049387
0.140874
0.022130
0.051086
0.184205
0.112484
0.130918
0.132590
0.152933
0.134295
0.095532
0.103689
0.140527
0.109315
0.099851
0.129817
0.078619
0.032951
0.159708
-0.009970
0.110458
0.033089
0.085246
0.189363
0.111117
-0.029244
0.088097
0.075445
0.071640
0.118237
0.070002
0.072194
0.110520
0.056669
0.076864
0.120174
0.080768
0.090032
0.126170
0.147095
0.116188
0.228143
0.044411
0.118173
0.085224
0.103533
0.109216
0.123534
0.102260
0.145057
0.106854
0.123392
0.140702
0.109915
0.125464
0.123648
0.078858
0.129760
0.100027
0.127783
0.066776
0.141925
0.135874
0.222276
0.175968
0.198501
0.240305
0.201128
0.233192
0.232851
0.215667
0.287269
0.285565
0.267454
0.234444
0.227605
0.232364
0.244115
0.275460
0.260695
0.197832
0.184815
0.153969
0.269839
0.245947
0.206414
0.225087
0.198964
0.186368
0.146332
0.135509
0.174426
0.134281
0.132507
0.072699
0.076371
0.060731
0.125254
0.049414
0.033331
0.128900
0.064485
0.113433
0.080670
0.056587
0.117520
0.048530
0.051370
0.031492
0.062434
0.160855
0.078377
0.150464
0.248977
0.489168
0.894300
1.116954
1.367515
1.438555
1.378075
1.056561
0.608042
0.244428
0.093167
-0.132077
-0.182402
-0.115409
-0.087757
-0.017363
0.083606
0.041451
0.072353
0.013146
0.052302
0.087339
0.064449
0.104349
0.111304
0.144141
0.222279
0.161424
0.162591
0.094639
0.280515
0.139974
0.218924
0.159334
0.253672
0.243307
0.275842
0.143890
0.296368
0.301872
0.330654
0.399722
0.377819
0.368507
0.443744
0.413309
0.440736
0.458205
0.538722
0.542730
0.522771
0.554320
0.564384
0.579452
0.537294
0.512781
0.549346
0.499482
0.532281
0.511862
0.520420
0.573516
0.588567
0.549865
0.494026
0.463075
0.437214
0.463708
0.478170
0.385531
0.327254
0.329900
0.280326
0.293355
0.325351
0.299305
0.193236
0.216580
0.161348
0.133832
0.227905
0.176480
0.149834
0.157239
0.111470
0.041640
0.073038
0.057278
0.098706
0.054764
-0.051822
0.086698
-0.021385
0.168224
0.101681
0.021236
0.083072
0.032923
0.014738
0.097016
0.032396
0.055639
0.091198
-0.015700
0.070950
0.081381
-0.071481
0.054844
0.107405
-0.064478
-0.010748
-0.053846
0.039767
0.032343
0.014424
0.047425
0.031225
-0.019478
0.031846
-0.017267
0.021202
-0.033219
-0.042166
-0.047590
0.010901
-0.040083
-0.029022
-0.004778
0.044533
0.001499
0.038179
0.007008
-0.024675
0.042059
-0.017891
-0.044398
0.051154
-0.038759
-0.051688
0.016668
-0.045725
0.026315
-0.048115
-0.024490
-0.024500
-0.062688
-0.026575
0.018981
0.015175
0.082228
0.101757
-0.012521
0.029232
0.013508
0.093589
0.187389
0.100052
0.123635
0.019706
0.078918
0.100851
0.117315
0.047516
0.009982
0.166338
0.135492
0.220667
0.036340
0.173382
0.211313
0.177662
0.147504
0.100647
0.220391
0.197598
0.094736
0.079833
0.131415
0.052606
0.134981
0.063949
0.074884
-0.003826
0.036656
0.122138
0.001857
0.029472
0.052787
0.056363
0.034887
-0.006409
-0.015261
-0.023941
-0.059146
-0.120109
-0.059786
0.043131
-0.029493
-0.011514
-0.016735
0.024850
-0.017223
-0.028148
-0.082436
-0.021489
0.076309
0.322384
0.585908
0.931441
1.229138
1.289564
1.293348
1.107932
0.701903
0.397855
-0.113879
-0.176409
-0.299611
-0.253427
-0.258674
-0.166735
-0.204322
-0.058048
-0.017038
-0.024738
-0.101237
0.014306
0.083751
0.050739
0.008100
-0.006767
0.025313
0.016574
0.052063
0.052568
0.012824
0.134674
0.116143
0.108079
0.113312
0.146157
0.157300
0.121197
0.278288
0.262289
0.166127
0.271289
0.256447
0.327731
0.386388
0.405380
0.332538
0.419611
0.404107
0.405158
0.480197
0.457365
0.478202
0.478101
0.415515
0.429136
0.476883
0.459052
0.441816
0.464638
0.428347
0.424939
0.403557
0.346530
0.412946
0.343194
0.404467
0.295170
0.378257
0.274491
0.298736
0.323307
0.209003
0.218186
0.167130
0.172094
0.174092
0.056661
0.171439
0.088159
0.080485
0.144381
0.049807
0.072456
0.012922
0.013695
0.013597
0.101434
0.020887
0.028507
-0.053959
-0.122256
-0.005411
-0.038263
-0.003075
-0.035173
0.012755
-0.004273
0.045075
0.039571
-0.026375
-0.090966
-0.039959
-0.021249
0.022906
0.030891
-0.092851
-0.019333
-0.008526
0.000481
-0.054218
-0.039465
-0.102072
0.015384
-0.104386
0.008788
0.008591
-0.093741
0.035777
0.000407
-0.102966
-0.126364
-0.008517
-0.022455
-0.050372
-0.010333
0.010975
-0.055652
-0.009178
-0.056665
-0.039375
-0.071282
0.042576
-0.009680
-0.046481
-0.052765
-0.117084
-0.096216
-0.062703
0.061521
0.081259
-0.088663
-0.059932
-0.102436
-0.040851
-0.055101
0.022014
-0.052597
-0.082252
0.011994
0.016719
0.005037
0.044416
-0.041090
0.034589
0.044947
0.024671
0.026695
0.092654
0.143176
0.103637
0.090109
0.101659
0.133436
0.125703
0.150575
0.127151
0.150671
0.180472
0.142012
0.081382
0.197529
0.208534
0.092127
0.143881
0.131548
0.063879
0.123490
0.094105
0.039538
0.097735
0.066706
0.149158
0.017709
0.047271
0.099295
-0.001211
0.019723
0.017490
-0.011292
-0.077997
-0.002092
0.057213
0.011787
0.075155
0.006936
0.046746
-0.010530
-0.128938
-0.037436
-0.049392
0.059565
-0.075627
-0.110221
-0.033053
-0.022177
0.239804
0.501518
0.738362
1.114202
1.360107
1.416081
1.238698
0.899284
0.683159
0.258124
-0.078894
-0.260633
-0.221119
-0.206800
-0.125302
-0.124167
-0.075165
0.003165
0.030251
0.061604
0.015728
0.027943
0.018563
0.033585
0.107541
0.080086
0.118716
0.185002
0.043854
0.032049
0.115457
0.114563
0.220865
0.196110
0.186898
0.195056
0.191839
0.224187
0.309790
0.303364
0.304629
0.287094
0.358988
0.394343
0.410497
0.349179
0.500158
0.502469
0.498151
0.504157
0.356418
0.533815
0.542574
0.554202
0.578118
0.524000
0.500055
0.578548
0.608962
0.505915
0.565989
0.431319
0.514732
0.500158
0.510217
0.476170
0.449640
0.453585
0.459619
0.430101
0.321742
0.316361
0.288777
0.317970
0.176991
0.269937
0.199333
0.259234
0.205482
0.277120
0.233500
0.142758
0.142394
0.045248
0.100639
0.109101
0.101500
0.130660
0.079670
0.107651
0.066602
0.081700
0.063672
0.114068
0.034640
0.052681
0.018476
-0.003160
0.060461
0.037484
-0.032984
0.051593
0.047675
0.117533
0.009746
-0.010537
0.064096
0.061128
0.118784
0.126732
-0.002728
0.093947
0.069213
0.029832
-0.016419
0.000107
0.055363
0.084130
0.073960
0.048370
-0.051549
0.060069
0.026061
0.050446
-0.007935
0.009661
0.007005
0.064720
0.082044
0.103454
0.091769
0.087413
0.048948
0.099622
0.081507
0.069127
0.059619
0.080833
0.043416
0.067108
0.062959
0.093610
0.060210
0.104746
0.052053
0.109805
-0.011431
0.046089
0.130742
0.148613
0.034328
0.074544
0.163949
0.142664
0.093523
0.204815
0.141718
0.091678
0.140724
0.182913
0.170729
0.187059
0.242226
0.170544
0.324125
0.297873
0.186181
0.322469
0.260812
0.259658
0.293815
0.336090
0.205669
0.266563
0.247065
0.217584
0.217321
0.218015
0.202304
0.187176
0.207452
0.180318
0.167054
0.104827
0.143275
0.075177
0.176764
0.173092
0.078340
0.052266
0.085795
0.125644
0.100521
0.123288
0.062618
0.134416
0.037831
0.068450
0.127970
0.116356
0.142883
0.154296
0.018533
0.001564
0.174072
0.231207
0.451689
0.746889
1.140925
1.431386
1.411924
1.440181
1.210027
0.844929
0.508435
0.107391
-0.034835
-0.137488
-0.125494
-0.074041
0.034369
0.039371
0.088471
0.081863
0.117903
0.136104
0.135642
0.105529
0.158547
0.120650
0.146451
0.178878
0.174669
0.152251
0.218178
0.188153
0.211521
0.232798
0.245200
0.268986
0.254732
0.273325
0.302646
0.418111
0.314337
0.410024
0.368440
0.470013
0.429376
0.519332
0.344486
0.544362
0.692398
0.548760
0.528294
0.563097
0.566628
0.560317
0.619543
0.570933
0.598635
0.632666
0.576310
0.635838
0.594545
0.638202
0.636700
0.542219
0.610215
0.630878
0.574202
0.450778
0.511816
0.505330
0.491301
0.405943
0.368669
0.394300
0.332908
0.273319
0.322805
0.410023
0.294922
0.230973
0.264430
0.248744
0.292171
0.131386
0.214903
0.207890
0.164616
0.220606
0.099717
0.101174
0.154208
0.140074
0.112769
0.080758
0.107320
0.191074
0.069851
0.151045
0.120865
0.029963
0.039427
0.124555
0.068227
0.136994
0.122051
0.064970
0.027233
0.052811
0.202333
0.104091
0.037275
0.142228
0.140305
0.043095
0.085107
0.105095
0.154708
0.150623
0.091452
0.066306
0.079486
0.217048
0.097652
0.110094
0.032691
0.039451
0.042150
0.011558
0.044572
0.123052
-0.019425
0.069983
0.041827
0.112826
0.132569
0.059146
0.086898
-0.002341
0.058152
0.050213
0.175130
0.124340
0.092824
0.059113
0.115703
0.105292
0.093781
0.022119
0.067123
0.076277
0.124081
0.097256
0.042350
0.117753
0.162459
0.149227
0.165382
0.158890
0.068815
0.212211
0.227744
0.211755
0.138716
0.101200
0.203024
0.167421
0.228704
0.176763
0.230626
0.197081
0.301789
0.262552
0.275771
0.207632
0.269697
0.251216
0.182278
0.129982
0.155642
0.230102
0.118202
0.179443
0.139339
0.162620
0.066797
0.113636
0.136835
0.071235
0.084185
0.121376
0.108470
0.052347
0.093639
-0.044112
0.077369
0.029070
0.020106
-0.004462
0.042046
-0.042137
0.024035
0.039240
0.025880
0.066905
-0.004901
-0.000788
0.140859
0.210944
0.562745
0.801128
1.133156
1.400028
1.403873
1.313571
0.933813
0.627646
0.305688
-0.062253
-0.151848
-0.210663
-0.200896
-0.033412
-0.063312
-0.055571
0.034093
0.077134
-0.062002
0.035634
0.018147
0.084388
0.083199
0.118249
0.089839
0.063400
0.135995
0.031734
0.082328
0.124403
0.138914
0.118762
0.217080
0.182214
0.289855
0.160157
0.284422
0.304354
0.336807
0.341490
0.320120
0.355951
0.376067
0.259973
0.284370
0.343518
0.459094
0.457333
0.426375
0.511280
0.530635
0.447730
0.539094
0.427336
0.555434
0.531067
0.592157
0.506515
0.456088
0.523707
0.561677
0.453608
0.392869
0.501577
0.405792
0.412966
0.341803
0.344541
0.334072
0.295184
0.298994
0.325541
0.337676
0.237357
0.265318
0.188507
0.131637
0.121300
0.044597
0.182331
0.094614
0.050829
0.080754
0.036954
0.056389
0.094688
0.085327
0.067492
0.082845
-0.014028
0.018888
0.000207
-0.046876
-0.024283
0.033178
-0.077470
0.052605
-0.067595
0.019608
-0.024244
-0.043782
-0.107082
-0.091216
-0.020927
-0.039604
0.002976
-0.053270
-0.053333
-0.049340
-0.087623
-0.048836
-0.015459
-0.092494
-0.086889
-0.088343
-0.014730
-0.018691
-0.033140
-0.054178
0.003985
-0.093197
-0.080781
-0.068193
-0.017702
-0.000217
-0.002364
-0.076551
-0.055203
0.000870
-0.065613
-0.071179
0.057139
-0.078091
-0.065454
-0.064750
-0.049030
0.032782
-0.107375
-0.065609
-0.041094
-0.057584
-0.034461
-0.058743
-0.094208
-0.117676
-0.037815
-0.030077
-0.094978
-0.020397
-0.090525
-0.026688
-0.010572
-0.050067
-0.063841
0.044588
0.064188
0.064889
0.021038
0.104677
0.083812
0.035027
-0.008762
0.096876
0.177066
0.173530
0.084948
0.109387
0.057223
0.112163
0.127785
0.066939
0.102315
0.049834
0.122550
0.088281
0.050080
0.074055
0.069241
0.057015
0.047549
0.003252
-0.062453
0.010475
0.014387
0.054003
-0.072695
-0.075500
0.006295
-0.063714
-0.078328
-0.040901
-0.086211
0.004397
-0.056411
-0.078376
-0.104246
-0.051403
-0.078363
-0.028324
-0.024667
-0.089046
-0.124282
-0.113770
-0.044877
0.048240
0.308265
0.553719
0.936227
1.158926
1.315758
1.249967
1.039275
0.631845
0.309737
0.010818
-0.228171
-0.295836
-0.311808
-0.118525
-0.206593
-0.138409
-0.006606
-0.112249
-0.083650
-0.061032
-0.050899
-0.041605
-0.028195
-0.032755
0.010679
-0.019718
0.004887
-0.026339
0.007170
-0.056119
0.083848
0.027544
0.012268
0.096039
0.039841
0.117287
0.158906
0.096516
0.065492
0.272301
0.223166
0.180300
0.313516
0.346922
0.364625
0.350332
0.404758
0.386200
0.328164
0.424826
0.335972
0.518370
0.447275
0.361392
0.497424
0.397848
0.438802
0.438832
0.461815
0.435049
0.386053
0.352931
0.416769
0.398022
0.365929
0.323727
0.379231
0.299198
0.310533
0.252658
0.302354
0.211957
0.201893
0.166944
0.186206
0.130215
0.145428
0.168248
0.138264
0.111920
0.164702
0.075595
0.075605
0.084742
-0.048787
0.037381
0.032086
0.012973
-0.018132
-0.028826
0.013274
0.003848
-0.075908
-0.033967
0.051726
-0.093836
-0.118823
-0.074455
-0.094064
-0.021988
-0.018700
-0.078711
-0.079271
-0.056615
-0.094174
-0.099044
-0.060442
-0.124270
-0.009410
-0.018758
-0.038956
-0.015054
-0.037632
-0.088783
-0.008026
-0.080373
-0.086323
-0.045319
-0.076156
-0.126426
-0.056558
-0.063863
-0.060662
-0.080509
0.004798
0.006092
0.027824
-0.072628
-0.028935
-0.027741
-0.058402
-0.043960
0.007295
-0.101064
-0.105604
-0.040053
-0.033624
-0.041041
-0.115991
-0.050281
-0.004579
0.011623
-0.079213
-0.049513
-0.102258
-0.018295
-0.079224
-0.048985
-0.044574
-0.072189
0.029584
0.107134
0.018439
-0.058804
-0.044077
-0.025463
0.037090
0.026830
0.037506
0.056246
0.013173
0.074593
0.126730
0.041062
0.205974
0.156729
0.138246
0.136846
0.135336
0.201179
0.199228
0.137379
0.160574
0.170851
0.157258
0.091911
0.061309
0.100681
0.142111
0.092942
0.010249
0.111299
0.121996
0.006492
0.042138
-0.008250
0.012457
-0.004008
-0.056438
0.062422
0.014567
0.039364
-0.072244
0.055235
0.029624
0.043171
-0.054516
-0.003937
0.044734
-0.030683
0.009978
-0.020990
-0.046228
0.018455
0.060629
0.221502
0.477271
0.818793
1.112409
1.330245
1.369585
1.168642
0.848970
0.560439
0.174844
-0.083442
-0.213455
-0.190488
-0.237859
-0.109038
-0.083885
-0.123277
0.053169
-0.021460
-0.001175
0.048442
0.022135
0.060223
0.042106
0.062875
0.018733
0.146504
0.072495
0.089163
0.105125
0.079791
0.119444
0.174404
0.149473
0.116518
0.229128
0.293003
0.131731
0.234133
0.409680
0.333984
0.346089
0.307522
0.433540
0.445572
0.405379
0.435735
0.431267
0.427797
0.454876
0.479898
0.557009
0.487554
0.576994
0.483684
0.581449
0.476192
0.535087
0.452552
0.548797
0.526382
0.482084
0.499310
0.498162
0.489638
0.425275
0.402312
0.406842
0.353272
0.353082
0.393077
0.287198
0.360151
0.346842
0.257235
0.254292
0.226348
0.191813
0.262768
0.167505
0.164208
0.190843
0.138618
0.112372
0.172280
0.068689
0.120013
0.022333
0.067588
0.061492
0.122022
0.088844
-0.011383
0.054196
0.073557
0.112037
0.023753
0.003694
0.091941
0.081467
0.055460
0.059758
0.116403
0.021218
0.055856
0.030327
0.050805
0.075093
0.120679
0.063057
0.106933
0.027653
0.060451
0.035314
0.083413
0.057831
0.063108
0.007499
0.010129
-0.011621
-0.047770
-0.007248
0.017247
0.096016
0.084696
0.039596
0.090014
0.071573
0.055237
-0.023748
0.116531
0.089382
0.038588
0.018442
-0.015235
0.011199
0.144206
0.085911
0.055607
0.048724
0.113509
0.109054
0.012619
0.015621
0.063535
0.094687
0.022214
0.035050
0.118887
0.021932
0.056901
0.131780
0.177233
0.063116
0.119888
0.091912
0.043649
0.161300
0.163346
0.184384
0.207885
0.148857
0.132529
0.260833
0.178371
0.133195
0.218373
0.245574
0.162608
0.207434
0.233736
0.286401
0.217411
0.183387
0.189101
0.196388
0.276859
0.215651
0.181249
0.217703
0.201114
0.037721
0.073817
0.061325
0.067603
0.034462
0.081460
0.091228
-0.006399
0.041805
0.074742
0.074233
0.067179
0.050421
-0.040635
0.087386
0.046396
0.106586
0.060800
0.030008
0.111529
0.024499
-0.019064
0.075582
0.102598
0.226283
0.398837
0.791843
1.071395
1.306639
1.421182
1.315658
1.078103
0.713943
0.406042
-0.024010
-0.073186
-0.187873
-0.209887
-0.210595
0.010720
-0.001276
0.030646
0.034036
0.074403
0.055277
0.097121
0.049995
0.082353
0.069042
0.050737
0.184818
0.111771
0.061577
0.104853
0.080072
0.104144
0.202361
0.198786
0.217363
0.228266
0.217751
0.279589
0.245876
0.317722
0.342900
0.327999
0.367527
0.342971
0.428620
0.455340
0.398609
0.486712
0.481953
0.541535
0.519282
0.504906
0.612343
0.524577
0.604662
0.547454
0.546292
0.517939
0.627538
0.481707
0.489218
0.430964
0.525485
0.499325
0.502153
0.531951
0.492399
0.486863
0.425108
0.402678
0.392875
0.310630
0.298997
0.349518
0.281796
0.229754
0.265220
0.247372
0.212808
0.202876
0.179127
0.165003
0.083393
0.092554
0.132476
0.088273
0.037543
0.076423
0.038066
0.110835
0.051151
0.069414
0.018071
0.083189
0.072500
-0.008047
0.059302
0.058118
0.025479
-0.092111
-0.001817
0.055712
0.023435
0.050066
0.099576
0.019291
-0.054345
0.024181
0.032256
-0.029071
0.029760
0.170133
0.013407
-0.030544
0.070164
-0.000974
0.110274
0.037215
-0.048811
0.034239
0.035903
-0.016115
0.064233
-0.096971
0.015200
-0.036157
0.034663
-0.046074
-0.018664
0.072934
-0.016855
0.044366
-0.042872
-0.036297
0.059358
0.016900
0.002729
-0.021544
-0.062472
-0.034572
-0.023641
-0.080116
-0.046039
0.015775
0.032203
-0.059289
0.030656
0.044277
0.010955
0.113238
-0.048117
0.013967
0.102549
0.046492
0.061524
0.011251
0.109238
0.001577
0.084323
0.084210
0.089908
0.085205
0.148015
0.069851
0.109023
0.159721
0.133161
0.175452
0.128015
0.136047
0.099259
0.177567
0.113315
0.174304
0.029335
0.056653
0.137135
0.057821
0.099871
0.041231
0.110631
0.000108
0.037936
0.009095
0.055091
-0.019553
0.009604
0.046529
-0.001641
-0.055206
0.018199
-0.117087
-0.068520
-0.107454
-0.047280
-0.029864
-0.059366
-0.079671
-0.115174
-0.076889
0.031826
-0.050746
0.025085
-0.054890
-0.038943
0.029577
0.219985
0.594048
0.771525
1.215170
1.394926
1.334030
1.250873
0.803784
0.527670
0.194202
-0.184850
-0.256838
-0.371789
-0.228666
-0.148553
-0.093055
-0.077306
-0.062595
-0.067570
-0.082943
0.013584
0.063743
0.007971
-0.028766
-0.022012
-0.016039
0.018254
0.051677
0.063150
0.063627
0.063127
0.077463
0.085105
0.049390
0.186276
0.096108
0.177296
0.172743
0.157494
0.304923
0.277968
0.240707
0.161181
0.276630
0.332281
0.316289
0.375144
0.356016
0.376042
0.377544
0.407399
0.402227
0.418326
0.358596
0.425098
0.526554
0.409836
0.475455
0.487848
0.496758
0.398561
0.431639
0.388163
0.359806
0.366826
0.355950
0.314523
0.284685
0.276702
0.196034
0.262874
0.189801
0.183209
0.218710
0.143749
0.116641
0.129960
0.135663
0.095941
0.107522
0.108929
0.064044
0.004365
-0.034055
-0.027771
-0.026017
-0.005206
-0.007862
-0.017863
0.029612
-0.024379
-0.100513
-0.002240
-0.053310
-0.144433
-0.053986
-0.159131
-0.197284
-0.037541
-0.046762
-0.095831
-0.109899
-0.074252
-0.129577
-0.131620
-0.121082
-0.074404
-0.061515
-0.143729
-0.077088
-0.155285
-0.085164
-0.112550
-0.073029
-0.121048
0.031856
-0.148258
0.018255
-0.110447
-0.114947
-0.145199
-0.130948
-0.091519
-0.192129
-0.114306
-0.159062
-0.162440
-0.123832
-0.082117
-0.198649
-0.102518
-0.104835
-0.093419
-0.059238
-0.036403
-0.046847
-0.124787
-0.057605
-0.088926
-0.131337
-0.142558
-0.113659
-0.127950
-0.141803
-0.091927
-0.106561
0.041064
0.008494
-0.068303
-0.134450
-0.082902
-0.061793
-0.090693
-0.063741
-0.033566
-0.003890
0.017892
-0.041385
-0.042877
-0.020634
-0.007839
-0.027296
0.103547
0.023604
0.034886
0.052388
0.136916
0.148765
0.075061
0.099796
0.014349
0.089383
0.038233
0.025924
0.084655
-0.026496
0.021552
-0.019850
-0.018279
-0.004912
0.000552
0.005959
-0.025916
0.016343
-0.052905
0.046950
-0.008920
-0.049665
-0.088184
-0.045527
-0.100003
-0.136317
-0.088515
-0.138223
-0.033037
-0.028028
-0.118466
-0.095947
-0.056586
-0.128521
-0.118822
-0.094013
-0.099589
-0.121601
-0.057509
0.041162
0.338233
0.495364
0.981798
1.272810
1.282087
1.237441
0.943182
0.665384
0.292282
-0.012988
-0.297587
-0.356937
-0.303322
-0.306633
-0.163354
-0.127572
-0.110188
-0.125124
-0.144431
-0.141520
-0.106976
0.048952
-0.045573
-0.042042
-0.012912
-0.048877
0.008376
-0.027144
0.035142
0.063961
0.100853
0.046834
0.039254
0.072321
0.131455
0.093487
0.103450
0.121467
0.186824
0.203460
0.203505
0.303750
0.296823
0.337828
0.310629
0.414484
0.326468
0.331800
0.396975
0.367355
0.459628
0.387854
0.451590
0.527451
0.457136
0.444468
0.524107
0.477443
0.378744
0.525106
0.470817
0.421224
0.307073
0.324974
0.324929
0.362974
0.401774
0.273369
0.323767
0.248224
0.347318
0.273357
0.217667
0.144065
0.125404
0.224473
0.177014
0.066301
0.134154
0.100362
-0.044130
0.011610
0.102113
0.148068
-0.034897
-0.114123
0.046909
-0.010295
0.074945
-0.105482
0.028178
0.047761
-0.048406
-0.075341
-0.043356
-0.055572
-0.080181
0.001400
0.050130
-0.023137
-0.061186
-0.048683
-0.046206
0.007645
-0.080232
0.019347
-0.067810
-0.091740
-0.067827
0.024140
0.025365
0.035428
-0.051652
-0.042965
-0.053929
-0.010573
-0.140747
-0.033735
-0.040499
0.011542
-0.024683
-0.048594
-0.018958
-0.074094
-0.067100
-0.044730
0.014051
0.050695
-0.006032
-0.098640
-0.082918
-0.035444
-0.056467
-0.018268
0.056503
0.044223
-0.081270
0.067944
-0.014733
0.061382
0.049446
0.054385
-0.057802
-0.028171
-0.031255
0.025267
0.047349
-0.028016
-0.004331
0.053008
0.021349
0.030926
0.028877
0.042402
0.064553
0.053442
0.040069
0.039532
0.136381
0.147396
0.178377
0.111322
0.140220
0.109917
0.136188
0.160898
0.190288
0.099027
0.158843
0.254355
0.191366
0.191575
0.157577
0.178879
0.119041
0.184740
0.192532
0.080996
0.101705
0.131711
0.084295
0.113157
0.092687
0.082323
0.063058
0.071819
0.007573
0.051883
0.042074
-0.002136
0.042437
0.000641
0.019144
0.002850
0.014094
-0.024614
0.044499
0.071539
0.088269
0.002589
0.011133
0.011357
-0.044819
-0.004641
0.176495
0.253385
0.563656
0.917264
1.182263
1.393119
1.493092
1.265615
0.899133
0.509440
0.273698
-0.024090
-0.222208
-0.154451
-0.152227
-0.155147
-0.030902
0.076548
-0.003267
0.015630
0.114623
0.154135
0.113544
0.050872
0.147999
0.151763
0.066247
0.094275
0.103676
0.108052
0.173395
0.092875
0.105998
0.205449
0.169476
0.224173
0.257247
0.242857
0.332085
0.375415
0.366077
0.329321
0.342956
0.318508
0.425726
0.423841
0.422022
0.457489
0.552949
0.595794
0.557463
0.603396
0.534944
0.521469
0.551678
0.544447
0.521572
0.595252
0.525083
0.564588
0.544421
0.574001
0.568155
0.496445
0.565407
0.461437
0.490723
0.495392
0.425408
0.387741
0.382977
0.398250
0.318556
0.307147
0.354501
0.262585
0.261844
0.246050
0.235770
0.146062
0.194285
0.240326
0.182481
0.215851
0.231860
0.193589
0.137922
0.135226
0.102824
0.210253
0.162784
0.109448
0.182341
0.108034
0.057557
0.173517
0.050223
0.091842
0.089073
0.052882
0.125027
0.053811
0.096802
0.059819
0.033774
0.119075
0.088164
0.075116
0.109013
0.117550
0.106805
-0.012838
0.008173
0.109679
0.141707
0.074150
0.075702
0.046062
0.095790
0.060328
0.062621
0.088551
-0.019595
0.136793
0.082047
0.092552
0.074006
0.064813
-0.033931
0.088325
0.081965
0.004716
0.160231
0.107104
0.079320
0.012580
0.039978
0.130457
0.112239
0.069389
0.058257
0.059059
0.066379
0.171388
0.093323
0.143352
0.087129
0.103175
0.202707
0.082562
0.111173
0.072821
0.047574
0.177030
0.125935
0.095370
0.195180
0.226302
0.147413
0.209566
0.210547
0.189349
0.171700
