0.014954
-0.010354
0.010587
0.004635
0.073057
0.068034
-0.021039
0.040293
-0.002626
-0.044001
0.054563
-0.008695
-0.017400
0.044036
0.076355
0.043725
0.010126
-0.026697
-0.022510
-0.002238
0.036027
0.069135
-0.005334
0.018220
0.145582
0.065224
0.075740
0.110611
0.091157
0.197043
0.175335
0.022529
0.116717
0.145714
0.156344
0.114587
0.160321
0.174443
0.175439
0.199290
0.277963
0.187348
0.190456
0.123978
0.121964
0.205181
0.138775
0.217648
0.156398
0.126919
0.084197
0.183876
0.133702
0.075802
0.036882
0.081138
0.012049
0.126113
0.110108
0.111380
0.071461
0.040853
0.025123
0.109356
0.017499
0.030745
-0.043363
0.076059
0.050911
0.067971
0.083034
-0.005151
0.048671
0.067125
0.016212
0.211725
0.374678
0.772367
1.159134
1.337863
1.398545
1.361812
1.123626
0.727796
0.455697
-0.031484
-0.113904
-0.233654
-0.141120
-0.045944
-0.088944
0.013499
0.097020
0.068568
0.047627
0.108428
0.122394
0.089830
0.107882
0.079951
0.131957
0.131281
0.163728
0.147462
0.158386
0.236487
0.159628
0.127156
0.160413
0.276706
0.301793
0.268678
0.286630
0.314236
0.419961
0.369543
0.390612
0.345376
0.550319
0.372251
0.535619
0.534548
0.541016
0.543533
0.506158
0.561031
0.488558
0.525826
0.645010
0.639041
0.571471
0.516510
0.644455
0.521954
0.578201
0.590005
0.626078
0.503507
0.520217
0.466540
0.463324
0.425207
0.461463
0.397294
0.422809
0.387599
0.358157
0.378062
0.330980
0.351334
0.289930
0.306854
0.191228
0.214398
0.297201
0.255383
0.199068
0.213560
0.196128
0.054835
0.169229
0.168387
0.107260
0.162080
0.097413
0.059789
0.155197
0.101317
0.096230
0.062276
0.066163
0.052282
0.093807
0.015445
0.096651
0.089158
0.046987
0.106120
0.071181
0.128606
0.169414
0.003083
0.040204
0.081945
0.139391
0.053102
0.094199
0.021020
0.097823
0.197923
0.087982
0.033477
0.108904
0.035421
0.109115
0.081576
0.097811
0.155176
0.072730
0.128498
0.054643
0.058238
0.064413
0.065529
0.105300
0.122364
0.112589
0.093187
0.013423
0.115152
0.050852
0.199322
0.080153
0.087344
-0.007097
0.132533
0.106864
0.131962
0.138377
0.093715
0.089768
0.083675
0.051393
0.124964
0.103190
0.113798
0.111934
0.121366
0.213003
0.219911
0.114464
0.133805
0.274463
0.218415
0.217309
0.229234
0.264325
0.301425
0.287555
0.296474
0.278712
0.200695
0.334945
0.241640
0.245756
0.304984
0.194109
0.236866
0.224306
0.172966
0.143793
0.126461
0.095589
0.114869
0.194799
0.187315
0.135074
0.137579
0.107189
0.095168
0.114584
0.038362
0.080198
0.096123
0.117267
0.081641
0.086318
-0.021654
0.035753
0.077120
0.115179
0.039098
-0.000758
0.090607
0.068149
0.237911
0.475049
0.801469
1.090064
1.435012
1.425006
1.479230
1.194186
0.764212
0.358341
0.100078
-0.062925
-0.180087
-0.222787
-0.104417
-0.024505
-0.033988
0.058698
0.007033
0.135182
0.175854
0.156426
0.084622
0.064667
0.158337
0.099828
0.153523
0.176822
0.158528
0.183541
0.291691
0.174408
0.132637
0.159230
0.328316
0.212166
0.282704
0.300482
0.380155
0.246323
0.390115
0.407356
0.446808
0.489469
0.475221
0.447238
0.493781
0.598288
0.418321
0.589200
0.456877
0.569369
0.598114
0.624647
0.516001
0.553640
0.560976
0.610443
0.600548
0.471561
0.452566
0.554239
0.471261
0.493417
0.480352
0.446597
0.450384
0.446096
0.365018
0.345476
0.384268
0.397985
0.412850
0.315489
0.232262
0.288258
0.322198
0.188704
0.232089
0.187031
0.153203
0.113124
0.122621
0.102001
0.156698
0.178100
0.109893
0.025319
0.081166
0.030267
0.062081
0.096832
0.039008
0.043187
-0.029115
0.037275
0.026556
0.005356
0.092600
0.048681
-0.020730
-0.011140
0.053732
0.020849
0.093529
0.044226
0.003252
0.038722
0.017197
0.095902
0.085673
0.050928
-0.053236
0.029509
-0.052285
-0.002727
0.052783
0.043679
-0.027494
0.019494
-0.023457
0.101011
0.049560
-0.045844
0.016804
-0.025379
0.024016
-0.032062
0.029948
0.005375
0.046062
0.072744
0.090894
0.026199
0.000474
-0.017045
0.129457
0.016411
0.004587
-0.003505
0.075039
0.043299
0.017987
0.044890
0.034114
0.037639
-0.048830
0.016488
0.074956
0.058230
0.078683
0.070549
0.131251
0.051937
0.041668
0.052025
0.031959
0.050406
0.210518
0.143190
0.114747
0.053836
0.178741
0.151616
0.112548
0.104854
0.191907
0.129083
0.154380
0.202932
0.104953
0.172670
0.167864
0.152033
0.095511
0.151129
0.147925
0.031898
0.062148
0.047536
0.086852
0.035469
0.041738
0.048689
-0.007533
0.071509
0.071347
-0.035647
0.022466
0.024880
0.007927
-0.011177
-0.062075
-0.078541
-0.019923
-0.132818
-0.001328
-0.028056
-0.018493
0.014214
0.115058
0.373880
0.623025
0.939811
1.223315
1.372624
1.262896
1.051964
0.725130
0.365679
-0.022395
-0.196941
-0.283299
-0.195694
-0.166680
-0.014038
-0.026155
-0.053278
-0.017276
0.010486
0.021016
0.015230
0.016729
0.023456
-0.050200
0.042077
0.050100
0.151348
0.126992
0.045826
0.072269
0.098177
0.126852
0.162518
0.135284
0.136028
0.125741
0.254244
0.161450
0.369540
0.284724
0.307683
0.276351
0.354533
0.332153
0.332724
0.458751
0.428653
0.414093
0.419672
0.491456
0.466883
0.501817
0.478103
0.473806
0.467147
0.496845
0.471007
0.465332
0.453929
0.459196
0.395443
0.417223
0.372765
0.426573
0.389733
0.328188
0.299047
0.295293
0.363646
0.182449
0.200724
0.234545
0.224858
0.165720
0.208660
0.169844
0.115421
0.151186
0.110187
0.077028
0.043760
0.101890
0.181257
0.020120
0.096290
-0.036203
0.019674
0.044534
0.007696
-0.034403
-0.029071
-0.090847
-0.080165
-0.074295
-0.088949
-0.043063
-0.075561
-0.064151
0.052817
-0.038675
-0.011136
-0.035280
-0.047182
-0.037499
-0.030549
-0.028931
-0.083078
-0.131708
-0.068009
-0.126629
0.005661
0.015841
-0.076371
-0.014538
0.043751
-0.020212
-0.116082
0.025247
-0.021819
-0.054150
-0.076374
-0.108269
-0.142660
-0.024321
-0.004940
-0.046847
-0.051706
-0.045333
-0.013283
-0.039520
-0.067418
0.016389
-0.099669
-0.007363
-0.014769
-0.079721
-0.014249
-0.044472
-0.086311
-0.115017
-0.050026
-0.034540
-0.055622
-0.009759
-0.002985
-0.036671
0.028508
0.090867
-0.001083
0.007331
0.070943
0.050322
0.026073
0.070347
0.061127
0.154580
0.125154
-0.027485
0.108434
0.092096
0.146840
0.074889
0.130044
0.122921
0.134109
0.182801
0.112599
0.158885
0.093142
0.089812
0.144827
0.130113
0.076947
0.119366
0.125082
0.093698
0.043156
0.026672
0.023647
0.049039
0.073488
-0.005819
0.052347
0.050622
0.060779
-0.049079
0.068992
-0.019270
-0.012821
-0.014311
0.012117
-0.026615
0.068753
-0.005527
0.019215
0.019924
-0.038699
-0.025905
0.057553
0.159153
0.404944
0.704309
0.991256
1.281490
1.393519
1.262864
1.025906
0.722629
0.358861
0.007817
-0.188898
-0.289915
-0.213905
-0.157954
-0.166575
0.043244
0.041296
0.000638
0.025102
0.153018
0.059694
0.046735
0.064269
0.076747
0.075170
0.110335
0.082824
0.133145
0.090903
0.075073
0.160841
0.219364
0.141680
0.111658
0.193545
0.178539
0.217274
0.289055
0.247116
0.342639
0.307357
0.357166
0.358332
0.457934
0.433041
0.438282
0.475086
0.466785
0.470112
0.500153
0.453910
0.562069
0.560780
0.568246
0.551882
0.591615
0.507210
0.520173
0.393892
0.491879
0.516901
0.373075
0.436625
0.527344
0.422613
0.406898
0.441549
0.404296
0.314820
0.308926
0.391869
0.289327
0.246428
0.264643
0.236188
0.187295
0.217745
0.124172
0.200709
0.110865
0.084833
0.068394
0.179514
0.037809
0.118926
0.096442
0.055750
0.027678
0.084409
0.121310
0.070200
0.030622
0.012951
0.070647
0.015044
0.137572
0.064398
0.038400
0.012326
0.069914
0.007849
0.107147
0.027579
0.042407
0.106240
0.079757
0.006081
0.042543
0.077621
0.085624
0.058146
0.089729
0.097717
0.056483
-0.037994
-0.002754
0.066023
0.059446
0.077441
0.036234
0.116092
0.050751
0.018101
0.022345
0.109385
0.069804
0.042156
0.077379
0.078490
0.043028
0.082716
-0.008693
0.013915
0.106796
0.094634
0.050897
0.021181
0.026171
0.113910
0.059598
0.016859
0.034317
-0.045714
0.043698
0.075980
0.091316
0.158405
0.122337
0.125011
0.121175
0.186266
0.118027
0.170260
0.113377
0.135640
0.168613
0.204064
0.237134
0.207898
0.188768
0.214856
0.146411
0.283222
0.300609
0.260161
0.149377
0.284150
0.214290
0.179084
0.254398
0.258966
0.215429
0.182297
0.198130
0.221463
0.163496
0.138936
0.183256
0.089585
0.083327
0.144370
0.188783
0.114126
0.057617
0.072988
0.142635
0.150982
0.133395
0.074059
0.070972
0.037280
0.069873
0.061017
0.117281
0.021066
0.062199
0.002744
0.117583
0.099709
0.207338
0.491056
0.662608
1.044414
1.316006
1.500000
1.381211
1.119265
0.827874
0.331290
0.095676
0.022964
-0.203409
-0.068469
-0.045678
0.045073
0.093409
0.083183
0.146096
0.135577
0.234081
0.156387
0.111579
0.150505
0.153327
0.152198
0.143296
0.208105
0.233322
0.207917
0.165116
0.223515
0.256331
0.207555
0.297226
0.292768
0.336448
0.326145
0.345446
0.392797
0.423978
0.475583
0.461989
0.384600
0.463886
0.464653
0.470936
0.617762
0.604391
0.568932
0.548478
0.573390
0.649419
0.581024
0.620407
0.595181
0.614742
0.616170
0.573133
0.646113
0.479498
0.562426
0.494488
0.556827
0.441584
0.523601
0.485226
0.450896
0.425260
0.391310
0.424837
0.365171
0.315584
0.361355
0.357379
0.344440
0.272375
0.204836
0.238661
0.288080
0.231397
0.175413
0.148343
0.088730
0.313423
0.159506
0.180676
0.157918
0.265282
0.078050
0.109477
0.138900
0.209354
0.080463
0.096973
0.069570
0.158098
0.045333
0.043225
0.094766
0.099468
0.070742
0.093746
0.098807
0.067262
0.144704
0.119716
0.100956
0.109349
0.149413
0.163525
0.060054
0.114163
0.085816
0.005810
0.039414
0.089837
0.093587
0.192575
0.174221
0.090008
0.169259
0.006083
0.044910
0.063936
0.107853
0.100590
0.109324
0.020469
0.056257
0.091961
-0.033016
0.033278
-0.017253
0.062397
0.002990
0.058117
0.072902
0.122157
0.119621
0.046975
0.121383
0.020176
0.069256
0.130680
0.078900
0.092445
0.212793
0.149221
0.130561
0.103418
0.135736
0.112075
0.159393
0.110608
0.230886
0.300170
0.258299
0.217566
0.188847
0.241735
0.272236
0.241672
0.261106
0.249382
0.237938
0.216937
0.229718
0.225083
0.219522
0.207237
0.262472
0.203855
0.155269
0.166608
0.156579
0.160950
0.167006
0.105680
0.151391
0.047484
0.188711
0.064374
0.010555
0.123808
0.083674
0.088256
0.158755
0.082303
0.062235
0.146071
0.025058
0.135857
0.149330
0.061131
0.016105
0.056204
0.065650
0.009029
0.047462
0.191739
0.431687
0.662347
1.153259
1.256416
1.427648
1.331013
1.097084
0.766917
0.423161
0.113668
-0.077762
-0.177459
-0.207050
-0.221707
-0.058307
-0.018397
0.034021
0.059917
0.065367
0.093893
0.005719
0.092639
-0.003661
0.116232
0.066985
0.165137
0.135206
0.130853
0.121607
0.210600
0.075301
0.174424
0.156121
0.212209
0.111977
0.283900
0.262188
0.335486
0.302584
0.326319
0.318787
0.412412
0.384370
0.455722
0.505549
0.418193
0.460533
0.447303
0.433749
0.507760
0.554460
0.541152
0.470411
0.476893
0.502548
0.546477
0.539082
0.475639
0.550990
0.400737
0.523073
0.456050
0.411728
0.356938
0.381653
0.366675
0.389993
0.327408
0.356350
0.305166
0.308022
0.317959
0.275339
0.306976
0.189150
0.172461
0.164335
0.255332
0.099553
0.132918
0.025107
0.112280
0.083467
0.083581
0.090756
0.137846
0.082881
0.058627
0.125181
0.003535
-0.023323
0.056903
0.053315
0.050903
-0.018148
-0.145764
-0.016738
-0.024238
-0.004362
-0.024222
-0.095907
0.051397
-0.057533
0.012518
-0.016374
0.015188
-0.018283
-0.009930
-0.023290
-0.068611
0.063486
-0.028235
-0.057314
-0.000207
0.004701
-0.109851
0.069936
0.024906
0.021591
-0.032781
0.026872
-0.069819
-0.070994
-0.010364
-0.008865
-0.030147
-0.047641
0.020730
-0.025491
-0.095564
-0.068183
-0.046917
-0.008236
-0.015382
0.000715
-0.063874
-0.011496
0.011366
-0.025451
-0.057532
-0.000642
-0.045834
-0.064162
0.024619
-0.107536
-0.044597
0.049121
0.038655
-0.027962
0.027065
0.010177
0.027227
-0.002327
0.098961
0.059637
0.072148
0.072382
0.102102
0.062938
0.120141
0.125420
0.137583
0.185378
0.109376
0.181108
0.178057
0.171970
0.157163
0.175074
0.107517
0.106795
0.078379
0.003971
0.122040
0.035928
0.030615
0.037468
0.008682
-0.020814
-0.003094
0.050195
-0.101972
-0.013568
-0.092599
-0.088393
-0.041706
-0.021776
-0.052857
-0.074449
-0.127923
-0.053719
-0.079136
-0.045492
-0.130084
-0.108504
-0.017655
-0.047947
-0.121097
-0.005784
0.189893
0.266235
0.643419
0.933549
1.161527
1.313571
1.179909
0.945118
0.651597
0.215855
-0.020875
-0.297389
-0.256385
-0.310368
-0.190406
-0.154530
-0.056434
-0.051299
-0.120048
-0.039787
-0.042040
-0.062786
0.014222
-0.073918
0.008585
-0.004658
0.011438
-0.046280
-0.027041
0.036255
0.017707
0.076852
-0.040140
0.054714
0.156583
0.198199
0.227923
0.147657
0.180505
0.181828
0.262979
0.196531
0.339767
0.241708
0.247822
0.276919
0.330935
0.355881
0.423638
0.335975
0.493780
0.510804
0.376963
0.438282
0.437249
0.398585
0.467048
0.359750
0.390680
0.417949
0.402389
0.415383
0.375749
0.268816
0.305983
0.270034
0.272666
0.343227
0.262886
0.382412
0.342581
0.212342
0.257731
0.154331
0.120932
0.155258
0.111855
0.099332
0.134544
0.063042
0.035227
-0.007772
-0.006210
0.050046
0.047189
0.047681
0.038464
-0.027916
0.012734
-0.125932
-0.078770
-0.032153
-0.015939
-0.063389
-0.064601
-0.035213
-0.077836
-0.010665
-0.086815
-0.058781
-0.060022
-0.089533
-0.055967
-0.129107
-0.125537
0.004130
-0.098049
-0.067975
-0.003289
-0.034110
-0.082522
0.052173
-0.090988
-0.092038
-0.057953
-0.096441
-0.072701
-0.109689
-0.054163
-0.043885
0.002429
-0.072291
-0.138238
-0.080981
-0.049106
-0.015456
-0.036769
-0.127109
-0.064381
-0.138590
0.000054
-0.075946
-0.083695
-0.036815
-0.154936
-0.024919
-0.010878
-0.086121
-0.081995
-0.086345
-0.007513
-0.183893
-0.056973
-0.017683
-0.034150
0.004538
0.017835
-0.077243
-0.037731
0.049486
0.009939
-0.014691
-0.036360
0.045300
0.043822
0.085167
0.103973
0.113020
0.059170
0.114468
0.040428
0.119416
0.202704
0.176190
0.118090
0.156037
0.126971
0.111562
0.075201
0.094350
0.086540
0.049310
0.120138
0.038484
0.130545
0.005691
0.058204
0.034162
0.053182
-0.020507
0.002531
0.045615
0.001765
-0.025097
-0.035054
-0.057899
-0.059372
-0.056068
-0.016422
-0.057680
0.024554
-0.026912
0.008119
-0.057315
-0.110558
-0.079408
-0.029021
-0.046466
-0.080903
0.063177
0.151555
0.396248
0.682299
0.980058
1.179104
1.293425
1.287944
1.095902
0.634189
0.310362
-0.026492
-0.173083
-0.227928
-0.292760
-0.231840
-0.033371
-0.043461
0.082847
0.039465
-0.081165
-0.028123
-0.086748
0.058458
0.058513
-0.014669
0.046885
0.068498
0.024869
0.093607
0.034590
0.036600
0.146212
0.159178
0.185347
0.224389
0.130864
0.173124
0.316334
0.226731
0.279462
0.269832
0.396257
0.332661
0.287482
0.398594
0.369164
0.412675
0.378708
0.430064
0.473583
0.418311
0.475615
0.407028
0.543623
0.522623
0.480113
0.528055
0.500601
0.460936
0.390020
0.425995
0.458275
0.432259
0.421032
0.424102
0.420704
0.379988
0.399514
0.362353
0.257758
0.370258
0.273396
0.277833
0.308797
0.166876
0.279211
0.163657
0.157784
0.219044
0.170156
0.165014
0.105236
0.011354
0.038320
0.108275
0.043518
0.004722
0.118227
0.000246
0.072222
-0.068147
-0.008431
0.054523
0.073600
0.044100
0.052807
0.041657
0.025357
-0.012747
-0.024478
-0.001807
0.001149
-0.038910
-0.026016
-0.008004
0.027223
0.030844
-0.050043
-0.070711
0.001199
0.005048
0.032542
0.126016
0.094672
0.007668
0.013474
0.008208
0.125498
0.108337
-0.012172
0.045577
-0.050866
-0.008594
0.044413
-0.010041
0.019844
-0.010719
0.052068
0.062276
-0.028119
-0.024384
0.004067
-0.000005
0.100916
0.099062
0.011011
0.086703
0.063544
0.068200
-0.029539
0.006748
0.089217
0.106410
-0.006006
0.043613
0.046253
0.016346
0.066006
0.091426
0.211330
0.101890
0.101256
0.166085
0.124267
0.135694
0.208227
0.163896
0.282736
0.087701
0.199360
0.183864
0.199884
0.264413
0.173666
0.159620
0.281937
0.240901
0.201746
0.180009
0.191776
0.254609
0.263419
0.227676
0.173364
0.213015
0.149323
0.144766
0.092705
0.205332
0.151879
0.113947
0.143607
0.099382
0.151405
0.133364
0.054405
0.046444
0.038258
0.064104
0.087344
0.166180
0.022751
0.046348
0.034386
0.093274
0.084285
0.048113
0.028717
0.013657
0.086422
0.164934
0.352350
0.717450
1.042309
1.352986
1.401519
1.367074
1.112009
0.747943
0.418791
0.068298
-0.095614
-0.172532
-0.198925
-0.104707
-0.067657
0.022064
0.069285
0.126241
0.011112
0.084193
0.049263
0.118405
0.069521
0.101358
0.093862
0.097614
0.166128
0.168510
0.171280
0.217876
0.200588
0.159841
0.301425
0.211547
0.353912
0.265533
0.329640
0.355895
0.296007
0.357516
0.448961
0.334660
0.348944
0.370076
0.460256
0.493049
0.476548
0.547191
0.552645
0.486929
0.528904
0.642784
0.529041
0.529148
0.661731
0.574536
0.580777
0.551368
0.556980
0.503791
0.532535
0.476123
0.537770
0.447917
0.430329
0.392426
0.446478
0.453569
0.338655
0.289187
0.309507
0.318350
0.310936
0.289642
0.194839
0.201107
0.190875
0.213976
0.176000
0.203768
0.193169
0.132582
0.155541
0.189428
0.130495
0.075151
0.142098
0.082920
0.150821
0.131407
-0.024452
-0.046038
0.062992
0.040746
0.007102
0.026622
-0.013532
0.036033
0.097057
-0.018752
-0.002544
0.000153
0.090831
0.003295
-0.029462
-0.004802
0.043576
0.087095
0.019137
0.038188
-0.035647
0.098588
0.076347
0.074842
-0.035509
0.052844
0.023795
0.012125
-0.005933
-0.041929
0.043287
-0.037850
0.049351
-0.042216
0.065879
-0.031472
0.003567
-0.044478
-0.036193
0.051859
0.002692
0.002156
0.164402
-0.095658
0.070964
0.017077
0.041977
0.064282
0.038343
0.095334
0.001741
0.052865
0.045090
0.041477
0.037016
0.070007
0.109613
0.034337
0.079554
0.046693
0.037113
0.029617
0.101299
0.047773
0.092667
0.069412
0.169194
0.127423
0.100270
0.163933
0.177350
0.166721
0.146667
0.149641
0.183498
0.188193
0.189577
0.150252
0.132977
0.101357
0.130384
0.144674
0.083358
0.120766
0.050076
0.114618
0.062719
0.027245
0.064573
-0.007208
-0.019446
0.029238
-0.024101
-0.026834
0.060763
-0.059366
0.023412
0.049769
-0.037013
0.034196
0.062018
0.012672
-0.083699
0.001484
-0.022498
-0.094214
-0.052082
-0.071038
0.044332
0.187502
0.363629
0.682589
1.010421
1.228331
1.405326
1.300980
1.050968
0.673394
0.293254
-0.027238
-0.205391
-0.227395
-0.242513
-0.213500
-0.205417
-0.109695
-0.122612
-0.006109
-0.076519
-0.058738
-0.000280
0.020703
0.064064
0.011290
0.030843
0.000400
0.026499
0.076260
0.093042
0.090826
0.104932
0.123831
0.070945
0.142700
0.143930
0.189595
0.168139
0.146334
0.289678
0.274647
0.155370
0.306387
0.241717
0.357722
0.386679
0.377527
0.339618
0.437018
0.460306
0.489007
0.392339
0.464375
0.381774
0.445042
0.426990
0.433512
0.403422
0.450894
0.519968
0.345969
0.370902
0.388655
0.382016
0.391397
0.377128
0.347650
0.374411
0.309742
0.261745
0.215044
0.205740
0.229676
0.206647
0.179009
0.105419
0.124346
0.067200
-0.012771
0.115179
0.055081
0.154932
0.084483
-0.051109
0.014325
0.021372
0.030673
-0.019992
-0.034902
-0.017377
-0.000311
-0.057357
-0.070685
0.011398
-0.061927
-0.016510
-0.051362
-0.112026
-0.056755
-0.042711
-0.061916
-0.079570
-0.103774
-0.071995
-0.090831
-0.071384
-0.110788
-0.019558
-0.137649
-0.075694
-0.056977
-0.097498
-0.055920
-0.012072
-0.069378
-0.067449
-0.038354
-0.038005
-0.040401
-0.065109
-0.115122
-0.052369
-0.027857
-0.089580
-0.120945
-0.001106
-0.100451
-0.056460
-0.137749
-0.082604
-0.012130
-0.073004
-0.123078
-0.037294
-0.099221
-0.088765
-0.051667
-0.075111
-0.027900
-0.054479
-0.132522
-0.085116
0.014722
-0.146026
-0.054978
-0.090154
-0.119100
-0.179890
-0.018252
-0.056352
-0.063509
-0.010039
0.017942
-0.006318
-0.087281
0.021083
-0.017351
0.047273
0.014438
0.057819
0.027658
0.050488
0.037948
0.064096
0.086297
0.084108
0.013965
0.149181
0.071434
0.149062
0.133934
0.068721
0.027620
0.009770
0.064036
0.030353
0.035460
-0.041406
-0.047987
-0.078999
-0.038544
-0.036643
0.007315
-0.115358
-0.037658
-0.064984
-0.125003
-0.090942
-0.147375
-0.031106
-0.091459
-0.041136
-0.060580
-0.116870
-0.114185
-0.096787
-0.123298
-0.100945
-0.160811
-0.084174
0.091555
0.252976
0.540139
0.991044
1.173684
1.270826
1.232140
0.940316
0.504721
0.227267
-0.088107
-0.218781
-0.390374
-0.214506
-0.181163
-0.204174
-0.134650
-0.134319
-0.083758
-0.098501
-0.056564
0.021693
-0.148637
-0.074374
-0.054349
-0.081930
-0.031731
0.063174
0.047301
-0.016765
0.062950
0.054357
0.068471
0.050629
0.018845
0.156533
0.111737
0.212708
0.172218
0.110400
0.287790
0.299693
0.244551
0.348622
0.336732
0.422963
0.429285
0.346730
0.396728
0.314157
0.362808
0.362608
0.409925
0.353811
0.514442
0.415468
0.392427
0.434469
0.441448
0.440579
0.461309
0.432378
0.402048
0.321482
0.330476
0.361820
0.226009
0.297523
0.276655
0.275599
0.141638
0.227517
0.271701
0.222377
0.169495
0.084062
0.086890
0.069255
0.083506
0.008057
0.022455
0.043323
0.032967
0.074365
0.044942
-0.001777
-0.039101
0.051890
0.004072
-0.066142
-0.001542
-0.029621
0.013664
-0.014283
-0.010926
0.037723
-0.025869
0.039636
-0.111515
0.001710
-0.131832
-0.074111
-0.060911
-0.074381
-0.058897
-0.027100
-0.082634
0.020858
-0.078067
-0.029269
-0.012091
-0.106867
-0.109431
-0.125370
-0.029819
-0.083019
-0.057970
-0.094556
-0.016195
-0.033983
-0.045756
-0.098927
-0.086437
-0.017799
-0.063845
-0.079923
-0.093988
-0.121339
-0.026522
-0.086638
-0.041801
0.006250
-0.123727
-0.065624
-0.005908
-0.052889
-0.050139
-0.068893
-0.037654
-0.074967
-0.054811
-0.032476
-0.017626
-0.029143
-0.032951
-0.027501
-0.013621
0.011782
-0.034027
0.041658
0.051597
0.007595
0.029300
-0.001282
0.021895
0.075207
0.020558
0.139607
0.116848
0.148328
0.185713
0.099409
0.183637
0.159357
0.118027
0.200184
0.142514
0.232529
0.102306
0.119788
0.103780
0.067539
0.068406
0.025467
0.082890
0.084822
0.050073
0.064283
0.054110
0.073570
0.019794
0.017702
-0.004964
0.044497
0.018725
-0.045533
0.029759
-0.015879
0.127586
0.043665
0.017570
0.010294
-0.075943
0.020606
0.013752
-0.038203
0.004783
-0.006421
-0.039101
0.004647
0.163890
0.405017
0.691152
1.058064
1.282876
1.342928
1.275963
1.104822
0.739741
0.292275
0.017102
-0.153676
-0.127281
-0.191328
-0.136883
-0.105353
0.019744
-0.032500
0.027325
-0.050710
0.024957
0.127125
0.040190
0.025858
0.141386
0.087811
0.093426
0.117879
0.099454
0.134122
0.106723
0.230428
0.188220
0.198977
0.137450
0.254459
0.297791
0.269719
0.305774
0.229827
0.298299
0.309177
0.404138
0.437891
0.379844
0.489435
0.488926
0.515147
0.523349
0.513950
0.544959
0.520514
0.418210
0.441266
0.512932
0.460432
0.553272
0.534302
0.513873
0.490002
0.462773
0.539238
0.487957
0.484890
0.444669
0.469946
0.406332
0.376663
0.334277
0.336634
0.373605
0.397975
0.324347
0.329380
0.246770
0.170612
0.181917
0.217966
0.169508
0.222021
0.149765
0.118273
0.246009
0.123618
0.124872
0.108704
0.043929
0.119384
0.126467
0.119085
0.101321
0.041616
0.034273
0.084602
0.107560
0.038884
0.045275
0.101721
-0.019752
0.099457
-0.014530
0.066749
0.044632
0.039577
0.122652
0.033229
0.007784
0.046392
0.012033
0.095437
0.031805
0.117142
0.056138
0.111941
0.070541
0.059910
0.052103
0.029251
-0.025576
0.029192
0.050552
0.062973
0.085712
0.036343
0.030416
0.099425
0.074211
0.058047
0.019018
0.085171
0.076036
0.026012
0.040115
-0.018608
0.024769
0.026059
0.016775
0.115711
-0.023401
0.070750
0.092492
0.044639
0.094362
0.085968
0.131396
0.083381
0.101811
0.131053
0.164381
0.125037
0.186216
0.154815
0.178494
0.189661
0.197295
0.176494
0.164063
0.193438
0.202856
0.177775
0.173030
0.196214
0.206207
0.224742
0.185350
0.190193
0.222726
0.191049
0.268496
0.210861
0.151817
0.178216
0.220877
0.154367
0.194864
0.222816
0.127528
0.207574
0.144660
0.264217
0.099182
0.066436
0.126671
0.148259
0.059655
0.031625
0.122263
0.031934
0.116399
0.048573
0.120528
0.076096
0.097623
0.063007
0.063508
0.158227
0.112721
0.078116
-0.002844
0.195087
0.275921
0.420232
0.744124
0.992462
1.312888
1.464097
1.389844
1.105466
0.785980
0.368410
0.115817
-0.013187
-0.141390
-0.081745
-0.109660
-0.110196
0.067041
0.078787
0.098586
0.076889
0.131638
0.180561
0.129526
0.130122
0.094194
