0.033861
-0.064318
0.071502
0.020464
-0.008824
0.023754
0.010120
-0.019242
0.017011
0.049365
0.008410
0.057197
0.024580
-0.016667
0.032971
0.027177
0.034921
0.040213
-0.054468
0.000220
0.035595
-0.033631
-0.009966
-0.023771
-0.004401
-0.015083
0.030568
0.037859
0.083363
0.060110
0.044792
0.018527
-0.034959
0.069688
0.185445
0.110349
0.112763
0.148628
0.110468
0.111193
0.115671
0.145851
0.096638
0.175602
0.087229
0.208517
0.147119
0.235442
0.219939
0.151271
0.240159
0.189063
0.160865
0.232472
0.247089
0.157695
0.165972
0.161018
0.189767
0.136587
0.109554
0.182453
0.033444
0.186237
0.012132
0.054000
0.141010
0.080879
0.123038
0.012539
0.052633
0.100734
0.014960
0.036471
0.128612
0.015531
0.100589
0.089524
0.011515
0.068883
0.038192
0.059398
0.104888
-0.022369
0.053622
0.085619
-0.023859
0.063693
0.031241
-0.042533
0.029227
0.035590
-0.003156
0.068645
0.033017
-0.017908
0.039143
0.379390
0.560806
0.874447
1.212182
1.453386
1.500000
1.360346
1.110027
0.772900
0.477265
0.130658
-0.089041
-0.267841
-0.236812
-0.230726
-0.145758
-0.087352
-0.084340
0.026602
0.121117
0.116309
0.140834
0.176146
0.023379
0.068256
0.124737
0.111491
0.063422
0.042062
0.112678
0.054369
0.144728
0.154590
0.069815
0.120097
0.151349
0.154524
0.110737
0.189910
0.130340
0.105350
0.073197
0.137788
0.235954
0.284513
0.229637
0.243090
0.263479
0.261062
0.343508
0.322067
0.353108
0.360864
0.356472
0.384255
0.387189
0.383039
0.440439
0.500391
0.461959
0.440945
0.542342
0.487709
0.562169
0.605753
0.557304
0.572111
0.554489
0.598193
0.596596
0.586191
0.582051
0.551678
0.560292
0.452786
0.602891
0.550812
0.487073
0.465035
0.515621
0.424427
0.452859
0.415874
0.341256
0.430659
0.371247
0.356200
0.373129
0.347540
0.279948
0.359710
0.242968
0.244355
0.124193
0.196698
0.139064
0.162236
0.183025
0.094341
0.212091
0.141018
0.078110
0.067338
0.211738
0.084435
0.149988
0.103711
0.063681
0.083765
0.130900
0.036231
0.138915
0.130729
0.108014
0.155914
0.125955
0.072726
0.087786
0.057633
0.151998
0.046619
0.050012
0.008019
0.079237
0.110016
0.131236
0.113949
0.069235
0.095442
-0.010781
-0.043734
0.096341
0.058310
0.095563
0.036877
0.103691
0.099798
0.053612
0.108477
0.047808
0.080319
0.101679
0.126686
0.060880
0.074543
0.178615
0.023793
0.036860
0.097447
0.141660
0.089752
0.086249
0.072717
0.015824
0.118618
0.084034
0.126523
0.022774
0.038608
-0.019153
0.052584
0.002799
0.061607
0.122724
0.143146
-0.000832
0.081068
0.106168
0.135146
0.052572
0.089884
0.063862
0.144283
0.095742
0.025566
0.012275
0.104018
0.143544
0.050453
0.076216
0.087666
0.055059
0.053592
0.067692
0.047518
0.074165
0.077158
0.110257
0.095135
0.148933
0.053479
0.157676
0.125531
0.213523
0.154836
0.116720
0.111563
0.141573
0.219029
0.154830
0.295302
0.189639
0.175483
0.299565
0.179979
0.221755
0.189058
0.271126
0.306582
0.243938
0.222557
0.115964
0.192392
0.278641
0.251113
0.183348
0.210647
0.182394
0.151351
0.113178
0.195186
0.129655
0.130333
0.146731
0.074310
0.100230
0.067086
0.095728
0.052566
0.118604
0.071580
0.078220
0.072957
0.094746
0.064125
0.054274
0.030623
0.101811
0.061614
0.086455
0.061478
-0.002512
0.057584
0.065374
0.086058
0.066024
0.005216
-0.024134
0.037544
-0.048758
0.027036
-0.006069
0.047301
0.092496
0.199105
0.522725
0.796007
1.058226
1.388139
1.407143
1.351501
1.223936
0.727114
0.450320
0.159700
-0.047994
-0.241648
-0.229699
-0.277976
-0.122128
-0.060492
-0.008154
-0.056617
0.086651
0.078246
0.022887
0.036050
-0.047554
-0.013446
0.039956
0.035490
0.031487
0.120251
0.071960
0.009407
0.066907
0.064364
0.029007
0.034212
0.050589
0.059951
0.130819
0.001191
0.069125
0.069298
0.104079
0.130121
0.186884
0.086976
0.142144
0.152871
0.175053
0.239969
0.228380
0.253117
0.265528
0.308837
0.225205
0.337791
0.381301
0.414910
0.390902
0.411941
0.425236
0.400073
0.453712
0.421085
0.496225
0.485117
0.526769
0.523796
0.522611
0.504132
0.452546
0.553085
0.497768
0.471373
0.495735
0.429455
0.494507
0.325178
0.407605
0.397717
0.357590
0.338395
0.339066
0.311936
0.328578
0.295212
0.248327
0.284294
0.198263
0.174253
0.200844
0.160952
0.095490
0.126804
0.168671
0.134092
0.054474
0.115220
0.123673
0.039469
0.060267
0.020307
0.077207
0.031656
-0.010442
0.052479
0.047086
0.019499
0.020734
-0.046344
-0.020512
-0.026603
-0.112872
-0.003009
0.001700
0.025237
0.036263
-0.001154
0.018633
-0.002866
-0.017423
0.003092
0.005112
0.006139
-0.075317
-0.016935
0.033547
-0.039896
-0.013833
-0.034156
-0.012237
-0.059037
-0.056998
-0.024704
0.001245
-0.059328
-0.103672
-0.058718
0.014671
0.001905
-0.050446
-0.048658
0.001265
-0.016397
0.015970
0.050433
-0.132287
0.002636
-0.061416
-0.005561
-0.006959
-0.009528
0.009801
-0.050827
-0.010243
-0.077115
0.000233
0.011257
-0.068993
-0.009815
-0.049187
-0.051318
-0.071986
-0.048042
-0.050132
-0.005508
-0.088460
-0.091609
-0.023059
0.051352
-0.025899
-0.095435
0.037384
-0.038195
-0.088085
-0.002966
-0.027794
-0.046554
-0.084604
-0.023497
-0.009720
-0.083675
-0.034954
-0.003207
-0.093576
-0.064831
-0.041443
0.000853
0.029934
-0.041560
0.025451
-0.069777
0.012712
-0.027745
-0.056621
-0.068503
0.057832
0.038201
0.026862
0.015986
0.096496
0.035975
0.154192
0.125799
0.130925
0.145891
0.145882
0.139849
0.139820
0.161854
0.067925
0.154679
0.127498
0.151915
0.118626
0.073152
0.093857
0.062021
0.117794
-0.011262
0.165274
-0.069416
0.062591
0.089401
0.071019
0.005436
0.044647
-0.009788
0.004970
-0.010239
-0.051862
-0.039237
-0.104083
-0.042135
-0.052519
-0.014159
-0.082419
-0.134416
-0.131372
-0.135633
-0.051215
-0.034802
-0.077910
-0.112214
-0.069893
-0.023692
0.031604
-0.073155
-0.058705
-0.090563
-0.137728
-0.144917
-0.110912
-0.071194
-0.012359
0.078759
0.385541
0.611989
0.949181
1.316101
1.410466
1.320799
1.051604
0.730768
0.524616
0.220428
-0.093508
-0.316523
-0.275310
-0.369734
-0.290479
-0.145134
-0.111494
-0.104047
-0.112442
-0.030309
-0.075554
0.040859
0.080178
0.004573
0.022814
-0.027882
-0.040896
0.025061
-0.009965
-0.057727
0.050431
-0.060613
-0.046777
-0.078513
0.038510
0.009787
-0.050926
0.058200
0.029557
-0.004247
0.094987
0.036391
0.160850
0.053311
-0.004944
0.127886
0.080327
0.147758
0.135000
0.271548
0.176053
0.180987
0.208935
0.271517
0.239489
0.317482
0.305510
0.356382
0.383087
0.381340
0.285434
0.460071
0.408207
0.357713
0.507043
0.474265
0.498069
0.513840
0.461004
0.462683
0.481730
0.439301
0.422181
0.427973
0.476192
0.392913
0.472542
0.406832
0.356984
0.369905
0.363294
0.320033
0.414020
0.325201
0.260994
0.315720
0.270617
0.185279
0.275895
0.269319
0.159992
0.117428
0.146655
0.111329
0.072221
0.065270
0.091428
-0.018038
0.043200
0.035602
0.052955
0.068421
0.015516
0.049512
0.049626
0.007070
0.013429
0.031005
-0.008298
-0.032591
0.064977
0.083323
-0.056773
-0.009249
-0.003045
0.008038
0.054673
-0.092781
0.000827
-0.045486
0.026288
-0.002749
0.045587
0.036938
-0.009332
-0.036670
-0.029724
-0.030320
-0.074729
-0.006794
-0.054782
0.034454
0.015223
0.079662
-0.039164
0.079346
-0.048941
0.055304
0.004673
0.034724
0.017884
-0.051752
-0.017245
0.060912
0.132577
0.007381
0.081016
0.010222
-0.020873
0.039069
0.039201
0.075150
0.031177
0.058622
0.063663
-0.029422
0.039985
0.075328
0.038960
0.003617
0.047424
0.047978
0.067758
0.011180
-0.000104
0.062692
0.076462
0.085319
0.014317
-0.017877
-0.000760
0.010317
-0.019596
0.107713
0.013623
0.035212
0.043819
0.119400
0.054863
-0.018796
0.022707
0.084354
0.071888
0.029764
0.080408
0.073407
0.032391
0.025235
0.088743
0.103969
0.139513
0.042281
0.181119
0.056037
0.090727
0.117012
0.137148
0.156294
0.087618
0.233198
0.182004
0.236443
0.191968
0.203984
0.199260
0.265164
0.278069
0.262726
0.238715
0.141731
0.140970
0.211127
0.232076
0.280244
0.204983
0.163061
0.156878
0.134789
0.203106
0.153272
0.118832
0.165895
0.097368
0.082709
0.095034
0.081998
0.120439
0.112509
0.069950
0.058656
0.090726
0.092145
0.067898
0.065515
0.058663
0.131360
0.135929
0.128337
0.091659
-0.000259
0.006565
0.091959
0.037300
0.002093
0.107572
0.152338
0.126870
0.073427
0.113684
0.035115
0.031563
-0.008920
0.091904
0.191973
0.386104
0.630237
1.044628
1.330532
1.472662
1.432138
1.283791
0.996584
0.657884
0.249542
0.081680
-0.163088
-0.241090
-0.204989
-0.161283
-0.040136
-0.000521
0.017723
0.033530
0.117270
0.083194
0.158574
0.056410
0.047442
0.128557
0.128805
0.084393
0.087469
0.016853
0.139195
0.182429
0.085206
0.124098
0.160086
0.061658
0.208789
0.192466
0.186227
0.071392
0.223147
0.244496
0.092024
0.218995
0.165202
0.241686
0.276693
0.334028
0.306394
0.305261
0.349872
0.357710
0.335259
0.366117
0.386580
0.485640
0.444638
0.456203
0.450398
0.547634
0.539488
0.561451
0.577141
0.583112
0.638123
0.480802
0.622388
0.540289
0.590190
0.600773
0.549053
0.682615
0.508274
0.609693
0.516507
0.516354
0.531462
0.552126
0.501623
0.399438
0.474389
0.378595
0.498492
0.417992
0.486102
0.375412
0.418762
0.278569
0.253186
0.331696
0.272191
0.294675
0.238352
0.212393
0.227400
0.229769
0.178382
0.185722
0.130699
0.149237
0.108783
0.108471
0.122146
0.145227
0.109348
0.104189
0.117584
0.063266
0.128950
0.057964
0.037596
0.077850
0.138800
0.019726
0.104436
0.115941
0.051795
0.090582
0.103951
0.107498
0.036111
0.086940
0.103957
0.079051
0.069664
0.110390
0.072871
0.116452
0.067423
0.063512
0.080108
0.116243
0.064723
0.045961
0.107901
0.117514
0.105024
0.062870
0.124316
0.042786
0.075930
0.112364
0.031206
0.062716
0.059938
0.083393
0.107028
0.108699
0.092569
0.043746
0.049382
0.137840
0.085467
0.071912
0.073583
0.061609
0.014791
0.112526
0.038089
0.042886
0.087772
0.054402
-0.023262
0.025544
0.110298
0.049443
0.007982
-0.026531
0.096737
0.088981
0.075282
0.042134
0.131939
0.103452
0.041209
0.031922
0.062452
0.022471
0.073032
0.069701
0.048882
0.042249
0.083715
0.012858
0.027931
0.090787
0.062156
0.026808
0.049612
0.065273
0.125903
0.056615
0.151752
0.042824
0.161585
0.037033
0.209895
0.156087
0.098278
0.183275
0.275789
0.256021
0.209143
0.190532
0.169496
0.195472
0.213151
0.192229
0.286561
0.210106
0.225830
0.212024
0.262999
0.214475
0.273949
0.178474
0.189594
0.128921
0.147565
0.096177
0.152544
0.106157
0.097568
0.121144
0.093885
0.099528
0.160946
0.067591
0.018204
0.094179
0.120908
-0.008974
-0.037624
0.004839
0.046061
0.055993
0.006176
-0.049017
0.022635
0.074864
0.039148
0.016132
0.052927
0.032762
-0.078740
0.057632
0.057555
0.036109
0.072957
-0.069462
0.004100
-0.004838
-0.082521
-0.078500
0.159134
0.247433
0.505248
0.867134
1.201096
1.345431
1.462843
1.279216
1.081240
0.679723
0.314485
0.073414
-0.170713
-0.258376
-0.368863
-0.278436
-0.176167
-0.111257
-0.106711
-0.038855
0.021731
-0.080617
0.061702
0.073511
0.002692
0.011644
-0.076139
0.075136
-0.002951
0.018081
0.019847
0.048114
-0.031788
0.037361
0.058680
-0.003348
0.160852
0.037798
0.057707
0.132538
0.113924
0.031230
0.069441
0.128436
0.097492
0.154737
0.157977
0.000000
0.000000
0.000000
0.000000
0.000000
0.000000
0.000000
0.000000
0.000000
0.000000
0.000000
0.000000
0.000000
0.000000
0.000000
0.000000
0.000000
0.000000
0.000000
0.000000
0.000000
0.000000
0.000000
0.000000
0.000000
0.000000
0.000000
0.000000
0.000000
0.000000
0.000000
0.000000
0.000000
0.000000
0.000000
0.000000
0.000000
0.000000
0.000000
0.000000
0.000000
0.000000
0.000000
0.000000
0.000000
0.000000
0.000000
0.000000
0.000000
0.000000
0.000000
0.000000
0.000000
0.000000
0.000000
0.000000
0.000000
0.000000
0.000000
0.000000
0.000000
0.000000
0.000000
0.000000
0.000000
0.000000
0.000000
0.000000
0.000000
0.000000
-0.057578
-0.087725
-0.068759
-0.053023
-0.102820
-0.034144
0.025415
0.004305
0.012984
-0.014875
-0.074661
0.002628
-0.135035
-0.051123
-0.082180
-0.075104
-0.022610
-0.047027
-0.042130
0.000289
-0.015733
-0.005118
-0.105973
-0.031392
-0.080738
-0.080412
-0.123986
-0.137041
-0.053947
-0.122453
-0.093513
0.011066
-0.089408
-0.034843
-0.073851
-0.072104
-0.064686
-0.080656
-0.143621
-0.006651
-0.082788
-0.037734
-0.073417
0.071038
-0.053979
-0.106570
-0.159100
-0.107063
-0.090128
-0.080387
-0.065747
-0.084996
-0.074649
-0.145356
-0.058984
-0.145935
-0.076222
0.035446
-0.056166
-0.132073
-0.109302
0.007007
-0.115666
0.028886
-0.043808
-0.018135
-0.013166
-0.132492
-0.108723
-0.028820
-0.037012
-0.119642
-0.114051
-0.003456
-0.035552
-0.017055
0.028810
0.008103
-0.009811
-0.016744
0.044720
0.044072
-0.008891
0.097311
-0.034854
0.074967
0.076905
0.125865
0.034059
0.087901
0.105186
0.109562
0.071919
0.117459
0.112159
0.161241
-0.011615
0.137995
0.050694
0.035970
0.055913
0.036533
0.077264
0.027355
0.096096
-0.043699
0.007340
-0.055527
-0.023054
-0.024543
-0.036499
-0.105864
-0.061673
-0.081383
-0.068611
-0.057830
-0.157564
-0.077481
-0.102781
-0.077611
-0.068349
-0.093629
-0.087092
-0.077481
-0.089562
-0.049326
-0.062718
-0.053379
-0.064135
-0.057484
-0.033007
-0.141830
-0.050606
-0.080723
-0.137276
-0.165766
-0.170008
-0.085827
0.052737
0.414451
0.621769
0.982700
1.263442
1.423642
1.256186
0.978154
0.766703
0.335379
0.069831
-0.257257
-0.301185
-0.339801
-0.370751
-0.266048
-0.147276
-0.122698
-0.123804
-0.054046
-0.079563
-0.013563
-0.076080
-0.091952
-0.061685
-0.064394
-0.096032
-0.053572
-0.064224
-0.085301
-0.055493
0.004756
-0.068434
-0.027104
-0.062839
0.013358
0.002438
0.016919
-0.055216
0.040888
-0.039832
0.039897
-0.006456
0.048411
0.050617
0.087881
0.101948
0.172717
0.157786
0.158896
0.157468
0.228724
0.206208
0.184265
0.261125
0.286455
0.261079
0.274480
0.348887
0.298254
0.368378
0.325849
0.385921
0.483401
0.421715
0.494638
0.475380
0.402098
0.435769
0.429948
0.434244
0.392292
0.427237
0.462109
0.474697
0.386645
0.365960
0.304311
0.366379
0.309054
0.307479
0.299949
0.302123
0.310056
0.236492
0.181543
0.205495
0.167984
0.214789
0.083361
0.086489
0.106713
0.202135
0.140567
0.144421
0.061894
0.084890
0.153383
0.103385
-0.041632
-0.021112
0.021266
0.028827
0.011087
-0.054577
0.042550
-0.072525
0.002336
-0.010259
-0.010159
-0.028814
-0.110441
-0.069100
-0.073308
-0.058654
0.076569
0.024683
-0.052929
0.022036
0.031632
0.002048
-0.104400
0.059979
-0.081080
0.006175
-0.091514
-0.025703
-0.074606
0.000780
0.059734
0.090771
-0.052766
-0.038139
0.002490
-0.044170
-0.000275
-0.030373
-0.003105
-0.042078
-0.037161
-0.022460
0.071634
0.014884
-0.008428
0.005168
-0.041373
-0.087340
-0.025762
-0.052458
0.041000
0.024638
-0.053758
-0.037327
-0.001744
0.015525
0.062307
0.033265
-0.022643
0.005790
0.078273
-0.088952
0.010430
0.032311
0.065976
0.010565
0.045534
-0.051648
0.004388
0.074268
0.018740
0.059007
-0.071527
-0.015367
-0.053875
-0.023543
-0.040007
0.000000
0.000000
0.000000
0.000000
0.000000
0.000000
0.000000
0.000000
0.000000
0.000000
0.000000
0.000000
0.000000
0.000000
0.000000
0.000000
0.000000
0.000000
0.000000
0.000000
0.000000
0.000000
0.000000
0.000000
0.000000
0.000000
0.000000
0.000000
0.000000
0.000000
0.000000
0.000000
0.000000
0.000000
0.000000
0.000000
0.000000
0.000000
0.000000
0.000000
0.000000
0.000000
0.000000
0.000000
0.000000
0.000000
0.000000
0.000000
0.000000
0.000000
0.000000
0.000000
0.000000
0.000000
0.000000
0.000000
0.000000
0.000000
0.000000
0.000000
0.000000
0.000000
0.000000
0.000000
0.000000
0.000000
0.000000
0.000000
0.000000
0.000000
0.000000
0.000000
0.000000
0.000000
0.000000
0.000000
0.000000
0.000000
0.000000
0.000000
0.000000
0.000000
0.000000
0.000000
0.000000
0.000000
0.000000
0.000000
0.000000
0.000000
0.000000
0.000000
-0.280314
-0.187437
-0.127936
-0.026543
0.038743
0.005937
0.107469
0.064764
-0.056358
0.006368
0.123630
0.047467
0.001630
-0.011685
0.148984
0.035342
-0.012493
0.031554
0.064053
0.150136
0.100437
0.033008
0.074314
0.090536
0.141051
0.116056
0.113973
0.120487
0.121943
0.089631
0.177455
0.168505
0.225286
0.234139
0.247886
0.243026
0.306985
0.284784
0.317115
0.273267
0.259603
0.399595
0.482977
0.383280
0.399217
0.452663
0.503578
0.458751
0.435755
0.550062
0.527723
0.533439
0.561901
0.473982
0.603802
0.555171
0.530053
0.582256
0.570820
0.547518
0.514004
0.518084
0.529800
0.474552
0.432330
0.474357
0.336996
0.419912
0.399195
0.383599
0.382529
0.261358
0.419643
0.271340
0.302528
0.271853
0.220865
0.136111
0.237239
0.241097
0.158117
0.101609
0.101650
0.097110
0.124517
0.123956
0.134777
0.010070
0.013469
0.073515
0.089957
0.105865
0.060263
0.037352
0.067391
0.038852
0.116564
0.142481
0.046880
0.006531
0.029753
0.007262
0.057741
0.095301
0.079857
0.071583
0.016330
0.017308
0.106250
0.109384
0.058069
0.059137
0.012549
0.116092
0.045864
-0.004745
0.056994
0.025389
0.069017
0.045728
0.133817
0.020958
-0.035028
0.085682
0.064543
-0.021311
0.038388
0.065444
0.063932
0.096873
0.060016
0.049300
0.078937
0.055763
0.009617
0.077038
0.041496
0.057317
-0.006958
0.050629
0.014318
0.022913
0.019337
0.023310
0.089001
-0.084885
0.046882
0.073007
0.118119
0.108235
0.058226
0.015893
0.048546
0.082664
0.052626
0.051364
0.063023
0.036592
0.029878
0.014437
0.071702
0.036416
0.001981
0.018989
0.057692
0.049744
-0.037634
0.047868
-0.009190
0.093905
-0.027806
0.006962
0.033837
0.075262
0.044493
0.060220
0.020151
0.045698
0.131038
0.059550
0.032818
0.039321
0.073328
0.051553
0.136519
0.100566
0.175271
0.204457
0.125976
0.147057
0.233631
0.164177
0.109901
0.146505
0.197444
0.183396
0.228588
0.219273
0.167667
0.191958
0.150865
0.039769
0.144526
0.201904
0.111716
0.112658
0.091641
0.183661
0.075239
0.036208
0.026729
0.136900
0.064435
0.010191
-0.018602
-0.004504
0.013127
-0.013479
-0.007567
-0.061143
-0.067507
-0.039128
-0.073255
0.024187
0.024377
-0.027907
-0.048871
0.040202
-0.048175
-0.036422
0.037753
-0.040593
-0.034370
-0.050982
-0.024593
-0.124982
-0.099752
-0.107291
-0.063073
-0.036934
0.079597
0.299800
0.560977
0.890940
1.278191
1.308982
1.341279
1.230340
0.948968
0.598539
0.230404
-0.095342
-0.192663
-0.309406
-0.334188
-0.179741
-0.261389
-0.112598
-0.050549
-0.154444
-0.071243
-0.021946
-0.100516
-0.035927
-0.138519
-0.100425
-0.046193
0.046443
-0.047342
-0.016428
-0.042111
0.012494
-0.000036
-0.026461
0.038805
-0.038518
-0.052789
0.058046
0.007057
0.071388
0.018248
0.107166
0.055217
0.019692
0.117806
0.106142
0.081709
0.100367
0.141389
0.129599
0.141938
0.244066
0.275455
0.220120
0.185719
0.265468
0.347439
0.383906
0.270021
0.345215
0.362826
0.432114
0.349567
0.461027
0.416965
0.457488
0.414619
0.369945
0.469379
0.451775
0.516191
0.549967
0.509959
0.399230
0.362882
0.425839
0.350494
0.373778
0.365692
0.340151
0.363838
0.345865
0.273802
0.298715
0.273300
0.190820
0.278901
0.143509
0.142493
0.033676
0.103838
0.044240
-0.021601
0.081663
0.060102
-0.036892
0.000410
0.066554
0.063687
-0.023790
-0.074128
0.064793
-0.098198
-0.024180
-0.092306
-0.087153
-0.063622
-0.020886
-0.067662
-0.000660
-0.101526
-0.112071
-0.040792
-0.072846
-0.089555
-0.059387
-0.126105
-0.024393
0.019039
-0.111680
-0.150228
-0.102520
-0.141396
-0.063995
-0.044051
-0.053548
-0.020898
-0.068125
-0.105450
-0.150160
-0.070249
0.001849
-0.068313
-0.133094
-0.088342
-0.071052
-0.046436
-0.083537
-0.102211
-0.049781
0.024056
0.012207
-0.042567
-0.134234
-0.070229
-0.059085
-0.082198
-0.004839
-0.023727
-0.102554
-0.176218
-0.141398
-0.094983
-0.038270
-0.089606
-0.027485
-0.142138
-0.187779
-0.082034
-0.091505
-0.139112
-0.099405
-0.189466
-0.058773
-0.133341
-0.052608
-0.139766
-0.136436
-0.126660
-0.077573
-0.095548
-0.125133
-0.101972
-0.127888
-0.100060
-0.101704
-0.078709
-0.133726
-0.139766
-0.055298
-0.077475
-0.105088
-0.123176
-0.039689
-0.059657
-0.066060
-0.061397
-0.174976
-0.060841
0.001556
-0.071116
-0.036954
-0.031220
0.050664
0.012425
0.023906
0.044138
0.050997
-0.061585
0.003234
0.052451
-0.011988
0.043758
-0.013430
0.093779
0.055357
0.044259
0.075027
0.083816
0.079144
0.046698
0.083682
0.078512
0.080684
0.015619
0.072881
0.022694
0.086453
0.094398
-0.003470
-0.044394
0.033201
0.008273
0.032978
-0.026491
-0.099588
0.019713
-0.093738
-0.019315
0.017064
-0.013022
-0.111100
-0.141593
-0.132095
-0.039321
0.006903
-0.132001
-0.129646
-0.051649
-0.076065
-0.165735
-0.098021
-0.140327
-0.104485
-0.076505
-0.050590
-0.134291
-0.096193
-0.112379
-0.096894
-0.099742
-0.105523
-0.194359
-0.150160
-0.041405
0.150064
0.504406
0.796574
1.135003
1.278381
1.347691
1.193142
0.872184
0.567559
0.272925
-0.024565
-0.237787
-0.480522
-0.392931
-0.290360
-0.175965
-0.212578
-0.096443
-0.164161
-0.042973
-0.131570
-0.098095
-0.055264
-0.078022
-0.054522
-0.146633
0.018971
-0.071028
-0.117611
-0.006124
-0.098547
-0.133242
-0.097181
-0.094466
-0.031960
-0.037570
-0.069719
-0.010010
0.010428
-0.017273
0.088482
0.052082
0.006651
0.028674
0.105584
0.075634
0.074011
0.085110
0.178297
0.179304
0.220762
0.157197
0.161385
0.182918
0.157411
0.320218
0.275001
0.296802
0.357502
0.392248
0.438122
0.380468
0.379146
0.447793
0.481569
0.466137
0.414434
0.465278
0.447645
0.548856
0.392825
0.370347
0.378458
0.400445
0.329938
0.383703
0.370277
0.380335
0.290839
0.277632
0.261850
0.290450
0.285519
0.277289
0.255422
0.267874
0.139609
0.155137
0.152484
0.250096
0.104874
0.078421
0.092813
0.007411
0.092475
0.041200
0.022738
-0.003096
0.054535
-0.030482
-0.074267
0.022082
0.001554
0.037814
-0.047588
-0.057682
0.009601
-0.067907
0.030468
0.003052
-0.050185
-0.064452
-0.037356
-0.042640
-0.053126
-0.055379
0.001807
-0.063384
0.002852
-0.060650
-0.001951
-0.027705
-0.045903
-0.055294
0.028585
-0.061740
0.013711
0.061840
0.036912
-0.069186
-0.026081
-0.064348
0.011174
0.025105
0.071065
0.046993
0.000044
-0.038285
-0.033166
-0.077151
0.001515
0.010961
0.054947
-0.046492
0.025445
0.003774
-0.034463
-0.031420
-0.061561
-0.047700
-0.010182
0.005490
-0.053790
0.015729
-0.030963
0.021323
-0.057370
-0.004461
-0.062835
-0.008463
0.031490
0.004869
-0.030562
0.032889
0.071390
0.015921
0.071717
-0.032714
0.041203
0.007842
-0.008110
-0.005992
0.065692
-0.013901
0.085564
-0.067848
-0.008725
0.018131
0.052158
-0.024519
0.034641
0.007624
-0.021635
0.042897
0.011473
-0.007351
0.095204
0.037810
-0.005394
0.042331
0.029943
0.141628
-0.032964
0.042027
0.059189
0.083912
0.101854
0.148615
0.111009
0.151072
0.203944
0.182464
0.168363
0.165952
0.204248
0.159079
0.205913
0.183717
0.225985
0.179330
0.160333
0.240861
0.192638
0.219040
0.152644
0.188225
0.171424
0.123948
0.134547
0.138688
0.130361
0.024061
0.084632
0.163514
0.073704
0.157152
0.073076
0.098205
0.106378
0.117026
0.000037
-0.030983
-0.006137
0.140614
0.087390
0.011497
-0.013835
0.045558
0.076303
0.059581
0.108436
0.070034
0.016263
0.049404
0.055623
0.082025
-0.024340
0.084728
0.018420
-0.021085
-0.039427
-0.089552
0.019793
0.079432
0.248217
0.505359
0.872710
1.138662
1.477361
1.391573
1.350667
1.172499
0.825864
0.523779
0.190786
-0.055509
-0.228185
-0.198686
-0.195161
-0.141218
-0.091240
0.009554
0.039690
0.109889
-0.000310
0.111294
0.070283
0.073077
-0.028380
0.062719
0.060501
0.071263
0.102854
0.031822
0.111168
0.028580
0.162061
0.163665
0.070168
0.144501
0.152655
0.081304
0.137093
0.158923
0.187128
0.143095
0.260948
0.188583
0.191230
0.214312
0.273784
0.270699
0.362249
0.208776
0.303433
0.292036
0.411717
0.457027
0.345245
0.417824
0.395823
0.490373
0.450522
0.430893
0.443359
0.471836
0.399327
0.543082
0.561698
0.553956
0.580709
0.639169
0.561705
0.609709
0.559485
0.535781
0.555681
0.549848
0.564730
0.595879
0.456074
0.510104
0.488577
0.423108
0.484352
0.404745
0.482117
0.394814
0.312221
0.309760
0.333319
0.394210
0.300378
0.288934
0.274474
0.221535
0.270050
0.216766
0.166682
0.155387
0.199570
0.186373
0.181474
0.114582
0.079199
0.086288
0.185255
0.079266
0.112176
0.124964
0.100634
0.105628
0.127811
0.032568
0.065135
0.136415
0.074665
0.032482
0.061082
