0.010387
-0.024010
0.009961
-0.087197
0.075772
-0.003684
-0.023575
-0.022577
0.004908
-0.031107
0.001063
0.091636
0.016334
-0.041106
0.031164
0.092869
0.062755
0.006523
0.005339
0.007615
-0.009273
0.011028
0.101384
0.034410
0.109864
0.022809
0.087604
0.037583
0.053029
0.099661
0.127748
0.051236
0.072211
0.163340
0.106380
0.199336
0.161406
0.130834
0.219944
0.231210
0.180643
0.204442
0.253846
0.212325
0.195692
0.191177
0.183006
0.242430
0.212479
0.199282
0.140881
0.143573
0.063815
0.096589
0.080036
0.129672
0.153062
0.171253
0.111406
0.065763
0.051904
0.113563
0.092376
-0.018184
0.017881
0.073289
0.057068
0.120146
0.085581
0.054971
0.118466
0.121955
0.020370
0.043137
-0.016903
-0.010254
0.150406
-0.016665
0.056014
0.119239
0.076185
0.109631
0.234341
0.418602
0.754657
1.026959
1.357883
1.433530
1.375201
1.052855
0.752628
0.456356
0.163370
-0.106885
-0.225242
-0.183168
-0.117032
-0.083219
-0.106841
0.051361
0.077443
0.165416
0.089425
0.034996
0.130802
0.133038
0.067240
0.111959
0.172171
0.182335
0.156355
0.124940
0.105102
0.146690
0.158171
0.139179
0.139008
0.124148
0.206108
0.260870
0.293111
0.257589
0.295677
0.342052
0.277776
0.319769
0.318933
0.438197
0.308865
0.418859
0.341230
0.457982
0.525079
0.591242
0.491101
0.583676
0.531461
0.585269
0.581342
0.604979
0.618236
0.605872
0.601497
0.578961
0.572461
0.557691
0.569591
0.523394
0.511571
0.581737
0.495836
0.474238
0.429358
0.450849
0.472174
0.395002
0.392248
0.330122
0.295417
0.253600
0.352307
0.328250
0.313679
0.286101
0.245087
0.266565
0.220634
0.254376
0.168306
0.171919
0.100723
0.141763
0.159691
0.115387
0.159024
0.046192
0.075178
0.152890
0.066125
0.120009
0.092641
0.136026
0.105234
0.092124
0.028040
0.114117
-0.010672
0.102211
0.123725
0.129937
0.121071
0.098575
0.028932
0.027428
0.083286
0.028950
0.052194
0.098653
0.067403
0.096333
0.124244
0.106192
0.082749
0.131437
0.110088
0.048559
0.186937
0.013557
0.158486
0.053431
0.073191
0.103796
0.058098
0.063572
0.100234
0.015010
0.129298
0.024778
0.032172
0.087017
0.078266
0.085427
0.074724
0.083720
0.098480
0.039826
-0.006507
0.119795
0.079021
0.074962
0.040466
0.070065
0.060289
0.064843
0.032884
0.018388
0.097210
0.040467
0.083722
0.096929
0.138831
0.047360
0.132706
0.108951
0.056694
0.207454
0.125170
0.113990
0.158116
0.147620
0.135898
0.190900
0.211708
0.181331
0.310609
0.222317
0.314668
0.225705
0.180392
0.155452
0.258575
0.254849
0.317707
0.337808
0.300806
0.292866
0.223814
0.201341
0.126910
0.162244
0.148092
0.210373
0.212306
0.164332
0.090830
0.126962
0.103589
0.145989
0.058359
0.060737
0.030102
0.084086
0.079742
0.066863
0.104963
0.110706
0.084761
0.019582
0.134314
0.055414
0.103455
0.019919
0.102905
0.049701
-0.014128
0.060173
0.046990
-0.043893
0.096943
0.170990
0.306913
0.691367
0.983704
1.221757
1.330100
1.438970
1.216365
0.932858
0.583156
0.203101
-0.016481
-0.159956
-0.239587
-0.182317
-0.104529
-0.072779
0.021148
0.070921
0.071664
0.084951
0.076303
0.029063
0.115908
0.069032
0.162515
0.060261
0.101614
0.011254
0.140841
0.084087
0.095356
0.156961
0.149182
0.132010
0.135253
0.127875
0.207818
0.231750
0.192397
0.262024
0.304809
0.298706
0.340104
0.258103
0.381188
0.435636
0.458081
0.406731
0.379168
0.467009
0.419025
0.472394
0.430823
0.482039
0.488503
0.531215
0.521925
0.497290
0.546769
0.522377
0.447482
0.600795
0.557065
0.508786
0.476194
0.442775
0.445047
0.461865
0.498738
0.398086
0.330964
0.381635
0.293872
0.300456
0.320876
0.326517
0.286825
0.160276
0.258710
0.205654
0.192848
0.141306
0.208722
0.086024
0.152564
0.150611
0.148703
0.112838
0.116744
0.131027
0.065076
0.103989
-0.014321
0.010582
0.026047
0.032583
0.033781
0.004448
-0.012474
0.033250
0.002417
0.150065
0.076725
-0.017077
-0.010743
-0.051594
0.054771
0.077932
0.082027
0.035684
0.016959
0.026355
-0.008845
0.021722
0.016410
-0.080393
0.054738
0.023267
0.013408
-0.136855
-0.009927
0.072049
0.020923
-0.030590
-0.045388
-0.016455
0.055712
0.049559
-0.002692
0.033222
0.033352
-0.112024
-0.087789
-0.036383
0.055461
0.017725
0.025028
-0.035996
0.067461
-0.034765
-0.046396
-0.026224
0.002029
-0.075659
-0.037691
-0.006124
-0.012040
-0.072060
-0.093714
0.010105
-0.049937
0.039003
0.054005
0.043133
0.027163
-0.013115
-0.038521
-0.073335
-0.075457
0.028797
0.003904
0.069471
0.058555
0.046583
-0.025883
0.067699
0.007827
0.007825
0.137462
0.086329
0.074869
0.141268
0.116931
0.121704
0.138239
0.107530
0.160320
0.228141
0.152662
0.167988
0.198283
0.090832
0.116422
0.129016
0.099428
0.036733
0.052139
0.047036
0.202307
0.085300
0.031597
0.024685
0.024207
0.009906
0.015317
-0.026614
-0.023485
0.021338
-0.053483
-0.005402
-0.052969
-0.030761
-0.023737
-0.067717
-0.043575
-0.042701
-0.044508
-0.011345
-0.038604
-0.062039
-0.076043
-0.018350
-0.088268
-0.194928
-0.054654
-0.005149
0.019804
0.203937
0.462991
0.763128
1.058502
1.199444
1.334522
1.197227
0.953312
0.559509
0.197773
-0.025822
-0.203742
-0.244349
-0.277121
-0.311958
-0.070750
-0.137698
-0.041904
-0.025881
-0.052826
-0.000755
0.066746
-0.034296
0.000026
-0.085370
0.104538
-0.051282
0.122891
0.073711
0.097290
-0.017432
0.044903
0.075735
0.074351
0.099369
0.103912
0.049870
0.103832
0.132362
0.177103
0.189333
0.201260
0.229308
0.152134
0.272320
0.254018
0.272454
0.232344
0.341770
0.280792
0.292520
0.473238
0.403856
0.381050
0.394841
0.406784
0.363506
0.533143
0.477318
0.475132
0.442109
0.469862
0.458808
0.400610
0.379581
0.407758
0.361476
0.369454
0.447916
0.459529
0.398675
0.353970
0.339499
0.262419
0.256937
0.240616
0.191459
0.203073
0.147245
0.210527
0.252090
0.111843
0.093299
0.187503
0.045548
0.095207
0.048414
0.029775
0.049424
-0.021607
0.068299
-0.039697
-0.043477
0.005695
0.033975
-0.029435
-0.029751
-0.045647
-0.044774
-0.042715
0.058885
-0.050251
-0.007933
-0.015223
-0.037577
-0.016541
-0.055113
-0.042703
0.046748
-0.046562
-0.069812
-0.053711
-0.111538
-0.125162
-0.043700
-0.019205
-0.091628
0.089495
0.017916
-0.030003
-0.004018
-0.043189
0.000593
-0.072354
0.045510
-0.027265
-0.039453
-0.058976
-0.005599
0.009834
-0.095024
-0.031976
-0.062384
-0.033927
-0.076670
-0.030519
-0.085217
-0.032733
-0.051275
0.012477
0.021536
0.039625
-0.019885
-0.043788
-0.031561
-0.012024
-0.048235
0.016205
-0.014138
-0.007169
0.027661
0.019195
-0.048075
0.026193
0.024158
0.043357
0.024138
-0.043710
0.071232
-0.040589
-0.030591
0.065499
-0.054683
0.103863
0.019982
0.087917
0.001835
0.054177
0.126447
0.102270
0.068197
0.127885
0.165918
0.113016
0.180173
0.184950
0.176427
0.235767
0.190480
0.164536
0.187185
0.261009
0.212011
0.167320
0.174527
0.123412
0.068882
0.174724
0.139442
0.132706
-0.008666
0.113549
0.046907
0.074554
0.001225
0.030360
0.066838
0.016911
0.027365
-0.000758
0.052601
-0.001354
0.028325
0.046416
0.071336
-0.003086
0.038635
0.072471
0.096061
-0.027725
0.007108
-0.054741
0.004780
0.032064
-0.086370
-0.106361
0.054291
0.121311
0.394913
0.704069
0.953920
1.221717
1.324526
1.262507
1.163688
0.771407
0.410423
0.109785
-0.110071
-0.233724
-0.256816
-0.227771
-0.050707
-0.046951
0.023779
-0.039100
0.003641
0.045710
0.093969
0.051648
0.066903
0.051195
0.074179
0.117573
0.020874
0.151075
0.096241
0.156138
0.044731
0.100562
0.117408
0.224225
0.107649
0.222786
0.174348
0.251004
0.178934
0.218807
0.290311
0.282099
0.319366
0.282607
0.406638
0.384214
0.384503
0.449277
0.403247
0.352785
0.459683
0.408938
0.522645
0.501913
0.514716
0.504652
0.536248
0.476303
0.526932
0.554169
0.581975
0.597811
0.573296
0.515556
0.481973
0.470582
0.413481
0.418669
0.510872
0.358867
0.485125
0.383037
0.325905
0.407505
0.369767
0.312869
0.286892
0.275629
0.251094
0.223269
0.294619
0.265004
0.248337
0.212921
0.197806
0.200408
0.225279
0.140696
0.136596
0.184199
0.144662
0.118110
0.106922
0.074175
0.107591
0.075357
0.079500
0.111120
0.083001
0.092110
0.106276
0.187386
0.039466
0.028945
0.095916
0.110458
0.061787
0.116570
0.068832
0.048736
0.101293
0.104668
0.023097
0.078803
0.105354
0.089616
0.105483
0.094567
0.077230
0.036338
0.083465
0.006413
0.106446
0.088867
0.022239
0.112038
0.084123
0.124258
0.030415
0.090435
0.024166
0.054473
0.071287
0.122768
0.022048
0.007121
0.096712
0.083994
0.159732
0.076816
0.087021
0.075227
0.062170
0.067102
0.141054
-0.000786
0.137590
0.088148
0.114498
0.098582
0.136468
0.100362
0.098965
0.108271
0.112934
0.125639
0.103237
0.074823
0.076575
0.083887
0.104786
0.129113
0.036153
0.216981
0.187852
0.155884
0.176131
0.251442
0.152230
0.237436
0.200847
0.162368
0.204482
0.249371
0.290629
0.212158
0.305084
0.259788
0.285145
0.214475
0.215700
0.180653
0.294469
0.191340
0.240344
0.196626
0.199730
0.178997
0.207026
0.194058
0.207601
0.134303
0.160327
0.073759
0.098815
0.082063
0.052491
0.084856
0.178931
0.084326
0.210623
0.139478
0.134775
0.108451
0.011617
0.179091
0.104357
0.126731
0.091913
0.039289
0.074674
0.095460
0.028972
0.033796
0.027222
0.101944
0.213698
0.304997
0.655165
0.932044
1.203614
1.423772
1.486266
1.278265
1.023303
0.679220
0.278133
-0.012296
-0.163702
-0.140564
-0.183219
-0.054950
-0.034980
0.038931
0.071675
0.125784
0.126493
0.062100
0.096209
0.050375
0.085146
0.096256
0.189773
0.110141
0.164489
0.128861
0.163080
0.139084
0.189130
0.110171
0.281970
0.241546
0.244748
0.246347
0.256946
0.306386
0.257292
0.411851
0.287460
0.335583
0.411946
0.367599
0.452965
0.408958
0.466079
0.504815
0.484897
0.568716
0.514427
0.520085
0.521429
0.571793
0.485892
0.595495
0.603569
0.639613
0.563075
0.611261
0.601502
0.605532
0.547141
0.511458
0.572695
0.531393
0.552400
0.486045
0.504625
0.581025
0.444283
0.330296
0.445239
0.386995
0.345439
0.254344
0.346381
0.235120
0.281868
0.242662
0.241090
0.202897
0.205079
0.137100
0.211927
0.211926
0.135542
0.184779
0.138776
0.074141
0.114867
0.143697
0.147330
0.055061
0.119864
0.130506
0.087352
0.079303
0.021022
0.062955
0.065542
-0.007907
0.061524
0.064415
0.054356
0.158046
0.132044
0.033072
0.054601
0.068499
0.141792
0.038811
0.066218
0.035530
0.038188
0.016910
0.014232
0.079756
0.104524
0.062522
0.039676
0.052337
0.060013
0.024910
0.039753
0.046902
0.082683
0.066523
0.039174
0.024559
0.096321
0.030585
0.134882
0.081424
0.023293
0.062046
0.011018
0.029237
-0.074286
0.037592
0.089414
-0.030707
0.094039
0.042895
0.037242
0.054697
0.022473
-0.043970
-0.075225
0.032910
0.039027
0.111865
0.023359
-0.029607
-0.005866
0.083771
0.107289
0.051830
0.082992
0.034193
0.015856
0.091313
0.062506
0.110845
0.092636
0.061920
0.091665
0.056632
0.130901
0.102101
0.186446
0.115506
0.205771
0.198891
0.189610
0.201717
0.247726
0.189993
0.288310
0.140090
0.234161
0.221665
0.103527
0.231468
0.183813
0.105002
0.123338
0.060641
0.144500
0.064779
0.098219
0.102191
0.091145
0.025503
0.007363
0.009068
0.082266
-0.036709
0.008679
0.028218
-0.027880
-0.023058
-0.030777
-0.016544
-0.011389
0.005338
-0.007563
-0.017771
0.047998
-0.012121
-0.012574
0.024634
-0.056009
-0.047342
0.097106
0.087177
0.184178
0.378785
0.745507
0.970959
1.276901
1.380793
1.257896
1.012972
0.674917
0.375997
-0.021505
-0.146097
-0.272537
-0.307573
-0.235898
-0.124469
-0.057996
-0.103968
-0.015793
0.018310
0.017089
0.046180
-0.027603
-0.051162
-0.014620
0.004914
0.035596
0.031971
0.012143
-0.016856
-0.043340
0.045572
0.045703
0.107196
0.119887
0.140426
0.137505
0.164903
0.176980
0.138031
0.227245
0.194517
0.211143
0.248362
0.287251
0.306262
0.263579
0.365125
0.160857
0.372647
0.358592
0.366928
0.397249
0.394363
0.404231
0.441748
0.398905
0.473920
0.490929
0.474238
0.421676
0.459080
0.484192
0.513616
0.418556
0.405277
0.424632
0.374044
0.296566
0.438395
0.336088
0.237950
0.294832
0.311354
0.239608
0.277821
0.214244
0.214130
0.109928
0.170835
0.137084
0.085737
0.024598
0.097952
0.038322
0.051378
0.018208
0.096683
-0.023427
0.066086
0.094699
0.076455
0.112100
-0.066636
-0.012222
-0.020104
0.018662
0.018180
-0.054016
-0.015358
-0.063680
-0.130434
-0.020892
-0.172031
0.016090
-0.068893
-0.008299
-0.041505
-0.016227
-0.039252
-0.069392
-0.047025
-0.054777
-0.030645
-0.044877
-0.100625
-0.073242
-0.073704
-0.099996
0.000091
-0.116226
-0.109823
-0.103557
-0.031631
-0.068389
-0.111882
-0.071232
-0.090530
-0.004581
-0.022978
-0.124885
-0.085899
-0.132120
-0.099681
-0.077709
-0.130038
-0.160844
-0.087650
-0.093628
-0.102016
-0.022305
-0.115456
-0.027467
-0.037005
-0.075966
-0.099913
-0.027062
-0.069844
-0.064217
-0.099189
-0.074484
-0.044543
-0.032405
-0.100075
-0.045867
-0.081046
-0.040140
-0.169062
-0.006346
-0.003499
-0.141638
-0.054846
-0.000003
-0.041732
-0.053546
0.031538
0.032689
0.057406
0.023562
0.038072
0.021588
0.047870
0.016116
0.048440
0.083418
0.125298
0.123919
0.032959
0.108044
0.104416
0.082582
0.114852
0.053304
0.029751
0.099689
0.011938
0.117874
0.087087
0.014251
0.018966
0.015802
-0.014314
0.012596
-0.053772
-0.030532
-0.042108
-0.005678
-0.056638
-0.133553
-0.063119
-0.066896
-0.095790
-0.159982
-0.074153
-0.050594
-0.045301
-0.035107
-0.082752
-0.041665
-0.027855
0.048602
-0.055909
-0.010568
-0.117645
-0.181787
-0.137230
-0.151737
0.050701
0.173794
0.515504
0.803744
1.105163
1.344904
1.255403
1.067806
0.754191
0.424801
0.086891
-0.239014
-0.323051
-0.428907
-0.291981
-0.200833
-0.144247
-0.142429
-0.119414
0.005341
-0.108914
-0.084677
-0.021830
-0.017281
0.017559
0.040958
-0.069700
0.019095
-0.053802
0.020439
-0.014526
0.055119
0.002832
0.008872
0.071923
0.072647
0.167144
0.079835
0.091260
0.136389
0.116309
0.108519
0.119794
0.233483
0.199524
0.269964
0.281915
0.323929
0.274269
0.391147
0.408290
0.360018
0.350244
0.363969
0.338117
0.377230
0.504398
0.482767
0.419279
0.457167
0.430596
0.453377
0.415144
0.431894
0.460335
0.472058
0.368579
0.361582
0.397125
0.402005
0.391881
0.362767
0.279664
0.318024
0.283791
0.235532
0.252854
0.236195
0.198466
0.277146
0.180328
0.201614
0.144433
0.075280
0.092063
0.018579
0.048507
0.013053
-0.003012
0.042111
0.014293
0.007054
0.047889
-0.014478
-0.028911
0.016342
-0.041160
-0.053387
-0.071250
-0.009854
0.050339
0.011106
-0.041326
-0.042109
-0.000120
0.018685
-0.026809
0.071884
0.003119
0.001869
-0.006737
-0.003925
-0.073947
-0.071419
-0.002451
-0.073679
0.008527
-0.036607
-0.022506
-0.018636
0.012197
0.037411
-0.055518
-0.106591
0.017303
-0.057375
0.035413
0.015431
-0.039463
-0.025237
-0.021453
-0.049920
-0.078778
-0.045691
0.062421
0.058891
-0.013388
0.008873
-0.039086
0.040597
-0.014914
-0.052123
-0.015126
-0.004838
0.055468
0.040743
0.006095
-0.076154
0.115943
0.043204
0.008752
-0.034893
-0.006136
0.013790
-0.001821
0.057946
0.002655
-0.002201
-0.035258
0.095485
0.048794
0.040993
-0.030510
0.035704
0.031459
0.059414
0.142509
0.158717
0.045720
0.089470
0.187411
0.082712
0.135707
0.104557
0.111046
0.136377
0.197306
0.188156
0.202042
0.192819
0.230293
0.159038
0.161576
0.197544
0.147110
0.103790
0.220284
0.108475
0.142749
0.191960
0.091375
0.014509
0.070553
0.007143
0.078136
0.111263
0.053778
0.073574
-0.055816
0.038656
0.086398
0.038606
-0.038527
0.047020
0.005547
-0.026367
-0.023806
0.052618
-0.013686
0.026809
-0.019551
-0.017591
0.004696
0.100918
0.010329
0.047519
-0.002659
0.068057
0.194383
0.423798
0.776243
1.178957
1.296085
1.384778
1.299660
0.954838
0.647307
0.326852
0.104735
-0.161752
-0.148642
-0.278675
-0.179458
-0.046869
-0.040834
-0.020372
0.049155
0.041429
0.090809
-0.024103
0.043625
0.046823
0.179081
0.119511
0.127567
0.113823
0.136806
0.078077
0.153605
0.056895
0.144954
0.142062
0.261374
0.152223
0.236587
0.202170
0.207118
0.303434
0.220585
0.262333
0.377704
0.349661
0.371861
0.353033
0.380242
0.489385
0.395447
0.451184
0.503325
0.475199
0.512228
0.433488
0.479491
0.541318
0.499098
0.510444
0.576695
0.469276
0.625650
0.507199
0.542315
0.478292
0.544586
0.475239
0.470735
0.514752
0.486619
0.489709
0.469514
0.366220
0.431338
0.394866
0.416763
0.328167
0.300237
0.339337
0.232800
0.239449
0.231805
0.225993
0.211146
0.183167
0.111735
0.129096
0.102885
0.230451
0.012480
0.117535
0.097827
0.129443
0.007616
0.101528
0.117092
-0.033907
0.101311
0.059557
0.055316
0.032246
0.030625
0.060212
0.044780
0.065012
-0.010033
0.000311
0.095975
0.079589
0.014334
0.082427
0.006758
0.058043
0.022990
-0.002310
0.071008
0.045458
0.005978
0.069392
0.032312
0.066693
0.039017
0.064708
0.084219
0.014642
0.083972
0.081389
0.060907
0.151384
0.110842
0.068303
0.023114
-0.069427
0.034603
-0.006730
0.049325
0.079556
-0.023906
0.033850
0.100769
-0.002936
0.058370
0.052721
0.031693
0.083408
0.043513
0.091438
0.075535
0.094826
0.080909
0.081656
0.050027
0.075981
0.032859
0.013974
0.080933
0.033770
0.065122
0.005149
0.028810
-0.023147
0.030554
0.188986
0.086200
0.047049
0.103187
0.099926
0.158636
0.075630
0.168156
0.159638
0.076967
0.203227
0.207668
0.137982
0.182868
0.185289
0.194045
0.259941
0.229851
0.253148
0.169447
0.193237
0.179432
0.199320
0.139567
0.126733
0.231556
0.193100
0.130625
0.096386
0.121420
0.086293
0.075193
0.156817
0.119291
0.126279
-0.043263
0.058702
0.044832
0.060718
0.037199
0.024174
0.057841
0.045352
-0.007797
-0.037524
0.027491
0.025823
0.148004
-0.067312
-0.058417
0.063562
-0.024065
-0.000361
-0.027509
0.082914
0.066413
0.086099
0.301781
0.648857
0.994153
1.215538
1.403808
1.289613
1.133235
0.767739
0.420712
-0.053137
-0.160669
-0.164539
-0.297752
-0.180780
-0.141439
-0.021765
0.023278
-0.021352
-0.010182
-0.023439
-0.000952
0.023816
0.073750
0.023592
-0.057465
0.069555
-0.014452
0.091101
0.107859
0.068925
0.075795
0.103795
0.135534
0.095199
0.085306
0.100304
0.090318
0.232645
0.205655
0.204838
0.199733
0.303914
0.300857
0.323734
0.375421
0.313306
0.343478
0.373257
0.311822
0.392565
0.461578
0.458179
0.493575
0.447443
0.515822
0.447665
0.460965
0.494660
0.516761
0.404251
0.568649
0.507632
0.420138
0.468609
0.497843
0.468742
0.456380
0.364682
0.398768
0.297129
0.301965
0.351176
0.400230
0.319302
0.193585
0.272776
0.197796
0.262599
0.151541
0.119997
0.201549
0.098194
0.106910
0.089999
0.088686
0.057028
-0.009573
0.042221
0.033051
0.025718
-0.065577
-0.033378
0.050846
-0.058077
0.034278
0.010464
-0.102310
-0.016704
-0.058834
-0.059571
-0.041778
-0.034177
0.024088
0.028625
-0.043922
-0.072991
-0.098530
-0.096288
-0.088892
-0.103715
-0.014006
-0.098000
-0.060640
-0.035475
-0.055028
-0.039924
-0.070700
-0.050436
-0.105063
-0.096121
-0.084978
-0.096576
-0.196417
-0.084641
-0.110819
-0.119475
-0.100414
-0.056674
-0.062167
-0.002083
-0.130091
-0.091448
-0.059645
-0.045036
-0.024655
-0.006261
-0.075335
-0.104302
-0.025555
-0.124909
-0.051066
-0.045192
-0.022281
-0.108334
-0.108541
-0.048566
0.048455
-0.078104
-0.023929
-0.071725
-0.061207
-0.139902
-0.084951
-0.051007
-0.059929
-0.125712
-0.054489
-0.106129
0.014549
0.001032
0.006012
-0.068793
-0.033430
0.043176
-0.042710
-0.067845
0.044716
-0.012820
0.015169
-0.008375
0.013741
0.042835
0.064246
0.052050
0.039340
0.150877
0.176130
0.032006
0.129179
0.058303
0.062256
0.054289
0.115375
0.052003
0.071210
0.041931
0.016988
0.079992
0.066325
0.005863
-0.029836
-0.014894
-0.090621
-0.010856
-0.018701
-0.072933
-0.058625
-0.004373
-0.032290
-0.066421
-0.099173
-0.099805
-0.137512
-0.129368
-0.060590
-0.103926
-0.007881
-0.089335
-0.097862
-0.056134
0.001520
-0.058794
-0.050873
-0.114418
-0.170787
-0.103003
-0.033920
0.217292
0.395120
0.808689
1.060054
1.287397
1.253476
1.143591
0.760262
0.495040
0.054464
-0.163745
-0.370695
-0.390251
-0.271628
-0.241956
-0.157740
-0.126301
-0.134135
-0.068389
-0.118651
-0.061380
0.021346
-0.070596
0.001625
-0.042736
-0.032270
-0.042847
-0.027698
-0.079976
-0.090744
0.003093
0.026146
-0.068466
0.126321
0.054611
0.017978
0.024259
0.079588
0.029262
0.170491
0.249120
0.171014
0.155046
0.122524
0.165426
0.193702
0.235481
0.258239
0.281496
0.324991
0.330044
0.343001
0.307305
0.367283
0.410871
0.291040
0.404553
0.425326
0.429497
0.366500
0.452531
0.383802
0.453758
0.389640
0.450386
0.349812
0.280576
0.292556
0.366167
0.269680
0.259335
0.261878
0.200570
0.153193
0.231564
0.114999
0.138432
0.179651
0.073776
0.044994
0.096022
0.139123
0.045406
0.070681
0.105086
0.012825
-0.004129
-0.055838
-0.010996
-0.027307
0.021246
-0.053727
0.016123
-0.076266
-0.095083
-0.022031
-0.001862
-0.017686
-0.052003
-0.073769
-0.134615
-0.041814
-0.141514
-0.056717
-0.047679
-0.050242
-0.152151
-0.023706
-0.082066
-0.147305
-0.046911
-0.077492
-0.062318
-0.076687
-0.119723
-0.085915
0.021110
-0.026602
-0.054125
-0.144376
-0.057585
-0.077763
-0.073234
-0.059663
-0.043116
-0.112750
-0.140126
-0.097876
-0.102929
-0.041886
-0.058794
-0.068691
-0.082210
-0.053005
-0.068142
-0.081697
-0.166392
-0.032061
-0.074455
-0.086152
-0.118095
-0.099172
-0.059170
-0.016983
-0.085925
-0.016794
-0.052546
-0.084904
0.030619
-0.031623
-0.025070
-0.062495
-0.053386
-0.117640
-0.133551
-0.012303
-0.010248
-0.036747
-0.053543
-0.100697
-0.078855
-0.055102
0.022262
-0.010780
-0.036059
-0.046672
0.057969
0.024163
0.034244
0.099783
0.013299
0.011998
0.059353
0.135280
0.135003
0.161893
0.130961
0.165944
0.116785
0.226372
0.148897
0.074561
0.137923
0.006209
0.130591
0.126910
0.090191
0.073580
0.121944
0.080947
-0.008608
0.007565
0.041181
-0.000883
0.000628
0.005992
-0.034047
0.066070
0.028645
0.023852
-0.087934
-0.009641
-0.050907
-0.076035
-0.119600
-0.083863
0.053294
-0.011024
0.002743
0.003469
-0.051460
-0.077344
-0.041432
-0.003744
-0.071904
-0.012247
0.059584
0.136057
0.342068
0.651851
1.017396
1.277615
1.364641
1.205357
1.019991
0.581137
0.314710
0.024255
-0.157297
-0.286409
-0.304912
-0.206750
-0.178370
-0.067375
-0.121558
-0.016050
-0.065442
-0.040128
0.057298
-0.027574
0.022980
0.011681
0.056082
-0.025711
-0.001161
0.078021
0.002162
0.102844
0.031590
0.006090
0.119757
0.073621
0.143897
0.121936
0.212591
0.247833
0.180032
0.256159
0.280031
0.323519
0.309235
0.318647
0.378723
0.383880
0.395131
0.437463
0.335126
0.378183
0.385142
0.499673
0.402279
0.473767
0.433313
0.444820
0.490498
0.533210
0.462208
0.538362
0.476131
0.458779
0.526266
0.502825
0.524538
0.459832
0.431526
0.377942
0.486554
0.434151
0.300756
0.325770
0.298736
0.265524
0.317988
0.324167
0.260907
0.239908
0.299930
0.137886
0.156819
0.160451
0.125501
0.251849
0.123575
0.105728
0.178863
0.097349
0.167489
0.106099
0.028718
0.096283
0.160671
0.098796
0.051754
0.050526
0.012332
0.008337
0.017715
0.109034
-0.016699
0.039191
0.068335
0.036090
0.065705
0.033264
0.116291
0.013030
0.102919
-0.035948
0.094505
0.039604
-0.065432
0.039211
0.020962
0.097408
0.058737
0.099978
0.004811
-0.007389
0.050375
0.085169
0.052174
0.081670
0.002093
-0.022813
-0.027013
0.078379
0.098833
0.039052
0.062502
0.079480
0.046200
0.025182
0.092580
-0.022288
0.045257
0.138792
0.089926
0.104632
0.027434
0.084159
0.054649
0.070077
0.031300
0.051064
0.085970
0.101465
-0.027091
0.100112
0.000791
0.075048
0.064066
0.070308
0.086683
0.042070
0.109348
0.107440
0.025623
0.088115
0.123784
0.082654
0.106272
0.139512
0.081561
0.099866
0.042107
0.096825
0.069335
0.238850
0.108624
0.185089
0.218242
0.267233
0.224870
0.198806
0.259589
0.301781
0.263042
0.173389
0.231194
0.224013
0.143991
0.246241
0.217684
0.247999
0.253987
0.164342
0.177425
0.167626
0.089868
0.164368
0.163164
0.146895
0.171978
0.114979
0.104065
0.037553
0.163999
0.052492
0.070715
0.084712
0.085885
0.092126
0.090841
0.075577
0.073474
0.145457
0.038437
-0.021860
0.075588
0.037934
0.028733
0.060836
0.048321
0.013224
0.155375
0.357259
0.653124
1.036658
1.329974
1.391471
1.500000
1.172184
0.897401
0.542515
0.207644
-0.063730
-0.191475
-0.105010
-0.203267
-0.020852
0.044071
0.013337
0.016278
0.115401
0.096474
0.053989
0.036650
0.078308
0.020688
0.143182
0.114137
