-0.022745
0.048379
0.064641
-0.009325
-0.011790
-0.000869
-0.009337
-0.003619
0.046296
0.038045
-0.032563
-0.043637
0.060090
0.102782
0.009933
-0.024545
0.030906
0.065824
0.064140
0.009750
0.032119
0.003161
0.038181
0.022340
0.087127
0.066883
0.050137
0.180423
0.063052
0.082995
0.152552
0.231757
0.262088
0.142457
0.128531
0.187226
0.204619
0.196058
0.163508
0.235920
0.151425
0.134720
0.160439
0.168827
0.190885
0.118441
0.130800
0.144625
0.127337
0.091194
0.195827
0.038481
0.041683
0.081845
0.132600
0.008745
0.142101
0.118789
0.138623
0.069578
0.077973
0.076727
0.070078
0.050185
0.062582
0.033298
0.065957
0.068597
0.066601
0.048607
0.002698
0.142918
0.137226
0.409079
0.814860
1.121122
1.300092
1.473490
1.354165
1.140705
0.779103
0.356610
0.077289
-0.052328
-0.077117
-0.150463
-0.100764
-0.016941
0.057400
0.140625
0.036443
0.088039
0.161614
0.157383
0.111496
0.176169
0.112389
0.212546
0.201068
0.121510
0.263518
0.226750
0.262799
0.239551
0.196301
0.271012
0.280262
0.381561
0.298069
0.256782
0.323047
0.418717
0.438595
0.471576
0.468998
0.473043
0.543928
0.516723
0.564728
0.495914
0.586473
0.580900
0.585012
0.612673
0.588823
0.666583
0.570784
0.561932
0.567881
0.572014
0.504163
0.529718
0.594612
0.484309
0.499657
0.500739
0.513570
0.479146
0.385114
0.403576
0.374165
0.400244
0.335579
0.446056
0.279320
0.336563
0.311259
0.216133
0.284199
0.197216
0.187691
0.145649
0.199207
0.139442
0.198645
0.171822
0.041190
0.137480
0.113463
0.134249
0.041602
0.103091
0.123489
0.102069
0.141293
0.156687
0.020585
0.123777
0.090297
0.092498
0.093393
0.205829
0.040284
0.125023
0.163461
0.054781
0.035088
0.104284
0.014929
0.033493
0.086114
0.053377
0.120448
0.156170
0.184156
0.078870
0.006340
0.159223
0.000969
0.130274
0.175732
0.093038
-0.003298
0.104549
0.076279
0.050046
0.102013
0.082902
0.074081
0.038619
0.120098
0.120305
0.123661
0.052497
0.073279
0.072953
0.058251
0.146396
0.094575
0.165736
0.133869
0.136394
0.104785
0.121303
0.194719
0.118198
0.110627
0.155572
0.141089
0.120336
0.286057
0.251389
0.216914
0.230758
0.173741
0.204430
0.262804
0.129445
0.225717
0.231380
0.276943
0.251393
0.299042
0.308432
0.227385
0.243235
0.260205
0.175251
0.237517
0.205295
0.207680
0.280814
0.117862
0.199787
0.185938
0.174120
0.208606
0.131545
0.159987
0.106862
0.203037
0.166024
0.094419
0.110228
0.127224
0.126441
0.190175
0.043511
0.106010
0.107784
0.076841
0.026612
0.009008
0.107994
0.209610
0.363039
0.651812
1.019725
1.267235
1.422491
1.435003
1.198051
0.898957
0.489668
0.203821
-0.047089
-0.199341
-0.150157
-0.036274
0.022463
0.051058
0.039242
0.049543
0.070760
0.057092
0.127522
0.154578
0.129505
0.098608
0.161776
0.139883
0.249078
0.188493
0.272598
0.265476
0.325736
0.220712
0.291243
0.290846
0.327338
0.348629
0.276138
0.319674
0.425913
0.440043
0.464328
0.393802
0.516847
0.498876
0.445039
0.545353
0.513595
0.526458
0.492327
0.603452
0.552258
0.575106
0.550941
0.537198
0.567074
0.534001
0.604466
0.642750
0.579061
0.482731
0.525331
0.542004
0.475308
0.537630
0.374644
0.406707
0.428675
0.408290
0.227676
0.413850
0.280340
0.286044
0.289802
0.210466
0.269414
0.270722
0.165240
0.139599
0.096618
0.088350
0.179523
0.096394
0.156318
0.152134
0.100792
0.115578
0.126065
0.063724
0.057057
0.131295
0.028032
0.031323
0.059633
-0.010440
0.042138
0.045301
0.041598
0.023801
0.048445
0.067599
-0.048615
0.091426
0.131822
0.000475
-0.036610
0.043291
0.093118
0.060620
0.105927
-0.021325
-0.063764
0.030335
0.129225
0.068999
-0.086990
0.053698
0.101930
0.019283
0.037860
-0.005887
-0.002504
0.030647
-0.001136
-0.001182
0.100407
0.018796
0.065959
0.009061
-0.040540
0.021798
-0.052745
0.067458
0.008956
-0.052318
0.026208
0.010821
-0.077310
-0.006751
0.015409
0.029209
0.044313
0.118919
0.019214
0.112101
0.041279
0.194798
0.082787
0.035720
0.199321
0.092520
0.049358
0.085334
0.114574
0.178098
0.152469
0.230441
0.130952
0.158802
0.236600
0.173777
0.106355
0.186807
0.149855
0.104439
0.159299
0.144461
0.096885
0.094387
0.075509
0.110675
0.049060
0.101715
0.041858
0.034666
-0.016793
0.088296
0.019568
0.001926
-0.014772
0.073290
-0.016205
0.043922
-0.052002
0.055439
-0.012592
-0.024881
0.125896
-0.076838
0.014055
-0.057962
-0.010751
0.124871
0.237640
0.487461
0.865322
1.147910
1.380034
1.321032
1.216087
0.878718
0.534602
0.233680
-0.113979
-0.280120
-0.196496
-0.199980
-0.069175
-0.008994
-0.061033
-0.053314
0.061218
0.006711
0.009013
0.060620
0.025737
0.079227
0.014986
0.080196
0.103901
0.103130
0.058871
0.138833
0.108123
0.113676
0.171189
0.182435
0.138944
0.289882
0.251308
0.161998
0.353235
0.343851
0.300771
0.411178
0.358370
0.315039
0.370325
0.444566
0.466933
0.454134
0.482983
0.454691
0.492529
0.428509
0.531871
0.444097
0.591496
0.447542
0.540114
0.450706
0.492268
0.431410
0.417911
0.386277
0.351506
0.434833
0.416755
0.292399
0.227583
0.347548
0.272907
0.282431
0.294837
0.225722
0.208367
0.152902
0.161272
0.145740
0.089276
0.168508
0.057137
0.111853
0.065074
0.075386
0.061120
0.068419
-0.011955
0.016185
0.081720
-0.053499
0.018599
-0.077055
0.014680
0.004971
-0.087276
-0.046179
-0.082305
-0.002479
-0.076533
-0.030060
0.070734
-0.036990
0.005006
-0.042740
-0.012738
-0.009842
-0.019728
-0.025568
-0.038874
-0.009963
0.013964
-0.079987
-0.104674
-0.079394
-0.060011
-0.080118
-0.065982
-0.082218
0.026928
-0.045594
-0.061146
-0.023514
-0.100927
-0.014771
-0.070035
-0.082821
-0.020639
-0.051370
0.016281
0.030178
-0.078678
-0.003865
0.005462
-0.081108
-0.054670
-0.041389
-0.049075
0.013764
-0.029479
0.007738
0.029437
-0.120839
-0.011886
0.012261
-0.038177
0.045061
-0.036458
-0.033178
0.097072
0.007862
0.001598
0.094174
-0.048140
0.052303
0.082540
0.066723
0.142226
0.145649
0.152486
0.182409
0.152922
0.174561
0.119011
0.120364
0.141930
0.179519
0.075910
0.094008
0.061960
0.009028
0.104426
0.061043
0.076289
0.023575
0.073009
0.042258
0.078674
0.060687
-0.025041
0.030015
-0.005292
-0.028399
-0.062257
-0.023206
-0.050212
-0.019446
0.008557
-0.014563
-0.060872
-0.071379
-0.000707
-0.031328
0.056520
0.007396
0.196385
0.472405
0.782335
1.069394
1.335795
1.369534
1.331976
1.053406
0.577229
0.198559
0.001582
-0.169261
-0.206112
-0.167321
-0.197666
-0.015867
-0.078816
-0.017158
0.096657
0.004211
0.032023
0.012916
0.120794
0.060018
0.103817
0.078260
0.096755
0.121162
0.126014
0.098649
0.078776
0.100618
0.188245
0.167966
0.230182
0.172139
0.339880
0.308183
0.238053
0.365202
0.317154
0.444014
0.360848
0.388732
0.485463
0.475110
0.472706
0.449684
0.542738
0.438568
0.523769
0.474613
0.483733
0.525614
0.554810
0.519793
0.581926
0.522501
0.480122
0.491635
0.484804
0.523243
0.489829
0.436684
0.425830
0.383702
0.323848
0.290946
0.348195
0.237868
0.319507
0.255434
0.284063
0.225932
0.181995
0.196372
0.166219
0.196968
0.094654
0.106042
0.125479
0.129682
0.081787
0.152864
0.072815
0.028723
0.089971
-0.018408
0.034247
0.012453
0.033164
0.026649
0.029005
-0.009918
0.017091
0.083339
0.015881
-0.018037
0.012656
-0.004279
0.059230
0.139292
0.005154
0.013927
0.057845
0.010972
-0.018248
0.005745
0.010630
0.043853
0.000565
0.024994
-0.002981
0.013442
0.029647
0.034930
0.014256
0.006695
-0.034647
0.099863
0.019222
0.096794
0.030755
-0.027657
0.040067
-0.059579
0.114484
0.001597
0.017784
0.052699
-0.059215
-0.026634
0.094972
0.041229
0.134135
0.054650
-0.046313
0.072465
0.151942
0.088580
0.118859
0.074320
0.001003
0.082078
0.159839
0.152557
0.072627
0.183395
0.187838
0.150111
0.123212
0.140192
0.207268
0.163573
0.304816
0.172602
0.236090
0.199027
0.230779
0.191776
0.251717
0.216302
0.224993
0.242934
0.184718
0.245560
0.168904
0.182194
0.180138
0.117592
0.121528
0.157807
0.226221
0.103294
0.121625
0.117781
0.163969
0.136471
0.130632
0.079229
0.099840
0.092347
0.131314
0.028434
0.158674
0.090973
0.078473
0.125502
0.004293
0.009611
0.008334
0.153921
0.157665
0.443485
0.709033
1.051692
1.331445
1.477722
1.500000
1.258030
0.840155
0.515314
0.115264
-0.058187
-0.164293
-0.106384
0.011871
-0.031121
0.152999
0.134577
0.109270
0.199240
0.081125
0.170121
0.147138
0.185110
0.138479
0.193492
0.126969
0.204873
0.163343
0.157597
0.330934
0.205673
0.265763
0.271309
0.316841
0.344580
0.254826
0.359779
0.391300
0.485495
0.423425
0.383377
0.535990
0.547423
0.436250
0.552663
0.449489
0.602447
0.625630
0.625546
0.607011
0.594413
0.720583
0.649432
0.627061
0.648872
0.729342
0.553114
0.515989
0.614430
0.645612
0.547600
0.588233
0.564732
0.450761
0.492049
0.454411
0.469158
0.353170
0.375695
0.369942
0.383044
0.362341
0.301734
0.394330
0.286350
0.292833
0.312470
0.209027
0.148574
0.280770
0.172829
0.201420
0.173242
0.063641
0.177329
0.117283
0.158244
0.175203
0.149283
0.123672
0.167251
0.140129
0.155927
0.096799
0.093954
0.069695
0.097406
0.113172
0.148921
0.115276
0.058880
0.146210
0.161979
0.074760
0.128483
0.089916
0.168244
0.072928
0.101355
0.098831
0.160774
0.061201
0.090694
0.107997
0.040864
0.160422
0.044338
0.111612
0.099180
0.090824
0.120705
0.118343
0.062303
0.117588
0.086018
0.131058
0.143444
0.094446
0.160538
0.069127
0.068171
0.117423
0.054165
0.082256
0.085827
0.217664
0.086695
0.122528
0.128579
0.073900
0.160063
0.186568
0.108874
0.194137
0.129078
0.151116
0.113896
0.147855
0.204650
0.242783
0.214660
0.198239
0.238878
0.270774
0.267683
0.230273
0.275752
0.286046
0.236000
0.246424
0.164444
0.222680
0.209210
0.222504
0.215065
0.120713
0.235607
0.214904
0.201026
0.189115
0.163347
0.096298
0.161542
0.173419
0.112820
0.060740
0.126542
0.107505
0.084994
0.111348
0.054896
0.135898
0.105805
0.175085
0.036589
0.152967
0.042300
0.048626
0.138398
0.101086
0.041453
0.141251
0.358345
0.627853
0.904439
1.228581
1.457846
1.430629
1.313862
0.940912
0.579597
0.277544
0.029672
-0.133924
-0.115519
-0.113907
0.001211
0.057126
0.064158
0.027985
0.148782
0.153055
0.127593
0.084174
0.102467
0.125373
0.054167
0.149999
0.146777
0.250276
0.168298
0.223058
0.245798
0.175170
0.294643
0.280905
0.285331
0.330431
0.345938
0.452927
0.391129
0.441663
0.450048
0.513302
0.411392
0.471378
0.524489
0.434140
0.508915
0.529731
0.464759
0.549754
0.630769
0.609347
0.607216
0.644463
0.587690
0.634022
0.520881
0.544956
0.508760
0.507883
0.512782
0.549315
0.474863
0.412226
0.449525
0.291440
0.378005
0.429754
0.381856
0.323067
0.321195
0.259878
0.263910
0.222305
0.233009
0.202730
0.108400
0.157562
0.139245
0.192436
0.085990
0.132274
0.111827
0.019315
0.083150
0.096901
0.106906
0.106049
0.084530
-0.022147
0.012825
0.075655
-0.035575
0.040421
-0.050349
-0.010223
0.026423
-0.039333
0.045324
0.016006
0.048792
-0.012638
0.065343
0.007010
0.040349
0.018126
-0.023254
-0.104226
-0.008373
0.020260
-0.011851
0.026738
-0.010840
0.011712
0.029202
0.018336
-0.015087
-0.041217
0.006207
0.027600
-0.026238
-0.034434
-0.042585
0.050019
0.020484
-0.006893
-0.089962
-0.017296
0.062701
0.038181
0.041864
-0.050818
-0.028602
0.047303
0.043643
0.051232
0.055523
0.025621
-0.032490
-0.017739
0.020877
0.092029
0.045218
0.089306
0.077363
0.002417
0.084808
0.127109
0.071913
0.110171
0.101337
0.093455
0.163526
0.169940
0.132930
0.209270
0.161933
0.163616
0.235239
0.053285
0.121826
0.179624
0.115226
0.142022
0.107458
0.111347
0.062703
0.068913
0.001397
0.052063
-0.016985
0.110425
0.069339
0.049627
0.048735
0.032620
0.077856
0.010232
0.011891
0.001058
-0.015140
-0.143819
-0.035349
-0.040673
-0.098887
-0.109427
-0.072160
-0.072935
-0.120738
-0.096898
-0.080800
-0.045604
0.165392
0.373383
0.807928
1.067900
1.269384
1.299645
1.226215
1.008871
0.522738
0.258317
-0.097415
-0.278270
-0.267912
-0.170770
-0.125499
-0.060678
-0.151021
-0.087159
0.047093
-0.030592
-0.011608
-0.018391
-0.031589
0.072326
-0.010226
0.061090
0.049156
0.011071
-0.012745
0.083792
0.041636
0.111114
0.078942
0.161141
0.234790
0.189936
0.224084
0.261520
0.237995
0.234230
0.309954
0.356917
0.427756
0.318880
0.332672
0.311980
0.397763
0.390276
0.501835
0.384681
0.484160
0.508090
0.415800
0.438500
0.343272
0.400574
0.522918
0.389623
0.428321
0.338992
0.292263
0.430244
0.365682
0.368949
0.254483
0.333281
0.385950
0.262843
0.293211
0.220043
0.131576
0.139583
0.179579
0.163473
0.114654
0.155234
0.069846
0.089755
0.090091
0.045647
0.009248
-0.008769
-0.011981
-0.001653
-0.071529
-0.065744
0.028550
0.006777
-0.028153
-0.044559
-0.029519
0.008752
-0.104155
-0.124936
-0.045465
-0.031355
-0.026962
-0.137661
-0.107636
-0.133250
-0.103636
-0.113667
-0.037639
-0.029363
-0.025562
-0.075933
0.034227
-0.068773
-0.083745
-0.120389
-0.037884
-0.075353
-0.105700
-0.084303
-0.092249
-0.092252
-0.115419
-0.053037
-0.043316
-0.126718
-0.035814
-0.024154
-0.078195
-0.051542
-0.128207
0.067308
-0.103108
-0.118017
-0.017181
-0.053976
-0.094949
-0.071622
-0.071577
-0.033184
-0.160116
-0.044417
-0.015086
-0.094339
-0.062466
-0.015359
-0.018491
0.004382
0.093682
-0.018040
-0.025506
0.027172
-0.011804
0.007502
-0.055183
0.081409
0.019345
0.010288
0.154681
0.079875
0.100189
0.067256
0.075884
0.048398
0.050263
0.134571
0.127886
0.059964
0.101065
0.145405
0.079313
0.080468
0.060395
0.005678
0.059886
0.043069
0.012819
-0.007786
0.100849
-0.040417
-0.028525
0.037506
0.013121
0.024721
-0.095148
0.009266
-0.005759
-0.063076
0.007065
-0.007301
-0.022030
-0.109174
-0.103296
-0.078417
-0.153158
-0.124758
-0.056192
0.006842
0.084932
0.299488
0.572337
0.879962
1.208730
1.361500
1.342278
1.101363
0.675457
0.257695
-0.072609
-0.251605
-0.294019
-0.254456
-0.237475
-0.044591
-0.131584
-0.076646
-0.041299
-0.053608
-0.013645
0.027064
0.086371
-0.094272
0.007753
0.094313
0.073254
0.027950
0.029612
0.075572
0.081138
0.155743
0.134715
0.123209
0.238355
0.184601
0.206397
0.223561
0.345167
0.314695
0.254330
0.324261
0.308722
0.358923
0.432933
0.319149
0.478814
0.471801
0.468373
0.450656
0.485909
0.492216
0.523724
0.471233
0.474683
0.527119
0.492481
0.390780
0.474392
0.422313
0.472063
0.351762
0.330311
0.377668
0.347209
0.248119
0.372023
0.330705
0.288554
0.263119
0.172370
0.231658
0.179872
0.221843
0.143248
0.084951
0.133369
0.138357
0.093616
0.052660
0.027829
0.085907
0.041565
0.082654
-0.035812
0.029115
0.088125
0.008559
-0.055149
-0.022490
-0.067397
0.057483
0.024027
-0.050733
-0.081913
0.018522
-0.039477
-0.010097
0.049555
-0.043682
-0.037934
-0.017583
0.036285
-0.021206
0.075920
-0.015655
-0.052148
0.016573
0.009257
-0.077211
0.025111
-0.060624
-0.009043
-0.004947
-0.007469
0.041017
0.072141
0.003964
0.028894
-0.013186
0.041122
0.025179
-0.035643
-0.041287
-0.081340
0.108315
0.001144
-0.056372
0.015745
0.010517
-0.036251
0.020982
0.046797
-0.002468
-0.091696
0.069548
0.055345
0.026461
0.022643
0.023784
0.046043
0.037707
0.159682
0.062713
0.022319
0.014843
0.083071
0.103958
0.131303
0.148788
0.092997
0.177632
0.161990
0.137196
0.163571
0.167064
0.175103
0.235195
0.118428
0.179526
0.251871
0.169057
0.175902
0.174476
0.139253
0.205945
0.171362
0.109344
0.117663
0.163611
0.095991
0.178349
0.070580
0.054278
0.080767
0.012785
0.087990
0.063492
-0.005400
0.104424
0.034044
0.119300
-0.022083
0.058357
0.113733
0.004316
0.056312
0.104259
0.021840
0.046128
-0.058635
0.108996
0.063605
0.274826
0.679181
0.915718
1.269825
1.363564
1.403615
1.176502
0.873838
0.495076
0.227828
-0.119234
-0.231928
-0.143038
-0.134493
-0.054418
0.031250
0.109276
0.053689
0.051895
0.039096
0.033914
0.100963
0.076474
0.015514
0.143806
0.154019
0.199999
0.160339
0.068646
0.147173
0.217186
0.226918
0.222856
0.250277
0.286208
0.291813
0.366229
0.328662
0.414727
0.361270
0.395944
0.414292
0.500894
0.502815
0.411081
0.454333
0.498292
0.532690
0.547598
0.541647
0.544640
0.526906
0.533441
0.514089
0.592022
0.537372
0.480485
0.497125
0.557272
0.475697
0.373352
0.545007
0.480232
0.417060
0.452816
0.429157
0.398677
0.417456
0.347865
0.271963
0.281654
0.341334
0.268286
0.211339
0.277173
0.264595
0.187587
0.183349
0.118130
0.189319
0.121104
0.150778
0.122772
0.111806
0.131635
0.135556
0.106908
0.067053
0.129475
0.071338
0.102027
0.109315
0.070891
0.045926
0.112806
0.104411
0.064948
0.046632
0.104817
0.048682
-0.035327
0.056642
0.070453
0.056767
0.079173
0.057877
0.035565
0.034957
0.088899
0.015110
0.008984
0.050583
0.050787
0.038425
0.006657
0.033060
0.006655
0.062625
0.065732
0.031183
-0.026499
0.003244
0.041104
0.027216
-0.022223
0.043260
0.087343
0.122138
0.073516
0.107420
0.025888
-0.113032
0.061380
0.115956
0.083114
-0.022626
0.063769
0.119342
0.022245
0.051526
0.136297
0.113993
0.041252
0.095139
0.070467
0.083655
0.142869
0.173434
0.122787
0.199371
0.137351
0.151303
0.146678
0.239134
0.145385
0.135417
0.243206
0.185892
0.198449
0.251756
0.214417
0.198773
0.190467
0.223860
0.242069
0.211967
0.236608
0.148306
0.108558
0.139053
0.122624
0.082747
0.039046
0.056705
0.125788
0.149730
-0.011068
0.098453
0.016342
0.149518
-0.027476
0.107022
0.027543
0.079093
0.092116
-0.027936
0.080199
0.044153
0.116056
0.054204
0.042786
0.012641
0.277287
0.483121
0.890991
1.094197
1.342108
1.414789
1.261186
1.005800
0.681867
0.230141
-0.002476
-0.171371
-0.164271
-0.143322
0.021267
-0.026260
0.029056
0.015080
0.051701
0.113911
-0.001164
0.030726
0.080868
0.055402
0.055015
0.106862
0.084173
0.123427
0.101865
0.196942
0.147146
0.191616
0.191516
0.212533
0.250366
0.316623
0.284515
0.285385
0.397819
0.358283
0.450016
0.377131
0.402498
0.476168
0.432485
0.481532
0.502218
0.396562
0.492701
0.483988
0.546654
0.439771
0.529121
0.464701
0.585916
0.512273
0.494113
0.546138
0.515003
0.497553
0.551284
0.443277
0.438584
0.347282
0.443197
0.367581
0.380188
0.324096
0.384874
0.291879
0.292044
0.277254
0.092039
0.252017
0.173502
0.253951
0.139417
0.142310
0.028069
0.071314
0.115399
0.064023
0.118169
0.111491
0.120003
0.067556
-0.008735
-0.043116
0.044153
-0.053209
-0.006660
0.008977
-0.138903
-0.029853
-0.068749
-0.037467
-0.061545
-0.065060
-0.066064
-0.001291
-0.022200
-0.015767
-0.061146
-0.117171
-0.046519
0.014300
-0.042818
-0.046175
-0.058902
-0.072252
-0.053567
-0.047274
-0.059297
0.033359
0.001278
-0.041540
0.002999
-0.012526
-0.094714
-0.078289
-0.098806
-0.126100
-0.044638
-0.088973
-0.087398
-0.062258
-0.096184
-0.153111
-0.019055
-0.001937
-0.078017
-0.104542
-0.123810
0.054693
-0.002673
-0.094925
-0.059100
0.055135
-0.032954
-0.017125
-0.008265
0.024420
-0.011284
-0.069970
0.108411
-0.036608
0.002812
0.000080
0.001014
0.079405
0.128488
0.075145
0.161972
0.003074
0.055141
0.058746
0.136226
0.094997
0.051334
0.160695
0.087371
0.022126
0.138528
0.107197
0.122414
0.017389
0.145944
-0.042098
0.108019
-0.028440
0.058464
0.086235
-0.003436
-0.016857
0.007159
0.028764
-0.093540
-0.039833
-0.049278
-0.088595
-0.160386
-0.021602
-0.069845
-0.081834
-0.086018
-0.025204
-0.103313
-0.005494
-0.036469
-0.095192
-0.018047
-0.030465
0.166220
0.357047
0.587306
0.938532
1.152316
1.352518
1.283348
0.942650
0.654207
0.236879
-0.013831
-0.206539
-0.288281
-0.369839
-0.177247
-0.118981
-0.058477
-0.066001
-0.023553
-0.135173
0.013283
-0.096983
0.032927
0.003563
0.046963
0.011188
0.031635
-0.001394
0.029773
0.026265
0.064407
0.177318
0.143966
0.231294
0.149207
0.181472
0.228302
0.122979
0.229180
0.240064
0.208515
0.249444
0.344769
0.360947
0.410655
0.344167
0.430743
0.329480
0.372993
0.350516
0.400239
0.382660
0.371185
0.405345
0.305112
0.362391
0.344597
0.438560
0.423917
0.322453
0.435669
0.276092
0.293866
0.298096
0.335262
0.213524
0.290096
0.236157
0.179450
0.220347
0.210036
0.194613
0.107926
0.111893
0.140266
0.068548
0.045662
0.022455
0.043377
-0.009282
-0.025165
-0.001298
-0.065082
0.092459
-0.048707
-0.060089
-0.047195
-0.066930
-0.011774
-0.025159
-0.124026
-0.093128
-0.065070
-0.104620
-0.020880
-0.059052
-0.052298
-0.116289
-0.118980
-0.023277
-0.075940
-0.104412
-0.110221
-0.039221
-0.043643
-0.098378
-0.088120
-0.118039
-0.048077
-0.152738
-0.185910
-0.109856
-0.069922
-0.104529
-0.077577
-0.138630
-0.101339
-0.085167
-0.063414
-0.150160
-0.101573
-0.075624
-0.081997
-0.186589
-0.047231
-0.076310
-0.075872
-0.114264
-0.124432
-0.158904
-0.105554
-0.040451
-0.034514
-0.041875
-0.028193
0.046746
-0.117178
-0.157532
-0.035099
-0.107327
-0.138180
-0.067370
-0.065179
-0.001745
-0.051377
-0.019513
0.067228
0.027420
-0.070791
0.075358
0.039568
0.082483
0.036686
0.028981
0.036050
0.110490
0.051781
0.022852
0.092810
0.206676
0.121108
0.165955
0.129264
0.034128
0.134637
0.043856
0.097124
0.010962
-0.002021
0.061010
0.070967
-0.051829
-0.022715
-0.045000
0.043199
-0.024333
-0.079985
-0.102927
-0.096559
-0.013683
0.023212
-0.007988
0.029708
-0.007077
-0.071755
-0.027045
-0.060668
-0.085556
-0.073590
-0.058480
-0.140618
-0.046942
-0.004603
0.264749
0.516738
0.855766
1.122608
1.325394
1.324145
1.064768
0.801110
0.344661
0.065060
-0.215413
-0.274758
-0.301320
-0.295089
-0.181439
-0.101187
-0.057511
-0.081454
-0.009590
-0.069840
-0.008876
0.045758
-0.043893
0.081437
0.012683
-0.017301
0.059677
0.104790
0.076626
0.194466
0.186345
0.167811
0.216312
0.162492
0.189458
0.178318
0.250089
0.223548
0.261447
0.240679
0.313322
0.414103
0.388730
0.362682
0.357417
0.410097
0.393393
0.462395
0.442805
0.435317
0.464053
0.482267
0.478936
0.405463
0.457986
0.478420
0.501972
0.438557
0.484086
0.447028
0.457319
0.522092
0.433194
0.398338
0.326179
0.325895
0.231783
0.350520
0.230166
0.273998
0.272013
0.254975
0.134085
0.135127
0.193105
0.141295
0.132178
0.111804
0.088506
0.047247
0.068246
0.103129
0.017658
0.030388
0.120038
0.042307
0.003399
0.089693
0.019569
-0.032240
0.018673
-0.015771
-0.116496
-0.073868
0.044966
-0.064479
0.050723
-0.026962
0.006253
0.013117
0.023308
0.025939
0.079643
0.038763
0.001647
-0.011035
-0.022583
0.000770
-0.003012
0.001848
0.003356
0.010455
0.004127
0.079296
0.033378
0.021349
-0.007389
0.019905
-0.036821
-0.072376
0.023203
0.028479
-0.035131
0.022075
0.044900
0.000704
0.006069
0.067532
0.049824
-0.027104
0.034924
0.042173
0.025789
0.006737
0.063062
-0.015172
0.052451
0.075958
0.001814
0.012420
0.129697
0.100406
0.131475
0.121145
0.149092
0.069370
0.121259
0.068020
0.140390
0.137251
0.129889
0.177355
0.104984
0.098090
0.188457
0.174938
0.145308
0.228741
0.179434
0.243167
0.236957
0.289956
0.228784
0.088141
0.185096
0.245872
0.226055
0.153775
0.118292
0.137558
0.101587
0.199095
0.091295
0.102600
0.035750
0.079891
0.084516
0.028320
0.008579
0.090057
0.117833
0.039650
0.030927
0.060911
0.056263
0.025366
0.135370
0.044714
0.035418
0.048688
0.038413
0.241100
0.268732
0.538680
0.900962
1.197531
1.333722
1.490933
1.348927
0.967013
0.603106
0.210976
-0.028311
-0.072795
-0.181000
-0.141061
0.016608
0.049325
0.003512
0.079202
0.093629
-0.007509
0.156212
0.057697
0.232332
0.077504
0.143853
0.144230
0.158463
0.193958
0.201701
0.200400
0.183369
0.257687
0.315052
0.252930
0.323429
0.345293
0.294977
0.293019
0.411122
0.352648
0.432889
0.496001
0.481609
0.474992
0.488109
0.540615
0.470379
0.606000
0.587625
0.555777
0.525713
0.622348
0.532189
0.631084
0.560327
0.603977
0.581034
0.519859
0.573489
0.521242
0.589215
0.580500
0.529568
0.435711
0.468312
0.484993
0.448110
0.390117
0.425132
0.352964
0.287468
0.300319
0.290626
0.205725
0.231129
0.247361
0.202207
0.132246
0.194226
0.181211
0.176860
0.145497
0.082750
0.160340
0.216731
0.140715
0.099295
0.106874
0.062008
0.110544
0.122068
0.134595
0.117673
0.153806
0.078870
0.092758
0.073204
0.056736
0.042771
0.068366
0.036722
0.075381
0.076315
0.060252
0.080975
0.090132
0.083628
0.152196
0.066340
0.086967
0.127992
0.121731
0.173302
0.044976
0.001647
0.086687
0.051412
0.030012
0.011045
0.050603
